3.991989e+002,2.512250e-002
4.011274e+002,3.311570e-002
4.030559e+002,2.363415e-002
4.049844e+002,1.060729e-002
4.069129e+002,1.000962e-002
4.088414e+002,1.895352e-002
4.107699e+002,2.011714e-002
4.126984e+002,1.542438e-002
4.146269e+002,1.256360e-002
4.165554e+002,1.326062e-002
4.184839e+002,1.422538e-002
4.204124e+002,1.494743e-002
4.223409e+002,1.481349e-002
4.242694e+002,1.508634e-002
4.261979e+002,1.173499e-002
4.281264e+002,1.129169e-002
4.300549e+002,1.139637e-002
4.319834e+002,4.657621e-003
4.339119e+002,4.405338e-003
4.358404e+002,1.120182e-002
4.377689e+002,1.220617e-002
4.396974e+002,6.567874e-003
4.416259e+002,6.005526e-003
4.435544e+002,9.181055e-003
4.454829e+002,1.178173e-002
4.474114e+002,1.578464e-002
4.493399e+002,1.215782e-002
4.512684e+002,5.230768e-003
4.531969e+002,3.617924e-003
4.551254e+002,5.907404e-003
4.570539e+002,6.710795e-003
4.589824e+002,5.409482e-003
4.609109e+002,6.543755e-003
4.628394e+002,7.847330e-003
4.647679e+002,7.726361e-003
4.666964e+002,7.239321e-003
4.686249e+002,4.609966e-003
4.705533e+002,3.864168e-003
4.724819e+002,6.238841e-003
4.744103e+002,6.928060e-003
4.763389e+002,7.115086e-003
4.782673e+002,8.071442e-003
4.801959e+002,7.392507e-003
4.821243e+002,8.052033e-003
4.840529e+002,6.560372e-003
4.859813e+002,5.795135e-003
4.879099e+002,6.551088e-003
4.898383e+002,5.615826e-003
4.917668e+002,4.465926e-003
4.936953e+002,4.998093e-003
4.956238e+002,6.920048e-003
4.975523e+002,6.996713e-003
4.994808e+002,6.814416e-003
5.014093e+002,7.505898e-003
5.033378e+002,6.757504e-003
5.052663e+002,5.542492e-003
5.071948e+002,5.092422e-003
5.091233e+002,3.990987e-003
5.110518e+002,3.336793e-003
5.129803e+002,4.379431e-003
5.149088e+002,3.901979e-003
5.168373e+002,3.229358e-003
5.187658e+002,3.614616e-003
5.206943e+002,4.247614e-003
5.226228e+002,3.870519e-003
5.245513e+002,4.117743e-003
5.264798e+002,4.977916e-003
5.284083e+002,6.090329e-003
5.303368e+002,4.892191e-003
5.322653e+002,3.240107e-003
5.341938e+002,3.728796e-003
5.361223e+002,4.082622e-003
5.380508e+002,3.334188e-003
5.399792e+002,4.336090e-003
5.419078e+002,5.410690e-003
5.438363e+002,5.238179e-003
5.457648e+002,4.898156e-003
5.476932e+002,4.330234e-003
5.496218e+002,3.576062e-003
5.515503e+002,3.878643e-003
5.534788e+002,4.312831e-003
5.554072e+002,4.764874e-003
5.573358e+002,4.434091e-003
5.592643e+002,4.231286e-003
5.611927e+002,3.774417e-003
5.631212e+002,3.989983e-003
5.650497e+002,4.100516e-003
5.669783e+002,4.341177e-003
5.689067e+002,5.423002e-003
5.708352e+002,4.829600e-003
5.727637e+002,4.114431e-003
5.746923e+002,3.403076e-003
5.766207e+002,4.335588e-003
5.785492e+002,7.879686e-003
5.804777e+002,8.921937e-003
5.824063e+002,3.859989e-003
5.843347e+002,4.277227e-003
5.862632e+002,6.568546e-003
5.881917e+002,5.681619e-003
5.901202e+002,4.040447e-003
5.920487e+002,2.466097e-003
5.939772e+002,1.963648e-003
5.959057e+002,2.111023e-003
5.978342e+002,3.202287e-003
5.997627e+002,3.346609e-003
6.016912e+002,3.112506e-003
6.036197e+002,3.023611e-003
6.055482e+002,3.063184e-003
6.074767e+002,3.958250e-003
6.094052e+002,5.331722e-003
6.113337e+002,6.459401e-003
6.132622e+002,5.477358e-003
6.151907e+002,4.283885e-003
6.171192e+002,4.988240e-003
6.190477e+002,5.427129e-003
6.209762e+002,5.227984e-003
6.229047e+002,4.286997e-003
6.248332e+002,3.134599e-003
6.267617e+002,2.810091e-003
6.286902e+002,2.759536e-003
6.306187e+002,2.782179e-003
6.325472e+002,2.627343e-003
6.344756e+002,2.990681e-003
6.364042e+002,3.256198e-003
6.383326e+002,2.714923e-003
6.402612e+002,2.103797e-003
6.421896e+002,2.668914e-003
6.441182e+002,2.891871e-003
6.460466e+002,2.604242e-003
6.479752e+002,2.402922e-003
6.499036e+002,2.274967e-003
6.518322e+002,2.284427e-003
6.537606e+002,2.561611e-003
6.556891e+002,2.444372e-003
6.576177e+002,2.443505e-003
6.595461e+002,2.187109e-003
6.614746e+002,1.537886e-003
6.634031e+002,1.638849e-003
6.653317e+002,1.684218e-003
6.672601e+002,1.581814e-003
6.691886e+002,1.906004e-003
6.711171e+002,2.268705e-003
6.730457e+002,2.323300e-003
6.749741e+002,2.145851e-003
6.769026e+002,1.759232e-003
6.788311e+002,1.745126e-003
6.807596e+002,1.678397e-003
6.826881e+002,1.747388e-003
6.846166e+002,1.664793e-003
6.865451e+002,1.508160e-003
6.884736e+002,1.416767e-003
6.904021e+002,1.556075e-003
6.923306e+002,1.708999e-003
6.942591e+002,1.942280e-003
6.961876e+002,2.105396e-003
6.981161e+002,1.900247e-003
7.000446e+002,1.881877e-003
7.019731e+002,1.824809e-003
7.039016e+002,1.708999e-003
7.058301e+002,1.770410e-003
7.077585e+002,1.448149e-003
7.096871e+002,1.237363e-003
7.116156e+002,1.863341e-003
7.135441e+002,1.586735e-003
7.154725e+002,1.095932e-003
7.174011e+002,1.284084e-003
7.193296e+002,1.475211e-003
7.212581e+002,1.636721e-003
7.231865e+002,1.856486e-003
7.251151e+002,1.773770e-003
7.270436e+002,1.772939e-003
7.289720e+002,2.055356e-003
7.309005e+002,2.317570e-003
7.328290e+002,2.053592e-003
7.347576e+002,1.547729e-003
7.366860e+002,1.136027e-003
7.386145e+002,1.249491e-003
7.405430e+002,1.967110e-003
7.424716e+002,2.177918e-003
7.444000e+002,2.150446e-003
7.463285e+002,2.207057e-003
7.482570e+002,1.813962e-003
7.501855e+002,1.317318e-003
7.521140e+002,1.753543e-003
7.540425e+002,2.138725e-003
7.559710e+002,2.092311e-003
7.578995e+002,2.242493e-003
7.598280e+002,2.005156e-003
7.617565e+002,1.891594e-003
7.636850e+002,2.105329e-003
7.656135e+002,2.351449e-003
7.675420e+002,2.324133e-003
7.694705e+002,1.722405e-003
7.713990e+002,1.374651e-003
7.733275e+002,1.549657e-003
7.752560e+002,1.758566e-003
7.771844e+002,2.010748e-003
7.791130e+002,1.678330e-003
7.810415e+002,1.687943e-003
7.829700e+002,1.795696e-003
7.848984e+002,1.745924e-003
7.868270e+002,1.816058e-003
7.887555e+002,1.909099e-003
7.906840e+002,1.455463e-003
7.926124e+002,1.018940e-003
7.945410e+002,1.324031e-003
7.964695e+002,1.748087e-003
7.983979e+002,1.804612e-003
8.003264e+002,1.692101e-003
8.022549e+002,1.585704e-003
8.041835e+002,1.573533e-003
8.061119e+002,1.357367e-003
8.080404e+002,1.498717e-003
8.099689e+002,1.666456e-003
8.118975e+002,1.641677e-003
8.138259e+002,1.590693e-003
8.157545e+002,1.631400e-003
8.176830e+002,1.929067e-003
8.196115e+002,1.722505e-003
8.215399e+002,1.565153e-003
8.234684e+002,1.691336e-003
8.253970e+002,1.924208e-003
8.273254e+002,2.059384e-003
8.292539e+002,1.769745e-003
8.311824e+002,1.566916e-003
8.331110e+002,1.680359e-003
8.350394e+002,1.622619e-003
8.369679e+002,1.838751e-003
8.388964e+002,1.868666e-003
8.408250e+002,1.404667e-003
8.427534e+002,1.171110e-003
8.446819e+002,1.311734e-003
8.466104e+002,1.639315e-003
8.485389e+002,1.432624e-003
8.504674e+002,1.116095e-003
8.523959e+002,1.001271e-003
8.543244e+002,1.107923e-003
8.562529e+002,1.317650e-003
8.581814e+002,1.514411e-003
8.601099e+002,1.311768e-003
8.620384e+002,1.011799e-003
8.639669e+002,1.344438e-003
8.658954e+002,1.932496e-003
8.678239e+002,1.887767e-003
8.697524e+002,1.855621e-003
8.716809e+002,1.820417e-003
8.736094e+002,1.768880e-003
8.755378e+002,1.633295e-003
8.774664e+002,1.837420e-003
8.793949e+002,1.718679e-003
8.813234e+002,1.581747e-003
8.832518e+002,1.692567e-003
8.851804e+002,1.677532e-003
8.871089e+002,1.565652e-003
8.890374e+002,1.197025e-003
8.909658e+002,1.119085e-003
8.928943e+002,1.396789e-003
8.948229e+002,1.290997e-003
8.967513e+002,1.304789e-003
8.986798e+002,1.564289e-003
9.006083e+002,1.683685e-003
9.025369e+002,1.715885e-003
9.044653e+002,1.760928e-003
9.063938e+002,1.417432e-003
9.083223e+002,1.130147e-003
9.102509e+002,1.156458e-003
9.121793e+002,1.401243e-003
9.141078e+002,1.296214e-003
9.160364e+002,1.383227e-003
9.179648e+002,1.626910e-003
9.198933e+002,1.713889e-003
9.218218e+002,1.604062e-003
9.237504e+002,1.500313e-003
9.256788e+002,1.535226e-003
9.276073e+002,1.284782e-003
9.295358e+002,1.187024e-003
9.314644e+002,1.226430e-003
9.333928e+002,1.383128e-003
9.353213e+002,1.618462e-003
9.372498e+002,1.411449e-003
9.391783e+002,8.035144e-004
9.411068e+002,7.317187e-004
9.430353e+002,1.264112e-003
9.449637e+002,1.481229e-003
9.468923e+002,1.447817e-003
9.488208e+002,1.344205e-003
9.507493e+002,1.382862e-003
9.526777e+002,1.266904e-003
9.546063e+002,1.221014e-003
9.565348e+002,1.353512e-003
9.584633e+002,1.267967e-003
9.603917e+002,1.162638e-003
9.623203e+002,1.203670e-003
9.642488e+002,1.123271e-003
9.661772e+002,1.254708e-003
9.681057e+002,1.367173e-003
9.700343e+002,1.196626e-003
9.719628e+002,1.200248e-003
9.738912e+002,1.196095e-003
9.758197e+002,1.196892e-003
9.777483e+002,1.164897e-003
9.796768e+002,1.092377e-003
9.816052e+002,1.093241e-003
9.835337e+002,1.118354e-003
9.854623e+002,1.201311e-003
9.873907e+002,1.129283e-003
9.893192e+002,1.157223e-003
9.912477e+002,1.050592e-003
9.931763e+002,9.964888e-004
9.951047e+002,8.268845e-004
9.970332e+002,6.405555e-004
9.989617e+002,8.390349e-004
1.000890e+003,1.100781e-003
1.002819e+003,1.151176e-003
1.004747e+003,9.985479e-004
1.006676e+003,8.313994e-004
1.008604e+003,6.686956e-004
1.010533e+003,6.699234e-004
1.012461e+003,8.483637e-004
1.014390e+003,8.923544e-004
1.016318e+003,9.055358e-004
1.018247e+003,1.044214e-003
1.020175e+003,1.120713e-003
1.022104e+003,1.168485e-003
1.024032e+003,1.247497e-003
1.025961e+003,1.340084e-003
1.027889e+003,1.234870e-003
1.029818e+003,9.285794e-004
1.031746e+003,1.003397e-003
1.033675e+003,1.052817e-003
1.035603e+003,1.041358e-003
1.037532e+003,1.120846e-003
1.039460e+003,1.117690e-003
1.041389e+003,1.048599e-003
1.043317e+003,1.132672e-003
1.045246e+003,1.357567e-003
1.047174e+003,1.373555e-003
1.049103e+003,1.300236e-003
1.051031e+003,1.098323e-003
1.052960e+003,9.751685e-004
1.054888e+003,9.853968e-004
1.056817e+003,1.058364e-003
1.058745e+003,1.151940e-003
1.060674e+003,1.207690e-003
1.062602e+003,1.140047e-003
1.064531e+003,1.009275e-003
1.066459e+003,8.799369e-004
1.068388e+003,9.626491e-004
1.070316e+003,1.055242e-003
1.072245e+003,1.018940e-003
1.074173e+003,8.644986e-004
1.076102e+003,7.871494e-004
1.078030e+003,9.876551e-004
1.079959e+003,9.481376e-004
1.081887e+003,7.094820e-004
1.083816e+003,8.297395e-004
1.085744e+003,9.876218e-004
1.087673e+003,1.111577e-003
1.089601e+003,1.109617e-003
1.091530e+003,9.541812e-004
1.093458e+003,9.473406e-004
1.095387e+003,1.086365e-003
1.097315e+003,1.110016e-003
1.099244e+003,1.001072e-003
1.101172e+003,1.005290e-003
1.103101e+003,8.516171e-004
1.105029e+003,1.051057e-003
1.106958e+003,1.087029e-003
1.108886e+003,1.048366e-003
1.110815e+003,1.034483e-003
1.112743e+003,7.607276e-004
1.114672e+003,7.239191e-004
1.116600e+003,1.099984e-003
1.118529e+003,1.308411e-003
1.120457e+003,1.039066e-003
1.122386e+003,8.399644e-004
1.124314e+003,8.876396e-004
1.126243e+003,7.272713e-004
1.128171e+003,5.751901e-004
1.130100e+003,7.158210e-004
1.132028e+003,7.650758e-004
1.133957e+003,6.974348e-004
1.135885e+003,8.136723e-004
1.137814e+003,7.742702e-004
1.139742e+003,5.046263e-004
1.141671e+003,7.060304e-004
1.143599e+003,8.323289e-004
1.145528e+003,6.679987e-004
1.147456e+003,7.244833e-004
1.149385e+003,8.789077e-004
1.151313e+003,8.496584e-004
1.153242e+003,7.724778e-004
1.155170e+003,8.767496e-004
1.157099e+003,9.888506e-004
1.159027e+003,1.003563e-003
1.160956e+003,7.938214e-004
1.162884e+003,6.921581e-004
1.164813e+003,7.129004e-004
1.166741e+003,7.025125e-004
1.168670e+003,7.841618e-004
1.170598e+003,7.200027e-004
1.172526e+003,7.445965e-004
1.174455e+003,8.038463e-004
1.176384e+003,8.872745e-004
1.178312e+003,8.748571e-004
1.180240e+003,8.307687e-004
1.182169e+003,8.594190e-004
1.184098e+003,7.456255e-004
1.186026e+003,6.097629e-004
1.187954e+003,6.920917e-004
1.189883e+003,7.238195e-004
1.191812e+003,7.222596e-004
1.193740e+003,7.954811e-004
1.195668e+003,7.696896e-004
1.197597e+003,6.363745e-004
1.199526e+003,5.704788e-004
1.201454e+003,7.039396e-004
1.203382e+003,8.677854e-004
1.205311e+003,8.121452e-004
1.207240e+003,7.587693e-004
1.209168e+003,6.774566e-004
1.211096e+003,6.641824e-004
1.213025e+003,7.650094e-004
1.214953e+003,7.870829e-004
1.216882e+003,7.645115e-004
1.218810e+003,6.194849e-004
1.220739e+003,5.163364e-004
1.222667e+003,5.256582e-004
1.224596e+003,6.422810e-004
1.226524e+003,7.017824e-004
1.228453e+003,6.811733e-004
1.230381e+003,5.917794e-004
1.232310e+003,6.294394e-004
1.234238e+003,6.457321e-004
1.236167e+003,5.900872e-004
1.238095e+003,6.505769e-004
1.240024e+003,7.392860e-004
1.241952e+003,7.568441e-004
1.243881e+003,5.597958e-004
1.245809e+003,4.897984e-004
1.247738e+003,5.304021e-004
1.249666e+003,6.974016e-004
1.251595e+003,7.162192e-004
1.253523e+003,6.017332e-004
1.255452e+003,6.627555e-004
1.257380e+003,7.292626e-004
1.259309e+003,7.130000e-004
1.261237e+003,6.888726e-004
1.263166e+003,5.947655e-004
1.265094e+003,5.359423e-004
1.267023e+003,6.140763e-004
1.268951e+003,6.567823e-004
1.270880e+003,6.409205e-004
1.272808e+003,4.746061e-004
1.274737e+003,4.405084e-004
1.276665e+003,5.156397e-004
1.278594e+003,6.260548e-004
1.280522e+003,6.960742e-004
1.282451e+003,6.371709e-004
1.284379e+003,6.376022e-004
1.286308e+003,6.274153e-004
1.288236e+003,5.735311e-004
1.290165e+003,4.899974e-004
1.292093e+003,3.866475e-004
1.294022e+003,4.191490e-004
1.295950e+003,5.580042e-004
1.297879e+003,6.406219e-004
1.299807e+003,6.458316e-004
1.301736e+003,6.725782e-004
1.303664e+003,6.606317e-004
1.305593e+003,6.243626e-004
1.307521e+003,7.540560e-004
1.309450e+003,7.691917e-004
1.311378e+003,5.780433e-004
1.313307e+003,5.251938e-004
1.315235e+003,5.693840e-004
1.317164e+003,7.383898e-004
1.319092e+003,8.166931e-004
1.321021e+003,7.360997e-004
1.322949e+003,5.631798e-004
1.324878e+003,5.276487e-004
1.326806e+003,4.555336e-004
1.328735e+003,4.803446e-004
1.330663e+003,6.042549e-004
1.332592e+003,6.976340e-004
1.334520e+003,6.662067e-004
1.336449e+003,5.744933e-004
1.338377e+003,6.063784e-004
1.340306e+003,5.751569e-004
1.342234e+003,5.880633e-004
1.344163e+003,5.704124e-004
1.346091e+003,5.356105e-004
1.348020e+003,5.651372e-004
1.349948e+003,5.434399e-004
1.351877e+003,5.744933e-004
1.353805e+003,6.508092e-004
1.355734e+003,6.889389e-004
1.357662e+003,6.124505e-004
1.359591e+003,5.805317e-004
1.361519e+003,5.443025e-004
1.363448e+003,5.579378e-004
1.365376e+003,5.404873e-004
1.367305e+003,5.053892e-004
1.369233e+003,4.962669e-004
1.371162e+003,5.569425e-004
1.373090e+003,6.788172e-004
1.375019e+003,5.943673e-004
1.376947e+003,5.239663e-004
1.378876e+003,5.767494e-004
1.380804e+003,6.448693e-004
1.382733e+003,6.959082e-004
1.384661e+003,7.058977e-004
1.386590e+003,7.203678e-004
1.388518e+003,6.849234e-004
1.390447e+003,5.715405e-004
1.392375e+003,4.769944e-004
1.394304e+003,4.374902e-004
1.396232e+003,3.901628e-004
1.398161e+003,4.735447e-004
1.400089e+003,5.555492e-004
1.402018e+003,5.820247e-004
1.403946e+003,5.323594e-004
1.405875e+003,5.195210e-004
1.407803e+003,4.493643e-004
1.409732e+003,4.607080e-004
1.411660e+003,4.737769e-004
1.413589e+003,4.786529e-004
1.415517e+003,4.747388e-004
1.417446e+003,4.869788e-004
1.419374e+003,5.011100e-004
1.421303e+003,5.602602e-004
1.423231e+003,6.231680e-004
1.425160e+003,7.534586e-004
1.427088e+003,6.963065e-004
1.429017e+003,5.228716e-004
1.430945e+003,4.706257e-004
1.432874e+003,5.910826e-004
1.434802e+003,6.733747e-004
1.436731e+003,5.396247e-004
1.438659e+003,4.919214e-004
1.440588e+003,5.590327e-004
1.442516e+003,6.408874e-004
1.444445e+003,6.476567e-004
1.446373e+003,6.330230e-004
1.448302e+003,6.207126e-004
1.450230e+003,5.907176e-004
1.452159e+003,5.009110e-004
1.454087e+003,5.045931e-004
1.456016e+003,6.179585e-004
1.457944e+003,6.936515e-004
1.459873e+003,5.605588e-004
1.461801e+003,5.432409e-004
1.463730e+003,5.054888e-004
1.465658e+003,5.012095e-004
1.467587e+003,5.840818e-004
1.469515e+003,6.194517e-004
1.471444e+003,5.423783e-004
1.473372e+003,5.773134e-004
1.475301e+003,6.860517e-004
1.477229e+003,6.419160e-004
1.479158e+003,5.503073e-004
1.481086e+003,5.986807e-004
1.483015e+003,5.915471e-004
1.484943e+003,4.655839e-004
1.486872e+003,3.998468e-004
1.488800e+003,4.161972e-004
1.490729e+003,5.651372e-004
1.492657e+003,6.581097e-004
1.494586e+003,5.460608e-004
1.496514e+003,4.124827e-004
1.498443e+003,4.168937e-004
1.500371e+003,5.024369e-004
1.502300e+003,6.141427e-004
1.504228e+003,6.559195e-004
1.506157e+003,5.935378e-004
1.508085e+003,4.468767e-004
1.510014e+003,3.794511e-004
1.511942e+003,3.650254e-004
1.513871e+003,3.686732e-004
1.515799e+003,4.387837e-004
1.517728e+003,5.651372e-004
1.519656e+003,5.363404e-004
1.521585e+003,4.825339e-004
1.523513e+003,5.013422e-004
1.525442e+003,5.563786e-004
1.527370e+003,5.186253e-004
1.529299e+003,5.193883e-004
1.531227e+003,4.590164e-004
1.533156e+003,4.535104e-004
1.535084e+003,6.125832e-004
1.537013e+003,6.183235e-004
1.538941e+003,3.971273e-004
1.540870e+003,2.928048e-004
1.542798e+003,4.739096e-004
1.544727e+003,6.013683e-004
1.546655e+003,5.462930e-004
1.548584e+003,4.589832e-004
1.550512e+003,4.516198e-004
1.552441e+003,4.557327e-004
1.554369e+003,4.621343e-004
1.556298e+003,4.997500e-004
1.558226e+003,4.377887e-004
1.560155e+003,4.698960e-004
1.562083e+003,5.594308e-004
1.564012e+003,6.096301e-004
1.565940e+003,5.913148e-004
1.567869e+003,5.556818e-004
1.569797e+003,6.562182e-004
1.571726e+003,6.096633e-004
1.573654e+003,4.558322e-004
1.575583e+003,4.769944e-004
1.577511e+003,5.665970e-004
1.579440e+003,5.940687e-004
1.581368e+003,5.578383e-004
1.583297e+003,4.495633e-004
1.585225e+003,5.454305e-004
1.587154e+003,6.000079e-004
1.589082e+003,5.103652e-004
1.591010e+003,3.979233e-004
1.592939e+003,3.348160e-004
1.594868e+003,4.432282e-004
1.596796e+003,5.908503e-004
1.598724e+003,5.135830e-004
1.600653e+003,4.206083e-004
1.602582e+003,4.945419e-004
1.604510e+003,5.752896e-004
1.606438e+003,4.986553e-004
1.608367e+003,4.719194e-004
1.610296e+003,4.120847e-004
1.612224e+003,3.735812e-004
1.614152e+003,4.574243e-004
1.616081e+003,5.393925e-004
1.618010e+003,5.152085e-004
1.619938e+003,4.594808e-004
1.621866e+003,5.142796e-004
1.623795e+003,4.788520e-004
1.625724e+003,5.025364e-004
1.627652e+003,4.464787e-004
1.629580e+003,3.938109e-004
1.631509e+003,4.006759e-004
1.633438e+003,4.370590e-004
1.635366e+003,4.015714e-004
1.637294e+003,5.570753e-004
1.639223e+003,6.351467e-004
1.641151e+003,6.498800e-004
1.643080e+003,5.654690e-004
1.645008e+003,4.775583e-004
1.646937e+003,5.376674e-004
1.648865e+003,5.353783e-004
1.650794e+003,4.612387e-004
1.652722e+003,4.106917e-004
1.654651e+003,4.577228e-004
1.656579e+003,5.944337e-004
1.658508e+003,5.780433e-004
1.660436e+003,4.839603e-004
1.662365e+003,4.385516e-004
1.664293e+003,4.065461e-004
1.666222e+003,4.374239e-004
1.668150e+003,4.429297e-004
1.670079e+003,5.971544e-004
1.672007e+003,6.560854e-004
1.673936e+003,5.912484e-004
1.675864e+003,5.671942e-004
1.677793e+003,5.139810e-004
1.679721e+003,4.009081e-004
1.681650e+003,3.815072e-004
1.683578e+003,4.520509e-004
1.685507e+003,5.496438e-004
1.687435e+003,5.436721e-004
1.689364e+003,5.502077e-004
1.691292e+003,6.563177e-004
1.693221e+003,6.735738e-004
1.695149e+003,4.551688e-004
1.697078e+003,4.306578e-004
1.699006e+003,3.726195e-004
1.700935e+003,3.351807e-004
1.702863e+003,4.766959e-004
1.704792e+003,5.146445e-004
1.706720e+003,5.073796e-004
1.708649e+003,5.195874e-004
1.710577e+003,4.603100e-004
1.712506e+003,4.340076e-004
1.714434e+003,4.485351e-004
1.716363e+003,4.563297e-004
1.718291e+003,4.096968e-004
1.720220e+003,4.789515e-004
1.722148e+003,4.758335e-004
1.724077e+003,4.712891e-004
1.726005e+003,5.620518e-004
1.727934e+003,6.323926e-004
1.729862e+003,5.801668e-004
1.731791e+003,5.190898e-004
1.733719e+003,3.990177e-004
1.735648e+003,3.934129e-004
1.737576e+003,4.629635e-004
1.739505e+003,4.608739e-004
1.741433e+003,4.694980e-004
1.743362e+003,5.112276e-004
1.745290e+003,4.346710e-004
1.747219e+003,4.339413e-004
1.749147e+003,4.820695e-004
1.751076e+003,5.109623e-004
1.753004e+003,5.703793e-004
1.754933e+003,5.208148e-004
1.756861e+003,4.323825e-004
1.758790e+003,3.785557e-004
1.760718e+003,3.706298e-004
1.762647e+003,4.587510e-004
1.764575e+003,4.396461e-004
1.766504e+003,4.748383e-004
1.768432e+003,4.665790e-004
1.770361e+003,4.300276e-004
1.772289e+003,4.205088e-004
1.774218e+003,4.526148e-004
1.776146e+003,4.575569e-004
1.778075e+003,4.087350e-004
1.780003e+003,3.702982e-004
1.781932e+003,3.903950e-004
1.783860e+003,2.839190e-004
1.785789e+003,2.557375e-004
1.787717e+003,4.489663e-004
1.789646e+003,4.784539e-004
1.791574e+003,4.155007e-004
1.793503e+003,4.449861e-004
1.795431e+003,4.827661e-004
1.797360e+003,5.357764e-004
1.799288e+003,4.822022e-004
1.801217e+003,3.627041e-004
1.803145e+003,3.235087e-004
1.805074e+003,4.879740e-004
1.807002e+003,5.459281e-004
1.808931e+003,3.951706e-004
1.810859e+003,4.038597e-004
1.812788e+003,4.659820e-004
1.814716e+003,4.720189e-004
1.816645e+003,4.389164e-004
1.818573e+003,4.503925e-004
1.820502e+003,4.367937e-004
1.822430e+003,4.390159e-004
1.824359e+003,4.584525e-004
1.826287e+003,4.753359e-004
1.828216e+003,4.750705e-004
1.830144e+003,5.100998e-004
1.832073e+003,4.743740e-004
1.834001e+003,5.141801e-004
1.835930e+003,5.580042e-004
1.837858e+003,4.876091e-004
1.839787e+003,4.997168e-004
1.841715e+003,4.331453e-004
1.843644e+003,3.596532e-004
1.845572e+003,4.302929e-004
1.847501e+003,4.212385e-004
1.849429e+003,4.114545e-004
1.851358e+003,5.154738e-004
1.853286e+003,5.446011e-004
1.855215e+003,5.295064e-004
1.857143e+003,5.520656e-004
1.859072e+003,5.903526e-004
1.861000e+003,5.892246e-004
1.862929e+003,5.541226e-004
1.864857e+003,5.390939e-004
1.866786e+003,4.557990e-004
1.868714e+003,4.062476e-004
1.870643e+003,4.133450e-004
1.872571e+003,4.286346e-004
1.874500e+003,4.919214e-004
1.876428e+003,5.305348e-004
1.878357e+003,5.444020e-004
1.880285e+003,5.069152e-004
1.882214e+003,4.494306e-004
1.884142e+003,4.539084e-004
1.886071e+003,4.637264e-004
1.887999e+003,4.506579e-004
1.889928e+003,3.770633e-004
1.891856e+003,3.318316e-004
1.893785e+003,4.069441e-004
1.895713e+003,4.411386e-004
1.897642e+003,4.660815e-004
1.899570e+003,4.825007e-004
1.901499e+003,4.587179e-004
1.903427e+003,4.794490e-004
1.905356e+003,4.816715e-004
1.907284e+003,4.281371e-004
1.909213e+003,3.605817e-004
1.911141e+003,3.641963e-004
1.913070e+003,4.129138e-004
1.914998e+003,4.455168e-004
1.916927e+003,4.734120e-004
1.918855e+003,6.025959e-004
1.920784e+003,6.407546e-004
1.922712e+003,5.231038e-004
1.924641e+003,5.163032e-004
1.926569e+003,6.154368e-004
1.928498e+003,5.543880e-004
1.930426e+003,5.179287e-004
1.932355e+003,4.770608e-004
1.934283e+003,4.367605e-004
1.936212e+003,4.537094e-004
1.938140e+003,4.781554e-004
1.940069e+003,5.562459e-004
1.941997e+003,5.747256e-004
1.943926e+003,5.588336e-004
1.945854e+003,5.355774e-004
1.947783e+003,5.036974e-004
1.949711e+003,4.780559e-004
1.951640e+003,5.109623e-004
1.953568e+003,5.069815e-004
1.955497e+003,4.696306e-004
1.957425e+003,5.363404e-004
1.959354e+003,6.148727e-004
1.961282e+003,6.049517e-004
1.963211e+003,5.315964e-004
1.965139e+003,4.515534e-004
1.967068e+003,3.931144e-004
1.968996e+003,3.199276e-004
1.970925e+003,3.645611e-004
1.972853e+003,4.508569e-004
1.974782e+003,4.938785e-004
1.976710e+003,5.295396e-004
1.978639e+003,5.644737e-004
1.980567e+003,4.575569e-004
1.982496e+003,3.634999e-004
1.984424e+003,3.885047e-004
1.986353e+003,4.256828e-004
1.988281e+003,4.492648e-004
1.990210e+003,4.476064e-004
1.992138e+003,4.963001e-004
1.994067e+003,5.466579e-004
1.995995e+003,4.909594e-004
1.997924e+003,3.735481e-004
1.999852e+003,4.072094e-004
2.001781e+003,4.349695e-004
2.003709e+003,4.542069e-004
2.005638e+003,4.623001e-004
2.007566e+003,5.029013e-004
2.009495e+003,5.309993e-004
2.011423e+003,4.946082e-004
2.013352e+003,5.773466e-004
2.015280e+003,5.787401e-004
2.017208e+003,5.422124e-004
2.019137e+003,5.400892e-004
2.021066e+003,4.831310e-004
2.022994e+003,3.727853e-004
2.024922e+003,3.714920e-004
2.026851e+003,5.219095e-004
2.028780e+003,5.379660e-004
2.030708e+003,4.982240e-004
2.032636e+003,5.851104e-004
2.034565e+003,6.066771e-004
2.036494e+003,4.985225e-004
2.038422e+003,4.600446e-004
2.040350e+003,4.399114e-004
2.042279e+003,4.421005e-004
2.044208e+003,4.271089e-004
2.046136e+003,4.035944e-004
2.048064e+003,4.142073e-004
2.049993e+003,4.547045e-004
2.051921e+003,4.553015e-004
2.053850e+003,4.881067e-004
2.055778e+003,5.298713e-004
2.057707e+003,5.609901e-004
2.059635e+003,5.764508e-004
2.061564e+003,4.884715e-004
2.063492e+003,2.995356e-004
2.065421e+003,2.946947e-004
2.067349e+003,4.652191e-004
2.069278e+003,5.023374e-004
2.071206e+003,5.037638e-004
2.073135e+003,5.465916e-004
2.075063e+003,5.768157e-004
2.076992e+003,5.979175e-004
2.078920e+003,5.532932e-004
2.080849e+003,5.221418e-004
2.082777e+003,5.187248e-004
2.084706e+003,4.435267e-004
2.086634e+003,3.257303e-004
2.088563e+003,3.118370e-004
2.090491e+003,3.834307e-004
2.092420e+003,4.253511e-004
2.094348e+003,4.927838e-004
2.096277e+003,4.538420e-004
2.098205e+003,4.002779e-004
2.100134e+003,3.763006e-004
2.102062e+003,3.983876e-004
2.103991e+003,4.077400e-004
2.105919e+003,4.773261e-004
2.107848e+003,5.625495e-004
2.109776e+003,4.938785e-004
2.111705e+003,4.141410e-004
2.113633e+003,3.245035e-004
2.115562e+003,3.803133e-004
2.117490e+003,4.185188e-004
2.119419e+003,4.363293e-004
2.121347e+003,4.619021e-004
2.123276e+003,4.421337e-004
2.125204e+003,3.987855e-004
2.127133e+003,3.445318e-004
2.129061e+003,4.260476e-004
2.130990e+003,5.080430e-004
2.132918e+003,3.981886e-004
2.134847e+003,3.321632e-004
2.136775e+003,4.261803e-004
2.138704e+003,5.002143e-004
2.140632e+003,5.421460e-004
2.142561e+003,4.673751e-004
2.144489e+003,3.596864e-004
2.146418e+003,3.629362e-004
2.148346e+003,4.502599e-004
2.150275e+003,3.978238e-004
2.152203e+003,3.456261e-004
2.154132e+003,3.744103e-004
2.156060e+003,3.903950e-004
2.157989e+003,4.518519e-004
2.159917e+003,4.795154e-004
2.161846e+003,4.194475e-004
2.163774e+003,3.838949e-004
2.165703e+003,4.153681e-004
2.167631e+003,4.551356e-004
2.169560e+003,4.829651e-004
2.171488e+003,4.685692e-004
2.173417e+003,3.922854e-004
2.175345e+003,3.954359e-004
2.177274e+003,4.837944e-004
2.179202e+003,5.204499e-004
2.181131e+003,5.094363e-004
2.183059e+003,4.495633e-004
2.184988e+003,4.397788e-004
2.186916e+003,4.908267e-004
2.188845e+003,4.780559e-004
2.190773e+003,3.805454e-004
2.192702e+003,3.774281e-004
2.194630e+003,4.672756e-004
2.196559e+003,5.006456e-004
2.198487e+003,4.911916e-004
2.200416e+003,4.597461e-004
2.202344e+003,4.594476e-004
2.204273e+003,4.540742e-004
2.206201e+003,4.424985e-004
2.208130e+003,4.299612e-004
2.210058e+003,3.600511e-004
2.211987e+003,3.575972e-004
2.213915e+003,4.184193e-004
2.215844e+003,5.081758e-004
2.217772e+003,5.187580e-004
2.219701e+003,4.831642e-004
2.221629e+003,4.369927e-004
2.223558e+003,3.721221e-004
2.225486e+003,4.160314e-004
2.227415e+003,4.716872e-004
2.229343e+003,4.449861e-004
2.231272e+003,4.193480e-004
2.233200e+003,4.869788e-004
2.235129e+003,5.722372e-004
2.237057e+003,5.135166e-004
2.238986e+003,4.513544e-004
2.240914e+003,4.193480e-004
2.242843e+003,4.831310e-004
2.244771e+003,5.637438e-004
2.246700e+003,5.911821e-004
2.248628e+003,5.442693e-004
2.250557e+003,3.983212e-004
2.252485e+003,3.965303e-004
2.254414e+003,5.101993e-004
2.256342e+003,4.750042e-004
2.258271e+003,4.123832e-004
2.260199e+003,4.280708e-004
2.262128e+003,4.858842e-004
2.264056e+003,4.996173e-004
2.265985e+003,5.013754e-004
2.267913e+003,5.556155e-004
2.269842e+003,5.811621e-004
2.271770e+003,5.546865e-004
2.273699e+003,5.023374e-004
2.275627e+003,4.243893e-004
2.277556e+003,3.816730e-004
2.279484e+003,3.905608e-004
2.281413e+003,5.251938e-004
2.283341e+003,5.336532e-004
2.285270e+003,4.865808e-004
2.287198e+003,4.644230e-004
2.289127e+003,5.277813e-004
2.291055e+003,5.363404e-004
2.292984e+003,4.225983e-004
2.294912e+003,3.190986e-004
2.296841e+003,3.282504e-004
2.298769e+003,4.505584e-004
2.300698e+003,5.088060e-004
2.302626e+003,5.186917e-004
2.304555e+003,4.857515e-004
2.306483e+003,4.564956e-004
2.308412e+003,4.225983e-004
2.310340e+003,4.030638e-004
2.312269e+003,4.551688e-004
2.314197e+003,5.213456e-004
2.316125e+003,5.546865e-004
2.318054e+003,4.669107e-004
2.319983e+003,4.069772e-004
2.321911e+003,4.890354e-004
2.323840e+003,5.273169e-004
2.325768e+003,4.269762e-004
2.327697e+003,4.696306e-004
2.329625e+003,6.052171e-004
2.331553e+003,5.690522e-004
2.333482e+003,5.275159e-004
2.335411e+003,4.936131e-004
2.337339e+003,5.489139e-004
2.339268e+003,5.607579e-004
2.341196e+003,4.631294e-004
2.343125e+003,4.274737e-004
2.345053e+003,4.237923e-004
2.346981e+003,5.218431e-004
2.348910e+003,5.351461e-004
2.350839e+003,3.759690e-004
2.352767e+003,4.256828e-004
2.354696e+003,5.131849e-004
2.356624e+003,5.458617e-004
2.358552e+003,4.405084e-004
2.360481e+003,4.306578e-004
2.362409e+003,4.170595e-004
2.364338e+003,3.775608e-004
2.366267e+003,4.145390e-004
2.368195e+003,4.565287e-004
2.370124e+003,4.293642e-004
2.372052e+003,4.075410e-004
2.373980e+003,5.045600e-004
2.375909e+003,5.052234e-004
2.377838e+003,4.473079e-004
2.379766e+003,4.095973e-004
2.381695e+003,4.283361e-004
2.383623e+003,5.705120e-004
2.385552e+003,5.575729e-004
2.387480e+003,4.527143e-004
2.389408e+003,4.553015e-004
2.391337e+003,4.698628e-004
2.393266e+003,4.335101e-004
2.395194e+003,4.620680e-004
2.397123e+003,4.062476e-004
2.399051e+003,4.564956e-004
2.400979e+003,4.467440e-004
2.402908e+003,4.045893e-004
2.404836e+003,4.267109e-004
2.406765e+003,3.763006e-004
2.408694e+003,3.323953e-004
2.410622e+003,3.902292e-004
2.412551e+003,3.769970e-004
2.414479e+003,3.751067e-004
2.416407e+003,4.516198e-004
2.418336e+003,4.870452e-004
2.420264e+003,3.651580e-004
2.422193e+003,3.164791e-004
2.424122e+003,4.355001e-004
2.426050e+003,5.020388e-004
2.427979e+003,4.322166e-004
2.429907e+003,3.921527e-004
2.431835e+003,4.715213e-004
2.433764e+003,5.569425e-004
2.435692e+003,4.786198e-004
2.437621e+003,3.927828e-004
2.439550e+003,3.902623e-004
2.441478e+003,4.374902e-004
2.443406e+003,4.371917e-004
2.445335e+003,4.414040e-004
2.447263e+003,4.747388e-004
2.449192e+003,4.386842e-004
2.451121e+003,4.216696e-004
2.453049e+003,4.470425e-004
2.454978e+003,4.774588e-004
2.456906e+003,4.661810e-004
2.458834e+003,4.880072e-004
2.460763e+003,4.954376e-004
2.462691e+003,4.317191e-004
2.464620e+003,4.991197e-004
2.466549e+003,5.684550e-004
2.468477e+003,5.235682e-004
2.470406e+003,5.120902e-004
2.472334e+003,4.977596e-004
2.474262e+003,5.101993e-004
2.476191e+003,4.810081e-004
2.478119e+003,4.689341e-004
2.480048e+003,4.758003e-004
2.481977e+003,4.638591e-004
2.483905e+003,4.405416e-004
2.485833e+003,3.742777e-004
2.487762e+003,3.791194e-004
2.489690e+003,4.005432e-004
2.491619e+003,4.117530e-004
2.493547e+003,5.079767e-004
2.495476e+003,5.454636e-004
2.497405e+003,4.866803e-004
2.499333e+003,4.070767e-004
2.501261e+003,3.673467e-004
2.503190e+003,4.457821e-004
2.505118e+003,5.566108e-004
2.507047e+003,5.136161e-004
2.508975e+003,4.203430e-004
2.510904e+003,3.397899e-004
2.512833e+003,4.018367e-004
2.514761e+003,3.980227e-004
2.516689e+003,3.470189e-004
2.518618e+003,3.851220e-004
2.520546e+003,4.225983e-004
2.522475e+003,3.842597e-004
2.524403e+003,3.695023e-004
2.526332e+003,3.999794e-004
2.528260e+003,4.886705e-004
2.530189e+003,5.190234e-004
2.532117e+003,4.532782e-004
2.534046e+003,3.499370e-004
2.535974e+003,3.740455e-004
2.537903e+003,3.453608e-004
2.539831e+003,4.190163e-004
2.541760e+003,4.216696e-004
2.543688e+003,4.405416e-004
2.545617e+003,4.391817e-004
2.547545e+003,4.314206e-004
2.549474e+003,3.747088e-004
2.551402e+003,3.460904e-004
2.553331e+003,3.726195e-004
2.555259e+003,3.873771e-004
2.557188e+003,3.853873e-004
2.559116e+003,3.939435e-004
2.561045e+003,4.739428e-004
2.562973e+003,4.875096e-004
2.564902e+003,5.010105e-004
2.566830e+003,4.650532e-004
2.568759e+003,3.786552e-004
2.570687e+003,4.660483e-004
2.572616e+003,5.267198e-004
2.574544e+003,5.146777e-004
2.576473e+003,4.182204e-004
2.578401e+003,3.862164e-004
2.580330e+003,3.782572e-004
2.582258e+003,4.195138e-004
2.584187e+003,4.722511e-004
2.586115e+003,4.203098e-004
2.588044e+003,3.553422e-004
2.589972e+003,3.877419e-004
2.591901e+003,4.146053e-004
2.593829e+003,4.201108e-004
2.595758e+003,3.567018e-004
2.597686e+003,3.158822e-004
2.599615e+003,3.208560e-004
2.601543e+003,3.826016e-004
2.603472e+003,4.097963e-004
2.605400e+003,3.834307e-004
2.607329e+003,4.247873e-004
2.609257e+003,5.304353e-004
2.611186e+003,5.715073e-004
2.613114e+003,5.955618e-004
2.615043e+003,5.400229e-004
2.616971e+003,3.836960e-004
2.618900e+003,3.451950e-004
2.620828e+003,3.367724e-004
2.622757e+003,4.371254e-004
2.624685e+003,4.356660e-004
2.626614e+003,3.983212e-004
2.628542e+003,4.549035e-004
2.630471e+003,4.912248e-004
2.632399e+003,5.226394e-004
2.634328e+003,5.112940e-004
2.636256e+003,4.063139e-004
2.638185e+003,4.203098e-004
2.640113e+003,4.299612e-004
2.642042e+003,3.423101e-004
2.643970e+003,3.925507e-004
2.645899e+003,4.177229e-004
2.647827e+003,4.303924e-004
2.649756e+003,4.666785e-004
2.651684e+003,4.345715e-004
2.653613e+003,3.134617e-004
2.655541e+003,3.378003e-004
2.657470e+003,3.497712e-004
2.659398e+003,3.833643e-004
2.661327e+003,4.974279e-004
2.663255e+003,5.214119e-004
2.665184e+003,4.301271e-004
2.667112e+003,5.128863e-004
2.669041e+003,5.500751e-004
2.670969e+003,5.226062e-004
2.672898e+003,4.643898e-004
2.674826e+003,3.824689e-004
2.676755e+003,3.613445e-004
2.678683e+003,3.987855e-004
2.680612e+003,3.359102e-004
2.682540e+003,4.099289e-004
2.684469e+003,4.951722e-004
2.686397e+003,5.244639e-004
2.688326e+003,4.626318e-004
2.690254e+003,4.416362e-004
2.692183e+003,4.057833e-004
2.694111e+003,3.447971e-004
2.696040e+003,2.531515e-004
2.697968e+003,2.214913e-004
2.699897e+003,3.586584e-004
2.701825e+003,4.333775e-004
2.703754e+003,4.743740e-004
2.705682e+003,5.185258e-004
2.707611e+003,4.922199e-004
2.709539e+003,4.567278e-004
2.711468e+003,4.182204e-004
2.713396e+003,4.349695e-004
2.715325e+003,4.877749e-004
2.717253e+003,4.467440e-004
2.719182e+003,4.067451e-004
2.721110e+003,3.642627e-004
2.723039e+003,4.164294e-004
2.724967e+003,4.940443e-004
2.726896e+003,4.660815e-004
2.728824e+003,4.519846e-004
2.730753e+003,4.931819e-004
2.732681e+003,4.779895e-004
2.734610e+003,4.764968e-004
2.736538e+003,4.447539e-004
2.738467e+003,4.408733e-004
2.740395e+003,5.112608e-004
2.742324e+003,5.554165e-004
2.744252e+003,5.010105e-004
2.746181e+003,4.723506e-004
2.748109e+003,4.032959e-004
2.750038e+003,4.344720e-004
2.751966e+003,4.184857e-004
2.753895e+003,4.382199e-004
2.755823e+003,4.555668e-004
2.757752e+003,4.017372e-004
2.759680e+003,3.409174e-004
2.761609e+003,3.691043e-004
2.763537e+003,5.029345e-004
2.765466e+003,4.905945e-004
2.767394e+003,4.725496e-004
2.769323e+003,4.891682e-004
2.771251e+003,5.287434e-004
2.773180e+003,4.955702e-004
2.775108e+003,4.620680e-004
2.777037e+003,4.777573e-004
2.778965e+003,3.842597e-004
2.780894e+003,4.033622e-004
2.782822e+003,5.905849e-004
2.784750e+003,7.035413e-004
2.786679e+003,6.898018e-004
2.788608e+003,5.819584e-004
2.790536e+003,5.241653e-004
2.792465e+003,4.992855e-004
2.794393e+003,5.009773e-004
2.796322e+003,5.090051e-004
2.798250e+003,4.689009e-004
2.800178e+003,3.153186e-004
2.802107e+003,2.712868e-004
2.804036e+003,4.348037e-004
2.805964e+003,4.998826e-004
2.807893e+003,4.059491e-004
2.809821e+003,3.543143e-004
2.811750e+003,3.174075e-004
2.813678e+003,2.458910e-004
2.815606e+003,3.549775e-004
2.817535e+003,3.915557e-004
2.819464e+003,4.235601e-004
2.821392e+003,5.033989e-004
2.823321e+003,5.481509e-004
2.825249e+003,5.402882e-004
2.827177e+003,4.816051e-004
2.829106e+003,4.007422e-004
2.831034e+003,2.964852e-004
2.832963e+003,2.399899e-004
2.834892e+003,4.056838e-004
2.836820e+003,3.995151e-004
2.838749e+003,3.220829e-004
2.840677e+003,3.739792e-004
2.842605e+003,4.760325e-004
2.844534e+003,4.843915e-004
2.846462e+003,4.342730e-004
2.848391e+003,4.630299e-004
2.850320e+003,4.763310e-004
2.852248e+003,4.218686e-004
2.854177e+003,3.805454e-004
2.856105e+003,4.377555e-004
2.858033e+003,4.133450e-004
2.859962e+003,4.359977e-004
2.861890e+003,4.285351e-004
2.863819e+003,3.492738e-004
2.865748e+003,3.374356e-004
2.867676e+003,3.379661e-004
2.869604e+003,4.258154e-004
2.871533e+003,4.783544e-004
2.873461e+003,5.144455e-004
2.875390e+003,4.292648e-004
2.877319e+003,4.484688e-004
2.879247e+003,4.777242e-004
2.881176e+003,3.503349e-004
2.883104e+003,3.507329e-004
2.885032e+003,5.715073e-004
2.886961e+003,5.359091e-004
2.888889e+003,4.466445e-004
2.890818e+003,4.242566e-004
2.892747e+003,3.433712e-004
2.894675e+003,3.369050e-004
2.896604e+003,4.445881e-004
2.898532e+003,4.735115e-004
2.900460e+003,4.456826e-004
2.902389e+003,4.831973e-004
2.904317e+003,5.080099e-004
2.906246e+003,4.142073e-004
2.908175e+003,3.659871e-004
2.910103e+003,4.390491e-004
2.912031e+003,4.555668e-004
2.913960e+003,4.975606e-004
2.915888e+003,4.175570e-004
2.917817e+003,3.032823e-004
2.919745e+003,3.915557e-004
2.921674e+003,5.768821e-004
2.923603e+003,6.498469e-004
2.925531e+003,5.181609e-004
2.927459e+003,3.810761e-004
2.929388e+003,3.851551e-004
2.931316e+003,3.672804e-004
2.933245e+003,3.129975e-004
2.935173e+003,2.849136e-004
2.937102e+003,3.757700e-004
2.939031e+003,4.314206e-004
2.940959e+003,3.047744e-004
2.942887e+003,2.733756e-004
2.944816e+003,3.791526e-004
2.946744e+003,4.501935e-004
2.948673e+003,5.247957e-004
2.950601e+003,4.957030e-004
2.952530e+003,3.739792e-004
2.954458e+003,3.351475e-004
2.956387e+003,3.882725e-004
2.958315e+003,5.047921e-004
2.960244e+003,4.160977e-004
2.962172e+003,3.349486e-004
2.964101e+003,4.109902e-004
2.966029e+003,4.512549e-004
2.967958e+003,3.940099e-004
2.969886e+003,3.007955e-004
2.971815e+003,3.429733e-004
2.973743e+003,3.706298e-004
2.975672e+003,3.084217e-004
2.977600e+003,3.564697e-004
2.979529e+003,4.568604e-004
2.981457e+003,4.849222e-004
2.983386e+003,3.896322e-004
2.985314e+003,3.386625e-004
2.987243e+003,4.541406e-004
2.989171e+003,4.945751e-004
2.991100e+003,2.749007e-004
2.993028e+003,2.178447e-004
2.994957e+003,3.880735e-004
2.996885e+003,4.925848e-004
2.998814e+003,5.287102e-004
3.000742e+003,5.001148e-004
3.002671e+003,3.853873e-004
3.004599e+003,2.702922e-004
3.006528e+003,3.354460e-004
3.008456e+003,4.021683e-004
3.010385e+003,3.854868e-004
3.012313e+003,4.139419e-004
3.014242e+003,4.034286e-004
3.016170e+003,4.228968e-004
3.018099e+003,5.358760e-004
3.020027e+003,4.934804e-004
3.021956e+003,3.817393e-004
3.023884e+003,3.288141e-004
3.025813e+003,3.279852e-004
3.027741e+003,2.733093e-004
3.029670e+003,2.771221e-004
3.031598e+003,3.670814e-004
3.033527e+003,4.460143e-004
3.035455e+003,5.862385e-004
3.037384e+003,5.890255e-004
3.039312e+003,5.722041e-004
3.041241e+003,5.282458e-004
3.043169e+003,4.106917e-004
3.045098e+003,3.119365e-004
3.047026e+003,3.096154e-004
3.048955e+003,3.647933e-004
3.050883e+003,4.054185e-004
3.052812e+003,4.349695e-004
3.054740e+003,4.219018e-004
3.056669e+003,3.881730e-004
3.058597e+003,3.373692e-004
3.060526e+003,2.599481e-004
3.062454e+003,3.014587e-004
3.064383e+003,4.157992e-004
3.066311e+003,4.363957e-004
3.068240e+003,4.906277e-004
3.070168e+003,5.048253e-004
3.072097e+003,3.497712e-004
3.074025e+003,3.155507e-004
3.075954e+003,3.078249e-004
3.077882e+003,2.576273e-004
3.079811e+003,3.099470e-004
3.081739e+003,3.111738e-004
3.083668e+003,3.689054e-004
3.085596e+003,2.927716e-004
3.087525e+003,2.763595e-004
3.089453e+003,3.939435e-004
3.091382e+003,4.379877e-004
3.093310e+003,5.244971e-004
3.095239e+003,5.449328e-004
3.097167e+003,4.939449e-004
3.099096e+003,5.047921e-004
3.101024e+003,5.037306e-004
3.102953e+003,4.878745e-004
3.104881e+003,4.798471e-004
3.106810e+003,4.718862e-004
3.108738e+003,3.750073e-004
3.110667e+003,3.486437e-004
3.112595e+003,4.164957e-004
3.114524e+003,4.620348e-004
3.116452e+003,3.283167e-004
3.118381e+003,3.337217e-004
3.120309e+003,4.898316e-004
3.122238e+003,5.859730e-004
3.124166e+003,5.119906e-004
3.126095e+003,3.286152e-004
3.128023e+003,1.268225e-004
3.129952e+003,1.915570e-004
3.131880e+003,3.030502e-004
3.133809e+003,3.857521e-004
3.135737e+003,4.016708e-004
3.137666e+003,3.763006e-004
3.139594e+003,4.074747e-004
3.141523e+003,5.015081e-004
3.143451e+003,5.215114e-004
3.145380e+003,4.544723e-004
3.147308e+003,3.441339e-004
3.149237e+003,2.283867e-004
3.151165e+003,2.983088e-004
3.153094e+003,5.205825e-004
3.155022e+003,5.417811e-004
3.156951e+003,3.994156e-004
3.158879e+003,3.980891e-004
3.160808e+003,4.598125e-004
3.162736e+003,5.058205e-004
3.164665e+003,5.389612e-004
3.166593e+003,3.844255e-004
3.168522e+003,2.381665e-004
3.170450e+003,3.383972e-004
3.172379e+003,4.180877e-004
3.174307e+003,4.404089e-004
3.176236e+003,4.369927e-004
3.178164e+003,4.094646e-004
3.180093e+003,3.147880e-004
3.182021e+003,3.064986e-004
3.183950e+003,3.526562e-004
3.185878e+003,3.830327e-004
3.187807e+003,4.821690e-004
3.189735e+003,4.931487e-004
3.191664e+003,3.730507e-004
3.193592e+003,4.130133e-004
3.195521e+003,4.736774e-004
3.197449e+003,4.446213e-004
3.199378e+003,3.221492e-004
3.201306e+003,2.720162e-004
3.203235e+003,3.062997e-004
3.205163e+003,3.834638e-004
3.207092e+003,3.453940e-004
3.209020e+003,4.534109e-004
3.210948e+003,5.261558e-004
3.212877e+003,4.178555e-004
3.214806e+003,3.255977e-004
3.216734e+003,3.045423e-004
3.218663e+003,3.066312e-004
3.220591e+003,3.021218e-004
3.222520e+003,2.843500e-004
3.224448e+003,2.576273e-004
3.226376e+003,2.294144e-004
3.228305e+003,2.980104e-004
3.230234e+003,3.908261e-004
3.232162e+003,2.800066e-004
3.234091e+003,3.078580e-004
3.236019e+003,3.158822e-004
3.237948e+003,2.595171e-004
3.239876e+003,2.932027e-004
3.241804e+003,4.314538e-004
3.243733e+003,4.375897e-004
3.245662e+003,3.613113e-004
3.247590e+003,4.908267e-004
3.249519e+003,4.611060e-004
3.251447e+003,4.195470e-004
3.253375e+003,3.049070e-004
3.255304e+003,3.811424e-004
3.257232e+003,5.456295e-004
3.259161e+003,5.499092e-004
3.261090e+003,6.293398e-004
3.263018e+003,5.925093e-004
3.264947e+003,5.182272e-004
3.266875e+003,4.318850e-004
3.268803e+003,4.607412e-004
3.270732e+003,3.699997e-004
3.272660e+003,2.638934e-004
3.274589e+003,4.708247e-004
3.276518e+003,4.975274e-004
3.278446e+003,3.636658e-004
3.280375e+003,3.948058e-004
3.282303e+003,4.798803e-004
3.284231e+003,5.589663e-004
3.286160e+003,3.451619e-004
3.288088e+003,2.443660e-004
3.290017e+003,1.479024e-004
3.291946e+003,3.170428e-004
3.293874e+003,5.719055e-004
3.295802e+003,4.007754e-004
3.297731e+003,3.014587e-004
3.299659e+003,5.521320e-004
3.301588e+003,4.895662e-004
3.303516e+003,2.086620e-004
3.305445e+003,2.227178e-004
3.307374e+003,4.574243e-004
3.309302e+003,5.320277e-004
3.311230e+003,4.110234e-004
3.313159e+003,3.616429e-004
3.315087e+003,3.146554e-004
3.317016e+003,4.171590e-004
3.318944e+003,4.728150e-004
3.320873e+003,4.713555e-004
3.322802e+003,4.775915e-004
3.324730e+003,3.995483e-004
3.326658e+003,2.735082e-004
3.328587e+003,3.386293e-004
3.330515e+003,4.112224e-004
3.332444e+003,2.815649e-004
3.334372e+003,3.337880e-004
3.336301e+003,4.239249e-004
3.338229e+003,4.383526e-004
3.340158e+003,3.264267e-004
3.342086e+003,2.688002e-004
3.344015e+003,2.629982e-004
3.345943e+003,3.508987e-004
3.347872e+003,3.872445e-004
3.349800e+003,2.913791e-004
3.351729e+003,1.630501e-004
3.353657e+003,1.682210e-004
3.355586e+003,2.779841e-004
3.357514e+003,3.895991e-004
3.359443e+003,2.595171e-004
3.361371e+003,1.995459e-004
3.363300e+003,4.200776e-004
3.365229e+003,5.902863e-004
3.367157e+003,4.397124e-004
3.369085e+003,1.815131e-004
3.371014e+003,1.616248e-004
3.372942e+003,3.126991e-004
3.374871e+003,3.492075e-004
3.376799e+003,4.283029e-004
3.378728e+003,3.925838e-004
3.380656e+003,3.582604e-004
3.382585e+003,3.331580e-004
3.384513e+003,3.377009e-004
3.386442e+003,2.715852e-004
3.388370e+003,2.337904e-004
3.390299e+003,3.378998e-004
3.392227e+003,4.742744e-004
3.394156e+003,3.096817e-004
3.396084e+003,2.412828e-004
3.398013e+003,2.532179e-004
3.399941e+003,1.517473e-004
3.401870e+003,1.901979e-004
3.403798e+003,3.141580e-004
3.405727e+003,4.279712e-004
3.407655e+003,5.129527e-004
3.409584e+003,3.872445e-004
3.411512e+003,2.725467e-004
3.413441e+003,2.591855e-004
3.415369e+003,2.622688e-004
3.417298e+003,2.530853e-004
3.419226e+003,2.302763e-004
3.421155e+003,2.650206e-004
3.423083e+003,3.613445e-004
3.425012e+003,4.643566e-004
3.426940e+003,3.839944e-004
3.428869e+003,2.191375e-004
3.430797e+003,2.228504e-004
3.432726e+003,3.237076e-004
3.434654e+003,4.134445e-004
3.436583e+003,3.093833e-004
3.438511e+003,2.616389e-004
3.440440e+003,4.021352e-004
3.442368e+003,2.851126e-004
3.444297e+003,2.466535e-004
3.446225e+003,3.598190e-004
3.448154e+003,4.016377e-004
3.450082e+003,3.054707e-004
3.452011e+003,2.903181e-004
3.453939e+003,4.233279e-004
3.455868e+003,5.029345e-004
3.457796e+003,5.238668e-004
3.459725e+003,3.709614e-004
3.461653e+003,3.549443e-004
3.463582e+003,5.067493e-004
3.465510e+003,3.638316e-004
3.467439e+003,2.489411e-004
3.469367e+003,2.048498e-004
3.471296e+003,2.414154e-004
3.473224e+003,3.438686e-004
3.475153e+003,3.295105e-004
3.477081e+003,4.030638e-004
3.479010e+003,3.816398e-004
3.480938e+003,2.063084e-004
3.482867e+003,8.307499e-005
3.484795e+003,3.447639e-004
3.486724e+003,5.497765e-004
3.488652e+003,4.849554e-004
3.490581e+003,5.481509e-004
3.492509e+003,4.856188e-004
3.494438e+003,3.353797e-004
3.496366e+003,2.747018e-004
3.498295e+003,2.507645e-004
3.500223e+003,2.536157e-004
3.502152e+003,3.355455e-004
3.504080e+003,3.428075e-004
3.506009e+003,3.284162e-004
3.507937e+003,3.279520e-004
3.509866e+003,2.628988e-004
3.511794e+003,2.159551e-004
3.513723e+003,2.876987e-004
3.515651e+003,3.579951e-004
3.517580e+003,4.088345e-004
3.519508e+003,4.101942e-004
3.521437e+003,3.598853e-004
3.523365e+003,2.594839e-004
3.525294e+003,1.737565e-004
3.527222e+003,1.712373e-004
3.529151e+003,2.137009e-004
3.531079e+003,1.110795e-004
3.533008e+003,2.140655e-004
3.534936e+003,3.667830e-004
3.536865e+003,4.128475e-004
3.538793e+003,2.896549e-004
3.540722e+003,1.695800e-004
3.542650e+003,1.434941e-004
3.544579e+003,3.195628e-004
3.546507e+003,5.856744e-004
3.548436e+003,5.301367e-004
3.550364e+003,3.956018e-004
3.552293e+003,3.820046e-004
3.554221e+003,3.100796e-004
3.556150e+003,3.259956e-004
3.558078e+003,3.523246e-004
3.560007e+003,2.457253e-004
3.561935e+003,1.767398e-004
3.563864e+003,1.362685e-004
3.565792e+003,5.841924e-005
3.567721e+003,4.758309e-005
3.569649e+003,2.153584e-004
3.571578e+003,3.667167e-004
3.573506e+003,3.432717e-004
3.575435e+003,3.012266e-004
3.577363e+003,4.103933e-004
3.579292e+003,3.821373e-004
3.581220e+003,4.112887e-004
3.583149e+003,4.120847e-004
3.585077e+003,2.475818e-004
3.587006e+003,1.027608e-004
3.588934e+003,4.768250e-005
3.590863e+003,1.526091e-004
3.592791e+003,3.434044e-004
3.594720e+003,3.010940e-004
3.596648e+003,2.901523e-004
3.598577e+003,2.971815e-004
3.600505e+003,3.705966e-004
3.602434e+003,4.669107e-004
3.604362e+003,4.400109e-004
3.606291e+003,3.182365e-004
3.608219e+003,2.386638e-004
3.610148e+003,1.598017e-004
3.612076e+003,1.383898e-004
3.614005e+003,1.656355e-004
3.615933e+003,2.091924e-004
3.617862e+003,6.527896e-005
3.619790e+003,-2.181660e-004
3.621719e+003,-1.184380e-004
3.623647e+003,7.137658e-005
3.625576e+003,1.908609e-004
3.627504e+003,2.125074e-004
3.629433e+003,2.231820e-004
3.631361e+003,1.385224e-004
3.633290e+003,2.341551e-004
3.635218e+003,3.071286e-004
3.637146e+003,3.168770e-004
3.639075e+003,3.586584e-004
3.641004e+003,1.978553e-004
3.642932e+003,1.490956e-004
3.644861e+003,-5.632750e-006
3.646789e+003,-2.216433e-004
3.648718e+003,-1.463946e-004
3.650646e+003,-2.412091e-005
3.652574e+003,-5.947153e-005
3.654503e+003,1.475378e-004
3.656432e+003,2.671757e-004
3.658360e+003,2.148611e-004
3.660289e+003,2.032918e-004
3.662217e+003,3.592553e-004
3.664146e+003,4.058164e-004
3.666074e+003,2.511624e-004
3.668002e+003,1.030922e-004
3.669931e+003,-1.032665e-004
3.671860e+003,-2.193582e-004
3.673788e+003,6.822835e-005
3.675717e+003,9.546966e-005
3.677645e+003,1.030481e-005
3.679573e+003,-3.439177e-005
3.681502e+003,1.457480e-004
3.683430e+003,3.873439e-004
3.685359e+003,2.405203e-004
3.687288e+003,-7.464457e-005
3.689216e+003,-8.779633e-005
3.691145e+003,1.424335e-004
3.693073e+003,2.148611e-004
3.695001e+003,2.023636e-004
3.696930e+003,1.415385e-004
3.698858e+003,6.309179e-005
3.700787e+003,2.137198e-005
3.702716e+003,1.003083e-004
3.704644e+003,2.235466e-004
3.706573e+003,2.921417e-004
3.708501e+003,-9.840698e-006
3.710429e+003,-1.771316e-004
3.712358e+003,-1.562651e-004
3.714286e+003,-9.177160e-005
3.716215e+003,-1.034653e-004
3.718144e+003,-5.672177e-005
3.720072e+003,-9.697251e-005
3.722000e+003,-1.313235e-004
3.723929e+003,-1.831926e-004
3.725857e+003,-3.639243e-004
3.727786e+003,-3.445567e-004
3.729714e+003,-1.553046e-004
3.731643e+003,-1.243343e-004
3.733572e+003,-1.632539e-004
3.735500e+003,-2.517457e-004
3.737428e+003,-3.382993e-004
3.739357e+003,-3.960693e-004
3.741285e+003,-3.276383e-004
3.743214e+003,-3.695523e-004
3.745142e+003,-3.838869e-004
3.747071e+003,-1.106867e-004
3.749000e+003,-1.454560e-005
3.750928e+003,-8.024323e-005
3.752856e+003,-1.399688e-004
3.754785e+003,-7.905062e-005
3.756713e+003,-1.110842e-004
3.758642e+003,-1.633201e-004
3.760570e+003,-1.487132e-004
3.762499e+003,-5.595979e-005
3.764427e+003,-1.151918e-004
3.766356e+003,-2.275712e-004
3.768284e+003,-3.493573e-004
3.770213e+003,-1.778934e-004
3.772141e+003,1.000660e-005
3.774070e+003,2.339326e-005
3.775998e+003,6.256157e-005
3.777927e+003,1.104167e-004
3.779855e+003,6.547780e-005
3.781784e+003,-5.927275e-005
3.783712e+003,-7.696355e-005
3.785641e+003,1.855510e-006
3.787569e+003,9.901579e-005
3.789498e+003,-4.747848e-005
3.791426e+003,-1.916050e-004
3.793355e+003,-1.020409e-004
3.795283e+003,-1.292698e-004
3.797212e+003,-1.562320e-004
3.799140e+003,9.275208e-005
3.801069e+003,1.023300e-004
3.802997e+003,-2.087937e-004
3.804926e+003,-1.664004e-004
3.806854e+003,-7.739422e-005
3.808783e+003,-1.053866e-004
3.810711e+003,-1.890879e-004
3.812640e+003,-2.453876e-004
3.814568e+003,-3.334986e-004
3.816497e+003,-1.777940e-004
3.818425e+003,-4.519248e-005
3.820354e+003,-5.678803e-005
3.822282e+003,3.081575e-005
3.824211e+003,-1.168480e-004
3.826139e+003,-3.674336e-004
3.828068e+003,-3.255193e-004
3.829996e+003,-1.067448e-004
3.831925e+003,-2.217426e-004
3.833853e+003,-2.872765e-004
3.835782e+003,-3.384648e-004
3.837710e+003,-3.790536e-004
3.839639e+003,-1.765023e-004
3.841567e+003,-4.959882e-005
3.843496e+003,-7.464457e-005
3.845424e+003,-1.948838e-004
3.847353e+003,-2.916804e-004
3.849281e+003,-1.378820e-004
3.851210e+003,7.462427e-005
3.853138e+003,-2.433676e-004
3.855067e+003,-2.947267e-004
3.856995e+003,-1.924992e-004
3.858924e+003,-1.790526e-004
3.860852e+003,-1.094279e-004
3.862781e+003,-1.696430e-005
3.864709e+003,-1.885580e-004
3.866638e+003,-3.187319e-004
3.868566e+003,-2.632695e-004
3.870495e+003,-2.774090e-004
3.872423e+003,-1.008814e-004
3.874352e+003,-4.373473e-005
3.876280e+003,-2.551246e-005
3.878209e+003,-4.648457e-005
3.880137e+003,-3.517079e-004
3.882066e+003,-4.492970e-004
3.883994e+003,-3.404182e-004
3.885923e+003,-2.772103e-004
3.887851e+003,-1.283754e-004
3.889780e+003,-1.269015e-005
3.891708e+003,3.747622e-005
3.893637e+003,-0.000000e+000
3.895565e+003,-1.739189e-004
3.897494e+003,-2.926737e-004
3.899422e+003,-3.583293e-004
3.901351e+003,-4.457222e-004
3.903279e+003,-4.104030e-004
3.905208e+003,-3.167784e-004
3.907136e+003,-3.450864e-004
3.909065e+003,-2.122710e-004
3.910993e+003,-6.348018e-005
3.912922e+003,-1.963411e-004
3.914850e+003,-1.920687e-004
3.916779e+003,-2.110126e-004
3.918707e+003,-2.751242e-004
3.920636e+003,-2.173712e-004
3.922564e+003,-9.741299e-006
3.924493e+003,-3.187378e-005
3.926421e+003,-1.543441e-004
3.928350e+003,-1.354640e-004
3.930278e+003,-3.268768e-004
3.932207e+003,-3.693868e-004
3.934135e+003,-3.135667e-004
3.936064e+003,-2.544943e-004
3.937992e+003,-1.749125e-004
3.939921e+003,-9.352732e-005
3.941849e+003,2.332699e-005
3.943778e+003,-1.299654e-004
3.945706e+003,-1.413599e-004
3.947635e+003,-8.971771e-005
3.949563e+003,-1.512968e-004
3.951492e+003,-2.846937e-004
3.953420e+003,-2.430033e-004
3.955349e+003,-3.778287e-004
3.957277e+003,-6.048381e-004
3.959206e+003,-6.325980e-004
3.961134e+003,-4.734592e-004
3.963063e+003,-2.217758e-004
3.964991e+003,-1.682221e-004
3.966920e+003,-1.718985e-004
3.968848e+003,-1.390413e-004
3.970777e+003,-3.137654e-004
3.972705e+003,-2.928393e-004
3.974634e+003,-2.342607e-004
3.976562e+003,-3.733595e-004
3.978491e+003,-2.052169e-004
3.980419e+003,-2.273063e-004
3.982348e+003,-2.593621e-004
3.984276e+003,-2.041240e-004
3.986205e+003,-3.575016e-004
3.988133e+003,-3.056202e-004
3.990062e+003,-7.951442e-005
3.991990e+003,-1.287398e-004
3.993919e+003,-4.269210e-004
3.995847e+003,-5.522252e-004
3.997776e+003,-3.538268e-004
3.999704e+003,-2.083300e-004
4.001633e+003,0.000000e+000
