3.991989e+002,4.156816e-002
4.011274e+002,4.312975e-002
4.030559e+002,2.170979e-002
4.049844e+002,2.114723e-002
4.069129e+002,1.819721e-002
4.088414e+002,1.522478e-002
4.107699e+002,1.872808e-002
4.126984e+002,1.946591e-002
4.146269e+002,1.512593e-002
4.165554e+002,1.642521e-002
4.184839e+002,1.646406e-002
4.204124e+002,1.160527e-002
4.223409e+002,1.542840e-002
4.242694e+002,1.855487e-002
4.261979e+002,1.225753e-002
4.281264e+002,1.276163e-002
4.300549e+002,1.767075e-002
4.319834e+002,9.468231e-003
4.339119e+002,1.075868e-002
4.358404e+002,1.468282e-002
4.377689e+002,9.382022e-003
4.396974e+002,3.181125e-003
4.416259e+002,3.923577e-003
4.435544e+002,9.823885e-003
4.454829e+002,1.381093e-002
4.474114e+002,1.710336e-002
4.493399e+002,1.190955e-002
4.512684e+002,5.027590e-003
4.531969e+002,5.981707e-003
4.551254e+002,1.170408e-002
4.570539e+002,1.082125e-002
4.589824e+002,5.654797e-003
4.609109e+002,7.588938e-003
4.628394e+002,1.031519e-002
4.647679e+002,7.336901e-003
4.666964e+002,5.699310e-003
4.686249e+002,5.249984e-003
4.705533e+002,6.599932e-003
4.724819e+002,7.551614e-003
4.744103e+002,7.206103e-003
4.763389e+002,7.706023e-003
4.782673e+002,8.439839e-003
4.801959e+002,7.166015e-003
4.821243e+002,8.388321e-003
4.840529e+002,8.169446e-003
4.859813e+002,6.588427e-003
4.879099e+002,5.880737e-003
4.898383e+002,7.112223e-003
4.917668e+002,7.068305e-003
4.936953e+002,7.638304e-003
4.956238e+002,8.130587e-003
4.975523e+002,7.216142e-003
4.994808e+002,6.855682e-003
5.014093e+002,7.588702e-003
5.033378e+002,6.912305e-003
5.052663e+002,6.677214e-003
5.071948e+002,6.271616e-003
5.091233e+002,6.216354e-003
5.110518e+002,5.549942e-003
5.129803e+002,4.939442e-003
5.149088e+002,4.047905e-003
5.168373e+002,4.675506e-003
5.187658e+002,6.461116e-003
5.206943e+002,8.038937e-003
5.226228e+002,6.859419e-003
5.245513e+002,5.115320e-003
5.264798e+002,5.473432e-003
5.284083e+002,6.350520e-003
5.303368e+002,5.179126e-003
5.322653e+002,4.700526e-003
5.341938e+002,4.892627e-003
5.361223e+002,4.467299e-003
5.380508e+002,4.593457e-003
5.399792e+002,6.071142e-003
5.419078e+002,5.663256e-003
5.438363e+002,4.464688e-003
5.457648e+002,3.611075e-003
5.476932e+002,3.509852e-003
5.496218e+002,3.904052e-003
5.515503e+002,4.887868e-003
5.534788e+002,4.682808e-003
5.554072e+002,5.003959e-003
5.573358e+002,4.990854e-003
5.592643e+002,5.631534e-003
5.611927e+002,4.179462e-003
5.631212e+002,3.810582e-003
5.650497e+002,4.018743e-003
5.669783e+002,4.362563e-003
5.689067e+002,5.793120e-003
5.708352e+002,5.925173e-003
5.727637e+002,4.408786e-003
5.746923e+002,3.459517e-003
5.766207e+002,5.072341e-003
5.785492e+002,5.466653e-003
5.804777e+002,-3.581231e-003
5.824063e+002,-5.115176e-003
5.843347e+002,3.249254e-003
5.862632e+002,6.283986e-003
5.881917e+002,5.827238e-003
5.901202e+002,4.842868e-003
5.920487e+002,2.633943e-003
5.939772e+002,3.203522e-003
5.959057e+002,5.113711e-003
5.978342e+002,4.601862e-003
5.997627e+002,4.131925e-003
6.016912e+002,3.402375e-003
6.036197e+002,3.764256e-003
6.055482e+002,4.323474e-003
6.074767e+002,4.921144e-003
6.094052e+002,5.514303e-003
6.113337e+002,6.981190e-003
6.132622e+002,6.954591e-003
6.151907e+002,5.655300e-003
6.171192e+002,4.917793e-003
6.190477e+002,4.613784e-003
6.209762e+002,5.537794e-003
6.229047e+002,5.972939e-003
6.248332e+002,5.114482e-003
6.267617e+002,4.578924e-003
6.286902e+002,4.161497e-003
6.306187e+002,3.673424e-003
6.325472e+002,3.290517e-003
6.344756e+002,3.490880e-003
6.364042e+002,2.707388e-003
6.383326e+002,2.181914e-003
6.402612e+002,2.665913e-003
6.421896e+002,3.466230e-003
6.441182e+002,3.189069e-003
6.460466e+002,3.008197e-003
6.479752e+002,2.943808e-003
6.499036e+002,2.647144e-003
6.518322e+002,2.461799e-003
6.537606e+002,2.574077e-003
6.556891e+002,2.596676e-003
6.576177e+002,2.809457e-003
6.595461e+002,2.846243e-003
6.614746e+002,2.032019e-003
6.634031e+002,1.832296e-003
6.653317e+002,2.119879e-003
6.672601e+002,2.602242e-003
6.691886e+002,2.473528e-003
6.711171e+002,2.598076e-003
6.730457e+002,2.861018e-003
6.749741e+002,2.373270e-003
6.769026e+002,1.734281e-003
6.788311e+002,1.658207e-003
6.807596e+002,1.772606e-003
6.826881e+002,1.983819e-003
6.846166e+002,2.158937e-003
6.865451e+002,1.990576e-003
6.884736e+002,2.073467e-003
6.904021e+002,2.271004e-003
6.923306e+002,2.467131e-003
6.942591e+002,2.399024e-003
6.961876e+002,2.472429e-003
6.981161e+002,2.250886e-003
7.000446e+002,1.888000e-003
7.019731e+002,1.595182e-003
7.039016e+002,1.661167e-003
7.058301e+002,1.564688e-003
7.077585e+002,1.391670e-003
7.096871e+002,1.645102e-003
7.116156e+002,1.884273e-003
7.135441e+002,1.601501e-003
7.154725e+002,1.288870e-003
7.174011e+002,1.487945e-003
7.193296e+002,2.016906e-003
7.212581e+002,2.379867e-003
7.231865e+002,2.160869e-003
7.251151e+002,2.031820e-003
7.270436e+002,2.171491e-003
7.289720e+002,2.465698e-003
7.309005e+002,2.792350e-003
7.328290e+002,2.388462e-003
7.347576e+002,1.811899e-003
7.366860e+002,1.598275e-003
7.386145e+002,1.538651e-003
7.405430e+002,2.088016e-003
7.424716e+002,2.551779e-003
7.444000e+002,2.152944e-003
7.463285e+002,2.195601e-003
7.482570e+002,1.867767e-003
7.501855e+002,1.368436e-003
7.521140e+002,1.886636e-003
7.540425e+002,1.988812e-003
7.559710e+002,1.733582e-003
7.578995e+002,2.425845e-003
7.598280e+002,2.913552e-003
7.617565e+002,2.874326e-003
7.636850e+002,2.417183e-003
7.656135e+002,2.866955e-003
7.675420e+002,2.931966e-003
7.694705e+002,2.086717e-003
7.713990e+002,1.472385e-003
7.733275e+002,1.462279e-003
7.752560e+002,1.615203e-003
7.771844e+002,1.531302e-003
7.791130e+002,1.264345e-003
7.810415e+002,1.584374e-003
7.829700e+002,1.456494e-003
7.848984e+002,1.435716e-003
7.868270e+002,2.137726e-003
7.887555e+002,2.430210e-003
7.906840e+002,2.073167e-003
7.926124e+002,1.850264e-003
7.945410e+002,1.853858e-003
7.964695e+002,1.838518e-003
7.983979e+002,1.931663e-003
8.003264e+002,1.736809e-003
8.022549e+002,1.825308e-003
8.041835e+002,2.248954e-003
8.061119e+002,2.041207e-003
8.080404e+002,1.800586e-003
8.099689e+002,1.870862e-003
8.118975e+002,2.105396e-003
8.138259e+002,2.244924e-003
8.157545e+002,1.960553e-003
8.176830e+002,1.913392e-003
8.196115e+002,1.707070e-003
8.215399e+002,1.407792e-003
8.234684e+002,1.479633e-003
8.253970e+002,1.827537e-003
8.273254e+002,1.864939e-003
8.292539e+002,1.612908e-003
8.311824e+002,1.661333e-003
8.331110e+002,1.832528e-003
8.350394e+002,1.943079e-003
8.369679e+002,1.940383e-003
8.388964e+002,1.947839e-003
8.408250e+002,2.110723e-003
8.427534e+002,1.851462e-003
8.446819e+002,1.505932e-003
8.466104e+002,1.441899e-003
8.485389e+002,1.626045e-003
8.504674e+002,1.597843e-003
8.523959e+002,1.671478e-003
8.543244e+002,2.047000e-003
8.562529e+002,2.060250e-003
8.581814e+002,1.781589e-003
8.601099e+002,1.864406e-003
8.620384e+002,1.799089e-003
8.639669e+002,2.071236e-003
8.658954e+002,2.240994e-003
8.678239e+002,2.017006e-003
8.697524e+002,1.928668e-003
8.716809e+002,1.731453e-003
8.736094e+002,1.687344e-003
8.755378e+002,1.745924e-003
8.774664e+002,2.062247e-003
8.793949e+002,2.116083e-003
8.813234e+002,1.747654e-003
8.832518e+002,1.603629e-003
8.851804e+002,1.636289e-003
8.871089e+002,1.719012e-003
8.890374e+002,1.441633e-003
8.909658e+002,1.511984e-003
8.928943e+002,1.780657e-003
8.948229e+002,1.603829e-003
8.967513e+002,1.606323e-003
8.986798e+002,1.641178e-003
9.006083e+002,1.562227e-003
9.025369e+002,1.662631e-003
9.044653e+002,1.864173e-003
9.063938e+002,1.688109e-003
9.083223e+002,1.296513e-003
9.102509e+002,1.021165e-003
9.121793e+002,1.492932e-003
9.141078e+002,1.744893e-003
9.160364e+002,1.533098e-003
9.179648e+002,1.471288e-003
9.198933e+002,1.521826e-003
9.218218e+002,1.565120e-003
9.237504e+002,1.635557e-003
9.256788e+002,1.727295e-003
9.276073e+002,1.551885e-003
9.295358e+002,1.208122e-003
9.314644e+002,1.265973e-003
9.333928e+002,1.706039e-003
9.353213e+002,1.792002e-003
9.372498e+002,1.592056e-003
9.391783e+002,1.219087e-003
9.411068e+002,1.177057e-003
9.430353e+002,1.359860e-003
9.449637e+002,1.331908e-003
9.468923e+002,1.299438e-003
9.488208e+002,1.387981e-003
9.507493e+002,1.591591e-003
9.526777e+002,1.599007e-003
9.546063e+002,1.487712e-003
9.565348e+002,1.210780e-003
9.584633e+002,1.069724e-003
9.603917e+002,1.169548e-003
9.623203e+002,1.381266e-003
9.642488e+002,1.454034e-003
9.661772e+002,1.415006e-003
9.681057e+002,1.379970e-003
9.700343e+002,1.171974e-003
9.719628e+002,1.211146e-003
9.738912e+002,1.266671e-003
9.758197e+002,1.219054e-003
9.777483e+002,1.328817e-003
9.796768e+002,1.291130e-003
9.816052e+002,1.157588e-003
9.835337e+002,1.232046e-003
9.854623e+002,1.373721e-003
9.873907e+002,1.393266e-003
9.893192e+002,1.343142e-003
9.912477e+002,1.016283e-003
9.931763e+002,9.316343e-004
9.951047e+002,9.629480e-004
9.970332e+002,8.870420e-004
9.989617e+002,1.029966e-003
1.000890e+003,1.122274e-003
1.002819e+003,1.099619e-003
1.004747e+003,1.050924e-003
1.006676e+003,1.095566e-003
1.008604e+003,1.127456e-003
1.010533e+003,1.052883e-003
1.012461e+003,1.071849e-003
1.014390e+003,9.801165e-004
1.016318e+003,1.094835e-003
1.018247e+003,1.067199e-003
1.020175e+003,9.132058e-004
1.022104e+003,9.924705e-004
1.024032e+003,1.042022e-003
1.025961e+003,1.084372e-003
1.027889e+003,1.021663e-003
1.029818e+003,9.440200e-004
1.031746e+003,9.586974e-004
1.033675e+003,9.811128e-004
1.035603e+003,9.187509e-004
1.037532e+003,8.692794e-004
1.039460e+003,1.133436e-003
1.041389e+003,1.088092e-003
1.043317e+003,1.141043e-003
1.045246e+003,1.291130e-003
1.047174e+003,1.208521e-003
1.049103e+003,1.175595e-003
1.051031e+003,9.724786e-004
1.052960e+003,8.955086e-004
1.054888e+003,9.648076e-004
1.056817e+003,9.864264e-004
1.058745e+003,1.001537e-003
1.060674e+003,1.092078e-003
1.062602e+003,9.821756e-004
1.064531e+003,8.158633e-004
1.066459e+003,7.444969e-004
1.068388e+003,7.361329e-004
1.070316e+003,9.011530e-004
1.072245e+003,1.257732e-003
1.074173e+003,1.173635e-003
1.076102e+003,8.948445e-004
1.078030e+003,7.851909e-004
1.079959e+003,4.654181e-004
1.081887e+003,5.968226e-004
1.083816e+003,9.932343e-004
1.085744e+003,1.029036e-003
1.087673e+003,9.928690e-004
1.089601e+003,1.055142e-003
1.091530e+003,1.131376e-003
1.093458e+003,1.057965e-003
1.095387e+003,8.908270e-004
1.097315e+003,8.372090e-004
1.099244e+003,8.424543e-004
1.101172e+003,9.135046e-004
1.103101e+003,8.990612e-004
1.105029e+003,1.002500e-003
1.106958e+003,1.018176e-003
1.108886e+003,1.037273e-003
1.110815e+003,9.242296e-004
1.112743e+003,8.454422e-004
1.114672e+003,7.821703e-004
1.116600e+003,9.642098e-004
1.118529e+003,1.169382e-003
1.120457e+003,9.334938e-004
1.122386e+003,9.660030e-004
1.124314e+003,1.203570e-003
1.126243e+003,9.027799e-004
1.128171e+003,5.081758e-004
1.130100e+003,7.005876e-004
1.132028e+003,8.129088e-004
1.133957e+003,6.097629e-004
1.135885e+003,6.827995e-004
1.137814e+003,7.665695e-004
1.139742e+003,4.708579e-004
1.141671e+003,6.076725e-004
1.143599e+003,7.929252e-004
1.145528e+003,6.902664e-004
1.147456e+003,5.657013e-004
1.149385e+003,6.798459e-004
1.151313e+003,6.529330e-004
1.153242e+003,5.586346e-004
1.155170e+003,8.096888e-004
1.157099e+003,9.522552e-004
1.159027e+003,7.973732e-004
1.160956e+003,6.900341e-004
1.162884e+003,7.907011e-004
1.164813e+003,8.189837e-004
1.166741e+003,7.364316e-004
1.168670e+003,6.881425e-004
1.170598e+003,7.772908e-004
1.172526e+003,7.875477e-004
1.174455e+003,7.597982e-004
1.176384e+003,8.724999e-004
1.178312e+003,8.168591e-004
1.180240e+003,6.717486e-004
1.182169e+003,7.160533e-004
1.184098e+003,6.072079e-004
1.186026e+003,5.141801e-004
1.187954e+003,5.509045e-004
1.189883e+003,6.989283e-004
1.191812e+003,8.892997e-004
1.193740e+003,9.212080e-004
1.195668e+003,7.291631e-004
1.197597e+003,5.276818e-004
1.199526e+003,4.856188e-004
1.201454e+003,5.261558e-004
1.203382e+003,6.104928e-004
1.205311e+003,6.164654e-004
1.207240e+003,5.706779e-004
1.209168e+003,5.736970e-004
1.211096e+003,5.790719e-004
1.213025e+003,6.473581e-004
1.214953e+003,6.510746e-004
1.216882e+003,5.445015e-004
1.218810e+003,5.456958e-004
1.220739e+003,6.156690e-004
1.222667e+003,5.759200e-004
1.224596e+003,6.234334e-004
1.226524e+003,6.858526e-004
1.228453e+003,7.897717e-004
1.230381e+003,5.698816e-004
1.232310e+003,3.780914e-004
1.234238e+003,4.092656e-004
1.236167e+003,4.888364e-004
1.238095e+003,6.099287e-004
1.240024e+003,6.766601e-004
1.241952e+003,6.189540e-004
1.243881e+003,4.060486e-004
1.245809e+003,3.380988e-004
1.247738e+003,3.935456e-004
1.249666e+003,5.540562e-004
1.251595e+003,5.659666e-004
1.253523e+003,5.247293e-004
1.255452e+003,5.375015e-004
1.257380e+003,4.717867e-004
1.259309e+003,5.180614e-004
1.261237e+003,5.889591e-004
1.263166e+003,5.843141e-004
1.265094e+003,5.811621e-004
1.267023e+003,6.698571e-004
1.268951e+003,6.859854e-004
1.270880e+003,6.197503e-004
1.272808e+003,3.902292e-004
1.274737e+003,2.131373e-004
1.276665e+003,3.424096e-004
1.278594e+003,5.535586e-004
1.280522e+003,4.816715e-004
1.282451e+003,2.556049e-004
1.284379e+003,3.565692e-004
1.286308e+003,5.339186e-004
1.288236e+003,4.245219e-004
1.290165e+003,4.614377e-004
1.292093e+003,2.999666e-004
1.294022e+003,2.455927e-004
1.295950e+003,7.668350e-004
1.297879e+003,9.138699e-004
1.299807e+003,5.936374e-004
1.301736e+003,4.956034e-004
1.303664e+003,3.270235e-004
1.305593e+003,2.812002e-004
1.307521e+003,5.974862e-004
1.309450e+003,7.476833e-004
1.311378e+003,4.999158e-004
1.313307e+003,4.384189e-004
1.315235e+003,6.321935e-004
1.317164e+003,7.556161e-004
1.319092e+003,5.665970e-004
1.321021e+003,4.032959e-004
1.322949e+003,4.489663e-004
1.324878e+003,4.419347e-004
1.326806e+003,4.336428e-004
1.328735e+003,5.215114e-004
1.330663e+003,5.153411e-004
1.332592e+003,4.821359e-004
1.334520e+003,4.692658e-004
1.336449e+003,4.965322e-004
1.338377e+003,5.376011e-004
1.340306e+003,5.606583e-004
1.342234e+003,5.343168e-004
1.344163e+003,4.289331e-004
1.346091e+003,4.412050e-004
1.348020e+003,5.589331e-004
1.349948e+003,4.990202e-004
1.351877e+003,4.442896e-004
1.353805e+003,4.804110e-004
1.355734e+003,5.044604e-004
1.357662e+003,5.499424e-004
1.359591e+003,6.159677e-004
1.361519e+003,6.697575e-004
1.363448e+003,6.757309e-004
1.365376e+003,4.717535e-004
1.367305e+003,3.808771e-004
1.369233e+003,3.775608e-004
1.371162e+003,4.445217e-004
1.373090e+003,6.265857e-004
1.375019e+003,5.632130e-004
1.376947e+003,4.427638e-004
1.378876e+003,4.888364e-004
1.380804e+003,4.871115e-004
1.382733e+003,4.308568e-004
1.384661e+003,4.311221e-004
1.386590e+003,5.300704e-004
1.388518e+003,5.489803e-004
1.390447e+003,4.025331e-004
1.392375e+003,3.786552e-004
1.394304e+003,6.034918e-004
1.396232e+003,5.274164e-004
1.398161e+003,5.076781e-004
1.400089e+003,6.158681e-004
1.402018e+003,5.392598e-004
1.403946e+003,4.366279e-004
1.405875e+003,3.751731e-004
1.407803e+003,3.462230e-004
1.409732e+003,3.625714e-004
1.411660e+003,4.329131e-004
1.413589e+003,5.199854e-004
1.415517e+003,5.129195e-004
1.417446e+003,6.577446e-004
1.419374e+003,8.001616e-004
1.421303e+003,6.047526e-004
1.423231e+003,5.634452e-004
1.425160e+003,6.605321e-004
1.427088e+003,5.934383e-004
1.429017e+003,4.971957e-004
1.430945e+003,3.943084e-004
1.432874e+003,4.627313e-004
1.434802e+003,7.196709e-004
1.436731e+003,9.353201e-004
1.438659e+003,6.076061e-004
1.440588e+003,4.625323e-004
1.442516e+003,4.746393e-004
1.444445e+003,4.543396e-004
1.446373e+003,5.477528e-004
1.448302e+003,5.626490e-004
1.450230e+003,5.294401e-004
1.452159e+003,4.841925e-004
1.454087e+003,6.099287e-004
1.456016e+003,1.210681e-003
1.457944e+003,1.323300e-003
1.459873e+003,8.465045e-004
1.461801e+003,6.303021e-004
1.463730e+003,6.878770e-004
1.465658e+003,6.297712e-004
1.467587e+003,4.759661e-004
1.469515e+003,5.316628e-004
1.471444e+003,8.625730e-004
1.473372e+003,1.103505e-003
1.475301e+003,8.942801e-004
1.477229e+003,5.303026e-004
1.479158e+003,3.019229e-004
1.481086e+003,5.134171e-004
1.483015e+003,4.991197e-004
1.484943e+003,3.891016e-004
1.486872e+003,5.563454e-004
1.488800e+003,7.988670e-004
1.490729e+003,8.738279e-004
1.492657e+003,6.462298e-004
1.494586e+003,6.046863e-004
1.496514e+003,8.579582e-004
1.498443e+003,7.932903e-004
1.500371e+003,5.629807e-004
1.502300e+003,4.667780e-004
1.504228e+003,7.938878e-004
1.506157e+003,1.420391e-003
1.508085e+003,1.216495e-003
1.510014e+003,6.922908e-004
1.511942e+003,4.977928e-004
1.513871e+003,5.168671e-004
1.515799e+003,7.141947e-004
1.517728e+003,8.005268e-004
1.519656e+003,8.619422e-004
1.521585e+003,9.954262e-004
1.523513e+003,7.752328e-004
1.525442e+003,8.103195e-004
1.527370e+003,6.661072e-004
1.529299e+003,5.309993e-004
1.531227e+003,5.306675e-004
1.533156e+003,7.595327e-004
1.535084e+003,6.149058e-004
1.537013e+003,5.976853e-004
1.538941e+003,1.209684e-003
1.540870e+003,1.410684e-003
1.542798e+003,1.122108e-003
1.544727e+003,8.193488e-004
1.546655e+003,5.868025e-004
1.548584e+003,5.339850e-004
1.550512e+003,4.506247e-004
1.552441e+003,5.485158e-004
1.554369e+003,7.500399e-004
1.556298e+003,1.050691e-003
1.558226e+003,1.774935e-003
1.560155e+003,1.481728e-003
1.562083e+003,7.288643e-004
1.564012e+003,6.154036e-004
1.565940e+003,4.709242e-004
1.567869e+003,5.378664e-004
1.569797e+003,7.449948e-004
1.571726e+003,4.776246e-004
1.573654e+003,4.241571e-004
1.575583e+003,8.465045e-004
1.577511e+003,8.444794e-004
1.579440e+003,4.436262e-004
1.581368e+003,3.329259e-004
1.583297e+003,3.352470e-004
1.585225e+003,3.915226e-004
1.587154e+003,3.858847e-004
1.589082e+003,3.042771e-004
1.591010e+003,2.215244e-004
1.592939e+003,2.662473e-004
1.594868e+003,3.266256e-004
1.596796e+003,3.770965e-004
1.598724e+003,4.261803e-004
1.600653e+003,3.650254e-004
1.602582e+003,3.436365e-004
1.604510e+003,3.656555e-004
1.606438e+003,4.191821e-004
1.608367e+003,4.460475e-004
1.610296e+003,3.420448e-004
1.612224e+003,1.860875e-004
1.614152e+003,3.590231e-004
1.616081e+003,7.333449e-004
1.618010e+003,6.080375e-004
1.619938e+003,3.816730e-004
1.621866e+003,5.818920e-004
1.623795e+003,5.648386e-004
1.625724e+003,3.647269e-004
1.627652e+003,3.268577e-004
1.629580e+003,2.101206e-004
1.631509e+003,1.386550e-004
1.633438e+003,4.609070e-004
1.635366e+003,9.207432e-004
1.637294e+003,8.205440e-004
1.639223e+003,5.584023e-004
1.641151e+003,4.501935e-004
1.643080e+003,4.501935e-004
1.645008e+003,6.992269e-004
1.646937e+003,9.726779e-004
1.648865e+003,7.382571e-004
1.650794e+003,8.401636e-004
1.652722e+003,1.550189e-003
1.654651e+003,1.161242e-003
1.656579e+003,4.567278e-004
1.658508e+003,2.428078e-004
1.660436e+003,2.775863e-004
1.662365e+003,4.428302e-004
1.664293e+003,4.647879e-004
1.666222e+003,4.338750e-004
1.668150e+003,6.531652e-004
1.670079e+003,8.188509e-004
1.672007e+003,5.792046e-004
1.673936e+003,5.847786e-004
1.675864e+003,6.328240e-004
1.677793e+003,3.849893e-004
1.679721e+003,3.747419e-004
1.681650e+003,5.366390e-004
1.683578e+003,1.063180e-003
1.685507e+003,9.450494e-004
1.687435e+003,5.008114e-004
1.689364e+003,4.270094e-004
1.691292e+003,4.085028e-004
1.693221e+003,5.674929e-004
1.695149e+003,9.239308e-004
1.697078e+003,8.375742e-004
1.699006e+003,9.508273e-004
1.700935e+003,1.023191e-003
1.702863e+003,6.354786e-004
1.704792e+003,7.318514e-004
1.706720e+003,6.428452e-004
1.708649e+003,4.483029e-004
1.710577e+003,2.887266e-004
1.712506e+003,3.018897e-004
1.714434e+003,5.050575e-004
1.716363e+003,7.101126e-004
1.718291e+003,6.785517e-004
1.720220e+003,3.878745e-004
1.722148e+003,2.798408e-004
1.724077e+003,3.066644e-004
1.726005e+003,3.408842e-004
1.727934e+003,3.626046e-004
1.729862e+003,3.392262e-004
1.731791e+003,4.795817e-004
1.733719e+003,8.389353e-004
1.735648e+003,6.913948e-004
1.737576e+003,4.261803e-004
1.739505e+003,4.506910e-004
1.741433e+003,3.294773e-004
1.743362e+003,3.582273e-004
1.745290e+003,3.541484e-004
1.747219e+003,3.670483e-004
1.749147e+003,4.729476e-004
1.751076e+003,6.034254e-004
1.753004e+003,4.910257e-004
1.754933e+003,4.127148e-004
1.756861e+003,4.753359e-004
1.758790e+003,3.643290e-004
1.760718e+003,3.628035e-004
1.762647e+003,3.371371e-004
1.764575e+003,1.315289e-004
1.766504e+003,2.449296e-004
1.768432e+003,4.227310e-004
1.770361e+003,4.854861e-004
1.772289e+003,6.636847e-004
1.774218e+003,5.673601e-004
1.776146e+003,2.745360e-004
1.778075e+003,1.541006e-004
1.780003e+003,2.168170e-004
1.781932e+003,2.368404e-004
1.783860e+003,2.265302e-004
1.785789e+003,2.418464e-004
1.787717e+003,2.646228e-004
1.789646e+003,2.677061e-004
1.791574e+003,4.317854e-004
1.793503e+003,4.299944e-004
1.795431e+003,2.741381e-004
1.797360e+003,3.102122e-004
1.799288e+003,3.315332e-004
1.801217e+003,2.147617e-004
1.803145e+003,1.531062e-004
1.805074e+003,2.008387e-004
1.807002e+003,2.125406e-004
1.808931e+003,2.616057e-004
1.810859e+003,3.163465e-004
1.812788e+003,1.906288e-004
1.814716e+003,1.188018e-004
1.816645e+003,1.143938e-004
1.818573e+003,9.778956e-005
1.820502e+003,1.402128e-004
1.822430e+003,2.319671e-004
1.824359e+003,3.766322e-004
1.826287e+003,3.086207e-004
1.828216e+003,3.107428e-004
1.830144e+003,4.460143e-004
1.832073e+003,3.300410e-004
1.834001e+003,2.275579e-004
1.835930e+003,2.531184e-004
1.837858e+003,2.901523e-004
1.839787e+003,2.806034e-004
1.841715e+003,3.128980e-004
1.843644e+003,5.334874e-004
1.845572e+003,4.377555e-004
1.847501e+003,1.943083e-004
1.849429e+003,1.258282e-004
1.851358e+003,2.230494e-004
1.853286e+003,3.063660e-004
1.855215e+003,3.226465e-004
1.857143e+003,2.996682e-004
1.859072e+003,2.394594e-004
1.861000e+003,2.657169e-004
1.862929e+003,2.707232e-004
1.864857e+003,3.102454e-004
1.866786e+003,2.761938e-004
1.868714e+003,2.595502e-004
1.870643e+003,2.327627e-004
1.872571e+003,2.118444e-004
1.874500e+003,1.473058e-004
1.876428e+003,1.342799e-004
1.878357e+003,2.610753e-004
1.880285e+003,2.482781e-004
1.882214e+003,1.526091e-004
1.884142e+003,1.745521e-004
1.886071e+003,1.369977e-004
1.887999e+003,1.820103e-004
1.889928e+003,2.012696e-004
1.891856e+003,5.769019e-005
1.893785e+003,1.593708e-004
1.895713e+003,1.883416e-004
1.897642e+003,7.459113e-005
1.899570e+003,1.792590e-004
1.901499e+003,3.185349e-004
1.903427e+003,2.610090e-004
1.905356e+003,2.417470e-004
1.907284e+003,2.619041e-004
1.909213e+003,3.001987e-004
1.911141e+003,2.647222e-004
1.913070e+003,2.071371e-004
1.914998e+003,2.612079e-004
1.916927e+003,3.539826e-004
1.918855e+003,4.118194e-004
1.920784e+003,3.881730e-004
1.922712e+003,2.968831e-004
1.924641e+003,1.773696e-004
1.926569e+003,2.855768e-004
1.928498e+003,2.896218e-004
1.930426e+003,2.080653e-004
1.932355e+003,1.874134e-004
1.934283e+003,1.536034e-004
1.936212e+003,1.242041e-004
1.938140e+003,1.701435e-004
1.940069e+003,2.285193e-004
1.941997e+003,3.205576e-004
1.943926e+003,3.477484e-004
1.945854e+003,2.714194e-004
1.947783e+003,2.176126e-004
1.949711e+003,2.507645e-004
1.951640e+003,2.310720e-004
1.953568e+003,1.909272e-004
1.955497e+003,1.500568e-004
1.957425e+003,1.560562e-004
1.959354e+003,2.466204e-004
1.961282e+003,2.803713e-004
1.963211e+003,1.933139e-004
1.965139e+003,1.471069e-004
1.967068e+003,1.729610e-004
1.968996e+003,9.530396e-005
1.970925e+003,8.539481e-005
1.972853e+003,1.278168e-004
1.974782e+003,1.239058e-004
1.976710e+003,1.329210e-004
1.978639e+003,2.330279e-004
1.980567e+003,2.668110e-004
1.982496e+003,1.425660e-004
1.984424e+003,1.153881e-004
1.986353e+003,1.682210e-004
1.988281e+003,1.506203e-004
1.990210e+003,1.309323e-004
1.992138e+003,2.185077e-004
1.994067e+003,2.834548e-004
1.995995e+003,1.549293e-004
1.997924e+003,9.155900e-005
1.999852e+003,1.393841e-004
2.001781e+003,9.918150e-005
2.003709e+003,1.166806e-004
2.005638e+003,1.813805e-004
2.007566e+003,1.342136e-004
2.009495e+003,8.672044e-005
2.011423e+003,1.279825e-004
2.013352e+003,1.681878e-004
2.015280e+003,2.169496e-004
2.017208e+003,3.190986e-004
2.019137e+003,3.271562e-004
2.021066e+003,2.309394e-004
2.022994e+003,1.115435e-004
2.024922e+003,1.410082e-004
2.026851e+003,2.051813e-004
2.028780e+003,1.856897e-004
2.030708e+003,2.011371e-004
2.032636e+003,2.509303e-004
2.034565e+003,1.804523e-004
2.036494e+003,9.706045e-005
2.038422e+003,1.116429e-004
2.040350e+003,1.396162e-004
2.042279e+003,1.843638e-004
2.044208e+003,1.344787e-004
2.046136e+003,6.272727e-005
2.048064e+003,8.754896e-005
2.049993e+003,1.625197e-004
2.051921e+003,2.062421e-004
2.053850e+003,1.804523e-004
2.055778e+003,1.590725e-004
2.057707e+003,2.525548e-004
2.059635e+003,2.025625e-004
2.061564e+003,1.217184e-004
2.063492e+003,3.237316e-005
2.065421e+003,2.100749e-005
2.067349e+003,1.170783e-004
2.069278e+003,8.022492e-005
2.071206e+003,1.500237e-004
2.073135e+003,2.463552e-004
2.075063e+003,2.063415e-004
2.076992e+003,2.130378e-004
2.078920e+003,2.325307e-004
2.080849e+003,2.107505e-004
2.082777e+003,1.625860e-004
2.084706e+003,1.237070e-004
2.086634e+003,3.618388e-005
2.088563e+003,6.054011e-005
2.090491e+003,1.509186e-004
2.092420e+003,1.374617e-004
2.094348e+003,1.150898e-004
2.096277e+003,6.143485e-005
2.098205e+003,3.542173e-005
2.100134e+003,8.595821e-005
2.102062e+003,1.758780e-004
2.103991e+003,1.712042e-004
2.105919e+003,1.217184e-004
2.107848e+003,1.540343e-004
2.109776e+003,8.015864e-005
2.111705e+003,8.217319e-006
2.113633e+003,7.064752e-005
2.115562e+003,8.019178e-005
2.117490e+003,5.523796e-005
2.119419e+003,1.948719e-004
2.121347e+003,2.254362e-004
2.123276e+003,5.364732e-005
2.125204e+003,1.332009e-005
2.127133e+003,1.201275e-004
2.129061e+003,2.769563e-004
2.130990e+003,2.685350e-004
2.132918e+003,1.126041e-004
2.134847e+003,9.686160e-005
2.136775e+003,1.641771e-004
2.138704e+003,1.516478e-004
2.140632e+003,1.430632e-004
2.142561e+003,1.658344e-004
2.144489e+003,1.671934e-004
2.146418e+003,1.635141e-004
2.148346e+003,2.133693e-004
2.150275e+003,2.185408e-004
2.152203e+003,1.944409e-004
2.154132e+003,1.226464e-004
2.156060e+003,2.842994e-005
2.157989e+003,1.003973e-005
2.159917e+003,6.249530e-005
2.161846e+003,5.258690e-005
2.163774e+003,4.122070e-005
2.165703e+003,9.358061e-005
2.167631e+003,1.096544e-004
2.169560e+003,1.593708e-004
2.171488e+003,1.792590e-004
2.173417e+003,8.327382e-005
2.175345e+003,5.590072e-005
2.177274e+003,1.207904e-004
2.179202e+003,2.530521e-004
2.181131e+003,2.329285e-004
2.183059e+003,1.428643e-004
2.184988e+003,1.796236e-004
2.186916e+003,2.460236e-004
2.188845e+003,1.489631e-004
2.190773e+003,5.898259e-005
2.192702e+003,8.761524e-005
2.194630e+003,2.023636e-004
2.196559e+003,2.014354e-004
2.198487e+003,1.977227e-004
2.200416e+003,1.930155e-004
2.202344e+003,1.597354e-004
2.204273e+003,1.140292e-004
2.206201e+003,1.017003e-004
2.208130e+003,1.865847e-004
2.210058e+003,1.645085e-004
2.211987e+003,9.464113e-005
2.213915e+003,1.258613e-004
2.215844e+003,1.879107e-004
2.217772e+003,2.699275e-004
2.219701e+003,2.838527e-004
2.221629e+003,1.991481e-004
2.223558e+003,2.020984e-004
2.225486e+003,1.668951e-004
2.227415e+003,1.207241e-004
2.229343e+003,2.247732e-004
2.231272e+003,2.897213e-004
2.233200e+003,2.894892e-004
2.235129e+003,2.429404e-004
2.237057e+003,1.467092e-004
2.238986e+003,7.720917e-005
2.240914e+003,6.395340e-005
2.242843e+003,1.114109e-004
2.244771e+003,1.319266e-004
2.246700e+003,2.105184e-004
2.248628e+003,2.448965e-004
2.250557e+003,6.660452e-005
2.252485e+003,2.551396e-005
2.254414e+003,1.253642e-004
2.256342e+003,1.706738e-004
2.258271e+003,1.326890e-004
2.260199e+003,1.087264e-004
2.262128e+003,1.321918e-004
2.264056e+003,8.976939e-005
2.265985e+003,6.938822e-005
2.267913e+003,1.555590e-004
2.269842e+003,2.514607e-004
2.271770e+003,2.723809e-004
2.273699e+003,1.712042e-004
2.275627e+003,1.092898e-004
2.277556e+003,1.283802e-004
2.279484e+003,2.254694e-004
2.281413e+003,2.651532e-004
2.283341e+003,1.781651e-004
2.285270e+003,1.608624e-004
2.287198e+003,1.012363e-004
2.289127e+003,5.947967e-005
2.291055e+003,5.719312e-005
2.292984e+003,8.208077e-005
2.294912e+003,6.889113e-005
2.296841e+003,1.225470e-004
2.298769e+003,2.095902e-004
2.300698e+003,2.083968e-004
2.302626e+003,1.921868e-004
2.304555e+003,1.458474e-004
2.306483e+003,1.960652e-004
2.308412e+003,2.003746e-004
2.310340e+003,1.908940e-004
2.312269e+003,2.803713e-004
2.314197e+003,3.771297e-004
2.316125e+003,4.615372e-004
2.318054e+003,4.199781e-004
2.319983e+003,4.024336e-004
2.321911e+003,5.154075e-004
2.323840e+003,6.648461e-004
2.325768e+003,6.760627e-004
2.327697e+003,7.337432e-004
2.329625e+003,9.669329e-004
2.331553e+003,9.980166e-004
2.333482e+003,9.141687e-004
2.335411e+003,9.201787e-004
2.337339e+003,9.573027e-004
2.339268e+003,1.015253e-003
2.341196e+003,9.118777e-004
2.343125e+003,8.010247e-004
2.345053e+003,7.399830e-004
2.346981e+003,6.716159e-004
2.348910e+003,4.358650e-004
2.350839e+003,4.172917e-004
2.352767e+003,7.277359e-004
2.354696e+003,1.014921e-003
2.356624e+003,1.181011e-003
2.358552e+003,1.181575e-003
2.360481e+003,1.095068e-003
2.362409e+003,1.145628e-003
2.364338e+003,1.289269e-003
2.366267e+003,1.173768e-003
2.368195e+003,1.032424e-003
2.370124e+003,9.597600e-004
2.372052e+003,8.118797e-004
2.373980e+003,7.383898e-004
2.375909e+003,5.851436e-004
2.377838e+003,4.159651e-004
2.379766e+003,2.936005e-004
2.381695e+003,1.653372e-004
2.383623e+003,1.262259e-004
2.385552e+003,1.181721e-004
2.387480e+003,7.843535e-005
2.389408e+003,1.306672e-004
2.391337e+003,1.767729e-004
2.393266e+003,7.376263e-005
2.395194e+003,1.593777e-005
2.397123e+003,1.133995e-004
2.399051e+003,2.465872e-004
2.400979e+003,2.436698e-004
2.402908e+003,1.728284e-004
2.404836e+003,1.158852e-004
2.406765e+003,3.320158e-005
2.408694e+003,-1.033770e-005
2.410622e+003,7.121089e-005
2.412551e+003,7.681150e-005
2.414479e+003,1.135652e-004
2.416407e+003,1.868499e-004
2.418336e+003,1.055779e-004
2.420264e+003,3.770817e-005
2.422193e+003,5.888318e-005
2.424122e+003,9.023336e-005
2.426050e+003,1.489631e-004
2.427979e+003,1.217184e-004
2.429907e+003,1.746515e-004
2.431835e+003,2.232814e-004
2.433764e+003,1.674254e-004
2.435692e+003,9.238753e-005
2.437621e+003,1.304020e-004
2.439550e+003,1.042191e-004
2.441478e+003,1.057436e-004
2.443406e+003,9.023336e-005
2.445335e+003,1.013689e-004
2.447263e+003,1.396824e-004
2.449192e+003,1.075664e-004
2.451121e+003,3.045125e-005
2.453049e+003,1.056442e-004
2.454978e+003,1.591388e-004
2.456906e+003,1.889383e-004
2.458834e+003,1.741211e-004
2.460763e+003,1.650389e-004
2.462691e+003,5.947967e-005
2.464620e+003,5.888318e-005
2.466549e+003,1.798557e-004
2.468477e+003,2.226184e-004
2.470406e+003,1.313963e-004
2.472334e+003,4.426933e-005
2.474262e+003,7.840221e-005
2.476191e+003,1.498911e-004
2.478119e+003,1.710716e-004
2.480048e+003,1.055116e-004
2.481977e+003,1.402790e-004
2.483905e+003,1.293414e-004
2.485833e+003,1.040865e-004
2.487762e+003,7.190682e-005
2.489690e+003,2.114003e-005
2.491619e+003,6.789695e-005
2.493547e+003,1.326227e-004
2.495476e+003,1.675249e-004
2.497405e+003,1.607298e-004
2.499333e+003,1.130681e-004
2.501261e+003,9.517139e-005
2.503190e+003,1.092567e-004
2.505118e+003,1.359371e-004
2.507047e+003,8.244532e-005
2.508975e+003,-1.428054e-005
2.510904e+003,-6.461089e-006
2.512833e+003,6.295924e-005
2.514761e+003,5.951281e-005
2.516689e+003,6.928881e-005
2.518618e+003,1.740548e-004
2.520546e+003,1.992144e-004
2.522475e+003,1.425660e-004
2.524403e+003,8.986882e-005
2.526332e+003,3.509036e-005
2.528260e+003,8.117916e-006
2.530189e+003,4.831211e-005
2.532117e+003,-8.912965e-006
2.534046e+003,-1.105211e-004
2.535974e+003,-3.396106e-005
2.537903e+003,-5.036345e-006
2.539831e+003,5.855180e-005
2.541760e+003,3.555428e-005
2.543688e+003,2.094122e-005
2.545617e+003,5.951281e-005
2.547545e+003,1.263253e-004
2.549474e+003,8.642217e-005
2.551402e+003,-6.825559e-006
2.553331e+003,5.354791e-005
2.555259e+003,1.469412e-004
2.557188e+003,1.250327e-004
2.559116e+003,3.313405e-007
2.561045e+003,3.300276e-005
2.562973e+003,7.250333e-005
2.564902e+003,1.155869e-004
2.566830e+003,1.366331e-004
2.568759e+003,5.947967e-005
2.570687e+003,5.560248e-005
2.572616e+003,1.067710e-004
2.574544e+003,1.221492e-004
2.576473e+003,7.200624e-005
2.578401e+003,1.407099e-004
2.580330e+003,1.427980e-004
2.582258e+003,8.562680e-005
2.584187e+003,9.662961e-005
2.586115e+003,4.198286e-005
2.588044e+003,-4.665022e-005
2.589972e+003,-1.888599e-005
2.591901e+003,6.060639e-005
2.593829e+003,4.450130e-005
2.595758e+003,-4.360221e-005
2.597686e+003,-5.135472e-005
2.599615e+003,-6.331453e-005
2.601543e+003,-1.011133e-004
2.603472e+003,-8.577556e-005
2.605400e+003,-3.054851e-005
2.607329e+003,3.164416e-005
2.609257e+003,1.140623e-004
2.611186e+003,1.032579e-004
2.613114e+003,9.609935e-005
2.615043e+003,9.868438e-005
2.616971e+003,2.985479e-005
2.618900e+003,8.145111e-005
2.620828e+003,1.892034e-004
2.622757e+003,2.066067e-004
2.624685e+003,1.291757e-004
2.626614e+003,8.980253e-005
2.628542e+003,8.247846e-005
2.630471e+003,9.934721e-005
2.632399e+003,1.586748e-004
2.634328e+003,9.686160e-005
2.636256e+003,1.812470e-005
2.638185e+003,7.787198e-005
2.640113e+003,1.103504e-004
2.642042e+003,7.197310e-005
2.643970e+003,8.300870e-005
2.645899e+003,3.651525e-005
2.647827e+003,3.651525e-005
2.649756e+003,1.260270e-004
2.651684e+003,6.246215e-005
2.653613e+003,6.448363e-005
2.655541e+003,7.044868e-005
2.657470e+003,-6.513664e-005
2.659398e+003,-5.198420e-005
2.661327e+003,5.136080e-005
2.663255e+003,7.797140e-005
2.665184e+003,1.792589e-005
2.667112e+003,7.008415e-005
2.669041e+003,8.837748e-005
2.670969e+003,7.121089e-005
2.672898e+003,9.527081e-005
2.674826e+003,7.382892e-005
2.676755e+003,-1.444620e-005
2.678683e+003,-8.640498e-005
2.680612e+003,-4.582196e-005
2.682540e+003,7.819704e-006
2.684469e+003,3.008675e-005
2.686397e+003,7.992666e-005
2.688326e+003,1.141618e-004
2.690254e+003,1.678895e-004
2.692183e+003,1.301369e-004
2.694111e+003,1.994715e-005
2.696040e+003,-9.057901e-005
2.697968e+003,-4.814109e-005
2.699897e+003,1.858859e-005
2.701825e+003,3.247148e-006
2.703754e+003,6.945450e-005
2.705682e+003,1.890377e-004
2.707611e+003,1.804855e-004
2.709539e+003,8.489771e-005
2.711468e+003,-2.667208e-005
2.713396e+003,-2.750117e-006
2.715325e+003,1.098201e-004
2.717253e+003,3.744163e-006
2.719182e+003,-6.102861e-005
2.721110e+003,-3.611595e-006
2.723039e+003,1.504877e-004
2.724967e+003,2.338567e-004
2.726896e+003,1.660001e-004
2.728824e+003,4.549542e-005
2.730753e+003,2.276368e-005
2.732681e+003,8.476515e-005
2.734610e+003,1.238064e-004
2.736538e+003,7.290101e-005
2.738467e+003,8.382993e-006
2.740395e+003,3.843719e-005
2.742324e+003,4.745054e-005
2.744252e+003,8.877517e-005
2.746181e+003,8.913971e-005
2.748109e+003,-1.785888e-005
2.750038e+003,6.786382e-005
2.751966e+003,1.449525e-004
2.753895e+003,1.872145e-004
2.755823e+003,1.666299e-004
2.757752e+003,6.551094e-005
2.759680e+003,-4.492743e-005
2.761609e+003,1.504311e-005
2.763537e+003,2.063747e-004
2.765466e+003,2.014685e-004
2.767394e+003,1.735245e-004
2.769323e+003,1.925183e-004
2.771251e+003,1.841980e-004
2.773180e+003,1.413728e-004
2.775108e+003,8.897401e-005
2.777037e+003,9.228811e-005
2.778965e+003,-8.283502e-007
2.780894e+003,2.279682e-005
2.782822e+003,1.265573e-004
2.784750e+003,1.800877e-004
2.786679e+003,1.790933e-004
2.788608e+003,1.052133e-004
2.790536e+003,4.854408e-005
2.792465e+003,-4.456300e-005
2.794393e+003,-6.991226e-006
2.796322e+003,1.227790e-004
2.798250e+003,1.526091e-004
2.800178e+003,4.874291e-005
2.802107e+003,-1.547332e-005
2.804036e+003,-3.323217e-005
2.805964e+003,-1.336422e-004
2.807893e+003,-5.161977e-005
2.809821e+003,3.810582e-005
2.811750e+003,5.576817e-005
2.813678e+003,3.439450e-005
2.815606e+003,-3.468995e-005
2.817535e+003,-5.142099e-005
2.819464e+003,2.455302e-005
2.821392e+003,8.456630e-005
2.823321e+003,6.146800e-005
2.825249e+003,1.501231e-004
2.827177e+003,1.104829e-004
2.829106e+003,-1.196122e-005
2.831034e+003,-6.182372e-005
2.832963e+003,-6.755505e-005
2.834892e+003,1.421020e-004
2.836820e+003,2.357132e-004
2.838749e+003,1.034899e-004
2.840677e+003,-4.870431e-005
2.842605e+003,6.007617e-005
2.844534e+003,1.077984e-004
2.846462e+003,4.092247e-005
2.848391e+003,5.318339e-005
2.850320e+003,-8.796197e-005
2.852248e+003,-1.399688e-004
2.854177e+003,2.683865e-006
2.856105e+003,1.120406e-004
2.858033e+003,1.597354e-004
2.859962e+003,2.069051e-004
2.861890e+003,1.283802e-004
2.863819e+003,2.372462e-005
2.865748e+003,3.509036e-005
2.867676e+003,1.153080e-005
2.869604e+003,2.114003e-005
2.871533e+003,2.945716e-005
2.873461e+003,3.677894e-006
2.875390e+003,-3.578329e-005
2.877319e+003,-3.743985e-005
2.879247e+003,1.083950e-004
2.881176e+003,-2.286243e-006
2.883104e+003,-3.323217e-005
2.885032e+003,1.542332e-004
2.886961e+003,2.231157e-004
2.888889e+003,1.540012e-004
2.890818e+003,8.227961e-005
2.892747e+003,3.833778e-005
2.894675e+003,-7.868621e-005
2.896604e+003,-1.182393e-004
2.898532e+003,1.809156e-005
2.900460e+003,1.550950e-004
2.902389e+003,1.789938e-004
2.904317e+003,4.519718e-005
2.906246e+003,4.771564e-005
2.908175e+003,7.372950e-005
2.910103e+003,1.157858e-004
2.912031e+003,1.058430e-004
2.913960e+003,1.295403e-004
2.915888e+003,1.160509e-004
2.917817e+003,7.359694e-005
2.919745e+003,1.855240e-004
2.921674e+003,1.743532e-004
2.923603e+003,1.881427e-004
2.925531e+003,1.783309e-004
2.927459e+003,1.082955e-004
2.929388e+003,7.889931e-005
2.931316e+003,6.173310e-005
2.933245e+003,7.203937e-005
2.935173e+003,9.185727e-005
2.937102e+003,7.740801e-005
2.939031e+003,5.662976e-005
2.940959e+003,-4.757788e-005
2.942887e+003,-9.084403e-005
2.944816e+003,-1.365101e-005
2.946744e+003,5.918143e-005
2.948673e+003,1.046499e-004
2.950601e+003,1.157858e-004
2.952530e+003,4.774878e-005
2.954458e+003,8.314126e-005
2.956387e+003,8.937170e-005
2.958315e+003,9.285150e-005
2.960244e+003,8.204763e-005
2.962172e+003,9.994376e-005
2.964101e+003,1.191995e-004
2.966029e+003,1.899327e-004
2.967958e+003,2.671093e-004
2.969886e+003,1.814799e-004
2.971815e+003,5.391243e-005
2.973743e+003,1.829038e-005
2.975672e+003,4.751681e-005
2.977600e+003,3.608447e-005
2.979529e+003,-4.277394e-005
2.981457e+003,4.218168e-005
2.983386e+003,1.555922e-004
2.985314e+003,1.340810e-004
2.987243e+003,1.121069e-004
2.989171e+003,1.477698e-004
2.991100e+003,-5.036345e-006
2.993028e+003,3.280282e-006
2.994957e+003,1.944409e-004
2.996885e+003,1.850599e-004
2.998814e+003,1.843306e-004
3.000742e+003,2.133362e-004
3.002671e+003,1.386218e-004
3.004599e+003,1.600669e-004
3.006528e+003,2.677061e-004
3.008456e+003,2.160214e-004
3.010385e+003,1.068041e-004
3.012313e+003,1.898622e-005
3.014242e+003,7.465741e-005
3.016170e+003,1.480681e-004
3.018099e+003,1.967282e-004
3.020027e+003,2.273922e-004
3.021956e+003,1.368651e-004
3.023884e+003,5.871749e-005
3.025813e+003,1.280157e-004
3.027741e+003,9.759071e-005
3.029670e+003,-3.790369e-005
3.031598e+003,2.551329e-006
3.033527e+003,1.002752e-004
3.035455e+003,1.817451e-004
3.037384e+003,2.638934e-004
3.039312e+003,2.148611e-004
3.041241e+003,-3.515379e-005
3.043169e+003,-1.653736e-004
3.045098e+003,1.524169e-006
3.047026e+003,1.892034e-004
3.048955e+003,1.848279e-004
3.050883e+003,8.403605e-005
3.052812e+003,1.433284e-004
3.054740e+003,5.898259e-005
3.056669e+003,6.077208e-005
3.058597e+003,7.157542e-005
3.060526e+003,4.337462e-005
3.062454e+003,8.662102e-005
3.064383e+003,1.424997e-004
3.066311e+003,1.262922e-004
3.068240e+003,1.614922e-004
3.070168e+003,1.260933e-004
3.072097e+003,8.018512e-006
3.074025e+003,-3.472309e-005
3.075954e+003,-2.753351e-005
3.077882e+003,-6.692560e-005
3.079811e+003,-3.850005e-005
3.081739e+003,-1.093410e-005
3.083668e+003,-2.349140e-005
3.085596e+003,-1.044591e-004
3.087525e+003,-1.090304e-004
3.089453e+003,2.067613e-005
3.091382e+003,1.414847e-005
3.093310e+003,3.747622e-005
3.095239e+003,1.238396e-004
3.097167e+003,1.090910e-004
3.099096e+003,5.775647e-005
3.101024e+003,9.089618e-005
3.102953e+003,9.430972e-005
3.104881e+003,1.504311e-005
3.106810e+003,6.037442e-005
3.108738e+003,7.661265e-005
3.110667e+003,1.310980e-004
3.112595e+003,1.597354e-004
3.114524e+003,8.516283e-005
3.116452e+003,1.063616e-005
3.118381e+003,2.634236e-005
3.120309e+003,5.656349e-005
3.122238e+003,1.259608e-004
3.124166e+003,1.757785e-004
3.126095e+003,1.040533e-004
3.128023e+003,-1.457895e-006
3.129952e+003,-2.723533e-005
3.131880e+003,-1.020409e-004
3.133809e+003,-1.315401e-005
3.135737e+003,3.108084e-005
3.137666e+003,9.954607e-005
3.139594e+003,1.802866e-004
3.141523e+003,2.183419e-004
3.143451e+003,1.994133e-004
3.145380e+003,1.070693e-004
3.147308e+003,4.652268e-005
3.149237e+003,9.676217e-005
3.151165e+003,1.773696e-004
3.153094e+003,2.676067e-004
3.155022e+003,2.881961e-004
3.156951e+003,1.919879e-004
3.158879e+003,1.142612e-004
3.160808e+003,7.469055e-005
3.162736e+003,1.129686e-004
3.164665e+003,1.489631e-004
3.166593e+003,1.642102e-004
3.168522e+003,1.192326e-004
3.170450e+003,1.482670e-004
3.172379e+003,2.003746e-004
3.174307e+003,1.525759e-004
3.176236e+003,1.297723e-004
3.178164e+003,1.557579e-004
3.180093e+003,1.938774e-004
3.182021e+003,8.184879e-005
3.183950e+003,1.214532e-004
3.185878e+003,1.761431e-004
3.187807e+003,1.462120e-004
3.189735e+003,1.059756e-004
3.191664e+003,-1.527452e-005
3.193592e+003,-2.531367e-005
3.195521e+003,2.220037e-005
3.197449e+003,6.892427e-005
3.199378e+003,8.045690e-005
3.201306e+003,3.035184e-005
3.203235e+003,4.576052e-005
3.205163e+003,2.809858e-005
3.207092e+003,-3.074730e-005
3.209020e+003,3.545487e-005
3.210948e+003,1.058762e-004
3.212877e+003,1.554927e-004
3.214806e+003,2.054134e-004
3.216734e+003,1.468417e-004
3.218663e+003,1.045505e-004
3.220591e+003,1.067710e-004
3.222520e+003,1.338159e-004
3.224448e+003,7.575102e-005
3.226376e+003,-1.166303e-005
3.228305e+003,1.209561e-004
3.230234e+003,3.245366e-004
3.232162e+003,2.768569e-004
3.234091e+003,2.466535e-004
3.236019e+003,1.306009e-004
3.237948e+003,2.200156e-005
3.239876e+003,-1.388294e-005
3.241804e+003,5.305084e-005
3.243733e+003,7.187368e-005
3.245662e+003,5.722626e-005
3.247590e+003,2.247732e-004
3.249519e+003,2.894560e-004
3.251447e+003,2.704248e-004
3.253375e+003,9.828668e-005
3.255304e+003,9.371318e-005
3.257232e+003,3.014587e-004
3.259161e+003,3.155507e-004
3.261090e+003,2.450291e-004
3.263018e+003,1.288774e-004
3.264947e+003,4.821270e-005
3.266875e+003,-3.137680e-005
3.268803e+003,4.088933e-005
3.270732e+003,1.895681e-004
3.272660e+003,1.791596e-004
3.274589e+003,5.427695e-005
3.276518e+003,-2.680461e-005
3.278446e+003,3.320158e-005
3.280375e+003,1.092898e-004
3.282303e+003,5.755764e-005
3.284231e+003,1.489962e-004
3.286160e+003,1.585753e-004
3.288088e+003,3.505723e-005
3.290017e+003,-7.388828e-006
3.291946e+003,2.027614e-004
3.293874e+003,3.026523e-004
3.295802e+003,2.016674e-004
3.297731e+003,1.561557e-004
3.299659e+003,1.080967e-004
3.301588e+003,8.496399e-005
3.303516e+003,8.609077e-005
3.305445e+003,2.995420e-005
3.307374e+003,8.440060e-005
3.309302e+003,1.332193e-004
3.311230e+003,9.974491e-005
3.313159e+003,1.775022e-004
3.315087e+003,2.142644e-004
3.317016e+003,1.857560e-004
3.318944e+003,2.261656e-004
3.320873e+003,2.836869e-004
3.322802e+003,2.076344e-004
3.324730e+003,9.841924e-005
3.326658e+003,1.048488e-004
3.328587e+003,1.101847e-004
3.330515e+003,4.330835e-005
3.332444e+003,-1.091629e-004
3.334372e+003,-1.452353e-004
3.336301e+003,-3.101235e-005
3.338229e+003,1.143139e-005
3.340158e+003,4.735112e-005
3.342086e+003,1.716682e-004
3.344015e+003,7.482310e-005
3.345943e+003,6.093777e-005
3.347872e+003,4.977018e-005
3.349800e+003,1.428101e-005
3.351729e+003,1.438041e-005
3.353657e+003,-6.020038e-005
3.355586e+003,-5.340879e-005
3.357514e+003,9.308349e-005
3.359443e+003,1.490625e-004
3.361371e+003,1.004077e-004
3.363300e+003,6.113660e-005
3.365229e+003,1.780657e-004
3.367157e+003,1.208567e-004
3.369085e+003,-1.654730e-004
3.371014e+003,-2.449571e-004
3.372942e+003,-1.764029e-004
3.374871e+003,-1.719979e-004
3.376799e+003,-5.466773e-005
3.378728e+003,1.106691e-005
3.380656e+003,-7.832181e-005
3.382585e+003,-1.015108e-004
3.384513e+003,4.788133e-005
3.386442e+003,1.584096e-004
3.388370e+003,1.411408e-004
3.390299e+003,2.018663e-004
3.392227e+003,2.511955e-004
3.394156e+003,1.102509e-004
3.396084e+003,2.058443e-004
3.398013e+003,1.698783e-004
3.399941e+003,7.469055e-005
3.401870e+003,-3.644743e-007
3.403798e+003,2.024537e-005
3.405727e+003,2.644570e-004
3.407655e+003,2.691981e-004
3.409584e+003,4.585993e-005
3.411512e+003,-3.117801e-005
3.413441e+003,-8.779633e-005
3.415369e+003,-7.249123e-005
3.417298e+003,-2.107274e-005
3.419226e+003,4.887546e-005
3.421155e+003,9.122759e-005
3.423083e+003,5.643093e-005
3.425012e+003,8.334011e-005
3.426940e+003,-4.502683e-005
3.428869e+003,-1.516280e-004
3.430797e+003,-4.327090e-005
3.432726e+003,4.566111e-005
3.434654e+003,1.650057e-004
3.436583e+003,7.852838e-006
3.438511e+003,-1.435461e-004
3.440440e+003,-7.805678e-005
3.442368e+003,-9.425612e-005
3.444297e+003,-9.849633e-005
3.446225e+003,8.572622e-005
3.448154e+003,2.981762e-004
3.450082e+003,2.723146e-004
3.452011e+003,8.221333e-005
3.453939e+003,2.524887e-005
3.455868e+003,-1.106663e-005
3.457796e+003,2.909266e-005
3.459725e+003,5.238808e-005
3.461653e+003,1.072350e-004
3.463582e+003,1.183046e-004
3.465510e+003,4.042541e-005
3.467439e+003,-1.030456e-005
3.469367e+003,1.590437e-006
3.471296e+003,-4.674961e-005
3.473224e+003,-3.922893e-005
3.475153e+003,-8.813565e-006
3.477081e+003,7.243705e-005
3.479010e+003,1.065721e-004
3.480938e+003,2.455302e-005
3.482867e+003,-1.914063e-004
3.484795e+003,-5.496589e-005
3.486724e+003,9.096247e-005
3.488652e+003,2.263114e-005
3.490581e+003,8.811235e-005
3.492509e+003,6.786382e-005
3.494438e+003,-6.089609e-005
3.496366e+003,-6.129365e-005
3.498295e+003,7.969468e-005
3.500223e+003,1.648068e-004
3.502152e+003,1.206247e-004
3.504080e+003,1.434278e-004
3.506009e+003,-6.427956e-006
3.507937e+003,-5.427017e-005
3.509866e+003,4.784819e-005
3.511794e+003,8.436746e-005
3.513723e+003,-1.948238e-005
3.515651e+003,-9.542498e-006
3.517580e+003,1.082955e-004
3.519508e+003,1.239058e-004
3.521437e+003,7.180740e-005
3.523365e+003,1.477698e-004
3.525294e+003,-1.050336e-005
3.527222e+003,-9.349419e-005
3.529151e+003,4.208043e-006
3.531079e+003,-2.229864e-005
3.533008e+003,-3.319904e-005
3.534936e+003,3.214014e-006
3.536865e+003,2.670686e-005
3.538793e+003,-7.802365e-005
3.540722e+003,-2.085949e-004
3.542650e+003,-2.230342e-004
3.544579e+003,-1.418237e-004
3.546507e+003,3.313404e-008
3.548436e+003,3.658152e-005
3.550364e+003,1.052796e-004
3.552293e+003,1.710385e-004
3.554221e+003,1.828390e-004
3.556150e+003,1.016008e-004
3.558078e+003,1.355203e-005
3.560007e+003,4.735112e-005
3.561935e+003,-5.244802e-005
3.563864e+003,-1.749442e-005
3.565792e+003,1.591388e-004
3.567721e+003,1.548630e-004
3.569649e+003,7.969468e-005
3.571578e+003,-3.114588e-006
3.573506e+003,8.217319e-006
3.575435e+003,9.921465e-005
3.577363e+003,1.211549e-004
3.579292e+003,1.014020e-004
3.581220e+003,1.382241e-004
3.583149e+003,3.340040e-005
3.585077e+003,2.849537e-006
3.587006e+003,1.948719e-004
3.588934e+003,1.579456e-004
3.590863e+003,-1.557297e-006
3.592791e+003,1.371771e-005
3.594720e+003,9.608882e-007
3.596648e+003,2.567964e-005
3.598577e+003,-5.861016e-005
3.600505e+003,-4.181315e-005
3.602434e+003,1.891995e-005
3.604362e+003,-5.569475e-005
3.606291e+003,4.678778e-005
3.608219e+003,2.193033e-004
3.610148e+003,2.351497e-004
3.612076e+003,1.176418e-004
3.614005e+003,-4.963196e-005
3.615933e+003,-1.987997e-005
3.617862e+003,3.021550e-004
3.619790e+003,2.738729e-004
3.621719e+003,2.127257e-005
3.623647e+003,-1.463284e-004
3.625576e+003,5.205670e-005
3.627504e+003,6.802441e-004
3.629433e+003,7.916306e-004
3.631361e+003,1.871814e-004
3.633290e+003,-2.468416e-005
3.635218e+003,1.530820e-005
3.637146e+003,1.119081e-004
3.639075e+003,1.053459e-004
3.641004e+003,-8.998273e-005
3.642932e+003,-1.653405e-004
3.644861e+003,-1.861403e-004
3.646789e+003,4.042541e-005
3.648718e+003,3.948390e-004
3.650646e+003,2.919759e-004
3.652574e+003,-3.644592e-005
3.654503e+003,6.899055e-005
3.656432e+003,2.844495e-004
3.658360e+003,1.189012e-004
3.660289e+003,-5.970343e-005
3.662217e+003,1.070243e-005
3.664146e+003,-5.036345e-006
3.666074e+003,-2.052831e-004
3.668002e+003,-1.428054e-005
3.669931e+003,2.019326e-004
3.671860e+003,-3.379540e-005
3.673788e+003,2.131042e-004
3.675717e+003,4.157329e-004
3.677645e+003,-2.501548e-005
3.679573e+003,-2.146886e-004
3.681502e+003,-1.410618e-004
3.683430e+003,-1.086783e-005
3.685359e+003,-1.149736e-005
3.687288e+003,2.067062e-004
3.689216e+003,3.945073e-004
3.691145e+003,1.893360e-004
3.693073e+003,-1.124424e-004
3.695001e+003,-2.245245e-004
3.696930e+003,-3.001840e-005
3.698858e+003,1.159707e-005
3.700787e+003,2.469188e-004
3.702716e+003,1.834025e-004
3.704644e+003,1.736258e-005
3.706573e+003,7.512137e-005
3.708501e+003,-6.285073e-005
3.710429e+003,1.339153e-004
3.712358e+003,2.630977e-004
3.714286e+003,-6.304950e-005
3.716215e+003,-2.457519e-004
3.718144e+003,-1.281767e-004
3.720072e+003,-1.762373e-004
3.722000e+003,-2.414469e-004
3.723929e+003,-2.722764e-004
3.725857e+003,-4.586642e-004
3.727786e+003,-6.143674e-004
3.729714e+003,-2.333666e-004
3.731643e+003,2.411502e-004
3.733572e+003,4.464455e-004
3.735500e+003,4.281703e-004
3.737428e+003,-2.998527e-005
3.739357e+003,-2.553552e-004
3.741285e+003,-1.657380e-004
3.743214e+003,3.051723e-004
3.745142e+003,3.891679e-004
3.747071e+003,1.524765e-004
3.749000e+003,5.096685e-004
3.750928e+003,4.867798e-004
3.752856e+003,1.258945e-004
3.754785e+003,-4.254202e-005
3.756713e+003,-1.163512e-004
3.758642e+003,-2.971769e-004
3.760570e+003,-1.409625e-004
3.762499e+003,-2.754553e-004
3.764427e+003,-4.012004e-004
3.766356e+003,-3.175730e-004
3.768284e+003,-2.436325e-004
3.770213e+003,-1.113824e-004
3.772141e+003,-9.452113e-005
3.774070e+003,-4.178001e-005
3.775998e+003,-5.652299e-005
3.777927e+003,-2.020706e-004
3.779855e+003,-2.206498e-004
3.781784e+003,-4.220882e-004
3.783712e+003,-4.478075e-004
3.785641e+003,-1.853454e-004
3.787569e+003,-2.005803e-004
3.789498e+003,-5.901137e-004
3.791426e+003,-7.077294e-004
3.793355e+003,-6.213818e-004
3.795283e+003,-4.836532e-004
3.797212e+003,-5.224745e-004
3.799140e+003,-4.166594e-004
3.801069e+003,-1.743163e-004
3.802997e+003,-4.202013e-004
3.804926e+003,-3.770011e-004
3.806854e+003,-2.475401e-004
3.808783e+003,-4.200358e-004
3.810711e+003,-5.042723e-004
3.812640e+003,-5.386241e-004
3.814568e+003,-4.638938e-004
3.816497e+003,-2.513483e-004
3.818425e+003,-8.511301e-005
3.820354e+003,2.212924e-004
3.822282e+003,1.886068e-004
3.824211e+003,-1.968047e-004
3.826139e+003,-4.507534e-004
3.828068e+003,-4.281458e-004
3.829996e+003,-2.791639e-004
3.831925e+003,-3.358161e-004
3.833853e+003,-2.142250e-004
3.835782e+003,5.102942e-005
3.837710e+003,1.792922e-004
3.839639e+003,4.016031e-005
3.841567e+003,-2.312694e-005
3.843496e+003,-6.838328e-005
3.845424e+003,-2.903890e-004
3.847353e+003,-6.085109e-004
3.849281e+003,-6.694540e-004
3.851210e+003,-2.006134e-004
3.853138e+003,5.015744e-004
3.855067e+003,3.639642e-004
3.856995e+003,-2.088599e-004
3.858924e+003,-5.147303e-004
3.860852e+003,-3.698503e-004
3.862781e+003,-1.327809e-004
3.864709e+003,-1.831264e-004
3.866638e+003,-5.119173e-004
3.868566e+003,-2.450565e-004
3.870495e+003,-6.285073e-005
3.872423e+003,-1.611341e-004
3.874352e+003,-1.279117e-004
3.876280e+003,-1.878294e-004
3.878209e+003,-1.552384e-004
3.880137e+003,-1.621608e-004
3.882066e+003,-3.561443e-004
3.883994e+003,-2.678392e-004
3.885923e+003,-8.024323e-005
3.887851e+003,-1.748131e-004
3.889780e+003,-4.005721e-005
3.891708e+003,1.330535e-004
3.893637e+003,1.428101e-005
3.895565e+003,-3.286647e-004
3.897494e+003,-4.823956e-004
3.899422e+003,-4.656811e-004
3.901351e+003,-5.976580e-004
3.903279e+003,-5.165175e-004
3.905208e+003,-3.726643e-004
3.907136e+003,-5.879299e-004
3.909065e+003,-5.060263e-004
3.910993e+003,-5.007972e-004
3.912922e+003,-6.290909e-004
3.914850e+003,-5.002346e-004
3.916779e+003,-4.775302e-004
3.918707e+003,-4.796485e-004
3.920636e+003,-4.633642e-004
3.922564e+003,-4.803435e-004
3.924493e+003,-5.122813e-004
3.926421e+003,-6.799743e-004
3.928350e+003,-8.318943e-004
3.930278e+003,-9.509984e-004
3.932207e+003,-7.515913e-004
3.934135e+003,-6.686931e-004
3.936064e+003,-7.237399e-004
3.937992e+003,-5.007641e-004
3.939921e+003,-3.039647e-004
3.941849e+003,-4.477082e-004
3.943778e+003,-6.395791e-004
3.945706e+003,-5.297551e-004
3.947635e+003,-4.109658e-004
3.949563e+003,-5.193305e-004
3.951492e+003,-6.616464e-004
3.953420e+003,-7.937291e-004
3.955349e+003,-9.247136e-004
3.957277e+003,-8.314313e-004
3.959206e+003,-8.017659e-004
3.961134e+003,-7.943244e-004
3.963063e+003,-7.709739e-004
3.964991e+003,-9.114219e-004
3.966920e+003,-8.373840e-004
3.968848e+003,-5.774074e-004
3.970777e+003,-5.147303e-004
3.972705e+003,-4.807076e-004
3.974634e+003,-5.105935e-004
3.976562e+003,-7.659795e-004
3.978491e+003,-6.271719e-004
3.980419e+003,-6.556251e-004
3.982348e+003,-7.550644e-004
3.984276e+003,-6.461630e-004
3.986205e+003,-6.589666e-004
3.988133e+003,-4.744521e-004
3.990062e+003,-4.591937e-004
3.991990e+003,-7.313810e-004
3.993919e+003,-8.170784e-004
3.995847e+003,-7.795403e-004
3.997776e+003,-6.078822e-004
3.999704e+003,-7.685925e-004
4.001633e+003,0.000000e+000
