X,Y
3999.703,33.49292755126953
3995.846,33.49757385253906
3991.989,33.49045944213867
3988.132,33.47638702392578
3984.275,33.48974609375
3980.418,33.50397491455078
3976.561,33.4874267578125
3972.704,33.46969223022461
3968.847,33.48747634887695
3964.99,33.51667404174805
3961.133,33.53738784790039
3957.276,33.51858139038086
3953.419,33.5037956237793
3949.562,33.502052307128906
3945.705,33.49435806274414
3941.848,33.4942626953125
3937.991,33.50416564941406
3934.134,33.51921081542969
3930.277,33.52775955200195
3926.42,33.532352447509766
3922.563,33.52986145019531
3918.706,33.539459228515625
3914.849,33.549560546875
3910.992,33.55074691772461
3907.135,33.55403137207031
3903.278,33.553131103515625
3899.421,33.55329895019531
3895.564,33.57074737548828
3891.707,33.57085037231445
3887.85,33.567138671875
3883.993,33.565284729003906
3880.136,33.58280563354492
3876.279,33.59744644165039
3872.422,33.60784912109375
3868.565,33.60419464111328
3864.708,33.60210037231445
3860.851,33.60736083984375
3856.994,33.623233795166016
3853.137,33.63118362426758
3849.28,33.61960983276367
3845.423,33.63520431518555
3841.566,33.64868927001953
3837.709,33.63212203979492
3833.852,33.62517166137695
3829.995,33.63209533691406
3826.138,33.64157485961914
3822.281,33.65040588378906
3818.424,33.647613525390625
3814.567,33.651893615722656
3810.71,33.66830062866211
3806.853,33.67789840698242
3802.996,33.670406341552734
3799.139,33.65241241455078
3795.282,33.641666412353516
3791.425,33.636940002441406
3787.568,33.63753128051758
3783.711,33.646751403808594
3779.854,33.6582145690918
3775.997,33.653690338134766
3772.14,33.63667297363281
3768.283,33.62558364868164
3764.426,33.60283660888672
3760.569,33.58417892456055
3756.712,33.57244873046875
3752.855,33.554222106933594
3748.998,33.50769805908203
3745.141,33.432613372802734
3741.284,33.33720397949219
3737.427,33.27838897705078
3733.57,33.26198196411133
3729.713,33.255096435546875
3725.856,33.23979568481445
3721.999,33.220863342285156
3718.142,33.205039978027344
3714.285,33.18787384033203
3710.428,33.15830612182617
3706.571,33.121334075927734
3702.714,33.09048843383789
3698.857,33.06723403930664
3695.0,33.06049728393555
3691.143,33.06108093261719
3687.286,33.042633056640625
3683.429,33.04623031616211
3679.572,33.066253662109375
3675.715,33.06641387939453
3671.858,33.075035095214844
3668.001,33.08048629760742
3664.144,33.104331970214844
3660.287,33.14446258544922
3656.43,33.17359924316406
3652.573,33.19234085083008
3648.716,33.217926025390625
3644.859,33.247928619384766
3641.002,33.280601501464844
3637.146,33.31536865234375
3633.289,33.345577239990234
3629.432,33.36891555786133
3625.575,33.37931823730469
3621.718,33.396873474121094
3617.861,33.428287506103516
3614.004,33.450294494628906
3610.147,33.46009063720703
3606.29,33.489437103271484
3602.433,33.53278732299805
3598.576,33.552215576171875
3594.719,33.55540466308594
3590.862,33.566139221191406
3587.005,33.57787322998047
3583.148,33.58437728881836
3579.291,33.60879898071289
3575.434,33.62311553955078
3571.577,33.63120651245117
3567.72,33.65179443359375
3563.863,33.664730072021484
3560.006,33.678794860839844
3556.149,33.700870513916016
3552.292,33.72257995605469
3548.435,33.731910705566406
3544.578,33.72666549682617
3540.721,33.74199295043945
3536.864,33.76236343383789
3533.007,33.77839279174805
3529.15,33.79258346557617
3525.293,33.80055236816406
3521.436,33.806495666503906
3517.579,33.81650924682617
3513.722,33.82938766479492
3509.865,33.84846878051758
3506.008,33.87267303466797
3502.151,33.88906478881836
3498.294,33.90047073364258
3494.437,33.91980743408203
3490.58,33.90253448486328
3486.723,33.88573455810547
3482.866,33.91274642944336
3479.009,33.94232177734375
3475.152,33.94164276123047
3471.295,33.94037628173828
3467.438,33.96261215209961
3463.581,33.991607666015625
3459.724,34.00593185424805
3455.867,34.0037727355957
3452.01,34.01416778564453
3448.153,34.03130340576172
3444.296,34.05023193359375
3440.439,34.06123352050781
3436.582,34.06175231933594
3432.725,34.06678771972656
3428.868,34.08174514770508
3425.011,34.09856414794922
3421.154,34.10779571533203
3417.297,34.11256790161133
3413.44,34.12206268310547
3409.583,34.13667678833008
3405.726,34.145591735839844
3401.869,34.15852355957031
3398.012,34.17976379394531
3394.155,34.184574127197266
3390.298,34.184959411621094
3386.441,34.18669128417969
3382.584,34.18680191040039
3378.727,34.1944580078125
3374.87,34.21330642700195
3371.013,34.226070404052734
3367.156,34.21836471557617
3363.299,34.215576171875
3359.442,34.22966766357422
3355.585,34.23274612426758
3351.728,34.2330207824707
3347.871,34.25115203857422
3344.014,34.25432205200195
3340.157,34.241302490234375
3336.3,34.23744201660156
3332.443,34.24642562866211
3328.586,34.25028610229492
3324.729,34.2496337890625
3320.872,34.25246810913086
3317.015,34.259735107421875
3313.158,34.26025390625
3309.301,34.26200866699219
3305.444,34.268531799316406
3301.587,34.271697998046875
3297.73,34.275291442871094
3293.873,34.28400802612305
3290.016,34.284912109375
3286.159,34.28626251220703
3282.302,34.29167175292969
3278.445,34.299678802490234
3274.588,34.30552291870117
3270.731,34.30595779418945
3266.874,34.31302261352539
3263.017,34.33283615112305
3259.16,34.340965270996094
3255.303,34.342750549316406
3251.446,34.34657287597656
3247.589,34.34376525878906
3243.732,34.35360336303711
3239.875,34.3685417175293
3236.018,34.370059967041016
3232.161,34.37799072265625
3228.304,34.39060974121094
3224.447,34.39885330200195
3220.59,34.41868591308594
3216.733,34.42249298095703
3212.876,34.41432571411133
3209.019,34.41598892211914
3205.162,34.424102783203125
3201.305,34.43550491333008
3197.448,34.44873809814453
3193.591,34.45814895629883
3189.734,34.459197998046875
3185.877,34.458614349365234
3182.02,34.46462631225586
3178.163,34.4769172668457
3174.306,34.486568450927734
3170.449,34.49012756347656
3166.592,34.505767822265625
3162.735,34.51030349731445
3158.878,34.507774353027344
3155.021,34.511146545410156
3151.164,34.51813507080078
3147.307,34.53017807006836
3143.45,34.527103424072266
3139.593,34.52934646606445
3135.736,34.539859771728516
3131.879,34.55246353149414
3128.022,34.55483627319336
3124.165,34.552955627441406
3120.308,34.55851364135742
3116.451,34.560821533203125
3112.594,34.56487274169922
3108.737,34.57236099243164
3104.88,34.580989837646484
3101.023,34.59366989135742
3097.166,34.59440994262695
3093.309,34.59044647216797
3089.452,34.59580993652344
3085.595,34.60484313964844
3081.738,34.607398986816406
3077.881,34.59762191772461
3074.024,34.595943450927734
3070.167,34.60117721557617
3066.31,34.609214782714844
3062.453,34.61918258666992
3058.596,34.624202728271484
3054.739,34.63151931762695
3050.882,34.639469146728516
3047.025,34.64459991455078
3043.168,34.65486145019531
3039.311,34.674625396728516
3035.454,34.682289123535156
3031.597,34.67921447753906
3027.74,34.681861877441406
3023.883,34.6847038269043
3020.026,34.688934326171875
3016.169,34.70210647583008
3012.312,34.708251953125
3008.455,34.71125793457031
3004.598,34.71462631225586
3000.741,34.71747589111328
2996.884,34.72476577758789
2993.027,34.72300338745117
2989.17,34.72820281982422
2985.313,34.73933792114258
2981.456,34.747989654541016
2977.599,34.75217056274414
2973.742,34.75960922241211
2969.885,34.771583557128906
2966.028,34.78044891357422
2962.171,34.78571319580078
2958.314,34.79053497314453
2954.457,34.79682922363281
2950.6,34.81275177001953
2946.743,34.83058166503906
2942.886,34.835670471191406
2939.029,34.83418655395508
2935.172,34.83839416503906
2931.315,34.83852005004883
2927.458,34.82493209838867
2923.601,34.81700897216797
2919.745,34.81461715698242
2915.888,34.820919036865234
2912.031,34.844966888427734
2908.174,34.859066009521484
2904.317,34.86368942260742
2900.46,34.868221282958984
2896.603,34.87004470825195
2892.746,34.867210388183594
2888.889,34.875274658203125
2885.032,34.88056182861328
2881.175,34.880409240722656
2877.318,34.88384246826172
2873.461,34.88179016113281
2869.604,34.88339614868164
2865.747,34.88684844970703
2861.89,34.883819580078125
2858.033,34.88428497314453
2854.176,34.877349853515625
2850.319,34.86647415161133
2846.462,34.87697219848633
2842.605,34.90481185913086
2838.748,34.92417526245117
2834.891,34.92133712768555
2831.034,34.91444396972656
2827.177,34.9159049987793
2823.32,34.93254852294922
2819.463,34.94599533081055
2815.606,34.94407653808594
2811.749,34.94422912597656
2807.892,34.946998596191406
2804.035,34.95172882080078
2800.178,34.95671463012695
2796.321,34.959022521972656
2792.464,34.95890426635742
2788.607,34.968868255615234
2784.75,34.9805793762207
2780.893,34.98588943481445
2777.036,34.98809814453125
2773.179,34.98889923095703
2769.322,34.99771499633789
2765.465,35.00029754638672
2761.608,35.00361633300781
2757.751,35.01301193237305
2753.894,35.022064208984375
2750.037,35.0298957824707
2746.18,35.04519271850586
2742.323,35.04645919799805
2738.466,35.04425048828125
2734.609,35.05152893066406
2730.752,35.064300537109375
2726.895,35.07544708251953
2723.038,35.08045196533203
2719.181,35.092247009277344
2715.324,35.100772857666016
2711.467,35.097042083740234
2707.61,35.098628997802734
2703.753,35.1076774597168
2699.896,35.11167526245117
2696.039,35.12087631225586
2692.182,35.13309860229492
2688.325,35.1385498046875
2684.468,35.13860321044922
2680.611,35.13425064086914
2676.754,35.12904739379883
2672.897,35.13291931152344
2669.04,35.14037322998047
2665.183,35.1396369934082
2661.326,35.135887145996094
2657.469,35.1378059387207
2653.612,35.139076232910156
2649.755,35.13941192626953
2645.898,35.140689849853516
2642.041,35.1363639831543
2638.184,35.133052825927734
2634.327,35.1358528137207
2630.47,35.14463424682617
2626.613,35.14806365966797
2622.756,35.14389419555664
2618.899,35.14743423461914
2615.042,35.1535530090332
2611.185,35.16114807128906
2607.328,35.171051025390625
2603.471,35.179298400878906
2599.614,35.18832778930664
2595.757,35.194801330566406
2591.9,35.202816009521484
2588.043,35.21438980102539
2584.186,35.222900390625
2580.329,35.239715576171875
2576.472,35.2579460144043
2572.615,35.27159881591797
2568.758,35.28853225708008
2564.901,35.302574157714844
2561.044,35.3150634765625
2557.187,35.323848724365234
2553.33,35.33147048950195
2549.473,35.33534622192383
2545.616,35.35196304321289
2541.759,35.373558044433594
2537.902,35.38124465942383
2534.045,35.383121490478516
2530.188,35.38349914550781
2526.331,35.38868713378906
2522.474,35.397972106933594
2518.617,35.395992279052734
2514.76,35.39414978027344
2510.903,35.39870834350586
2507.046,35.389892578125
2503.189,35.39234161376953
2499.332,35.399566650390625
2495.475,35.40034866333008
2491.618,35.40214157104492
2487.761,35.399803161621094
2483.904,35.393585205078125
2480.047,35.387821197509766
2476.19,35.38748550415039
2472.333,35.38687515258789
2468.476,35.386722564697266
2464.619,35.395694732666016
2460.762,35.394020080566406
2456.905,35.397457122802734
2453.048,35.41153335571289
2449.191,35.41273880004883
2445.334,35.41411209106445
2441.477,35.41448974609375
2437.62,35.408409118652344
2433.763,35.40813064575195
2429.906,35.410091400146484
2426.049,35.40991973876953
2422.192,35.40435028076172
2418.335,35.41054916381836
2414.478,35.41872787475586
2410.621,35.42157745361328
2406.764,35.42721939086914
2402.907,35.430519104003906
2399.05,35.4179801940918
2395.193,35.40431213378906
2391.336,35.37525939941406
2387.479,35.335968017578125
2383.622,35.298011779785156
2379.765,35.25592803955078
2375.908,35.2215576171875
2372.051,35.19960021972656
2368.194,35.18465042114258
2364.337,35.1838493347168
2360.48,35.19643783569336
2356.623,35.207130432128906
2352.766,35.22673416137695
2348.909,35.2593879699707
2345.052,35.28140640258789
2341.195,35.29369354248047
2337.338,35.301082611083984
2333.481,35.29283142089844
2329.624,35.29012680053711
2325.767,35.298519134521484
2321.91,35.307945251464844
2318.053,35.317298889160156
2314.196,35.329315185546875
2310.339,35.344505310058594
2306.482,35.355140686035156
2302.625,35.36887741088867
2298.768,35.38735580444336
2294.911,35.4068603515625
2291.054,35.4255485534668
2287.197,35.44709396362305
2283.34,35.47089767456055
2279.483,35.49093246459961
2275.626,35.50764846801758
2271.769,35.51272964477539
2267.912,35.51858139038086
2264.055,35.537498474121094
2260.198,35.554019927978516
2256.341,35.56425476074219
2252.484,35.57361602783203
2248.627,35.58148956298828
2244.77,35.589622497558594
2240.913,35.59423065185547
2237.056,35.603641510009766
2233.199,35.61746597290039
2229.342,35.617164611816406
2225.485,35.619537353515625
2221.628,35.632930755615234
2217.771,35.645294189453125
2213.914,35.64940643310547
2210.057,35.65343475341797
2206.2,35.65555191040039
2202.343,35.65704345703125
2198.487,35.663169860839844
2194.63,35.675296783447266
2190.773,35.677669525146484
2186.916,35.675540924072266
2183.059,35.68672180175781
2179.202,35.69694900512695
2175.345,35.69976806640625
2171.488,35.70626449584961
2167.631,35.70484924316406
2163.774,35.70039749145508
2159.917,35.70155334472656
2156.06,35.70907974243164
2152.203,35.71511459350586
2148.346,35.721595764160156
2144.489,35.732147216796875
2140.632,35.7388916015625
2136.775,35.74482345581055
2132.918,35.7467155456543
2129.061,35.73893737792969
2125.204,35.73647689819336
2121.347,35.743408203125
2117.49,35.75185012817383
2113.633,35.75151062011719
2109.776,35.75220489501953
2105.919,35.74826431274414
2102.062,35.73792266845703
2098.205,35.73374557495117
2094.348,35.732032775878906
2090.491,35.72707748413086
2086.634,35.72090148925781
2082.777,35.71965789794922
2078.92,35.7107048034668
2075.063,35.70645523071289
2071.206,35.705963134765625
2067.349,35.69734191894531
2063.492,35.69049072265625
2059.635,35.68559646606445
2055.778,35.68146896362305
2051.921,35.677181243896484
2048.064,35.67171859741211
2044.207,35.66110610961914
2040.35,35.65780258178711
2036.493,35.657196044921875
2032.636,35.65681457519531
2028.779,35.65447235107422
2024.922,35.64957809448242
2021.065,35.638893127441406
2017.208,35.636653900146484
2013.351,35.637691497802734
2009.494,35.63407516479492
2005.637,35.6298942565918
2001.78,35.63081741333008
1997.923,35.63247299194336
1994.066,35.63294219970703
1990.209,35.635658264160156
1986.352,35.63587951660156
1982.495,35.631813049316406
1978.638,35.63056182861328
1974.781,35.629974365234375
1970.924,35.630462646484375
1967.067,35.641178131103516
1963.21,35.646278381347656
1959.353,35.64595413208008
1955.496,35.64824676513672
1951.639,35.65656661987305
1947.782,35.664573669433594
1943.925,35.6683235168457
1940.068,35.67103958129883
1936.211,35.681617736816406
1932.354,35.698883056640625
1928.497,35.70663070678711
1924.64,35.70570755004883
1920.783,35.71430969238281
1916.926,35.72956085205078
1913.069,35.74403381347656
1909.212,35.75255584716797
1905.355,35.76087188720703
1901.498,35.771568298339844
1897.641,35.77694320678711
1893.784,35.782596588134766
1889.927,35.790313720703125
1886.07,35.78947830200195
1882.213,35.79917907714844
1878.356,35.81979751586914
1874.499,35.83246994018555
1870.642,35.83314895629883
1866.785,35.83591842651367
1862.928,35.84349822998047
1859.071,35.85121154785156
1855.214,35.862388610839844
1851.357,35.87156677246094
1847.5,35.880775451660156
1843.643,35.886226654052734
1839.786,35.88554763793945
1835.929,35.89468765258789
1832.072,35.9145393371582
1828.215,35.92802047729492
1824.358,35.9304313659668
1820.501,35.93280792236328
1816.644,35.942684173583984
1812.787,35.9526481628418
1808.93,35.959632873535156
1805.073,35.96352767944336
1801.216,35.970428466796875
1797.359,35.98399353027344
1793.502,35.994258880615234
1789.645,36.00251007080078
1785.788,36.02174758911133
1781.931,36.03466033935547
1778.074,36.040191650390625
1774.217,36.044029235839844
1770.36,36.04928970336914
1766.503,36.05410385131836
1762.646,36.05752944946289
1758.789,36.07147979736328
1754.932,36.07622146606445
1751.075,36.08200454711914
1747.218,36.08208465576172
1743.361,36.081424713134766
1739.504,36.109317779541016
1735.647,36.13782501220703
1731.79,36.14396667480469
1727.933,36.14630889892578
1724.076,36.15594482421875
1720.219,36.16932678222656
1716.362,36.17683410644531
1712.505,36.179649353027344
1708.648,36.18638229370117
1704.791,36.198116302490234
1700.934,36.211002349853516
1697.077,36.21097183227539
1693.22,36.20391845703125
1689.363,36.20356750488281
1685.506,36.21682357788086
1681.649,36.21107482910156
1677.792,36.1998291015625
1673.935,36.195831298828125
1670.078,36.198158264160156
1666.221,36.202354431152344
1662.364,36.20112609863281
1658.507,36.201171875
1654.65,36.207183837890625
1650.793,36.208961486816406
1646.936,36.2039680480957
1643.079,36.19999694824219
1639.222,36.21377944946289
1635.365,36.22785949707031
1631.508,36.241416931152344
1627.651,36.25387954711914
1623.794,36.25395584106445
1619.937,36.2655029296875
1616.08,36.2719612121582
1612.223,36.27581024169922
1608.366,36.28664016723633
1604.509,36.280975341796875
1600.652,36.2769660949707
1596.795,36.27314758300781
1592.938,36.258583068847656
1589.081,36.24964904785156
1585.224,36.24958801269531
1581.367,36.25885009765625
1577.51,36.267887115478516
1573.653,36.26791763305664
1569.796,36.2749137878418
1565.939,36.2901611328125
1562.082,36.30418014526367
1558.225,36.295875549316406
1554.368,36.295997619628906
1550.511,36.312679290771484
1546.654,36.3306770324707
1542.797,36.35056686401367
1538.94,36.34761428833008
1535.083,36.324127197265625
1531.226,36.314781188964844
1527.369,36.32352828979492
1523.512,36.32805633544922
1519.655,36.3191032409668
1515.798,36.31926345825195
1511.941,36.33271026611328
1508.084,36.33939743041992
1504.227,36.348018646240234
1500.37,36.367042541503906
1496.513,36.38009262084961
1492.656,36.38788986206055
1488.799,36.39514923095703
1484.942,36.395389556884766
1481.085,36.40277862548828
1477.229,36.412513732910156
1473.372,36.41865158081055
1469.515,36.4183349609375
1465.658,36.420867919921875
1461.801,36.42457962036133
1457.944,36.42476272583008
1454.087,36.419742584228516
1450.23,36.43086624145508
1446.373,36.4619255065918
1442.516,36.48836135864258
1438.659,36.50736618041992
1434.802,36.518184661865234
1430.945,36.525352478027344
1427.088,36.525413513183594
1423.231,36.518890380859375
1419.374,36.50456237792969
1415.517,36.48691940307617
1411.66,36.48411178588867
1407.803,36.470394134521484
1403.946,36.45405960083008
1400.089,36.43696594238281
1396.232,36.41401672363281
1392.375,36.3957633972168
1388.518,36.38761520385742
1384.661,36.37493133544922
1380.804,36.355838775634766
1376.947,36.34177017211914
1373.09,36.322242736816406
1369.233,36.30767059326172
1365.376,36.29180908203125
1361.519,36.287628173828125
1357.662,36.27830123901367
1353.805,36.26826095581055
1349.948,36.265953063964844
1346.091,36.270931243896484
1342.234,36.270137786865234
1338.377,36.26017379760742
1334.52,36.262393951416016
1330.663,36.274471282958984
1326.806,36.277503967285156
1322.949,36.277259826660156
1319.092,36.27739715576172
1315.235,36.283329010009766
1311.378,36.290138244628906
1307.521,36.286922454833984
1303.664,36.28776550292969
1299.807,36.28843307495117
1295.95,36.301815032958984
1292.093,36.31480026245117
1288.236,36.32752227783203
1284.379,36.32548522949219
1280.522,36.3314208984375
1276.665,36.34843444824219
1272.808,36.37116241455078
1268.951,36.407833099365234
1265.094,36.44059371948242
1261.237,36.44841766357422
1257.38,36.44859313964844
1253.523,36.4608268737793
1249.666,36.48881912231445
1245.809,36.538089752197266
1241.952,36.612579345703125
1238.095,36.680267333984375
1234.238,36.724525451660156
1230.381,36.759925842285156
1226.524,36.79541015625
1222.667,36.81763458251953
1218.81,36.85653305053711
1214.953,36.90507888793945
1211.096,36.93867492675781
1207.239,36.964786529541016
1203.382,37.00966262817383
1199.525,37.077537536621094
1195.668,37.13914489746094
1191.811,37.19025802612305
1187.954,37.23317337036133
1184.097,37.252906799316406
1180.24,37.274017333984375
1176.383,37.30318069458008
1172.526,37.3206901550293
1168.669,37.32511901855469
1164.812,37.33842086791992
1160.955,37.36494445800781
1157.098,37.373287200927734
1153.241,37.37038803100586
1149.384,37.374298095703125
1145.527,37.37972640991211
1141.67,37.39747619628906
1137.813,37.43501663208008
1133.956,37.46110534667969
1130.099,37.462894439697266
1126.242,37.45728302001953
1122.385,37.468467712402344
1118.528,37.482418060302734
1114.671,37.490814208984375
1110.814,37.50703430175781
1106.957,37.52190017700195
1103.1,37.521934509277344
1099.243,37.51850891113281
1095.386,37.531856536865234
1091.529,37.55230712890625
1087.672,37.568931579589844
1083.815,37.59294891357422
1079.958,37.612579345703125
1076.101,37.610443115234375
1072.244,37.61434555053711
1068.387,37.608665466308594
1064.53,37.59048080444336
1060.673,37.56328201293945
1056.816,37.51066207885742
1052.959,37.464378356933594
1049.102,37.42808532714844
1045.245,37.38829040527344
1041.388,37.345115661621094
1037.531,37.29534149169922
1033.674,37.24295425415039
1029.817,37.16569900512695
1025.96,37.07169723510742
1022.103,36.99101638793945
1018.246,36.9055290222168
1014.389,36.84132766723633
1010.532,36.80936813354492
1006.675,36.81003952026367
1002.818,36.821468353271484
998.961,36.79661178588867
995.104,36.769107818603516
991.247,36.75215530395508
987.39,36.76129150390625
983.533,36.788780212402344
979.676,36.78597640991211
975.819,36.7772216796875
971.962,36.77772903442383
968.105,36.776302337646484
964.248,36.76983642578125
960.391,36.770896911621094
956.534,36.80280685424805
952.677,36.83090591430664
948.82,36.83387756347656
944.963,36.85034942626953
941.106,36.871795654296875
937.249,36.873191833496094
933.392,36.883914947509766
929.535,36.898231506347656
925.678,36.893550872802734
921.821,36.86802673339844
917.964,36.854644775390625
914.107,36.84221267700195
910.25,36.820899963378906
906.393,36.81634521484375
902.536,36.80698776245117
898.679,36.76808166503906
894.822,36.7475700378418
890.965,36.73993682861328
887.108,36.748016357421875
883.251,36.773780822753906
879.394,36.80572509765625
875.537,36.806434631347656
871.68,36.79690933227539
867.823,36.80842971801758
863.966,36.83327865600586
860.109,36.839576721191406
856.252,36.8277473449707
852.395,36.85029602050781
848.538,36.90269470214844
844.681,36.9418830871582
840.824,36.982425689697266
836.967,37.05110168457031
833.11,37.10300064086914
829.253,37.11426544189453
825.396,37.14589309692383
821.539,37.211021423339844
817.682,37.249263763427734
813.825,37.243019104003906
809.968,37.23811340332031
806.111,37.256813049316406
802.254,37.29889678955078
798.397,37.34664535522461
794.54,37.43230438232422
790.683,37.49258041381836
786.826,37.50387191772461
782.969,37.50130081176758
779.112,37.51533508300781
775.255,37.52852249145508
771.398,37.52232360839844
767.541,37.539371490478516
763.684,37.58381652832031
759.828,37.65497970581055
755.971,37.705810546875
752.114,37.72223663330078
748.257,37.71764373779297
744.4,37.737186431884766
740.543,37.77867889404297
736.686,37.77345657348633
732.829,37.77633285522461
728.972,37.801025390625
725.115,37.79999923706055
721.258,37.847232818603516
717.401,37.87178421020508
713.544,37.82246780395508
709.687,37.779537200927734
705.83,37.73610305786133
701.973,37.66428756713867
698.116,37.62171936035156
694.259,37.619720458984375
690.402,37.628501892089844
686.545,37.67676544189453
682.688,37.72054672241211
678.831,37.771610260009766
674.974,37.87602615356445
671.117,37.96855545043945
667.26,38.03014373779297
663.403,38.11671829223633
659.546,38.20692443847656
655.689,38.25876235961914
651.832,38.34245300292969
647.975,38.37867736816406
644.118,38.43075942993164
640.261,38.58556365966797
636.404,38.710350036621094
632.547,38.78303909301758
628.69,38.975982666015625
624.833,39.27019119262695
620.976,39.50881576538086
617.119,39.66678237915039
613.262,39.669189453125
609.405,39.60079574584961
605.548,39.45604705810547
601.691,39.25777053833008
597.834,38.94274139404297
593.977,38.52974319458008
590.12,38.12739562988281
586.263,37.827964782714844
582.406,37.653263092041016
578.549,37.55268859863281
574.692,37.50974655151367
570.835,37.48999786376953
566.978,37.41719055175781
563.121,37.37714767456055
559.264,37.411407470703125
555.407,37.58076858520508
551.55,37.71456527709961
547.693,37.820430755615234
543.836,37.96629333496094
539.979,38.1006965637207
536.122,38.21742630004883
532.265,38.35578155517578
528.408,38.4547004699707
524.551,38.44700622558594
520.694,38.54247283935547
516.837,38.64924621582031
512.98,38.742271423339844
509.123,38.82483673095703
505.266,38.85712432861328
501.409,38.70389938354492
497.552,38.5717887878418
493.695,38.56113815307617
489.838,38.587608337402344
485.981,38.74956512451172
482.124,38.86558151245117
478.267,38.739646911621094
474.41,38.80263137817383
470.553,38.8685417175293
466.696,38.73595428466797
462.839,38.99924087524414
458.982,39.016353607177734
455.125,38.99001693725586
451.268,38.60417938232422
447.411,38.37310028076172
443.554,38.129512786865234
439.697,38.17736053466797
435.84,37.87358856201172
431.983,37.3503303527832
428.126,37.344818115234375
424.269,37.162418365478516
420.412,36.520172119140625
416.555,36.58516311645508
412.698,37.54283905029297
408.841,38.29304885864258
404.984,37.30575942993164
401.127,35.49492263793945
