X,Y
3999.704,0.0007939873612485826
3997.776,0.000645698921289295
3995.847,0.0006123509374447167
3993.919,0.0005378332571126521
3991.99,0.0005563785671256483
3990.062,0.0006874123937450349
3988.133,0.0006608307594433427
3986.205,0.0005874328780919313
3984.276,0.00040989575791172683
3982.348,0.0005454968195408583
3980.419,0.0007183433044701815
3978.491,0.0005991451907902956
3976.562,0.0003989182005170733
3974.634,0.0005002807010896504
3972.705,0.0006024963804520667
3970.777,0.0004798802547156811
3968.848,0.0004367605142761022
3966.92,0.00048478954704478383
3964.991,0.000660996709484607
3963.063,0.0006388963665813208
3961.134,0.0006334875943139195
3959.206,0.0007144602132029831
3957.277,0.0006788835162296891
3955.349,0.0006305343704298139
3953.42,0.0004443890939000994
3951.492,0.0005119243287481368
3949.563,0.0007482475484721363
3947.635,0.0007017491734586656
3945.706,0.0006165649392642081
3943.778,0.0004707252373918891
3941.849,0.00018814268696587533
3939.921,0.000309615395963192
3937.992,0.00041487059206701815
3936.064,0.0003403204900678247
3934.135,0.00030510599026456475
3932.207,0.0004702276783064008
3930.278,0.0003335227374918759
3928.35,0.0002455594949424267
3926.421,0.0004426311934366822
3924.493,0.0003156169841531664
3922.564,0.00041132187470793724
3920.636,0.00020312602282501757
3918.707,5.52048186364118e-05
3916.779,0.00028912443667650223
3914.85,0.0005803326494060457
3912.922,0.0005729007534682751
3910.993,0.0003870454675052315
3909.065,0.0005653694970533252
3907.136,0.00045526830945163965
3905.208,5.72593962715473e-05
3903.279,-4.5921351556899026e-05
3901.351,0.00015463095041923225
3899.422,0.0003208228445146233
3897.494,0.0006255239131860435
3895.565,0.0005906512378714979
3893.637,0.00030802382389083505
3891.708,0.00010054031008621678
3889.78,0.0002763595257420093
3887.851,0.0004857183375861496
3885.923,0.00021224224474281073
3883.994,0.0002856762148439884
3882.066,0.00020090500765945762
3880.137,5.4906573495827615e-05
3878.209,0.0004658492689486593
3876.28,0.0005221417522989213
3874.352,0.00013984815450385213
3872.423,0.00021973425464238971
3870.495,0.00010746698535513133
3868.566,2.6872538001043722e-05
3866.638,0.0003361091949045658
3864.709,0.00017136993119493127
3862.781,0.00011794005695264786
3860.852,0.0001362685434287414
3858.924,0.0002144964673789218
3856.995,-2.6605819584801793e-05
3855.067,-0.0006104299682192504
3853.138,-0.0008837790228426456
3851.21,-8.935331425163895e-05
3849.281,0.00040793902007862926
3847.353,0.0006199826020747423
3845.424,0.000663386017549783
3843.496,0.00031681067775934935
3841.567,-3.021719203388784e-05
3839.639,-3.6512177757686004e-05
3837.71,-0.00022627966245636344
3835.782,6.626808612963941e-08
3833.853,0.00031578275957144797
3831.925,0.0003636657784227282
3829.996,0.0004907271941192448
3828.068,0.0003460903826635331
3826.139,9.102874901145697e-05
3824.211,3.4790880363289034e-06
3822.282,-0.00035134374047629535
3820.354,-0.0003556476440280676
3818.425,-8.482231351081282e-06
3816.497,4.671924671129091e-06
3814.568,0.00029724775231443346
3812.64,0.00047580027603544295
3810.711,0.0003472509852144867
3808.783,0.0003331911575514823
3806.854,-9.16722128749825e-05
3804.926,-8.262843039119616e-05
3802.997,-6.96752977091819e-05
3801.069,-0.00011449614976299927
3799.14,7.353066030191258e-05
3797.212,4.9703903641784564e-05
3795.283,0.00024526112247258425
3793.355,0.0004838275781366974
3791.426,0.000505488773342222
3789.498,0.000661096244584769
3787.569,0.0003919537120964378
3785.641,9.331548062618822e-05
3783.712,0.00020305972429923713
3781.784,0.00035106446011923254
3779.855,9.082989708986133e-05
3777.927,0.00013302041043061763
3775.998,0.0002970819768961519
3774.07,0.00022470690601039678
3772.141,0.00032274602563120425
3770.213,0.00025706368614919484
3768.284,0.00021482797455973923
3766.356,0.00038973172195255756
3764.427,0.00039308128179982305
3762.499,0.0005454304628074169
3760.57,0.00023707248328719288
3758.642,1.2789927495759912e-05
3756.713,0.0001019654082483612
3754.785,4.8179565055761486e-05
3752.856,-0.00041285264887847006
3750.928,-0.0006423912709578872
3748.999,-0.0006181392818689346
3747.071,-0.00018468299822416157
3745.142,-0.0002934352960437536
3743.214,-0.00011234299745410681
3741.285,0.0004318849532864988
3739.357,0.00017710441898088902
3737.428,-0.0001523235987406224
3735.5,-0.00033114783582277596
3733.571,-0.00029985891887918115
3731.643,-0.00021975560230202973
3729.714,0.0002525548043195158
3727.786,0.0005292741698212922
3725.857,0.0003367392346262932
3723.929,0.0004476727335713804
3722.0,0.0004759661387652159
3720.072,0.0004667780303861946
3718.143,0.00044720835285261273
3716.215,0.00046926576760597527
3714.286,0.00024831120390444994
3712.358,-0.00017733030836097896
3710.429,-0.00033094920217990875
3708.501,9.85849546850659e-05
3706.572,0.0006537625449709594
3704.644,0.0005975193926133215
3702.715,0.00026273299590684474
3700.787,0.0004564955597743392
3698.858,0.0007370622479356825
3696.93,0.0006649125134572387
3695.001,0.0006742707337252796
3693.073,0.00038359645986929536
3691.144,-0.00014722271589562297
3689.216,-0.00023224065080285072
3687.287,0.00017405484686605632
3685.359,0.0006459312280640006
3683.43,0.0006882088491693139
3681.502,0.0005959267728030682
3679.573,0.0004356328281573951
3677.645,4.208226891933009e-05
3675.716,-0.0007039251504465938
3673.788,-0.0004247362958267331
3671.859,4.990273009752855e-05
3669.931,-4.231010825606063e-05
3668.002,0.0001695136888884008
3666.074,0.00044588165474124253
3664.145,0.0006283443653956056
3662.217,0.0006500127492472529
3660.288,0.000533885438926518
3658.36,0.00026568371686153114
3656.431,-0.00021290028234943748
3654.503,-0.00011631803499767557
3652.574,2.3724620405118912e-05
3650.646,-0.00037902052281424403
3648.717,-0.0004285760805942118
3646.789,5.5735032219672576e-05
3644.86,0.0003772291529458016
3642.932,0.00037586948019452393
3641.003,0.00045092322397977114
3639.075,0.0004670433991122991
3637.146,0.00027450284687802196
3635.218,0.00022861876641400158
3633.289,0.00026817028992809355
3631.361,0.00014588053454644978
3629.432,-0.0004611465847119689
3627.504,-0.0003716711071319878
3625.575,0.0003811423957813531
3623.647,0.0005580041906796396
3621.718,0.0002474492066539824
3619.79,-0.00013092598237562925
3617.861,-0.00021227104298304766
3615.933,5.665957814926514e-06
3614.004,6.004302849760279e-05
3612.076,-2.9489194730558665e-06
3610.147,-2.339200182177592e-05
3608.219,-0.00013258217950351536
3606.29,-3.5617631510831416e-05
3604.362,0.00019284978043287992
3602.433,0.00020246303756721318
3600.505,0.0002571631339378655
3598.577,0.00042916525853797793
3596.648,0.00036933645606040955
3594.72,0.00017703812045510858
3592.791,0.00020312602282501757
3590.863,0.0003307373553980142
3588.934,0.00023621052969247103
3587.006,7.306670158868656e-05
3585.077,0.0002533836232032627
3583.149,0.00023889585281722248
3581.22,0.00029389894916675985
3579.292,0.0005563453887589276
3577.363,0.0004461801436264068
3575.435,0.00011986235767835751
3573.506,0.00030994697590358555
3571.578,0.0004021019849460572
3569.649,7.382891635643318e-05
3567.721,-0.00010939481580862775
3565.792,0.00014906248543411493
3563.864,0.000484457821585238
3561.935,0.0003843260637950152
3560.007,0.00023677411081735045
3558.078,0.0003925838100258261
3556.15,0.00035431425203569233
3554.221,0.00010859382018679753
3552.293,0.00018114843987859786
3550.364,0.00037285167491063476
3548.436,0.00040787269244901836
3546.507,0.00027682370273396373
3544.579,0.00017843031673692167
3542.65,0.0002628655929584056
3540.722,0.00030500651337206364
3538.793,0.0003459577274043113
3536.865,0.00025185858248732984
3534.936,0.00016696138482075185
3533.008,0.0002258340537082404
3531.079,0.0003351143968757242
3529.151,0.0004626981681212783
3527.222,0.0004719193675555289
3525.294,0.00032629401539452374
3523.365,0.000333953823428601
3521.437,0.00043593134614638984
3519.508,0.0004532781895250082
3517.58,0.0005225730128586292
3515.651,0.0004776246496476233
3513.723,0.0005287433741614223
3511.794,0.0005175969563424587
3509.866,0.0002664131170604378
3507.937,0.0003533193957991898
3506.009,0.00034141476498916745
3504.08,0.0003021549782715738
3502.152,0.0005199522711336613
3500.223,0.0005465584108605981
3498.295,0.0004883056972175837
3496.366,0.0004939448554068804
3494.438,0.0003382645663805306
3492.509,7.409403042402118e-05
3490.581,0.0001356056600343436
3488.652,0.00040372705552726984
3486.724,0.0005412835162132978
3484.795,0.0004966649576090276
3482.867,0.00045898323878645897
3480.938,0.0005202839965932071
3479.01,0.0005522315041162074
3477.081,0.0004512548912316561
3475.153,0.00036456112866289914
3473.224,0.00019772267842199653
3471.296,0.00021323675173334777
3469.367,0.0003043102042283863
3467.439,0.0003102785558439791
3465.51,0.00043646199628710747
3463.582,0.0004673087387345731
3461.653,0.00032954360358417034
3459.725,0.0003222486702725291
3457.796,0.0005498760147020221
3455.868,0.0006141758640296757
3453.939,0.0006033921963535249
3452.011,0.0006551230908371508
3450.082,0.000651804672088474
3448.154,0.0005026690778322518
3446.225,0.00037616793997585773
3444.297,0.00040528582758270204
3442.368,0.0003671477606985718
3440.44,0.00039576756535097957
3438.511,0.00038366278749890625
3436.583,0.000321983388857916
3434.654,0.000215093168662861
3432.726,0.00027327612042427063
3430.797,0.0003255977062508464
3428.869,0.00040366072789765894
3426.94,0.0004909593844786286
3425.012,0.0004285350732970983
3423.083,0.0004209399630781263
3421.155,0.0004683038278017193
3419.226,0.000492087216116488
3417.298,0.0004645225126296282
3415.369,0.0004138424701523036
3413.441,0.00032533242483623326
3411.512,0.0004856519808527082
3409.584,0.00040293109486810863
3407.655,0.00024015564122237265
3405.727,0.00031376013066619635
3403.798,0.00039905085577629507
3401.87,0.0004429296823218465
3399.941,0.00042598124127835035
3398.013,0.0003421111323405057
3396.084,0.00026425806572660804
3394.156,0.0003516613505780697
3392.227,0.0004435598966665566
3390.299,0.000418585172155872
3388.37,0.0004674082447309047
3386.442,0.00045135439722798765
3384.513,0.00032904621912166476
3382.585,0.00035806145751848817
3380.656,0.0003674793988466263
3378.728,0.00043314529466442764
3376.799,0.00027513279928825796
3374.871,0.00024244315864052624
3372.942,0.00042959643178619444
3371.014,0.0004940112121403217
3369.085,0.0004893008153885603
3367.157,0.00040701040416024625
3365.228,0.0002680708421394229
3363.3,0.00024274153111036867
3361.371,0.00024357034999411553
3359.443,0.00010362250031903386
3357.514,0.00019812046957667917
3355.586,0.00029913769685663283
3353.657,0.000327388261212036
3351.729,0.0004197459784336388
3349.8,0.00038813985884189606
3347.872,0.00037994852755218744
3345.943,0.00039397671935148537
3344.015,0.00028405158082023263
3342.086,0.00021041897707618773
3340.158,0.00026299821911379695
3338.229,0.00035719925654120743
3336.301,0.00045052519999444485
3334.372,0.0004082375089637935
3332.444,0.00023790128761902452
3330.515,0.0003286151622887701
3328.587,0.0005373356398195028
3326.658,0.0006175603484734893
3324.73,0.0004816714790649712
3322.801,0.00039566808845847845
3320.873,0.0003409836790524423
3318.944,0.00020647414203267545
3317.016,0.00019964533566962928
3315.087,0.0003485774213913828
3313.159,0.000394838978536427
3311.23,0.00026568371686153114
3309.302,0.00023836542095523328
3307.373,0.000424123922130093
3305.445,0.00036190819810144603
3303.516,0.0002596164995338768
3301.588,0.00027629322721622884
3299.659,0.0002761274517979473
3297.731,0.0001670939673203975
3295.802,0.0001722649030853063
3293.874,0.00026568371686153114
3291.945,0.00022470690601039678
3290.017,0.00020117020176257938
3288.088,0.0003285488346591592
3286.16,0.000416031398344785
3284.231,0.0003523577470332384
3282.303,0.00021118143922649324
3280.374,0.0002658826415427029
3278.446,0.0003105438081547618
3276.517,0.00015529387746937573
3274.589,5.2785733714699745e-05
3272.66,1.3850249160896055e-05
3270.732,0.00018171194824390113
3268.803,0.000342973304213956
3266.875,0.00042986174230463803
3264.946,0.0005210801609791815
3263.018,0.0005110949859954417
3261.089,0.0003820709534920752
3259.161,0.00015615567099303007
3257.232,0.0001246350002475083
3255.304,0.0002536156971473247
3253.375,0.0003755710204131901
3251.447,0.00035156187368556857
3249.518,0.0002092587383231148
3247.59,0.00013742860755883157
3245.661,0.00023146980674937367
3243.733,0.00026667834026739
3241.804,0.0002763926750048995
3239.876,0.00011969664046773687
3237.947,2.7402715204516426e-05
3236.019,0.00023011058510746807
3234.09,0.0004351353272795677
3232.162,0.00033123473986051977
3230.233,0.00028053708956576884
3228.305,0.00035169452894479036
3226.376,0.0003002318844664842
3224.448,0.00025640061357989907
3222.519,0.0004435598966665566
3220.591,0.0004115872143302113
3218.662,0.00024164750357158482
3216.734,0.0001978552754735574
3214.805,0.0002717509923968464
3212.877,0.0002687670639716089
3210.948,0.0002298785257153213
3209.02,0.00027755313203670084
3207.091,0.0003685737319756299
3205.163,0.00026826976682059467
3203.234,0.00013948357081972063
3201.306,3.817208926193416e-05
3199.378,3.260511948610656e-05
3197.449,0.00010746698535513133
3195.521,0.00011462577094789594
3193.592,2.9324615752557293e-05
3191.664,0.00015274164616130292
3189.735,0.0003306047001387924
3187.807,0.00039145624032244086
3185.878,0.00024920632131397724
3183.95,0.00013235752703621984
3182.021,0.00014684174675494432
3180.093,0.00019006530055776238
3178.164,0.00018167879898101091
3176.236,0.0003410500066820532
3174.307,0.000405949103878811
3172.379,0.0003053712425753474
3170.45,0.0002627992944326252
3168.522,0.00030865383450873196
3166.593,0.00021015378297306597
3164.665,4.562797039397992e-05
3162.736,0.00010809669038280845
3160.808,0.00013540679356083274
3158.879,0.00011774119775509462
3156.951,7.833593554096296e-05
3155.022,-4.704778621089645e-05
3153.094,2.1968424334772862e-05
3151.165,0.00012274582695681602
3149.237,0.00021452961664181203
3147.308,0.00022135865583550185
3145.38,0.00017670664237812161
3143.451,5.6629764003446326e-05
3141.523,4.439983968040906e-06
3139.594,5.3083975217305124e-05
3137.666,0.00014627828204538673
3135.737,0.00015728262951597571
3133.809,0.00014747150999028236
3131.88,0.0002964188461191952
3129.952,0.00023743715428281575
3128.023,0.0001279825228266418
3126.095,0.00022381183225661516
3124.166,0.0002980435383506119
3122.238,0.0001677900436334312
3120.309,5.116196916787885e-05
3118.381,3.7741312553407624e-05
3116.452,4.2678741010604426e-05
3114.524,-6.175745511427522e-05
3112.595,5.2785733714699745e-05
3110.667,0.00015360343968495727
3108.738,9.126073564402759e-05
3106.81,0.00017372336878906935
3104.881,0.00019580003572627902
3102.953,9.036592382472008e-05
3101.024,-8.946181537794473e-07
3099.096,-4.5490654883906245e-05
3097.167,8.95374032552354e-05
3095.239,0.00019871715630870312
3093.31,8.36715116747655e-05
3091.382,-1.0337696949136443e-05
3089.453,0.00010803040640894324
3087.525,0.00018055176769848913
3085.596,9.22218241612427e-05
3083.668,9.341490658698604e-05
3081.739,0.00019540224457159638
3079.811,0.0002084962761728093
3077.882,7.863419159548357e-05
3075.954,2.998734089487698e-05
3074.025,2.915805225711665e-06
3072.097,0.0001492282171966508
3070.168,0.00021041897707618773
3068.24,0.0001962641254067421
3066.311,0.00014720634499099106
3064.383,-2.7864833100466058e-05
3062.454,-0.0001695137907518074
3060.526,-2.478355418134015e-05
3058.597,0.0001502557279309258
3056.669,0.00021887234470341355
3054.74,0.00023279587912838906
3052.812,0.00024128281802404672
3050.883,0.00024075238616205752
3048.955,0.00022377868299372494
3047.026,0.00018665101379156113
3045.098,0.00011058236850658432
3043.169,6.189879786688834e-05
3041.241,0.0001570505992276594
3039.312,0.00025053246645256877
3037.384,0.0002770557766780257
3035.455,0.00024721716181375086
3033.527,6.799637048970908e-05
3031.598,2.829739241860807e-05
3029.67,7.899873162386939e-05
3027.741,8.788036211626604e-05
3025.813,0.00018310415907762945
3023.884,0.00015012314543128014
3021.956,0.00014853215543553233
3020.027,0.000148631603224203
3018.099,6.779753312002867e-05
3016.17,-2.190104714827612e-05
3014.242,8.211391104850918e-05
3012.313,0.000176242581801489
3010.385,0.00011117893154732883
3008.456,6.43510720692575e-05
3006.528,0.00018966752395499498
3004.599,0.0001298717106692493
3002.671,0.00017382281657774001
3000.742,0.000163646720466204
2998.814,3.535546056809835e-05
2996.885,7.727545744273812e-05
2994.957,8.84768960531801e-05
2993.028,6.935508281458169e-05
2991.1,8.032433834159747e-05
2989.171,2.1537180145969614e-06
2987.243,1.4479816854873206e-05
2985.314,0.0001599011739017442
2983.386,0.0001712704834062606
2981.457,0.00013189349556341767
2979.529,9.537023288430646e-05
2977.6,0.00022490581613965333
2975.672,0.0002381664962740615
2973.743,0.0001154211931861937
2971.815,9.619876800570637e-05
2969.886,0.00019928069377783686
2967.958,0.0002605448244139552
2966.029,0.00012118808808736503
2964.101,0.00012241439253557473
2962.172,0.00024529427173547447
2960.244,0.00035401579225435853
2958.315,0.0002873008488677442
2956.387,0.00020968967874068767
2954.458,0.00024045401369221509
2952.53,0.0002870024472940713
2950.601,0.00019629727466963232
2948.673,0.00013550622679758817
2946.744,8.337324834428728e-05
2944.816,0.00015115065616555512
2942.887,0.0003072943654842675
2940.959,0.0002663467894308269
2939.03,0.00021031952928751707
2937.102,0.00017020977975334972
2935.173,0.00010832868429133669
2933.245,5.6861732446122915e-05
2931.316,-3.611595275287982e-06
2929.388,0.0001510512229287997
2927.459,0.00023103883722797036
2925.531,0.00023289532691705972
2923.602,0.000233823579037562
2921.674,0.00019646302098408341
2919.745,0.00016493942530360073
2917.817,0.00024788020527921617
2915.888,0.00017193342500831932
2913.96,5.146021067048423e-05
2912.031,0.00010952181037282571
2910.103,0.00017571222269907594
2908.174,0.00018429748888593167
2906.246,2.6474905098439194e-05
2904.317,-2.1205732991802506e-06
2902.389,0.0001481675571994856
2900.46,0.00020985542505513877
2898.532,0.00018197712779510766
2896.603,0.00017962363199330866
2894.675,0.00014332837599795312
2892.746,8.741639612708241e-05
2890.818,7.230449409689754e-05
2888.889,1.6434794815722853e-05
2886.961,1.0006595402956009e-05
2885.032,5.7093700888799503e-05
2883.104,0.00013391529500950128
2881.175,0.00014946023293305188
2879.247,8.887458534445614e-05
2877.318,3.575309892767109e-05
2875.39,0.00010527959966566414
2873.461,0.00020637469424400479
2871.533,0.00025835668202489614
2869.604,0.00015148210513871163
2867.676,0.0001599011739017442
2865.747,0.00010938924242509529
2863.819,8.271043770946562e-05
2861.89,8.383721433347091e-05
2859.962,2.114003109454643e-05
2858.033,2.2896225345903076e-05
2856.105,2.1471389118232764e-05
2854.176,4.148580046603456e-05
2852.248,0.0001838002644944936
2850.319,0.000337435572873801
2848.391,0.00021960165759082884
2846.462,7.127716526156291e-05
2844.534,0.0001094223844120279
2842.605,0.0002049823960987851
2840.677,0.00018602119234856218
2838.748,0.0001569843152537942
2836.82,0.00010219740215688944
2834.891,1.6964959286269732e-05
2832.963,1.832350972108543e-05
2831.034,4.9405662139179185e-05
2829.106,6.99847296345979e-05
2827.177,8.38703490444459e-05
2825.249,6.92888061166741e-05
2823.32,0.0001125709168263711
2821.392,9.04984917724505e-05
2819.463,3.7906997022219e-05
2817.535,4.3208936403971165e-05
2815.606,1.1265588000242133e-06
2813.678,3.4990956919500604e-05
2811.749,7.790511153871194e-05
2809.821,7.200623804237694e-05
2807.892,0.00015947027713991702
2805.964,0.00017030921299010515
2804.035,0.00015907251508906484
2802.107,0.00021012063371017575
2800.178,0.00018648526747711003
2798.25,0.00021273949823807925
2796.322,0.000222717848373577
2794.393,0.00011220635497011244
2792.465,2.491751183697488e-05
2790.536,9.71267290879041e-05
2788.608,0.0001540343218948692
2786.679,8.131854701787233e-05
2784.751,6.328647486952832e-06
2782.822,-2.7798569135484286e-05
2780.894,3.542173362802714e-05
2778.965,0.0001349427766399458
2777.037,0.00011800634820247069
2775.108,9.195669554173946e-05
2773.18,2.0775540178874508e-05
2771.251,4.857721796724945e-05
2769.323,0.00013865495566278696
2767.394,0.0001438586914446205
2765.466,0.00014800183998886496
2763.537,0.00013835665595252067
2761.609,0.00010501446377020329
2759.68,9.470740769756958e-05
2757.752,7.343124161707237e-05
2755.823,4.10881511925254e-05
2753.895,9.22218241612427e-05
2751.966,0.0001362354087177664
2750.038,0.00014770352572668344
2748.109,0.00015267534763552248
2746.181,0.00013142947864253074
2744.252,0.00015509499644394964
2742.324,0.00020246303756721318
2740.395,0.0002305747038917616
2738.467,0.00020766753004863858
2736.538,5.865121056558564e-05
2734.61,9.871752263279632e-05
2732.681,0.0002908817259594798
2730.753,0.0003044428303837776
2728.824,0.0002499025431461632
2726.896,0.00014776982425246388
2724.967,5.063176286057569e-05
2723.039,-7.554495368822245e-06
2721.11,-5.347504702513106e-05
2719.182,7.850163092371076e-05
2717.253,0.00015758094377815723
2715.325,0.00013252324424684048
2713.396,0.00014687489601783454
2711.468,0.00015045459440443665
2709.539,0.0001439249754184857
2707.611,0.00014143911539576948
2705.682,0.00015913881361484528
2703.754,0.0001526422129245475
2701.825,6.46824628347531e-05
2699.897,-2.0045630662934855e-05
2697.968,-1.0934095371339936e-05
2696.04,6.839404522906989e-05
2694.111,6.219704664545134e-05
2692.183,9.642112672736403e-06
2690.254,9.497254359303042e-05
2688.326,0.00012360756227280945
2686.397,0.00012433671508915722
2684.469,9.911521920002997e-05
2682.54,3.942968760384247e-06
2680.612,-5.5429711210308596e-05
2678.683,8.648070433991961e-06
2676.755,9.179098560707644e-05
2674.826,7.661265408387408e-05
2672.898,6.179937918204814e-05
2670.969,7.807081419741735e-05
2669.041,1.6169711670954712e-05
2667.112,3.280393866589293e-05
2665.184,9.679531649453565e-05
2663.255,2.173647408199031e-05
2661.327,-0.0001268848282052204
2659.398,-7.153049955377355e-05
2657.47,-2.5379933504154906e-05
2655.541,4.566110510495491e-05
2653.613,6.855974061181769e-05
2651.684,7.737487612757832e-05
2649.756,6.146799569251016e-05
2647.827,3.442763045313768e-05
2645.899,5.215610872255638e-05
2643.97,9.967862570192665e-05
2642.042,4.019344851258211e-05
2640.113,-2.816302003338933e-05
2638.185,-2.915785671575577e-06
2636.256,3.389744597370736e-05
2634.328,9.013393719214946e-05
2632.399,8.211391104850918e-05
2630.471,4.006090239272453e-05
2628.542,7.620895758009283e-06
2626.614,-1.96811743080616e-05
2624.685,5.18910055689048e-05
2622.757,0.00013106489495839924
2620.828,0.0001339484442723915
2618.9,0.00011959721450693905
2616.971,8.304184302687645e-05
2615.043,5.285201041260734e-05
2613.114,9.981119364965707e-05
2611.186,8.283588613267057e-06
2609.257,-5.735123704653233e-05
2607.329,-1.8687196643440984e-05
2605.4,-2.1934180040261708e-05
2603.472,1.0536752597545274e-05
2601.543,9.991061961045489e-05
2599.615,0.00010455047595314682
2597.686,0.00010087172995554283
2595.758,5.454205529531464e-05
2593.829,4.5495420636143535e-05
2591.901,0.00013534050958696753
2589.972,7.91644342825748e-05
2588.044,-3.1277406378649175e-05
2586.115,-6.573295831913128e-05
2584.187,1.1895283023477532e-05
2582.258,0.00018578916206024587
2580.33,0.00023100568796508014
2578.401,7.545276457676664e-05
2576.473,-1.0702163308451418e-05
2574.544,-2.3657059500692412e-05
2572.616,-7.593657937832177e-05
2570.687,-2.856060200429056e-05
2568.759,1.1696473848132882e-05
2566.83,-7.444580842275172e-05
2564.902,-7.729483331786469e-05
2562.973,-1.57383838086389e-05
2561.045,4.80801536468789e-05
2559.116,7.08794905222021e-05
2557.188,5.000214514438994e-05
2555.259,4.7516812628600746e-05
2553.331,0.00011588519555516541
2551.402,0.00015913881361484528
2549.474,0.0001322580937994644
2547.545,0.00015960285963956267
2545.617,0.00012791622430086136
2543.688,9.198983752867207e-05
2541.76,4.297697523725219e-05
2539.831,-6.626802928622055e-07
2537.903,2.6209816496702842e-05
2535.974,3.6116252886131406e-06
2534.046,3.485840716166422e-05
2532.117,7.538648060290143e-05
2530.189,8.751581481192261e-05
2528.26,5.285201041260734e-05
2526.332,-4.406804691825528e-06
2524.403,5.765361038356787e-06
2522.475,7.667893805773929e-05
2520.546,-7.190027190517867e-06
2518.618,-4.065356188220903e-05
2516.689,2.4851240596035495e-05
2514.761,9.440913709113374e-05
2512.832,0.00012668990530073643
2510.904,9.020022116601467e-05
2508.975,0.00012218239135108888
2507.047,0.00024052031221799552
2505.118,0.00019231940677855164
2503.19,0.0001322580937994644
2501.261,0.0001349759113509208
2499.333,0.00014554908557329327
2497.404,7.70434780861251e-05
2495.476,0.00011243834887864068
2493.547,0.00016957998741418123
2491.619,-7.554495368822245e-06
2489.69,1.570581844134722e-05
2487.762,0.0001302362943533808
2485.833,0.00014495247160084546
2483.905,0.00017594425298739225
2481.976,0.00017852976452559233
2480.048,0.0001436266757082194
2478.119,4.158521187491715e-05
2476.191,-1.325341327174101e-05
2474.262,3.224061583750881e-05
2472.334,2.551396028138697e-05
2470.405,3.3665488444967195e-05
2468.477,6.335690704872832e-05
2466.548,5.609955042018555e-05
2464.62,6.282668618950993e-05
2462.691,9.474054968450218e-05
2460.763,7.41603143978864e-05
2458.834,0.00015241018263623118
2456.906,0.0001742205786285922
2454.977,0.00016056410095188767
2453.049,0.00020872833556495607
2451.12,0.00010836182627826929
2449.192,-6.692560418741778e-05
2447.263,-4.545752381091006e-05
2445.335,6.169996049720794e-05
2443.406,9.914836118696257e-05
2441.478,7.455222657881677e-06
2439.549,-7.765924237901345e-05
2437.621,-3.260267112636939e-05
2435.692,2.4586153813288547e-05
2433.764,5.639779556076974e-05
2431.835,6.375457451213151e-05
2429.907,4.9703903641784564e-05
2427.978,2.816484629875049e-05
2426.05,7.094577449606732e-05
2424.121,0.00010587616270640865
2422.193,4.161834658589214e-05
2420.264,4.5926208258606493e-05
2418.336,0.0001055778848240152
2416.407,0.00010759955330286175
2414.479,0.00013083289377391338
2412.55,0.00018860676209442317
2410.622,0.0001418368483427912
2408.693,0.00010932295117527246
2406.765,7.687777542741969e-05
2404.836,4.9405662139179185e-05
2402.908,-5.3676812967751175e-06
2400.979,3.8435655369539745e-06
2399.051,-4.701465877587907e-05
2397.123,-6.056480197003111e-05
2395.194,6.879171269247308e-05
2393.266,6.537837907671928e-05
2391.337,2.312817559868563e-05
2389.409,8.277672168333083e-05
2387.48,7.021670899121091e-05
2385.552,3.3798034564824775e-05
2383.623,7.150914461817592e-05
2381.695,0.00020289397798478603
2379.766,0.00033047207398340106
2377.838,0.0004420341574586928
2375.909,0.0005348807317204773
2373.981,0.0006997579475864768
2372.052,0.0008818293572403491
2370.124,0.0010741079458966851
2368.195,0.001342277741059661
2366.267,0.0014524378348141909
2364.338,0.001494893804192543
2362.41,0.0014887761790305376
2360.481,0.0015064976178109646
2358.553,0.0015093571273609996
2356.624,0.001399348839186132
2354.696,0.0012925254413858056
2352.767,0.001125164097175002
2350.839,0.0007578398799523711
2348.91,0.0005005460698157549
2346.982,0.0006067766225896776
2345.053,0.0008476997027173638
2343.125,0.0010886568343266845
2341.196,0.001220382982864976
2339.268,0.0012055971892550588
2337.339,0.0011668571969494224
2335.411,0.001198918791487813
2333.482,0.0011245328933000565
2331.554,0.0010945030953735113
2329.625,0.0009807475144043565
2327.697,0.0008818625938147306
2325.768,0.0008275153231807053
2323.84,0.0007201023399829865
2321.911,0.000631928036455065
2319.983,0.0006041885353624821
2318.054,0.0005145118338987231
2316.126,0.00038094341289252043
2314.197,0.00032596243545413017
2312.269,0.00028653827030211687
2310.34,0.00020826423133257776
2308.412,4.9107424274552613e-05
2306.483,2.1371981347328983e-05
2304.555,0.0001352410763502121
2302.626,0.00011827149137388915
2300.698,3.0815750506008044e-05
2298.769,7.986037962837145e-05
2296.841,0.00013149577716831118
2294.912,6.756556103937328e-05
2292.984,4.612503107637167e-05
2291.055,1.5573026530546485e-06
2289.127,2.3724620405118912e-05
2287.198,6.352260243147612e-05
2285.27,0.000127319639432244
2283.341,0.00015028886264190078
2281.413,8.904028800316155e-05
2279.484,1.7892749383463524e-05
2277.556,-6.3616889747208916e-06
2275.627,1.3982789823785424e-05
2273.699,3.177670805598609e-05
2271.77,4.340775922173634e-05
2269.842,9.11195638764184e-06
2267.913,1.0536752597545274e-05
2265.985,3.644745731889998e-07
2264.056,-2.1139003365533426e-05
2262.128,1.0304808711225633e-05
2260.199,-6.020037835696712e-05
2258.271,-5.5926659115357324e-05
2256.342,1.8157832528231665e-05
2254.414,1.8389780962024815e-05
2252.485,3.180984276696108e-05
2250.557,6.995158764766529e-05
2248.628,5.967850665911101e-05
2246.7,8.22796137072146e-05
2244.771,6.895740807522088e-05
2242.843,8.261101902462542e-05
2240.914,0.0001249995839316398
2238.986,0.00010889210534514859
2237.057,9.749128366820514e-05
2235.129,0.0002217233122792095
2233.2,0.0002214249543612823
2231.272,2.1371981347328983e-05
2229.343,-8.905516733648255e-05
2227.415,-6.175745511427522e-05
2225.486,4.439983968040906e-06
2223.558,-1.8289603758603334e-05
2221.629,-7.17623988748528e-05
2219.701,-1.1961223208345473e-05
2217.772,8.860946400091052e-05
2215.844,0.00017412114539183676
2213.915,0.0001403121859766543
2211.987,4.5926208258606493e-05
2210.058,1.4976843885960989e-05
2208.13,9.825354209169745e-05
2206.201,0.00012788308958988637
2204.273,0.00012642475485336035
2202.344,0.00014654344704467803
2200.416,0.00011707834346452728
2198.487,0.0001648399920668453
2196.559,0.0002095570816891268
2194.63,0.0001570174645166844
2192.702,0.00016195623902603984
2190.773,0.00013345127808861434
2188.845,1.9880428681062767e-07
2186.916,3.9760865888638364e-07
2184.988,1.8654864106792957e-05
2183.059,3.005361395480577e-05
2181.131,2.0775540178874508e-05
2179.202,9.343899364466779e-06
2177.274,6.786381709389389e-05
2175.345,0.00014312949497252703
2173.417,0.00011946463928325102
2171.488,9.994376159738749e-05
2169.56,0.00011512290802784264
2167.631,5.6232103816000745e-05
2165.703,6.004302849760279e-05
2163.774,4.165148493484594e-05
2161.846,-8.647898539493326e-06
2159.917,-3.2834592275321484e-05
2157.989,1.3253617225927883e-07
2156.06,0.00012861224240623415
2154.132,0.00016682878776919097
2152.203,7.459113112417981e-05
2150.275,0.00011061551049351692
2148.346,0.00011621662270044908
2146.418,2.3658349164179526e-05
2144.489,2.110689638357144e-05
2142.561,0.00014100823318585753
2140.632,0.00020670618687290698
2138.704,0.0001396824372932315
2136.775,8.705184882273898e-05
2134.847,5.411125675891526e-05
2132.918,-1.8885992176365107e-05
2130.99,-5.4468946473207325e-05
2129.061,-6.089609451009892e-05
2127.133,2.939088699349668e-05
2125.204,8.052318298723549e-05
2123.276,5.649721060763113e-05
2121.347,-3.753924465854652e-05
2119.419,-4.8141089791897684e-05
2117.49,-3.60814701707568e-05
2115.562,-3.541884507285431e-05
2113.633,-7.083480159053579e-05
2111.705,-5.887519728275947e-05
2109.776,2.8926979211973958e-05
2107.848,7.89655969128944e-05
2105.919,0.00011485776485642418
2103.991,0.00010097115591634065
2102.062,6.0275000578258187e-05
2100.134,4.3971096602035686e-05
2098.205,8.648070433991961e-06
2096.277,-1.7196225599036552e-05
2094.348,-4.0057206206256524e-05
2092.42,-4.764413461089134e-05
2090.491,-7.719545101281255e-05
2088.563,-2.299441439390648e-05
2086.634,4.513090607360937e-05
2084.706,9.507196227787063e-05
2082.777,0.0001078646891983226
2080.849,-1.4148004083835986e-05
2078.92,-7.924938836367801e-05
2076.992,-3.80030796804931e-05
2075.063,-3.5683893656823784e-05
2073.135,-0.00012267801503185183
2071.206,-9.283165854867548e-05
2069.278,1.0105999535880983e-05
2067.349,-3.147722281937604e-06
2065.421,-1.2524486010079272e-05
2063.492,-3.131053745164536e-05
2061.564,2.9589704354293644e-05
2059.635,0.00010972066229442134
2057.707,6.660452345386147e-05
2055.778,4.426933446666226e-05
2053.85,-3.531944821588695e-05
2051.921,-0.00013317841512616724
2049.993,-0.0001039621711242944
2048.064,6.792531166865956e-06
2046.136,-1.9051654817303643e-05
2044.207,-5.334547495294828e-06
2042.279,-1.78588798007695e-05
2040.35,-1.683176560618449e-05
2038.422,8.95042612683028e-05
2036.493,1.341949337074766e-05
2034.565,-6.102861152612604e-05
2032.636,-1.8985389033332467e-05
2030.708,-0.00014818327326793224
2028.779,-0.00011293925490463153
2026.851,1.7163771190098487e-05
2024.922,-4.820735193789005e-05
2022.994,-0.00010151083552045748
2021.065,5.583444726653397e-05
2019.137,0.00014458787336479872
2017.208,8.22796137072146e-05
2015.28,-8.28350209758355e-07
2013.351,-4.691526555689052e-05
2011.423,-1.4446201021200977e-05
2009.494,-3.541884507285431e-05
2007.566,-8.908829477149993e-05
2005.637,-2.9156975870137103e-05
2003.709,6.643882807111368e-05
2001.78,8.204763435060158e-05
1999.852,0.00012201667414046824
1997.924,0.00010806354839587584
1995.995,-1.8322736650588922e-05
1994.067,-7.345195626839995e-05
1992.138,-7.437954627675936e-05
1990.21,-4.426481973496266e-05
1988.281,4.307446488382993e-06
1986.353,7.296728290384635e-05
1984.424,6.322434637695551e-05
1982.496,7.986037962837145e-05
1980.567,0.00011111264757346362
1978.639,9.616562601877376e-05
1976.71,9.354746725875884e-05
1974.782,8.894086931832135e-05
1972.853,1.8223760207547457e-06
1970.925,-2.1370929971453734e-05
1968.996,6.063571618142305e-06
1967.068,-3.0482246074825525e-05
1965.139,-1.1795557838922832e-05
1963.211,4.9074285925598815e-05
1961.282,6.295923958532512e-05
1959.354,5.792216325062327e-05
1957.425,3.6879751860396937e-05
1955.497,2.2100966816651635e-05
1953.568,9.608977961761411e-06
1951.64,9.37703407544177e-06
1949.711,2.0543589926091954e-05
1947.783,-4.0156599425245076e-05
1945.854,-0.00012499674630817026
1943.926,-0.00017050742462743074
1941.997,-0.00013473523722495884
1940.069,4.456756869331002e-05
1938.14,5.7093700888799503e-05
1936.212,1.6368523574783467e-05
1934.283,-7.010596891632304e-05
1932.355,-2.826241689035669e-05
1930.426,3.7708174204453826e-05
1928.498,8.658787555759773e-05
1926.569,9.155899897450581e-05
1924.641,-2.4849818146321923e-05
1922.712,-2.0244426195858978e-05
1920.784,8.254473505076021e-05
1918.855,-2.117213443852961e-05
1916.927,-1.0337696949136443e-05
1914.998,5.908201273996383e-05
1913.07,8.681205144966953e-06
1911.141,-8.454983617411926e-05
1909.213,-0.0001620614784769714
1907.284,-7.116608321666718e-05
1905.356,3.3566080674063414e-05
1903.427,-3.846691470243968e-05
1901.499,-0.00011837179044960067
1899.57,-2.0608884369721636e-05
1897.642,8.515531590091996e-06
1895.713,-4.095174153917469e-05
1893.785,-4.187940794508904e-05
1891.856,-2.4584762286394835e-05
1889.928,-8.348975097760558e-05
1887.999,-8.040887041715905e-05
1886.071,-4.088547939318232e-05
1884.142,1.1265588000242133e-06
1882.214,9.732558100949973e-05
1880.285,5.72925346205011e-05
1878.357,7.52149207983166e-06
1876.428,9.242066880688071e-05
1874.5,0.00012304411211516708
1872.571,6.44173487671651e-05
1870.643,-0.00013639141980092973
1868.714,-0.000371571775758639
1866.786,-0.0002432020119158551
1864.857,-6.304949783952907e-05
1862.929,-4.833987259189598e-05
1861.0,-7.060290226945654e-05
1859.072,-6.262288479774725e-06
1857.143,1.1729608559107874e-05
1855.215,-3.628025660873391e-05
1853.286,1.9748336853808723e-05
1851.358,0.0001025951060000807
1849.429,1.9880469608324347e-06
1847.501,-0.00016497618344146758
1845.572,-0.0004162621917203069
1843.644,-0.0004721021687146276
1841.715,-0.0001339071459369734
1839.787,5.079745460534468e-05
1837.858,-6.229154678294435e-06
1835.93,-0.00011595365504035726
1834.001,-0.00011151485523441806
1832.073,-0.00020816440519411117
1830.144,-0.0004754781548399478
1828.216,-0.00032916132477112114
1826.287,-0.0002494608052074909
1824.359,-0.00023969175526872277
1822.43,-6.666057015536353e-05
1820.502,-1.9349847207195126e-05
1818.573,-3.0946092010708526e-05
1816.645,-0.00010197459778282791
1814.716,-0.00012098865408916026
1812.788,-0.00022810108202975243
1810.859,-0.0002731042623054236
1808.931,-0.00018064233881887048
1807.002,-2.5379933504154906e-05
1805.074,1.573895315232221e-05
1803.145,-7.11329557816498e-05
1801.217,-0.000212469749385491
1799.288,-0.00014281735639087856
1797.36,-0.00017842327360995114
1795.431,-0.0002674749994184822
1793.503,-0.0004983150283806026
1791.574,-0.0006379247643053532
1789.646,-0.0003455830446910113
1787.717,-0.000150071267853491
1785.789,-0.00010131207818631083
1783.86,-9.339481766801327e-05
1781.932,-0.00014593092782888561
1780.003,-0.00024197674065362662
1778.075,-0.0001705405447864905
1776.146,-0.00011588740744628012
1774.218,-0.00037037997390143573
1772.289,-0.0007768282084725797
1770.361,-0.000564104993827641
1768.432,-0.00036273247678764164
1766.504,-0.00022816732234787196
1764.575,-3.3796588922996307e-06
1762.647,-0.0002319425984751433
1760.718,-0.000371869740774855
1758.79,-0.0003490262315608561
1756.861,-0.00040967477252706885
1754.933,-0.00012440049613360316
1753.004,-0.00016795709962025285
1751.076,-0.0006048050126992166
1749.147,-0.0005421319510787725
1747.219,-0.0003553827991709113
1745.29,-0.0002875413920264691
1743.362,-0.0003357168461661786
1741.433,-0.0004145408747717738
1739.505,-0.0005490151816047728
1737.576,-0.00025919650215655565
1735.648,-0.0006579741020686924
1733.719,-0.0012514240806922317
1731.791,-0.0005952756037004292
1729.862,-0.0002427052822895348
1727.934,-8.623934263596311e-05
1726.005,-2.7169062377652153e-05
1724.077,-0.00021074761752970517
1722.148,-0.0002435662754578516
1720.22,-0.00048193219117820263
1718.291,-0.0011608224594965577
1716.363,-0.0011283044004812837
1714.434,-0.0005751241696998477
1712.506,-0.00020683968614321202
1710.577,-1.9581775632104836e-05
1708.649,-5.907397280680016e-05
1706.72,-0.0004444313235580921
1704.792,-0.0007261215359903872
1702.863,-0.0006032829987816513
1700.935,-0.0013952837325632572
1699.006,-0.0013195775682106614
1697.078,-0.000918563746381551
1695.149,-0.001048320671543479
1693.221,-0.00043817536788992584
1691.292,-0.0003007860213983804
1689.364,-0.0004873269936069846
1687.435,-0.000631009868811816
1685.507,-0.001207546447403729
1683.578,-0.001320964889600873
1681.65,-0.0004746507038362324
1679.721,-0.00017805895186029375
1677.793,-0.00028072023997083306
1675.864,-0.0008403933607041836
1673.936,-0.0007853283314034343
1672.007,-0.0006580402259714901
1670.079,-0.001019860152155161
1668.15,-0.0007764974725432694
1666.222,-0.00024005603336263448
1664.293,-0.0003116463194601238
1662.365,-0.000510792073328048
1660.436,-0.0002937664103228599
1658.508,-0.0001351989631075412
1656.579,-0.0003350877668708563
1654.651,-0.0013697525719180703
1652.722,-0.002261826768517494
1650.794,-0.0010210501495748758
1648.865,-0.000560696586035192
1646.937,-0.0009755293722264469
1645.008,-0.000775009102653712
1643.08,-0.0002096878451993689
1641.151,-5.533032162929885e-05
1639.223,-0.00028181294328533113
1637.294,-0.0008420468657277524
1635.366,-0.001169645576737821
1633.437,-0.0005050665931776166
1631.509,-6.016724728397094e-05
1629.58,-0.00019644042185973376
1627.652,-0.0003909051010850817
1625.723,-0.0004637282982002944
1623.795,-0.0006250212900340557
1621.866,-0.00047604081919416785
1619.938,-0.00024538763682357967
1618.009,-0.0006609185365960002
1616.081,-0.0009450472425669432
1614.152,-0.00034233846236020327
1612.224,-9.82644414762035e-05
1610.295,-8.908829477149993e-05
1608.367,-0.00011187924246769398
1606.438,-0.00015709319268353283
1604.51,-0.00015338351659011096
1602.581,-0.00015209174307528883
1600.653,-0.00014897821529302746
1598.725,-0.000169116334291175
1596.796,-0.00018441803695168346
1594.868,-9.63762286119163e-05
1592.939,-0.00011605303006945178
1591.011,-9.064526966540143e-05
1589.082,-5.639047230943106e-05
1587.154,-1.4810662833042443e-05
1585.225,5.5768170568626374e-05
1583.297,3.909834049409255e-06
1581.368,-3.1012354156700894e-05
1579.44,-9.193722507916391e-05
1577.511,-0.0005605311598628759
1575.583,-0.0008240564493462443
1573.654,-0.00030038869590498507
1571.726,-0.00017173289961647242
1569.797,-0.0005725761875510216
1567.869,-0.0004312903620302677
1565.94,-0.00033578305738046765
1564.012,-0.00044423271901905537
1562.083,-0.0006843411247245967
1560.155,-0.0017873774049803615
1558.226,-0.002164677018299699
1556.298,-0.0010127860587090254
1554.369,-0.0005807163543067873
1552.441,-0.000354588235495612
1550.512,-0.0004145408747717738
1548.584,-0.0005277033196762204
1546.655,-0.0005143994349054992
1544.727,-0.0008394012693315744
1542.798,-0.0012345409486442804
1540.87,-0.001854127156548202
1538.941,-0.0016039690235629678
1537.013,-0.000586275418754667
1535.084,-0.0003439938591327518
1533.156,-0.000762804236728698
1531.227,-0.0005706569645553827
1529.299,-0.000503345625475049
1527.37,-0.0007278746925294399
1525.442,-0.0009547012741677463
1523.513,-0.001046866294927895
1521.585,-0.001358687411993742
1519.656,-0.0009036847040988505
1517.728,-0.0006568161770701408
1515.799,-0.0006251205340959132
1513.871,-0.0004945089458487928
1511.942,-0.0006052021053619683
1510.014,-0.0008979313424788415
1508.085,-0.0016568509163334966
1506.157,-0.00196905923075974
1504.228,-0.0007962426752783358
1502.3,-0.00016517490439582616
1500.371,-0.0003779611433856189
1498.443,-0.0007015102892182767
1496.514,-0.0007491105934605002
1494.586,-0.0005483202985487878
1492.657,-0.0005139029817655683
1490.729,-0.0007313479436561465
1488.8,-0.0007617127266712487
1486.872,-0.0005824039108119905
1484.943,-0.0003844828170258552
1483.015,-0.0003376371168997139
1481.086,-0.00025273917708545923
1479.158,-0.00021154244313947856
1477.229,-0.0004487343248911202
1475.301,-0.0005525891319848597
1473.372,-0.0008179382421076298
1471.444,-0.0006958865560591221
1469.515,-0.00015285355038940907
1467.587,-0.00018706762057263404
1465.658,-0.0006022242014296353
1463.73,-0.0004971235757693648
1461.801,-0.0003305849968455732
1459.873,-0.0007711723446846008
1457.944,-0.0013352681417018175
1456.016,-0.0011592693626880646
1454.087,-0.0003060837625525892
1452.159,-9.790005424292758e-05
1450.23,-0.00026479276129975915
1448.302,-0.00032485713018104434
1446.373,-0.00017160041898023337
1444.445,-7.308753993129358e-05
1442.516,-2.3657059500692412e-05
1440.588,-5.161976514500566e-05
1438.659,-0.00035799824399873614
1436.731,-0.0008251809049397707
1434.802,-0.00045459295506589115
1432.874,-3.0846695153741166e-05
1430.945,-0.0001660029374761507
1429.017,-0.0003449208743404597
1427.088,-0.0002925081644207239
1425.16,-0.0002946935419458896
1423.231,-0.00023737364972475916
1421.303,-0.0002352873416384682
1419.374,-0.0006495707202702761
1417.446,-0.0006253852625377476
1415.517,-0.0002838659274857491
1413.589,-9.929136285791174e-05
1411.66,-0.0001437448081560433
1409.732,-0.0001220155245391652
1407.803,-0.00014536782691720873
1405.875,-0.00029340217588469386
1403.946,-0.0003105205832980573
1402.018,-0.00025118276244029403
1400.089,-0.00036432157503440976
1398.161,-0.000316679070238024
1396.232,-0.00035604494041763246
1394.304,-0.0005504050641320646
1392.375,-0.0003150566772092134
1390.447,-0.0002456856600474566
1388.518,-0.00044949562288820744
1386.59,-0.0004486681136768311
1384.661,-0.0002909188042394817
1382.733,-0.00031648040749132633
1380.804,-0.000246712239459157
1378.876,-0.00011476114741526544
1376.947,-4.9797607061918825e-05
1375.019,-0.00016517490439582616
1373.09,-0.00017898633086588234
1371.162,-9.886072075460106e-05
1369.233,-0.00017918505182024091
1367.305,-0.00023243934265337884
1365.376,-0.0002363139356020838
1363.448,-0.00035587939782999456
1361.519,-0.0004351300885900855
1359.591,-0.00037054551648907363
1357.662,-0.00019885810615960509
1355.734,-9.3105654741521e-06
1353.805,-7.5274016126059e-05
1351.877,-7.500898936996236e-05
1349.948,-3.449116411502473e-05
1348.02,-6.931088137207553e-05
1346.091,-5.1357455959077924e-06
1344.163,-4.7312831156887114e-05
1342.234,-0.00018229834677185863
1340.306,-0.00016285640595015138
1338.377,-7.815616845618933e-05
1336.449,-8.681031431478914e-06
1334.52,3.1180250516626984e-05
1332.592,-6.825558557466138e-06
1330.663,-6.255256448639557e-05
1328.735,-5.108968252898194e-05
1326.806,-6.102861152612604e-05
1324.878,-0.00011128297774121165
1322.949,-0.00016663224960211664
1321.021,-0.00032263880711980164
1319.092,-0.0003039978037122637
1317.164,-0.00011817304039141163
1315.235,-9.793317440198734e-05
1313.307,-3.449116411502473e-05
1311.378,-4.208002792438492e-06
1309.45,-5.513154246727936e-05
1307.521,-4.4629257899941877e-05
1305.593,2.6209816496702842e-05
1303.664,2.319389068361488e-06
1301.736,-0.00010783790639834478
1299.807,-7.815616845618933e-05
1297.879,-0.00010373028635513037
1295.95,-0.00019849379896186292
1294.022,-0.00019408896332606673
1292.093,-0.00015311854076571763
1290.165,-0.00016169714217539877
1288.236,-2.77654380624881e-05
1286.308,7.790511153871194e-05
1284.379,1.2259767572686542e-05
1282.451,-0.00011486052244435996
1280.522,-0.000237936619669199
1278.594,-0.000255520804785192
1276.665,-0.00018345755233895034
1274.737,-0.00015984232595656067
1272.808,-0.00012334050552453846
1270.88,7.02829856891185e-05
1268.951,0.00015098492440301925
1267.023,0.00011366463149897754
1265.094,-0.00011005733540514484
1263.166,-0.00028836919227615
1261.237,-0.0002111119101755321
1259.309,-3.671096419566311e-05
1257.38,2.8761298381141387e-05
1255.452,4.208043264952721e-06
1253.523,-7.086792902555317e-05
1251.595,-0.00019140628864988685
1249.666,-0.0003319755778647959
1247.738,-0.0003642222727648914
1245.809,-0.0001637837995076552
1243.881,4.6224446123233065e-05
1241.952,-5.6423603382427245e-05
1240.024,-0.00010002014460042119
1238.095,-2.485045797584462e-06
1236.167,5.245435386314057e-05
1234.238,6.570976984221488e-05
1232.31,6.40196813037619e-05
1230.381,0.00011011837341357023
1228.453,0.00015416690439451486
1226.524,1.557327777845785e-05
1224.596,-2.531366772018373e-05
1222.667,-6.096620381867979e-06
1220.739,-0.0001228436449309811
1218.81,-0.00014990565250627697
1216.882,-7.60359616833739e-05
1214.953,-3.1145884804573143e-06
1213.025,-8.53780293255113e-05
1211.096,-0.000163220742251724
1209.168,-0.0001866039528977126
1207.239,-0.0001141980173997581
1205.311,1.9914014046662487e-05
1203.382,3.313403951210603e-08
1201.454,-7.325318438233808e-05
1199.525,-0.00010969294817186892
1197.597,-0.0001752768293954432
1195.669,-0.00022406083007808775
1193.74,-0.0002468446909915656
1191.812,-0.00015388034807983786
1189.883,3.992835263488814e-05
1187.955,3.237316195736639e-05
1186.026,-0.00014586467295885086
1184.098,-0.00020508440502453595
1182.169,-8.077327947830781e-05
1180.241,-7.133172766771168e-05
1178.312,-0.00024833486531861126
1176.384,-0.000276779814157635
1174.455,-4.7677265683887526e-05
1172.527,-2.915785671575577e-06
1170.598,-0.00011373426241334528
1168.67,-0.00026085221907123923
1166.741,-0.0003374384541530162
1164.813,-0.00018094042025040835
1162.884,9.277629942516796e-06
1160.956,-0.0001157880324171856
1159.027,-0.00014357919280882925
1157.099,-6.053167089703493e-05
1155.17,-0.0001499718928243965
1153.242,-0.0003312140761408955
1151.313,-0.0002951902279164642
1149.385,-0.0002352873416384682
1147.456,-0.00022091470600571483
1145.528,-0.000245122704654932
1143.599,-0.00013380777090787888
1141.671,-9.978825983125716e-05
1139.742,-0.00012221427459735423
1137.814,-5.648986189044081e-05
1135.885,-2.100647361658048e-05
1133.957,-0.00017302461492363364
1132.028,-0.00031244097044691443
1130.1,-0.0001302966265939176
1128.171,2.0742403648910113e-05
1126.243,-0.00011446302232798189
1124.314,-8.816072659101337e-05
1122.386,-0.00011671553511405364
1120.457,-0.00013380777090787888
1118.529,-5.4005126003175974e-05
1116.6,-0.00018405371520202607
1114.672,-0.0001356627035420388
1112.743,1.4943709174985997e-05
1110.815,-8.59743231558241e-05
1108.886,-0.00016368443903047591
1106.958,-0.00020362719078548253
1105.029,-0.00022442512272391468
1103.101,-0.00035031739389523864
1101.172,-0.0004765703924931586
1099.244,-0.00042086339090019464
1097.315,-0.00023810219136066735
1095.387,-0.00021154244313947856
1093.458,-0.00024936144473031163
1091.53,-0.000272971810773015
1089.601,-0.00046108037349767983
1087.673,-0.0004868967516813427
1085.744,-0.00046667407150380313
1083.816,-0.0005717158783227205
1081.887,-0.00023058481747284532
1079.959,-8.99827282410115e-05
1078.03,-0.0002020706160692498
1076.102,-0.0002704220823943615
1074.173,-0.00029721000464633107
1072.245,-0.00017630356887821108
1070.316,-0.00011045484279748052
1068.388,-0.0003525356005411595
1066.459,-0.0002886340953409672
1064.531,-8.309222175739706e-05
1062.602,-0.0002969120105262846
1060.674,-0.0003897133283317089
1058.745,-0.0001640818954911083
1056.817,-0.0001259573473362252
1054.888,-0.0001351989631075412
1052.96,-0.0001681889407336712
1051.031,6.494320132333087e-06
1049.103,-6.699185905745253e-05
1047.174,-0.00025711028138175607
1045.246,-0.00042188953375443816
1043.317,-0.0005676787695847452
1041.389,-0.00045836626668460667
1039.46,-0.0001411943230777979
1037.532,-8.252904808614403e-05
1035.603,-0.00043225029367022216
1033.675,-0.0005065889563411474
1031.746,-0.0002992298104800284
1029.818,-0.00021266845578793436
1027.889,-6.35133110336028e-05
1025.961,-0.00013635829964186996
1024.032,-0.00018226522661279887
1022.104,-0.0002975742390844971
1020.175,-0.0005496108788065612
1018.247,-0.0004685275780502707
1016.318,-0.00025644799461588264
1014.39,-0.00035246938932687044
1012.461,-0.00030052114743739367
1010.533,-0.00026598485419526696
1008.604,-0.00038613806827925146
1006.676,-0.0003616730682551861
1004.747,-0.0001736207923386246
1002.819,1.4479816854873206e-05
1000.89,-0.00026492521283216774
998.962,-0.0004426770319696516
997.033,-0.0002737334289122373
995.105,-3.922892938135192e-05
993.176,0.00013361699529923499
991.248,2.3061904357746243e-05
989.319,-0.0002862500259652734
987.391,-0.00021670880960300565
985.462,-8.872389298630878e-05
983.534,-0.00033803441328927875
981.605,-0.00037574308225885034
979.677,-0.00033081675064750016
977.748,-0.0003684598486870527
975.82,-0.00039689691038802266
973.891,-0.0003112490230705589
971.963,-0.0004461856442503631
970.034,-0.0006452365778386593
968.106,-0.0005671493709087372
966.177,-0.00013307904009707272
964.249,0.00013142947864253074
962.32,-0.00014281735639087856
960.392,-0.000396532763261348
958.463,-0.00016755964315962046
956.535,-2.359079553571064e-05
954.606,-0.0003344255965203047
952.678,-0.00040163073572330177
950.749,-0.00019736775720957667
948.821,-0.00016736092220526189
946.892,-0.00028078645118512213
944.964,-0.0005007641157135367
943.035,-0.00048514260561205447
941.107,-0.0003410472709219903
939.178,-0.00046720364480279386
937.25,-0.0006754751084372401
935.321,-0.0007030650740489364
933.393,-0.0005253205890767276
931.464,-0.00027290559955872595
929.536,-0.0001372857514070347
927.607,-9.866196342045441e-05
925.679,-0.00018975032435264438
923.75,-0.00026360066840425134
921.822,-0.0003287309082224965
919.893,-0.000498745299410075
917.965,-0.0006201575743034482
916.036,-0.0004582669644150883
914.108,-0.00024061898875515908
912.179,-0.0003064810880459845
910.251,-0.00068539974745363
908.322,-0.000621084007434547
906.394,-0.0005284313810989261
904.465,-0.0002720115298870951
902.537,-0.000278965278994292
900.608,-0.0005666860961355269
898.68,-0.0005477246013469994
896.751,-0.0007328364299610257
894.823,-0.0004957335186190903
892.894,-0.00028283943538554013
890.966,-0.0002830050070770085
889.037,-0.00038696566480211914
887.109,-0.0006712074391543865
885.18,-0.0006084777996875346
883.252,-0.0006631020805798471
881.323,-0.0005135720130056143
879.395,-0.00031648040749132633
877.466,-0.00048798893112689257
875.538,-0.0005328328115865588
873.609,-0.0004814357089344412
871.681,-0.0008090087794698775
869.752,-0.0010794566478580236
867.824,-0.0009555277647450566
865.895,-0.000679345743265003
863.967,-0.0005646675126627088
862.038,-0.0004216909292154014
860.11,-0.0005014922353439033
858.181,-0.0003434641403146088
856.253,-0.00036577825085259974
854.324,-0.00041377951856702566
852.396,-0.00019746710313484073
850.467,-6.709124863846228e-05
848.539,-0.00028280631522648036
846.61,-0.00025618309155106544
844.682,-0.0004035176243633032
842.753,-0.00047438591718673706
840.825,-0.00010472407302586362
838.896,-6.726158062519971e-06
836.968,-0.00012102178152417764
835.039,-0.00012761357356794178
833.111,-0.0005576522089540958
831.182,-0.0008111254428513348
829.254,-0.0007992854225449264
827.325,-0.0007090194849297404
825.397,-0.0005774404853582382
823.468,-0.0005136713152751327
821.54,-0.0008424436673521996
819.611,-0.0006803051219321787
817.683,-0.0006360058323480189
815.754,-0.0008417823119089007
813.826,-0.0007389889215119183
811.897,-0.0003839200362563133
809.969,-0.0003905078337993473
808.04,-0.000593224132899195
806.112,-0.0007845014915801585
804.183,-0.0008192280656658113
802.255,-0.00039034232031553984
800.326,0.00018860676209442317
798.398,5.285201041260734e-05
796.47,-0.0003256186319049448
794.541,-0.0006300173117779195
792.613,-0.0005603326135315001
790.684,-0.0005927939782850444
788.756,-0.0005256183794699609
786.827,-0.0004638275713659823
784.899,-0.0006904612528160214
782.97,-0.0012716102646663785
781.042,-0.0005198269500397146
779.113,9.04653497855179e-05
777.185,-0.0002398904471192509
775.256,-0.00011124985758215189
773.328,-0.0002723757643252611
771.399,-0.0007218212704174221
769.471,-0.0006338552921079099
767.542,-0.0004248025070410222
765.614,-0.00045906135346740484
763.685,-0.0008175744442269206
761.757,-0.0006827862816862762
759.828,-0.00040285554132424295
757.9,-8.743193029658869e-05
755.971,-0.00011972991342190653
754.043,-0.00017862200911622494
752.114,-0.00024217543250415474
750.186,-0.00045085270539857447
748.257,-0.00041563325794413686
746.329,-0.00023889697331469506
744.4,-0.0003406830655876547
742.472,-0.0006244257092475891
740.543,-0.0012084715999662876
738.615,-0.0009348309831693769
736.686,-0.0008095710654743016
734.758,-0.0008199225412681699
732.829,-0.0002841308305505663
730.901,0.00017889439186546952
728.972,3.446076880209148e-05
727.044,0.00010521331569179893
725.115,-0.0003986183146480471
723.187,-0.00091297592734918
721.258,-0.0009765211725607514
719.33,-0.0008135727839544415
717.401,-0.00020922419207636267
715.473,0.00015241018263623118
713.544,-0.0001031671417877078
711.616,-0.0001234067603945732
709.687,1.8157832528231665e-05
707.759,-0.00017789335106499493
705.83,-0.00019846067880280316
703.902,2.683865432118182e-06
701.973,-5.8643290685722604e-05
700.045,-0.0002439305535517633
698.116,-0.0005357781192287803
696.188,-0.0005158555577509105
694.259,-0.0004045769164804369
692.331,-0.00034803300513885915
690.402,-0.0002399566728854552
688.474,-0.00048110474017448723
686.545,-0.0007635980728082359
684.617,-0.0008482970297336578
682.688,-0.0007593974005430937
680.76,-0.000325055792927742
678.831,0.0001943746319739148
676.903,0.00016566865087952465
674.974,-0.00035667396150529385
673.046,-0.0005403118557296693
671.117,-0.00046958672464825213
669.189,-0.00024363251577597111
667.26,-0.0004766696656588465
665.332,-0.0003627655969467014
663.403,-0.0003252213355153799
661.475,-0.000503345625475049
659.546,-3.8500045775435865e-05
657.618,-0.00020011661399621516
655.689,-0.0005363406962715089
653.761,-8.18333646748215e-05
651.832,0.00014339465997181833
649.904,-0.0003389283374417573
647.975,-0.000756056688260287
646.047,-0.0005888232844881713
644.118,-0.0004496611072681844
642.19,-5.1454113418003544e-05
640.261,9.278522338718176e-05
638.333,-0.000514763465616852
636.404,-0.0011016007047146559
634.476,-0.0009783725254237652
632.547,-0.001108276774175465
630.619,-0.0010152983013540506
628.69,-0.0011408955324441195
626.762,-0.0010668967152014375
624.833,-0.001015199231915176
622.905,-0.001301871263422072
620.976,-0.0017021683743223548
619.048,-0.0017501871334388852
617.119,-0.0015326904831454158
615.191,-0.001003430807031691
613.262,-0.0006632013246417046
611.334,-0.00013334403047338128
609.405,-8.723316568648443e-05
607.477,-0.0007059430354274809
605.548,-0.00120073975995183
603.62,-0.0014945538714528084
601.691,-0.0015924808103591204
599.763,-0.0012934141559526324
597.834,-0.00135389796923846
595.906,-0.0007341264863498509
593.977,-0.00033985538175329566
592.049,-0.0015230823773890734
590.12,-0.002718142466619611
588.192,-0.002414841903373599
586.263,-0.002290140138939023
584.335,-0.0009025274193845689
582.406,-0.00021833156642969698
580.478,0.0003521256148815155
578.549,0.00011439376976341009
576.621,-0.0008966086897999048
574.692,-0.0016673802165314555
572.764,-0.0018875476671382785
570.835,-0.0019966328982263803
568.907,-0.002390853362157941
566.978,-0.0028366646729409695
565.05,-0.0014675755519419909
563.121,0.0001120074957725592
561.193,-0.0003629642305895686
559.264,-0.001133096287958324
557.336,-0.0020514787174761295
555.407,-0.0016068740515038371
553.479,0.0001880763884400949
551.55,0.0007249147747643292
549.622,-0.0013810485834255815
547.693,-0.002724431687965989
545.765,-0.0014180393191054463
543.836,-0.0013651613844558597
541.908,-0.0013585552806034684
539.979,-0.002569022122770548
538.051,-0.0024567197542637587
536.122,-0.0018488812493160367
534.194,-0.0020956997759640217
532.265,-0.0019236046355217695
530.337,-0.0013992140302434564
528.408,-0.000989314983598888
526.48,-0.0006880132132209837
524.551,-0.0016105714021250606
522.623,-0.0016121228691190481
520.694,-0.0021914143580943346
518.766,-0.003548105014488101
516.837,-0.002648363821208477
514.909,-0.0007800695020705462
512.98,-0.0009548004600219429
511.052,-0.000824916351120919
509.123,-0.0005215478013269603
507.195,7.4883573688566685e-06
505.266,-0.0005134396487846971
503.338,-0.001498483237810433
501.409,-0.001975622959434986
499.481,-0.0003210164431948215
497.552,0.00046502004261128604
495.624,0.0002843499823939055
493.695,-0.0018806855659931898
491.767,-0.002681558718904853
489.838,-0.0027178791351616383
487.91,-0.0016453639836981893
485.981,0.00018721453670877963
484.053,-0.0014998700935393572
482.124,-0.005328791681677103
480.196,-0.0052655525505542755
478.267,-0.0008940626285038888
476.339,0.0005812284653075039
474.41,-0.0016765891341492534
472.482,-0.0022316984832286835
470.553,-0.001751375151798129
468.625,-0.0015191201819106936
466.696,-0.000847867107950151
464.768,-0.003101181471720338
462.839,-0.004939785227179527
460.911,-0.003322464879602194
458.982,-0.0019113330636173487
457.054,-0.0038834556471556425
455.125,-0.004741808399558067
453.197,-0.0024750379379838705
451.268,0.0006340849213302135
449.34,0.000963545695412904
447.411,-0.0010479571064934134
445.483,-0.001252778572961688
443.554,-0.0019702136050909758
441.626,-0.0037216930650174618
439.697,-0.005729842931032181
437.769,-0.007564245723187923
435.84,-0.005174409598112106
433.912,-0.00013085974205750972
431.983,-0.0028269535396248102
430.055,-0.008032071404159069
428.126,-0.006841584108769894
426.198,-0.002551630139350891
424.269,-0.0061273882165551186
422.341,-0.01202406920492649
420.412,-0.01087515614926815
418.484,-0.009826024062931538
416.555,-0.006745192687958479
414.627,-0.007856455631554127
412.698,-0.004880192223936319
410.77,0.00300028920173645
408.841,-0.00536233838647604
406.913,-0.018254967406392097
404.984,-0.017010623589158058
403.056,-0.007872269488871098
401.127,-0.011746260337531567
399.199,-0.023677561432123184
