3.991989e+002,-1.496106e-003
4.011274e+002,-4.927205e-003
4.030559e+002,-1.101102e-002
4.049844e+002,-1.282445e-002
4.069129e+002,-1.034694e-002
4.088414e+002,-5.368556e-003
4.107699e+002,-4.294472e-003
4.126984e+002,-7.324556e-003
4.146269e+002,-7.411373e-003
4.165554e+002,-3.372968e-003
4.184839e+002,2.324599e-003
4.204124e+002,5.332325e-003
4.223409e+002,5.264909e-003
4.242694e+002,5.839394e-003
4.261979e+002,-2.860991e-003
4.281264e+002,-2.805029e-003
4.300549e+002,9.410903e-003
4.319834e+002,9.077815e-003
4.339119e+002,2.092577e-003
4.358404e+002,4.772412e-003
4.377689e+002,4.003494e-003
4.396974e+002,1.487310e-004
4.416259e+002,-4.771796e-003
4.435544e+002,-5.161476e-003
4.454829e+002,-1.081142e-003
4.474114e+002,7.937454e-003
4.493399e+002,5.395727e-003
4.512684e+002,-2.261662e-003
4.531969e+002,-7.025728e-003
4.551254e+002,-4.219827e-003
4.570539e+002,-4.250342e-004
4.589824e+002,-3.663411e-004
4.609109e+002,-2.730589e-003
4.628394e+002,-2.475565e-003
4.647679e+002,-2.383077e-003
4.666964e+002,-2.223589e-003
4.686249e+002,-1.589180e-003
4.705533e+002,-3.667052e-004
4.724819e+002,5.367748e-006
4.744103e+002,8.838215e-004
4.763389e+002,3.754715e-004
4.782673e+002,-5.697304e-004
4.801959e+002,-1.564221e-003
4.821243e+002,-2.122112e-003
4.840529e+002,-2.773720e-003
4.859813e+002,-3.525362e-003
4.879099e+002,-1.064715e-003
4.898383e+002,-2.723533e-005
4.917668e+002,-2.599292e-003
4.936953e+002,-2.779317e-003
4.956238e+002,-9.929514e-004
4.975523e+002,-5.879960e-004
4.994808e+002,-3.998574e-003
5.014093e+002,-4.067250e-003
5.033378e+002,1.294408e-004
5.052663e+002,6.164595e-003
5.071948e+002,3.366911e-003
5.091233e+002,-2.046928e-003
5.110518e+002,-2.267133e-003
5.129803e+002,-5.922315e-004
5.149088e+002,-5.573212e-004
5.168373e+002,-4.991093e-004
5.187658e+002,4.012729e-004
5.206943e+002,-7.564536e-004
5.226228e+002,-1.119216e-003
5.245513e+002,-8.809448e-005
5.264798e+002,-6.959858e-004
5.284083e+002,-7.678648e-004
5.303368e+002,-5.464340e-004
5.322653e+002,-1.341908e-005
5.341938e+002,1.014323e-003
5.361223e+002,-6.924959e-006
5.380508e+002,-6.291902e-004
5.399792e+002,-4.584656e-004
5.419078e+002,-3.797488e-004
5.438363e+002,-2.098866e-004
5.457648e+002,-8.756776e-004
5.476932e+002,-6.973752e-004
5.496218e+002,-8.621859e-004
5.515503e+002,-2.451889e-004
5.534788e+002,-3.012496e-004
5.554072e+002,-9.092065e-004
5.573358e+002,-1.400898e-003
5.592643e+002,-1.832274e-005
5.611927e+002,1.595515e-003
5.631212e+002,1.879680e-003
5.650497e+002,6.931205e-004
5.669783e+002,5.800672e-004
5.689067e+002,1.676368e-003
5.708352e+002,4.249199e-004
5.727637e+002,-1.980669e-003
5.746923e+002,-2.592177e-003
5.766207e+002,-4.056680e-003
5.785492e+002,-5.451806e-003
5.804777e+002,-7.963857e-003
5.824063e+002,-6.119057e-003
5.843347e+002,-2.623565e-003
5.862632e+002,-1.687217e-003
5.881917e+002,-6.406047e-004
5.901202e+002,8.638903e-005
5.920487e+002,8.585558e-004
5.939772e+002,-1.900815e-004
5.959057e+002,-3.665397e-004
5.978342e+002,-3.111175e-005
5.997627e+002,-7.036274e-004
6.016912e+002,-1.722664e-003
6.036197e+002,-1.957877e-003
6.055482e+002,-7.263200e-004
6.074767e+002,2.443329e-004
6.094052e+002,-1.667647e-004
6.113337e+002,-4.774971e-004
6.132622e+002,-1.705238e-003
6.151907e+002,-1.456810e-003
6.171192e+002,-9.139348e-004
6.190477e+002,-8.893672e-004
6.209762e+002,-7.397166e-004
6.229047e+002,4.125384e-005
6.248332e+002,9.556091e-004
6.267617e+002,8.990612e-004
6.286902e+002,3.017571e-004
6.306187e+002,-8.660374e-005
6.325472e+002,-9.435549e-005
6.344756e+002,-8.070702e-005
6.364042e+002,-5.677781e-004
6.383326e+002,-7.142792e-004
6.402612e+002,-6.281976e-004
6.421896e+002,-4.340046e-004
6.441182e+002,-5.161203e-004
6.460466e+002,-5.187017e-004
6.479752e+002,4.420306e-005
6.499036e+002,2.190049e-004
6.518322e+002,1.184704e-004
6.537606e+002,9.277541e-007
6.556891e+002,-4.360569e-004
6.576177e+002,-5.270414e-004
6.595461e+002,-5.368371e-004
6.614746e+002,-7.029658e-004
6.634031e+002,-9.837281e-004
6.653317e+002,-5.596707e-004
6.672601e+002,-1.114523e-003
6.691886e+002,-1.032620e-003
6.711171e+002,-3.598191e-004
6.730457e+002,-5.492800e-004
6.749741e+002,-7.033297e-004
6.769026e+002,-3.860056e-004
6.788311e+002,-2.513815e-004
6.807596e+002,-2.204511e-004
6.826881e+002,-3.017131e-004
6.846166e+002,-5.320386e-004
6.865451e+002,-2.280349e-004
6.884736e+002,3.209886e-004
6.904021e+002,1.165149e-004
6.923306e+002,-3.960693e-004
6.942591e+002,-3.340614e-004
6.961876e+002,-2.929717e-004
6.981161e+002,-5.291594e-004
7.000446e+002,-4.582008e-004
7.019731e+002,-4.092114e-004
7.039016e+002,-2.924088e-004
7.058301e+002,-2.768791e-004
7.077585e+002,-4.811710e-004
7.096871e+002,-9.975513e-005
7.116156e+002,4.262798e-004
7.135441e+002,3.310689e-004
7.154725e+002,-1.756743e-004
7.174011e+002,-6.331274e-004
7.193296e+002,-3.235659e-004
7.212581e+002,-2.854222e-004
7.231865e+002,-3.129376e-004
7.251151e+002,1.318755e-005
7.270436e+002,-1.854116e-004
7.289720e+002,-3.647188e-004
7.309005e+002,-4.390691e-004
7.328290e+002,-8.057677e-004
7.347576e+002,-4.703480e-004
7.366860e+002,2.207951e-004
7.386145e+002,2.038885e-004
7.405430e+002,-4.484364e-004
7.424716e+002,-5.640057e-004
7.444000e+002,-2.812832e-004
7.463285e+002,-2.004147e-004
7.482570e+002,-3.508802e-004
7.501855e+002,-2.996933e-004
7.521140e+002,3.518978e-005
7.540425e+002,-1.061154e-004
7.559710e+002,-5.690686e-004
7.578995e+002,-8.670800e-004
7.598280e+002,-9.374099e-004
7.617565e+002,-5.261148e-004
7.636850e+002,-8.413193e-004
7.656135e+002,-8.382107e-004
7.675420e+002,-6.924959e-006
7.694705e+002,3.373361e-004
7.713990e+002,-1.547332e-005
7.733275e+002,-2.800911e-004
7.752560e+002,-2.662829e-004
7.771844e+002,-4.363217e-004
7.791130e+002,-5.284645e-004
7.810415e+002,-4.577705e-004
7.829700e+002,-1.209887e-004
7.848984e+002,4.402763e-004
7.868270e+002,4.739428e-004
7.887555e+002,4.804702e-005
7.906840e+002,-1.646450e-004
7.926124e+002,-3.357831e-004
7.945410e+002,-4.227833e-004
7.964695e+002,-6.679309e-005
7.983979e+002,4.045230e-004
8.003264e+002,1.598017e-004
8.022549e+002,-2.954551e-004
8.041835e+002,-1.777940e-004
8.061119e+002,1.299380e-004
8.080404e+002,2.479134e-004
8.099689e+002,-1.924992e-004
8.118975e+002,-5.669508e-004
8.138259e+002,-3.178048e-004
8.157545e+002,1.296066e-004
8.176830e+002,-9.697251e-005
8.196115e+002,-3.713069e-004
8.215399e+002,-2.041240e-004
8.234684e+002,1.438587e-004
8.253970e+002,-7.888499e-005
8.273254e+002,-3.301215e-004
8.292539e+002,-4.197048e-004
8.311824e+002,-6.108270e-004
8.331110e+002,-6.065587e-004
8.350394e+002,-1.584843e-004
8.369679e+002,5.211797e-004
8.388964e+002,4.412713e-004
8.408250e+002,-1.414800e-005
8.427534e+002,-1.794500e-004
8.446819e+002,1.518799e-004
8.466104e+002,2.718505e-004
8.485389e+002,3.645943e-004
8.504674e+002,2.540467e-004
8.523959e+002,3.479213e-005
8.543244e+002,-1.994874e-004
8.562529e+002,-2.183316e-004
8.581814e+002,-2.740099e-005
8.601099e+002,3.553754e-004
8.620384e+002,3.698671e-004
8.639669e+002,-1.842214e-005
8.658954e+002,-2.668458e-004
8.678239e+002,-5.228237e-005
8.697524e+002,1.954685e-004
8.716809e+002,-2.982063e-007
8.736094e+002,-1.438442e-004
8.755378e+002,1.666631e-004
8.774664e+002,1.479355e-004
8.793949e+002,2.243232e-005
8.813234e+002,-8.087266e-005
8.832518e+002,-1.378820e-004
8.851804e+002,-2.186296e-004
8.871089e+002,-4.076555e-004
8.890374e+002,-2.772434e-004
8.909658e+002,-2.507523e-004
8.928943e+002,1.282145e-004
8.948229e+002,4.428634e-004
8.967513e+002,3.311021e-004
8.986798e+002,1.427980e-004
9.006083e+002,-7.779176e-005
9.025369e+002,-8.753131e-005
9.044653e+002,-4.731283e-005
9.063938e+002,-9.259977e-005
9.083223e+002,-3.843531e-006
9.102509e+002,5.086373e-005
9.121793e+002,-1.398234e-005
9.141078e+002,-4.767727e-005
9.160364e+002,-1.868027e-004
9.179648e+002,-1.324497e-004
9.198933e+002,9.807786e-006
9.218218e+002,-2.485998e-004
9.237504e+002,-4.363879e-004
9.256788e+002,-5.490483e-004
9.276073e+002,-5.027830e-004
9.295358e+002,-9.312980e-005
9.314644e+002,9.891637e-005
9.333928e+002,-1.709683e-005
9.353213e+002,-1.063804e-004
9.372498e+002,7.545276e-005
9.391783e+002,-9.839695e-005
9.411068e+002,-3.368094e-004
9.430353e+002,-9.130781e-005
9.449637e+002,-2.284654e-004
9.468923e+002,-2.169738e-004
9.488208e+002,-1.023830e-005
9.507493e+002,-7.361759e-005
9.526777e+002,-2.561186e-005
9.546063e+002,-1.285582e-005
9.565348e+002,1.338636e-005
9.584633e+002,4.224795e-005
9.603917e+002,-5.715246e-005
9.623203e+002,-1.266530e-004
9.642488e+002,-1.438110e-004
9.661772e+002,-1.506344e-004
9.681057e+002,-8.832636e-005
9.700343e+002,-2.141256e-004
9.719628e+002,-2.826739e-004
9.738912e+002,-2.989318e-004
9.758197e+002,-3.683605e-004
9.777483e+002,-4.302311e-004
9.796768e+002,-1.986594e-004
9.816052e+002,-2.478355e-005
9.835337e+002,-2.397580e-004
9.854623e+002,-2.197556e-004
9.873907e+002,-2.346250e-004
9.893192e+002,-4.437031e-004
9.912477e+002,-3.021436e-004
9.931763e+002,-1.089311e-004
9.951047e+002,-1.310585e-004
9.970332e+002,-2.448537e-005
9.989617e+002,1.294740e-004
1.000890e+003,1.224807e-004
1.002819e+003,1.185698e-004
1.004747e+003,1.399807e-004
1.006676e+003,-5.993534e-005
1.008604e+003,-1.873326e-004
1.010533e+003,-2.696936e-004
1.012461e+003,-1.199287e-004
1.014390e+003,-2.541306e-005
1.016318e+003,-8.156835e-005
1.018247e+003,1.225977e-005
1.020175e+003,-9.236788e-005
1.022104e+003,-2.854884e-004
1.024032e+003,-3.483310e-004
1.025961e+003,-4.403931e-004
1.027889e+003,-2.936671e-004
1.029818e+003,-2.592958e-004
1.031746e+003,-3.034349e-004
1.033675e+003,-3.539261e-004
1.035603e+003,-1.249135e-005
1.037532e+003,2.606775e-004
1.039460e+003,1.768392e-004
1.041389e+003,1.234750e-004
1.043317e+003,-1.191005e-004
1.045246e+003,-2.786010e-004
1.047174e+003,-1.491438e-004
1.049103e+003,-2.422748e-004
1.051031e+003,-2.786010e-004
1.052960e+003,-7.076854e-005
1.054888e+003,-1.146949e-004
1.056817e+003,-3.490593e-004
1.058745e+003,-3.068453e-004
1.060674e+003,-2.939651e-004
1.062602e+003,-1.458647e-004
1.064531e+003,-2.551314e-006
1.066459e+003,-1.078710e-004
1.068388e+003,-2.538651e-004
1.070316e+003,-2.955213e-004
1.072245e+003,-2.330686e-004
1.074173e+003,-2.115424e-004
1.076102e+003,-2.552559e-004
1.078030e+003,-4.643903e-004
1.079959e+003,-5.029485e-004
1.081887e+003,-3.399547e-004
1.083816e+003,-2.273063e-004
1.085744e+003,-2.842808e-005
1.087673e+003,6.776440e-005
1.089601e+003,-1.206243e-004
1.091530e+003,-1.342384e-004
1.093458e+003,5.470774e-005
1.095387e+003,-1.709683e-005
1.097315e+003,-1.009477e-004
1.099244e+003,-1.306610e-004
1.101172e+003,-4.933378e-005
1.103101e+003,-1.922343e-004
1.105029e+003,-3.687247e-004
1.106958e+003,-2.921440e-004
1.108886e+003,-3.073751e-004
1.110815e+003,-1.853454e-004
1.112743e+003,8.605763e-005
1.114672e+003,9.792212e-005
1.116600e+003,-6.735628e-005
1.118529e+003,-1.641481e-004
1.120457e+003,-1.366564e-004
1.122386e+003,-7.997821e-005
1.124314e+003,-3.495501e-005
1.126243e+003,-2.614814e-004
1.128171e+003,-3.690226e-004
1.130100e+003,-2.640643e-004
1.132028e+003,-3.809737e-004
1.133957e+003,-3.769018e-004
1.135885e+003,-1.758730e-004
1.137814e+003,-1.162518e-004
1.139742e+003,-1.903796e-004
1.141671e+003,-1.781252e-004
1.143599e+003,-2.395525e-005
1.145528e+003,-1.451247e-005
1.147456e+003,-6.377835e-005
1.149385e+003,-1.801787e-004
1.151313e+003,-2.911175e-004
1.153242e+003,-2.502887e-004
1.155170e+003,-2.516795e-004
1.157099e+003,-2.517457e-004
1.159027e+003,-2.846606e-004
1.160956e+003,-2.290946e-004
1.162884e+003,-1.888230e-004
1.164813e+003,-2.027992e-004
1.166741e+003,-2.256173e-004
1.168670e+003,-1.808411e-004
1.170598e+003,-1.404325e-004
1.172526e+003,-2.002160e-004
1.174455e+003,-2.350886e-004
1.176384e+003,-2.639981e-004
1.178312e+003,-1.753099e-004
1.180240e+003,-5.099029e-005
1.182169e+003,-1.102230e-004
1.184098e+003,-4.757788e-005
1.186026e+003,6.561035e-005
1.187954e+003,1.487744e-005
1.189883e+003,-1.927973e-004
1.191812e+003,-1.721635e-004
1.193740e+003,2.912580e-005
1.195668e+003,3.015302e-005
1.197597e+003,-9.452113e-005
1.199526e+003,-2.697027e-005
1.201454e+003,1.898622e-005
1.203382e+003,-2.862687e-005
1.205311e+003,-8.256218e-005
1.207240e+003,-1.137674e-004
1.209168e+003,9.874056e-006
1.211096e+003,6.626809e-008
1.213025e+003,-3.681036e-005
1.214953e+003,-8.623934e-005
1.216882e+003,-1.104548e-004
1.218810e+003,-9.756879e-005
1.220739e+003,-1.555365e-004
1.222667e+003,-5.403826e-005
1.224596e+003,-6.626803e-007
1.226524e+003,-6.096620e-006
1.228453e+003,-2.339200e-005
1.230381e+003,3.674721e-005
1.232310e+003,-1.169616e-005
1.234238e+003,-8.501363e-005
1.236167e+003,3.532232e-005
1.238095e+003,4.006090e-005
1.240024e+003,1.050362e-005
1.241952e+003,1.259608e-004
1.243881e+003,1.092898e-004
1.245809e+003,1.003973e-005
1.247738e+003,1.557303e-006
1.249666e+003,9.277630e-006
1.251595e+003,-4.979761e-005
1.253523e+003,1.388338e-005
1.255452e+003,1.672597e-004
1.257380e+003,2.603128e-004
1.259309e+003,2.347187e-004
1.261237e+003,2.313372e-004
1.263166e+003,1.528742e-004
1.265094e+003,-2.769917e-005
1.267023e+003,-3.323217e-005
1.268951e+003,8.065574e-005
1.270880e+003,-1.567212e-005
1.272808e+003,-5.592666e-005
1.274737e+003,1.265905e-004
1.276665e+003,2.866709e-004
1.278594e+003,2.112146e-004
1.280522e+003,5.517168e-005
1.282451e+003,1.577209e-005
1.284379e+003,-4.217758e-005
1.286308e+003,8.201449e-005
1.288236e+003,-3.578461e-006
1.290165e+003,-9.922512e-005
1.292093e+003,-1.434467e-004
1.294022e+003,-3.070440e-004
1.295950e+003,-2.133639e-004
1.297879e+003,-1.778602e-004
1.299807e+003,-1.286735e-004
1.301736e+003,-1.591136e-004
1.303664e+003,-1.322178e-004
1.305593e+003,7.081321e-005
1.307521e+003,2.373377e-004
1.309450e+003,1.374949e-004
1.311378e+003,-8.946182e-007
1.313307e+003,5.377988e-005
1.315235e+003,2.170159e-004
1.317164e+003,3.009613e-004
1.319092e+003,2.007061e-004
1.321021e+003,3.750935e-005
1.322949e+003,5.921457e-005
1.324878e+003,3.724426e-005
1.326806e+003,5.126138e-005
1.328735e+003,3.132296e-004
1.330663e+003,2.913791e-004
1.332592e+003,1.554927e-004
1.334520e+003,2.011371e-004
1.336449e+003,1.837340e-004
1.338377e+003,-2.299441e-005
1.340306e+003,-1.471233e-004
1.342234e+003,-3.449116e-005
1.344163e+003,4.751681e-005
1.346091e+003,3.787386e-005
1.348020e+003,1.146258e-004
1.349948e+003,2.557044e-004
1.351877e+003,1.388870e-004
1.353805e+003,5.096314e-005
1.355734e+003,9.619877e-005
1.357662e+003,-4.373473e-005
1.359591e+003,-9.028088e-005
1.361519e+003,-1.829607e-004
1.363448e+003,-1.222143e-004
1.365376e+003,3.532232e-005
1.367305e+003,-4.168062e-005
1.369233e+003,-7.765924e-005
1.371162e+003,-1.084011e-004
1.373090e+003,-1.890879e-004
1.375019e+003,-1.436454e-004
1.376947e+003,-7.832181e-005
1.378876e+003,1.607031e-005
1.380804e+003,1.483664e-004
1.382733e+003,9.616563e-005
1.384661e+003,2.856248e-005
1.386590e+003,-6.619676e-005
1.388518e+003,-2.796423e-005
1.390447e+003,1.025288e-004
1.392375e+003,-4.134931e-005
1.394304e+003,-1.606704e-004
1.396232e+003,-8.014384e-005
1.398161e+003,-1.240361e-004
1.400089e+003,-7.885185e-005
1.402018e+003,-5.393887e-005
1.403946e+003,-8.888953e-005
1.405875e+003,-2.408778e-005
1.407803e+003,5.924770e-005
1.409732e+003,2.809858e-005
1.411660e+003,1.424766e-006
1.413589e+003,-9.277432e-006
1.415517e+003,-1.154899e-004
1.417446e+003,-3.356506e-004
1.419374e+003,-4.666741e-004
1.421303e+003,-1.717991e-004
1.423231e+003,-1.268848e-004
1.425160e+003,6.968647e-005
1.427088e+003,2.048498e-004
1.429017e+003,9.642113e-006
1.430945e+003,-7.351821e-005
1.432874e+003,-1.446722e-004
1.434802e+003,-4.024914e-004
1.436731e+003,-5.737675e-004
1.438659e+003,-1.418899e-004
1.440588e+003,-1.905165e-005
1.442516e+003,-7.428016e-005
1.444445e+003,-1.338740e-004
1.446373e+003,-2.090917e-004
1.448302e+003,-2.786010e-004
1.450230e+003,-1.775290e-004
1.452159e+003,-7.792427e-005
1.454087e+003,-1.572919e-004
1.456016e+003,-8.258423e-004
1.457944e+003,-8.510748e-004
1.459873e+003,-2.617463e-004
1.461801e+003,-9.127468e-005
1.463730e+003,-4.117934e-004
1.465658e+003,-3.809406e-004
1.467587e+003,-8.991647e-005
1.469515e+003,-7.934878e-005
1.471444e+003,-4.552880e-004
1.473372e+003,-5.774074e-004
1.475301e+003,-2.748593e-004
1.477229e+003,-6.384460e-005
1.479158e+003,6.123602e-005
1.481086e+003,-4.903810e-006
1.483015e+003,-7.494273e-005
1.484943e+003,-1.186037e-004
1.486872e+003,-2.104164e-004
1.488800e+003,-3.735250e-004
1.490729e+003,-3.238638e-004
1.492657e+003,-7.325318e-005
1.494586e+003,-1.336422e-004
1.496514e+003,-4.357590e-004
1.498443e+003,-3.992804e-004
1.500371e+003,-1.330790e-004
1.502300e+003,-3.720793e-005
1.504228e+003,-4.539641e-004
1.506157e+003,-1.156394e-003
1.508085e+003,-8.032873e-004
1.510014e+003,-2.763825e-004
1.511942e+003,-1.605710e-004
1.513871e+003,-1.801455e-004
1.515799e+003,-4.825941e-004
1.517728e+003,-5.373335e-004
1.519656e+003,-6.825878e-004
1.521585e+003,-8.851347e-004
1.523513e+003,-4.135809e-004
1.525442e+003,-2.586667e-004
1.527370e+003,-2.686009e-004
1.529299e+003,-1.660029e-004
1.531227e+003,-2.627728e-004
1.533156e+003,-5.575529e-004
1.535084e+003,-2.753228e-004
1.537013e+003,-2.874421e-004
1.538941e+003,-9.823396e-004
1.540870e+003,-1.281290e-003
1.542798e+003,-9.910672e-004
1.544727e+003,-6.465600e-004
1.546655e+003,-2.862500e-004
1.548584e+003,-2.150529e-004
1.550512e+003,-2.524742e-004
1.552441e+003,-3.954734e-004
1.554369e+003,-6.107939e-004
1.556298e+003,-7.774897e-004
1.558226e+003,-1.524073e-003
1.560155e+003,-1.282678e-003
1.562083e+003,-4.018293e-004
1.564012e+003,-1.627902e-004
1.565940e+003,-9.369296e-005
1.567869e+003,-3.084015e-004
1.569797e+003,-5.150282e-004
1.571726e+003,-1.795163e-004
1.573654e+003,-2.073365e-004
1.575583e+003,-6.850358e-004
1.577511e+003,-5.564940e-004
1.579440e+003,-2.168744e-004
1.581368e+003,-6.997345e-005
1.583297e+003,-1.040616e-004
1.585225e+003,-9.349419e-005
1.587154e+003,2.475183e-005
1.589082e+003,4.536287e-005
1.591010e+003,-4.906874e-005
1.592939e+003,-1.209887e-004
1.594868e+003,-8.401980e-005
1.596796e+003,5.126138e-005
1.598724e+003,1.450519e-004
1.600653e+003,3.366549e-005
1.602582e+003,-1.065791e-004
1.604510e+003,-1.634195e-004
1.606438e+003,-1.246986e-004
1.608367e+003,-1.094942e-004
1.610296e+003,7.462427e-005
1.612224e+003,1.130681e-004
1.614152e+003,-6.003473e-005
1.616081e+003,-4.115616e-004
1.618010e+003,-3.054547e-004
1.619938e+003,-1.220487e-004
1.621866e+003,-3.788550e-004
1.623795e+003,-5.097661e-004
1.625724e+003,-2.814487e-004
1.627652e+003,-1.995867e-004
1.629580e+003,-1.137343e-004
1.631509e+003,-6.341392e-005
1.633438e+003,-3.428020e-004
1.635366e+003,-7.841708e-004
1.637294e+003,-4.748493e-004
1.639223e+003,-1.848840e-005
1.641151e+003,8.532853e-005
1.643080e+003,-1.759724e-004
1.645008e+003,-6.648224e-004
1.646937e+003,-7.436859e-004
1.648865e+003,-3.536612e-004
1.650794e+003,-5.790619e-004
1.652722e+003,-1.318553e-003
1.654651e+003,-7.694194e-004
1.656579e+003,-8.090579e-005
1.658508e+003,9.774652e-006
1.660436e+003,-8.845887e-005
1.662365e+003,-2.178017e-004
1.664293e+003,-6.175746e-005
1.666222e+003,6.746614e-005
1.668150e+003,-2.871440e-004
1.670079e+003,-5.714842e-004
1.672007e+003,-3.596536e-004
1.673936e+003,-4.060004e-004
1.675864e+003,-4.187449e-004
1.677793e+003,-1.516280e-004
1.679721e+003,-1.677584e-004
1.681650e+003,-4.016638e-004
1.683578e+003,-9.780088e-004
1.685507e+003,-7.200019e-004
1.687435e+003,-3.098584e-004
1.689364e+003,-3.160169e-004
1.691292e+003,-2.715479e-004
1.693221e+003,-3.466425e-004
1.695149e+003,-8.972700e-004
1.697078e+003,-7.793418e-004
1.699006e+003,-1.060088e-003
1.700935e+003,-1.214948e-003
1.702863e+003,-4.528056e-004
1.704792e+003,-2.809851e-004
1.706720e+003,-1.240361e-004
1.708649e+003,-2.965395e-005
1.710577e+003,-6.175746e-005
1.712506e+003,-1.367227e-004
1.714434e+003,-3.934872e-004
1.716363e+003,-7.985248e-004
1.718291e+003,-8.431712e-004
1.720220e+003,-3.793847e-004
1.722148e+003,-1.779927e-004
1.724077e+003,-8.014384e-005
1.726005e+003,2.173647e-005
1.727934e+003,-1.055522e-004
1.729862e+003,-2.261472e-004
1.731791e+003,-5.090380e-004
1.733719e+003,-1.119580e-003
1.735648e+003,-7.018080e-004
1.737576e+003,-3.241287e-004
1.739505e+003,-3.849132e-004
1.741433e+003,-2.193913e-004
1.743362e+003,-2.228355e-004
1.745290e+003,-1.595442e-004
1.747219e+003,-2.373074e-004
1.749147e+003,-4.743859e-004
1.751076e+003,-5.469966e-004
1.753004e+003,-2.582031e-004
1.754933e+003,-1.775290e-004
1.756861e+003,-1.537479e-004
1.758790e+003,-8.474860e-005
1.760718e+003,-2.423410e-004
1.762647e+003,-2.823759e-004
1.764575e+003,-1.055522e-004
1.766504e+003,-1.489782e-004
1.768432e+003,-2.724420e-004
1.770361e+003,-4.516802e-004
1.772289e+003,-6.955558e-004
1.774218e+003,-4.107341e-004
1.776146e+003,-1.884587e-004
1.778075e+003,-1.465271e-004
1.780003e+003,-2.058461e-004
1.781932e+003,-1.675596e-004
1.783860e+003,-1.707724e-004
1.785789e+003,-1.899490e-004
1.787717e+003,-5.022830e-005
1.789646e+003,-1.375839e-004
1.791574e+003,-4.687592e-004
1.793503e+003,-4.923246e-004
1.795431e+003,-2.626072e-004
1.797360e+003,-1.993218e-004
1.799288e+003,-2.165101e-004
1.801217e+003,-2.295582e-004
1.803145e+003,-7.792427e-005
1.805074e+003,-1.474440e-005
1.807002e+003,-1.474440e-005
1.808931e+003,-1.019746e-004
1.810859e+003,-4.996326e-005
1.812788e+003,3.711171e-005
1.814716e+003,3.499096e-005
1.816645e+003,-6.626757e-006
1.818573e+003,1.325364e-006
1.820502e+003,-1.537392e-005
1.822430e+003,-5.983595e-005
1.824359e+003,-8.779633e-005
1.826287e+003,-1.028690e-004
1.828216e+003,-2.644285e-004
1.830144e+003,-3.401202e-004
1.832073e+003,-4.963196e-005
1.834001e+003,1.334513e-004
1.835930e+003,4.897487e-005
1.837858e+003,-7.924939e-005
1.839787e+003,-1.008814e-004
1.841715e+003,-1.345696e-004
1.843644e+003,-4.190428e-004
1.845572e+003,-3.581638e-004
1.847501e+003,-1.535160e-004
1.849429e+003,-5.980282e-005
1.851358e+003,3.913307e-005
1.853286e+003,5.742509e-005
1.855215e+003,7.866733e-005
1.857143e+003,6.030437e-006
1.859072e+003,-1.211212e-004
1.861000e+003,-5.476712e-005
1.862929e+003,6.723417e-005
1.864857e+003,8.582564e-005
1.866786e+003,-1.274811e-004
1.868714e+003,-3.571706e-004
1.870643e+003,-1.982951e-004
1.872571e+003,3.283707e-005
1.874500e+003,1.404779e-004
1.876428e+003,7.117775e-005
1.878357e+003,-8.034262e-005
1.880285e+003,-1.068441e-004
1.882214e+003,-1.418237e-004
1.884142e+003,-2.002160e-004
1.886071e+003,-1.147611e-004
1.887999e+003,-1.048897e-004
1.889928e+003,-8.726629e-005
1.891856e+003,-5.145411e-005
1.893785e+003,-7.848745e-005
1.895713e+003,-3.697601e-005
1.897642e+003,2.988793e-005
1.899570e+003,7.581730e-005
1.901499e+003,3.436136e-005
1.903427e+003,-1.292226e-006
1.905356e+003,-3.773803e-005
1.907284e+003,1.335322e-005
1.909213e+003,4.645641e-005
1.911141e+003,5.944653e-005
1.913070e+003,5.553620e-005
1.914998e+003,-1.298835e-005
1.916927e+003,-1.615978e-004
1.918855e+003,-2.094560e-004
1.920784e+003,-1.726603e-004
1.922712e+003,-1.989243e-004
1.924641e+003,-7.424704e-005
1.926569e+003,-1.391607e-005
1.928498e+003,-2.468416e-005
1.930426e+003,-1.457895e-006
1.932355e+003,-9.178032e-006
1.934283e+003,-4.499370e-005
1.936212e+003,-4.539126e-005
1.938140e+003,-9.045499e-006
1.940069e+003,-2.915698e-005
1.941997e+003,-1.018752e-004
1.943926e+003,1.037108e-005
1.945854e+003,3.121339e-005
1.947783e+003,-6.642867e-005
1.949711e+003,-9.432236e-005
1.951640e+003,-5.294497e-005
1.953568e+003,-3.992468e-005
1.955497e+003,-4.234324e-005
1.957425e+003,-1.567212e-005
1.959354e+003,-3.700914e-005
1.961282e+003,-5.897459e-005
1.963211e+003,-1.451360e-004
1.965139e+003,-1.683214e-004
1.967068e+003,-1.510318e-004
1.968996e+003,-1.041609e-004
1.970925e+003,-4.830674e-005
1.972853e+003,-5.476712e-005
1.974782e+003,3.313417e-006
1.976710e+003,4.609190e-005
1.978639e+003,1.805843e-005
1.980567e+003,-2.514801e-005
1.982496e+003,3.445954e-006
1.984424e+003,-3.965963e-005
1.986353e+003,-7.931565e-005
1.988281e+003,-7.040413e-005
1.990210e+003,-1.036309e-004
1.992138e+003,-9.561431e-005
1.994067e+003,-6.516976e-005
1.995995e+003,-1.355161e-005
1.997924e+003,8.174937e-005
1.999852e+003,7.949583e-005
2.001781e+003,4.420306e-005
2.003709e+003,1.613658e-005
2.005638e+003,4.705059e-006
2.007566e+003,-3.452430e-005
2.009495e+003,-1.197299e-004
2.011423e+003,-1.614984e-004
2.013352e+003,-1.206243e-004
2.015280e+003,-1.149599e-004
2.017208e+003,-1.586499e-004
2.019137e+003,-1.641813e-004
2.021066e+003,-8.613996e-005
2.022994e+003,-1.620224e-005
2.024922e+003,-4.665022e-005
2.026851e+003,-7.464457e-005
2.028780e+003,-1.262886e-004
2.030708e+003,-1.199949e-004
2.032636e+003,8.283589e-006
2.034565e+003,3.048342e-006
2.036494e+003,-1.077717e-004
2.038422e+003,-1.260898e-004
2.040350e+003,-1.185043e-004
2.042279e+003,-8.017697e-005
2.044208e+003,-8.372165e-005
2.046136e+003,-1.010576e-005
2.048064e+003,5.659663e-005
2.049993e+003,2.756840e-005
2.051921e+003,-6.139304e-005
2.053850e+003,-9.899322e-005
2.055778e+003,-1.067448e-004
2.057707e+003,-1.190012e-004
2.059635e+003,-4.824048e-005
2.061564e+003,-1.143109e-005
2.063492e+003,-1.828960e-005
2.065421e+003,-6.066419e-005
2.067349e+003,-1.631545e-004
2.069278e+003,-2.056805e-004
2.071206e+003,-2.087605e-004
2.073135e+003,-1.579875e-004
2.075063e+003,-2.113900e-005
2.076992e+003,-6.626807e-008
2.078920e+003,-5.430329e-005
2.080849e+003,-9.597871e-005
2.082777e+003,-4.307212e-005
2.084706e+003,7.554627e-006
2.086634e+003,-1.162518e-004
2.088563e+003,-2.582693e-004
2.090491e+003,-2.032629e-004
2.092420e+003,-1.281104e-004
2.094348e+003,-1.872663e-004
2.096277e+003,-1.842524e-004
2.098205e+003,-7.490960e-005
2.100134e+003,-7.355134e-005
2.102062e+003,-1.031671e-004
2.103991e+003,-1.009808e-004
2.105919e+003,-1.427511e-004
2.107848e+003,-1.335428e-004
2.109776e+003,-8.852513e-005
2.111705e+003,-8.256218e-005
2.113633e+003,-8.077328e-005
2.115562e+003,-1.321516e-004
2.117490e+003,-1.556027e-004
2.119419e+003,-1.143968e-004
2.121347e+003,-7.825555e-005
2.123276e+003,-1.076723e-004
2.125204e+003,-1.735214e-004
2.127133e+003,-1.336090e-004
2.129061e+003,-6.881395e-005
2.130990e+003,-7.646663e-005
2.132918e+003,-5.824574e-005
2.134847e+003,-8.097204e-005
2.136775e+003,-1.676921e-004
2.138704e+003,-2.244913e-004
2.140632e+003,-1.637176e-004
2.142561e+003,-1.666654e-004
2.144489e+003,-2.280349e-004
2.146418e+003,-1.861734e-004
2.148346e+003,-7.401514e-005
2.150275e+003,-1.031671e-004
2.152203e+003,-2.108139e-004
2.154132e+003,-2.109794e-004
2.156060e+003,-2.145893e-004
2.157989e+003,-2.482687e-004
2.159917e+003,-2.278361e-004
2.161846e+003,-2.074027e-004
2.163774e+003,-2.341614e-004
2.165703e+003,-2.780381e-004
2.167631e+003,-2.473083e-004
2.169560e+003,-1.270173e-004
2.171488e+003,-7.249123e-005
2.173417e+003,-1.587493e-004
2.175345e+003,-2.273063e-004
2.177274e+003,-2.974749e-004
2.179202e+003,-3.144607e-004
2.181131e+003,-1.786220e-004
2.183059e+003,-1.427511e-004
2.184988e+003,-2.222063e-004
2.186916e+003,-2.448247e-004
2.188845e+003,-1.763036e-004
2.190773e+003,-7.408139e-005
2.192702e+003,-3.273520e-005
2.194630e+003,-1.168812e-004
2.196559e+003,-1.741176e-004
2.198487e+003,-2.083300e-004
2.200416e+003,-2.196563e-004
2.202344e+003,-2.214777e-004
2.204273e+003,-2.259816e-004
2.206201e+003,-1.749456e-004
2.208130e+003,-1.244999e-004
2.210058e+003,-1.874319e-004
2.211987e+003,-2.307504e-004
2.213915e+003,-2.197556e-004
2.215844e+003,-2.133970e-004
2.217772e+003,-2.210141e-004
2.219701e+003,-1.560995e-004
2.221629e+003,-1.990237e-004
2.223558e+003,-1.984938e-004
2.225486e+003,-1.253280e-004
2.227415e+003,-1.219161e-004
2.229343e+003,-1.526879e-004
2.231272e+003,-1.908764e-004
2.233200e+003,-2.806209e-004
2.235129e+003,-2.336315e-004
2.237057e+003,-1.786220e-004
2.238986e+003,-1.818015e-004
2.240914e+003,-2.411488e-004
2.242843e+003,-2.182653e-004
2.244771e+003,-1.436454e-004
2.246700e+003,-2.284654e-004
2.248628e+003,-2.736672e-004
2.250557e+003,-2.281011e-004
2.252485e+003,-1.818015e-004
2.254414e+003,-1.815697e-004
2.256342e+003,-1.559670e-004
2.258271e+003,-1.497400e-004
2.260199e+003,-2.213121e-004
2.262128e+003,-2.422748e-004
2.264056e+003,-1.277461e-004
2.265985e+003,1.461236e-005
2.267913e+003,-1.096929e-004
2.269842e+003,-2.101515e-004
2.271770e+003,-1.233074e-004
2.273699e+003,-8.945270e-005
2.275627e+003,-8.087266e-005
2.277556e+003,-1.442085e-004
2.279484e+003,-2.007128e-004
2.281413e+003,-1.314228e-004
2.283341e+003,-1.300979e-004
2.285270e+003,-1.430823e-004
2.287198e+003,-1.441092e-004
2.289127e+003,-1.642475e-004
2.291055e+003,-1.526879e-004
2.292984e+003,-1.103555e-004
2.294912e+003,-1.417243e-004
2.296841e+003,-2.211797e-004
2.298769e+003,-2.540306e-004
2.300698e+003,-3.014814e-004
2.302626e+003,-2.924751e-004
2.304555e+003,-2.726076e-004
2.306483e+003,-2.646272e-004
2.308412e+003,-2.731705e-004
2.310340e+003,-3.208840e-004
2.312269e+003,-4.094100e-004
2.314197e+003,-4.727972e-004
2.316125e+003,-4.711754e-004
2.318054e+003,-6.709758e-004
2.319983e+003,-8.258423e-004
2.321911e+003,-8.874825e-004
2.323840e+003,-9.173735e-004
2.325768e+003,-9.754302e-004
2.327697e+003,-1.089108e-003
2.329625e+003,-1.139442e-003
2.331553e+003,-1.290672e-003
2.333482e+003,-1.370512e-003
2.335411e+003,-1.371173e-003
2.337339e+003,-1.400139e-003
2.339268e+003,-1.399709e-003
2.341196e+003,-1.384186e-003
2.343125e+003,-1.264342e-003
2.345053e+003,-1.127478e-003
2.346981e+003,-8.923432e-004
2.348910e+003,-8.223037e-004
2.350839e+003,-1.027496e-003
2.352767e+003,-1.305802e-003
2.354696e+003,-1.591193e-003
2.356624e+003,-1.773353e-003
2.358552e+003,-1.956459e-003
2.360481e+003,-2.086269e-003
2.362409e+003,-2.143148e-003
2.364338e+003,-2.041519e-003
2.366267e+003,-1.859802e-003
2.368195e+003,-1.768172e-003
2.370124e+003,-1.535266e-003
2.372052e+003,-1.287831e-003
2.373980e+003,-1.179691e-003
2.375909e+003,-1.096247e-003
2.377838e+003,-7.911825e-004
2.379766e+003,-4.954687e-004
2.381695e+003,-3.792853e-004
2.383623e+003,-2.981703e-004
2.385552e+003,-2.301543e-004
2.387480e+003,-2.289290e-004
2.389408e+003,-2.162121e-004
2.391337e+003,-1.972684e-004
2.393266e+003,-2.852235e-004
2.395194e+003,-3.449209e-004
2.397123e+003,-3.957714e-004
2.399051e+003,-3.838207e-004
2.400979e+003,-3.488938e-004
2.402908e+003,-3.422392e-004
2.404836e+003,-3.084015e-004
2.406765e+003,-3.424378e-004
2.408694e+003,-3.993797e-004
2.410622e+003,-4.711754e-004
2.412551e+003,-4.621395e-004
2.414479e+003,-4.451264e-004
2.416407e+003,-4.820315e-004
2.418336e+003,-4.727310e-004
2.420264e+003,-3.826952e-004
2.422193e+003,-3.240625e-004
2.424122e+003,-3.615738e-004
2.426050e+003,-3.541247e-004
2.427979e+003,-3.177055e-004
2.429907e+003,-3.066467e-004
2.431835e+003,-2.528385e-004
2.433764e+003,-2.336315e-004
2.435692e+003,-2.464804e-004
2.437621e+003,-2.149205e-004
2.439550e+003,-1.618627e-004
2.441478e+003,-1.975002e-004
2.443406e+003,-2.529378e-004
2.445335e+003,-2.823096e-004
2.447263e+003,-3.499863e-004
2.449192e+003,-3.156527e-004
2.451121e+003,-2.514477e-004
2.453049e+003,-2.845613e-004
2.454978e+003,-3.234003e-004
2.456906e+003,-3.312141e-004
2.458834e+003,-2.727400e-004
2.460763e+003,-2.350224e-004
2.462691e+003,-1.845836e-004
2.464620e+003,-1.505350e-004
2.466549e+003,-1.396044e-004
2.468477e+003,-2.409170e-004
2.470406e+003,-2.487985e-004
2.472334e+003,-2.400891e-004
2.474262e+003,-2.109132e-004
2.476191e+003,-1.555365e-004
2.478119e+003,-1.637176e-004
2.480048e+003,-2.089924e-004
2.481977e+003,-3.256186e-004
2.483905e+003,-3.210164e-004
2.485833e+003,-2.763825e-004
2.487762e+003,-2.447253e-004
2.489690e+003,-2.095222e-004
2.491619e+003,-1.983944e-004
2.493547e+003,-1.569938e-004
2.495476e+003,-1.787876e-004
2.497405e+003,-2.570772e-004
2.499333e+003,-2.422748e-004
2.501261e+003,-1.560995e-004
2.503190e+003,-1.941883e-004
2.505118e+003,-3.057527e-004
2.507047e+003,-3.057196e-004
2.508975e+003,-2.330023e-004
2.510904e+003,-2.053162e-004
2.512833e+003,-1.373189e-004
2.514761e+003,-1.206574e-004
2.516689e+003,-1.330790e-004
2.518618e+003,-1.540460e-004
2.520546e+003,-1.749125e-004
2.522475e+003,-2.177354e-004
2.524403e+003,-2.341945e-004
2.526332e+003,-1.823977e-004
2.528260e+003,-2.206498e-004
2.530189e+003,-2.930711e-004
2.532117e+003,-3.084346e-004
2.534046e+003,-3.165135e-004
2.535974e+003,-1.878294e-004
2.537903e+003,-1.493757e-004
2.539831e+003,-2.132646e-004
2.541760e+003,-2.394268e-004
2.543688e+003,-3.465763e-004
2.545617e+003,-4.093769e-004
2.547545e+003,-2.153179e-004
2.549474e+003,-5.307749e-005
2.551402e+003,-8.773008e-005
2.553331e+003,-1.808411e-004
2.555259e+003,-2.840977e-004
2.557188e+003,-3.632953e-004
2.559116e+003,-3.867670e-004
2.561045e+003,-2.923757e-004
2.562973e+003,-2.261472e-004
2.564902e+003,-2.572759e-004
2.566830e+003,-2.323400e-004
2.568759e+003,-2.482687e-004
2.570687e+003,-2.409170e-004
2.572616e+003,-2.034616e-004
2.574544e+003,-2.227030e-004
2.576473e+003,-3.071102e-004
2.578401e+003,-2.785017e-004
2.580330e+003,-1.831264e-004
2.582258e+003,-2.090586e-004
2.584187e+003,-2.469772e-004
2.586115e+003,-1.681227e-004
2.588044e+003,-1.712692e-004
2.589972e+003,-2.642630e-004
2.591901e+003,-3.336310e-004
2.593829e+003,-2.241602e-004
2.595758e+003,-1.681889e-004
2.597686e+003,-1.671953e-004
2.599615e+003,-1.020409e-004
2.601543e+003,-1.719648e-004
2.603472e+003,-3.018787e-004
2.605400e+003,-2.986669e-004
2.607329e+003,-2.659186e-004
2.609257e+003,-2.512821e-004
2.611186e+003,-2.503880e-004
2.613114e+003,-2.801904e-004
2.615043e+003,-2.673094e-004
2.616971e+003,-1.678577e-004
2.618900e+003,-2.598257e-004
2.620828e+003,-3.311147e-004
2.622757e+003,-2.269089e-004
2.624685e+003,-6.699186e-005
2.626614e+003,-4.870431e-005
2.628542e+003,-1.599417e-004
2.630471e+003,-3.028058e-004
2.632399e+003,-2.892963e-004
2.634328e+003,-3.199900e-004
2.636256e+003,-3.333330e-004
2.638185e+003,-3.011503e-004
2.640113e+003,-2.571765e-004
2.642042e+003,-2.022362e-004
2.643970e+003,-2.135626e-004
2.645899e+003,-1.979308e-004
2.647827e+003,-1.084011e-004
2.649756e+003,-1.573582e-004
2.651684e+003,-3.291944e-004
2.653613e+003,-3.612758e-004
2.655541e+003,-2.995609e-004
2.657470e+003,-2.579050e-004
2.659398e+003,-1.918369e-004
2.661327e+003,-1.769660e-004
2.663255e+003,-2.150529e-004
2.665184e+003,-2.278361e-004
2.667112e+003,-2.231998e-004
2.669041e+003,-2.111782e-004
2.670969e+003,-2.362146e-004
2.672898e+003,-2.658855e-004
2.674826e+003,-2.104164e-004
2.676755e+003,-2.630709e-004
2.678683e+003,-3.565084e-004
2.680612e+003,-2.898261e-004
2.682540e+003,-2.166757e-004
2.684469e+003,-2.150198e-004
2.686397e+003,-1.633532e-004
2.688326e+003,-1.835900e-004
2.690254e+003,-2.385658e-004
2.692183e+003,-2.727069e-004
2.694111e+003,-3.111828e-004
2.696040e+003,-2.508516e-004
2.697968e+003,-2.186296e-004
2.699897e+003,-3.218442e-004
2.701825e+003,-3.890844e-004
2.703754e+003,-4.181821e-004
2.705682e+003,-3.623021e-004
2.707611e+003,-2.872434e-004
2.709539e+003,-2.754884e-004
2.711468e+003,-3.050904e-004
2.713396e+003,-3.529329e-004
2.715325e+003,-3.774646e-004
2.717253e+003,-3.805102e-004
2.719182e+003,-3.667052e-004
2.721110e+003,-3.309161e-004
2.723039e+003,-2.719122e-004
2.724967e+003,-2.476726e-004
2.726896e+003,-2.889983e-004
2.728824e+003,-2.808858e-004
2.730753e+003,-3.371736e-004
2.732681e+003,-3.859063e-004
2.734610e+003,-3.812386e-004
2.736538e+003,-3.529991e-004
2.738467e+003,-3.034349e-004
2.740395e+003,-2.277368e-004
2.742324e+003,-2.228686e-004
2.744252e+003,-2.899255e-004
2.746181e+003,-3.541909e-004
2.748109e+003,-2.852235e-004
2.750038e+003,-2.290283e-004
2.751966e+003,-2.891639e-004
2.753895e+003,-3.584286e-004
2.755823e+003,-5.028161e-004
2.757752e+003,-5.420658e-004
2.759680e+003,-4.496280e-004
2.761609e+003,-3.671025e-004
2.763537e+003,-2.771110e-004
2.765466e+003,-2.697598e-004
2.767394e+003,-2.855216e-004
2.769323e+003,-2.586335e-004
2.771251e+003,-2.430695e-004
2.773180e+003,-2.465135e-004
2.775108e+003,-2.908195e-004
2.777037e+003,-4.260935e-004
2.778965e+003,-5.207205e-004
2.780894e+003,-4.185462e-004
2.782822e+003,-3.303863e-004
2.784750e+003,-3.360810e-004
2.786679e+003,-2.655213e-004
2.788608e+003,-2.888328e-004
2.790536e+003,-2.809851e-004
2.792465e+003,-1.977652e-004
2.794393e+003,-2.920446e-004
2.796322e+003,-4.379768e-004
2.798250e+003,-4.507865e-004
2.800178e+003,-4.111975e-004
2.802107e+003,-3.140965e-004
2.804036e+003,-2.192588e-004
2.805964e+003,-1.749125e-004
2.807893e+003,-2.672763e-004
2.809821e+003,-3.905410e-004
2.811750e+003,-4.084500e-004
2.813678e+003,-3.633284e-004
2.815606e+003,-3.608454e-004
2.817535e+003,-3.764714e-004
2.819464e+003,-3.598191e-004
2.821392e+003,-3.431662e-004
2.823321e+003,-3.474040e-004
2.825249e+003,-3.277045e-004
2.827177e+003,-2.401554e-004
2.829106e+003,-1.584843e-004
2.831034e+003,-2.701572e-004
2.832963e+003,-3.016138e-004
2.834892e+003,-2.304855e-004
2.836820e+003,-2.761838e-004
2.838749e+003,-3.007529e-004
2.840677e+003,-3.097921e-004
2.842605e+003,-3.612758e-004
2.844534e+003,-3.682943e-004
2.846462e+003,-3.056202e-004
2.848391e+003,-2.872765e-004
2.850320e+003,-2.464142e-004
2.852248e+003,-2.273725e-004
2.854177e+003,-2.855878e-004
2.856105e+003,-3.056202e-004
2.858033e+003,-3.216455e-004
2.859962e+003,-3.127059e-004
2.861890e+003,-2.996603e-004
2.863819e+003,-2.619450e-004
2.865748e+003,-2.322738e-004
2.867676e+003,-2.771110e-004
2.869604e+003,-3.581638e-004
2.871533e+003,-3.905410e-004
2.873461e+003,-3.452851e-004
2.875390e+003,-3.076731e-004
2.877319e+003,-3.387628e-004
2.879247e+003,-2.060117e-004
2.881176e+003,-1.327147e-004
2.883104e+003,-2.464142e-004
2.885032e+003,-3.120106e-004
2.886961e+003,-2.620774e-004
2.888889e+003,-3.079380e-004
2.890818e+003,-3.328033e-004
2.892747e+003,-3.992473e-004
2.894675e+003,-4.081189e-004
2.896604e+003,-3.149573e-004
2.898532e+003,-2.505536e-004
2.900460e+003,-3.405175e-004
2.902389e+003,-4.211282e-004
2.904317e+003,-4.583994e-004
2.906246e+003,-4.359576e-004
2.908175e+003,-3.305519e-004
2.910103e+003,-2.669120e-004
2.912031e+003,-2.133970e-004
2.913960e+003,-1.910089e-004
2.915888e+003,-3.543234e-004
2.917817e+003,-3.960362e-004
2.919745e+003,-3.298235e-004
2.921674e+003,-2.989318e-004
2.923603e+003,-3.932224e-004
2.925531e+003,-4.410220e-004
2.927459e+003,-4.188442e-004
2.929388e+003,-3.863698e-004
2.931316e+003,-3.968638e-004
2.933245e+003,-5.156570e-004
2.935173e+003,-5.235997e-004
2.937102e+003,-4.031204e-004
2.939031e+003,-3.729622e-004
2.940959e+003,-4.172222e-004
2.942887e+003,-4.661114e-004
2.944816e+003,-4.215254e-004
2.946744e+003,-3.862374e-004
2.948673e+003,-3.985521e-004
2.950601e+003,-4.804428e-004
2.952530e+003,-5.678111e-004
2.954458e+003,-5.825694e-004
2.956387e+003,-4.688585e-004
2.958315e+003,-4.441334e-004
2.960244e+003,-5.076811e-004
2.962172e+003,-4.904712e-004
2.964101e+003,-3.943810e-004
2.966029e+003,-2.900910e-004
2.967958e+003,-3.746175e-004
2.969886e+003,-5.370688e-004
2.971815e+003,-5.535488e-004
2.973743e+003,-4.463511e-004
2.975672e+003,-4.853412e-004
2.977600e+003,-4.997381e-004
2.979529e+003,-4.193076e-004
2.981457e+003,-3.885216e-004
2.983386e+003,-3.151891e-004
2.985314e+003,-3.901768e-004
2.987243e+003,-3.820000e-004
2.989171e+003,-3.604812e-004
2.991100e+003,-3.564422e-004
2.993028e+003,-4.137133e-004
2.994957e+003,-4.285761e-004
2.996885e+003,-3.811723e-004
2.998814e+003,-3.322073e-004
3.000742e+003,-4.252659e-004
3.002671e+003,-4.943435e-004
3.004599e+003,-4.283113e-004
3.006528e+003,-3.319425e-004
3.008456e+003,-3.739885e-004
3.010385e+003,-4.383409e-004
3.012313e+003,-4.060997e-004
3.014242e+003,-3.377695e-004
3.016170e+003,-3.160500e-004
3.018099e+003,-3.616400e-004
3.020027e+003,-3.045276e-004
3.021956e+003,-2.339958e-004
3.023884e+003,-2.679386e-004
3.025813e+003,-3.187319e-004
3.027741e+003,-3.973273e-004
3.029670e+003,-3.782260e-004
3.031598e+003,-2.772434e-004
3.033527e+003,-2.108139e-004
3.035455e+003,-2.094560e-004
3.037384e+003,-2.741639e-004
3.039312e+003,-3.963342e-004
3.041241e+003,-4.454243e-004
3.043169e+003,-4.054045e-004
3.045098e+003,-3.504167e-004
3.047026e+003,-2.515470e-004
3.048955e+003,-2.246238e-004
3.050883e+003,-3.337634e-004
3.052812e+003,-4.468807e-004
3.054740e+003,-3.575347e-004
3.056669e+003,-2.679055e-004
3.058597e+003,-3.021436e-004
3.060526e+003,-3.285322e-004
3.062454e+003,-2.866805e-004
3.064383e+003,-2.515801e-004
3.066311e+003,-2.262797e-004
3.068240e+003,-2.601899e-004
3.070168e+003,-3.686254e-004
3.072097e+003,-3.658776e-004
3.074025e+003,-2.447253e-004
3.075954e+003,-1.513962e-004
3.077882e+003,-2.038259e-004
3.079811e+003,-3.536612e-004
3.081739e+003,-3.924610e-004
3.083668e+003,-4.114292e-004
3.085596e+003,-4.003397e-004
3.087525e+003,-3.732602e-004
3.089453e+003,-3.152885e-004
3.091382e+003,-3.555152e-004
3.093310e+003,-4.159974e-004
3.095239e+003,-3.520721e-004
3.097167e+003,-2.442286e-004
3.099096e+003,-3.167122e-004
3.101024e+003,-4.202013e-004
3.102953e+003,-4.075231e-004
3.104881e+003,-3.598191e-004
3.106810e+003,-2.639649e-004
3.108738e+003,-2.127347e-004
3.110667e+003,-3.294924e-004
3.112595e+003,-3.666390e-004
3.114524e+003,-3.298235e-004
3.116452e+003,-3.863036e-004
3.118381e+003,-4.370499e-004
3.120309e+003,-4.640924e-004
3.122238e+003,-5.091373e-004
3.124166e+003,-5.997756e-004
3.126095e+003,-5.370688e-004
3.128023e+003,-4.203338e-004
3.129952e+003,-3.221753e-004
3.131880e+003,-2.864156e-004
3.133809e+003,-3.149573e-004
3.135737e+003,-3.637588e-004
3.137666e+003,-2.507523e-004
3.139594e+003,-2.809851e-004
3.141523e+003,-2.708857e-004
3.143451e+003,-2.557195e-004
3.145380e+003,-3.286316e-004
3.147308e+003,-3.072095e-004
3.149237e+003,-3.114146e-004
3.151165e+003,-3.390277e-004
3.153094e+003,-3.834566e-004
3.155022e+003,-4.060666e-004
3.156951e+003,-4.136802e-004
3.158879e+003,-3.158513e-004
3.160808e+003,-1.787214e-004
3.162736e+003,-2.447584e-004
3.164665e+003,-3.827283e-004
3.166593e+003,-4.012997e-004
3.168522e+003,-3.689233e-004
3.170450e+003,-2.592958e-004
3.172379e+003,-1.874319e-004
3.174307e+003,-1.773965e-004
3.176236e+003,-2.794951e-004
3.178164e+003,-3.404844e-004
3.180093e+003,-2.722433e-004
3.182021e+003,-2.475401e-004
3.183950e+003,-2.723427e-004
3.185878e+003,-3.428682e-004
3.187807e+003,-3.885216e-004
3.189735e+003,-4.388705e-004
3.191664e+003,-4.395325e-004
3.193592e+003,-4.981165e-004
3.195521e+003,-5.409406e-004
3.197449e+003,-3.784908e-004
3.199378e+003,-3.677977e-004
3.201306e+003,-3.681950e-004
3.203235e+003,-3.253207e-004
3.205163e+003,-3.020442e-004
3.207092e+003,-4.288078e-004
3.209020e+003,-3.923948e-004
3.210948e+003,-2.635345e-004
3.212877e+003,-2.758195e-004
3.214806e+003,-2.963822e-004
3.216734e+003,-3.855422e-004
3.218663e+003,-5.321379e-004
3.220591e+003,-4.167587e-004
3.222520e+003,-2.104496e-004
3.224448e+003,-1.671291e-004
3.226376e+003,-7.040413e-005
3.228305e+003,-4.075468e-006
3.230234e+003,-1.034653e-004
3.232162e+003,-2.314790e-004
3.234091e+003,-3.173081e-004
3.236019e+003,-3.216786e-004
3.237948e+003,-3.309161e-004
3.239876e+003,-2.426390e-004
3.241804e+003,-1.512968e-004
3.243733e+003,-2.221069e-004
3.245662e+003,-2.486329e-004
3.247590e+003,-2.739983e-004
3.249519e+003,-2.353536e-004
3.251447e+003,-2.920115e-004
3.253375e+003,-4.408234e-004
3.255304e+003,-5.190658e-004
3.257232e+003,-2.686009e-004
3.259161e+003,-1.532841e-004
3.261090e+003,-2.890977e-004
3.263018e+003,-3.178048e-004
3.264947e+003,-4.341039e-004
3.266875e+003,-5.054637e-004
3.268803e+003,-4.144416e-004
3.270732e+003,-3.860056e-004
3.272660e+003,-3.138978e-004
3.274589e+003,-3.246916e-004
3.276518e+003,-3.036336e-004
3.278446e+003,-2.569778e-004
3.280375e+003,-3.206522e-004
3.282303e+003,-3.172419e-004
3.284231e+003,-3.268106e-004
3.286160e+003,-2.972762e-004
3.288088e+003,-2.163445e-004
3.290017e+003,-2.432682e-004
3.291946e+003,-3.065804e-004
3.293874e+003,-4.079865e-004
3.295802e+003,-3.716049e-004
3.297731e+003,-3.410473e-004
3.299659e+003,-3.518072e-004
3.301588e+003,-3.870981e-004
3.303516e+003,-4.287085e-004
3.305445e+003,-3.332337e-004
3.307374e+003,-3.054547e-004
3.309302e+003,-4.150043e-004
3.311230e+003,-3.350878e-004
3.313159e+003,-3.257180e-004
3.315087e+003,-3.249896e-004
3.317016e+003,-2.618456e-004
3.318944e+003,-4.012666e-004
3.320873e+003,-3.915341e-004
3.322802e+003,-3.890844e-004
3.324730e+003,-5.762161e-004
3.326658e+003,-4.950054e-004
3.328587e+003,-1.886574e-004
3.330515e+003,-4.466239e-005
3.332444e+003,-1.141318e-004
3.334372e+003,-2.806209e-004
3.336301e+003,-4.219557e-004
3.338229e+003,-4.227171e-004
3.340158e+003,-3.494235e-004
3.342086e+003,-1.930623e-004
3.344015e+003,-9.322918e-005
3.345943e+003,-1.814703e-004
3.347872e+003,-3.492580e-004
3.349800e+003,-2.784024e-004
3.351729e+003,-1.733890e-004
3.353657e+003,-1.901809e-004
3.355586e+003,-2.187952e-004
3.357514e+003,-4.260935e-004
3.359443e+003,-4.287085e-004
3.361371e+003,-1.694144e-004
3.363300e+003,-1.268186e-004
3.365229e+003,-2.097872e-004
3.367157e+003,-1.793507e-004
3.369085e+003,-2.883692e-004
3.371014e+003,-2.263790e-004
3.372942e+003,-1.419893e-004
3.374871e+003,-2.818461e-004
3.376799e+003,-2.959187e-004
3.378728e+003,-2.600906e-004
3.380656e+003,-2.266108e-004
3.382585e+003,-3.486620e-004
3.384513e+003,-4.151698e-004
3.386442e+003,-2.962829e-004
3.388370e+003,-1.161524e-004
3.390299e+003,-8.266156e-005
3.392227e+003,-2.066410e-004
3.394156e+003,-1.888230e-004
3.396084e+003,-1.877963e-004
3.398013e+003,-2.097210e-004
3.399941e+003,-2.071377e-004
3.401870e+003,-2.371087e-004
3.403798e+003,-1.684208e-004
3.405727e+003,-1.447385e-004
3.407655e+003,-1.012127e-004
3.409584e+003,-2.551246e-005
3.411512e+003,-1.342715e-004
3.413441e+003,-2.112775e-004
3.415369e+003,-2.514477e-004
3.417298e+003,-2.660180e-004
3.419226e+003,-3.755444e-004
3.421155e+003,-4.366858e-004
3.423083e+003,-3.293600e-004
3.425012e+003,-2.889321e-004
3.426940e+003,-3.984528e-004
3.428869e+003,-2.664484e-004
3.430797e+003,-1.187030e-004
3.432726e+003,-2.493283e-004
3.434654e+003,-4.290726e-004
3.436583e+003,-4.879889e-004
3.438511e+003,-3.907396e-004
3.440440e+003,-2.376055e-004
3.442368e+003,-9.515054e-005
3.444297e+003,-1.489782e-004
3.446225e+003,-1.912407e-004
3.448154e+003,-2.235310e-004
3.450082e+003,-3.141958e-004
3.452011e+003,-3.577003e-004
3.453939e+003,-4.606832e-004
3.455868e+003,-5.902130e-004
3.457796e+003,-4.391684e-004
3.459725e+003,-2.674750e-004
3.461653e+003,-1.694807e-004
3.463582e+003,-1.773965e-004
3.465510e+003,-2.473414e-004
3.467439e+003,-1.346359e-004
3.469367e+003,-1.023059e-004
3.471296e+003,-2.139600e-004
3.473224e+003,-2.273725e-004
3.475153e+003,-2.002491e-004
3.477081e+003,-2.525074e-004
3.479010e+003,-2.398573e-004
3.480938e+003,-8.511301e-005
3.482867e+003,-9.985451e-005
3.484795e+003,-4.115053e-005
3.486724e+003,-5.503215e-005
3.488652e+003,-1.170468e-004
3.490581e+003,-2.733360e-004
3.492509e+003,-3.584286e-004
3.494438e+003,-1.948176e-004
3.496366e+003,-2.422031e-005
3.498295e+003,-1.435792e-004
3.500223e+003,-1.881937e-004
3.502152e+003,-2.203848e-004
3.504080e+003,-2.498913e-004
3.506009e+003,-2.292933e-004
3.507937e+003,-1.496407e-004
3.509866e+003,-5.430329e-005
3.511794e+003,-4.731283e-005
3.513723e+003,-1.177093e-004
3.515651e+003,-2.712168e-004
3.517580e+003,-2.889983e-004
3.519508e+003,-2.786010e-004
3.521437e+003,-3.134674e-004
3.523365e+003,-4.215916e-004
3.525294e+003,-3.032694e-004
3.527222e+003,-1.608360e-004
3.529151e+003,-1.887236e-004
3.531079e+003,-2.105489e-004
3.533008e+003,-2.124035e-004
3.534936e+003,-2.651570e-004
3.536865e+003,-3.351871e-004
3.538793e+003,-1.365902e-004
3.540722e+003,1.759774e-004
3.542650e+003,1.555590e-004
3.544579e+003,1.935071e-005
3.546507e+003,-9.425612e-005
3.548436e+003,-8.448358e-005
3.550364e+003,-9.660811e-005
3.552293e+003,-1.877963e-004
3.554221e+003,-1.986925e-004
3.556150e+003,-1.927642e-004
3.558078e+003,-1.718985e-004
3.560007e+003,-1.683877e-004
3.561935e+003,-1.819340e-004
3.563864e+003,-3.954072e-004
3.565792e+003,-5.857129e-004
3.567721e+003,-4.701494e-004
3.569649e+003,-2.544943e-004
3.571578e+003,-2.626072e-004
3.573506e+003,-2.087937e-004
3.575435e+003,3.631643e-005
3.577363e+003,1.078315e-004
3.579292e+003,3.217434e-005
3.581220e+003,-4.916813e-005
3.583149e+003,-2.465798e-004
3.585077e+003,-2.846606e-004
3.587006e+003,-4.555197e-004
3.588934e+003,-2.937002e-004
3.590863e+003,-1.190674e-004
3.592791e+003,-2.112775e-004
3.594720e+003,-3.703138e-004
3.596648e+003,-2.895612e-004
3.598577e+003,-3.734046e-005
3.600505e+003,5.908201e-005
3.602434e+003,6.103719e-005
3.604362e+003,4.042372e-006
3.606291e+003,-2.665809e-004
3.608219e+003,-4.653832e-004
3.610148e+003,-3.973604e-004
3.612076e+003,-3.991480e-004
3.614005e+003,-2.540306e-004
3.615933e+003,-1.931285e-004
3.617862e+003,-2.689651e-004
3.619790e+003,-1.518599e-004
3.621719e+003,-7.915001e-005
3.623647e+003,-4.499370e-005
3.625576e+003,-1.691163e-004
3.627504e+003,-3.963010e-004
3.629433e+003,-3.739554e-004
3.631361e+003,-6.609738e-005
3.633290e+003,-1.214524e-004
3.635218e+003,-9.975513e-005
3.637146e+003,6.577605e-005
3.639075e+003,1.400802e-004
3.641004e+003,1.569180e-004
3.642932e+003,7.883304e-005
3.644861e+003,-1.782577e-004
3.646789e+003,-5.272400e-004
3.648718e+003,-8.841428e-004
3.650646e+003,-7.861552e-004
3.652574e+003,-1.522905e-004
3.654503e+003,-1.298835e-005
3.656432e+003,-2.098203e-004
3.658360e+003,-2.642298e-004
3.660289e+003,-2.825414e-004
3.662217e+003,-1.437448e-004
3.664146e+003,4.506253e-006
3.666074e+003,-7.709607e-005
3.668002e+003,-4.298670e-004
3.669931e+003,-7.436859e-004
3.671860e+003,-5.554681e-004
3.673788e+003,-6.714390e-004
3.675717e+003,-9.654461e-004
3.677645e+003,-3.582300e-004
3.679573e+003,-1.624258e-004
3.681502e+003,-2.100647e-005
3.683430e+003,9.000138e-005
3.685359e+003,-1.842214e-005
3.687288e+003,-3.993797e-004
3.689216e+003,-4.568106e-004
3.691145e+003,-1.158874e-004
3.693073e+003,1.474052e-004
3.695001e+003,5.818727e-005
3.696930e+003,6.537838e-005
3.698858e+003,6.090464e-005
3.700787e+003,6.385399e-005
3.702716e+003,3.432822e-005
3.704644e+003,5.361419e-005
3.706573e+003,-4.085235e-005
3.708501e+003,-1.476864e-004
3.710429e+003,-2.250543e-004
3.712358e+003,-2.798262e-004
3.714286e+003,-6.527357e-006
3.716215e+003,5.967851e-005
3.718144e+003,1.150898e-004
3.720072e+003,1.228784e-004
3.722000e+003,-6.662744e-005
3.723929e+003,-2.452220e-004
3.725857e+003,-3.253207e-004
3.727786e+003,1.497684e-005
3.729714e+003,1.868800e-005
3.731643e+003,-5.174110e-004
3.733572e+003,-8.815635e-004
3.735500e+003,-8.237919e-004
3.737428e+003,-5.187017e-004
3.739357e+003,-2.335322e-004
3.741285e+003,-1.687520e-004
3.743214e+003,-8.866889e-004
3.745142e+003,-1.067558e-003
3.747071e+003,-5.536481e-004
3.749000e+003,-4.651184e-004
3.750928e+003,-4.719698e-004
3.752856e+003,-2.637994e-004
3.754785e+003,-5.059273e-005
3.756713e+003,-7.852058e-005
3.758642e+003,-1.670297e-004
3.760570e+003,-1.960761e-004
3.762499e+003,-3.488874e-005
3.764427e+003,-7.129860e-005
3.766356e+003,-4.360221e-005
3.768284e+003,-2.041902e-004
3.770213e+003,-2.351218e-004
3.772141e+003,3.714485e-005
3.774070e+003,1.339816e-004
3.775998e+003,1.615253e-004
3.777927e+003,-8.806135e-005
3.779855e+003,-2.914155e-004
3.781784e+003,-8.597432e-005
3.783712e+003,8.396978e-005
3.785641e+003,3.719231e-004
3.787569e+003,3.145891e-004
3.789498e+003,7.972782e-005
3.791426e+003,-7.474396e-005
3.793355e+003,-7.176240e-005
3.795283e+003,-1.987997e-005
3.797212e+003,-1.282760e-004
3.799140e+003,-3.943810e-004
3.801069e+003,-5.639064e-004
3.802997e+003,-5.357444e-005
3.804926e+003,1.683242e-005
3.806854e+003,-3.633284e-004
3.808783e+003,-2.984020e-004
3.810711e+003,5.898259e-005
3.812640e+003,3.105770e-004
3.814568e+003,4.705289e-005
3.816497e+003,-1.164174e-004
3.818425e+003,7.346438e-005
3.820354e+003,-1.916712e-004
3.822282e+003,-1.350996e-004
3.824211e+003,1.693148e-004
3.826139e+003,-1.663297e-005
3.828068e+003,1.084944e-004
3.829996e+003,1.741211e-004
3.831925e+003,2.068719e-004
3.833853e+003,3.033486e-004
3.835782e+003,3.250571e-005
3.837710e+003,-1.920687e-004
3.839639e+003,-1.537392e-005
3.841567e+003,2.073029e-004
3.843496e+003,3.107428e-004
3.845424e+003,2.762601e-004
3.847353e+003,1.117092e-004
3.849281e+003,8.337325e-005
3.851210e+003,-7.050351e-005
3.853138e+003,-6.278005e-004
3.855067e+003,-2.680048e-004
3.856995e+003,2.036233e-004
3.858924e+003,1.830710e-004
3.860852e+003,-4.638763e-007
3.862781e+003,-3.893075e-005
3.864709e+003,1.599675e-004
3.866638e+003,1.421351e-004
3.868566e+003,-2.352542e-004
3.870495e+003,-1.890217e-004
3.872423e+003,-5.957092e-005
3.874352e+003,5.619897e-005
3.876280e+003,3.462230e-004
3.878209e+003,1.454165e-004
3.880137e+003,-2.439306e-004
3.882066e+003,-7.941503e-005
3.883994e+003,-1.675596e-004
3.885923e+003,-4.436421e-005
3.887851e+003,3.000329e-004
3.889780e+003,9.318291e-005
3.891708e+003,-1.923336e-004
3.893637e+003,-9.008211e-005
3.895565e+003,1.467092e-004
3.897494e+003,1.887394e-004
3.899422e+003,1.245687e-004
3.901351e+003,-9.200348e-005
3.903279e+003,-2.253193e-004
3.905208e+003,9.198984e-005
3.907136e+003,3.351475e-004
3.909065e+003,2.900860e-004
3.910993e+003,2.024630e-004
3.912922e+003,3.227792e-004
3.914850e+003,4.175239e-004
3.916779e+003,3.253324e-004
3.918707e+003,1.587079e-004
3.920636e+003,8.204763e-005
3.922564e+003,-1.202930e-004
3.924493e+003,-1.212868e-004
3.926421e+003,2.235466e-004
3.928350e+003,2.578594e-004
3.930278e+003,1.929161e-004
3.932207e+003,3.027518e-004
3.934135e+003,6.211771e-004
3.936064e+003,7.841287e-004
3.937992e+003,5.297386e-004
3.939921e+003,3.380656e-004
3.941849e+003,3.226465e-004
3.943778e+003,4.222666e-004
3.945706e+003,3.279520e-004
3.947635e+003,1.152555e-004
3.949563e+003,2.314698e-004
3.951492e+003,4.473742e-004
3.953420e+003,5.872670e-004
3.955349e+003,6.162995e-004
3.957277e+003,5.772471e-004
3.959206e+003,3.580946e-004
3.961134e+003,1.951371e-004
3.963063e+003,2.951589e-004
3.964991e+003,2.740718e-004
3.966920e+003,1.964299e-004
3.968848e+003,4.102938e-004
3.970777e+003,5.385963e-004
3.972705e+003,4.146384e-004
3.974634e+003,4.518188e-004
3.976562e+003,6.669036e-004
3.978491e+003,5.657676e-004
3.980419e+003,6.010364e-004
3.982348e+003,4.288336e-004
3.984276e+003,3.917216e-004
3.986205e+003,4.813066e-004
3.988133e+003,6.151382e-004
3.990062e+003,6.105260e-004
3.991990e+003,5.731330e-004
3.993919e+003,5.351461e-004
3.995847e+003,4.934472e-004
3.997776e+003,5.229047e-004
3.999704e+003,5.721709e-004
4.001633e+003,0.000000e+000
