3.991989e+002,-3.908905e-003
4.011274e+002,-8.455332e-003
4.030559e+002,-1.372296e-002
4.049844e+002,-1.966847e-002
4.069129e+002,-1.043196e-002
4.088414e+002,8.812317e-004
4.107699e+002,-3.128552e-003
4.126984e+002,-6.822927e-003
4.146269e+002,-5.112458e-003
4.165554e+002,-2.181260e-003
4.184839e+002,1.952498e-003
4.204124e+002,4.553509e-003
4.223409e+002,3.856278e-003
4.242694e+002,4.382377e-003
4.261979e+002,-6.502985e-004
4.281264e+002,5.058664e-003
4.300549e+002,1.010175e-002
4.319834e+002,7.658909e-003
4.339119e+002,6.719140e-003
4.358404e+002,7.664204e-003
4.377689e+002,7.266308e-003
4.396974e+002,1.347862e-003
4.416259e+002,-6.458632e-003
4.435544e+002,-2.719986e-003
4.454829e+002,-1.317265e-003
4.474114e+002,-1.692168e-003
4.493399e+002,2.339656e-003
4.512684e+002,4.365341e-003
4.531969e+002,2.491757e-003
4.551254e+002,-3.451195e-004
4.570539e+002,1.650890e-003
4.589824e+002,4.665258e-003
4.609109e+002,6.852653e-003
4.628394e+002,6.183147e-003
4.647679e+002,3.877607e-003
4.666964e+002,4.197059e-003
4.686249e+002,3.979851e-003
4.705533e+002,4.788559e-003
4.724819e+002,3.584648e-003
4.744103e+002,2.583176e-003
4.763389e+002,3.040261e-003
4.782673e+002,2.463698e-003
4.801959e+002,1.927403e-003
4.821243e+002,4.164006e-003
4.840529e+002,3.147548e-003
4.859813e+002,1.476707e-003
4.879099e+002,3.447961e-003
4.898383e+002,3.153823e-003
4.917668e+002,1.175562e-003
4.936953e+002,9.055026e-004
4.956238e+002,1.490937e-003
4.975523e+002,2.995618e-003
4.994808e+002,1.832495e-003
5.014093e+002,1.794165e-003
5.033378e+002,3.240141e-003
5.052663e+002,4.064394e-003
5.071948e+002,3.852166e-003
5.091233e+002,1.652619e-003
5.110518e+002,3.810582e-005
5.129803e+002,-1.188024e-004
5.149088e+002,-7.535098e-004
5.168373e+002,-9.182001e-004
5.187658e+002,1.233424e-004
5.206943e+002,-5.510669e-004
5.226228e+002,2.231488e-004
5.245513e+002,1.253512e-003
5.264798e+002,-5.186024e-004
5.284083e+002,-5.052651e-004
5.303368e+002,1.686879e-003
5.322653e+002,1.822779e-003
5.341938e+002,1.470391e-003
5.361223e+002,1.368535e-003
5.380508e+002,8.519492e-004
5.399792e+002,5.866366e-004
5.419078e+002,1.514311e-003
5.438363e+002,1.383892e-003
5.457648e+002,-2.984683e-004
5.476932e+002,-4.018625e-004
5.496218e+002,-2.845613e-004
5.515503e+002,4.323161e-004
5.534788e+002,3.622067e-004
5.554072e+002,-1.087620e-003
5.573358e+002,-8.819603e-004
5.592643e+002,-2.197556e-004
5.611927e+002,1.878444e-004
5.631212e+002,1.442697e-003
5.650497e+002,1.581847e-003
5.669783e+002,8.206435e-004
5.689067e+002,9.466765e-004
5.708352e+002,9.614868e-004
5.727637e+002,1.256469e-003
5.746923e+002,7.966098e-004
5.766207e+002,-1.283966e-003
5.785492e+002,-8.311337e-004
5.804777e+002,3.461287e-003
5.824063e+002,2.289656e-003
5.843347e+002,-5.163851e-004
5.862632e+002,-3.936145e-005
5.881917e+002,5.316960e-004
5.901202e+002,1.080452e-003
5.920487e+002,2.113320e-003
5.939772e+002,2.733828e-003
5.959057e+002,3.376061e-003
5.978342e+002,3.132663e-003
5.997627e+002,2.622409e-003
6.016912e+002,5.284116e-004
6.036197e+002,-9.526514e-004
6.055482e+002,8.880831e-005
6.074767e+002,1.344272e-003
6.094052e+002,3.194302e-004
6.113337e+002,-1.439407e-003
6.132622e+002,-1.698637e-003
6.151907e+002,-2.831043e-004
6.171192e+002,7.841618e-004
6.190477e+002,-1.580206e-004
6.209762e+002,-7.814256e-004
6.229047e+002,-4.484695e-004
6.248332e+002,-2.064202e-005
6.267617e+002,1.102509e-004
6.286902e+002,7.521641e-004
6.306187e+002,1.730256e-003
6.325472e+002,2.074665e-003
6.344756e+002,1.836488e-003
6.364042e+002,1.254077e-003
6.383326e+002,9.337263e-004
6.402612e+002,1.467631e-003
6.421896e+002,1.875454e-003
6.441182e+002,1.667886e-003
6.460466e+002,1.192706e-003
6.479752e+002,1.101778e-003
6.499036e+002,1.275577e-003
6.518322e+002,1.450809e-003
6.537606e+002,1.540247e-003
6.556891e+002,8.760524e-004
6.576177e+002,4.241239e-004
6.595461e+002,7.517326e-004
6.614746e+002,9.295756e-004
6.634031e+002,9.225694e-004
6.653317e+002,1.490904e-003
6.672601e+002,2.152677e-003
6.691886e+002,2.153643e-003
6.711171e+002,1.973534e-003
6.730457e+002,2.146517e-003
6.749741e+002,2.311541e-003
6.769026e+002,2.268072e-003
6.788311e+002,2.567644e-003
6.807596e+002,3.139806e-003
6.826881e+002,2.879963e-003
6.846166e+002,2.328530e-003
6.865451e+002,2.451736e-003
6.884736e+002,2.672248e-003
6.904021e+002,2.670280e-003
6.923306e+002,2.750367e-003
6.942591e+002,2.600442e-003
6.961876e+002,2.343254e-003
6.981161e+002,2.210454e-003
7.000446e+002,2.610176e-003
7.019731e+002,2.870390e-003
7.039016e+002,2.890536e-003
7.058301e+002,2.436241e-003
7.077585e+002,2.053192e-003
7.096871e+002,2.451569e-003
7.116156e+002,3.119214e-003
7.135441e+002,3.187667e-003
7.154725e+002,2.687317e-003
7.174011e+002,2.129202e-003
7.193296e+002,2.490590e-003
7.212581e+002,2.932833e-003
7.231865e+002,2.728560e-003
7.251151e+002,2.501221e-003
7.270436e+002,2.421681e-003
7.289720e+002,2.599842e-003
7.309005e+002,2.705687e-003
7.328290e+002,2.709688e-003
7.347576e+002,3.435637e-003
7.366860e+002,4.015599e-003
7.386145e+002,3.817167e-003
7.405430e+002,3.177487e-003
7.424716e+002,2.908649e-003
7.444000e+002,3.011366e-003
7.463285e+002,3.349448e-003
7.482570e+002,3.707375e-003
7.501855e+002,4.058307e-003
7.521140e+002,4.349075e-003
7.540425e+002,4.359384e-003
7.559710e+002,4.363634e-003
7.578995e+002,4.603302e-003
7.598280e+002,4.611507e-003
7.617565e+002,4.289440e-003
7.636850e+002,4.125436e-003
7.656135e+002,4.334852e-003
7.675420e+002,4.615927e-003
7.694705e+002,5.081426e-003
7.713990e+002,5.265210e-003
7.733275e+002,4.914743e-003
7.752560e+002,4.578455e-003
7.771844e+002,4.357074e-003
7.791130e+002,4.384418e-003
7.810415e+002,4.644996e-003
7.829700e+002,4.756767e-003
7.848984e+002,4.958277e-003
7.868270e+002,5.131983e-003
7.887555e+002,4.867562e-003
7.906840e+002,4.247647e-003
7.926124e+002,4.254908e-003
7.945410e+002,4.855366e-003
7.964695e+002,5.054474e-003
7.983979e+002,5.193478e-003
8.003264e+002,5.015858e-003
8.022549e+002,4.903618e-003
8.041835e+002,5.369124e-003
8.061119e+002,5.905960e-003
8.080404e+002,6.441073e-003
8.099689e+002,6.457787e-003
8.118975e+002,6.368743e-003
8.138259e+002,6.460679e-003
8.157545e+002,6.840434e-003
8.176830e+002,6.695619e-003
8.196115e+002,5.989232e-003
8.215399e+002,5.328569e-003
8.234684e+002,5.343059e-003
8.253970e+002,4.907036e-003
8.273254e+002,4.088743e-003
8.292539e+002,3.748381e-003
8.311824e+002,3.507046e-003
8.331110e+002,3.352653e-003
8.350394e+002,3.560861e-003
8.369679e+002,3.929595e-003
8.388964e+002,3.470439e-003
8.408250e+002,3.255931e-003
8.427534e+002,3.327477e-003
8.446819e+002,3.355992e-003
8.466104e+002,3.284675e-003
8.485389e+002,3.086376e-003
8.504674e+002,2.900443e-003
8.523959e+002,2.946077e-003
8.543244e+002,3.039827e-003
8.562529e+002,3.032220e-003
8.581814e+002,3.013602e-003
8.601099e+002,3.520909e-003
8.620384e+002,3.603791e-003
8.639669e+002,3.221414e-003
8.658954e+002,3.307678e-003
8.678239e+002,3.477052e-003
8.697524e+002,3.113841e-003
8.716809e+002,2.738563e-003
8.736094e+002,2.540680e-003
8.755378e+002,2.738029e-003
8.774664e+002,3.040628e-003
8.793949e+002,3.146514e-003
8.813234e+002,3.096888e-003
8.832518e+002,2.909449e-003
8.851804e+002,2.559978e-003
8.871089e+002,2.217281e-003
8.890374e+002,2.303446e-003
8.909658e+002,2.274534e-003
8.928943e+002,2.376335e-003
8.948229e+002,2.828300e-003
8.967513e+002,2.877061e-003
8.986798e+002,2.694318e-003
9.006083e+002,2.410485e-003
9.025369e+002,2.402323e-003
9.044653e+002,2.473562e-003
9.063938e+002,2.228805e-003
9.083223e+002,2.210821e-003
9.102509e+002,2.138326e-003
9.121793e+002,1.873424e-003
9.141078e+002,1.721374e-003
9.160364e+002,1.824243e-003
9.179648e+002,2.054324e-003
9.198933e+002,2.178052e-003
9.218218e+002,2.037479e-003
9.237504e+002,1.813662e-003
9.256788e+002,1.684085e-003
9.276073e+002,1.697756e-003
9.295358e+002,2.095407e-003
9.314644e+002,2.409886e-003
9.333928e+002,2.560811e-003
9.353213e+002,2.603976e-003
9.372498e+002,2.674348e-003
9.391783e+002,2.724659e-003
9.411068e+002,2.520050e-003
9.430353e+002,2.571477e-003
9.449637e+002,2.623976e-003
9.468923e+002,2.750233e-003
9.488208e+002,2.862185e-003
9.507493e+002,3.121583e-003
9.526777e+002,3.215772e-003
9.546063e+002,3.076365e-003
9.565348e+002,3.060282e-003
9.584633e+002,3.154390e-003
9.603917e+002,3.067055e-003
9.623203e+002,2.739363e-003
9.642488e+002,2.737963e-003
9.661772e+002,3.170578e-003
9.681057e+002,2.973532e-003
9.700343e+002,2.649578e-003
9.719628e+002,2.924927e-003
9.738912e+002,2.900043e-003
9.758197e+002,2.370372e-003
9.777483e+002,2.382832e-003
9.796768e+002,2.725459e-003
9.816052e+002,2.600776e-003
9.835337e+002,2.473695e-003
9.854623e+002,2.631276e-003
9.873907e+002,2.759637e-003
9.893192e+002,2.844475e-003
9.912477e+002,2.856849e-003
9.931763e+002,2.812025e-003
9.951047e+002,2.826266e-003
9.970332e+002,2.966193e-003
9.989617e+002,2.989213e-003
1.000890e+003,3.258902e-003
1.002819e+003,3.513059e-003
1.004747e+003,3.577498e-003
1.006676e+003,3.952700e-003
1.008604e+003,4.378059e-003
1.010533e+003,4.414241e-003
1.012461e+003,4.468839e-003
1.014390e+003,4.822832e-003
1.016318e+003,5.168295e-003
1.018247e+003,5.371539e-003
1.020175e+003,5.403879e-003
1.022104e+003,5.560816e-003
1.024032e+003,6.020744e-003
1.025961e+003,6.251379e-003
1.027889e+003,6.232824e-003
1.029818e+003,6.349376e-003
1.031746e+003,6.647807e-003
1.033675e+003,6.885676e-003
1.035603e+003,7.199062e-003
1.037532e+003,7.346606e-003
1.039460e+003,7.391361e-003
1.041389e+003,7.590354e-003
1.043317e+003,7.584723e-003
1.045246e+003,7.472896e-003
1.047174e+003,7.773179e-003
1.049103e+003,7.868821e-003
1.051031e+003,7.668082e-003
1.052960e+003,7.904081e-003
1.054888e+003,8.196424e-003
1.056817e+003,8.087814e-003
1.058745e+003,8.045283e-003
1.060674e+003,8.051730e-003
1.062602e+003,8.188219e-003
1.064531e+003,8.406292e-003
1.066459e+003,8.580303e-003
1.068388e+003,8.477307e-003
1.070316e+003,8.353258e-003
1.072245e+003,8.574523e-003
1.074173e+003,8.769224e-003
1.076102e+003,8.467915e-003
1.078030e+003,8.203312e-003
1.079959e+003,8.476732e-003
1.081887e+003,8.953900e-003
1.083816e+003,9.019862e-003
1.085744e+003,9.106711e-003
1.087673e+003,9.165353e-003
1.089601e+003,8.814735e-003
1.091530e+003,8.831000e-003
1.093458e+003,9.383545e-003
1.095387e+003,9.557033e-003
1.097315e+003,9.475241e-003
1.099244e+003,9.556863e-003
1.101172e+003,9.764409e-003
1.103101e+003,9.721272e-003
1.105029e+003,9.408566e-003
1.106958e+003,9.447169e-003
1.108886e+003,9.629490e-003
1.110815e+003,9.927607e-003
1.112743e+003,1.016630e-002
1.114672e+003,9.938794e-003
1.116600e+003,9.849643e-003
1.118529e+003,9.986903e-003
1.120457e+003,1.001369e-002
1.122386e+003,1.008910e-002
1.124314e+003,1.008856e-002
1.126243e+003,9.678580e-003
1.128171e+003,9.491700e-003
1.130100e+003,9.688337e-003
1.132028e+003,9.521198e-003
1.133957e+003,9.375792e-003
1.135885e+003,9.408228e-003
1.137814e+003,9.246341e-003
1.139742e+003,9.000106e-003
1.141671e+003,8.869720e-003
1.143599e+003,8.591692e-003
1.145528e+003,8.201151e-003
1.147456e+003,7.886636e-003
1.149385e+003,7.635438e-003
1.151313e+003,7.409797e-003
1.153242e+003,7.113268e-003
1.155170e+003,6.887998e-003
1.157099e+003,6.709988e-003
1.159027e+003,6.421333e-003
1.160956e+003,6.143994e-003
1.162884e+003,5.866060e-003
1.164813e+003,5.797150e-003
1.166741e+003,5.754707e-003
1.168670e+003,5.755983e-003
1.170598e+003,5.797956e-003
1.172526e+003,5.700015e-003
1.174455e+003,5.616765e-003
1.176384e+003,5.505242e-003
1.178312e+003,5.352049e-003
1.180240e+003,5.345843e-003
1.182169e+003,5.431893e-003
1.184098e+003,5.468331e-003
1.186026e+003,5.437329e-003
1.187954e+003,5.136678e-003
1.189883e+003,4.752479e-003
1.191812e+003,4.657823e-003
1.193740e+003,4.765845e-003
1.195668e+003,4.834391e-003
1.197597e+003,4.804606e-003
1.199526e+003,4.811039e-003
1.201454e+003,4.592988e-003
1.203382e+003,4.529905e-003
1.205311e+003,4.611071e-003
1.207240e+003,4.641278e-003
1.209168e+003,4.770234e-003
1.211096e+003,4.990619e-003
1.213025e+003,5.081762e-003
1.214953e+003,5.044116e-003
1.216882e+003,4.941922e-003
1.218810e+003,4.832213e-003
1.220739e+003,4.723839e-003
1.222667e+003,4.807923e-003
1.224596e+003,4.958578e-003
1.226524e+003,4.953350e-003
1.228453e+003,4.888237e-003
1.230381e+003,5.077135e-003
1.232310e+003,5.145797e-003
1.234238e+003,5.148848e-003
1.236167e+003,5.201861e-003
1.238095e+003,5.248475e-003
1.240024e+003,5.358322e-003
1.241952e+003,5.557527e-003
1.243881e+003,5.656609e-003
1.245809e+003,5.828951e-003
1.247738e+003,5.898907e-003
1.249666e+003,5.957117e-003
1.251595e+003,6.143624e-003
1.253523e+003,6.539887e-003
1.255452e+003,6.786346e-003
1.257380e+003,7.053656e-003
1.259309e+003,7.545242e-003
1.261237e+003,8.008425e-003
1.263166e+003,8.456022e-003
1.265094e+003,8.648236e-003
1.267023e+003,8.912974e-003
1.268951e+003,9.280765e-003
1.270880e+003,9.701484e-003
1.272808e+003,1.013557e-002
1.274737e+003,1.051553e-002
1.276665e+003,1.094356e-002
1.278594e+003,1.141614e-002
1.280522e+003,1.177373e-002
1.282451e+003,1.219377e-002
1.284379e+003,1.256988e-002
1.286308e+003,1.315497e-002
1.288236e+003,1.352076e-002
1.290165e+003,1.386261e-002
1.292093e+003,1.441068e-002
1.294022e+003,1.477236e-002
1.295950e+003,1.513979e-002
1.297879e+003,1.527942e-002
1.299807e+003,1.532431e-002
1.301736e+003,1.521140e-002
1.303664e+003,1.515894e-002
1.305593e+003,1.520986e-002
1.307521e+003,1.515314e-002
1.309450e+003,1.480221e-002
1.311378e+003,1.438259e-002
1.313307e+003,1.413681e-002
1.315235e+003,1.390083e-002
1.317164e+003,1.357043e-002
1.319092e+003,1.303036e-002
1.321021e+003,1.240769e-002
1.322949e+003,1.189430e-002
1.324878e+003,1.160861e-002
1.326806e+003,1.145522e-002
1.328735e+003,1.132770e-002
1.330663e+003,1.113324e-002
1.332592e+003,1.100096e-002
1.334520e+003,1.086664e-002
1.336449e+003,1.074425e-002
1.338377e+003,1.068108e-002
1.340306e+003,1.065371e-002
1.342234e+003,1.076127e-002
1.344163e+003,1.083110e-002
1.346091e+003,1.078287e-002
1.348020e+003,1.061426e-002
1.349948e+003,1.042436e-002
1.351877e+003,1.028845e-002
1.353805e+003,1.030820e-002
1.355734e+003,1.019543e-002
1.357662e+003,9.928319e-003
1.359591e+003,9.788265e-003
1.361519e+003,9.720018e-003
1.363448e+003,9.656558e-003
1.365376e+003,9.585079e-003
1.367305e+003,9.569701e-003
1.369233e+003,9.528446e-003
1.371162e+003,9.378500e-003
1.373090e+003,9.449708e-003
1.375019e+003,9.571598e-003
1.376947e+003,9.626170e-003
1.378876e+003,9.806499e-003
1.380804e+003,9.893945e-003
1.382733e+003,9.810464e-003
1.384661e+003,9.685865e-003
1.386590e+003,9.500369e-003
1.388518e+003,9.352329e-003
1.390447e+003,9.225221e-003
1.392375e+003,8.895253e-003
1.394304e+003,8.638401e-003
1.396232e+003,8.579930e-003
1.398161e+003,8.518834e-003
1.400089e+003,8.567224e-003
1.402018e+003,8.542656e-003
1.403946e+003,8.478084e-003
1.405875e+003,8.377781e-003
1.407803e+003,8.288309e-003
1.409732e+003,8.104187e-003
1.411660e+003,7.847465e-003
1.413589e+003,7.820812e-003
1.415517e+003,8.100710e-003
1.417446e+003,8.441122e-003
1.419374e+003,8.923831e-003
1.421303e+003,9.501047e-003
1.423231e+003,1.012655e-002
1.425160e+003,1.090272e-002
1.427088e+003,1.155018e-002
1.429017e+003,1.193397e-002
1.430945e+003,1.214702e-002
1.432874e+003,1.237428e-002
1.434802e+003,1.268456e-002
1.436731e+003,1.304153e-002
1.438659e+003,1.358462e-002
1.440588e+003,1.410789e-002
1.442516e+003,1.469095e-002
1.444445e+003,1.519919e-002
1.446373e+003,1.582292e-002
1.448302e+003,1.658997e-002
1.450230e+003,1.722828e-002
1.452159e+003,1.786274e-002
1.454087e+003,1.860041e-002
1.456016e+003,1.908846e-002
1.457944e+003,1.949827e-002
1.459873e+003,1.985908e-002
1.461801e+003,2.016431e-002
1.463730e+003,2.035487e-002
1.465658e+003,2.049448e-002
1.467587e+003,2.051758e-002
1.469515e+003,2.049229e-002
1.471444e+003,2.033563e-002
1.473372e+003,2.003726e-002
1.475301e+003,1.971257e-002
1.477229e+003,1.923064e-002
1.479158e+003,1.866761e-002
1.481086e+003,1.802607e-002
1.483015e+003,1.738121e-002
1.484943e+003,1.679560e-002
1.486872e+003,1.630348e-002
1.488800e+003,1.583642e-002
1.490729e+003,1.523065e-002
1.492657e+003,1.467995e-002
1.494586e+003,1.422476e-002
1.496514e+003,1.369896e-002
1.498443e+003,1.317437e-002
1.500371e+003,1.270152e-002
1.502300e+003,1.227447e-002
1.504228e+003,1.174969e-002
1.506157e+003,1.139222e-002
1.508085e+003,1.130043e-002
1.510014e+003,1.101771e-002
1.511942e+003,1.085108e-002
1.513871e+003,1.071317e-002
1.515799e+003,1.042507e-002
1.517728e+003,1.039972e-002
1.519656e+003,1.043508e-002
1.521585e+003,1.046882e-002
1.523513e+003,1.067680e-002
1.525442e+003,1.102162e-002
1.527370e+003,1.123099e-002
1.529299e+003,1.126071e-002
1.531227e+003,1.144893e-002
1.533156e+003,1.178312e-002
1.535084e+003,1.210835e-002
1.537013e+003,1.238550e-002
1.538941e+003,1.265283e-002
1.540870e+003,1.303214e-002
1.542798e+003,1.341765e-002
1.544727e+003,1.381247e-002
1.546655e+003,1.414236e-002
1.548584e+003,1.441715e-002
1.550512e+003,1.481037e-002
1.552441e+003,1.512693e-002
1.554369e+003,1.539636e-002
1.556298e+003,1.565106e-002
1.558226e+003,1.598947e-002
1.560155e+003,1.669287e-002
1.562083e+003,1.725528e-002
1.564012e+003,1.776311e-002
1.565940e+003,1.819977e-002
1.567869e+003,1.841166e-002
1.569797e+003,1.862929e-002
1.571726e+003,1.897408e-002
1.573654e+003,1.916346e-002
1.575583e+003,1.923854e-002
1.577511e+003,1.923445e-002
1.579440e+003,1.917932e-002
1.581368e+003,1.914850e-002
1.583297e+003,1.889994e-002
1.585225e+003,1.862656e-002
1.587154e+003,1.840830e-002
1.589082e+003,1.794326e-002
1.591010e+003,1.732062e-002
1.592939e+003,1.676746e-002
1.594868e+003,1.624449e-002
1.596796e+003,1.571334e-002
1.598724e+003,1.520667e-002
1.600653e+003,1.448573e-002
1.602582e+003,1.376770e-002
1.604510e+003,1.313191e-002
1.606438e+003,1.262830e-002
1.608367e+003,1.207339e-002
1.610296e+003,1.160524e-002
1.612224e+003,1.114949e-002
1.614152e+003,1.073688e-002
1.616081e+003,1.030002e-002
1.618010e+003,1.010765e-002
1.619938e+003,9.869675e-003
1.621866e+003,9.599916e-003
1.623795e+003,9.341766e-003
1.625724e+003,9.241738e-003
1.627652e+003,9.127013e-003
1.629580e+003,8.922613e-003
1.631509e+003,8.689509e-003
1.633438e+003,8.513461e-003
1.635366e+003,8.353394e-003
1.637294e+003,8.106989e-003
1.639223e+003,7.671522e-003
1.641151e+003,7.294780e-003
1.643080e+003,6.872682e-003
1.645008e+003,6.440064e-003
1.646937e+003,6.100812e-003
1.648865e+003,5.773577e-003
1.650794e+003,5.444844e-003
1.652722e+003,5.236335e-003
1.654651e+003,4.894101e-003
1.656579e+003,4.597643e-003
1.658508e+003,4.243900e-003
1.660436e+003,4.008911e-003
1.662365e+003,3.769570e-003
1.664293e+003,3.509251e-003
1.666222e+003,3.377964e-003
1.668150e+003,3.126356e-003
1.670079e+003,2.726459e-003
1.672007e+003,2.553912e-003
1.673936e+003,2.400490e-003
1.675864e+003,2.188275e-003
1.677793e+003,1.858716e-003
1.679721e+003,1.703910e-003
1.681650e+003,1.553880e-003
1.683578e+003,1.414640e-003
1.685507e+003,1.321439e-003
1.687435e+003,1.152339e-003
1.689364e+003,1.031361e-003
1.691292e+003,9.257238e-004
1.693221e+003,7.943193e-004
1.695149e+003,8.224362e-004
1.697078e+003,9.399025e-004
1.699006e+003,8.501564e-004
1.700935e+003,8.111825e-004
1.702863e+003,8.879717e-004
1.704792e+003,9.797845e-004
1.706720e+003,1.058995e-003
1.708649e+003,9.932010e-004
1.710577e+003,9.257238e-004
1.712506e+003,8.170583e-004
1.714434e+003,7.353696e-004
1.716363e+003,7.115396e-004
1.718291e+003,7.542884e-004
1.720220e+003,7.304906e-004
1.722148e+003,6.602003e-004
1.724077e+003,7.028444e-004
1.726005e+003,7.107763e-004
1.727934e+003,6.487186e-004
1.729862e+003,7.033754e-004
1.731791e+003,6.843592e-004
1.733719e+003,5.698152e-004
1.735648e+003,5.608242e-004
1.737576e+003,4.730803e-004
1.739505e+003,5.246961e-004
1.741433e+003,6.796136e-004
1.743362e+003,6.813061e-004
1.745290e+003,6.531320e-004
1.747219e+003,6.871801e-004
1.749147e+003,6.830650e-004
1.751076e+003,6.619591e-004
1.753004e+003,6.212103e-004
1.754933e+003,5.738297e-004
1.756861e+003,5.309661e-004
1.758790e+003,4.937458e-004
1.760718e+003,5.179950e-004
1.762647e+003,5.415489e-004
1.764575e+003,5.846127e-004
1.766504e+003,6.434424e-004
1.768432e+003,6.817375e-004
1.770361e+003,5.623836e-004
1.772289e+003,5.632793e-004
1.774218e+003,5.845131e-004
1.776146e+003,5.835178e-004
1.778075e+003,6.446370e-004
1.780003e+003,5.963913e-004
1.781932e+003,4.725496e-004
1.783860e+003,4.237923e-004
1.785789e+003,4.804441e-004
1.787717e+003,5.870347e-004
1.789646e+003,6.229689e-004
1.791574e+003,5.593313e-004
1.793503e+003,4.641908e-004
1.795431e+003,3.986529e-004
1.797360e+003,4.069772e-004
1.799288e+003,4.285351e-004
1.801217e+003,4.060818e-004
1.803145e+003,4.452846e-004
1.805074e+003,5.043609e-004
1.807002e+003,5.671611e-004
1.808931e+003,5.574070e-004
1.810859e+003,6.351136e-004
1.812788e+003,6.834632e-004
1.814716e+003,6.092319e-004
1.816645e+003,5.190234e-004
1.818573e+003,4.671761e-004
1.820502e+003,4.219018e-004
1.822430e+003,4.265782e-004
1.824359e+003,4.671429e-004
1.826287e+003,3.853541e-004
1.828216e+003,2.574615e-004
1.830144e+003,3.511971e-004
1.832073e+003,5.221086e-004
1.834001e+003,5.185921e-004
1.835930e+003,3.600511e-004
1.837858e+003,3.598522e-004
1.839787e+003,4.235269e-004
1.841715e+003,4.109902e-004
1.843644e+003,3.469194e-004
1.845572e+003,3.518603e-004
1.847501e+003,4.172585e-004
1.849429e+003,4.427970e-004
1.851358e+003,4.164625e-004
1.853286e+003,4.714218e-004
1.855215e+003,5.626822e-004
1.857143e+003,5.386958e-004
1.859072e+003,5.043277e-004
1.861000e+003,5.452314e-004
1.862929e+003,6.023304e-004
1.864857e+003,6.355118e-004
1.866786e+003,4.966650e-004
1.868714e+003,4.359977e-004
1.870643e+003,5.053561e-004
1.872571e+003,5.907508e-004
1.874500e+003,6.515392e-004
1.876428e+003,6.139104e-004
1.878357e+003,5.681232e-004
1.880285e+003,5.684218e-004
1.882214e+003,5.316296e-004
1.884142e+003,5.195542e-004
1.886071e+003,5.564117e-004
1.887999e+003,5.332552e-004
1.889928e+003,5.018730e-004
1.891856e+003,5.333878e-004
1.893785e+003,5.911821e-004
1.895713e+003,6.310653e-004
1.897642e+003,6.692929e-004
1.899570e+003,6.655098e-004
1.901499e+003,6.751335e-004
1.903427e+003,7.204342e-004
1.905356e+003,6.476236e-004
1.907284e+003,7.076566e-004
1.909213e+003,8.013567e-004
1.911141e+003,7.896721e-004
1.913070e+003,7.636817e-004
1.914998e+003,7.711169e-004
1.916927e+003,7.725774e-004
1.918855e+003,7.262424e-004
1.920784e+003,6.852553e-004
1.922712e+003,6.728437e-004
1.924641e+003,7.738055e-004
1.926569e+003,7.985019e-004
1.928498e+003,7.378256e-004
1.930426e+003,7.121370e-004
1.932355e+003,7.437335e-004
1.934283e+003,7.961451e-004
1.936212e+003,8.032488e-004
1.938140e+003,7.594663e-004
1.940069e+003,7.277690e-004
1.941997e+003,7.652417e-004
1.943926e+003,8.551695e-004
1.945854e+003,8.517168e-004
1.947783e+003,7.503054e-004
1.949711e+003,7.229234e-004
1.951640e+003,7.644119e-004
1.953568e+003,7.491769e-004
1.955497e+003,7.877136e-004
1.957425e+003,8.277809e-004
1.959354e+003,7.476833e-004
1.961282e+003,7.428374e-004
1.963211e+003,7.587693e-004
1.965139e+003,7.835644e-004
1.967068e+003,7.688266e-004
1.968996e+003,7.776559e-004
1.970925e+003,8.452098e-004
1.972853e+003,8.102199e-004
1.974782e+003,7.823694e-004
1.976710e+003,8.585890e-004
1.978639e+003,8.883701e-004
1.980567e+003,8.845519e-004
1.982496e+003,8.657602e-004
1.984424e+003,7.954480e-004
1.986353e+003,8.178218e-004
1.988281e+003,9.079265e-004
1.990210e+003,9.609223e-004
1.992138e+003,1.019238e-003
1.994067e+003,1.045908e-003
1.995995e+003,1.027375e-003
1.997924e+003,1.039066e-003
1.999852e+003,1.026412e-003
2.001781e+003,9.762976e-004
2.003709e+003,9.827734e-004
2.005638e+003,1.057733e-003
2.007566e+003,9.900130e-004
2.009495e+003,9.096530e-004
2.011423e+003,9.105827e-004
2.013352e+003,1.070288e-003
2.015280e+003,1.137223e-003
2.017208e+003,1.057500e-003
2.019137e+003,1.073278e-003
2.021066e+003,1.085003e-003
2.022994e+003,1.156791e-003
2.024922e+003,1.231979e-003
2.026851e+003,1.229886e-003
2.028780e+003,1.189250e-003
2.030708e+003,1.253312e-003
2.032636e+003,1.359329e-003
2.034565e+003,1.348593e-003
2.036494e+003,1.293988e-003
2.038422e+003,1.349889e-003
2.040350e+003,1.476176e-003
2.042279e+003,1.471288e-003
2.044208e+003,1.448449e-003
2.046136e+003,1.496024e-003
2.048064e+003,1.560863e-003
2.049993e+003,1.570075e-003
2.051921e+003,1.509922e-003
2.053850e+003,1.561828e-003
2.055778e+003,1.633096e-003
2.057707e+003,1.640845e-003
2.059635e+003,1.762359e-003
2.061564e+003,1.853325e-003
2.063492e+003,1.874023e-003
2.065421e+003,1.881411e-003
2.067349e+003,1.905305e-003
2.069278e+003,1.860347e-003
2.071206e+003,1.821016e-003
2.073135e+003,1.883441e-003
2.075063e+003,2.004490e-003
2.076992e+003,2.052426e-003
2.078920e+003,2.079925e-003
2.080849e+003,2.077928e-003
2.082777e+003,2.153809e-003
2.084706e+003,2.223176e-003
2.086634e+003,2.199198e-003
2.088563e+003,2.176686e-003
2.090491e+003,2.297151e-003
2.092420e+003,2.361343e-003
2.094348e+003,2.369672e-003
2.096277e+003,2.410452e-003
2.098205e+003,2.423447e-003
2.100134e+003,2.383732e-003
2.102062e+003,2.477961e-003
2.103991e+003,2.528882e-003
2.105919e+003,2.531048e-003
2.107848e+003,2.609809e-003
2.109776e+003,2.624743e-003
2.111705e+003,2.624043e-003
2.113633e+003,2.756669e-003
2.115562e+003,2.833336e-003
2.117490e+003,2.896040e-003
2.119419e+003,2.932733e-003
2.121347e+003,2.941173e-003
2.123276e+003,3.044332e-003
2.125204e+003,3.057545e-003
2.127133e+003,3.049837e-003
2.129061e+003,3.091315e-003
2.130990e+003,3.144912e-003
2.132918e+003,3.200050e-003
2.134847e+003,3.232930e-003
2.136775e+003,3.267515e-003
2.138704e+003,3.322369e-003
2.140632e+003,3.350416e-003
2.142561e+003,3.321634e-003
2.144489e+003,3.274526e-003
2.146418e+003,3.354223e-003
2.148346e+003,3.443786e-003
2.150275e+003,3.488709e-003
2.152203e+003,3.490679e-003
2.154132e+003,3.470973e-003
2.156060e+003,3.509418e-003
2.157989e+003,3.443887e-003
2.159917e+003,3.379133e-003
2.161846e+003,3.468802e-003
2.163774e+003,3.558623e-003
2.165703e+003,3.541753e-003
2.167631e+003,3.572153e-003
2.169560e+003,3.674125e-003
2.171488e+003,3.760279e-003
2.173417e+003,3.736918e-003
2.175345e+003,3.717467e-003
2.177274e+003,3.760613e-003
2.179202e+003,3.770841e-003
2.181131e+003,3.723149e-003
2.183059e+003,3.617924e-003
2.184988e+003,3.642883e-003
2.186916e+003,3.719239e-003
2.188845e+003,3.746342e-003
2.190773e+003,3.757371e-003
2.192702e+003,3.816298e-003
2.194630e+003,3.807106e-003
2.196559e+003,3.694509e-003
2.198487e+003,3.543123e-003
2.200416e+003,3.568779e-003
2.202344e+003,3.628549e-003
2.204273e+003,3.648563e-003
2.206201e+003,3.658821e-003
2.208130e+003,3.555884e-003
2.210058e+003,3.478221e-003
2.211987e+003,3.494754e-003
2.213915e+003,3.595740e-003
2.215844e+003,3.567677e-003
2.217772e+003,3.541452e-003
2.219701e+003,3.588222e-003
2.221629e+003,3.532901e-003
2.223558e+003,3.469036e-003
2.225486e+003,3.449397e-003
2.227415e+003,3.460886e-003
2.229343e+003,3.479423e-003
2.231272e+003,3.430962e-003
2.233200e+003,3.301435e-003
2.235129e+003,3.367445e-003
2.237057e+003,3.460185e-003
2.238986e+003,3.355024e-003
2.240914e+003,3.278832e-003
2.242843e+003,3.302436e-003
2.244771e+003,3.262707e-003
2.246700e+003,3.184997e-003
2.248628e+003,3.220279e-003
2.250557e+003,3.222048e-003
2.252485e+003,3.172313e-003
2.254414e+003,3.144478e-003
2.256342e+003,3.213603e-003
2.258271e+003,3.225286e-003
2.260199e+003,3.149484e-003
2.262128e+003,3.099958e-003
2.264056e+003,3.160932e-003
2.265985e+003,3.281770e-003
2.267913e+003,3.215939e-003
2.269842e+003,3.135300e-003
2.271770e+003,3.110036e-003
2.273699e+003,3.062250e-003
2.275627e+003,3.095620e-003
2.277556e+003,3.104864e-003
2.279484e+003,3.028883e-003
2.281413e+003,3.021509e-003
2.283341e+003,2.992382e-003
2.285270e+003,2.992382e-003
2.287198e+003,3.160465e-003
2.289127e+003,3.177020e-003
2.291055e+003,3.143143e-003
2.292984e+003,3.117779e-003
2.294912e+003,3.023144e-003
2.296841e+003,2.950914e-003
2.298769e+003,2.959054e-003
2.300698e+003,3.035456e-003
2.302626e+003,3.064920e-003
2.304555e+003,3.104797e-003
2.306483e+003,3.155325e-003
2.308412e+003,3.255330e-003
2.310340e+003,3.283773e-003
2.312269e+003,3.283873e-003
2.314197e+003,3.339965e-003
2.316125e+003,3.414197e-003
2.318054e+003,3.387147e-003
2.319983e+003,3.368614e-003
2.321911e+003,3.446425e-003
2.323840e+003,3.599782e-003
2.325768e+003,3.698219e-003
2.327697e+003,3.702630e-003
2.329625e+003,3.783608e-003
2.331553e+003,3.830505e-003
2.333482e+003,3.864168e-003
2.335411e+003,3.918395e-003
2.337339e+003,3.939158e-003
2.339268e+003,3.903550e-003
2.341196e+003,3.867644e-003
2.343125e+003,3.843141e-003
2.345053e+003,3.786349e-003
2.346981e+003,3.712154e-003
2.348910e+003,3.605662e-003
2.350839e+003,3.700157e-003
2.352767e+003,3.882688e-003
2.354696e+003,4.045899e-003
2.356624e+003,4.284421e-003
2.358552e+003,4.417355e-003
2.360481e+003,4.486314e-003
2.362409e+003,4.400150e-003
2.364338e+003,4.283083e-003
2.366267e+003,4.304532e-003
2.368195e+003,4.287299e-003
2.370124e+003,4.233962e-003
2.372052e+003,4.283885e-003
2.373980e+003,4.271639e-003
2.375909e+003,4.087706e-003
2.377838e+003,4.093158e-003
2.379766e+003,4.231654e-003
2.381695e+003,4.204118e-003
2.383623e+003,4.271639e-003
2.385552e+003,4.430543e-003
2.387480e+003,4.449958e-003
2.389408e+003,4.550396e-003
2.391337e+003,4.637762e-003
2.393266e+003,4.619644e-003
2.395194e+003,4.703507e-003
2.397123e+003,4.768928e-003
2.399051e+003,4.794489e-003
2.400979e+003,4.828394e-003
2.402908e+003,4.870142e-003
2.404836e+003,4.938839e-003
2.406765e+003,4.940045e-003
2.408694e+003,4.936325e-003
2.410622e+003,4.971515e-003
2.412551e+003,5.026484e-003
2.414479e+003,5.084041e-003
2.416407e+003,5.088500e-003
2.418336e+003,5.084745e-003
2.420264e+003,5.091551e-003
2.422193e+003,5.167055e-003
2.424122e+003,5.271348e-003
2.426050e+003,5.354129e-003
2.427979e+003,5.481485e-003
2.429907e+003,5.545445e-003
2.431835e+003,5.566118e-003
2.433764e+003,5.604112e-003
2.435692e+003,5.729426e-003
2.437621e+003,5.792247e-003
2.439550e+003,5.772537e-003
2.441478e+003,5.727008e-003
2.443406e+003,5.696189e-003
2.445335e+003,5.708140e-003
2.447263e+003,5.775156e-003
2.449192e+003,5.846078e-003
2.451121e+003,5.928128e-003
2.453049e+003,5.869183e-003
2.454978e+003,5.865523e-003
2.456906e+003,5.940859e-003
2.458834e+003,6.001662e-003
2.460763e+003,6.070537e-003
2.462691e+003,6.070134e-003
2.464620e+003,6.195079e-003
2.466549e+003,6.364170e-003
2.468477e+003,6.363363e-003
2.470406e+003,6.397425e-003
2.472334e+003,6.377754e-003
2.474262e+003,6.398333e-003
2.476191e+003,6.555528e-003
2.478119e+003,6.595290e-003
2.480048e+003,6.617864e-003
2.481977e+003,6.702652e-003
2.483905e+003,6.769047e-003
2.485833e+003,6.799876e-003
2.487762e+003,6.830841e-003
2.489690e+003,6.952369e-003
2.491619e+003,7.047022e-003
2.493547e+003,7.140887e-003
2.495476e+003,7.160491e-003
2.497405e+003,7.133577e-003
2.499333e+003,7.159278e-003
2.501261e+003,7.314357e-003
2.503190e+003,7.344315e-003
2.505118e+003,7.254213e-003
2.507047e+003,7.199332e-003
2.508975e+003,7.267487e-003
2.510904e+003,7.417313e-003
2.512833e+003,7.490324e-003
2.514761e+003,7.501179e-003
2.516689e+003,7.481155e-003
2.518618e+003,7.459783e-003
2.520546e+003,7.504617e-003
2.522475e+003,7.507584e-003
2.524403e+003,7.455637e-003
2.526332e+003,7.514158e-003
2.528260e+003,7.672095e-003
2.530189e+003,7.684202e-003
2.532117e+003,7.656042e-003
2.534046e+003,7.693848e-003
2.535974e+003,7.774933e-003
2.537903e+003,7.741438e-003
2.539831e+003,7.702988e-003
2.541760e+003,7.776013e-003
2.543688e+003,7.777497e-003
2.545617e+003,7.748285e-003
2.547545e+003,7.846149e-003
2.549474e+003,7.938905e-003
2.551402e+003,8.019664e-003
2.553331e+003,7.962527e-003
2.555259e+003,7.844866e-003
2.557188e+003,7.805091e-003
2.559116e+003,7.752063e-003
2.561045e+003,7.863963e-003
2.562973e+003,8.071139e-003
2.564902e+003,8.040085e-003
2.566830e+003,7.954597e-003
2.568759e+003,7.988851e-003
2.570687e+003,8.034245e-003
2.572616e+003,8.062970e-003
2.574544e+003,8.081738e-003
2.576473e+003,7.992799e-003
2.578401e+003,8.026516e-003
2.580330e+003,8.120695e-003
2.582258e+003,8.100203e-003
2.584187e+003,8.113234e-003
2.586115e+003,8.168973e-003
2.588044e+003,8.229481e-003
2.589972e+003,8.286249e-003
2.591901e+003,8.239747e-003
2.593829e+003,8.302189e-003
2.595758e+003,8.458353e-003
2.597686e+003,8.466327e-003
2.599615e+003,8.435075e-003
2.601543e+003,8.392746e-003
2.603472e+003,8.321914e-003
2.605400e+003,8.345963e-003
2.607329e+003,8.452339e-003
2.609257e+003,8.559113e-003
2.611186e+003,8.561242e-003
2.613114e+003,8.509101e-003
2.615043e+003,8.596728e-003
2.616971e+003,8.763444e-003
2.618900e+003,8.757629e-003
2.620828e+003,8.787110e-003
2.622757e+003,8.958365e-003
2.624685e+003,9.041209e-003
2.626614e+003,8.976833e-003
2.628542e+003,8.895794e-003
2.630471e+003,8.787550e-003
2.632399e+003,8.785048e-003
2.634328e+003,8.796882e-003
2.636256e+003,8.857071e-003
2.638185e+003,8.968715e-003
2.640113e+003,9.078627e-003
2.642042e+003,9.091214e-003
2.643970e+003,9.143289e-003
2.645899e+003,9.234393e-003
2.647827e+003,9.281103e-003
2.649756e+003,9.298740e-003
2.651684e+003,9.280358e-003
2.653613e+003,9.319728e-003
2.655541e+003,9.409210e-003
2.657470e+003,9.428374e-003
2.659398e+003,9.414153e-003
2.661327e+003,9.482997e-003
2.663255e+003,9.573190e-003
2.665184e+003,9.573935e-003
2.667112e+003,9.588907e-003
2.669041e+003,9.621461e-003
2.670969e+003,9.643752e-003
2.672898e+003,9.658184e-003
2.674826e+003,9.778777e-003
2.676755e+003,9.840831e-003
2.678683e+003,9.808193e-003
2.680612e+003,9.861168e-003
2.682540e+003,9.900793e-003
2.684469e+003,9.904861e-003
2.686397e+003,1.002081e-002
2.688326e+003,1.007157e-002
2.690254e+003,1.009344e-002
2.692183e+003,1.019842e-002
2.694111e+003,1.022732e-002
2.696040e+003,1.035170e-002
2.697968e+003,1.046943e-002
2.699897e+003,1.043040e-002
2.701825e+003,1.032222e-002
2.703754e+003,1.036192e-002
2.705682e+003,1.044995e-002
2.707611e+003,1.053613e-002
2.709539e+003,1.066505e-002
2.711468e+003,1.077414e-002
2.713396e+003,1.079320e-002
2.715325e+003,1.078025e-002
2.717253e+003,1.079092e-002
2.719182e+003,1.072676e-002
2.721110e+003,1.080288e-002
2.723039e+003,1.091692e-002
2.724967e+003,1.103504e-002
2.726896e+003,1.111577e-002
2.728824e+003,1.113464e-002
2.730753e+003,1.116139e-002
2.732681e+003,1.127608e-002
2.734610e+003,1.139794e-002
2.736538e+003,1.145570e-002
2.738467e+003,1.150054e-002
2.740395e+003,1.168750e-002
2.742324e+003,1.176665e-002
2.744252e+003,1.183505e-002
2.746181e+003,1.188738e-002
2.748109e+003,1.196510e-002
2.750038e+003,1.207254e-002
2.751966e+003,1.213608e-002
2.753895e+003,1.224165e-002
2.755823e+003,1.235676e-002
2.757752e+003,1.243006e-002
2.759680e+003,1.256189e-002
2.761609e+003,1.286033e-002
2.763537e+003,1.315411e-002
2.765466e+003,1.319506e-002
2.767394e+003,1.339940e-002
2.769323e+003,1.364384e-002
2.771251e+003,1.390644e-002
2.773180e+003,1.433831e-002
2.775108e+003,1.480400e-002
2.777037e+003,1.517383e-002
2.778965e+003,1.562403e-002
2.780894e+003,1.616583e-002
2.782822e+003,1.669129e-002
2.784750e+003,1.723287e-002
2.786679e+003,1.786377e-002
2.788608e+003,1.854895e-002
2.790536e+003,1.915913e-002
2.792465e+003,1.987989e-002
2.794393e+003,2.049684e-002
2.796322e+003,2.099099e-002
2.798250e+003,2.159305e-002
2.800178e+003,2.228152e-002
2.802107e+003,2.288488e-002
2.804036e+003,2.336116e-002
2.805964e+003,2.382008e-002
2.807893e+003,2.410092e-002
2.809821e+003,2.428113e-002
2.811750e+003,2.457461e-002
2.813678e+003,2.471846e-002
2.815606e+003,2.467862e-002
2.817535e+003,2.461854e-002
2.819464e+003,2.455494e-002
2.821392e+003,2.441401e-002
2.823321e+003,2.414817e-002
2.825249e+003,2.377181e-002
2.827177e+003,2.348985e-002
2.829106e+003,2.325271e-002
2.831034e+003,2.289414e-002
2.832963e+003,2.245905e-002
2.834892e+003,2.208283e-002
2.836820e+003,2.162804e-002
2.838749e+003,2.111487e-002
2.840677e+003,2.066524e-002
2.842605e+003,2.010989e-002
2.844534e+003,1.956520e-002
2.846462e+003,1.918091e-002
2.848391e+003,1.870265e-002
2.850320e+003,1.828674e-002
2.852248e+003,1.796346e-002
2.854177e+003,1.767734e-002
2.856105e+003,1.729889e-002
2.858033e+003,1.703371e-002
2.859962e+003,1.704750e-002
2.861890e+003,1.691064e-002
2.863819e+003,1.677662e-002
2.865748e+003,1.682177e-002
2.867676e+003,1.682077e-002
2.869604e+003,1.677104e-002
2.871533e+003,1.683820e-002
2.873461e+003,1.694692e-002
2.875390e+003,1.700901e-002
2.877319e+003,1.706852e-002
2.879247e+003,1.723759e-002
2.881176e+003,1.741190e-002
2.883104e+003,1.740162e-002
2.885032e+003,1.731113e-002
2.886961e+003,1.738152e-002
2.888889e+003,1.741918e-002
2.890818e+003,1.733899e-002
2.892747e+003,1.723694e-002
2.894675e+003,1.709361e-002
2.896604e+003,1.699089e-002
2.898532e+003,1.694427e-002
2.900460e+003,1.690544e-002
2.902389e+003,1.681936e-002
2.904317e+003,1.676532e-002
2.906246e+003,1.672910e-002
2.908175e+003,1.668241e-002
2.910103e+003,1.667301e-002
2.912031e+003,1.665548e-002
2.913960e+003,1.665972e-002
2.915888e+003,1.664763e-002
2.917817e+003,1.667645e-002
2.919745e+003,1.675734e-002
2.921674e+003,1.676719e-002
2.923603e+003,1.663248e-002
2.925531e+003,1.670079e-002
2.927459e+003,1.690203e-002
2.929388e+003,1.703251e-002
2.931316e+003,1.724287e-002
2.933245e+003,1.733110e-002
2.935173e+003,1.743608e-002
2.937102e+003,1.756299e-002
2.939031e+003,1.760398e-002
2.940959e+003,1.752580e-002
2.942887e+003,1.734876e-002
2.944816e+003,1.711984e-002
2.946744e+003,1.692742e-002
2.948673e+003,1.668850e-002
2.950601e+003,1.632935e-002
2.952530e+003,1.602141e-002
2.954458e+003,1.563949e-002
2.956387e+003,1.511533e-002
2.958315e+003,1.462549e-002
2.960244e+003,1.419676e-002
2.962172e+003,1.366503e-002
2.964101e+003,1.324917e-002
2.966029e+003,1.283217e-002
2.967958e+003,1.229785e-002
2.969886e+003,1.177706e-002
2.971815e+003,1.121457e-002
2.973743e+003,1.076147e-002
2.975672e+003,1.042534e-002
2.977600e+003,1.022630e-002
2.979529e+003,1.006492e-002
2.981457e+003,9.580540e-003
2.983386e+003,9.158449e-003
2.985314e+003,8.872086e-003
2.987243e+003,8.708878e-003
2.989171e+003,8.657734e-003
2.991100e+003,8.535762e-003
2.993028e+003,8.309113e-003
2.994957e+003,8.095173e-003
2.996885e+003,7.909142e-003
2.998814e+003,7.832822e-003
3.000742e+003,7.694995e-003
3.002671e+003,7.565808e-003
3.004599e+003,7.534285e-003
3.006528e+003,7.526496e-003
3.008456e+003,7.478087e-003
3.010385e+003,7.369590e-003
3.012313e+003,7.364265e-003
3.014242e+003,7.324466e-003
3.016170e+003,7.255021e-003
3.018099e+003,7.344787e-003
3.020027e+003,7.303440e-003
3.021956e+003,7.086761e-003
3.023884e+003,7.020317e-003
3.025813e+003,6.964287e-003
3.027741e+003,6.848479e-003
3.029670e+003,6.844372e-003
3.031598e+003,6.910049e-003
3.033527e+003,6.856490e-003
3.035455e+003,6.789241e-003
3.037384e+003,6.695518e-003
3.039312e+003,6.547758e-003
3.041241e+003,6.469592e-003
3.043169e+003,6.419450e-003
3.045098e+003,6.473459e-003
3.047026e+003,6.499323e-003
3.048955e+003,6.321672e-003
3.050883e+003,6.184760e-003
3.052812e+003,6.145843e-003
3.054740e+003,6.190709e-003
3.056669e+003,6.157470e-003
3.058597e+003,6.025751e-003
3.060526e+003,5.899209e-003
3.062454e+003,5.869116e-003
3.064383e+003,5.878386e-003
3.066311e+003,5.825357e-003
3.068240e+003,5.806720e-003
3.070168e+003,5.673461e-003
3.072097e+003,5.494202e-003
3.074025e+003,5.469036e-003
3.075954e+003,5.536451e-003
3.077882e+003,5.531283e-003
3.079811e+003,5.449206e-003
3.081739e+003,5.252567e-003
3.083668e+003,5.163534e-003
3.085596e+003,5.139494e-003
3.087525e+003,5.110727e-003
3.089453e+003,5.188850e-003
3.091382e+003,5.153274e-003
3.093310e+003,4.987301e-003
3.095239e+003,4.966387e-003
3.097167e+003,4.886193e-003
3.099096e+003,4.771942e-003
3.101024e+003,4.752312e-003
3.102953e+003,4.731643e-003
3.104881e+003,4.651694e-003
3.106810e+003,4.607287e-003
3.108738e+003,4.578154e-003
3.110667e+003,4.522271e-003
3.112595e+003,4.552438e-003
3.114524e+003,4.516211e-003
3.116452e+003,4.351652e-003
3.118381e+003,4.315843e-003
3.120309e+003,4.187022e-003
3.122238e+003,4.033959e-003
3.124166e+003,4.005232e-003
3.126095e+003,3.973297e-003
3.128023e+003,3.986205e-003
3.129952e+003,4.105199e-003
3.131880e+003,4.102791e-003
3.133809e+003,3.989750e-003
3.135737e+003,3.910604e-003
3.137666e+003,3.986205e-003
3.139594e+003,4.018074e-003
3.141523e+003,3.984299e-003
3.143451e+003,3.961962e-003
3.145380e+003,3.850562e-003
3.147308e+003,3.918495e-003
3.149237e+003,3.868480e-003
3.151165e+003,3.693039e-003
3.153094e+003,3.597911e-003
3.155022e+003,3.603123e-003
3.156951e+003,3.743368e-003
3.158879e+003,3.857381e-003
3.160808e+003,3.874531e-003
3.162736e+003,3.752626e-003
3.164665e+003,3.693406e-003
3.166593e+003,3.668044e-003
3.168522e+003,3.587955e-003
3.170450e+003,3.612344e-003
3.172379e+003,3.815061e-003
3.174307e+003,3.936282e-003
3.176236e+003,3.952131e-003
3.178164e+003,3.851531e-003
3.180093e+003,3.747913e-003
3.182021e+003,3.775219e-003
3.183950e+003,3.840500e-003
3.185878e+003,3.760179e-003
3.187807e+003,3.653341e-003
3.189735e+003,3.638272e-003
3.191664e+003,3.653842e-003
3.193592e+003,3.604560e-003
3.195521e+003,3.652807e-003
3.197449e+003,3.809446e-003
3.199378e+003,3.714025e-003
3.201306e+003,3.628081e-003
3.203235e+003,3.664234e-003
3.205163e+003,3.751957e-003
3.207092e+003,3.704936e-003
3.209020e+003,3.775353e-003
3.210948e+003,3.906693e-003
3.212877e+003,3.873361e-003
3.214806e+003,3.868179e-003
3.216734e+003,3.889843e-003
3.218663e+003,3.816699e-003
3.220591e+003,3.828332e-003
3.222520e+003,3.954037e-003
3.224448e+003,4.072220e-003
3.226376e+003,4.212047e-003
3.228305e+003,4.305168e-003
3.230234e+003,4.412535e-003
3.232162e+003,4.439782e-003
3.234091e+003,4.403966e-003
3.236019e+003,4.480020e-003
3.237948e+003,4.523844e-003
3.239876e+003,4.578255e-003
3.241804e+003,4.781255e-003
3.243733e+003,4.833654e-003
3.245662e+003,4.923691e-003
3.247590e+003,4.977648e-003
3.249519e+003,4.984251e-003
3.251447e+003,4.950568e-003
3.253375e+003,5.024573e-003
3.255304e+003,5.189689e-003
3.257232e+003,5.337558e-003
3.259161e+003,5.454876e-003
3.261090e+003,5.426626e-003
3.263018e+003,5.382174e-003
3.264947e+003,5.363253e-003
3.266875e+003,5.406261e-003
3.268803e+003,5.526048e-003
3.270732e+003,5.680410e-003
3.272660e+003,5.862298e-003
3.274589e+003,5.845507e-003
3.276518e+003,5.861963e-003
3.278446e+003,6.031327e-003
3.280375e+003,6.034620e-003
3.282303e+003,6.018191e-003
3.284231e+003,6.004921e-003
3.286160e+003,5.994876e-003
3.288088e+003,5.951138e-003
3.290017e+003,5.798157e-003
3.291946e+003,5.598674e-003
3.293874e+003,5.442428e-003
3.295802e+003,5.478867e-003
3.297731e+003,5.617437e-003
3.299659e+003,5.574979e-003
3.301588e+003,5.400155e-003
3.303516e+003,5.226743e-003
3.305445e+003,5.007244e-003
3.307374e+003,4.822631e-003
3.309302e+003,4.702469e-003
3.311230e+003,4.543532e-003
3.313159e+003,4.400518e-003
3.315087e+003,4.293958e-003
3.317016e+003,4.237677e-003
3.318944e+003,4.145975e-003
3.320873e+003,4.104530e-003
3.322802e+003,3.851899e-003
3.324730e+003,3.549436e-003
3.326658e+003,3.503506e-003
3.328587e+003,3.619661e-003
3.330515e+003,3.694710e-003
3.332444e+003,3.561730e-003
3.334372e+003,3.330783e-003
3.336301e+003,3.109503e-003
3.338229e+003,3.017739e-003
3.340158e+003,3.052540e-003
3.342086e+003,2.978703e-003
3.344015e+003,3.021242e-003
3.345943e+003,2.974433e-003
3.347872e+003,2.702053e-003
3.349800e+003,2.668180e-003
3.351729e+003,2.742631e-003
3.353657e+003,2.542247e-003
3.355586e+003,2.299349e-003
3.357514e+003,2.061482e-003
3.359443e+003,2.025761e-003
3.361371e+003,2.199864e-003
3.363300e+003,2.184379e-003
3.365229e+003,1.984285e-003
3.367157e+003,1.870097e-003
3.369085e+003,1.664260e-003
3.371014e+003,1.544038e-003
3.372942e+003,1.657874e-003
3.374871e+003,1.588165e-003
3.376799e+003,1.500413e-003
3.378728e+003,1.310006e-003
3.380656e+003,1.075104e-003
3.382585e+003,9.005886e-004
3.384513e+003,7.564126e-004
3.386442e+003,6.618263e-004
3.388370e+003,7.305570e-004
3.390299e+003,6.733747e-004
3.392227e+003,5.040623e-004
3.394156e+003,4.782549e-004
3.396084e+003,5.209475e-004
3.398013e+003,4.832637e-004
3.399941e+003,3.834638e-004
3.401870e+003,3.285157e-004
3.403798e+003,3.673136e-004
3.405727e+003,3.088528e-004
3.407655e+003,2.469188e-004
3.409584e+003,1.788944e-004
3.411512e+003,1.081630e-004
3.413441e+003,-2.034382e-005
3.415369e+003,-2.832868e-005
3.417298e+003,7.657952e-005
3.419226e+003,6.044069e-005
3.421155e+003,-1.055522e-004
3.423083e+003,-1.347021e-004
3.425012e+003,-1.809404e-004
3.426940e+003,-3.495890e-004
3.428869e+003,-3.245923e-004
3.430797e+003,-1.395382e-004
3.432726e+003,-2.389632e-004
3.434654e+003,-5.330645e-004
3.436583e+003,-6.980368e-004
3.438511e+003,-5.560969e-004
3.440440e+003,-3.270755e-004
3.442368e+003,-2.107476e-004
3.444297e+003,-2.536995e-004
3.446225e+003,-2.982033e-004
3.448154e+003,-4.064307e-004
3.450082e+003,-5.938197e-004
3.452011e+003,-6.945964e-004
3.453939e+003,-7.429583e-004
3.455868e+003,-9.498412e-004
3.457796e+003,-9.020314e-004
3.459725e+003,-8.023612e-004
3.461653e+003,-7.427598e-004
3.463582e+003,-7.945890e-004
3.465510e+003,-9.099339e-004
3.467439e+003,-1.008786e-003
3.469367e+003,-1.070367e-003
3.471296e+003,-1.005580e-003
3.473224e+003,-1.031562e-003
3.475153e+003,-1.235796e-003
3.477081e+003,-1.111813e-003
3.479010e+003,-9.466673e-004
3.480938e+003,-8.396658e-004
3.482867e+003,-8.720402e-004
3.484795e+003,-9.682892e-004
3.486724e+003,-1.038603e-003
3.488652e+003,-1.093338e-003
3.490581e+003,-1.201566e-003
3.492509e+003,-1.169150e-003
3.494438e+003,-9.915299e-004
3.496366e+003,-9.102316e-004
3.498295e+003,-1.070202e-003
3.500223e+003,-1.203515e-003
3.502152e+003,-1.187357e-003
3.504080e+003,-1.168258e-003
3.506009e+003,-1.062302e-003
3.507937e+003,-9.939763e-004
3.509866e+003,-1.038503e-003
3.511794e+003,-1.098296e-003
3.513723e+003,-1.194296e-003
3.515651e+003,-1.364071e-003
3.517580e+003,-1.306529e-003
3.519508e+003,-1.243396e-003
3.521437e+003,-1.221655e-003
3.523365e+003,-1.319776e-003
3.525294e+003,-1.481874e-003
3.527222e+003,-1.464240e-003
3.529151e+003,-1.202821e-003
3.531079e+003,-1.152660e-003
3.533008e+003,-1.357829e-003
3.534936e+003,-1.415727e-003
3.536865e+003,-1.419063e-003
3.538793e+003,-1.351256e-003
3.540722e+003,-1.269132e-003
3.542650e+003,-1.253803e-003
3.544579e+003,-1.243230e-003
3.546507e+003,-1.346466e-003
3.548436e+003,-1.388315e-003
3.550364e+003,-1.399247e-003
3.552293e+003,-1.368564e-003
3.554221e+003,-1.426461e-003
3.556150e+003,-1.458659e-003
3.558078e+003,-1.472331e-003
3.560007e+003,-1.470118e-003
3.561935e+003,-1.372527e-003
3.563864e+003,-1.640347e-003
3.565792e+003,-1.671506e-003
3.567721e+003,-1.402087e-003
3.569649e+003,-1.494455e-003
3.571578e+003,-1.725502e-003
3.573506e+003,-1.703125e-003
3.575435e+003,-1.516842e-003
3.577363e+003,-1.483822e-003
3.579292e+003,-1.532690e-003
3.581220e+003,-1.772627e-003
3.583149e+003,-1.898500e-003
3.585077e+003,-1.635791e-003
3.587006e+003,-1.529455e-003
3.588934e+003,-1.551411e-003
3.590863e+003,-1.566796e-003
3.592791e+003,-1.715337e-003
3.594720e+003,-1.923737e-003
3.596648e+003,-1.819285e-003
3.598577e+003,-1.473090e-003
3.600505e+003,-1.391717e-003
3.602434e+003,-1.598456e-003
3.604362e+003,-1.627704e-003
3.606291e+003,-1.854193e-003
3.608219e+003,-1.866862e-003
3.610148e+003,-1.742564e-003
3.612076e+003,-1.867159e-003
3.614005e+003,-1.879663e-003
3.615933e+003,-1.896026e-003
3.617862e+003,-1.663254e-003
3.619790e+003,-1.421408e-003
3.621719e+003,-1.600074e-003
3.623647e+003,-1.771439e-003
3.625576e+003,-1.769261e-003
3.627504e+003,-1.626681e-003
3.629433e+003,-1.412359e-003
3.631361e+003,-1.676556e-003
3.633290e+003,-1.884018e-003
3.635218e+003,-1.910409e-003
3.637146e+003,-2.024733e-003
3.639075e+003,-2.043168e-003
3.641004e+003,-1.908100e-003
3.642932e+003,-2.017609e-003
3.644861e+003,-2.292315e-003
3.646789e+003,-2.268089e-003
3.648718e+003,-2.146181e-003
3.650646e+003,-2.002273e-003
3.652574e+003,-1.990927e-003
3.654503e+003,-2.155643e-003
3.656432e+003,-2.101141e-003
3.658360e+003,-2.248543e-003
3.660289e+003,-2.381330e-003
3.662217e+003,-2.415534e-003
3.664146e+003,-2.570867e-003
3.666074e+003,-2.588982e-003
3.668002e+003,-2.521621e-003
3.669931e+003,-2.374838e-003
3.671860e+003,-2.575807e-003
3.673788e+003,-2.769374e-003
3.675717e+003,-2.343070e-003
3.677645e+003,-2.119474e-003
3.679573e+003,-2.250949e-003
3.681502e+003,-2.285031e-003
3.683430e+003,-2.339873e-003
3.685359e+003,-2.370258e-003
3.687288e+003,-2.270924e-003
3.689216e+003,-2.098568e-003
3.691145e+003,-2.113242e-003
3.693073e+003,-2.171469e-003
3.695001e+003,-2.334106e-003
3.696930e+003,-2.244456e-003
3.698858e+003,-2.306554e-003
3.700787e+003,-2.170480e-003
3.702716e+003,-1.904636e-003
3.704644e+003,-1.997688e-003
3.706573e+003,-2.190227e-003
3.708501e+003,-2.252399e-003
3.710429e+003,-2.008869e-003
3.712358e+003,-1.780910e-003
3.714286e+003,-1.973083e-003
3.716215e+003,-2.234995e-003
3.718144e+003,-2.034528e-003
3.720072e+003,-1.975920e-003
3.722000e+003,-2.159863e-003
3.723929e+003,-2.312387e-003
3.725857e+003,-1.947487e-003
3.727786e+003,-1.579011e-003
3.729714e+003,-1.769723e-003
3.731643e+003,-2.105823e-003
3.733572e+003,-2.221644e-003
3.735500e+003,-1.942209e-003
3.737428e+003,-1.886756e-003
3.739357e+003,-2.054513e-003
3.741285e+003,-1.961242e-003
3.743214e+003,-1.739924e-003
3.745142e+003,-1.161384e-003
3.747071e+003,-1.401988e-003
3.749000e+003,-1.215245e-003
3.750928e+003,-1.054403e-003
3.752856e+003,-1.175032e-003
3.754785e+003,-1.298766e-003
3.756713e+003,-1.185408e-003
3.758642e+003,-1.134088e-003
3.760570e+003,-1.268538e-003
3.762499e+003,-1.347457e-003
3.764427e+003,-1.238704e-003
3.766356e+003,-1.186069e-003
3.768284e+003,-1.128007e-003
3.770213e+003,-8.972700e-004
3.772141e+003,-9.079501e-004
3.774070e+003,-1.040156e-003
3.775998e+003,-1.071458e-003
3.777927e+003,-1.182863e-003
3.779855e+003,-1.383625e-003
3.781784e+003,-1.304977e-003
3.783712e+003,-9.430966e-004
3.785641e+003,-9.058008e-004
3.787569e+003,-1.143638e-003
3.789498e+003,-1.349934e-003
3.791426e+003,-1.454168e-003
3.793355e+003,-1.332163e-003
3.795283e+003,-1.093173e-003
3.797212e+003,-1.065905e-003
3.799140e+003,-1.509875e-003
3.801069e+003,-1.556825e-003
3.802997e+003,-1.216071e-003
3.804926e+003,-1.396308e-003
3.806854e+003,-1.246171e-003
3.808783e+003,-1.248814e-003
3.810711e+003,-1.352907e-003
3.812640e+003,-1.284164e-003
3.814568e+003,-1.244420e-003
3.816497e+003,-9.328141e-004
3.818425e+003,-1.090297e-003
3.820354e+003,-9.947366e-004
3.822282e+003,-7.408413e-004
3.824211e+003,-9.622392e-004
3.826139e+003,-1.106657e-003
3.828068e+003,-9.662725e-004
3.829996e+003,-9.874637e-004
3.831925e+003,-1.167399e-003
3.833853e+003,-1.324632e-003
3.835782e+003,-1.340520e-003
3.837710e+003,-1.095982e-003
3.839639e+003,-1.026009e-003
3.841567e+003,-1.096941e-003
3.843496e+003,-1.188183e-003
3.845424e+003,-1.205035e-003
3.847353e+003,-1.339661e-003
3.849281e+003,-1.406084e-003
3.851210e+003,-1.163202e-003
3.853138e+003,-6.195289e-004
3.855067e+003,-6.832164e-004
3.856995e+003,-1.131180e-003
3.858924e+003,-1.244882e-003
3.860852e+003,-1.242041e-003
3.862781e+003,-1.093999e-003
3.864709e+003,-9.299046e-004
3.866638e+003,-1.187787e-003
3.868566e+003,-1.385540e-003
3.870495e+003,-8.547786e-004
3.872423e+003,-8.115884e-004
3.874352e+003,-7.877758e-004
3.876280e+003,-9.583380e-004
3.878209e+003,-1.139342e-003
3.880137e+003,-1.208835e-003
3.882066e+003,-1.276202e-003
3.883994e+003,-1.321031e-003
3.885923e+003,-9.896787e-004
3.887851e+003,-1.007596e-003
3.889780e+003,-1.107186e-003
3.891708e+003,-1.204143e-003
3.893637e+003,-1.417280e-003
3.895565e+003,-1.297378e-003
3.897494e+003,-1.152065e-003
3.899422e+003,-1.062501e-003
3.901351e+003,-1.146877e-003
3.903279e+003,-1.053411e-003
3.905208e+003,-8.691633e-004
3.907136e+003,-1.089636e-003
3.909065e+003,-1.299658e-003
3.910993e+003,-1.421540e-003
3.912922e+003,-1.403243e-003
3.914850e+003,-1.335202e-003
3.916779e+003,-1.323608e-003
3.918707e+003,-1.240092e-003
3.920636e+003,-1.242239e-003
3.922564e+003,-1.380950e-003
3.924493e+003,-1.247162e-003
3.926421e+003,-1.076647e-003
3.928350e+003,-1.089670e-003
3.930278e+003,-1.071855e-003
3.932207e+003,-9.364180e-004
3.934135e+003,-7.204650e-004
3.936064e+003,-5.992131e-004
3.937992e+003,-7.148415e-004
3.939921e+003,-1.041578e-003
3.941849e+003,-1.207183e-003
3.943778e+003,-1.078730e-003
3.945706e+003,-1.220466e-003
3.947635e+003,-1.214584e-003
3.949563e+003,-1.061377e-003
3.951492e+003,-1.011365e-003
3.953420e+003,-9.299707e-004
3.955349e+003,-8.349368e-004
3.957277e+003,-9.049081e-004
3.959206e+003,-9.386332e-004
3.961134e+003,-1.146018e-003
3.963063e+003,-1.097469e-003
3.964991e+003,-1.047329e-003
3.966920e+003,-1.277986e-003
3.968848e+003,-1.180253e-003
3.970777e+003,-9.840587e-004
3.972705e+003,-8.067268e-004
3.974634e+003,-7.376327e-004
3.976562e+003,-8.569611e-004
3.978491e+003,-1.002406e-003
3.980419e+003,-9.063960e-004
3.982348e+003,-7.913809e-004
3.984276e+003,-6.536070e-004
3.986205e+003,-9.126122e-004
3.988133e+003,-9.594290e-004
3.990062e+003,-8.339116e-004
3.991990e+003,-8.856307e-004
3.993919e+003,-7.937622e-004
3.995847e+003,-7.939275e-004
3.997776e+003,-9.881910e-004
3.999704e+003,-9.945383e-004
4.001633e+003,0.000000e+000
