3.991989e+002,2.594735e-002
4.011274e+002,2.538964e-002
4.030559e+002,1.657850e-002
4.049844e+002,1.077163e-002
4.069129e+002,1.652312e-002
4.088414e+002,1.976819e-002
4.107699e+002,1.751103e-002
4.126984e+002,1.733779e-002
4.146269e+002,1.242665e-002
4.165554e+002,1.128264e-002
4.184839e+002,1.679908e-002
4.204124e+002,2.028449e-002
4.223409e+002,1.879994e-002
4.242694e+002,1.630699e-002
4.261979e+002,1.101734e-002
4.281264e+002,1.129305e-002
4.300549e+002,8.728925e-003
4.319834e+002,1.182904e-003
4.339119e+002,3.205992e-003
4.358404e+002,1.074303e-002
4.377689e+002,1.438225e-002
4.396974e+002,1.258969e-002
4.416259e+002,9.502809e-003
4.435544e+002,1.062393e-002
4.454829e+002,1.157315e-002
4.474114e+002,1.397309e-002
4.493399e+002,1.281565e-002
4.512684e+002,9.738959e-003
4.531969e+002,1.061772e-002
4.551254e+002,1.368186e-002
4.570539e+002,1.167971e-002
4.589824e+002,7.174504e-003
4.609109e+002,8.918859e-003
4.628394e+002,1.177199e-002
4.647679e+002,1.044805e-002
4.666964e+002,1.032649e-002
4.686249e+002,9.135371e-003
4.705533e+002,8.898939e-003
4.724819e+002,1.067218e-002
4.744103e+002,1.191429e-002
4.763389e+002,1.043583e-002
4.782673e+002,9.606962e-003
4.801959e+002,8.798945e-003
4.821243e+002,1.070662e-002
4.840529e+002,1.294958e-002
4.859813e+002,1.340938e-002
4.879099e+002,1.272117e-002
4.898383e+002,1.060339e-002
4.917668e+002,1.010213e-002
4.936953e+002,1.264638e-002
4.956238e+002,1.364397e-002
4.975523e+002,1.150306e-002
4.994808e+002,1.127999e-002
5.014093e+002,1.260985e-002
5.033378e+002,1.094720e-002
5.052663e+002,9.358897e-003
5.071948e+002,8.918859e-003
5.091233e+002,8.731698e-003
5.110518e+002,8.316780e-003
5.129803e+002,7.887345e-003
5.149088e+002,7.881542e-003
5.168373e+002,8.293611e-003
5.187658e+002,8.945816e-003
5.206943e+002,1.001281e-002
5.226228e+002,7.881676e-003
5.245513e+002,6.242135e-003
5.264798e+002,7.503977e-003
5.284083e+002,8.765539e-003
5.303368e+002,7.630346e-003
5.322653e+002,7.344955e-003
5.341938e+002,7.779015e-003
5.361223e+002,7.956958e-003
5.380508e+002,8.031984e-003
5.399792e+002,9.553070e-003
5.419078e+002,8.550935e-003
5.438363e+002,8.179170e-003
5.457648e+002,8.447710e-003
5.476932e+002,7.990842e-003
5.496218e+002,7.867134e-003
5.515503e+002,8.482037e-003
5.534788e+002,8.622752e-003
5.554072e+002,1.024306e-002
5.573358e+002,1.071759e-002
5.592643e+002,1.072139e-002
5.611927e+002,9.534170e-003
5.631212e+002,9.312788e-003
5.650497e+002,9.970052e-003
5.669783e+002,1.137909e-002
5.689067e+002,1.232962e-002
5.708352e+002,1.138828e-002
5.727637e+002,9.451029e-003
5.746923e+002,8.566717e-003
5.766207e+002,9.952287e-003
5.785492e+002,9.948083e-003
5.804777e+002,-2.862687e-005
5.824063e+002,-9.746368e-004
5.843347e+002,8.604196e-003
5.862632e+002,1.106981e-002
5.881917e+002,1.098675e-002
5.901202e+002,1.016565e-002
5.920487e+002,9.018272e-003
5.939772e+002,8.453285e-003
5.959057e+002,9.483437e-003
5.978342e+002,1.239065e-002
5.997627e+002,1.460688e-002
6.016912e+002,1.550376e-002
6.036197e+002,1.665421e-002
6.055482e+002,1.736934e-002
6.074767e+002,1.816397e-002
6.094052e+002,1.970934e-002
6.113337e+002,2.071469e-002
6.132622e+002,2.058258e-002
6.151907e+002,2.046405e-002
6.171192e+002,2.059960e-002
6.190477e+002,1.946864e-002
6.209762e+002,1.917388e-002
6.229047e+002,1.802442e-002
6.248332e+002,1.402876e-002
6.267617e+002,1.074884e-002
6.286902e+002,8.190144e-003
6.306187e+002,7.534554e-003
6.325472e+002,7.481492e-003
6.344756e+002,7.297138e-003
6.364042e+002,7.161165e-003
6.383326e+002,6.919644e-003
6.402612e+002,6.500601e-003
6.421896e+002,6.633609e-003
6.441182e+002,6.325438e-003
6.460466e+002,5.681384e-003
6.479752e+002,5.459440e-003
6.499036e+002,5.115555e-003
6.518322e+002,4.987904e-003
6.537606e+002,5.310758e-003
6.556891e+002,5.051725e-003
6.576177e+002,4.446644e-003
6.595461e+002,4.008309e-003
6.614746e+002,3.331451e-003
6.634031e+002,3.163435e-003
6.653317e+002,4.796197e-003
6.672601e+002,9.336045e-003
6.691886e+002,8.145913e-003
6.711171e+002,4.314538e-003
6.730457e+002,3.922440e-003
6.749741e+002,4.237643e-003
6.769026e+002,4.310824e-003
6.788311e+002,4.528800e-003
6.807596e+002,4.735797e-003
6.826881e+002,4.768358e-003
6.846166e+002,4.804707e-003
6.865451e+002,4.928181e-003
6.884736e+002,4.832515e-003
6.904021e+002,4.947485e-003
6.923306e+002,5.608475e-003
6.942591e+002,6.161369e-003
6.961876e+002,6.348334e-003
6.981161e+002,5.934276e-003
7.000446e+002,5.341550e-003
7.019731e+002,5.012305e-003
7.039016e+002,5.300393e-003
7.058301e+002,5.599983e-003
7.077585e+002,5.857966e-003
7.096871e+002,6.415314e-003
7.116156e+002,6.685087e-003
7.135441e+002,6.367902e-003
7.154725e+002,6.437811e-003
7.174011e+002,6.782880e-003
7.193296e+002,7.401135e-003
7.212581e+002,8.115867e-003
7.231865e+002,8.359710e-003
7.251151e+002,8.478726e-003
7.270436e+002,8.784439e-003
7.289720e+002,8.553639e-003
7.309005e+002,8.501905e-003
7.328290e+002,8.804422e-003
7.347576e+002,9.118147e-003
7.366860e+002,9.209213e-003
7.386145e+002,9.300669e-003
7.405430e+002,9.799415e-003
7.424716e+002,9.887403e-003
7.444000e+002,9.511207e-003
7.463285e+002,9.594767e-003
7.482570e+002,9.517879e-003
7.501855e+002,9.467147e-003
7.521140e+002,1.015113e-002
7.540425e+002,1.056856e-002
7.559710e+002,1.031350e-002
7.578995e+002,1.035526e-002
7.598280e+002,1.053973e-002
7.617565e+002,1.107488e-002
7.636850e+002,1.141838e-002
7.656135e+002,1.167430e-002
7.675420e+002,1.175245e-002
7.694705e+002,1.122317e-002
7.713990e+002,1.096429e-002
7.733275e+002,1.101727e-002
7.752560e+002,1.087510e-002
7.771844e+002,1.054313e-002
7.791130e+002,1.014591e-002
7.810415e+002,9.953067e-003
7.829700e+002,9.409752e-003
7.848984e+002,9.135642e-003
7.868270e+002,9.455533e-003
7.887555e+002,9.502368e-003
7.906840e+002,9.337196e-003
7.926124e+002,8.935162e-003
7.945410e+002,8.358358e-003
7.964695e+002,7.782861e-003
7.983979e+002,7.750984e-003
8.003264e+002,7.582431e-003
8.022549e+002,7.595311e-003
8.041835e+002,7.878168e-003
8.061119e+002,7.767445e-003
8.080404e+002,7.814335e-003
8.099689e+002,8.387308e-003
8.118975e+002,8.804320e-003
8.138259e+002,9.238015e-003
8.157545e+002,9.125389e-003
8.176830e+002,9.322605e-003
8.196115e+002,8.979877e-003
8.215399e+002,8.442913e-003
8.234684e+002,8.477712e-003
8.253970e+002,8.828633e-003
8.273254e+002,8.746539e-003
8.292539e+002,8.299589e-003
8.311824e+002,8.309958e-003
8.331110e+002,8.459400e-003
8.350394e+002,8.545596e-003
8.369679e+002,8.846555e-003
8.388964e+002,8.815242e-003
8.408250e+002,8.725071e-003
8.427534e+002,8.611665e-003
8.446819e+002,8.354170e-003
8.466104e+002,8.219318e-003
8.485389e+002,8.261089e-003
8.504674e+002,8.068709e-003
8.523959e+002,7.786942e-003
8.543244e+002,7.931076e-003
8.562529e+002,8.072961e-003
8.581814e+002,8.381159e-003
8.601099e+002,8.612882e-003
8.620384e+002,8.197639e-003
8.639669e+002,8.098616e-003
8.658954e+002,8.057772e-003
8.678239e+002,7.753345e-003
8.697524e+002,7.803708e-003
8.716809e+002,7.992596e-003
8.736094e+002,7.582060e-003
8.755378e+002,7.394866e-003
8.774664e+002,8.097267e-003
8.793949e+002,8.120560e-003
8.813234e+002,7.821419e-003
8.832518e+002,8.130384e-003
8.851804e+002,8.285539e-003
8.871089e+002,8.231035e-003
8.890374e+002,7.986049e-003
8.909658e+002,8.296786e-003
8.928943e+002,8.590846e-003
8.948229e+002,8.374201e-003
8.967513e+002,8.293679e-003
8.986798e+002,8.202840e-003
9.006083e+002,8.004241e-003
9.025369e+002,8.025099e-003
9.044653e+002,8.348631e-003
9.063938e+002,8.027866e-003
9.083223e+002,7.475896e-003
9.102509e+002,7.163085e-003
9.121793e+002,7.338013e-003
9.141078e+002,7.263511e-003
9.160364e+002,6.866522e-003
9.179648e+002,6.854976e-003
9.198933e+002,6.719511e-003
9.218218e+002,6.557109e-003
9.237504e+002,6.271985e-003
9.256788e+002,6.013689e-003
9.276073e+002,5.816425e-003
9.295358e+002,5.616732e-003
9.314644e+002,5.446623e-003
9.333928e+002,5.356745e-003
9.353213e+002,5.325013e-003
9.372498e+002,5.293048e-003
9.391783e+002,4.858281e-003
9.411068e+002,4.901942e-003
9.430353e+002,5.156459e-003
9.449637e+002,5.270408e-003
9.468923e+002,5.421694e-003
9.488208e+002,5.350942e-003
9.507493e+002,5.372713e-003
9.526777e+002,5.429947e-003
9.546063e+002,5.587296e-003
9.565348e+002,5.823510e-003
9.584633e+002,5.831200e-003
9.603917e+002,5.938877e-003
9.623203e+002,5.909789e-003
9.642488e+002,5.801884e-003
9.661772e+002,5.724759e-003
9.681057e+002,5.619719e-003
9.700343e+002,5.194350e-003
9.719628e+002,5.223692e-003
9.738912e+002,5.389722e-003
9.758197e+002,5.168497e-003
9.777483e+002,4.898390e-003
9.796768e+002,4.847559e-003
9.816052e+002,4.684951e-003
9.835337e+002,4.507673e-003
9.854623e+002,4.343286e-003
9.873907e+002,4.199869e-003
9.893192e+002,4.019880e-003
9.912477e+002,3.619060e-003
9.931763e+002,3.341935e-003
9.951047e+002,3.250322e-003
9.970332e+002,2.933867e-003
9.989617e+002,3.050972e-003
1.000890e+003,3.497794e-003
1.002819e+003,3.531130e-003
1.004747e+003,3.285209e-003
1.006676e+003,3.228591e-003
1.008604e+003,3.212902e-003
1.010533e+003,3.247351e-003
1.012461e+003,3.481461e-003
1.014390e+003,3.688427e-003
1.016318e+003,3.953201e-003
1.018247e+003,4.379934e-003
1.020175e+003,4.769296e-003
1.022104e+003,4.872086e-003
1.024032e+003,5.048540e-003
1.025961e+003,5.523565e-003
1.027889e+003,5.697061e-003
1.029818e+003,5.737718e-003
1.031746e+003,6.180358e-003
1.033675e+003,6.671393e-003
1.035603e+003,6.902474e-003
1.037532e+003,7.247305e-003
1.039460e+003,7.465412e-003
1.041389e+003,7.546658e-003
1.043317e+003,7.751051e-003
1.045246e+003,8.126771e-003
1.047174e+003,8.289896e-003
1.049103e+003,8.313436e-003
1.051031e+003,8.330594e-003
1.052960e+003,8.418487e-003
1.054888e+003,8.499810e-003
1.056817e+003,8.388929e-003
1.058745e+003,8.337079e-003
1.060674e+003,8.434839e-003
1.062602e+003,8.481530e-003
1.064531e+003,8.435109e-003
1.066459e+003,8.360453e-003
1.068388e+003,8.295164e-003
1.070316e+003,8.538906e-003
1.072245e+003,8.702455e-003
1.074173e+003,8.563203e-003
1.076102e+003,8.362885e-003
1.078030e+003,8.223302e-003
1.079959e+003,8.242955e-003
1.081887e+003,8.320461e-003
1.083816e+003,8.579255e-003
1.085744e+003,8.648303e-003
1.087673e+003,8.707120e-003
1.089601e+003,8.826130e-003
1.091530e+003,9.022535e-003
1.093458e+003,9.153136e-003
1.095387e+003,9.166740e-003
1.097315e+003,9.376672e-003
1.099244e+003,9.517101e-003
1.101172e+003,9.694301e-003
1.103101e+003,9.782369e-003
1.105029e+003,9.806024e-003
1.106958e+003,9.798399e-003
1.108886e+003,9.856863e-003
1.110815e+003,9.622918e-003
1.112743e+003,9.227692e-003
1.114672e+003,9.353615e-003
1.116600e+003,9.888454e-003
1.118529e+003,9.894522e-003
1.120457e+003,9.686203e-003
1.122386e+003,9.827613e-003
1.124314e+003,9.774100e-003
1.126243e+003,9.594157e-003
1.128171e+003,9.442089e-003
1.130100e+003,9.526143e-003
1.132028e+003,9.546397e-003
1.133957e+003,9.211852e-003
1.135885e+003,8.770746e-003
1.137814e+003,8.337518e-003
1.139742e+003,7.910593e-003
1.141671e+003,7.760799e-003
1.143599e+003,7.555794e-003
1.145528e+003,7.068912e-003
1.147456e+003,6.603297e-003
1.149385e+003,6.297232e-003
1.151313e+003,6.041575e-003
1.153242e+003,5.765116e-003
1.155170e+003,5.612402e-003
1.157099e+003,5.611764e-003
1.159027e+003,5.418440e-003
1.160956e+003,5.354196e-003
1.162884e+003,5.435047e-003
1.164813e+003,5.295496e-003
1.166741e+003,5.144959e-003
1.168670e+003,5.066911e-003
1.170598e+003,5.013210e-003
1.172526e+003,4.991524e-003
1.174455e+003,4.829231e-003
1.176384e+003,4.937130e-003
1.178312e+003,5.048708e-003
1.180240e+003,4.974263e-003
1.182169e+003,4.857611e-003
1.184098e+003,4.717575e-003
1.186026e+003,4.523476e-003
1.187954e+003,4.521467e-003
1.189883e+003,4.329631e-003
1.191812e+003,4.056434e-003
1.193740e+003,3.969151e-003
1.195668e+003,3.655513e-003
1.197597e+003,3.294323e-003
1.199526e+003,3.166606e-003
1.201454e+003,3.049737e-003
1.203382e+003,3.079869e-003
1.205311e+003,3.136101e-003
1.207240e+003,3.166306e-003
1.209168e+003,3.067389e-003
1.211096e+003,3.007329e-003
1.213025e+003,3.205358e-003
1.214953e+003,3.229125e-003
1.216882e+003,3.026981e-003
1.218810e+003,2.982106e-003
1.220739e+003,2.999355e-003
1.222667e+003,3.043364e-003
1.224596e+003,3.210465e-003
1.226524e+003,3.439778e-003
1.228453e+003,3.603658e-003
1.230381e+003,3.605295e-003
1.232310e+003,3.720007e-003
1.234238e+003,3.923042e-003
1.236167e+003,4.008777e-003
1.238095e+003,4.125503e-003
1.240024e+003,4.222854e-003
1.241952e+003,4.159523e-003
1.243881e+003,4.004597e-003
1.245809e+003,4.014763e-003
1.247738e+003,4.045096e-003
1.249666e+003,4.185985e-003
1.251595e+003,4.332342e-003
1.253523e+003,4.319659e-003
1.255452e+003,4.201609e-003
1.257380e+003,4.156412e-003
1.259309e+003,4.185985e-003
1.261237e+003,4.221549e-003
1.263166e+003,4.438845e-003
1.265094e+003,4.709201e-003
1.267023e+003,4.969270e-003
1.268951e+003,5.265210e-003
1.270880e+003,5.462694e-003
1.272808e+003,5.433269e-003
1.274737e+003,5.345743e-003
1.276665e+003,5.418037e-003
1.278594e+003,5.786975e-003
1.280522e+003,5.913282e-003
1.282451e+003,5.847757e-003
1.284379e+003,6.005861e-003
1.286308e+003,6.109382e-003
1.288236e+003,6.241228e-003
1.290165e+003,6.506722e-003
1.292093e+003,6.722337e-003
1.294022e+003,7.020688e-003
1.295950e+003,7.164062e-003
1.297879e+003,7.129064e-003
1.299807e+003,7.090230e-003
1.301736e+003,6.995332e-003
1.303664e+003,6.835385e-003
1.305593e+003,6.639160e-003
1.307521e+003,6.572348e-003
1.309450e+003,6.565821e-003
1.311378e+003,6.332902e-003
1.313307e+003,6.008616e-003
1.315235e+003,5.823006e-003
1.317164e+003,5.804840e-003
1.319092e+003,5.579577e-003
1.321021e+003,5.267558e-003
1.322949e+003,5.237978e-003
1.324878e+003,5.243981e-003
1.326806e+003,5.209742e-003
1.328735e+003,5.337424e-003
1.330663e+003,5.511786e-003
1.332592e+003,5.583873e-003
1.334520e+003,5.529337e-003
1.336449e+003,5.592734e-003
1.338377e+003,5.755178e-003
1.340306e+003,5.826801e-003
1.342234e+003,5.875564e-003
1.344163e+003,5.900317e-003
1.346091e+003,5.945663e-003
1.348020e+003,6.169838e-003
1.349948e+003,6.247245e-003
1.351877e+003,6.206641e-003
1.353805e+003,6.286541e-003
1.355734e+003,6.251715e-003
1.357662e+003,6.043322e-003
1.359591e+003,5.915667e-003
1.361519e+003,5.685043e-003
1.363448e+003,5.425150e-003
1.365376e+003,5.086354e-003
1.367305e+003,4.763534e-003
1.369233e+003,4.694597e-003
1.371162e+003,4.768090e-003
1.373090e+003,4.941955e-003
1.375019e+003,4.845548e-003
1.376947e+003,4.688167e-003
1.378876e+003,4.650387e-003
1.380804e+003,4.685688e-003
1.382733e+003,4.726351e-003
1.384661e+003,4.758878e-003
1.386590e+003,4.838948e-003
1.388518e+003,4.662310e-003
1.390447e+003,4.428434e-003
1.392375e+003,4.336994e-003
1.394304e+003,4.335186e-003
1.396232e+003,4.010918e-003
1.398161e+003,3.864402e-003
1.400089e+003,3.850361e-003
1.402018e+003,3.623704e-003
1.403946e+003,3.398368e-003
1.405875e+003,3.252726e-003
1.407803e+003,3.037792e-003
1.409732e+003,2.893138e-003
1.411660e+003,2.923660e-003
1.413589e+003,2.930531e-003
1.415517e+003,3.061883e-003
1.417446e+003,3.347778e-003
1.419374e+003,3.640744e-003
1.421303e+003,3.899772e-003
1.423231e+003,4.373072e-003
1.425160e+003,4.860827e-003
1.427088e+003,5.184156e-003
1.429017e+003,5.575113e-003
1.430945e+003,5.954464e-003
1.432874e+003,6.324799e-003
1.434802e+003,6.936982e-003
1.436731e+003,7.454390e-003
1.438659e+003,7.532767e-003
1.440588e+003,7.779015e-003
1.442516e+003,8.308134e-003
1.444445e+003,8.666861e-003
1.446373e+003,8.983260e-003
1.448302e+003,9.420350e-003
1.450230e+003,9.709514e-003
1.452159e+003,9.930590e-003
1.454087e+003,1.024347e-002
1.456016e+003,1.091529e-002
1.457944e+003,1.117693e-002
1.459873e+003,1.070383e-002
1.461801e+003,1.028432e-002
1.463730e+003,1.012838e-002
1.465658e+003,1.000260e-002
1.467587e+003,9.525398e-003
1.469515e+003,9.144880e-003
1.471444e+003,9.045708e-003
1.473372e+003,8.774431e-003
1.475301e+003,8.189603e-003
1.477229e+003,7.472626e-003
1.479158e+003,6.849489e-003
1.481086e+003,6.433103e-003
1.483015e+003,5.916372e-003
1.484943e+003,5.506685e-003
1.486872e+003,5.255786e-003
1.488800e+003,4.962265e-003
1.490729e+003,4.762462e-003
1.492657e+003,4.465859e-003
1.494586e+003,4.252432e-003
1.496514e+003,4.119683e-003
1.498443e+003,3.958986e-003
1.500371e+003,3.772746e-003
1.502300e+003,3.542922e-003
1.504228e+003,3.621766e-003
1.506157e+003,4.011486e-003
1.508085e+003,3.871990e-003
1.510014e+003,3.366444e-003
1.511942e+003,3.170444e-003
1.513871e+003,3.229325e-003
1.515799e+003,3.406917e-003
1.517728e+003,3.517702e-003
1.519656e+003,3.615251e-003
1.521585e+003,3.868948e-003
1.523513e+003,3.845313e-003
1.525442e+003,3.950393e-003
1.527370e+003,4.005667e-003
1.529299e+003,4.033759e-003
1.531227e+003,4.066467e-003
1.533156e+003,4.365977e-003
1.535084e+003,4.477610e-003
1.537013e+003,4.638532e-003
1.538941e+003,5.237240e-003
1.540870e+003,5.639255e-003
1.542798e+003,5.740001e-003
1.544727e+003,5.647714e-003
1.546655e+003,5.380731e-003
1.548584e+003,5.496585e-003
1.550512e+003,5.673696e-003
1.552441e+003,5.768843e-003
1.554369e+003,5.985604e-003
1.556298e+003,6.258775e-003
1.558226e+003,6.894765e-003
1.560155e+003,7.164062e-003
1.562083e+003,6.925468e-003
1.564012e+003,7.032204e-003
1.565940e+003,7.152575e-003
1.567869e+003,7.385429e-003
1.569797e+003,7.697524e-003
1.571726e+003,7.487627e-003
1.573654e+003,7.365074e-003
1.575583e+003,7.597637e-003
1.577511e+003,7.391462e-003
1.579440e+003,7.160188e-003
1.581368e+003,7.153620e-003
1.583297e+003,7.047796e-003
1.585225e+003,7.020182e-003
1.587154e+003,6.925703e-003
1.589082e+003,6.732433e-003
1.591010e+003,6.588798e-003
1.592939e+003,6.495825e-003
1.594868e+003,6.485769e-003
1.596796e+003,6.427453e-003
1.598724e+003,6.364607e-003
1.600653e+003,6.344030e-003
1.602582e+003,6.333305e-003
1.604510e+003,6.163184e-003
1.606438e+003,5.952011e-003
1.608367e+003,5.911972e-003
1.610296e+003,5.716231e-003
1.612224e+003,5.358087e-003
1.614152e+003,5.226576e-003
1.616081e+003,5.321122e-003
1.618010e+003,5.182949e-003
1.619938e+003,4.940883e-003
1.621866e+003,4.994541e-003
1.623795e+003,4.843572e-003
1.625724e+003,4.525519e-003
1.627652e+003,4.453942e-003
1.629580e+003,4.418526e-003
1.631509e+003,4.121890e-003
1.633438e+003,4.138883e-003
1.635366e+003,4.435129e-003
1.637294e+003,4.213386e-003
1.639223e+003,3.767064e-003
1.641151e+003,3.420876e-003
1.643080e+003,3.111605e-003
1.645008e+003,3.156927e-003
1.646937e+003,3.318429e-003
1.648865e+003,2.951648e-003
1.650794e+003,2.844175e-003
1.652722e+003,3.308913e-003
1.654651e+003,2.925561e-003
1.656579e+003,2.332361e-003
1.658508e+003,2.140623e-003
1.660436e+003,2.157372e-003
1.662365e+003,2.319536e-003
1.664293e+003,2.294819e-003
1.666222e+003,2.162234e-003
1.668150e+003,2.267839e-003
1.670079e+003,2.339623e-003
1.672007e+003,2.140090e-003
1.673936e+003,2.105029e-003
1.675864e+003,2.039809e-003
1.677793e+003,1.650956e-003
1.679721e+003,1.349390e-003
1.681650e+003,1.211545e-003
1.683578e+003,1.520330e-003
1.685507e+003,1.315423e-003
1.687435e+003,7.384894e-004
1.689364e+003,3.958339e-004
1.691292e+003,2.778847e-004
1.693221e+003,3.490085e-004
1.695149e+003,5.341840e-004
1.697078e+003,4.505252e-004
1.699006e+003,5.746592e-004
1.700935e+003,7.214631e-004
1.702863e+003,4.032628e-004
1.704792e+003,3.368719e-004
1.706720e+003,2.433714e-004
1.708649e+003,5.848552e-005
1.710577e+003,2.915805e-006
1.712506e+003,6.445049e-005
1.714434e+003,2.241102e-004
1.716363e+003,4.358982e-004
1.718291e+003,3.734818e-004
1.720220e+003,1.640445e-004
1.722148e+003,2.405598e-005
1.724077e+003,-6.404338e-005
1.726005e+003,-9.117531e-005
1.727934e+003,-1.247980e-004
1.729862e+003,-2.093567e-004
1.731791e+003,-8.262843e-005
1.733719e+003,1.577798e-004
1.735648e+003,-1.011133e-004
1.737576e+003,-2.762169e-004
1.739505e+003,-1.361264e-004
1.741433e+003,-1.877300e-004
1.743362e+003,-2.074358e-004
1.745290e+003,-2.478713e-004
1.747219e+003,-1.097923e-004
1.749147e+003,1.648068e-004
1.751076e+003,2.883950e-004
1.753004e+003,7.485625e-005
1.754933e+003,-5.970343e-005
1.756861e+003,-7.090627e-006
1.758790e+003,-7.720163e-006
1.760718e+003,1.509518e-004
1.762647e+003,2.079990e-004
1.764575e+003,-4.612013e-005
1.766504e+003,-6.324828e-005
1.768432e+003,-8.349698e-006
1.770361e+003,-2.899132e-005
1.772289e+003,1.033905e-004
1.774218e+003,1.145595e-004
1.776146e+003,-9.250038e-005
1.778075e+003,-2.295913e-004
1.780003e+003,-2.132646e-004
1.781932e+003,-2.251537e-004
1.783860e+003,-2.927399e-004
1.785789e+003,-2.976405e-004
1.787717e+003,-2.949584e-004
1.789646e+003,-3.020774e-004
1.791574e+003,-1.737202e-004
1.793503e+003,-8.763069e-005
1.795431e+003,-1.272823e-004
1.797360e+003,-1.315885e-004
1.799288e+003,-1.650044e-005
1.801217e+003,6.328647e-006
1.803145e+003,-1.282098e-004
1.805074e+003,-1.363914e-004
1.807002e+003,-1.225124e-004
1.808931e+003,-8.312535e-005
1.810859e+003,-7.527402e-005
1.812788e+003,-1.267855e-004
1.814716e+003,-1.646450e-004
1.816645e+003,-1.392069e-004
1.818573e+003,-1.141318e-004
1.820502e+003,-9.276540e-005
1.822430e+003,-5.861016e-005
1.824359e+003,1.073556e-005
1.826287e+003,-8.647899e-006
1.828216e+003,1.249171e-005
1.830144e+003,7.227135e-005
1.832073e+003,-1.261892e-004
1.834001e+003,-1.762042e-004
1.835930e+003,-1.633532e-004
1.837858e+003,-2.438312e-004
1.839787e+003,-2.830050e-004
1.841715e+003,-2.796937e-004
1.843644e+003,-9.293103e-005
1.845572e+003,-1.756412e-004
1.847501e+003,-3.314127e-004
1.849429e+003,-2.769785e-004
1.851358e+003,-1.422874e-004
1.853286e+003,-1.515618e-004
1.855215e+003,-1.968378e-004
1.857143e+003,-1.500713e-004
1.859072e+003,-1.410949e-004
1.861000e+003,-1.508993e-004
1.862929e+003,-1.438110e-004
1.864857e+003,-1.293692e-004
1.866786e+003,-7.676479e-005
1.868714e+003,-3.084670e-005
1.870643e+003,-1.927642e-004
1.872571e+003,-3.316776e-004
1.874500e+003,-2.872434e-004
1.876428e+003,-1.751775e-004
1.878357e+003,-9.246726e-005
1.880285e+003,-1.119786e-004
1.882214e+003,-1.042603e-004
1.884142e+003,-7.775863e-005
1.886071e+003,-1.322178e-004
1.887999e+003,-8.713378e-005
1.889928e+003,-6.828389e-005
1.891856e+003,-2.021369e-004
1.893785e+003,-1.462290e-004
1.895713e+003,-7.852058e-005
1.897642e+003,-1.016765e-004
1.899570e+003,-3.518692e-005
1.901499e+003,-5.599617e-006
1.903427e+003,-7.464457e-005
1.905356e+003,-5.446895e-005
1.907284e+003,-5.125533e-005
1.909213e+003,-3.604834e-005
1.911141e+003,-7.911688e-005
1.913070e+003,-1.649099e-004
1.914998e+003,-7.868621e-005
1.916927e+003,5.112883e-005
1.918855e+003,9.706045e-005
1.920784e+003,9.225497e-005
1.922712e+003,6.365516e-005
1.924641e+003,-5.052647e-005
1.926569e+003,-6.941026e-005
1.928498e+003,-8.819385e-005
1.930426e+003,-5.142099e-005
1.932355e+003,-1.121774e-004
1.934283e+003,-2.441292e-004
1.936212e+003,-2.659849e-004
1.938140e+003,-2.470434e-004
1.940069e+003,-1.224130e-004
1.941997e+003,1.567268e-005
1.943926e+003,-5.725185e-005
1.945854e+003,-1.296673e-004
1.947783e+003,-5.311062e-005
1.949711e+003,1.845605e-005
1.951640e+003,-1.828960e-005
1.953568e+003,-7.232559e-005
1.955497e+003,-1.438442e-004
1.957425e+003,-1.880943e-004
1.959354e+003,-1.303297e-004
1.961282e+003,-1.001195e-004
1.963211e+003,-1.754756e-004
1.965139e+003,-2.380360e-004
1.967068e+003,-1.851136e-004
1.968996e+003,-2.745281e-004
1.970925e+003,-3.602826e-004
1.972853e+003,-2.828063e-004
1.974782e+003,-2.409170e-004
1.976710e+003,-2.386983e-004
1.978639e+003,-1.784233e-004
1.980567e+003,-1.732896e-004
1.982496e+003,-2.468778e-004
1.984424e+003,-2.612165e-004
1.986353e+003,-1.727928e-004
1.988281e+003,-1.535823e-004
1.990210e+003,-2.319426e-004
1.992138e+003,-2.552228e-004
1.994067e+003,-2.414138e-004
1.995995e+003,-3.106861e-004
1.997924e+003,-2.907201e-004
1.999852e+003,-2.440961e-004
2.001781e+003,-3.111497e-004
2.003709e+003,-2.703559e-004
2.005638e+003,-2.771110e-004
2.007566e+003,-2.242264e-004
2.009495e+003,-1.676590e-004
2.011423e+003,-2.057468e-004
2.013352e+003,-1.651749e-004
2.015280e+003,-1.103555e-004
2.017208e+003,-9.872822e-005
2.019137e+003,-1.138999e-004
2.021066e+003,-1.919362e-004
2.022994e+003,-2.449240e-004
2.024922e+003,-1.488126e-004
2.026851e+003,-9.120843e-005
2.028780e+003,-1.286404e-004
2.030708e+003,-1.542447e-004
2.032636e+003,-1.138336e-004
2.034565e+003,-6.149242e-005
2.036494e+003,-1.169805e-004
2.038422e+003,-1.343378e-004
2.040350e+003,-9.587932e-005
2.042279e+003,-1.009808e-004
2.044208e+003,-1.174112e-004
2.046136e+003,-1.545759e-004
2.048064e+003,-2.085949e-004
2.049993e+003,-1.883593e-004
2.051921e+003,-2.366782e-004
2.053850e+003,-1.338078e-004
2.055778e+003,-4.373473e-005
2.057707e+003,-6.864830e-005
2.059635e+003,-1.275473e-004
2.061564e+003,-1.576563e-004
2.063492e+003,-1.889223e-004
2.065421e+003,-1.112499e-004
2.067349e+003,-5.493276e-005
2.069278e+003,-1.075729e-004
2.071206e+003,-6.619676e-005
2.073135e+003,-1.252449e-005
2.075063e+003,-1.749442e-005
2.076992e+003,5.069804e-005
2.078920e+003,7.876675e-005
2.080849e+003,-1.119916e-005
2.082777e+003,-5.175229e-005
2.084706e+003,-4.880370e-005
2.086634e+003,-6.941026e-005
2.088563e+003,-3.588268e-005
2.090491e+003,9.675247e-006
2.092420e+003,-7.355694e-006
2.094348e+003,-2.547933e-005
2.096277e+003,-4.585509e-005
2.098205e+003,-1.126556e-006
2.100134e+003,3.313405e-007
2.102062e+003,2.833053e-005
2.103991e+003,2.607727e-005
2.105919e+003,4.108815e-005
2.107848e+003,1.768392e-004
2.109776e+003,1.221492e-004
2.111705e+003,2.017910e-005
2.113633e+003,1.497684e-005
2.115562e+003,9.261951e-005
2.117490e+003,1.434941e-004
2.119419e+003,1.461788e-004
2.121347e+003,1.687182e-004
2.123276e+003,1.894355e-004
2.125204e+003,2.060763e-004
2.127133e+003,1.479024e-004
2.129061e+003,1.903968e-004
2.130990e+003,2.872346e-004
2.132918e+003,2.131705e-004
2.134847e+003,7.982724e-005
2.136775e+003,6.103719e-005
2.138704e+003,1.135983e-004
2.140632e+003,1.397819e-004
2.142561e+003,1.658675e-004
2.144489e+003,2.183419e-004
2.146418e+003,2.701264e-004
2.148346e+003,3.362418e-004
2.150275e+003,3.435370e-004
2.152203e+003,3.251666e-004
2.154132e+003,3.117044e-004
2.156060e+003,2.629651e-004
2.157989e+003,2.751659e-004
2.159917e+003,3.087533e-004
2.161846e+003,3.183691e-004
2.163774e+003,3.365734e-004
2.165703e+003,4.108244e-004
2.167631e+003,4.920540e-004
2.169560e+003,4.879740e-004
2.171488e+003,4.163631e-004
2.173417e+003,3.566687e-004
2.175345e+003,3.574646e-004
2.177274e+003,4.284024e-004
2.179202e+003,4.713223e-004
2.181131e+003,3.827011e-004
2.183059e+003,3.327269e-004
2.184988e+003,3.702650e-004
2.186916e+003,3.971936e-004
2.188845e+003,4.022346e-004
2.190773e+003,3.788873e-004
2.192702e+003,3.176396e-004
2.194630e+003,3.035144e-004
2.196559e+003,3.707293e-004
2.198487e+003,3.828669e-004
2.200416e+003,2.801392e-004
2.202344e+003,1.969271e-004
2.204273e+003,2.263645e-004
2.206201e+003,2.657832e-004
2.208130e+003,2.592187e-004
2.210058e+003,2.161871e-004
2.211987e+003,2.134025e-004
2.213915e+003,1.851925e-004
2.215844e+003,2.808023e-004
2.217772e+003,3.373361e-004
2.219701e+003,3.159154e-004
2.221629e+003,3.245035e-004
2.223558e+003,3.504676e-004
2.225486e+003,3.398231e-004
2.227415e+003,2.819959e-004
2.229343e+003,2.855768e-004
2.231272e+003,2.842837e-004
2.233200e+003,3.500033e-004
2.235129e+003,3.923848e-004
2.237057e+003,3.267914e-004
2.238986e+003,2.920754e-004
2.240914e+003,3.107096e-004
2.242843e+003,3.842929e-004
2.244771e+003,3.689385e-004
2.246700e+003,3.176065e-004
2.248628e+003,3.934129e-004
2.250557e+003,2.879308e-004
2.252485e+003,1.360697e-004
2.254414e+003,2.155904e-004
2.256342e+003,3.004971e-004
2.258271e+003,2.937332e-004
2.260199e+003,2.742044e-004
2.262128e+003,2.762269e-004
2.264056e+003,2.983751e-004
2.265985e+003,3.056033e-004
2.267913e+003,2.706569e-004
2.269842e+003,3.307042e-004
2.271770e+003,3.386293e-004
2.273699e+003,2.817307e-004
2.275627e+003,1.766403e-004
2.277556e+003,1.196966e-004
2.279484e+003,1.776016e-004
2.281413e+003,3.054044e-004
2.283341e+003,2.844826e-004
2.285270e+003,2.889918e-004
2.287198e+003,2.650538e-004
2.289127e+003,3.470520e-004
2.291055e+003,3.746425e-004
2.292984e+003,3.317321e-004
2.294912e+003,3.441008e-004
2.296841e+003,5.082421e-004
2.298769e+003,7.532926e-004
2.300698e+003,8.752223e-004
2.302626e+003,1.005489e-003
2.304555e+003,1.123935e-003
2.306483e+003,1.347995e-003
2.308412e+003,1.632231e-003
2.310340e+003,1.946674e-003
2.312269e+003,2.382599e-003
2.314197e+003,2.852947e-003
2.316125e+003,3.399269e-003
2.318054e+003,3.953971e-003
2.319983e+003,4.539949e-003
2.321911e+003,5.144188e-003
2.323840e+003,5.685177e-003
2.325768e+003,6.093017e-003
2.327697e+003,6.623213e-003
2.329625e+003,7.275001e-003
2.331553e+003,7.560076e-003
2.333482e+003,7.648286e-003
2.335411e+003,7.774630e-003
2.337339e+003,7.976363e-003
2.339268e+003,7.992259e-003
2.341196e+003,7.711116e-003
2.343125e+003,7.154495e-003
2.345053e+003,6.065262e-003
2.346981e+003,4.355635e-003
2.348910e+003,3.287546e-003
2.350839e+003,4.432317e-003
2.352767e+003,6.748821e-003
2.354696e+003,8.580438e-003
2.356624e+003,9.713749e-003
2.358552e+003,1.034831e-002
2.360481e+003,1.049696e-002
2.362409e+003,1.044337e-002
2.364338e+003,1.021039e-002
2.366267e+003,9.617057e-003
2.368195e+003,8.706275e-003
2.370124e+003,7.570393e-003
2.372052e+003,6.238135e-003
2.373980e+003,4.950200e-003
2.375909e+003,3.712321e-003
2.377838e+003,2.511819e-003
2.379766e+003,1.389077e-003
2.381695e+003,7.658724e-004
2.383623e+003,6.330230e-004
2.385552e+003,4.717203e-004
2.387480e+003,3.301736e-004
2.389408e+003,2.922743e-004
2.391337e+003,3.319974e-004
2.393266e+003,3.176396e-004
2.395194e+003,3.711272e-004
2.397123e+003,4.415367e-004
2.399051e+003,4.538752e-004
2.400979e+003,4.356328e-004
2.402908e+003,3.073275e-004
2.404836e+003,2.807360e-004
2.406765e+003,3.441671e-004
2.408694e+003,3.845250e-004
2.410622e+003,4.370259e-004
2.412551e+003,4.339081e-004
2.414479e+003,4.724833e-004
2.416407e+003,5.180945e-004
2.418336e+003,5.012759e-004
2.420264e+003,4.672092e-004
2.422193e+003,4.900306e-004
2.424122e+003,5.786406e-004
2.426050e+003,5.832855e-004
2.427979e+003,4.920540e-004
2.429907e+003,4.849886e-004
2.431835e+003,5.707442e-004
2.433764e+003,6.584083e-004
2.435692e+003,7.050348e-004
2.437621e+003,7.437335e-004
2.439550e+003,6.865495e-004
2.441478e+003,6.601007e-004
2.443406e+003,7.294950e-004
2.445335e+003,8.023193e-004
2.447263e+003,8.171579e-004
2.449192e+003,8.247931e-004
2.451121e+003,7.258441e-004
2.453049e+003,6.624568e-004
2.454978e+003,7.406469e-004
2.456906e+003,8.947781e-004
2.458834e+003,9.458796e-004
2.460763e+003,8.497248e-004
2.462691e+003,6.558863e-004
2.464620e+003,7.157546e-004
2.466549e+003,8.612450e-004
2.468477e+003,8.973015e-004
2.470406e+003,8.579250e-004
2.472334e+003,8.510860e-004
2.474262e+003,9.206767e-004
2.476191e+003,9.469422e-004
2.478119e+003,9.034772e-004
2.480048e+003,9.299741e-004
2.481977e+003,9.612875e-004
2.483905e+003,8.703750e-004
2.485833e+003,8.312334e-004
2.487762e+003,9.353201e-004
2.489690e+003,9.068307e-004
2.491619e+003,9.349548e-004
2.493547e+003,1.081349e-003
2.495476e+003,1.118022e-003
2.497405e+003,1.116660e-003
2.499333e+003,1.095334e-003
2.501261e+003,1.068528e-003
2.503190e+003,1.026545e-003
2.505118e+003,1.061619e-003
2.507047e+003,1.064143e-003
2.508975e+003,1.050160e-003
2.510904e+003,1.085036e-003
2.512833e+003,1.118321e-003
2.514761e+003,1.122307e-003
2.516689e+003,1.162139e-003
2.518618e+003,1.202407e-003
2.520546e+003,1.229055e-003
2.522475e+003,1.208787e-003
2.524403e+003,1.149648e-003
2.526332e+003,1.111511e-003
2.528260e+003,1.164864e-003
2.530189e+003,1.176459e-003
2.532117e+003,1.127988e-003
2.534046e+003,1.004127e-003
2.535974e+003,1.058098e-003
2.537903e+003,1.139515e-003
2.539831e+003,1.310106e-003
2.541760e+003,1.231248e-003
2.543688e+003,1.197291e-003
2.545617e+003,1.266937e-003
2.547545e+003,1.302961e-003
2.549474e+003,1.271755e-003
2.551402e+003,1.127357e-003
2.553331e+003,1.087760e-003
2.555259e+003,1.186825e-003
2.557188e+003,1.269961e-003
2.559116e+003,1.198121e-003
2.561045e+003,1.198919e-003
2.562973e+003,1.227760e-003
2.564902e+003,1.285945e-003
2.566830e+003,1.367040e-003
2.568759e+003,1.288006e-003
2.570687e+003,1.260025e-003
2.572616e+003,1.352880e-003
2.574544e+003,1.513979e-003
2.576473e+003,1.493630e-003
2.578401e+003,1.422319e-003
2.580330e+003,1.384324e-003
2.582258e+003,1.349989e-003
2.584187e+003,1.379105e-003
2.586115e+003,1.388712e-003
2.588044e+003,1.369732e-003
2.589972e+003,1.409221e-003
2.591901e+003,1.476308e-003
2.593829e+003,1.437644e-003
2.595758e+003,1.357102e-003
2.597686e+003,1.351584e-003
2.599615e+003,1.402041e-003
2.601543e+003,1.479932e-003
2.603472e+003,1.472951e-003
2.605400e+003,1.437445e-003
2.607329e+003,1.446055e-003
2.609257e+003,1.556807e-003
2.611186e+003,1.642209e-003
2.613114e+003,1.650125e-003
2.615043e+003,1.616467e-003
2.616971e+003,1.552517e-003
2.618900e+003,1.609416e-003
2.620828e+003,1.681690e-003
2.622757e+003,1.734514e-003
2.624685e+003,1.698987e-003
2.626614e+003,1.619194e-003
2.628542e+003,1.632298e-003
2.630471e+003,1.760695e-003
2.632399e+003,1.851395e-003
2.634328e+003,1.845905e-003
2.636256e+003,1.882010e-003
2.638185e+003,2.034616e-003
2.640113e+003,2.117282e-003
2.642042e+003,2.095374e-003
2.643970e+003,2.124474e-003
2.645899e+003,2.101034e-003
2.647827e+003,2.094475e-003
2.649756e+003,2.246989e-003
2.651684e+003,2.344020e-003
2.653613e+003,2.302347e-003
2.655541e+003,2.305212e-003
2.657470e+003,2.300082e-003
2.659398e+003,2.337458e-003
2.661327e+003,2.439773e-003
2.663255e+003,2.432143e-003
2.665184e+003,2.328863e-003
2.667112e+003,2.448503e-003
2.669041e+003,2.599009e-003
2.670969e+003,2.635543e-003
2.672898e+003,2.532015e-003
2.674826e+003,2.523183e-003
2.676755e+003,2.630910e-003
2.678683e+003,2.682916e-003
2.680612e+003,2.673848e-003
2.682540e+003,2.640910e-003
2.684469e+003,2.716490e-003
2.686397e+003,2.760904e-003
2.688326e+003,2.740230e-003
2.690254e+003,2.848878e-003
2.692183e+003,2.909116e-003
2.694111e+003,2.836738e-003
2.696040e+003,2.863753e-003
2.697968e+003,2.942007e-003
2.699897e+003,3.104630e-003
2.701825e+003,3.189737e-003
2.703754e+003,3.122384e-003
2.705682e+003,3.198715e-003
2.707611e+003,3.294457e-003
2.709539e+003,3.336058e-003
2.711468e+003,3.337160e-003
2.713396e+003,3.486638e-003
2.715325e+003,3.625776e-003
2.717253e+003,3.630086e-003
2.719182e+003,3.673256e-003
2.721110e+003,3.767298e-003
2.723039e+003,3.881919e-003
2.724967e+003,3.955642e-003
2.726896e+003,3.976207e-003
2.728824e+003,4.092924e-003
2.730753e+003,4.202579e-003
2.732681e+003,4.193814e-003
2.734610e+003,4.248551e-003
2.736538e+003,4.337496e-003
2.738467e+003,4.459465e-003
2.740395e+003,4.610368e-003
2.742324e+003,4.666095e-003
2.744252e+003,4.709570e-003
2.746181e+003,4.721595e-003
2.748109e+003,4.833553e-003
2.750038e+003,4.986731e-003
2.751966e+003,5.076163e-003
2.753895e+003,5.144858e-003
2.755823e+003,5.251963e-003
2.757752e+003,5.441120e-003
2.759680e+003,5.641202e-003
2.761609e+003,5.796881e-003
2.763537e+003,6.085523e-003
2.765466e+003,6.326379e-003
2.767394e+003,6.531612e-003
2.769323e+003,6.816570e-003
2.771251e+003,7.232010e-003
2.773180e+003,7.700829e-003
2.775108e+003,8.072826e-003
2.777037e+003,8.468320e-003
2.778965e+003,8.923154e-003
2.780894e+003,9.639822e-003
2.782822e+003,1.048824e-002
2.784750e+003,1.121739e-002
2.786679e+003,1.193227e-002
2.788608e+003,1.258618e-002
2.790536e+003,1.331241e-002
2.792465e+003,1.402298e-002
2.794393e+003,1.479275e-002
2.796322e+003,1.558780e-002
2.798250e+003,1.631580e-002
2.800178e+003,1.701159e-002
2.802107e+003,1.773284e-002
2.804036e+003,1.822776e-002
2.805964e+003,1.854691e-002
2.807893e+003,1.890039e-002
2.809821e+003,1.916418e-002
2.811750e+003,1.926729e-002
2.813678e+003,1.920318e-002
2.815606e+003,1.906592e-002
2.817535e+003,1.877091e-002
2.819464e+003,1.858606e-002
2.821392e+003,1.831515e-002
2.823321e+003,1.792596e-002
2.825249e+003,1.749844e-002
2.827177e+003,1.687227e-002
2.829106e+003,1.624497e-002
2.831034e+003,1.568538e-002
2.832963e+003,1.517784e-002
2.834892e+003,1.471244e-002
2.836820e+003,1.399742e-002
2.838749e+003,1.317710e-002
2.840677e+003,1.255753e-002
2.842605e+003,1.200471e-002
2.844534e+003,1.126448e-002
2.846462e+003,1.036005e-002
2.848391e+003,9.713784e-003
2.850320e+003,9.291225e-003
2.852248e+003,9.046758e-003
2.854177e+003,8.976022e-003
2.856105e+003,8.939491e-003
2.858033e+003,8.847468e-003
2.859962e+003,8.917574e-003
2.861890e+003,8.882029e-003
2.863819e+003,8.794346e-003
2.865748e+003,8.831946e-003
2.867676e+003,8.873338e-003
2.869604e+003,8.977848e-003
2.871533e+003,9.106609e-003
2.873461e+003,9.271964e-003
2.875390e+003,9.305104e-003
2.877319e+003,9.466403e-003
2.879247e+003,9.746855e-003
2.881176e+003,9.727845e-003
2.883104e+003,9.723034e-003
2.885032e+003,9.851033e-003
2.886961e+003,9.737028e-003
2.888889e+003,9.650968e-003
2.890818e+003,9.581319e-003
2.892747e+003,9.437179e-003
2.894675e+003,9.263028e-003
2.896604e+003,9.164744e-003
2.898532e+003,9.118182e-003
2.900460e+003,9.077274e-003
2.902389e+003,9.068308e-003
2.904317e+003,8.916931e-003
2.906246e+003,8.732103e-003
2.908175e+003,8.752963e-003
2.910103e+003,8.683525e-003
2.912031e+003,8.404367e-003
2.913960e+003,8.059730e-003
2.915888e+003,7.898817e-003
2.917817e+003,8.005050e-003
2.919745e+003,8.270241e-003
2.921674e+003,8.536980e-003
2.923603e+003,8.870666e-003
2.925531e+003,9.205997e-003
2.927459e+003,9.533899e-003
2.929388e+003,9.819140e-003
2.931316e+003,1.004441e-002
2.933245e+003,1.030684e-002
2.935173e+003,1.052466e-002
2.937102e+003,1.069310e-002
2.939031e+003,1.086389e-002
2.940959e+003,1.082326e-002
2.942887e+003,1.075009e-002
2.944816e+003,1.067096e-002
2.946744e+003,1.047015e-002
2.948673e+003,1.026196e-002
2.950601e+003,9.729574e-003
2.952530e+003,9.152290e-003
2.954458e+003,8.669734e-003
2.956387e+003,8.109250e-003
2.958315e+003,7.551681e-003
2.960244e+003,6.844810e-003
2.962172e+003,6.120235e-003
2.964101e+003,5.637006e-003
2.966029e+003,5.221881e-003
2.967958e+003,4.720724e-003
2.969886e+003,4.214456e-003
2.971815e+003,3.749517e-003
2.973743e+003,3.400338e-003
2.975672e+003,3.031252e-003
2.977600e+003,2.770807e-003
2.979529e+003,2.537714e-003
2.981457e+003,2.377868e-003
2.983386e+003,2.199031e-003
2.985314e+003,1.928602e-003
2.987243e+003,1.752412e-003
2.989171e+003,1.664028e-003
2.991100e+003,1.443196e-003
2.993028e+003,1.345336e-003
2.994957e+003,1.303360e-003
2.996885e+003,1.201112e-003
2.998814e+003,1.145661e-003
3.000742e+003,1.109916e-003
3.002671e+003,1.007814e-003
3.004599e+003,9.002897e-004
3.006528e+003,9.057350e-004
3.008456e+003,8.936160e-004
3.010385e+003,9.000573e-004
3.012313e+003,8.236312e-004
3.014242e+003,6.876447e-004
3.016170e+003,7.362989e-004
3.018099e+003,7.560144e-004
3.020027e+003,5.630471e-004
3.021956e+003,5.281131e-004
3.023884e+003,5.455300e-004
3.025813e+003,5.393593e-004
3.027741e+003,4.777905e-004
3.029670e+003,4.150364e-004
3.031598e+003,3.747419e-004
3.033527e+003,3.530210e-004
3.035455e+003,3.985534e-004
3.037384e+003,4.796812e-004
3.039312e+003,4.402763e-004
3.041241e+003,3.453940e-004
3.043169e+003,3.023208e-004
3.045098e+003,2.585224e-004
3.047026e+003,2.532179e-004
3.048955e+003,2.917438e-004
3.050883e+003,2.744365e-004
3.052812e+003,2.466204e-004
3.054740e+003,1.518467e-004
3.056669e+003,1.110132e-004
3.058597e+003,9.079676e-005
3.060526e+003,6.858800e-006
3.062454e+003,5.865121e-005
3.064383e+003,1.178738e-004
3.066311e+003,8.996823e-005
3.068240e+003,2.050155e-004
3.070168e+003,1.099858e-004
3.072097e+003,-1.418899e-004
3.074025e+003,-1.013121e-004
3.075954e+003,-8.494737e-005
3.077882e+003,-1.677584e-004
3.079811e+003,-1.297335e-004
3.081739e+003,-1.095936e-004
3.083668e+003,-1.201605e-004
3.085596e+003,-2.490634e-004
3.087525e+003,-3.390939e-004
3.089453e+003,-2.787666e-004
3.091382e+003,-2.442948e-004
3.093310e+003,-2.524742e-004
3.095239e+003,-2.308497e-004
3.097167e+003,-2.276706e-004
3.099096e+003,-1.941552e-004
3.101024e+003,-1.557021e-004
3.102953e+003,-2.133970e-004
3.104881e+003,-3.331675e-004
3.106810e+003,-2.921108e-004
3.108738e+003,-2.758195e-004
3.110667e+003,-2.828394e-004
3.112595e+003,-2.897599e-004
3.114524e+003,-2.361815e-004
3.116452e+003,-3.260490e-004
3.118381e+003,-4.337399e-004
3.120309e+003,-4.500914e-004
3.122238e+003,-3.646195e-004
3.124166e+003,-3.564422e-004
3.126095e+003,-3.683605e-004
3.128023e+003,-3.632291e-004
3.129952e+003,-3.663742e-004
3.131880e+003,-4.317869e-004
3.133809e+003,-4.373147e-004
3.135737e+003,-4.091782e-004
3.137666e+003,-3.553166e-004
3.139594e+003,-3.826290e-004
3.141523e+003,-3.629642e-004
3.143451e+003,-1.882599e-004
3.145380e+003,-2.213784e-004
3.147308e+003,-4.304297e-004
3.149237e+003,-4.147064e-004
3.151165e+003,-2.331679e-004
3.153094e+003,-1.929629e-004
3.155022e+003,-1.934928e-004
3.156951e+003,-2.533352e-004
3.158879e+003,-1.933935e-004
3.160808e+003,-1.212205e-004
3.162736e+003,-1.738195e-004
3.164665e+003,-2.397911e-004
3.166593e+003,-3.138978e-004
3.168522e+003,-3.830593e-004
3.170450e+003,-2.245907e-004
3.172379e+003,-1.996530e-004
3.174307e+003,-2.466791e-004
3.176236e+003,-1.742170e-004
3.178164e+003,-1.462290e-004
3.180093e+003,-1.629889e-004
3.182021e+003,-1.122436e-004
3.183950e+003,-8.282720e-005
3.185878e+003,-1.597430e-004
3.187807e+003,-4.727970e-005
3.189735e+003,-1.018752e-004
3.191664e+003,-2.167750e-004
3.193592e+003,-1.358946e-004
3.195521e+003,-9.882759e-005
3.197449e+003,-1.369214e-004
3.199378e+003,-1.542447e-004
3.201306e+003,-1.136349e-004
3.203235e+003,-4.124992e-005
3.205163e+003,6.295472e-007
3.207092e+003,3.568683e-005
3.209020e+003,1.618568e-004
3.210948e+003,2.334921e-004
3.212877e+003,1.887062e-004
3.214806e+003,1.554596e-004
3.216734e+003,1.509518e-004
3.218663e+003,2.162866e-004
3.220591e+003,3.316658e-004
3.222520e+003,3.437691e-004
3.224448e+003,1.977890e-004
3.226376e+003,2.074355e-004
3.228305e+003,3.675457e-004
3.230234e+003,4.607412e-004
3.232162e+003,4.519846e-004
3.234091e+003,5.049248e-004
3.236019e+003,4.369927e-004
3.237948e+003,3.566687e-004
3.239876e+003,4.331453e-004
3.241804e+003,6.948462e-004
3.243733e+003,8.522148e-004
3.245662e+003,8.772476e-004
3.247590e+003,9.815446e-004
3.249519e+003,9.425590e-004
3.251447e+003,8.982312e-004
3.253375e+003,8.282457e-004
3.255304e+003,8.924208e-004
3.257232e+003,1.119483e-003
3.259161e+003,1.238924e-003
3.261090e+003,1.255904e-003
3.263018e+003,1.212774e-003
3.264947e+003,1.225500e-003
3.266875e+003,1.231780e-003
3.268803e+003,1.358065e-003
3.270732e+003,1.401410e-003
3.272660e+003,1.364480e-003
3.274589e+003,1.363417e-003
3.276518e+003,1.266571e-003
3.278446e+003,1.278767e-003
3.280375e+003,1.394462e-003
3.282303e+003,1.442032e-003
3.284231e+003,1.527013e-003
3.286160e+003,1.457258e-003
3.288088e+003,1.356603e-003
3.290017e+003,1.228956e-003
3.291946e+003,1.242779e-003
3.293874e+003,1.288637e-003
3.295802e+003,1.189317e-003
3.297731e+003,1.138120e-003
3.299659e+003,1.127855e-003
3.301588e+003,1.017810e-003
3.303516e+003,9.531518e-004
3.305445e+003,9.417952e-004
3.307374e+003,9.474070e-004
3.309302e+003,8.066015e-004
3.311230e+003,6.074734e-004
3.313159e+003,4.912248e-004
3.315087e+003,4.081049e-004
3.317016e+003,4.386179e-004
3.318944e+003,4.303924e-004
3.320873e+003,2.985077e-004
3.322802e+003,2.404540e-004
3.324730e+003,1.268225e-004
3.326658e+003,2.968911e-005
3.328587e+003,-9.200348e-005
3.330515e+003,-2.351880e-004
3.332444e+003,-3.427027e-004
3.334372e+003,-4.170235e-004
3.336301e+003,-3.031700e-004
3.338229e+003,-2.134964e-004
3.340158e+003,-3.124410e-004
3.342086e+003,-3.256849e-004
3.344015e+003,-4.277816e-004
3.345943e+003,-4.060997e-004
3.347872e+003,-3.761735e-004
3.349800e+003,-4.478406e-004
3.351729e+003,-3.729953e-004
3.353657e+003,-4.103699e-004
3.355586e+003,-4.756105e-004
3.357514e+003,-5.427608e-004
3.359443e+003,-6.602569e-004
3.361371e+003,-7.474237e-004
3.363300e+003,-7.686586e-004
3.365229e+003,-7.942913e-004
3.367157e+003,-1.000390e-003
3.369085e+003,-1.205035e-003
3.371014e+003,-1.306628e-003
3.372942e+003,-1.294868e-003
3.374871e+003,-1.196345e-003
3.376799e+003,-1.136665e-003
3.378728e+003,-1.279209e-003
3.380656e+003,-1.540317e-003
3.382585e+003,-1.594759e-003
3.384513e+003,-1.774310e-003
3.386442e+003,-1.986277e-003
3.388370e+003,-1.958768e-003
3.390299e+003,-1.949037e-003
3.392227e+003,-1.946134e-003
3.394156e+003,-2.047884e-003
3.396084e+003,-1.968828e-003
3.398013e+003,-1.924495e-003
3.399941e+003,-2.093326e-003
3.401870e+003,-2.305367e-003
3.403798e+003,-2.355428e-003
3.405727e+003,-2.247093e-003
3.407655e+003,-2.186502e-003
3.409584e+003,-2.171271e-003
3.411512e+003,-2.319078e-003
3.413441e+003,-2.398367e-003
3.415369e+003,-2.299962e-003
3.417298e+003,-2.316210e-003
3.419226e+003,-2.258168e-003
3.421155e+003,-2.184557e-003
3.423083e+003,-2.174601e-003
3.425012e+003,-2.305730e-003
3.426940e+003,-2.373355e-003
3.428869e+003,-2.312453e-003
3.430797e+003,-2.301149e-003
3.432726e+003,-2.274319e-003
3.434654e+003,-2.268617e-003
3.436583e+003,-2.407692e-003
3.438511e+003,-2.531042e-003
3.440440e+003,-2.423409e-003
3.442368e+003,-2.491313e-003
3.444297e+003,-2.665719e-003
3.446225e+003,-2.603705e-003
3.448154e+003,-2.400838e-003
3.450082e+003,-2.400179e-003
3.452011e+003,-2.408878e-003
3.453939e+003,-2.489798e-003
3.455868e+003,-2.597678e-003
3.457796e+003,-2.521720e-003
3.459725e+003,-2.641777e-003
3.461653e+003,-2.644478e-003
3.463582e+003,-2.587928e-003
3.465510e+003,-2.721238e-003
3.467439e+003,-2.810856e-003
3.469367e+003,-2.810856e-003
3.471296e+003,-2.839331e-003
3.473224e+003,-2.751497e-003
3.475153e+003,-2.763317e-003
3.477081e+003,-2.632227e-003
3.479010e+003,-2.578377e-003
3.480938e+003,-2.735264e-003
3.482867e+003,-2.872939e-003
3.484795e+003,-2.749521e-003
3.486724e+003,-2.724629e-003
3.488652e+003,-2.769276e-003
3.490581e+003,-2.587401e-003
3.492509e+003,-2.627682e-003
3.494438e+003,-2.893807e-003
3.496366e+003,-2.823102e-003
3.498295e+003,-2.761506e-003
3.500223e+003,-2.744747e-003
3.502152e+003,-2.712907e-003
3.504080e+003,-2.641382e-003
3.506009e+003,-2.721962e-003
3.507937e+003,-2.855790e-003
3.509866e+003,-2.950021e-003
3.511794e+003,-2.859707e-003
3.513723e+003,-2.848910e-003
3.515651e+003,-2.992604e-003
3.517580e+003,-2.827974e-003
3.519508e+003,-2.671548e-003
3.521437e+003,-2.896704e-003
3.523365e+003,-2.950679e-003
3.525294e+003,-2.945742e-003
3.527222e+003,-3.047028e-003
3.529151e+003,-3.287017e-003
3.531079e+003,-3.245186e-003
3.533008e+003,-2.967462e-003
3.534936e+003,-2.942188e-003
3.536865e+003,-3.016756e-003
3.538793e+003,-3.161414e-003
3.540722e+003,-3.404957e-003
3.542650e+003,-3.452820e-003
3.544579e+003,-3.162862e-003
3.546507e+003,-2.733684e-003
3.548436e+003,-2.728745e-003
3.550364e+003,-2.915102e-003
3.552293e+003,-2.915925e-003
3.554221e+003,-2.875704e-003
3.556150e+003,-2.955319e-003
3.558078e+003,-3.124670e-003
3.560007e+003,-3.219797e-003
3.561935e+003,-3.182038e-003
3.563864e+003,-3.124111e-003
3.565792e+003,-2.963810e-003
3.567721e+003,-2.943340e-003
3.569649e+003,-3.099076e-003
3.571578e+003,-3.172039e-003
3.573506e+003,-3.149013e-003
3.575435e+003,-3.173091e-003
3.577363e+003,-3.211377e-003
3.579292e+003,-3.325095e-003
3.581220e+003,-3.368496e-003
3.583149e+003,-3.265412e-003
3.585077e+003,-3.118584e-003
3.587006e+003,-3.070651e-003
3.588934e+003,-3.293495e-003
3.590863e+003,-3.386053e-003
3.592791e+003,-3.202464e-003
3.594720e+003,-3.028931e-003
3.596648e+003,-3.129802e-003
3.598577e+003,-3.400025e-003
3.600505e+003,-3.285307e-003
3.602434e+003,-3.242292e-003
3.604362e+003,-3.383291e-003
3.606291e+003,-3.406962e-003
3.608219e+003,-3.196938e-003
3.610148e+003,-3.118552e-003
3.612076e+003,-3.258012e-003
3.614005e+003,-3.469322e-003
3.615933e+003,-3.429350e-003
3.617862e+003,-3.219599e-003
3.619790e+003,-3.225026e-003
3.621719e+003,-3.413241e-003
3.623647e+003,-3.584912e-003
3.625576e+003,-3.525855e-003
3.627504e+003,-3.125953e-003
3.629433e+003,-2.775959e-003
3.631361e+003,-3.206345e-003
3.633290e+003,-3.354885e-003
3.635218e+003,-3.465673e-003
3.637146e+003,-3.427015e-003
3.639075e+003,-3.386119e-003
3.641004e+003,-3.648231e-003
3.642932e+003,-3.847233e-003
3.644861e+003,-3.899809e-003
3.646789e+003,-3.777931e-003
3.648718e+003,-3.397001e-003
3.650646e+003,-3.257256e-003
3.652574e+003,-3.712659e-003
3.654503e+003,-3.779080e-003
3.656432e+003,-3.433787e-003
3.658360e+003,-3.598779e-003
3.660289e+003,-3.882011e-003
3.662217e+003,-3.911105e-003
3.664146e+003,-3.973852e-003
3.666074e+003,-4.112743e-003
3.668002e+003,-4.065445e-003
3.669931e+003,-3.839975e-003
3.671860e+003,-3.856297e-003
3.673788e+003,-3.690385e-003
3.675717e+003,-3.292443e-003
3.677645e+003,-3.526184e-003
3.679573e+003,-3.847692e-003
3.681502e+003,-3.965545e-003
3.683430e+003,-3.947618e-003
3.685359e+003,-3.996211e-003
3.687288e+003,-3.872619e-003
3.689216e+003,-3.530555e-003
3.691145e+003,-3.561415e-003
3.693073e+003,-3.768964e-003
3.695001e+003,-3.720970e-003
3.696930e+003,-3.631704e-003
3.698858e+003,-3.557405e-003
3.700787e+003,-3.449073e-003
3.702716e+003,-3.349427e-003
3.704644e+003,-3.373987e-003
3.706573e+003,-3.434445e-003
3.708501e+003,-3.508140e-003
3.710429e+003,-3.405943e-003
3.712358e+003,-3.367346e-003
3.714286e+003,-3.661768e-003
3.716215e+003,-3.857906e-003
3.718144e+003,-3.638506e-003
3.720072e+003,-3.599239e-003
3.722000e+003,-3.512577e-003
3.723929e+003,-3.544819e-003
3.725857e+003,-3.617378e-003
3.727786e+003,-3.775796e-003
3.729714e+003,-3.906278e-003
3.731643e+003,-3.637356e-003
3.733572e+003,-3.266398e-003
3.735500e+003,-3.130921e-003
3.737428e+003,-3.562927e-003
3.739357e+003,-3.971127e-003
3.741285e+003,-3.890319e-003
3.743214e+003,-3.274883e-003
3.745142e+003,-3.017875e-003
3.747071e+003,-3.490687e-003
3.749000e+003,-3.263537e-003
3.750928e+003,-3.054496e-003
3.752856e+003,-3.041697e-003
3.754785e+003,-3.376256e-003
3.756713e+003,-3.641496e-003
3.758642e+003,-3.571044e-003
3.760570e+003,-3.412682e-003
3.762499e+003,-3.579128e-003
3.764427e+003,-3.656446e-003
3.766356e+003,-3.556584e-003
3.768284e+003,-3.644979e-003
3.770213e+003,-3.622307e-003
3.772141e+003,-3.716207e-003
3.774070e+003,-3.706548e-003
3.775998e+003,-3.598483e-003
3.777927e+003,-3.595394e-003
3.779855e+003,-3.437371e-003
3.781784e+003,-3.414162e-003
3.783712e+003,-3.461926e-003
3.785641e+003,-3.505215e-003
3.787569e+003,-3.659271e-003
3.789498e+003,-4.034424e-003
3.791426e+003,-4.203716e-003
3.793355e+003,-3.947848e-003
3.795283e+003,-3.505642e-003
3.797212e+003,-3.460447e-003
3.799140e+003,-3.560363e-003
3.801069e+003,-3.259065e-003
3.802997e+003,-3.622898e-003
3.804926e+003,-3.889235e-003
3.806854e+003,-3.562105e-003
3.808783e+003,-3.538344e-003
3.810711e+003,-3.661210e-003
3.812640e+003,-3.806638e-003
3.814568e+003,-3.883193e-003
3.816497e+003,-3.433886e-003
3.818425e+003,-3.291226e-003
3.820354e+003,-3.197431e-003
3.822282e+003,-3.284222e-003
3.824211e+003,-3.742520e-003
3.826139e+003,-3.888644e-003
3.828068e+003,-3.985147e-003
3.829996e+003,-3.818134e-003
3.831925e+003,-3.722876e-003
3.833853e+003,-3.876001e-003
3.835782e+003,-3.837314e-003
3.837710e+003,-3.359915e-003
3.839639e+003,-3.445490e-003
3.841567e+003,-3.815703e-003
3.843496e+003,-3.749353e-003
3.845424e+003,-3.856133e-003
3.847353e+003,-4.170440e-003
3.849281e+003,-4.169357e-003
3.851210e+003,-3.658811e-003
3.853138e+003,-2.958972e-003
3.855067e+003,-3.119538e-003
3.856995e+003,-3.617936e-003
3.858924e+003,-3.899448e-003
3.860852e+003,-3.999034e-003
3.862781e+003,-3.684668e-003
3.864709e+003,-3.523982e-003
3.866638e+003,-4.082086e-003
3.868566e+003,-3.934353e-003
3.870495e+003,-3.747415e-003
3.872423e+003,-3.963576e-003
3.874352e+003,-3.957272e-003
3.876280e+003,-4.039052e-003
3.878209e+003,-3.974706e-003
3.880137e+003,-3.879843e-003
3.882066e+003,-4.216185e-003
3.883994e+003,-4.313566e-003
3.885923e+003,-3.923715e-003
3.887851e+003,-3.846609e-003
3.889780e+003,-3.711936e-003
3.891708e+003,-3.608341e-003
3.893637e+003,-3.756547e-003
3.895565e+003,-3.971062e-003
3.897494e+003,-4.157346e-003
3.899422e+003,-4.034161e-003
3.901351e+003,-3.976709e-003
3.903279e+003,-4.009539e-003
3.905208e+003,-3.959833e-003
3.907136e+003,-4.254051e-003
3.909065e+003,-4.286368e-003
3.910993e+003,-4.195414e-003
3.912922e+003,-4.258579e-003
3.914850e+003,-4.217137e-003
3.916779e+003,-4.035539e-003
3.918707e+003,-3.961376e-003
3.920636e+003,-4.284925e-003
3.922564e+003,-4.225241e-003
3.924493e+003,-3.984982e-003
3.926421e+003,-4.075555e-003
3.928350e+003,-4.228260e-003
3.930278e+003,-4.195052e-003
3.932207e+003,-4.233051e-003
3.934135e+003,-4.281841e-003
3.936064e+003,-4.267175e-003
3.937992e+003,-4.300771e-003
3.939921e+003,-4.268356e-003
3.941849e+003,-4.154425e-003
3.943778e+003,-4.265239e-003
3.945706e+003,-4.145629e-003
3.947635e+003,-4.053561e-003
3.949563e+003,-4.083367e-003
3.951492e+003,-4.082809e-003
3.953420e+003,-4.313172e-003
3.955349e+003,-4.702838e-003
3.957277e+003,-4.583644e-003
3.959206e+003,-4.414074e-003
3.961134e+003,-4.532560e-003
3.963063e+003,-4.446478e-003
3.964991e+003,-4.359394e-003
3.966920e+003,-4.341319e-003
3.968848e+003,-4.303002e-003
3.970777e+003,-4.294702e-003
3.972705e+003,-4.118290e-003
3.974634e+003,-4.101452e-003
3.976562e+003,-4.179662e-003
3.978491e+003,-4.231608e-003
3.980419e+003,-4.126069e-003
3.982348e+003,-3.971423e-003
3.984276e+003,-4.036524e-003
3.986205e+003,-4.304610e-003
3.988133e+003,-4.243945e-003
3.990062e+003,-4.084220e-003
3.991990e+003,-4.213560e-003
3.993919e+003,-4.352014e-003
3.995847e+003,-4.424701e-003
3.997776e+003,-4.381503e-003
3.999704e+003,-4.291027e-003
4.001633e+003,0.000000e+000
