3.991989e+002,4.576111e-003
4.011274e+002,9.964492e-003
4.030559e+002,1.514446e-002
4.049844e+002,1.023862e-002
4.069129e+002,5.313441e-003
4.088414e+002,6.204826e-003
4.107699e+002,8.784473e-003
4.126984e+002,6.948799e-003
4.146269e+002,1.099297e-002
4.165554e+002,1.390089e-002
4.184839e+002,8.367546e-003
4.204124e+002,6.480690e-003
4.223409e+002,1.169846e-002
4.242694e+002,9.287163e-003
4.261979e+002,9.496170e-003
4.281264e+002,7.321333e-003
4.300549e+002,-7.381144e-003
4.319834e+002,-6.947997e-003
4.339119e+002,1.782648e-005
4.358404e+002,-2.045543e-003
4.377689e+002,3.087344e-003
4.396974e+002,4.020415e-003
4.416259e+002,5.943673e-004
4.435544e+002,2.022465e-003
4.454829e+002,5.061547e-003
4.474114e+002,7.728452e-003
4.493399e+002,1.234786e-002
4.512684e+002,9.308252e-003
4.531969e+002,7.083427e-003
4.551254e+002,2.219246e-003
4.570539e+002,2.305112e-003
4.589824e+002,-1.028124e-003
4.609109e+002,-3.968829e-003
4.628394e+002,1.360924e-003
4.647679e+002,4.629925e-003
4.666964e+002,3.867845e-003
4.686249e+002,3.728763e-003
4.705533e+002,4.585789e-003
4.724819e+002,4.435865e-003
4.744103e+002,4.045230e-003
4.763389e+002,7.210684e-003
4.782673e+002,5.952045e-003
4.801959e+002,2.631876e-003
4.821243e+002,4.203851e-003
4.840529e+002,6.364103e-003
4.859813e+002,4.948490e-003
4.879099e+002,3.214437e-003
4.898383e+002,1.067299e-003
4.917668e+002,6.459312e-004
4.936953e+002,1.540446e-003
4.956238e+002,1.294553e-003
4.975523e+002,5.802663e-004
4.994808e+002,4.245551e-004
5.014093e+002,-7.693201e-004
5.033378e+002,-5.550379e-004
5.052663e+002,4.129802e-004
5.071948e+002,1.549990e-003
5.091233e+002,2.822164e-003
5.110518e+002,3.123252e-003
5.129803e+002,2.035249e-003
5.149088e+002,2.136095e-003
5.168373e+002,2.265941e-003
5.187658e+002,2.384664e-003
5.206943e+002,2.913686e-003
5.226228e+002,1.667786e-003
5.245513e+002,-2.479706e-004
5.264798e+002,3.026855e-004
5.284083e+002,3.224451e-003
5.303368e+002,4.885489e-003
5.322653e+002,3.401574e-003
5.341938e+002,2.011314e-003
5.361223e+002,2.222310e-003
5.380508e+002,1.264079e-003
5.399792e+002,9.032448e-004
5.419078e+002,2.408120e-003
5.438363e+002,3.214671e-003
5.457648e+002,2.555112e-003
5.476932e+002,2.199663e-004
5.496218e+002,1.502557e-004
5.515503e+002,1.604095e-003
5.534788e+002,2.001328e-003
5.554072e+002,2.241993e-003
5.573358e+002,1.590493e-003
5.592643e+002,1.137688e-003
5.611927e+002,3.367846e-003
5.631212e+002,3.891514e-003
5.650497e+002,3.034589e-003
5.669783e+002,2.930331e-003
5.689067e+002,7.854564e-004
5.708352e+002,1.797259e-003
5.727637e+002,1.078393e-003
5.746923e+002,-3.944141e-004
5.766207e+002,5.661989e-004
5.785492e+002,1.639782e-004
5.804777e+002,4.377858e-003
5.824063e+002,4.816835e-003
5.843347e+002,2.477727e-003
5.862632e+002,2.993516e-003
5.881917e+002,2.383232e-003
5.901202e+002,2.311075e-003
5.920487e+002,2.011314e-003
5.939772e+002,9.639762e-005
5.959057e+002,-5.622519e-004
5.978342e+002,4.223661e-004
5.997627e+002,1.521460e-003
6.016912e+002,2.168261e-003
6.036197e+002,9.240636e-004
6.055482e+002,9.526205e-004
6.074767e+002,2.417549e-003
6.094052e+002,2.486025e-003
6.113337e+002,2.110290e-003
6.132622e+002,3.124520e-003
6.151907e+002,3.149718e-003
6.171192e+002,2.602009e-003
6.190477e+002,1.971703e-003
6.209762e+002,2.158738e-003
6.229047e+002,1.574065e-003
6.248332e+002,2.340955e-003
6.267617e+002,1.822946e-003
6.286902e+002,9.120769e-004
6.306187e+002,7.057317e-004
6.325472e+002,8.166268e-004
6.344756e+002,8.829250e-004
6.364042e+002,9.157293e-004
6.383326e+002,9.664015e-004
6.402612e+002,8.560659e-004
6.421896e+002,7.196709e-004
6.441182e+002,7.006208e-004
6.460466e+002,8.292084e-004
6.479752e+002,9.751353e-004
6.499036e+002,1.024420e-003
6.518322e+002,7.783862e-004
6.537606e+002,6.990278e-004
6.556891e+002,8.232660e-004
6.576177e+002,6.043544e-004
6.595461e+002,4.890354e-004
6.614746e+002,6.619591e-004
6.634031e+002,7.094820e-004
6.653317e+002,-1.856103e-004
6.672601e+002,-7.893633e-004
6.691886e+002,-5.164182e-004
6.711171e+002,-5.294497e-005
6.730457e+002,2.398904e-004
6.749741e+002,3.736144e-004
6.769026e+002,7.714488e-004
6.788311e+002,1.371361e-003
6.807596e+002,6.850893e-004
6.826881e+002,1.278993e-005
6.846166e+002,2.129715e-004
6.865451e+002,1.568849e-004
6.884736e+002,3.140586e-004
6.904021e+002,6.926227e-004
6.923306e+002,9.362499e-004
6.942591e+002,6.026955e-004
6.961876e+002,5.211465e-004
6.981161e+002,4.511886e-004
7.000446e+002,4.754022e-004
7.019731e+002,8.222370e-004
7.039016e+002,7.945517e-004
7.058301e+002,1.684530e-004
7.077585e+002,-2.531034e-004
7.096871e+002,4.986959e-005
7.116156e+002,3.021550e-004
7.135441e+002,2.216570e-004
7.154725e+002,7.290101e-005
7.174011e+002,3.841271e-004
7.193296e+002,8.981980e-004
7.212581e+002,5.284448e-004
7.231865e+002,5.523974e-004
7.251151e+002,9.599925e-004
7.270436e+002,4.183530e-004
7.289720e+002,3.994488e-004
7.309005e+002,2.235466e-004
7.328290e+002,-1.616640e-004
7.347576e+002,5.096314e-005
7.366860e+002,5.919453e-004
7.386145e+002,1.195364e-003
7.405430e+002,9.888506e-004
7.424716e+002,2.442047e-005
7.444000e+002,9.840921e-006
7.463285e+002,3.710277e-004
7.482570e+002,6.619591e-004
7.501855e+002,4.360972e-004
7.521140e+002,6.198831e-004
7.540425e+002,8.908935e-004
7.559710e+002,8.450770e-004
7.578995e+002,2.299448e-004
7.598280e+002,4.658824e-004
7.617565e+002,6.685628e-004
7.636850e+002,7.402817e-004
7.656135e+002,1.045111e-003
7.675420e+002,9.475731e-004
7.694705e+002,2.712537e-004
7.713990e+002,-3.763721e-004
7.733275e+002,2.471508e-004
7.752560e+002,6.128155e-004
7.771844e+002,3.042771e-004
7.791130e+002,2.825928e-004
7.810415e+002,4.433609e-004
7.829700e+002,1.868831e-004
7.848984e+002,1.701435e-004
7.868270e+002,2.837864e-004
7.887555e+002,3.339206e-004
7.906840e+002,6.174940e-004
7.926124e+002,5.490134e-004
7.945410e+002,5.545207e-004
7.964695e+002,8.197140e-004
7.983979e+002,7.553505e-004
8.003264e+002,4.175239e-004
8.022549e+002,2.962531e-004
8.041835e+002,4.486581e-005
8.061119e+002,3.170428e-004
8.080404e+002,3.531868e-004
8.099689e+002,6.527455e-006
8.118975e+002,-6.169120e-005
8.138259e+002,2.011283e-005
8.157545e+002,-1.373189e-004
8.176830e+002,1.463446e-004
8.196115e+002,3.041776e-004
8.215399e+002,3.935787e-004
8.234684e+002,7.203678e-004
8.253970e+002,5.077445e-004
8.273254e+002,5.900872e-004
8.292539e+002,9.157625e-004
8.311824e+002,5.925756e-004
8.331110e+002,2.626335e-004
8.350394e+002,3.509981e-004
8.369679e+002,4.026658e-004
8.388964e+002,2.248395e-004
8.408250e+002,4.271421e-004
8.427534e+002,5.251938e-004
8.446819e+002,2.617384e-004
8.466104e+002,2.919759e-004
8.485389e+002,6.282780e-004
8.504674e+002,6.636515e-004
8.523959e+002,2.856431e-004
8.543244e+002,7.604928e-005
8.562529e+002,2.413823e-004
8.581814e+002,2.795093e-004
8.601099e+002,8.360471e-004
8.620384e+002,8.297395e-004
8.639669e+002,6.532980e-004
8.658954e+002,4.175902e-004
8.678239e+002,2.162866e-004
8.697524e+002,2.712537e-004
8.716809e+002,4.041582e-004
8.736094e+002,8.753883e-004
8.755378e+002,9.034440e-004
8.774664e+002,3.977906e-004
8.793949e+002,4.611724e-004
8.813234e+002,4.650200e-004
8.832518e+002,5.469566e-004
8.851804e+002,7.052007e-004
8.871089e+002,7.550186e-004
8.890374e+002,3.836960e-004
8.909658e+002,8.363837e-005
8.928943e+002,1.489631e-004
8.948229e+002,1.641108e-004
8.967513e+002,1.639119e-004
8.986798e+002,3.772292e-004
9.006083e+002,4.841593e-004
9.025369e+002,4.556995e-004
9.044653e+002,2.815318e-004
9.063938e+002,1.940431e-004
9.083223e+002,4.135440e-004
9.102509e+002,6.274485e-004
9.121793e+002,3.391930e-004
9.141078e+002,1.080635e-004
9.160364e+002,1.250990e-004
9.179648e+002,1.950708e-004
9.198933e+002,4.180545e-004
9.218218e+002,5.828542e-004
9.237504e+002,3.445650e-004
9.256788e+002,3.782904e-004
9.276073e+002,6.269508e-004
9.295358e+002,7.630843e-004
9.314644e+002,6.394273e-004
9.333928e+002,3.918211e-004
9.353213e+002,9.106188e-005
9.372498e+002,2.882955e-004
9.391783e+002,5.370039e-004
9.411068e+002,5.205825e-004
9.430353e+002,2.404540e-004
9.449637e+002,6.107033e-005
9.468923e+002,2.389030e-005
9.488208e+002,1.576804e-004
9.507493e+002,1.380915e-004
9.526777e+002,9.643076e-005
9.546063e+002,1.170452e-004
9.565348e+002,1.133332e-004
9.584633e+002,1.849605e-004
9.603917e+002,2.070377e-004
9.623203e+002,-4.141735e-006
9.642488e+002,-1.301310e-004
9.661772e+002,3.065007e-005
9.681057e+002,8.466572e-005
9.700343e+002,-3.734046e-005
9.719628e+002,-7.315379e-005
9.738912e+002,2.153252e-004
9.758197e+002,2.660484e-004
9.777483e+002,2.945621e-004
9.796768e+002,3.894001e-004
9.816052e+002,1.009049e-004
9.835337e+002,2.577599e-004
9.854623e+002,3.563702e-004
9.873907e+002,4.822354e-004
9.893192e+002,5.497101e-004
9.912477e+002,4.246546e-004
9.931763e+002,5.608906e-004
9.951047e+002,4.919214e-004
9.970332e+002,2.219222e-004
9.989617e+002,3.529215e-004
1.000890e+003,2.652527e-004
1.002819e+003,7.591672e-005
1.004747e+003,3.140917e-004
1.006676e+003,5.809299e-004
1.008604e+003,5.530277e-004
1.010533e+003,3.987524e-004
1.012461e+003,2.224526e-004
1.014390e+003,3.634956e-005
1.016318e+003,9.437600e-005
1.018247e+003,2.526543e-004
1.020175e+003,2.899202e-004
1.022104e+003,1.557579e-004
1.024032e+003,6.875858e-005
1.025961e+003,1.640113e-004
1.027889e+003,2.310057e-004
1.029818e+003,3.400884e-004
1.031746e+003,3.871449e-004
1.033675e+003,4.527475e-004
1.035603e+003,2.503004e-004
1.037532e+003,1.668288e-004
1.039460e+003,1.947724e-004
1.041389e+003,1.522445e-004
1.043317e+003,1.213207e-004
1.045246e+003,1.365144e-005
1.047174e+003,-1.579213e-004
1.049103e+003,-5.648986e-005
1.051031e+003,1.227790e-004
1.052960e+003,3.184354e-004
1.054888e+003,7.929699e-005
1.056817e+003,-1.701431e-004
1.058745e+003,-1.586499e-004
1.060674e+003,4.208227e-005
1.062602e+003,4.513091e-005
1.064531e+003,2.254694e-004
1.066459e+003,2.803713e-004
1.068388e+003,2.991045e-004
1.070316e+003,2.705574e-004
1.072245e+003,1.154212e-004
1.074173e+003,8.748267e-005
1.076102e+003,8.642217e-005
1.078030e+003,4.768250e-005
1.079959e+003,3.136607e-004
1.081887e+003,4.283361e-004
1.083816e+003,3.555412e-004
1.085744e+003,1.436267e-004
1.087673e+003,1.801540e-004
1.089601e+003,2.520907e-004
1.091530e+003,3.131633e-004
1.093458e+003,2.331274e-004
1.095387e+003,1.196966e-004
1.097315e+003,6.113660e-005
1.099244e+003,-3.846691e-005
1.101172e+003,2.170334e-005
1.103101e+003,2.307405e-004
1.105029e+003,2.733424e-004
1.106958e+003,3.062997e-004
1.108886e+003,3.022876e-004
1.110815e+003,1.655029e-004
1.112743e+003,1.840323e-004
1.114672e+003,1.686519e-004
1.116600e+003,5.102942e-005
1.118529e+003,-9.213599e-005
1.120457e+003,-1.188687e-004
1.122386e+003,1.225977e-005
1.124314e+003,-2.524740e-005
1.126243e+003,8.761524e-005
1.128171e+003,2.103858e-004
1.130100e+003,2.221211e-004
1.132028e+003,3.085875e-004
1.133957e+003,3.901628e-004
1.135885e+003,2.501678e-004
1.137814e+003,8.141797e-005
1.139742e+003,-2.832868e-005
1.141671e+003,8.515532e-006
1.143599e+003,2.248064e-004
1.145528e+003,2.628656e-004
1.147456e+003,3.588565e-005
1.149385e+003,-1.175437e-004
1.151313e+003,-1.060160e-004
1.153242e+003,8.748267e-005
1.155170e+003,1.608956e-004
1.157099e+003,2.528863e-004
1.159027e+003,2.996019e-004
1.160956e+003,7.419345e-005
1.162884e+003,3.287021e-005
1.164813e+003,1.207241e-004
1.166741e+003,1.260933e-004
1.168670e+003,2.521901e-004
1.170598e+003,1.872808e-004
1.172526e+003,1.576141e-004
1.174455e+003,1.499243e-004
1.176384e+003,1.176086e-004
1.178312e+003,1.894686e-004
1.180240e+003,1.083950e-004
1.182169e+003,-7.149737e-005
1.184098e+003,-3.624713e-005
1.186026e+003,-1.968117e-005
1.187954e+003,5.484030e-005
1.189883e+003,6.435107e-005
1.191812e+003,1.299380e-004
1.193740e+003,1.806844e-004
1.195668e+003,1.944078e-004
1.197597e+003,2.238781e-004
1.199526e+003,1.791264e-004
1.201454e+003,1.643479e-005
1.203382e+003,9.914836e-005
1.205311e+003,2.720825e-004
1.207240e+003,2.168502e-004
1.209168e+003,2.833053e-005
1.211096e+003,3.651525e-005
1.213025e+003,8.880831e-005
1.214953e+003,8.754896e-005
1.216882e+003,5.116197e-005
1.218810e+003,1.874134e-004
1.220739e+003,2.628656e-004
1.222667e+003,1.530068e-004
1.224596e+003,1.707070e-004
1.226524e+003,2.416143e-004
1.228453e+003,8.867574e-005
1.230381e+003,9.244495e-006
1.232310e+003,1.495265e-004
1.234238e+003,2.943963e-004
1.236167e+003,3.472178e-004
1.238095e+003,1.896675e-004
1.240024e+003,7.319926e-005
1.241952e+003,1.465103e-004
1.243881e+003,3.208228e-004
1.245809e+003,3.151859e-004
1.247738e+003,2.636613e-004
1.249666e+003,2.003415e-004
1.251595e+003,9.606621e-005
1.253523e+003,1.731599e-004
1.255452e+003,1.756128e-004
1.257380e+003,7.969468e-005
1.259309e+003,7.754057e-005
1.261237e+003,2.394263e-004
1.263166e+003,3.583931e-004
1.265094e+003,3.136607e-004
1.267023e+003,1.849605e-004
1.268951e+003,-9.741299e-006
1.270880e+003,-3.634652e-005
1.272808e+003,8.148425e-005
1.274737e+003,9.000138e-005
1.276665e+003,1.039871e-004
1.278594e+003,2.339562e-004
1.280522e+003,2.118113e-004
1.282451e+003,7.740801e-005
1.284379e+003,4.519718e-005
1.286308e+003,3.651525e-005
1.288236e+003,2.004078e-004
1.290165e+003,3.719231e-004
1.292093e+003,2.737403e-004
1.294022e+003,1.519793e-004
1.295950e+003,7.966153e-005
1.297879e+003,3.363235e-005
1.299807e+003,-4.953257e-005
1.301736e+003,-1.254274e-004
1.303664e+003,-2.948919e-006
1.305593e+003,1.544074e-005
1.307521e+003,2.780035e-005
1.309450e+003,1.186361e-004
1.311378e+003,9.931407e-005
1.313307e+003,2.233292e-005
1.315235e+003,5.629838e-005
1.317164e+003,6.445049e-005
1.319092e+003,1.893029e-004
1.321021e+003,2.442997e-004
1.322949e+003,1.185698e-004
1.324878e+003,4.705289e-005
1.326806e+003,4.526346e-005
1.328735e+003,1.144601e-004
1.330663e+003,2.645896e-004
1.332592e+003,1.805186e-004
1.334520e+003,6.017559e-005
1.336449e+003,-1.481066e-005
1.338377e+003,-6.599799e-005
1.340306e+003,-1.044259e-004
1.342234e+003,1.945012e-005
1.344163e+003,3.389745e-005
1.346091e+003,3.522291e-005
1.348020e+003,4.483267e-005
1.349948e+003,-3.681036e-005
1.351877e+003,-5.599617e-006
1.353805e+003,8.602448e-005
1.355734e+003,1.847284e-004
1.357662e+003,2.011702e-004
1.359591e+003,6.332377e-005
1.361519e+003,-1.637838e-004
1.363448e+003,-1.737202e-004
1.365376e+003,1.102841e-004
1.367305e+003,1.328215e-004
1.369233e+003,5.377988e-005
1.371162e+003,1.799216e-005
1.373090e+003,-1.315885e-004
1.375019e+003,-1.139993e-004
1.376947e+003,9.994376e-005
1.378876e+003,1.058430e-004
1.380804e+003,8.456630e-005
1.382733e+003,5.351477e-005
1.384661e+003,4.247991e-005
1.386590e+003,-1.328803e-004
1.388518e+003,-1.493757e-004
1.390447e+003,1.756140e-005
1.392375e+003,-5.705307e-005
1.394304e+003,-2.351218e-004
1.396232e+003,-1.233405e-004
1.398161e+003,-2.016732e-004
1.400089e+003,-2.325056e-004
1.402018e+003,-9.773442e-005
1.403946e+003,-2.175367e-004
1.405875e+003,-1.798806e-004
1.407803e+003,4.552856e-005
1.409732e+003,-4.705008e-006
1.411660e+003,-2.925637e-005
1.413589e+003,2.223351e-005
1.415517e+003,-1.381470e-004
1.417446e+003,-5.220111e-004
1.419374e+003,-6.460968e-004
1.421303e+003,-1.039953e-004
1.423231e+003,7.123877e-006
1.425160e+003,9.211361e-006
1.427088e+003,3.664779e-005
1.429017e+003,-8.716691e-005
1.430945e+003,-7.720163e-006
1.432874e+003,1.078978e-004
1.434802e+003,-2.626072e-004
1.436731e+003,-6.938686e-004
1.438659e+003,-3.064791e-005
1.440588e+003,2.348181e-004
1.442516e+003,2.854441e-004
1.444445e+003,2.525548e-004
1.446373e+003,-1.371864e-004
1.448302e+003,-2.736672e-004
1.450230e+003,3.187612e-005
1.452159e+003,-1.013890e-005
1.454087e+003,-3.659769e-004
1.456016e+003,-1.356937e-003
1.457944e+003,-1.330710e-003
1.459873e+003,-3.013489e-004
1.461801e+003,-5.486650e-005
1.463730e+003,-3.026071e-004
1.465658e+003,-2.556864e-004
1.467587e+003,-3.876509e-005
1.469515e+003,-2.300550e-004
1.471444e+003,-9.193904e-004
1.473372e+003,-1.099188e-003
1.475301e+003,-8.023612e-004
1.477229e+003,-5.004994e-004
1.479158e+003,-1.439435e-004
1.481086e+003,6.763184e-005
1.483015e+003,1.944078e-004
1.484943e+003,-2.584378e-005
1.486872e+003,-4.000749e-004
1.488800e+003,-6.847050e-004
1.490729e+003,-4.878897e-004
1.492657e+003,2.465243e-005
1.494586e+003,-2.801573e-004
1.496514e+003,-8.533897e-004
1.498443e+003,-6.412995e-004
1.500371e+003,-1.998848e-004
1.502300e+003,-5.778192e-005
1.504228e+003,-9.104299e-004
1.506157e+003,-2.250026e-003
1.508085e+003,-1.642195e-003
1.510014e+003,-6.226391e-004
1.511942e+003,-4.605177e-004
1.513871e+003,-5.717159e-004
1.515799e+003,-8.226013e-004
1.517728e+003,-7.563875e-004
1.519656e+003,-1.008059e-003
1.521585e+003,-1.495610e-003
1.523513e+003,-9.068259e-004
1.525442e+003,-6.876493e-004
1.527370e+003,-4.916626e-004
1.529299e+003,-2.905546e-004
1.531227e+003,-4.824948e-004
1.533156e+003,-9.751657e-004
1.535084e+003,-6.565846e-004
1.537013e+003,-8.030558e-004
1.538941e+003,-1.905362e-003
1.540870e+003,-2.057052e-003
1.542798e+003,-1.283305e-003
1.544727e+003,-7.645573e-004
1.546655e+003,-2.549910e-004
1.548584e+003,-1.694144e-004
1.550512e+003,-2.020706e-004
1.552441e+003,-3.834566e-004
1.554369e+003,-7.644250e-004
1.556298e+003,-1.210950e-003
1.558226e+003,-2.749159e-003
1.560155e+003,-2.179777e-003
1.562083e+003,-5.455405e-004
1.564012e+003,-2.869123e-004
1.565940e+003,-2.792633e-004
1.567869e+003,-3.961686e-004
1.569797e+003,-6.268741e-004
1.571726e+003,-2.382347e-004
1.573654e+003,-3.370743e-004
1.575583e+003,-9.718597e-004
1.577511e+003,-6.422590e-004
1.579440e+003,-6.119426e-005
1.581368e+003,3.770817e-005
1.583297e+003,-4.771276e-006
1.585225e+003,4.894173e-005
1.587154e+003,1.662321e-004
1.589082e+003,2.060432e-004
1.591010e+003,1.253642e-004
1.592939e+003,-1.023390e-004
1.594868e+003,-1.248642e-004
1.596796e+003,3.280394e-005
1.598724e+003,1.185035e-004
1.600653e+003,5.010156e-005
1.602582e+003,-5.586040e-005
1.604510e+003,1.723004e-005
1.606438e+003,4.662210e-005
1.608367e+003,8.065574e-005
1.610296e+003,5.679546e-005
1.612224e+003,-5.605918e-005
1.614152e+003,-4.135147e-004
1.616081e+003,-1.055493e-003
1.618010e+003,-6.344178e-004
1.619938e+003,-1.542447e-004
1.621866e+003,-4.622719e-004
1.623795e+003,-5.607297e-004
1.625724e+003,-2.383340e-004
1.627652e+003,-1.205249e-004
1.629580e+003,3.671407e-005
1.631509e+003,-8.581632e-006
1.633438e+003,-5.858783e-004
1.635366e+003,-1.390594e-003
1.637294e+003,-8.261069e-004
1.639223e+003,-1.453678e-004
1.641151e+003,-8.184031e-006
1.643080e+003,-1.505350e-004
1.645008e+003,-9.037178e-004
1.646937e+003,-1.381709e-003
1.648865e+003,-8.244202e-004
1.650794e+003,-1.176783e-003
1.652722e+003,-2.519315e-003
1.654651e+003,-1.392642e-003
1.656579e+003,-1.613990e-004
1.658508e+003,3.479213e-005
1.660436e+003,-2.177023e-004
1.662365e+003,-5.722122e-004
1.664293e+003,-2.960842e-004
1.666222e+003,-1.783239e-004
1.668150e+003,-6.473871e-004
1.670079e+003,-8.010052e-004
1.672007e+003,-4.940787e-004
1.673936e+003,-6.741518e-004
1.675864e+003,-6.386527e-004
1.677793e+003,-1.635188e-004
1.679721e+003,-3.053884e-004
1.681650e+003,-8.025927e-004
1.683578e+003,-1.769690e-003
1.685507e+003,-1.265829e-003
1.687435e+003,-5.064897e-004
1.689364e+003,-2.740314e-004
1.691292e+003,-3.505440e-005
1.693221e+003,-3.417094e-004
1.695149e+003,-1.305538e-003
1.697078e+003,-1.288360e-003
1.699006e+003,-1.739825e-003
1.700935e+003,-1.845714e-003
1.702863e+003,-7.642596e-004
1.704792e+003,-7.031643e-004
1.706720e+003,-4.585980e-004
1.708649e+003,-1.557683e-004
1.710577e+003,-1.453678e-004
1.712506e+003,-4.225516e-004
1.714434e+003,-8.921448e-004
1.716363e+003,-1.365657e-003
1.718291e+003,-1.221655e-003
1.720220e+003,-3.975259e-004
1.722148e+003,-7.885185e-005
1.724077e+003,-6.725689e-005
1.726005e+003,-2.041009e-005
1.727934e+003,-1.180737e-004
1.729862e+003,-3.357168e-004
1.731791e+003,-7.927699e-004
1.733719e+003,-1.557288e-003
1.735648e+003,-8.688988e-004
1.737576e+003,-3.180366e-004
1.739505e+003,-6.124483e-004
1.741433e+003,-4.600543e-004
1.743362e+003,-2.347906e-004
1.745290e+003,-9.743628e-005
1.747219e+003,-2.926075e-004
1.749147e+003,-6.425898e-004
1.751076e+003,-7.503675e-004
1.753004e+003,-3.218111e-004
1.754933e+003,-1.710042e-004
1.756861e+003,-3.096266e-004
1.758790e+003,-2.369100e-004
1.760718e+003,-4.853412e-004
1.762647e+003,-3.994459e-004
1.764575e+003,-5.072525e-005
1.766504e+003,-2.940644e-004
1.768432e+003,-5.428931e-004
1.770361e+003,-6.973752e-004
1.772289e+003,-9.994309e-004
1.774218e+003,-5.324688e-004
1.776146e+003,-8.763069e-005
1.778075e+003,-2.034382e-005
1.780003e+003,-1.141318e-004
1.781932e+003,-1.079704e-004
1.783860e+003,-1.452022e-004
1.785789e+003,-2.188283e-004
1.787717e+003,-2.474076e-004
1.789646e+003,-4.082845e-004
1.791574e+003,-6.782540e-004
1.793503e+003,-4.339053e-004
1.795431e+003,-5.887520e-005
1.797360e+003,-7.328631e-005
1.799288e+003,-3.133018e-004
1.801217e+003,-3.733595e-004
1.803145e+003,-1.104548e-004
1.805074e+003,-6.295463e-007
1.807002e+003,3.270453e-005
1.808931e+003,-5.052647e-005
1.810859e+003,-8.908829e-005
1.812788e+003,-8.514614e-005
1.814716e+003,-1.182393e-004
1.816645e+003,-1.286404e-004
1.818573e+003,-1.318866e-004
1.820502e+003,-8.842575e-005
1.822430e+003,-7.494273e-005
1.824359e+003,-3.152885e-004
1.826287e+003,-2.517457e-004
1.828216e+003,-3.153878e-004
1.830144e+003,-3.896140e-004
1.832073e+003,-1.041609e-004
1.834001e+003,1.742885e-005
1.835930e+003,-3.034972e-005
1.837858e+003,2.140512e-005
1.839787e+003,2.063415e-004
1.841715e+003,3.300276e-005
1.843644e+003,-6.232015e-004
1.845572e+003,-5.414701e-004
1.847501e+003,-9.727065e-005
1.849429e+003,8.579250e-005
1.851358e+003,1.275185e-004
1.853286e+003,4.287756e-005
1.855215e+003,-8.912965e-006
1.857143e+003,-4.141557e-005
1.859072e+003,-1.194318e-004
1.861000e+003,-1.002189e-004
1.862929e+003,-3.167499e-005
1.864857e+003,6.825666e-006
1.866786e+003,-2.396255e-004
1.868714e+003,-5.048349e-004
1.870643e+003,-3.415108e-004
1.872571e+003,-1.790526e-004
1.874500e+003,-1.126411e-004
1.876428e+003,4.595934e-005
1.878357e+003,1.259276e-004
1.880285e+003,5.242122e-005
1.882214e+003,-2.683849e-006
1.884142e+003,-1.693116e-005
1.886071e+003,-1.031671e-004
1.887999e+003,-2.087937e-004
1.889928e+003,-2.115424e-004
1.891856e+003,-4.260828e-005
1.893785e+003,-3.578329e-005
1.895713e+003,-8.282720e-005
1.897642e+003,-5.827886e-005
1.899570e+003,-5.851077e-005
1.901499e+003,-4.075468e-006
1.903427e+003,3.366549e-005
1.905356e+003,2.352580e-005
1.907284e+003,1.424766e-006
1.909213e+003,-3.578329e-005
1.911141e+003,5.593386e-005
1.913070e+003,1.852232e-005
1.914998e+003,-1.053866e-004
1.916927e+003,-3.119774e-004
1.918855e+003,-3.637588e-004
1.920784e+003,-2.136620e-004
1.922712e+003,-1.627902e-004
1.924641e+003,-3.909641e-005
1.926569e+003,2.249860e-005
1.928498e+003,2.839680e-005
1.930426e+003,-4.906874e-005
1.932355e+003,-1.282098e-004
1.934283e+003,-1.801787e-004
1.936212e+003,-1.390744e-004
1.938140e+003,-4.333716e-005
1.940069e+003,-6.218814e-005
1.941997e+003,-2.841308e-004
1.943926e+003,-2.177023e-004
1.945854e+003,-4.880370e-005
1.947783e+003,4.367286e-005
1.949711e+003,9.613248e-005
1.951640e+003,1.441355e-005
1.953568e+003,-3.770490e-005
1.955497e+003,-1.756069e-005
1.957425e+003,-1.461187e-005
1.959354e+003,-7.113296e-005
1.961282e+003,-4.317151e-005
1.963211e+003,-9.840698e-006
1.965139e+003,-4.714718e-005
1.967068e+003,-7.722858e-005
1.968996e+003,-3.273520e-005
1.970925e+003,9.973461e-006
1.972853e+003,5.493971e-005
1.974782e+003,7.919108e-006
1.976710e+003,-3.157559e-005
1.978639e+003,2.216724e-005
1.980567e+003,3.197552e-005
1.982496e+003,-6.709125e-005
1.984424e+003,-6.894647e-005
1.986353e+003,-2.163599e-005
1.988281e+003,-4.506206e-006
1.990210e+003,-1.355161e-005
1.992138e+003,-5.735124e-005
1.994067e+003,-8.511301e-005
1.995995e+003,-1.103223e-004
1.997924e+003,-1.179743e-004
1.999852e+003,-2.374068e-004
2.001781e+003,-1.693151e-004
2.003709e+003,-9.992077e-005
2.005638e+003,-8.365540e-005
2.007566e+003,-4.694840e-005
2.009495e+003,5.732227e-006
2.011423e+003,9.258637e-005
2.013352e+003,1.714362e-004
2.015280e+003,1.836014e-004
2.017208e+003,7.190682e-005
2.019137e+003,2.392344e-005
2.021066e+003,5.808785e-005
2.022994e+003,7.826965e-005
2.024922e+003,5.924770e-005
2.026851e+003,-3.313391e-006
2.028780e+003,-6.268508e-005
2.030708e+003,-4.207819e-005
2.032636e+003,-8.696815e-005
2.034565e+003,-6.487160e-005
2.036494e+003,3.227375e-005
2.038422e+003,-3.283459e-005
2.040350e+003,-7.968005e-005
2.042279e+003,-1.130386e-004
2.044208e+003,-7.527402e-005
2.046136e+003,-4.549065e-005
2.048064e+003,-3.651218e-005
2.049993e+003,-5.990221e-005
2.051921e+003,-3.343096e-005
2.053850e+003,-2.945516e-005
2.055778e+003,-2.007876e-005
2.057707e+003,-6.063487e-006
2.059635e+003,-7.056977e-005
2.061564e+003,-1.419893e-004
2.063492e+003,-2.029648e-004
2.065421e+003,-2.051175e-004
2.067349e+003,9.575843e-006
2.069278e+003,1.693148e-004
2.071206e+003,8.065574e-005
2.073135e+003,-1.898539e-005
2.075063e+003,-4.058730e-005
2.076992e+003,4.433561e-005
2.078920e+003,4.827898e-005
2.080849e+003,1.679928e-005
2.082777e+003,6.461186e-006
2.084706e+003,-2.408778e-005
2.086634e+003,-8.236341e-005
2.088563e+003,-1.291042e-004
2.090491e+003,-1.553959e-005
2.092420e+003,1.139961e-004
2.094348e+003,5.888318e-005
2.096277e+003,1.076870e-005
2.098205e+003,-8.411918e-005
2.100134e+003,-6.791947e-005
2.102062e+003,1.669988e-005
2.103991e+003,5.503913e-005
2.105919e+003,6.965334e-005
2.107848e+003,2.505006e-005
2.109776e+003,1.027156e-006
2.111705e+003,5.646407e-005
2.113633e+003,4.804462e-006
2.115562e+003,-6.212188e-005
2.117490e+003,-7.106670e-005
2.119419e+003,-6.242005e-005
2.121347e+003,-4.333716e-005
2.123276e+003,-7.918963e-006
2.125204e+003,-7.775863e-005
2.127133e+003,-4.867118e-005
2.129061e+003,-8.060764e-005
2.130990e+003,-1.245330e-004
2.132918e+003,-1.318866e-004
2.134847e+003,-1.231086e-004
2.136775e+003,-8.670313e-005
2.138704e+003,-3.329843e-005
2.140632e+003,-2.892505e-005
2.142561e+003,7.786569e-006
2.144489e+003,-6.351331e-005
2.146418e+003,-1.252617e-004
2.148346e+003,-9.872822e-005
2.150275e+003,-6.288385e-005
2.152203e+003,-1.054860e-004
2.154132e+003,-1.137343e-004
2.156060e+003,-7.030474e-005
2.157989e+003,-4.810796e-005
2.159917e+003,-6.099548e-005
2.161846e+003,-9.200348e-005
2.163774e+003,-1.303960e-004
2.165703e+003,-3.505440e-005
2.167631e+003,4.244678e-005
2.169560e+003,-1.388294e-005
2.171488e+003,-1.085004e-004
2.173417e+003,-9.763504e-005
2.175345e+003,-2.312694e-005
2.177274e+003,-8.620622e-005
2.179202e+003,-2.021369e-004
2.181131e+003,-1.297335e-004
2.183059e+003,-5.079151e-005
2.184988e+003,-8.594120e-005
2.186916e+003,-1.900815e-004
2.188845e+003,-3.458148e-004
2.190773e+003,-2.809189e-004
2.192702e+003,-1.508993e-004
2.194630e+003,-6.775383e-005
2.196559e+003,-2.750038e-005
2.198487e+003,8.117916e-006
2.200416e+003,-3.780429e-005
2.202344e+003,-5.549597e-005
2.204273e+003,-1.157549e-004
2.206201e+003,-1.671953e-004
2.208130e+003,-1.259573e-004
2.210058e+003,-9.968888e-005
2.211987e+003,-6.182372e-005
2.213915e+003,-1.036309e-004
2.215844e+003,-1.967385e-004
2.217772e+003,-1.893529e-004
2.219701e+003,-4.797544e-005
2.221629e+003,-7.822242e-005
2.223558e+003,-1.855110e-004
2.225486e+003,-1.785226e-004
2.227415e+003,-1.570932e-004
2.229343e+003,-1.479845e-004
2.231272e+003,-2.067403e-004
2.233200e+003,-2.680379e-004
2.235129e+003,-3.438945e-004
2.237057e+003,-3.790205e-004
2.238986e+003,-2.625079e-004
2.240914e+003,-2.051175e-004
2.242843e+003,-1.391407e-004
2.244771e+003,-6.454031e-005
2.246700e+003,-1.104217e-004
2.248628e+003,-1.951488e-004
2.250557e+003,-2.093235e-004
2.252485e+003,-1.945195e-004
2.254414e+003,-2.228355e-004
2.256342e+003,-2.113769e-004
2.258271e+003,-1.984938e-004
2.260199e+003,-1.531185e-004
2.262128e+003,-1.429830e-004
2.264056e+003,-1.869020e-004
2.265985e+003,-2.036603e-004
2.267913e+003,-8.653749e-005
2.269842e+003,-1.178749e-004
2.271770e+003,-1.988250e-004
2.273699e+003,-1.607697e-004
2.275627e+003,-1.670959e-004
2.277556e+003,-1.737533e-004
2.279484e+003,-1.362920e-004
2.281413e+003,-1.000533e-004
2.283341e+003,-1.260898e-004
2.285270e+003,-2.057799e-004
2.287198e+003,-3.023423e-004
2.289127e+003,-2.584349e-004
2.291055e+003,-4.436421e-005
2.292984e+003,1.056989e-005
2.294912e+003,-1.327147e-004
2.296841e+003,-1.033328e-004
2.298769e+003,-7.153050e-005
2.300698e+003,-2.285647e-004
2.302626e+003,-2.954551e-004
2.304555e+003,-2.213784e-004
2.306483e+003,-1.478852e-004
2.308412e+003,-2.247894e-004
2.310340e+003,-3.435304e-004
2.312269e+003,-3.777625e-004
2.314197e+003,-4.254645e-004
2.316125e+003,-5.282328e-004
2.318054e+003,-7.097804e-004
2.319983e+003,-7.973341e-004
2.321911e+003,-7.532121e-004
2.323840e+003,-7.457698e-004
2.325768e+003,-7.756375e-004
2.327697e+003,-8.909544e-004
2.329625e+003,-1.015199e-003
2.331553e+003,-1.070301e-003
2.333482e+003,-1.108839e-003
2.335411e+003,-1.135938e-003
2.337339e+003,-1.087918e-003
2.339268e+003,-1.059724e-003
2.341196e+003,-1.015133e-003
2.343125e+003,-9.339383e-004
2.345053e+003,-8.175744e-004
2.346981e+003,-6.657487e-004
2.348910e+003,-6.044742e-004
2.350839e+003,-8.148625e-004
2.352767e+003,-1.104377e-003
2.354696e+003,-1.386928e-003
2.356624e+003,-1.445087e-003
2.358552e+003,-1.530743e-003
2.360481e+003,-1.689560e-003
2.362409e+003,-1.728835e-003
2.364338e+003,-1.593768e-003
2.366267e+003,-1.412920e-003
2.368195e+003,-1.361066e-003
2.370124e+003,-1.116076e-003
2.372052e+003,-8.761736e-004
2.373980e+003,-7.091518e-004
2.375909e+003,-5.451103e-004
2.377838e+003,-3.369087e-004
2.379766e+003,-8.852513e-005
2.381695e+003,8.549423e-005
2.383623e+003,-2.769917e-005
2.385552e+003,-1.769660e-004
2.387480e+003,-1.497069e-004
2.389408e+003,-1.543441e-004
2.391337e+003,-2.677730e-004
2.393266e+003,-3.377695e-004
2.395194e+003,-3.101564e-004
2.397123e+003,-1.620615e-004
2.399051e+003,-1.697788e-004
2.400979e+003,-2.072040e-004
2.402908e+003,-9.173847e-005
2.404836e+003,-4.217758e-005
2.406765e+003,-9.259977e-005
2.408694e+003,-1.518268e-004
2.410622e+003,-1.586168e-004
2.412551e+003,-1.394388e-004
2.414479e+003,-1.676590e-004
2.416407e+003,-1.462953e-004
2.418336e+003,-1.046578e-004
2.420264e+003,-1.035978e-004
2.422193e+003,-6.811824e-005
2.424122e+003,-1.030456e-005
2.426050e+003,-1.961491e-005
2.427979e+003,1.129885e-005
2.429907e+003,-4.959882e-005
2.431835e+003,-1.408962e-004
2.433764e+003,-2.420761e-004
2.435692e+003,-2.973756e-004
2.437621e+003,-2.936009e-004
2.439550e+003,-1.987587e-004
2.441478e+003,-1.404325e-004
2.443406e+003,-2.077670e-004
2.445335e+003,-2.996603e-004
2.447263e+003,-2.395262e-004
2.449192e+003,-1.361927e-004
2.451121e+003,-6.553419e-005
2.453049e+003,-9.654186e-005
2.454978e+003,-1.678246e-004
2.456906e+003,-2.050182e-004
2.458834e+003,-1.088648e-004
2.460763e+003,-1.029021e-004
2.462691e+003,-9.866196e-005
2.464620e+003,-3.389480e-005
2.466549e+003,-9.163909e-005
2.468477e+003,-1.483489e-004
2.470406e+003,-1.702093e-004
2.472334e+003,-1.727928e-004
2.474262e+003,-1.708718e-004
2.476191e+003,-1.828283e-004
2.478119e+003,-2.560506e-004
2.480048e+003,-2.440961e-004
2.481977e+003,-1.491438e-004
2.483905e+003,-1.153905e-004
2.485833e+003,-6.102861e-005
2.487762e+003,-7.603596e-005
2.489690e+003,-1.550396e-004
2.491619e+003,-1.711698e-004
2.493547e+003,-2.113769e-004
2.495476e+003,-2.567129e-004
2.497405e+003,-2.179010e-004
2.499333e+003,-9.737002e-005
2.501261e+003,-1.026371e-004
2.503190e+003,-1.239699e-004
2.505118e+003,-2.572428e-004
2.507047e+003,-3.397561e-004
2.508975e+003,-1.799799e-004
2.510904e+003,-1.146618e-004
2.512833e+003,-1.522242e-004
2.514761e+003,-1.468584e-004
2.516689e+003,-1.678246e-004
2.518618e+003,-1.270173e-004
2.520546e+003,-9.597871e-005
2.522475e+003,-1.428174e-004
2.524403e+003,-2.004809e-004
2.526332e+003,-1.631545e-004
2.528260e+003,-1.382132e-004
2.530189e+003,-1.446391e-004
2.532117e+003,-1.623265e-004
2.534046e+003,-2.089924e-004
2.535974e+003,-2.258160e-004
2.537903e+003,-2.709519e-004
2.539831e+003,-3.167122e-004
2.541760e+003,-2.816143e-004
2.543688e+003,-2.178017e-004
2.545617e+003,-2.572759e-004
2.547545e+003,-2.352542e-004
2.549474e+003,-1.385113e-004
2.551402e+003,-9.038026e-005
2.553331e+003,-1.153243e-004
2.555259e+003,-1.513962e-004
2.557188e+003,-1.592130e-004
2.559116e+003,-2.147880e-004
2.561045e+003,-1.995205e-004
2.562973e+003,-9.945700e-005
2.564902e+003,-1.191999e-004
2.566830e+003,-1.453678e-004
2.568759e+003,-1.729253e-004
2.570687e+003,-2.377710e-004
2.572616e+003,-2.548916e-004
2.574544e+003,-2.691307e-004
2.576473e+003,-2.437319e-004
2.578401e+003,-1.941552e-004
2.580330e+003,-2.378704e-004
2.582258e+003,-2.001166e-004
2.584187e+003,-2.886341e-004
2.586115e+003,-3.265457e-004
2.588044e+003,-2.225706e-004
2.589972e+003,-2.534677e-004
2.591901e+003,-2.687002e-004
2.593829e+003,-2.104496e-004
2.595758e+003,-1.764692e-004
2.597686e+003,-1.992224e-004
2.599615e+003,-2.030642e-004
2.601543e+003,-1.694144e-004
2.603472e+003,-1.714348e-004
2.605400e+003,-1.867696e-004
2.607329e+003,-1.238374e-004
2.609257e+003,-1.798806e-004
2.611186e+003,-2.433676e-004
2.613114e+003,-1.919693e-004
2.615043e+003,-1.677584e-004
2.616971e+003,-1.615978e-004
2.618900e+003,-2.308829e-004
2.620828e+003,-2.991305e-004
2.622757e+003,-3.016138e-004
2.624685e+003,-2.944286e-004
2.626614e+003,-1.951819e-004
2.628542e+003,-1.585506e-004
2.630471e+003,-1.957118e-004
2.632399e+003,-2.040246e-004
2.634328e+003,-1.380145e-004
2.636256e+003,-1.831926e-004
2.638185e+003,-2.930380e-004
2.640113e+003,-2.620774e-004
2.642042e+003,-1.510981e-004
2.643970e+003,-1.663297e-005
2.645899e+003,1.583836e-005
2.647827e+003,-3.876509e-005
2.649756e+003,-1.639163e-004
2.651684e+003,-2.071377e-004
2.653613e+003,-1.298329e-004
2.655541e+003,-1.165830e-004
2.657470e+003,-2.018719e-004
2.659398e+003,-2.280349e-004
2.661327e+003,-1.913069e-004
2.663255e+003,-1.101567e-004
2.665184e+003,-7.527402e-005
2.667112e+003,-1.252617e-004
2.669041e+003,-2.019713e-004
2.670969e+003,-1.842193e-004
2.672898e+003,-1.339071e-004
2.674826e+003,-1.707061e-004
2.676755e+003,-1.901146e-004
2.678683e+003,-1.888892e-004
2.680612e+003,-1.860740e-004
2.682540e+003,-2.361152e-004
2.684469e+003,-2.611502e-004
2.686397e+003,-1.800793e-004
2.688326e+003,-1.435792e-004
2.690254e+003,-1.439104e-004
2.692183e+003,-1.666654e-004
2.694111e+003,-8.597432e-005
2.696040e+003,-5.533349e-006
2.697968e+003,-7.573781e-005
2.699897e+003,-1.128399e-004
2.701825e+003,-1.128068e-004
2.703754e+003,-1.179743e-004
2.705682e+003,-6.782008e-005
2.707611e+003,-1.351658e-004
2.709539e+003,-1.555033e-004
2.711468e+003,-9.071152e-005
2.713396e+003,-6.715750e-005
2.715325e+003,-4.797544e-005
2.717253e+003,-8.024323e-005
2.719182e+003,-1.810729e-004
2.721110e+003,-1.843187e-004
2.723039e+003,-1.010471e-004
2.724967e+003,-4.572257e-005
2.726896e+003,-6.228753e-005
2.728824e+003,-1.220487e-004
2.730753e+003,-1.325159e-004
2.732681e+003,-8.696815e-005
2.734610e+003,-7.351821e-005
2.736538e+003,-1.498394e-004
2.738467e+003,-2.677730e-004
2.740395e+003,-3.427358e-004
2.742324e+003,-3.112821e-004
2.744252e+003,-1.878956e-004
2.746181e+003,-1.099580e-004
2.748109e+003,-1.188024e-004
2.750038e+003,-1.677584e-004
2.751966e+003,-1.092292e-004
2.753895e+003,-2.031967e-004
2.755823e+003,-2.135626e-004
2.757752e+003,-1.373189e-004
2.759680e+003,-1.335097e-004
2.761609e+003,-6.175746e-005
2.763537e+003,-5.957092e-005
2.765466e+003,-1.387763e-004
2.767394e+003,-1.552384e-004
2.769323e+003,-1.784233e-004
2.771251e+003,-1.069104e-004
2.773180e+003,-1.127405e-004
2.775108e+003,-2.294920e-004
2.777037e+003,-3.139972e-004
2.778965e+003,-2.611171e-004
2.780894e+003,-2.188283e-004
2.782822e+003,-9.246726e-005
2.784750e+003,-1.027154e-006
2.786679e+003,-1.066785e-004
2.788608e+003,-1.372195e-004
2.790536e+003,-1.122767e-004
2.792465e+003,-1.593124e-004
2.794393e+003,-2.076014e-004
2.796322e+003,-2.328036e-004
2.798250e+003,-2.435332e-004
2.800178e+003,-1.001195e-004
2.802107e+003,-3.535258e-005
2.804036e+003,-1.448710e-004
2.805964e+003,-2.200205e-004
2.807893e+003,-1.784233e-004
2.809821e+003,-1.593124e-004
2.811750e+003,-2.227693e-004
2.813678e+003,-2.458844e-004
2.815606e+003,-1.680565e-004
2.817535e+003,-1.553377e-004
2.819464e+003,-1.602729e-004
2.821392e+003,-1.753762e-004
2.823321e+003,-1.892866e-004
2.825249e+003,-1.672284e-004
2.827177e+003,-1.200280e-004
2.829106e+003,-1.865046e-004
2.831034e+003,-1.808411e-004
2.832963e+003,-8.375478e-005
2.834892e+003,1.358498e-006
2.836820e+003,2.551329e-006
2.838749e+003,-9.968888e-005
2.840677e+003,-1.660361e-004
2.842605e+003,-2.887003e-004
2.844534e+003,-3.032362e-004
2.846462e+003,-1.796156e-004
2.848391e+003,-1.861403e-004
2.850320e+003,-1.714348e-004
2.852248e+003,-1.032665e-004
2.854177e+003,-8.488111e-005
2.856105e+003,-1.617965e-004
2.858033e+003,-1.982951e-004
2.859962e+003,-2.193913e-004
2.861890e+003,-1.777609e-004
2.863819e+003,-1.927642e-004
2.865748e+003,-2.309822e-004
2.867676e+003,-2.184640e-004
2.869604e+003,-8.753131e-005
2.871533e+003,-5.456834e-005
2.873461e+003,-1.402338e-004
2.875390e+003,-1.367558e-004
2.877319e+003,-1.916050e-004
2.879247e+003,-1.551390e-004
2.881176e+003,-8.309222e-005
2.883104e+003,-8.060764e-005
2.885032e+003,-2.514808e-004
2.886961e+003,-3.034680e-004
2.888889e+003,-1.600079e-004
2.890818e+003,-1.342715e-004
2.892747e+003,-8.411918e-005
2.894675e+003,-1.029684e-004
2.896604e+003,-1.973678e-004
2.898532e+003,-2.022693e-004
2.900460e+003,-1.102230e-004
2.902389e+003,-1.010471e-004
2.904317e+003,-2.138607e-004
2.906246e+003,-2.073365e-004
2.908175e+003,-1.064797e-004
2.910103e+003,-1.127074e-004
2.912031e+003,-2.387976e-004
2.913960e+003,-1.973678e-004
2.915888e+003,-2.072040e-004
2.917817e+003,-2.648921e-004
2.919745e+003,-1.352983e-004
2.921674e+003,-5.519780e-005
2.923603e+003,-1.217505e-004
2.925531e+003,-2.382015e-004
2.927459e+003,-2.453876e-004
2.929388e+003,-1.798806e-004
2.931316e+003,-1.213199e-004
2.933245e+003,-1.381470e-004
2.935173e+003,-1.534166e-004
2.937102e+003,-4.704779e-005
2.939031e+003,-6.036602e-005
2.940959e+003,-1.877300e-004
2.942887e+003,-2.711506e-004
2.944816e+003,-2.429040e-004
2.946744e+003,-1.655724e-004
2.948673e+003,-2.065085e-004
2.950601e+003,-2.265115e-004
2.952530e+003,-1.860740e-004
2.954458e+003,-1.181399e-004
2.956387e+003,-1.097923e-004
2.958315e+003,-2.448247e-004
2.960244e+003,-3.107192e-004
2.962172e+003,-8.879015e-005
2.964101e+003,1.875427e-005
2.966029e+003,-1.392069e-004
2.967958e+003,-2.470434e-004
2.969886e+003,-8.401980e-005
2.971815e+003,-2.697027e-005
2.973743e+003,-7.521362e-006
2.975672e+003,-5.032769e-005
2.977600e+003,-5.403826e-005
2.979529e+003,-4.240950e-005
2.981457e+003,-5.440268e-005
2.983386e+003,-6.169120e-005
2.985314e+003,-8.514614e-005
2.987243e+003,-1.411612e-004
2.989171e+003,-1.078710e-004
2.991100e+003,-9.654186e-005
2.993028e+003,-1.193324e-004
2.994957e+003,-1.233074e-004
2.996885e+003,-1.093948e-004
2.998814e+003,-1.087654e-004
3.000742e+003,-1.128068e-004
3.002671e+003,-1.756743e-004
3.004599e+003,-1.642475e-004
3.006528e+003,-9.342794e-005
3.008456e+003,-4.297272e-005
3.010385e+003,-1.238705e-004
3.012313e+003,-1.453016e-004
3.014242e+003,-5.108968e-005
3.016170e+003,-9.064527e-005
3.018099e+003,-2.027330e-004
3.020027e+003,-1.816359e-004
3.021956e+003,-1.492432e-004
3.023884e+003,-1.201605e-004
3.025813e+003,-9.614434e-005
3.027741e+003,-5.698681e-005
3.029670e+003,-3.333157e-005
3.031598e+003,-3.555137e-005
3.033527e+003,-1.378354e-005
3.035455e+003,-1.719979e-004
3.037384e+003,-1.953806e-004
3.039312e+003,-1.257255e-004
3.041241e+003,-4.466239e-005
3.043169e+003,-1.245330e-004
3.045098e+003,-2.232991e-004
3.047026e+003,-2.214777e-004
3.048955e+003,-1.004177e-004
3.050883e+003,-5.887520e-005
3.052812e+003,-1.166824e-004
3.054740e+003,-2.092573e-004
3.056669e+003,-1.612334e-004
3.058597e+003,-4.618640e-005
3.060526e+003,-1.115480e-004
3.062454e+003,-1.894522e-004
3.064383e+003,-1.362920e-004
3.066311e+003,-1.189680e-004
3.068240e+003,-1.010471e-004
3.070168e+003,-2.312694e-005
3.072097e+003,4.466698e-005
3.074025e+003,8.297556e-005
3.075954e+003,-6.526915e-005
3.077882e+003,-1.442085e-004
3.079811e+003,-1.030015e-004
3.081739e+003,-6.159181e-005
3.083668e+003,-6.699186e-005
3.085596e+003,-2.030642e-004
3.087525e+003,-2.428046e-004
3.089453e+003,-5.321001e-005
3.091382e+003,-2.402151e-005
3.093310e+003,-9.886072e-005
3.095239e+003,-1.338740e-004
3.097167e+003,-9.955638e-005
3.099096e+003,1.544074e-005
3.101024e+003,-1.812394e-005
3.102953e+003,-1.254274e-004
3.104881e+003,-1.323172e-004
3.106810e+003,-1.258911e-004
3.108738e+003,-6.387773e-005
3.110667e+003,-5.410452e-005
3.112595e+003,-1.306941e-004
3.114524e+003,-1.277461e-004
3.116452e+003,-9.385859e-005
3.118381e+003,-6.467283e-005
3.120309e+003,3.071634e-005
3.122238e+003,8.340638e-005
3.124166e+003,4.857722e-005
3.126095e+003,-7.023849e-005
3.128023e+003,-5.224924e-005
3.129952e+003,-3.028346e-005
3.131880e+003,-1.594780e-004
3.133809e+003,-3.598853e-004
3.135737e+003,-2.965147e-004
3.137666e+003,-1.135686e-004
3.139594e+003,-8.551054e-005
3.141523e+003,-7.361759e-005
3.143451e+003,-2.948919e-006
3.145380e+003,2.584532e-005
3.147308e+003,3.509036e-005
3.149237e+003,-9.813194e-005
3.151165e+003,-1.155893e-004
3.153094e+003,-3.690975e-005
3.155022e+003,-1.386769e-004
3.156951e+003,-3.952417e-004
3.158879e+003,-3.210164e-004
3.160808e+003,-1.264211e-004
3.162736e+003,-1.221812e-004
3.164665e+003,-1.140986e-004
3.166593e+003,-1.078379e-004
3.168522e+003,-7.832181e-005
3.170450e+003,-1.756069e-005
3.172379e+003,7.654638e-005
3.174307e+003,5.530423e-005
3.176236e+003,1.754470e-004
3.178164e+003,1.781651e-004
3.180093e+003,9.443303e-006
3.182021e+003,-9.846321e-005
3.183950e+003,-8.938644e-005
3.185878e+003,-8.358913e-005
3.187807e+003,-1.235724e-004
3.189735e+003,-1.427511e-004
3.191664e+003,-1.714348e-004
3.193592e+003,-2.156822e-004
3.195521e+003,-1.639825e-004
3.197449e+003,2.438734e-005
3.199378e+003,2.246546e-005
3.201306e+003,-4.602074e-005
3.203235e+003,-2.799736e-005
3.205163e+003,4.513091e-005
3.207092e+003,9.305035e-005
3.209020e+003,7.190682e-005
3.210948e+003,1.424787e-005
3.212877e+003,-1.055522e-004
3.214806e+003,-1.000201e-004
3.216734e+003,-6.258569e-005
3.218663e+003,-1.000533e-004
3.220591e+003,-4.969821e-005
3.222520e+003,-2.972022e-005
3.224448e+003,2.538142e-005
3.226376e+003,-2.372332e-005
3.228305e+003,4.141775e-006
3.230234e+003,1.139629e-004
3.232162e+003,1.325895e-004
3.234091e+003,1.113115e-004
3.236019e+003,1.030259e-004
3.237948e+003,8.979418e-006
3.239876e+003,-3.939458e-005
3.241804e+003,-1.560002e-004
3.243733e+003,-2.783361e-004
3.245662e+003,-2.545273e-004
3.247590e+003,-5.248115e-005
3.249519e+003,-6.738941e-005
3.251447e+003,-7.944816e-005
3.253375e+003,-9.310565e-006
3.255304e+003,-2.127153e-005
3.257232e+003,3.031870e-005
3.259161e+003,1.188018e-004
3.261090e+003,1.651715e-004
3.263018e+003,1.122064e-004
3.264947e+003,9.295093e-005
3.266875e+003,8.257788e-005
3.268803e+003,-8.816073e-005
3.270732e+003,-6.881395e-005
3.272660e+003,-4.830674e-005
3.274589e+003,-9.505116e-005
3.276518e+003,-6.407651e-005
3.278446e+003,-2.478355e-005
3.280375e+003,6.551094e-005
3.282303e+003,7.068066e-005
3.284231e+003,8.184879e-005
3.286160e+003,1.745189e-004
3.288088e+003,7.134345e-005
3.290017e+003,1.070243e-005
3.291946e+003,-5.817948e-005
3.293874e+003,-4.380099e-005
3.295802e+003,8.748267e-005
3.297731e+003,1.699115e-004
3.299659e+003,1.182052e-004
3.301588e+003,1.497585e-004
3.303516e+003,7.720917e-005
3.305445e+003,3.018616e-005
3.307374e+003,6.428480e-005
3.309302e+003,4.834525e-005
3.311230e+003,-1.345365e-004
3.313159e+003,-7.852058e-005
3.315087e+003,1.018328e-004
3.317016e+003,4.420306e-005
3.318944e+003,-2.143719e-005
3.320873e+003,1.168463e-004
3.322802e+003,2.499688e-004
3.324730e+003,1.463446e-004
3.326658e+003,-7.593658e-005
3.328587e+003,2.186852e-006
3.330515e+003,1.056773e-004
3.332444e+003,2.929148e-005
3.334372e+003,-1.021734e-004
3.336301e+003,-1.326816e-004
3.338229e+003,-3.432551e-005
3.340158e+003,3.926561e-005
3.342086e+003,2.485124e-005
3.344015e+003,-4.052104e-005
3.345943e+003,1.095218e-004
3.347872e+003,1.687845e-004
3.349800e+003,1.270545e-004
3.351729e+003,2.132368e-004
3.353657e+003,2.145296e-004
3.355586e+003,1.519793e-004
3.357514e+003,1.548961e-004
3.359443e+003,2.497368e-004
3.361371e+003,1.522776e-004
3.363300e+003,1.033242e-004
3.365229e+003,2.486096e-004
3.367157e+003,3.008619e-004
3.369085e+003,1.682210e-004
3.371014e+003,1.223150e-004
3.372942e+003,5.885004e-005
3.374871e+003,-4.396664e-005
3.376799e+003,-3.634652e-005
3.378728e+003,7.127717e-005
3.380656e+003,5.971165e-005
3.382585e+003,-4.691527e-005
3.384513e+003,3.177671e-005
3.386442e+003,1.463446e-004
3.388370e+003,3.014587e-004
3.390299e+003,2.517260e-004
3.392227e+003,3.853660e-005
3.394156e+003,1.173435e-004
3.396084e+003,8.880831e-005
3.398013e+003,2.289623e-005
3.399941e+003,3.068320e-005
3.401870e+003,-3.677863e-006
3.403798e+003,2.488438e-005
3.405727e+003,3.668093e-005
3.407655e+003,-1.205580e-004
3.409584e+003,-5.006265e-005
3.411512e+003,6.604116e-005
3.413441e+003,1.202269e-004
3.415369e+003,3.803954e-005
3.417298e+003,1.734582e-004
3.419226e+003,1.564208e-004
3.421155e+003,-7.593658e-005
3.423083e+003,-4.705008e-006
3.425012e+003,2.018663e-004
3.426940e+003,2.014022e-004
3.428869e+003,1.495265e-004
3.430797e+003,2.050818e-004
3.432726e+003,1.224475e-004
3.434654e+003,2.915893e-005
3.436583e+003,1.351416e-004
3.438511e+003,1.965956e-004
3.440440e+003,3.108084e-005
3.442368e+003,1.332009e-005
3.444297e+003,6.388713e-005
3.446225e+003,9.841924e-005
3.448154e+003,1.485322e-004
3.450082e+003,7.449171e-005
3.452011e+003,6.428051e-006
3.453939e+003,1.542332e-004
3.455868e+003,3.116380e-004
3.457796e+003,2.460568e-004
3.459725e+003,1.179401e-004
3.461653e+003,1.076327e-004
3.463582e+003,1.586416e-004
3.465510e+003,8.930542e-005
3.467439e+003,1.845958e-004
3.469367e+003,2.803382e-004
3.471296e+003,1.515484e-004
3.473224e+003,1.249171e-005
3.475153e+003,2.183588e-005
3.477081e+003,2.395657e-005
3.479010e+003,6.004303e-005
3.480938e+003,6.593724e-006
3.482867e+003,2.295139e-004
3.484795e+003,3.748746e-004
3.486724e+003,3.741119e-004
3.488652e+003,4.696306e-004
3.490581e+003,4.026658e-004
3.492509e+003,3.084880e-004
3.494438e+003,2.221543e-004
3.496366e+003,1.706407e-004
3.498295e+003,2.342214e-004
3.500223e+003,5.119511e-005
3.502152e+003,-7.666540e-005
3.504080e+003,8.904029e-005
3.506009e+003,2.581246e-004
3.507937e+003,2.703585e-004
3.509866e+003,2.689660e-004
3.511794e+003,2.852784e-004
3.513723e+003,1.713368e-004
3.515651e+003,1.390858e-004
3.517580e+003,2.902517e-004
3.519508e+003,3.213534e-004
3.521437e+003,2.320334e-004
3.523365e+003,1.999768e-004
3.525294e+003,2.713863e-004
3.527222e+003,8.556052e-005
3.529151e+003,-8.349698e-006
3.531079e+003,1.738891e-004
3.533008e+003,3.528220e-004
3.534936e+003,3.598522e-004
3.536865e+003,3.999131e-004
3.538793e+003,2.787799e-004
3.540722e+003,1.104829e-004
3.542650e+003,6.733359e-005
3.544579e+003,1.348765e-004
3.546507e+003,1.154875e-004
3.548436e+003,3.262277e-004
3.550364e+003,4.056838e-004
3.552293e+003,3.142907e-004
3.554221e+003,3.261282e-004
3.556150e+003,3.129312e-004
3.558078e+003,2.331606e-004
3.560007e+003,1.319266e-004
3.561935e+003,4.539601e-005
3.563864e+003,-8.816073e-005
3.565792e+003,-3.689233e-004
3.567721e+003,-2.612165e-004
3.569649e+003,-9.211165e-006
3.571578e+003,1.253642e-004
3.573506e+003,3.132959e-004
3.575435e+003,4.866471e-004
3.577363e+003,1.853914e-004
3.579292e+003,-1.389751e-004
3.581220e+003,1.439581e-004
3.583149e+003,3.789536e-004
3.585077e+003,1.179588e-005
3.587006e+003,-3.737237e-004
3.588934e+003,-1.440098e-004
3.590863e+003,2.771884e-004
3.592791e+003,4.144394e-004
3.594720e+003,3.373361e-004
3.596648e+003,1.534709e-004
3.598577e+003,1.571832e-004
3.600505e+003,3.157828e-004
3.602434e+003,3.672141e-004
3.604362e+003,8.522911e-005
3.606291e+003,-2.751242e-004
3.608219e+003,-2.510834e-004
3.610148e+003,-2.375646e-005
3.612076e+003,-3.826813e-005
3.614005e+003,5.112883e-005
3.615933e+003,-2.769917e-005
3.617862e+003,-2.436656e-004
3.619790e+003,-4.436421e-005
3.621719e+003,1.745852e-004
3.623647e+003,1.825738e-004
3.625576e+003,1.620285e-005
3.627504e+003,-6.378255e-004
3.629433e+003,-7.250299e-004
3.631361e+003,-5.751689e-005
3.633290e+003,3.535546e-005
3.635218e+003,1.343793e-004
3.637146e+003,3.115385e-004
3.639075e+003,3.722548e-004
3.641004e+003,3.618750e-004
3.642932e+003,1.844301e-004
3.644861e+003,-3.376227e-005
3.646789e+003,-6.193304e-004
3.648718e+003,-9.180348e-004
3.650646e+003,-4.606170e-004
3.652574e+003,9.225497e-005
3.654503e+003,1.178738e-004
3.656432e+003,3.299747e-004
3.658360e+003,7.145930e-004
3.660289e+003,5.349802e-004
3.662217e+003,3.628035e-004
3.664146e+003,4.334106e-004
3.666074e+003,1.807838e-004
3.668002e+003,-3.434641e-004
3.669931e+003,-6.476518e-004
3.671860e+003,-3.464769e-004
3.673788e+003,-7.257577e-004
3.675717e+003,-8.113900e-004
3.677645e+003,7.160856e-005
3.679573e+003,3.453608e-004
3.681502e+003,5.338523e-004
3.683430e+003,4.850217e-004
3.685359e+003,3.698339e-004
3.687288e+003,-4.638518e-005
3.689216e+003,-3.483310e-004
3.691145e+003,-1.255267e-004
3.693073e+003,1.919879e-004
3.695001e+003,4.207410e-004
3.696930e+003,4.003111e-004
3.698858e+003,3.086870e-004
3.700787e+003,-2.740099e-005
3.702716e+003,9.722616e-005
3.704644e+003,3.237408e-004
3.706573e+003,2.994029e-004
3.708501e+003,7.568474e-005
3.710429e+003,-4.229819e-004
3.712358e+003,-4.405255e-004
3.714286e+003,2.474161e-004
3.716215e+003,4.936463e-004
3.718144e+003,5.407859e-004
3.720072e+003,5.607911e-004
3.722000e+003,2.747018e-004
3.723929e+003,5.543679e-005
3.725857e+003,-2.597631e-005
3.727786e+003,8.161681e-005
3.729714e+003,1.508523e-004
3.731643e+003,-3.120106e-004
3.733572e+003,-4.499921e-004
3.735500e+003,-5.764478e-004
3.737428e+003,-1.085667e-004
3.739357e+003,4.030306e-004
3.741285e+003,4.075678e-005
3.743214e+003,-9.319875e-004
3.745142e+003,-7.459683e-004
3.747071e+003,-2.966140e-004
3.749000e+003,-8.770995e-004
3.750928e+003,-1.084051e-003
3.752856e+003,-5.629137e-004
3.754785e+003,3.631352e-004
3.756713e+003,5.150757e-004
3.758642e+003,1.620225e-004
3.760570e+003,3.270453e-005
3.762499e+003,3.567350e-004
3.764427e+003,3.706298e-004
3.766356e+003,2.445981e-004
3.768284e+003,-3.157559e-005
3.770213e+003,4.645641e-005
3.772141e+003,5.132512e-004
3.774070e+003,5.504068e-004
3.775998e+003,3.459577e-004
3.777927e+003,1.418368e-004
3.779855e+003,2.715852e-004
3.781784e+003,6.357108e-004
3.783712e+003,3.329590e-004
3.785641e+003,2.275579e-004
3.787569e+003,4.461801e-004
3.789498e+003,4.041582e-004
3.791426e+003,4.775251e-004
3.793355e+003,5.546534e-004
3.795283e+003,4.054516e-004
3.797212e+003,4.412381e-004
3.799140e+003,2.806366e-004
3.801069e+003,-1.597430e-004
3.802997e+003,1.600669e-004
3.804926e+003,3.083223e-004
3.806854e+003,6.942136e-005
3.808783e+003,4.744735e-004
3.810711e+003,7.813072e-004
3.812640e+003,6.608640e-004
3.814568e+003,-7.318693e-005
3.816497e+003,-2.745281e-004
3.818425e+003,-1.689507e-004
3.820354e+003,-6.392813e-004
3.822282e+003,-2.316777e-004
3.824211e+003,4.557658e-004
3.826139e+003,6.963728e-004
3.828068e+003,6.707199e-004
3.829996e+003,3.780582e-004
3.831925e+003,2.084963e-004
3.833853e+003,1.288443e-004
3.835782e+003,-1.729253e-004
3.837710e+003,-5.868048e-004
3.839639e+003,-3.791529e-004
3.841567e+003,-1.280773e-004
3.843496e+003,2.487754e-004
3.845424e+003,6.651448e-004
3.847353e+003,4.489331e-004
3.849281e+003,-1.888599e-005
3.851210e+003,-5.485850e-004
3.853138e+003,-1.274451e-003
3.855067e+003,-4.776295e-004
3.856995e+003,5.417480e-004
3.858924e+003,6.212103e-004
3.860852e+003,3.329259e-004
3.862781e+003,1.229115e-004
3.864709e+003,6.965334e-005
3.866638e+003,2.537815e-004
3.868566e+003,5.129452e-005
3.870495e+003,-1.205249e-004
3.872423e+003,1.084281e-004
3.874352e+003,2.237455e-004
3.876280e+003,3.825021e-004
3.878209e+003,1.325895e-004
3.880137e+003,-5.334547e-006
3.882066e+003,3.469194e-004
3.883994e+003,2.397578e-004
3.885923e+003,2.646559e-004
3.887851e+003,6.307335e-004
3.889780e+003,4.280376e-004
3.891708e+003,2.011702e-004
3.893637e+003,2.015017e-004
3.895565e+003,2.862067e-004
3.897494e+003,3.669488e-004
3.899422e+003,2.256351e-004
3.901351e+003,-5.864686e-006
3.903279e+003,-8.299284e-005
3.905208e+003,5.172321e-004
3.907136e+003,1.000574e-003
3.909065e+003,8.318641e-004
3.910993e+003,5.545871e-004
3.912922e+003,6.199494e-004
3.914850e+003,4.993187e-004
3.916779e+003,2.202315e-004
3.918707e+003,4.802783e-004
3.920636e+003,7.706521e-004
3.922564e+003,7.290303e-004
3.924493e+003,6.127491e-004
3.926421e+003,8.978659e-004
3.928350e+003,1.037937e-003
3.930278e+003,6.505769e-004
3.932207e+003,6.060135e-004
3.934135e+003,8.422551e-004
3.936064e+003,9.758991e-004
3.937992e+003,8.356487e-004
3.939921e+003,5.434399e-004
3.941849e+003,4.428634e-004
3.943778e+003,5.368048e-004
3.945706e+003,7.070925e-004
3.947635e+003,7.328471e-004
3.949563e+003,6.853880e-004
3.951492e+003,6.502119e-004
3.953420e+003,7.601965e-004
3.955349e+003,8.319305e-004
3.957277e+003,6.907974e-004
3.959206e+003,6.343172e-004
3.961134e+003,9.492666e-004
3.963063e+003,8.471021e-004
3.964991e+003,6.233671e-004
3.966920e+003,8.370430e-004
3.968848e+003,1.025914e-003
3.970777e+003,8.641998e-004
3.972705e+003,9.620846e-004
3.974634e+003,1.174000e-003
3.976562e+003,1.200580e-003
3.978491e+003,1.176293e-003
3.980419e+003,1.116294e-003
3.982348e+003,8.239632e-004
3.984276e+003,8.429855e-004
3.986205e+003,9.979501e-004
3.988133e+003,1.126526e-003
3.990062e+003,8.817298e-004
3.991990e+003,6.194849e-004
3.993919e+003,6.564836e-004
3.995847e+003,7.163520e-004
3.997776e+003,7.648102e-004
3.999704e+003,8.859796e-004
4.001633e+003,0.000000e+000
