3.991989e+002,2.247699e-002
4.011274e+002,1.691536e-002
4.030559e+002,1.991205e-002
4.049844e+002,3.084335e-002
4.069129e+002,2.437735e-002
4.088414e+002,2.721667e-002
4.107699e+002,2.272411e-002
4.126984e+002,1.491598e-002
4.146269e+002,1.232005e-002
4.165554e+002,1.393613e-002
4.184839e+002,2.175215e-002
4.204124e+002,2.097520e-002
4.223409e+002,1.726538e-002
4.242694e+002,1.671787e-002
4.261979e+002,1.418710e-002
4.281264e+002,1.676674e-002
4.300549e+002,1.918555e-002
4.319834e+002,1.046003e-002
4.339119e+002,7.106700e-003
4.358404e+002,1.531343e-002
4.377689e+002,2.048000e-002
4.396974e+002,1.602860e-002
4.416259e+002,1.026284e-002
4.435544e+002,9.866286e-003
4.454829e+002,1.271148e-002
4.474114e+002,1.880852e-002
4.493399e+002,1.693214e-002
4.512684e+002,8.083021e-003
4.531969e+002,6.791529e-003
4.551254e+002,1.325030e-002
4.570539e+002,1.518107e-002
4.589824e+002,1.090598e-002
4.609109e+002,1.105972e-002
4.628394e+002,1.382044e-002
4.647679e+002,1.270970e-002
4.666964e+002,1.101384e-002
4.686249e+002,9.715342e-003
4.705533e+002,9.721814e-003
4.724819e+002,1.049431e-002
4.744103e+002,1.208184e-002
4.763389e+002,1.317911e-002
4.782673e+002,1.285135e-002
4.801959e+002,1.194702e-002
4.821243e+002,1.366657e-002
4.840529e+002,1.355973e-002
4.859813e+002,1.197508e-002
4.879099e+002,1.155127e-002
4.898383e+002,1.055728e-002
4.917668e+002,9.170192e-003
4.936953e+002,1.063347e-002
4.956238e+002,1.260873e-002
4.975523e+002,1.174557e-002
4.994808e+002,1.114671e-002
5.014093e+002,1.185422e-002
5.033378e+002,1.074557e-002
5.052663e+002,9.939845e-003
5.071948e+002,9.342072e-003
5.091233e+002,9.552528e-003
5.110518e+002,9.644599e-003
5.129803e+002,8.990736e-003
5.149088e+002,7.448727e-003
5.168373e+002,6.968867e-003
5.187658e+002,7.627109e-003
5.206943e+002,8.349239e-003
5.226228e+002,7.499729e-003
5.245513e+002,6.854471e-003
5.264798e+002,7.630615e-003
5.284083e+002,8.258084e-003
5.303368e+002,7.071067e-003
5.322653e+002,6.525659e-003
5.341938e+002,6.205229e-003
5.361223e+002,6.769417e-003
5.380508e+002,6.781904e-003
5.399792e+002,7.424357e-003
5.419078e+002,6.780692e-003
5.438363e+002,6.398467e-003
5.457648e+002,7.098718e-003
5.476932e+002,6.589335e-003
5.496218e+002,6.188592e-003
5.515503e+002,6.902474e-003
5.534788e+002,6.230807e-003
5.554072e+002,6.573289e-003
5.573358e+002,7.439963e-003
5.592643e+002,7.859847e-003
5.611927e+002,5.729727e-003
5.631212e+002,4.546713e-003
5.650497e+002,4.835933e-003
5.669783e+002,7.094373e-003
5.689067e+002,8.452373e-003
5.708352e+002,7.573158e-003
5.727637e+002,5.527625e-003
5.746923e+002,5.184491e-003
5.766207e+002,6.280557e-003
5.785492e+002,6.639968e-003
5.804777e+002,-1.728259e-004
5.824063e+002,-1.893981e-003
5.843347e+002,5.007747e-003
5.862632e+002,8.250080e-003
5.881917e+002,8.246838e-003
5.901202e+002,6.953749e-003
5.920487e+002,4.673932e-003
5.939772e+002,5.192472e-003
5.959057e+002,6.954456e-003
5.978342e+002,6.563770e-003
5.997627e+002,6.603701e-003
6.016912e+002,6.783586e-003
6.036197e+002,6.307351e-003
6.055482e+002,5.928498e-003
6.074767e+002,5.620626e-003
6.094052e+002,6.165436e-003
6.113337e+002,7.545478e-003
6.132622e+002,7.489346e-003
6.151907e+002,6.527979e-003
6.171192e+002,6.325573e-003
6.190477e+002,5.959401e-003
6.209762e+002,6.433238e-003
6.229047e+002,5.814679e-003
6.248332e+002,4.130287e-003
6.267617e+002,3.945778e-003
6.286902e+002,4.411899e-003
6.306187e+002,4.979525e-003
6.325472e+002,5.260045e-003
6.344756e+002,5.591257e-003
6.364042e+002,5.474539e-003
6.383326e+002,5.316024e-003
6.402612e+002,4.722097e-003
6.421896e+002,4.867998e-003
6.441182e+002,5.236133e-003
6.460466e+002,5.220405e-003
6.479752e+002,5.199514e-003
6.499036e+002,4.729734e-003
6.518322e+002,4.553610e-003
6.537606e+002,5.233149e-003
6.556891e+002,5.548331e-003
6.576177e+002,5.134297e-003
6.595461e+002,4.593859e-003
6.614746e+002,3.695412e-003
6.634031e+002,3.719974e-003
6.653317e+002,5.710926e-003
6.672601e+002,9.950694e-003
6.691886e+002,8.681395e-003
6.711171e+002,5.510980e-003
6.730457e+002,5.211620e-003
6.749741e+002,5.257430e-003
6.769026e+002,5.166954e-003
6.788311e+002,5.297374e-003
6.807596e+002,5.474103e-003
6.826881e+002,5.592834e-003
6.846166e+002,5.748597e-003
6.865451e+002,5.497256e-003
6.884736e+002,5.298783e-003
6.904021e+002,4.854193e-003
6.923306e+002,4.639101e-003
6.942591e+002,4.773718e-003
6.961876e+002,5.204980e-003
6.981161e+002,5.567494e-003
7.000446e+002,5.483666e-003
7.019731e+002,5.015490e-003
7.039016e+002,4.987000e-003
7.058301e+002,4.783534e-003
7.077585e+002,4.470646e-003
7.096871e+002,4.847056e-003
7.116156e+002,4.883345e-003
7.135441e+002,4.476605e-003
7.154725e+002,4.275286e-003
7.174011e+002,4.356840e-003
7.193296e+002,4.728462e-003
7.212581e+002,5.197502e-003
7.231865e+002,5.577865e-003
7.251151e+002,5.952482e-003
7.270436e+002,6.252522e-003
7.289720e+002,6.180862e-003
7.309005e+002,6.092748e-003
7.328290e+002,6.088178e-003
7.347576e+002,5.758266e-003
7.366860e+002,5.471620e-003
7.386145e+002,5.345642e-003
7.405430e+002,5.758569e-003
7.424716e+002,6.320698e-003
7.444000e+002,6.250303e-003
7.463285e+002,6.384143e-003
7.482570e+002,6.612616e-003
7.501855e+002,6.288659e-003
7.521140e+002,6.756091e-003
7.540425e+002,7.372050e-003
7.559710e+002,7.473705e-003
7.578995e+002,7.537049e-003
7.598280e+002,7.415223e-003
7.617565e+002,7.344213e-003
7.636850e+002,7.623939e-003
7.656135e+002,8.324143e-003
7.675420e+002,8.677609e-003
7.694705e+002,8.151890e-003
7.713990e+002,7.247171e-003
7.733275e+002,6.822460e-003
7.752560e+002,6.651811e-003
7.771844e+002,6.408152e-003
7.791130e+002,6.748990e-003
7.810415e+002,7.074199e-003
7.829700e+002,6.563399e-003
7.848984e+002,6.440770e-003
7.868270e+002,6.781163e-003
7.887555e+002,6.778437e-003
7.906840e+002,6.900084e-003
7.926124e+002,6.943379e-003
7.945410e+002,7.155573e-003
7.964695e+002,7.451289e-003
7.983979e+002,7.559807e-003
8.003264e+002,7.473233e-003
8.022549e+002,7.428369e-003
8.041835e+002,7.768760e-003
8.061119e+002,8.360250e-003
8.080404e+002,8.324008e-003
8.099689e+002,8.487004e-003
8.118975e+002,8.945816e-003
8.138259e+002,9.134931e-003
8.157545e+002,8.625760e-003
8.176830e+002,8.267641e-003
8.196115e+002,7.842910e-003
8.215399e+002,7.305326e-003
8.234684e+002,6.976072e-003
8.253970e+002,6.752927e-003
8.273254e+002,6.451162e-003
8.292539e+002,5.807794e-003
8.311824e+002,5.387843e-003
8.331110e+002,5.510276e-003
8.350394e+002,5.538062e-003
8.369679e+002,5.573032e-003
8.388964e+002,5.443200e-003
8.408250e+002,5.580718e-003
8.427534e+002,5.611664e-003
8.446819e+002,5.142478e-003
8.466104e+002,5.014987e-003
8.485389e+002,4.943865e-003
8.504674e+002,4.738075e-003
8.523959e+002,4.679023e-003
8.543244e+002,4.924261e-003
8.562529e+002,5.325248e-003
8.581814e+002,5.523229e-003
8.601099e+002,5.371439e-003
8.620384e+002,4.784036e-003
8.639669e+002,4.734960e-003
8.658954e+002,5.116159e-003
8.678239e+002,5.094937e-003
8.697524e+002,5.220808e-003
8.716809e+002,5.288520e-003
8.736094e+002,5.203504e-003
8.755378e+002,4.949027e-003
8.774664e+002,5.133593e-003
8.793949e+002,5.076800e-003
8.813234e+002,4.451699e-003
8.832518e+002,4.692588e-003
8.851804e+002,5.023132e-003
8.871089e+002,4.640542e-003
8.890374e+002,3.912176e-003
8.909658e+002,3.976340e-003
8.928943e+002,4.537639e-003
8.948229e+002,4.461273e-003
8.967513e+002,4.352857e-003
8.986798e+002,4.422074e-003
9.006083e+002,4.123797e-003
9.025369e+002,4.067872e-003
9.044653e+002,4.095967e-003
9.063938e+002,3.652439e-003
9.083223e+002,3.340967e-003
9.102509e+002,3.324372e-003
9.121793e+002,3.679839e-003
9.141078e+002,3.667108e-003
9.160364e+002,3.500065e-003
9.179648e+002,3.653107e-003
9.198933e+002,3.683816e-003
9.218218e+002,3.806638e-003
9.237504e+002,3.757739e-003
9.256788e+002,3.650234e-003
9.276073e+002,3.655513e-003
9.295358e+002,3.649365e-003
9.314644e+002,3.663900e-003
9.333928e+002,3.794739e-003
9.353213e+002,4.126339e-003
9.372498e+002,4.236974e-003
9.391783e+002,3.991890e-003
9.411068e+002,4.147982e-003
9.430353e+002,4.315408e-003
9.449637e+002,4.265582e-003
9.468923e+002,4.310924e-003
9.488208e+002,4.172570e-003
9.507493e+002,4.179629e-003
9.526777e+002,4.309351e-003
9.546063e+002,4.413606e-003
9.565348e+002,4.372001e-003
9.584633e+002,4.131223e-003
9.603917e+002,4.049879e-003
9.623203e+002,4.039176e-003
9.642488e+002,3.876236e-003
9.661772e+002,3.926586e-003
9.681057e+002,3.972328e-003
9.700343e+002,3.889141e-003
9.719628e+002,3.807708e-003
9.738912e+002,3.520241e-003
9.758197e+002,3.559792e-003
9.777483e+002,3.611409e-003
9.796768e+002,3.696949e-003
9.816052e+002,3.748615e-003
9.835337e+002,3.778127e-003
9.854623e+002,3.749150e-003
9.873907e+002,3.653041e-003
9.893192e+002,3.662196e-003
9.912477e+002,3.475315e-003
9.931763e+002,3.446291e-003
9.951047e+002,3.588723e-003
9.970332e+002,3.635365e-003
9.989617e+002,3.929696e-003
1.000890e+003,4.104263e-003
1.002819e+003,4.324444e-003
1.004747e+003,4.431915e-003
1.006676e+003,4.682305e-003
1.008604e+003,5.037378e-003
1.010533e+003,5.295295e-003
1.012461e+003,5.563165e-003
1.014390e+003,5.689608e-003
1.016318e+003,5.953321e-003
1.018247e+003,6.244690e-003
1.020175e+003,6.366927e-003
1.022104e+003,6.570262e-003
1.024032e+003,6.750302e-003
1.025961e+003,6.840906e-003
1.027889e+003,7.073997e-003
1.029818e+003,7.243768e-003
1.031746e+003,7.285648e-003
1.033675e+003,7.499561e-003
1.035603e+003,7.722685e-003
1.037532e+003,8.021352e-003
1.039460e+003,8.106752e-003
1.041389e+003,7.965125e-003
1.043317e+003,8.122721e-003
1.045246e+003,8.329007e-003
1.047174e+003,8.417711e-003
1.049103e+003,8.492377e-003
1.051031e+003,8.431393e-003
1.052960e+003,8.276827e-003
1.054888e+003,8.281115e-003
1.056817e+003,8.534208e-003
1.058745e+003,8.663717e-003
1.060674e+003,8.723719e-003
1.062602e+003,8.697148e-003
1.064531e+003,8.874961e-003
1.066459e+003,9.113038e-003
1.068388e+003,9.061203e-003
1.070316e+003,8.976969e-003
1.072245e+003,8.892446e-003
1.074173e+003,8.806688e-003
1.076102e+003,8.803341e-003
1.078030e+003,9.014484e-003
1.079959e+003,9.097913e-003
1.081887e+003,9.118824e-003
1.083816e+003,9.370917e-003
1.085744e+003,9.515441e-003
1.087673e+003,9.598324e-003
1.089601e+003,9.648698e-003
1.091530e+003,9.718866e-003
1.093458e+003,9.710666e-003
1.095387e+003,9.644429e-003
1.097315e+003,9.753056e-003
1.099244e+003,1.000131e-002
1.101172e+003,1.027807e-002
1.103101e+003,1.012475e-002
1.105029e+003,9.914353e-003
1.106958e+003,9.889302e-003
1.108886e+003,1.006025e-002
1.110815e+003,1.015202e-002
1.112743e+003,9.993514e-003
1.114672e+003,9.852965e-003
1.116600e+003,1.016697e-002
1.118529e+003,1.048090e-002
1.120457e+003,1.033613e-002
1.122386e+003,1.035465e-002
1.124314e+003,1.038486e-002
1.126243e+003,1.021378e-002
1.128171e+003,9.892691e-003
1.130100e+003,9.793011e-003
1.132028e+003,9.762782e-003
1.133957e+003,9.662521e-003
1.135885e+003,9.561165e-003
1.137814e+003,9.291530e-003
1.139742e+003,8.879560e-003
1.141671e+003,8.783189e-003
1.143599e+003,8.634480e-003
1.145528e+003,8.330662e-003
1.147456e+003,7.995431e-003
1.149385e+003,7.680864e-003
1.151313e+003,7.377071e-003
1.153242e+003,7.104982e-003
1.155170e+003,7.103399e-003
1.157099e+003,6.967351e-003
1.159027e+003,6.647201e-003
1.160956e+003,6.345106e-003
1.162884e+003,6.231513e-003
1.164813e+003,6.265867e-003
1.166741e+003,6.074872e-003
1.168670e+003,5.793825e-003
1.170598e+003,5.728553e-003
1.172526e+003,5.751249e-003
1.174455e+003,5.662014e-003
1.176384e+003,5.714015e-003
1.178312e+003,5.704783e-003
1.180240e+003,5.542894e-003
1.182169e+003,5.527189e-003
1.184098e+003,5.272354e-003
1.186026e+003,4.974666e-003
1.187954e+003,5.077269e-003
1.189883e+003,5.105028e-003
1.191812e+003,4.867897e-003
1.193740e+003,4.740353e-003
1.195668e+003,4.554146e-003
1.197597e+003,4.369558e-003
1.199526e+003,4.406543e-003
1.201454e+003,4.577417e-003
1.203382e+003,4.624065e-003
1.205311e+003,4.605479e-003
1.207240e+003,4.740219e-003
1.209168e+003,4.476505e-003
1.211096e+003,4.324176e-003
1.213025e+003,4.678554e-003
1.214953e+003,4.919871e-003
1.216882e+003,4.794690e-003
1.218810e+003,4.694095e-003
1.220739e+003,4.723873e-003
1.222667e+003,4.677549e-003
1.224596e+003,4.823234e-003
1.226524e+003,4.862871e-003
1.228453e+003,4.851345e-003
1.230381e+003,4.591012e-003
1.232310e+003,4.589137e-003
1.234238e+003,4.653736e-003
1.236167e+003,4.678119e-003
1.238095e+003,4.907036e-003
1.240024e+003,5.088433e-003
1.241952e+003,5.158438e-003
1.243881e+003,5.107006e-003
1.245809e+003,5.229125e-003
1.247738e+003,5.366239e-003
1.249666e+003,5.595956e-003
1.251595e+003,5.810749e-003
1.253523e+003,5.980397e-003
1.255452e+003,6.263850e-003
1.257380e+003,6.548363e-003
1.259309e+003,6.957318e-003
1.261237e+003,7.437502e-003
1.263166e+003,7.811771e-003
1.265094e+003,8.141491e-003
1.267023e+003,8.487984e-003
1.268951e+003,8.659221e-003
1.270880e+003,8.906548e-003
1.272808e+003,9.132833e-003
1.274737e+003,9.391468e-003
1.276665e+003,9.854558e-003
1.278594e+003,1.031421e-002
1.280522e+003,1.076629e-002
1.282451e+003,1.114963e-002
1.284379e+003,1.156634e-002
1.286308e+003,1.193741e-002
1.288236e+003,1.241383e-002
1.290165e+003,1.302394e-002
1.292093e+003,1.340798e-002
1.294022e+003,1.369075e-002
1.295950e+003,1.409690e-002
1.297879e+003,1.451708e-002
1.299807e+003,1.465133e-002
1.301736e+003,1.452396e-002
1.303664e+003,1.437899e-002
1.305593e+003,1.418700e-002
1.307521e+003,1.404334e-002
1.309450e+003,1.372553e-002
1.311378e+003,1.323230e-002
1.313307e+003,1.281657e-002
1.315235e+003,1.258072e-002
1.317164e+003,1.237837e-002
1.319092e+003,1.182916e-002
1.321021e+003,1.128540e-002
1.322949e+003,1.086892e-002
1.324878e+003,1.052049e-002
1.326806e+003,1.031991e-002
1.328735e+003,1.023227e-002
1.330663e+003,1.007856e-002
1.332592e+003,9.920319e-003
1.334520e+003,9.804736e-003
1.336449e+003,9.725981e-003
1.338377e+003,9.751260e-003
1.340306e+003,9.787961e-003
1.342234e+003,9.842425e-003
1.344163e+003,9.759630e-003
1.346091e+003,9.637112e-003
1.348020e+003,9.612484e-003
1.349948e+003,9.489025e-003
1.351877e+003,9.352871e-003
1.353805e+003,9.350467e-003
1.355734e+003,9.322978e-003
1.357662e+003,9.175268e-003
1.359591e+003,9.040533e-003
1.361519e+003,8.945680e-003
1.363448e+003,8.839386e-003
1.365376e+003,8.723821e-003
1.367305e+003,8.621771e-003
1.369233e+003,8.498593e-003
1.371162e+003,8.544345e-003
1.373090e+003,8.716078e-003
1.375019e+003,8.665644e-003
1.376947e+003,8.742043e-003
1.378876e+003,8.811489e-003
1.380804e+003,8.815343e-003
1.382733e+003,8.744375e-003
1.384661e+003,8.570400e-003
1.386590e+003,8.437946e-003
1.388518e+003,8.261494e-003
1.390447e+003,7.968095e-003
1.392375e+003,7.814436e-003
1.394304e+003,7.635708e-003
1.396232e+003,7.411010e-003
1.398161e+003,7.325544e-003
1.400089e+003,7.450244e-003
1.402018e+003,7.447749e-003
1.403946e+003,7.268026e-003
1.405875e+003,7.202127e-003
1.407803e+003,7.015805e-003
1.409732e+003,6.838853e-003
1.411660e+003,6.880997e-003
1.413589e+003,6.996511e-003
1.415517e+003,7.143481e-003
1.417446e+003,7.466356e-003
1.419374e+003,8.101419e-003
1.421303e+003,8.620487e-003
1.423231e+003,9.129450e-003
1.425160e+003,9.954627e-003
1.427088e+003,1.056852e-002
1.429017e+003,1.090041e-002
1.430945e+003,1.111849e-002
1.432874e+003,1.149152e-002
1.434802e+003,1.192801e-002
1.436731e+003,1.225767e-002
1.438659e+003,1.265577e-002
1.440588e+003,1.312351e-002
1.442516e+003,1.372091e-002
1.444445e+003,1.431848e-002
1.446373e+003,1.492366e-002
1.448302e+003,1.552279e-002
1.450230e+003,1.613691e-002
1.452159e+003,1.669652e-002
1.454087e+003,1.720829e-002
1.456016e+003,1.767600e-002
1.457944e+003,1.834937e-002
1.459873e+003,1.870808e-002
1.461801e+003,1.883547e-002
1.463730e+003,1.896165e-002
1.465658e+003,1.913475e-002
1.467587e+003,1.907890e-002
1.469515e+003,1.888053e-002
1.471444e+003,1.861853e-002
1.473372e+003,1.844336e-002
1.475301e+003,1.820111e-002
1.477229e+003,1.765674e-002
1.479158e+003,1.704443e-002
1.481086e+003,1.659372e-002
1.483015e+003,1.601258e-002
1.484943e+003,1.531831e-002
1.486872e+003,1.474623e-002
1.488800e+003,1.423175e-002
1.490729e+003,1.383073e-002
1.492657e+003,1.331658e-002
1.494586e+003,1.275938e-002
1.496514e+003,1.224997e-002
1.498443e+003,1.181091e-002
1.500371e+003,1.129165e-002
1.502300e+003,1.094672e-002
1.504228e+003,1.057820e-002
1.506157e+003,1.025226e-002
1.508085e+003,9.976968e-003
1.510014e+003,9.701348e-003
1.511942e+003,9.502097e-003
1.513871e+003,9.347454e-003
1.515799e+003,9.340649e-003
1.517728e+003,9.329985e-003
1.519656e+003,9.295016e-003
1.521585e+003,9.393466e-003
1.523513e+003,9.497966e-003
1.525442e+003,9.654423e-003
1.527370e+003,9.824292e-003
1.529299e+003,1.000569e-002
1.531227e+003,1.012699e-002
1.533156e+003,1.041058e-002
1.535084e+003,1.082818e-002
1.537013e+003,1.102713e-002
1.538941e+003,1.121725e-002
1.540870e+003,1.166654e-002
1.542798e+003,1.221210e-002
1.544727e+003,1.251821e-002
1.546655e+003,1.265959e-002
1.548584e+003,1.294054e-002
1.550512e+003,1.326290e-002
1.552441e+003,1.350528e-002
1.554369e+003,1.381791e-002
1.556298e+003,1.413312e-002
1.558226e+003,1.458187e-002
1.560155e+003,1.533821e-002
1.562083e+003,1.580494e-002
1.564012e+003,1.617181e-002
1.565940e+003,1.647332e-002
1.567869e+003,1.681185e-002
1.569797e+003,1.730058e-002
1.571726e+003,1.752590e-002
1.573654e+003,1.745939e-002
1.575583e+003,1.756040e-002
1.577511e+003,1.767603e-002
1.579440e+003,1.764777e-002
1.581368e+003,1.767186e-002
1.583297e+003,1.751100e-002
1.585225e+003,1.725297e-002
1.587154e+003,1.696415e-002
1.589082e+003,1.648726e-002
1.591010e+003,1.587274e-002
1.592939e+003,1.537014e-002
1.594868e+003,1.501712e-002
1.596796e+003,1.455260e-002
1.598724e+003,1.393624e-002
1.600653e+003,1.326266e-002
1.602582e+003,1.272154e-002
1.604510e+003,1.214071e-002
1.606438e+003,1.150493e-002
1.608367e+003,1.101584e-002
1.610296e+003,1.056513e-002
1.612224e+003,1.016660e-002
1.614152e+003,9.794806e-003
1.616081e+003,9.329883e-003
1.618010e+003,9.173915e-003
1.619938e+003,9.019354e-003
1.621866e+003,8.850545e-003
1.623795e+003,8.522584e-003
1.625724e+003,8.289794e-003
1.627652e+003,8.042312e-003
1.629580e+003,7.999245e-003
1.631509e+003,7.792846e-003
1.633438e+003,7.534925e-003
1.635366e+003,7.242488e-003
1.637294e+003,7.020688e-003
1.639223e+003,6.724592e-003
1.641151e+003,6.438450e-003
1.643080e+003,6.017116e-003
1.645008e+003,5.673595e-003
1.646937e+003,5.401564e-003
1.648865e+003,5.036205e-003
1.650794e+003,4.665291e-003
1.652722e+003,4.429170e-003
1.654651e+003,4.210910e-003
1.656579e+003,3.971124e-003
1.658508e+003,3.679739e-003
1.660436e+003,3.366310e-003
1.662365e+003,3.126923e-003
1.664293e+003,2.983941e-003
1.666222e+003,2.733928e-003
1.668150e+003,2.538347e-003
1.670079e+003,2.433942e-003
1.672007e+003,2.190273e-003
1.673936e+003,1.816391e-003
1.675864e+003,1.673574e-003
1.677793e+003,1.432458e-003
1.679721e+003,1.125098e-003
1.681650e+003,8.930184e-004
1.683578e+003,7.966098e-004
1.685507e+003,7.588689e-004
1.687435e+003,6.088338e-004
1.689364e+003,5.213788e-004
1.691292e+003,5.293737e-004
1.693221e+003,5.416152e-004
1.695149e+003,5.838827e-004
1.697078e+003,5.275159e-004
1.699006e+003,3.292452e-004
1.700935e+003,4.076405e-004
1.702863e+003,5.237673e-004
1.704792e+003,4.910921e-004
1.706720e+003,4.566614e-004
1.708649e+003,3.698007e-004
1.710577e+003,2.694302e-004
1.712506e+003,2.230162e-004
1.714434e+003,2.464215e-004
1.716363e+003,2.586551e-004
1.718291e+003,3.223150e-004
1.720220e+003,3.200934e-004
1.722148e+003,2.922080e-004
1.724077e+003,2.836869e-004
1.726005e+003,2.168170e-004
1.727934e+003,1.364674e-004
1.729862e+003,1.065059e-004
1.731791e+003,1.368651e-004
1.733719e+003,1.210887e-004
1.735648e+003,1.889051e-004
1.737576e+003,1.386550e-004
1.739505e+003,1.274191e-004
1.741433e+003,1.638125e-004
1.743362e+003,1.495928e-004
1.745290e+003,2.133031e-004
1.747219e+003,1.861206e-004
1.749147e+003,1.007723e-004
1.751076e+003,2.210271e-004
1.753004e+003,3.258298e-004
1.754933e+003,1.881427e-004
1.756861e+003,1.166143e-004
1.758790e+003,5.686173e-005
1.760718e+003,5.172532e-005
1.762647e+003,1.484990e-004
1.764575e+003,5.507227e-005
1.766504e+003,1.739572e-005
1.768432e+003,1.544984e-004
1.770361e+003,8.218020e-005
1.772289e+003,1.858859e-005
1.774218e+003,9.994376e-005
1.776146e+003,7.402775e-005
1.778075e+003,-8.946098e-006
1.780003e+003,-3.028346e-005
1.781932e+003,-9.452113e-005
1.783860e+003,-2.248888e-004
1.785789e+003,-1.654730e-004
1.787717e+003,-3.293399e-005
1.789646e+003,-6.202250e-005
1.791574e+003,-3.899701e-005
1.793503e+003,8.350581e-005
1.795431e+003,7.488939e-005
1.797360e+003,6.975276e-005
1.799288e+003,3.896738e-005
1.801217e+003,-6.726158e-006
1.803145e+003,2.541455e-005
1.805074e+003,8.459944e-005
1.807002e+003,7.435915e-005
1.808931e+003,1.666674e-005
1.810859e+003,-2.219924e-005
1.812788e+003,-7.500899e-005
1.814716e+003,-1.075067e-004
1.816645e+003,-1.105211e-004
1.818573e+003,-5.022830e-005
1.820502e+003,-9.958950e-005
1.822430e+003,-9.882759e-005
1.824359e+003,-1.621277e-004
1.826287e+003,-1.106205e-004
1.828216e+003,-8.478173e-005
1.830144e+003,-1.260567e-004
1.832073e+003,-2.033622e-004
1.834001e+003,-1.115149e-004
1.835930e+003,-5.827886e-005
1.837858e+003,-1.300316e-004
1.839787e+003,-1.213199e-004
1.841715e+003,-2.195569e-004
1.843644e+003,-2.121055e-004
1.845572e+003,-2.138607e-004
1.847501e+003,-2.356516e-004
1.849429e+003,-1.695138e-004
1.851358e+003,-8.408605e-005
1.853286e+003,-3.140993e-005
1.855215e+003,-3.213883e-005
1.857143e+003,-9.774431e-006
1.859072e+003,1.368457e-005
1.861000e+003,-1.398234e-005
1.862929e+003,-5.476712e-005
1.864857e+003,-7.620161e-005
1.866786e+003,-1.811723e-004
1.868714e+003,-1.465271e-004
1.870643e+003,-5.059273e-005
1.872571e+003,-8.703440e-005
1.874500e+003,-8.418543e-005
1.876428e+003,-1.437994e-005
1.878357e+003,1.971520e-005
1.880285e+003,-1.179556e-005
1.882214e+003,-8.448358e-005
1.884142e+003,-3.376227e-005
1.886071e+003,3.005361e-005
1.887999e+003,1.729631e-005
1.889928e+003,-3.366288e-005
1.891856e+003,-6.964217e-005
1.893785e+003,-3.936145e-005
1.895713e+003,-8.077328e-005
1.897642e+003,-7.868621e-005
1.899570e+003,9.639762e-005
1.901499e+003,1.478030e-004
1.903427e+003,9.556908e-005
1.905356e+003,1.218841e-004
1.907284e+003,6.266099e-005
1.909213e+003,1.192842e-005
1.911141e+003,5.344849e-005
1.913070e+003,9.301721e-005
1.914998e+003,1.658344e-004
1.916927e+003,2.398904e-004
1.918855e+003,2.876656e-004
1.920784e+003,2.157562e-004
1.922712e+003,1.736571e-004
1.924641e+003,1.852919e-004
1.926569e+003,2.439682e-004
1.928498e+003,1.268556e-004
1.930426e+003,1.004077e-004
1.932355e+003,1.092235e-004
1.934283e+003,5.301770e-005
1.936212e+003,8.168309e-005
1.938140e+003,1.033242e-004
1.940069e+003,1.451845e-004
1.941997e+003,2.633961e-004
1.943926e+003,3.005303e-004
1.945854e+003,1.699115e-004
1.947783e+003,1.739554e-004
1.949711e+003,2.237787e-004
1.951640e+003,2.138666e-004
1.953568e+003,2.177121e-004
1.955497e+003,1.307335e-004
1.957425e+003,7.140973e-005
1.959354e+003,2.225852e-004
1.961282e+003,3.316326e-004
1.963211e+003,3.012929e-004
1.965139e+003,2.132036e-004
1.967068e+003,2.250716e-004
1.968996e+003,1.578130e-004
1.970925e+003,1.480681e-004
1.972853e+003,1.900322e-004
1.974782e+003,1.548961e-004
1.976710e+003,1.746515e-004
1.978639e+003,2.298122e-004
1.980567e+003,2.817970e-004
1.982496e+003,2.719499e-004
1.984424e+003,2.818965e-004
1.986353e+003,3.879077e-004
1.988281e+003,4.014387e-004
1.990210e+003,2.934348e-004
1.992138e+003,3.660866e-004
1.994067e+003,4.061481e-004
1.995995e+003,3.268909e-004
1.997924e+003,2.952252e-004
1.999852e+003,3.692370e-004
2.001781e+003,3.789868e-004
2.003709e+003,3.247024e-004
2.005638e+003,3.554749e-004
2.007566e+003,4.919214e-004
2.009495e+003,5.267198e-004
2.011423e+003,4.516198e-004
2.013352e+003,4.752032e-004
2.015280e+003,5.917462e-004
2.017208e+003,6.267516e-004
2.019137e+003,5.449660e-004
2.021066e+003,5.325917e-004
2.022994e+003,5.645400e-004
2.024922e+003,5.160710e-004
2.026851e+003,5.962586e-004
2.028780e+003,7.005212e-004
2.030708e+003,7.024462e-004
2.032636e+003,7.268398e-004
2.034565e+003,7.455591e-004
2.036494e+003,7.394851e-004
2.038422e+003,7.582050e-004
2.040350e+003,7.716148e-004
2.042279e+003,8.042115e-004
2.044208e+003,8.330593e-004
2.046136e+003,8.249923e-004
2.048064e+003,8.247268e-004
2.049993e+003,9.022487e-004
2.051921e+003,9.386407e-004
2.053850e+003,1.071617e-003
2.055778e+003,1.126526e-003
2.057707e+003,1.085269e-003
2.059635e+003,1.044248e-003
2.061564e+003,1.022825e-003
2.063492e+003,9.612875e-004
2.065421e+003,1.038170e-003
2.067349e+003,1.214635e-003
2.069278e+003,1.206727e-003
2.071206e+003,1.225965e-003
2.073135e+003,1.310505e-003
2.075063e+003,1.350953e-003
2.076992e+003,1.431494e-003
2.078920e+003,1.480298e-003
2.080849e+003,1.470391e-003
2.082777e+003,1.455796e-003
2.084706e+003,1.473449e-003
2.086634e+003,1.472153e-003
2.088563e+003,1.472518e-003
2.090491e+003,1.539549e-003
2.092420e+003,1.614671e-003
2.094348e+003,1.678264e-003
2.096277e+003,1.631765e-003
2.098205e+003,1.589961e-003
2.100134e+003,1.706438e-003
2.102062e+003,1.789274e-003
2.103991e+003,1.845838e-003
2.105919e+003,1.975697e-003
2.107848e+003,2.076097e-003
2.109776e+003,2.027159e-003
2.111705e+003,1.940417e-003
2.113633e+003,1.916421e-003
2.115562e+003,2.062547e-003
2.117490e+003,2.182414e-003
2.119419e+003,2.205359e-003
2.121347e+003,2.141056e-003
2.123276e+003,2.086351e-003
2.125204e+003,2.103464e-003
2.127133e+003,2.210554e-003
2.129061e+003,2.328830e-003
2.130990e+003,2.466531e-003
2.132918e+003,2.476194e-003
2.134847e+003,2.408853e-003
2.136775e+003,2.418382e-003
2.138704e+003,2.477194e-003
2.140632e+003,2.509953e-003
2.142561e+003,2.478227e-003
2.144489e+003,2.493090e-003
2.146418e+003,2.518251e-003
2.148346e+003,2.638143e-003
2.150275e+003,2.747532e-003
2.152203e+003,2.823264e-003
2.154132e+003,2.756669e-003
2.156060e+003,2.705387e-003
2.157989e+003,2.740363e-003
2.159917e+003,2.721024e-003
2.161846e+003,2.738330e-003
2.163774e+003,2.822230e-003
2.165703e+003,2.859450e-003
2.167631e+003,2.905346e-003
2.169560e+003,3.038125e-003
2.171488e+003,2.991848e-003
2.173417e+003,2.929030e-003
2.175345e+003,2.975968e-003
2.177274e+003,2.995952e-003
2.179202e+003,2.946811e-003
2.181131e+003,2.889336e-003
2.183059e+003,2.902778e-003
2.184988e+003,3.010599e-003
2.186916e+003,3.064286e-003
2.188845e+003,3.027381e-003
2.190773e+003,2.910217e-003
2.192702e+003,2.844175e-003
2.194630e+003,2.939171e-003
2.196559e+003,2.981973e-003
2.198487e+003,3.005461e-003
2.200416e+003,2.980138e-003
2.202344e+003,2.940205e-003
2.204273e+003,2.952482e-003
2.206201e+003,2.892738e-003
2.208130e+003,2.890536e-003
2.210058e+003,2.917555e-003
2.211987e+003,2.833102e-003
2.213915e+003,2.804455e-003
2.215844e+003,2.845843e-003
2.217772e+003,2.907214e-003
2.219701e+003,2.898375e-003
2.221629e+003,2.823864e-003
2.223558e+003,2.749533e-003
2.225486e+003,2.769007e-003
2.227415e+003,2.763738e-003
2.229343e+003,2.761571e-003
2.231272e+003,2.738296e-003
2.233200e+003,2.766439e-003
2.235129e+003,2.739997e-003
2.237057e+003,2.626476e-003
2.238986e+003,2.557778e-003
2.240914e+003,2.559244e-003
2.242843e+003,2.557778e-003
2.244771e+003,2.559578e-003
2.246700e+003,2.564477e-003
2.248628e+003,2.585909e-003
2.250557e+003,2.460599e-003
2.252485e+003,2.421980e-003
2.254414e+003,2.472162e-003
2.256342e+003,2.488724e-003
2.258271e+003,2.490657e-003
2.260199e+003,2.495622e-003
2.262128e+003,2.518684e-003
2.264056e+003,2.578076e-003
2.265985e+003,2.584976e-003
2.267913e+003,2.573777e-003
2.269842e+003,2.624976e-003
2.271770e+003,2.579976e-003
2.273699e+003,2.481060e-003
2.275627e+003,2.376502e-003
2.277556e+003,2.394859e-003
2.279484e+003,2.469530e-003
2.281413e+003,2.544180e-003
2.283341e+003,2.530915e-003
2.285270e+003,2.531315e-003
2.287198e+003,2.570810e-003
2.289127e+003,2.645311e-003
2.291055e+003,2.676815e-003
2.292984e+003,2.656645e-003
2.294912e+003,2.570110e-003
2.296841e+003,2.708688e-003
2.298769e+003,2.952482e-003
2.300698e+003,3.096087e-003
2.302626e+003,3.273591e-003
2.304555e+003,3.397232e-003
2.306483e+003,3.504708e-003
2.308412e+003,3.761215e-003
2.310340e+003,4.071016e-003
2.312269e+003,4.473894e-003
2.314197e+003,4.955495e-003
2.316125e+003,5.483364e-003
2.318054e+003,6.015403e-003
2.319983e+003,6.519402e-003
2.321911e+003,7.176323e-003
2.323840e+003,7.756921e-003
2.325768e+003,8.078733e-003
2.327697e+003,8.536506e-003
2.329625e+003,9.217606e-003
2.331553e+003,9.538472e-003
2.333482e+003,9.687660e-003
2.335411e+003,9.911912e-003
2.337339e+003,1.020249e-002
2.339268e+003,1.025738e-002
2.341196e+003,1.006374e-002
2.343125e+003,9.658353e-003
2.345053e+003,8.622582e-003
2.346981e+003,6.893452e-003
2.348910e+003,5.820522e-003
2.350839e+003,6.896684e-003
2.352767e+003,9.050648e-003
2.354696e+003,1.082496e-002
2.356624e+003,1.191398e-002
2.358552e+003,1.249802e-002
2.360481e+003,1.276030e-002
2.362409e+003,1.284480e-002
2.364338e+003,1.257281e-002
2.366267e+003,1.200792e-002
2.368195e+003,1.109776e-002
2.370124e+003,1.001993e-002
2.372052e+003,8.794752e-003
2.373980e+003,7.575114e-003
2.375909e+003,6.359631e-003
2.377838e+003,5.279598e-003
2.379766e+003,4.481326e-003
2.381695e+003,3.968114e-003
2.383623e+003,3.772144e-003
2.385552e+003,3.691869e-003
2.387480e+003,3.648730e-003
2.389408e+003,3.759945e-003
2.391337e+003,3.848757e-003
2.393266e+003,3.855142e-003
2.395194e+003,3.892919e-003
2.397123e+003,3.983095e-003
2.399051e+003,3.992793e-003
2.400979e+003,3.954906e-003
2.402908e+003,3.930666e-003
2.404836e+003,3.966543e-003
2.406765e+003,4.009045e-003
2.408694e+003,3.960223e-003
2.410622e+003,4.074962e-003
2.412551e+003,4.215929e-003
2.414479e+003,4.339504e-003
2.416407e+003,4.366646e-003
2.418336e+003,4.353092e-003
2.420264e+003,4.336759e-003
2.422193e+003,4.332107e-003
2.424122e+003,4.482932e-003
2.426050e+003,4.596504e-003
2.427979e+003,4.541523e-003
2.429907e+003,4.560809e-003
2.431835e+003,4.659933e-003
2.433764e+003,4.756700e-003
2.435692e+003,4.852450e-003
2.437621e+003,4.877514e-003
2.439550e+003,4.867060e-003
2.441478e+003,4.884651e-003
2.443406e+003,4.926640e-003
2.445335e+003,4.942961e-003
2.447263e+003,4.969135e-003
2.449192e+003,4.977682e-003
2.451121e+003,4.951440e-003
2.453049e+003,4.962097e-003
2.454978e+003,5.038249e-003
2.456906e+003,5.210949e-003
2.458834e+003,5.329810e-003
2.460763e+003,5.270274e-003
2.462691e+003,5.208534e-003
2.464620e+003,5.262292e-003
2.466549e+003,5.378752e-003
2.468477e+003,5.422667e-003
2.470406e+003,5.434108e-003
2.472334e+003,5.469002e-003
2.474262e+003,5.559272e-003
2.476191e+003,5.634623e-003
2.478119e+003,5.678128e-003
2.480048e+003,5.676147e-003
2.481977e+003,5.747052e-003
2.483905e+003,5.808835e-003
2.485833e+003,5.901460e-003
2.487762e+003,5.956916e-003
2.489690e+003,5.950399e-003
2.491619e+003,6.017620e-003
2.493547e+003,6.068421e-003
2.495476e+003,6.150917e-003
2.497405e+003,6.252623e-003
2.499333e+003,6.229665e-003
2.501261e+003,6.185836e-003
2.503190e+003,6.177568e-003
2.505118e+003,6.248186e-003
2.507047e+003,6.248824e-003
2.508975e+003,6.209464e-003
2.510904e+003,6.208422e-003
2.512833e+003,6.263178e-003
2.514761e+003,6.328598e-003
2.516689e+003,6.418105e-003
2.518618e+003,6.517855e-003
2.520546e+003,6.529426e-003
2.522475e+003,6.440333e-003
2.524403e+003,6.442586e-003
2.526332e+003,6.458695e-003
2.528260e+003,6.502350e-003
2.530189e+003,6.538440e-003
2.532117e+003,6.539719e-003
2.534046e+003,6.591354e-003
2.535974e+003,6.668028e-003
2.537903e+003,6.625938e-003
2.539831e+003,6.679098e-003
2.541760e+003,6.702113e-003
2.543688e+003,6.767937e-003
2.545617e+003,6.851879e-003
2.547545e+003,6.864738e-003
2.549474e+003,6.834174e-003
2.551402e+003,6.748721e-003
2.553331e+003,6.756730e-003
2.555259e+003,6.812127e-003
2.557188e+003,6.814551e-003
2.559116e+003,6.828148e-003
2.561045e+003,6.966779e-003
2.562973e+003,6.904258e-003
2.564902e+003,6.840434e-003
2.566830e+003,7.017084e-003
2.568759e+003,7.021294e-003
2.570687e+003,6.956577e-003
2.572616e+003,7.033619e-003
2.574544e+003,7.131422e-003
2.576473e+003,7.075108e-003
2.578401e+003,6.992706e-003
2.580330e+003,6.974590e-003
2.582258e+003,6.961459e-003
2.584187e+003,7.038232e-003
2.586115e+003,7.090230e-003
2.588044e+003,7.039815e-003
2.589972e+003,7.158807e-003
2.591901e+003,7.279449e-003
2.593829e+003,7.222509e-003
2.595758e+003,7.148702e-003
2.597686e+003,7.175751e-003
2.599615e+003,7.182117e-003
2.601543e+003,7.233425e-003
2.603472e+003,7.303776e-003
2.605400e+003,7.329723e-003
2.607329e+003,7.310583e-003
2.609257e+003,7.433492e-003
2.611186e+003,7.548849e-003
2.613114e+003,7.542949e-003
2.615043e+003,7.568843e-003
2.616971e+003,7.589377e-003
2.618900e+003,7.625052e-003
2.620828e+003,7.673680e-003
2.622757e+003,7.795443e-003
2.624685e+003,7.811434e-003
2.626614e+003,7.754930e-003
2.628542e+003,7.759720e-003
2.630471e+003,7.860150e-003
2.632399e+003,7.936340e-003
2.634328e+003,7.952099e-003
2.636256e+003,7.987737e-003
2.638185e+003,8.105503e-003
2.640113e+003,8.148379e-003
2.642042e+003,8.097536e-003
2.643970e+003,8.188455e-003
2.645899e+003,8.215806e-003
2.647827e+003,8.158743e-003
2.649756e+003,8.234614e-003
2.651684e+003,8.312862e-003
2.653613e+003,8.293274e-003
2.655541e+003,8.270308e-003
2.657470e+003,8.246467e-003
2.659398e+003,8.361331e-003
2.661327e+003,8.549415e-003
2.663255e+003,8.576180e-003
2.665184e+003,8.534073e-003
2.667112e+003,8.641239e-003
2.669041e+003,8.765844e-003
2.670969e+003,8.730480e-003
2.672898e+003,8.671390e-003
2.674826e+003,8.698298e-003
2.676755e+003,8.720710e-003
2.678683e+003,8.739000e-003
2.680612e+003,8.834855e-003
2.682540e+003,8.872965e-003
2.684469e+003,8.932354e-003
2.686397e+003,9.076800e-003
2.688326e+003,9.155167e-003
2.690254e+003,9.252874e-003
2.692183e+003,9.322572e-003
2.694111e+003,9.209584e-003
2.696040e+003,9.128739e-003
2.697968e+003,9.240046e-003
2.699897e+003,9.356629e-003
2.701825e+003,9.332761e-003
2.703754e+003,9.350060e-003
2.705682e+003,9.526651e-003
2.707611e+003,9.639009e-003
2.709539e+003,9.612551e-003
2.711468e+003,9.605133e-003
2.713396e+003,9.700739e-003
2.715325e+003,9.791248e-003
2.717253e+003,9.768373e-003
2.719182e+003,9.767187e-003
2.721110e+003,9.838187e-003
2.723039e+003,1.002715e-002
2.724967e+003,1.010708e-002
2.726896e+003,1.008619e-002
2.728824e+003,1.017159e-002
2.730753e+003,1.027278e-002
2.732681e+003,1.031641e-002
2.734610e+003,1.039755e-002
2.736538e+003,1.048169e-002
2.738467e+003,1.051719e-002
2.740395e+003,1.060183e-002
2.742324e+003,1.071148e-002
2.744252e+003,1.081572e-002
2.746181e+003,1.100035e-002
2.748109e+003,1.108192e-002
2.750038e+003,1.109541e-002
2.751966e+003,1.121769e-002
2.753895e+003,1.134182e-002
2.755823e+003,1.142984e-002
2.757752e+003,1.155573e-002
2.759680e+003,1.169305e-002
2.761609e+003,1.191442e-002
2.763537e+003,1.225924e-002
2.765466e+003,1.240234e-002
2.767394e+003,1.247991e-002
2.769323e+003,1.276679e-002
2.771251e+003,1.321406e-002
2.773180e+003,1.356318e-002
2.775108e+003,1.388071e-002
2.777037e+003,1.429492e-002
2.778965e+003,1.475271e-002
2.780894e+003,1.528817e-002
2.782822e+003,1.592945e-002
2.784750e+003,1.658088e-002
2.786679e+003,1.720715e-002
2.788608e+003,1.781161e-002
2.790536e+003,1.846649e-002
2.792465e+003,1.904702e-002
2.794393e+003,1.970643e-002
2.796322e+003,2.038862e-002
2.798250e+003,2.096039e-002
2.800178e+003,2.146788e-002
2.802107e+003,2.200353e-002
2.804036e+003,2.254151e-002
2.805964e+003,2.293392e-002
2.807893e+003,2.329512e-002
2.809821e+003,2.361375e-002
2.811750e+003,2.387241e-002
2.813678e+003,2.402051e-002
2.815606e+003,2.402709e-002
2.817535e+003,2.389058e-002
2.819464e+003,2.376845e-002
2.821392e+003,2.363324e-002
2.823321e+003,2.346953e-002
2.825249e+003,2.325341e-002
2.827177e+003,2.281049e-002
2.829106e+003,2.235833e-002
2.831034e+003,2.190451e-002
2.832963e+003,2.147017e-002
2.834892e+003,2.118431e-002
2.836820e+003,2.076143e-002
2.838749e+003,2.020968e-002
2.840677e+003,1.968143e-002
2.842605e+003,1.928395e-002
2.844534e+003,1.875610e-002
2.846462e+003,1.806231e-002
2.848391e+003,1.755561e-002
2.850320e+003,1.724618e-002
2.852248e+003,1.695802e-002
2.854177e+003,1.671629e-002
2.856105e+003,1.647841e-002
2.858033e+003,1.628401e-002
2.859962e+003,1.618395e-002
2.861890e+003,1.606528e-002
2.863819e+003,1.603269e-002
2.865748e+003,1.603802e-002
2.867676e+003,1.595231e-002
2.869604e+003,1.594200e-002
2.871533e+003,1.595427e-002
2.873461e+003,1.605442e-002
2.875390e+003,1.615118e-002
2.877319e+003,1.627905e-002
2.879247e+003,1.637225e-002
2.881176e+003,1.634421e-002
2.883104e+003,1.641533e-002
2.885032e+003,1.656962e-002
2.886961e+003,1.654924e-002
2.888889e+003,1.651001e-002
2.890818e+003,1.650350e-002
2.892747e+003,1.644926e-002
2.894675e+003,1.632698e-002
2.896604e+003,1.634803e-002
2.898532e+003,1.624552e-002
2.900460e+003,1.607941e-002
2.902389e+003,1.605806e-002
2.904317e+003,1.606666e-002
2.906246e+003,1.595475e-002
2.908175e+003,1.580536e-002
2.910103e+003,1.583089e-002
2.912031e+003,1.583570e-002
2.913960e+003,1.570403e-002
2.915888e+003,1.565917e-002
2.917817e+003,1.565261e-002
2.919745e+003,1.583079e-002
2.921674e+003,1.601893e-002
2.923603e+003,1.622230e-002
2.925531e+003,1.636675e-002
2.927459e+003,1.639779e-002
2.929388e+003,1.646654e-002
2.931316e+003,1.662026e-002
2.933245e+003,1.673430e-002
2.935173e+003,1.675957e-002
2.937102e+003,1.677252e-002
2.939031e+003,1.678310e-002
2.940959e+003,1.658442e-002
2.942887e+003,1.640473e-002
2.944816e+003,1.633757e-002
2.946744e+003,1.625652e-002
2.948673e+003,1.603238e-002
2.950601e+003,1.559772e-002
2.952530e+003,1.520334e-002
2.954458e+003,1.480084e-002
2.956387e+003,1.432810e-002
2.958315e+003,1.380569e-002
2.960244e+003,1.319595e-002
2.962172e+003,1.266754e-002
2.964101e+003,1.226258e-002
2.966029e+003,1.180338e-002
2.967958e+003,1.130396e-002
2.969886e+003,1.091866e-002
2.971815e+003,1.044550e-002
2.973743e+003,9.924116e-003
2.975672e+003,9.516118e-003
2.977600e+003,9.172291e-003
2.979529e+003,8.890348e-003
2.981457e+003,8.641747e-003
2.983386e+003,8.332418e-003
2.985314e+003,8.032558e-003
2.987243e+003,7.922741e-003
2.989171e+003,7.845575e-003
2.991100e+003,7.532869e-003
2.993028e+003,7.338283e-003
2.994957e+003,7.292455e-003
2.996885e+003,7.117377e-003
2.998814e+003,6.986645e-003
3.000742e+003,7.031531e-003
3.002671e+003,6.970786e-003
3.004599e+003,6.806405e-003
3.006528e+003,6.772783e-003
3.008456e+003,6.698378e-003
3.010385e+003,6.581632e-003
3.012313e+003,6.542712e-003
3.014242e+003,6.604743e-003
3.016170e+003,6.636301e-003
3.018099e+003,6.541232e-003
3.020027e+003,6.389388e-003
3.021956e+003,6.359866e-003
3.023884e+003,6.324766e-003
3.025813e+003,6.281465e-003
3.027741e+003,6.126318e-003
3.029670e+003,6.012513e-003
3.031598e+003,6.018191e-003
3.033527e+003,6.044229e-003
3.035455e+003,6.080987e-003
3.037384e+003,6.093622e-003
3.039312e+003,5.995548e-003
3.041241e+003,5.799970e-003
3.043169e+003,5.622841e-003
3.045098e+003,5.592834e-003
3.047026e+003,5.563501e-003
3.048955e+003,5.586592e-003
3.050883e+003,5.590753e-003
3.052812e+003,5.491249e-003
3.054740e+003,5.347118e-003
3.056669e+003,5.250386e-003
3.058597e+003,5.141405e-003
3.060526e+003,5.069492e-003
3.062454e+003,5.157197e-003
3.064383e+003,5.175907e-003
3.066311e+003,5.030607e-003
3.068240e+003,5.056820e-003
3.070168e+003,5.023668e-003
3.072097e+003,4.850675e-003
3.074025e+003,4.739951e-003
3.075954e+003,4.773584e-003
3.077882e+003,4.718279e-003
3.079811e+003,4.642819e-003
3.081739e+003,4.643087e-003
3.083668e+003,4.648110e-003
3.085596e+003,4.590812e-003
3.087525e+003,4.482665e-003
3.089453e+003,4.387130e-003
3.091382e+003,4.342148e-003
3.093310e+003,4.331204e-003
3.095239e+003,4.267690e-003
3.097167e+003,4.237375e-003
3.099096e+003,4.233494e-003
3.101024e+003,4.153669e-003
3.102953e+003,4.107875e-003
3.104881e+003,4.054494e-003
3.106810e+003,4.029009e-003
3.108738e+003,3.978179e-003
3.110667e+003,3.962430e-003
3.112595e+003,3.925784e-003
3.114524e+003,3.960324e-003
3.116452e+003,3.814694e-003
3.118381e+003,3.752926e-003
3.120309e+003,3.796009e-003
3.122238e+003,3.810114e-003
3.124166e+003,3.862296e-003
3.126095e+003,3.856378e-003
3.128023e+003,3.736082e-003
3.129952e+003,3.700458e-003
3.131880e+003,3.622902e-003
3.133809e+003,3.625575e-003
3.135737e+003,3.658487e-003
3.137666e+003,3.705905e-003
3.139594e+003,3.701059e-003
3.141523e+003,3.615017e-003
3.143451e+003,3.648296e-003
3.145380e+003,3.638506e-003
3.147308e+003,3.508516e-003
3.149237e+003,3.469303e-003
3.151165e+003,3.569514e-003
3.153094e+003,3.650267e-003
3.155022e+003,3.590728e-003
3.156951e+003,3.522278e-003
3.158879e+003,3.501836e-003
3.160808e+003,3.465028e-003
3.162736e+003,3.539615e-003
3.164665e+003,3.594904e-003
3.166593e+003,3.512524e-003
3.168522e+003,3.348513e-003
3.170450e+003,3.393659e-003
3.172379e+003,3.435671e-003
3.174307e+003,3.481928e-003
3.176236e+003,3.566374e-003
3.178164e+003,3.557621e-003
3.180093e+003,3.483264e-003
3.182021e+003,3.448495e-003
3.183950e+003,3.550773e-003
3.185878e+003,3.532300e-003
3.187807e+003,3.494621e-003
3.189735e+003,3.567476e-003
3.191664e+003,3.519405e-003
3.193592e+003,3.447560e-003
3.195521e+003,3.369816e-003
3.197449e+003,3.206426e-003
3.199378e+003,3.140306e-003
3.201306e+003,3.221581e-003
3.203235e+003,3.293989e-003
3.205163e+003,3.320032e-003
3.207092e+003,3.273691e-003
3.209020e+003,3.364707e-003
3.210948e+003,3.448629e-003
3.212877e+003,3.428924e-003
3.214806e+003,3.453906e-003
3.216734e+003,3.454140e-003
3.218663e+003,3.548367e-003
3.220591e+003,3.663232e-003
3.222520e+003,3.778093e-003
3.224448e+003,3.810683e-003
3.226376e+003,3.763488e-003
3.228305e+003,3.815362e-003
3.230234e+003,3.987844e-003
3.232162e+003,4.112357e-003
3.234091e+003,4.296300e-003
3.236019e+003,4.273512e-003
3.237948e+003,4.112157e-003
3.239876e+003,4.203516e-003
3.241804e+003,4.428468e-003
3.243733e+003,4.655143e-003
3.245662e+003,4.705215e-003
3.247590e+003,4.806416e-003
3.249519e+003,4.754020e-003
3.251447e+003,4.772445e-003
3.253375e+003,4.806416e-003
3.255304e+003,4.929455e-003
3.257232e+003,5.183318e-003
3.259161e+003,5.332325e-003
3.261090e+003,5.386535e-003
3.263018e+003,5.361274e-003
3.264947e+003,5.351076e-003
3.266875e+003,5.361576e-003
3.268803e+003,5.534404e-003
3.270732e+003,5.623546e-003
3.272660e+003,5.631937e-003
3.274589e+003,5.619719e-003
3.276518e+003,5.593942e-003
3.278446e+003,5.682827e-003
3.280375e+003,5.809641e-003
3.282303e+003,5.763874e-003
3.284231e+003,5.689709e-003
3.286160e+003,5.646405e-003
3.288088e+003,5.616732e-003
3.290017e+003,5.545042e-003
3.291946e+003,5.569609e-003
3.293874e+003,5.602500e-003
3.295802e+003,5.489370e-003
3.297731e+003,5.361207e-003
3.299659e+003,5.338699e-003
3.301588e+003,5.194886e-003
3.303516e+003,4.987201e-003
3.305445e+003,4.952076e-003
3.307374e+003,4.827054e-003
3.309302e+003,4.627179e-003
3.311230e+003,4.552639e-003
3.313159e+003,4.477409e-003
3.315087e+003,4.297204e-003
3.317016e+003,4.229345e-003
3.318944e+003,4.114498e-003
3.320873e+003,3.960658e-003
3.322802e+003,3.865639e-003
3.324730e+003,3.706005e-003
3.326658e+003,3.514696e-003
3.328587e+003,3.569414e-003
3.330515e+003,3.560026e-003
3.332444e+003,3.339397e-003
3.334372e+003,3.096921e-003
3.336301e+003,2.997887e-003
3.338229e+003,2.933067e-003
3.340158e+003,2.860351e-003
3.342086e+003,2.845142e-003
3.344015e+003,2.705087e-003
3.345943e+003,2.641010e-003
3.347872e+003,2.620709e-003
3.349800e+003,2.495123e-003
3.351729e+003,2.402789e-003
3.353657e+003,2.301814e-003
3.355586e+003,2.162600e-003
3.357514e+003,2.168894e-003
3.359443e+003,2.069338e-003
3.361371e+003,1.865637e-003
3.363300e+003,1.722338e-003
3.365229e+003,1.650191e-003
3.367157e+003,1.580018e-003
3.369085e+003,1.380069e-003
3.371014e+003,1.192506e-003
3.372942e+003,1.166060e-003
3.374871e+003,1.108754e-003
3.376799e+003,1.122075e-003
3.378728e+003,9.628151e-004
3.380656e+003,7.984355e-004
3.382585e+003,7.362989e-004
3.384513e+003,5.986475e-004
3.386442e+003,4.656834e-004
3.388370e+003,4.678063e-004
3.390299e+003,4.412381e-004
3.392227e+003,4.665127e-004
3.394156e+003,3.145891e-004
3.396084e+003,2.037559e-004
3.398013e+003,1.509518e-004
3.399941e+003,-1.537392e-005
3.401870e+003,3.313417e-006
3.403798e+003,9.111956e-006
3.405727e+003,3.161102e-005
3.407655e+003,3.495782e-005
3.409584e+003,-1.573838e-005
3.411512e+003,-1.442748e-004
3.413441e+003,-3.237645e-004
3.415369e+003,-4.021273e-004
3.417298e+003,-3.489600e-004
3.419226e+003,-3.436297e-004
3.421155e+003,-3.378358e-004
3.423083e+003,-3.524363e-004
3.425012e+003,-4.097410e-004
3.426940e+003,-4.609811e-004
3.428869e+003,-4.431404e-004
3.430797e+003,-5.077804e-004
3.432726e+003,-5.957058e-004
3.434654e+003,-4.880882e-004
3.436583e+003,-6.072866e-004
3.438511e+003,-6.975406e-004
3.440440e+003,-6.174445e-004
3.442368e+003,-8.334486e-004
3.444297e+003,-1.093041e-003
3.446225e+003,-9.917613e-004
3.448154e+003,-7.477875e-004
3.450082e+003,-7.083910e-004
3.452011e+003,-8.049739e-004
3.453939e+003,-7.807972e-004
3.455868e+003,-8.656912e-004
3.457796e+003,-1.030273e-003
3.459725e+003,-1.161087e-003
3.461653e+003,-1.144993e-003
3.463582e+003,-9.067267e-004
3.465510e+003,-8.939634e-004
3.467439e+003,-1.203681e-003
3.469367e+003,-1.331998e-003
3.471296e+003,-1.226975e-003
3.473224e+003,-1.136038e-003
3.475153e+003,-1.144266e-003
3.477081e+003,-1.213395e-003
3.479010e+003,-1.305802e-003
3.480938e+003,-1.499144e-003
3.482867e+003,-1.600833e-003
3.484795e+003,-1.335929e-003
3.486724e+003,-1.225224e-003
3.488652e+003,-1.477449e-003
3.490581e+003,-1.402715e-003
3.492509e+003,-1.271247e-003
3.494438e+003,-1.283768e-003
3.496366e+003,-1.321064e-003
3.498295e+003,-1.329487e-003
3.500223e+003,-1.265069e-003
3.502152e+003,-1.257734e-003
3.504080e+003,-1.287930e-003
3.506009e+003,-1.465759e-003
3.507937e+003,-1.479595e-003
3.509866e+003,-1.350033e-003
3.511794e+003,-1.301210e-003
3.513723e+003,-1.390528e-003
3.515651e+003,-1.472430e-003
3.517580e+003,-1.317496e-003
3.519508e+003,-1.345211e-003
3.521437e+003,-1.605686e-003
3.523365e+003,-1.718637e-003
3.525294e+003,-1.710650e-003
3.527222e+003,-1.645925e-003
3.529151e+003,-1.566169e-003
3.531079e+003,-1.570263e-003
3.533008e+003,-1.525526e-003
3.534936e+003,-1.539657e-003
3.536865e+003,-1.619814e-003
3.538793e+003,-1.847364e-003
3.540722e+003,-1.964903e-003
3.542650e+003,-2.001283e-003
3.544579e+003,-1.837894e-003
3.546507e+003,-1.529554e-003
3.548436e+003,-1.606775e-003
3.550364e+003,-1.702333e-003
3.552293e+003,-1.687019e-003
3.554221e+003,-1.712961e-003
3.556150e+003,-1.816283e-003
3.558078e+003,-1.768502e-003
3.560007e+003,-1.700287e-003
3.561935e+003,-1.780250e-003
3.563864e+003,-1.736789e-003
3.565792e+003,-1.772165e-003
3.567721e+003,-1.817536e-003
3.569649e+003,-1.848089e-003
3.571578e+003,-1.849805e-003
3.573506e+003,-1.825455e-003
3.575435e+003,-1.898038e-003
3.577363e+003,-2.019060e-003
3.579292e+003,-2.051940e-003
3.581220e+003,-1.948345e-003
3.583149e+003,-1.993500e-003
3.585077e+003,-2.089567e-003
3.587006e+003,-1.976975e-003
3.588934e+003,-1.896356e-003
3.590863e+003,-2.030867e-003
3.592791e+003,-2.040695e-003
3.594720e+003,-1.871811e-003
3.596648e+003,-1.822684e-003
3.598577e+003,-1.974139e-003
3.600505e+003,-2.029845e-003
3.602434e+003,-2.029119e-003
3.604362e+003,-2.048016e-003
3.606291e+003,-2.088412e-003
3.608219e+003,-2.055403e-003
3.610148e+003,-2.034462e-003
3.612076e+003,-2.162501e-003
3.614005e+003,-2.245840e-003
3.615933e+003,-2.380935e-003
3.617862e+003,-2.323857e-003
3.619790e+003,-2.230545e-003
3.621719e+003,-2.336644e-003
3.623647e+003,-2.445287e-003
3.625576e+003,-2.387723e-003
3.627504e+003,-2.252433e-003
3.629433e+003,-1.900777e-003
3.631361e+003,-2.176777e-003
3.633290e+003,-2.302764e-003
3.635218e+003,-2.304247e-003
3.637146e+003,-2.323263e-003
3.639075e+003,-2.329229e-003
3.641004e+003,-2.497078e-003
3.642932e+003,-2.438071e-003
3.644861e+003,-2.679188e-003
3.646789e+003,-2.911745e-003
3.648718e+003,-2.683172e-003
3.650646e+003,-2.416621e-003
3.652574e+003,-2.622083e-003
3.654503e+003,-2.706124e-003
3.656432e+003,-2.387921e-003
3.658360e+003,-2.528012e-003
3.660289e+003,-2.920796e-003
3.662217e+003,-3.025608e-003
3.664146e+003,-2.986154e-003
3.666074e+003,-3.104833e-003
3.668002e+003,-3.297441e-003
3.669931e+003,-3.134934e-003
3.671860e+003,-2.966475e-003
3.673788e+003,-3.088154e-003
3.675717e+003,-2.877317e-003
3.677645e+003,-2.847560e-003
3.679573e+003,-3.001850e-003
3.681502e+003,-2.894926e-003
3.683430e+003,-2.793046e-003
3.685359e+003,-2.903286e-003
3.687288e+003,-3.113650e-003
3.689216e+003,-2.955615e-003
3.691145e+003,-2.863821e-003
3.693073e+003,-2.851280e-003
3.695001e+003,-2.799729e-003
3.696930e+003,-2.696180e-003
3.698858e+003,-2.621062e-003
3.700787e+003,-2.544515e-003
3.702716e+003,-2.455665e-003
3.704644e+003,-2.444200e-003
3.706573e+003,-2.632490e-003
3.708501e+003,-2.849832e-003
3.710429e+003,-2.806840e-003
3.712358e+003,-2.768683e-003
3.714286e+003,-2.886829e-003
3.716215e+003,-2.843907e-003
3.718144e+003,-2.557691e-003
3.720072e+003,-2.438994e-003
3.722000e+003,-2.515098e-003
3.723929e+003,-2.652184e-003
3.725857e+003,-2.591057e-003
3.727786e+003,-2.628406e-003
3.729714e+003,-2.679352e-003
3.731643e+003,-2.433393e-003
3.733572e+003,-2.263013e-003
3.735500e+003,-2.332887e-003
3.737428e+003,-2.358460e-003
3.739357e+003,-2.486470e-003
3.741285e+003,-2.642008e-003
3.743214e+003,-2.451679e-003
3.745142e+003,-1.802886e-003
3.747071e+003,-2.239808e-003
3.749000e+003,-2.358592e-003
3.750928e+003,-2.000756e-003
3.752856e+003,-1.887086e-003
3.754785e+003,-2.020808e-003
3.756713e+003,-2.147928e-003
3.758642e+003,-2.104966e-003
3.760570e+003,-1.870062e-003
3.762499e+003,-1.858977e-003
3.764427e+003,-2.093919e-003
3.766356e+003,-2.174601e-003
3.768284e+003,-2.187063e-003
3.770213e+003,-1.912521e-003
3.772141e+003,-1.813412e-003
3.774070e+003,-1.777412e-003
3.775998e+003,-1.848419e-003
3.777927e+003,-1.958240e-003
3.779855e+003,-1.872834e-003
3.781784e+003,-1.921295e-003
3.783712e+003,-1.936503e-003
3.785641e+003,-1.753025e-003
3.787569e+003,-1.724116e-003
3.789498e+003,-1.979680e-003
3.791426e+003,-2.184392e-003
3.793355e+003,-2.259915e-003
3.795283e+003,-2.282197e-003
3.797212e+003,-1.956756e-003
3.799140e+003,-1.982385e-003
3.801069e+003,-2.064934e-003
3.802997e+003,-1.984430e-003
3.804926e+003,-2.166227e-003
3.806854e+003,-1.778501e-003
3.808783e+003,-1.648962e-003
3.810711e+003,-1.900216e-003
3.812640e+003,-2.252597e-003
3.814568e+003,-2.591914e-003
3.816497e+003,-2.056425e-003
3.818425e+003,-1.973215e-003
3.820354e+003,-1.924429e-003
3.822282e+003,-1.718934e-003
3.824211e+003,-2.239577e-003
3.826139e+003,-2.432239e-003
3.828068e+003,-2.223853e-003
3.829996e+003,-2.073903e-003
3.831925e+003,-1.954084e-003
3.833853e+003,-1.973149e-003
3.835782e+003,-2.104537e-003
3.837710e+003,-1.990927e-003
3.839639e+003,-2.082279e-003
3.841567e+003,-2.176810e-003
3.843496e+003,-1.967839e-003
3.845424e+003,-2.056623e-003
3.847353e+003,-2.404924e-003
3.849281e+003,-2.574259e-003
3.851210e+003,-2.496848e-003
3.853138e+003,-1.936601e-003
3.855067e+003,-1.602847e-003
3.856995e+003,-2.061174e-003
3.858924e+003,-2.302071e-003
3.860852e+003,-2.152149e-003
3.862781e+003,-2.030768e-003
3.864709e+003,-2.030438e-003
3.866638e+003,-2.239775e-003
3.868566e+003,-2.320165e-003
3.870495e+003,-2.007484e-003
3.872423e+003,-2.010090e-003
3.874352e+003,-2.140807e-003
3.876280e+003,-2.195931e-003
3.878209e+003,-2.226787e-003
3.880137e+003,-2.169524e-003
3.882066e+003,-2.172656e-003
3.883994e+003,-2.514209e-003
3.885923e+003,-2.261365e-003
3.887851e+003,-1.976711e-003
3.889780e+003,-1.941451e-003
3.891708e+003,-1.862540e-003
3.893637e+003,-2.003131e-003
3.895565e+003,-2.162237e-003
3.897494e+003,-2.245906e-003
3.899422e+003,-2.330217e-003
3.901351e+003,-2.383901e-003
3.903279e+003,-2.346102e-003
3.905208e+003,-2.174370e-003
3.907136e+003,-2.217886e-003
3.909065e+003,-2.298940e-003
3.910993e+003,-2.327976e-003
3.912922e+003,-2.170348e-003
3.914850e+003,-1.943298e-003
3.916779e+003,-1.993566e-003
3.918707e+003,-2.201403e-003
3.920636e+003,-2.353220e-003
3.922564e+003,-2.152247e-003
3.924493e+003,-2.036078e-003
3.926421e+003,-2.072188e-003
3.928350e+003,-2.371049e-003
3.930278e+003,-2.529757e-003
3.932207e+003,-2.460410e-003
3.934135e+003,-2.421597e-003
3.936064e+003,-2.394676e-003
3.937992e+003,-2.214062e-003
3.939921e+003,-2.036539e-003
3.941849e+003,-2.123958e-003
3.943778e+003,-2.432371e-003
3.945706e+003,-2.484460e-003
3.947635e+003,-2.331041e-003
3.949563e+003,-2.222271e-003
3.951492e+003,-2.198107e-003
3.953420e+003,-2.269375e-003
3.955349e+003,-2.583581e-003
3.957277e+003,-2.597842e-003
3.959206e+003,-2.549160e-003
3.961134e+003,-2.593791e-003
3.963063e+003,-2.466505e-003
3.964991e+003,-2.345904e-003
3.966920e+003,-2.327383e-003
3.968848e+003,-2.070704e-003
3.970777e+003,-1.960681e-003
3.972705e+003,-1.975458e-003
3.974634e+003,-1.987794e-003
3.976562e+003,-2.222040e-003
3.978491e+003,-2.178985e-003
3.980419e+003,-2.211491e-003
3.982348e+003,-2.264233e-003
3.984276e+003,-2.100217e-003
3.986205e+003,-2.097744e-003
3.988133e+003,-2.216864e-003
3.990062e+003,-2.230973e-003
3.991990e+003,-2.351013e-003
3.993919e+003,-2.490391e-003
3.995847e+003,-2.503963e-003
3.997776e+003,-2.397049e-003
3.999704e+003,-2.332458e-003
4.001633e+003,0.000000e+000
