3.991989e+002,1.494311e-002
4.011274e+002,4.612511e-003
4.030559e+002,-1.752464e-003
4.049844e+002,-7.031173e-003
4.069129e+002,-3.760079e-004
4.088414e+002,8.252140e-003
4.107699e+002,5.730970e-003
4.126984e+002,2.817861e-003
4.146269e+002,8.029790e-003
4.165554e+002,1.300496e-002
4.184839e+002,1.014954e-002
4.204124e+002,1.032870e-002
4.223409e+002,1.338782e-002
4.242694e+002,1.050378e-002
4.261979e+002,3.771442e-003
4.281264e+002,9.715003e-003
4.300549e+002,1.589079e-002
4.319834e+002,1.352350e-002
4.339119e+002,1.399656e-002
4.358404e+002,1.624744e-002
4.377689e+002,1.407356e-002
4.396974e+002,7.729936e-003
4.416259e+002,1.040627e-003
4.435544e+002,3.062751e-003
4.454829e+002,6.992571e-003
4.474114e+002,9.372948e-003
4.493399e+002,9.988428e-003
4.512684e+002,8.913448e-003
4.531969e+002,8.318469e-003
4.551254e+002,7.704269e-003
4.570539e+002,8.057029e-003
4.589824e+002,7.533711e-003
4.609109e+002,7.163590e-003
4.628394e+002,7.264623e-003
4.647679e+002,5.299622e-003
4.666964e+002,3.984098e-003
4.686249e+002,5.388749e-003
4.705533e+002,6.510355e-003
4.724819e+002,5.799534e-003
4.744103e+002,6.817748e-003
4.763389e+002,7.838557e-003
4.782673e+002,7.513821e-003
4.801959e+002,6.895977e-003
4.821243e+002,6.442250e-003
4.840529e+002,5.736107e-003
4.859813e+002,5.433001e-003
4.879099e+002,5.744635e-003
4.898383e+002,6.738793e-003
4.917668e+002,6.341139e-003
4.936953e+002,5.992726e-003
4.956238e+002,7.115928e-003
4.975523e+002,6.815089e-003
4.994808e+002,5.190527e-003
5.014093e+002,5.838622e-003
5.033378e+002,7.412089e-003
5.052663e+002,7.481660e-003
5.071948e+002,3.808510e-003
5.091233e+002,-2.138607e-004
5.110518e+002,4.734783e-004
5.129803e+002,2.273202e-003
5.149088e+002,2.441573e-003
5.168373e+002,3.299832e-003
5.187658e+002,3.901945e-003
5.206943e+002,3.648630e-003
5.226228e+002,3.975839e-003
5.245513e+002,4.838747e-003
5.264798e+002,4.336626e-003
5.284083e+002,4.427128e-003
5.303368e+002,4.477275e-003
5.322653e+002,3.579135e-003
5.341938e+002,4.565999e-003
5.361223e+002,4.077003e-003
5.380508e+002,3.462489e-003
5.399792e+002,4.021585e-003
5.419078e+002,5.248575e-003
5.438363e+002,5.787009e-003
5.457648e+002,6.111868e-003
5.476932e+002,6.443932e-003
5.496218e+002,6.191046e-003
5.515503e+002,6.612885e-003
5.534788e+002,6.203380e-003
5.554072e+002,5.817969e-003
5.573358e+002,5.939213e-003
5.592643e+002,5.671346e-003
5.611927e+002,6.295484e-003
5.631212e+002,8.032490e-003
5.650497e+002,8.720440e-003
5.669783e+002,7.334576e-003
5.689067e+002,6.685827e-003
5.708352e+002,6.070437e-003
5.727637e+002,6.851509e-003
5.746923e+002,5.935283e-003
5.766207e+002,4.589037e-003
5.785492e+002,7.590388e-003
5.804777e+002,1.841467e-002
5.824063e+002,1.524561e-002
5.843347e+002,7.160659e-003
5.862632e+002,6.443192e-003
5.881917e+002,6.165436e-003
5.901202e+002,7.377779e-003
5.920487e+002,9.312585e-003
5.939772e+002,1.323694e-002
5.959057e+002,1.526178e-002
5.978342e+002,1.259658e-002
5.997627e+002,1.212402e-002
6.016912e+002,1.322997e-002
6.036197e+002,1.533032e-002
6.055482e+002,1.684885e-002
6.074767e+002,1.687093e-002
6.094052e+002,1.663651e-002
6.113337e+002,1.557749e-002
6.132622e+002,1.394643e-002
6.151907e+002,1.350200e-002
6.171192e+002,1.428311e-002
6.190477e+002,1.479909e-002
6.209762e+002,1.491787e-002
6.229047e+002,1.408198e-002
6.248332e+002,1.131546e-002
6.267617e+002,8.524510e-003
6.286902e+002,6.396248e-003
6.306187e+002,5.541720e-003
6.325472e+002,4.799681e-003
6.344756e+002,4.396635e-003
6.364042e+002,4.462277e-003
6.383326e+002,4.192007e-003
6.402612e+002,3.880950e-003
6.421896e+002,3.818939e-003
6.441182e+002,3.786884e-003
6.460466e+002,2.979137e-003
6.479752e+002,2.667247e-003
6.499036e+002,2.917155e-003
6.518322e+002,3.362871e-003
6.537606e+002,3.295291e-003
6.556891e+002,2.347885e-003
6.576177e+002,1.798823e-003
6.595461e+002,2.002393e-003
6.614746e+002,1.639116e-003
6.634031e+002,1.047536e-003
6.653317e+002,1.278103e-003
6.672601e+002,1.078958e-003
6.691886e+002,1.142572e-003
6.711171e+002,1.206162e-003
6.730457e+002,1.285115e-003
6.749741e+002,1.336927e-003
6.769026e+002,1.661400e-003
6.788311e+002,2.064844e-003
6.807596e+002,2.681049e-003
6.826881e+002,2.820729e-003
6.846166e+002,2.616076e-003
6.865451e+002,3.206125e-003
6.884736e+002,3.818371e-003
6.904021e+002,3.672354e-003
6.923306e+002,3.521744e-003
6.942591e+002,3.555951e-003
6.961876e+002,3.436038e-003
6.981161e+002,3.254362e-003
7.000446e+002,3.245148e-003
7.019731e+002,3.359899e-003
7.039016e+002,3.841168e-003
7.058301e+002,3.769871e-003
7.077585e+002,3.693841e-003
7.096871e+002,4.479250e-003
7.116156e+002,5.240594e-003
7.135441e+002,5.410455e-003
7.154725e+002,5.027356e-003
7.174011e+002,4.880798e-003
7.193296e+002,5.012640e-003
7.212581e+002,4.731242e-003
7.231865e+002,4.885187e-003
7.251151e+002,5.355471e-003
7.270436e+002,5.805309e-003
7.289720e+002,6.160327e-003
7.309005e+002,6.555595e-003
7.328290e+002,6.867633e-003
7.347576e+002,7.430155e-003
7.366860e+002,8.180994e-003
7.386145e+002,8.066211e-003
7.405430e+002,7.311628e-003
7.424716e+002,6.838179e-003
7.444000e+002,6.989911e-003
7.463285e+002,7.206305e-003
7.482570e+002,7.094373e-003
7.501855e+002,7.626131e-003
7.521140e+002,8.124915e-003
7.540425e+002,8.183086e-003
7.559710e+002,8.434197e-003
7.578995e+002,8.597977e-003
7.598280e+002,8.496802e-003
7.617565e+002,8.164685e-003
7.636850e+002,8.014940e-003
7.656135e+002,8.653780e-003
7.675420e+002,9.206438e-003
7.694705e+002,9.282864e-003
7.713990e+002,9.067834e-003
7.733275e+002,8.787280e-003
7.752560e+002,8.155738e-003
7.771844e+002,7.618678e-003
7.791130e+002,7.688384e-003
7.810415e+002,7.601212e-003
7.829700e+002,7.640226e-003
7.848984e+002,7.776384e-003
7.868270e+002,7.544399e-003
7.887555e+002,7.287097e-003
7.906840e+002,6.890389e-003
7.926124e+002,6.506756e-003
7.945410e+002,6.466867e-003
7.964695e+002,6.352066e-003
7.983979e+002,6.035023e-003
8.003264e+002,5.618578e-003
8.022549e+002,5.354062e-003
8.041835e+002,5.534706e-003
8.061119e+002,5.959435e-003
8.080404e+002,6.718097e-003
8.099689e+002,7.102692e-003
8.118975e+002,7.204048e-003
8.138259e+002,7.542409e-003
8.157545e+002,7.868787e-003
8.176830e+002,7.580576e-003
8.196115e+002,7.025840e-003
8.215399e+002,7.110741e-003
8.234684e+002,7.443974e-003
8.253970e+002,7.064028e-003
8.273254e+002,6.571742e-003
8.292539e+002,6.502686e-003
8.311824e+002,6.216859e-003
8.331110e+002,6.103501e-003
8.350394e+002,6.173064e-003
8.369679e+002,6.563029e-003
8.388964e+002,6.509648e-003
8.408250e+002,6.253060e-003
8.427534e+002,6.332935e-003
8.446819e+002,6.563332e-003
8.466104e+002,6.477461e-003
8.485389e+002,6.263245e-003
8.504674e+002,5.884095e-003
8.523959e+002,5.845473e-003
8.543244e+002,5.758971e-003
8.562529e+002,5.762497e-003
8.581814e+002,5.865590e-003
8.601099e+002,6.264623e-003
8.620384e+002,6.289870e-003
8.639669e+002,5.721200e-003
8.658954e+002,5.708106e-003
8.678239e+002,6.002166e-003
8.697524e+002,5.742284e-003
8.716809e+002,5.429612e-003
8.736094e+002,5.256088e-003
8.755378e+002,5.512423e-003
8.774664e+002,5.871635e-003
8.793949e+002,5.922150e-003
8.813234e+002,5.788150e-003
8.832518e+002,5.677221e-003
8.851804e+002,5.537055e-003
8.871089e+002,5.425049e-003
8.890374e+002,5.736946e-003
8.909658e+002,5.741210e-003
8.928943e+002,5.956681e-003
8.948229e+002,6.263514e-003
8.967513e+002,6.337239e-003
8.986798e+002,6.089724e-003
9.006083e+002,5.969345e-003
9.025369e+002,6.105282e-003
9.044653e+002,6.223245e-003
9.063938e+002,5.922082e-003
9.083223e+002,5.745206e-003
9.102509e+002,5.772369e-003
9.121793e+002,5.449407e-003
9.141078e+002,4.902311e-003
9.160364e+002,4.913370e-003
9.179648e+002,4.958612e-003
9.198933e+002,4.543398e-003
9.218218e+002,4.178558e-003
9.237504e+002,4.083625e-003
9.256788e+002,3.787385e-003
9.276073e+002,3.479958e-003
9.295358e+002,3.627613e-003
9.314644e+002,3.691000e-003
9.333928e+002,3.600150e-003
9.353213e+002,3.555884e-003
9.372498e+002,3.430360e-003
9.391783e+002,3.331551e-003
9.411068e+002,3.539047e-003
9.430353e+002,3.830705e-003
9.449637e+002,3.666173e-003
9.468923e+002,3.319998e-003
9.488208e+002,3.491381e-003
9.507493e+002,3.866575e-003
9.526777e+002,3.989917e-003
9.546063e+002,3.973097e-003
9.565348e+002,4.184413e-003
9.584633e+002,4.410894e-003
9.603917e+002,4.227103e-003
9.623203e+002,4.031952e-003
9.642488e+002,4.054126e-003
9.661772e+002,4.393656e-003
9.681057e+002,4.631231e-003
9.700343e+002,4.329531e-003
9.719628e+002,4.140489e-003
9.738912e+002,3.974769e-003
9.758197e+002,3.623537e-003
9.777483e+002,3.442617e-003
9.796768e+002,3.516499e-003
9.816052e+002,3.500533e-003
9.835337e+002,3.201386e-003
9.854623e+002,3.047001e-003
9.873907e+002,2.829434e-003
9.893192e+002,2.583876e-003
9.912477e+002,2.454535e-003
9.931763e+002,2.304612e-003
9.951047e+002,2.334926e-003
9.970332e+002,2.453668e-003
9.989617e+002,2.210354e-003
1.000890e+003,2.142987e-003
1.002819e+003,2.315105e-003
1.004747e+003,2.178851e-003
1.006676e+003,2.110356e-003
1.008604e+003,2.193104e-003
1.010533e+003,2.399324e-003
1.012461e+003,2.602475e-003
1.014390e+003,2.627643e-003
1.016318e+003,2.566077e-003
1.018247e+003,2.957519e-003
1.020175e+003,3.193008e-003
1.022104e+003,3.334422e-003
1.024032e+003,3.863900e-003
1.025961e+003,4.302190e-003
1.027889e+003,4.402928e-003
1.029818e+003,4.618740e-003
1.031746e+003,4.987770e-003
1.033675e+003,5.085617e-003
1.035603e+003,5.643350e-003
1.037532e+003,6.154479e-003
1.039460e+003,6.437811e-003
1.041389e+003,6.749831e-003
1.043317e+003,6.898266e-003
1.045246e+003,6.863459e-003
1.047174e+003,7.106026e-003
1.049103e+003,7.196266e-003
1.051031e+003,7.050692e-003
1.052960e+003,7.425807e-003
1.054888e+003,7.684438e-003
1.056817e+003,7.355099e-003
1.058745e+003,7.326859e-003
1.060674e+003,7.301216e-003
1.062602e+003,7.431807e-003
1.064531e+003,7.567393e-003
1.066459e+003,7.427997e-003
1.068388e+003,7.239321e-003
1.070316e+003,7.164298e-003
1.072245e+003,7.284638e-003
1.074173e+003,7.387789e-003
1.076102e+003,7.324803e-003
1.078030e+003,7.280662e-003
1.079959e+003,7.360828e-003
1.081887e+003,7.513450e-003
1.083816e+003,7.564830e-003
1.085744e+003,7.750512e-003
1.087673e+003,8.028407e-003
1.089601e+003,7.960469e-003
1.091530e+003,8.050649e-003
1.093458e+003,8.487510e-003
1.095387e+003,8.580201e-003
1.097315e+003,8.651853e-003
1.099244e+003,8.807296e-003
1.101172e+003,8.916492e-003
1.103101e+003,9.069933e-003
1.105029e+003,8.965874e-003
1.106958e+003,8.795969e-003
1.108886e+003,8.878614e-003
1.110815e+003,9.115914e-003
1.112743e+003,9.160514e-003
1.114672e+003,8.946492e-003
1.116600e+003,9.023279e-003
1.118529e+003,9.002846e-003
1.120457e+003,8.837289e-003
1.122386e+003,9.126133e-003
1.124314e+003,9.187823e-003
1.126243e+003,8.815648e-003
1.128171e+003,8.819706e-003
1.130100e+003,8.934621e-003
1.132028e+003,8.677846e-003
1.133957e+003,8.354677e-003
1.135885e+003,8.072624e-003
1.137814e+003,7.887210e-003
1.139742e+003,7.618072e-003
1.141671e+003,7.248350e-003
1.143599e+003,6.982571e-003
1.145528e+003,6.792841e-003
1.147456e+003,6.481329e-003
1.149385e+003,6.107600e-003
1.151313e+003,5.729795e-003
1.153242e+003,5.482760e-003
1.155170e+003,5.214571e-003
1.157099e+003,5.019780e-003
1.159027e+003,4.906064e-003
1.160956e+003,4.851613e-003
1.162884e+003,4.705986e-003
1.164813e+003,4.622758e-003
1.166741e+003,4.592386e-003
1.168670e+003,4.645833e-003
1.170598e+003,4.744674e-003
1.172526e+003,4.679190e-003
1.174455e+003,4.684818e-003
1.176384e+003,4.657789e-003
1.178312e+003,4.524346e-003
1.180240e+003,4.420836e-003
1.182169e+003,4.326887e-003
1.184098e+003,4.384285e-003
1.186026e+003,4.365006e-003
1.187954e+003,4.052989e-003
1.189883e+003,3.648129e-003
1.191812e+003,3.523147e-003
1.193740e+003,3.509485e-003
1.195668e+003,3.288047e-003
1.197597e+003,3.095587e-003
1.199526e+003,3.109870e-003
1.201454e+003,3.053408e-003
1.203382e+003,2.936502e-003
1.205311e+003,2.855481e-003
1.207240e+003,2.749667e-003
1.209168e+003,2.779711e-003
1.211096e+003,2.834003e-003
1.213025e+003,2.899576e-003
1.214953e+003,2.882831e-003
1.216882e+003,2.670381e-003
1.218810e+003,2.600075e-003
1.220739e+003,2.726026e-003
1.222667e+003,2.960989e-003
1.224596e+003,3.138037e-003
1.226524e+003,3.245315e-003
1.228453e+003,3.356092e-003
1.230381e+003,3.660659e-003
1.232310e+003,3.796510e-003
1.234238e+003,3.846918e-003
1.236167e+003,4.046601e-003
1.238095e+003,4.051551e-003
1.240024e+003,4.097673e-003
1.241952e+003,4.291950e-003
1.243881e+003,4.325883e-003
1.245809e+003,4.353493e-003
1.247738e+003,4.371800e-003
1.249666e+003,4.319458e-003
1.251595e+003,4.383347e-003
1.253523e+003,4.601059e-003
1.255452e+003,4.747053e-003
1.257380e+003,4.780753e-003
1.259309e+003,4.690511e-003
1.261237e+003,4.812144e-003
1.263166e+003,5.192942e-003
1.265094e+003,5.438134e-003
1.267023e+003,5.584578e-003
1.268951e+003,5.944252e-003
1.270880e+003,6.188189e-003
1.272808e+003,6.435457e-003
1.274737e+003,6.738053e-003
1.276665e+003,7.048133e-003
1.278594e+003,7.260917e-003
1.280522e+003,7.378116e-003
1.282451e+003,7.539982e-003
1.284379e+003,7.765927e-003
1.286308e+003,8.158878e-003
1.288236e+003,8.466867e-003
1.290165e+003,8.675109e-003
1.292093e+003,8.897146e-003
1.294022e+003,8.947913e-003
1.295950e+003,9.122411e-003
1.297879e+003,9.342917e-003
1.299807e+003,9.406162e-003
1.301736e+003,9.286452e-003
1.303664e+003,9.295524e-003
1.305593e+003,9.321928e-003
1.307521e+003,9.196419e-003
1.309450e+003,8.866405e-003
1.311378e+003,8.518664e-003
1.313307e+003,8.355522e-003
1.315235e+003,8.209795e-003
1.317164e+003,8.011260e-003
1.319092e+003,7.730240e-003
1.321021e+003,7.326758e-003
1.322949e+003,7.037390e-003
1.324878e+003,6.958597e-003
1.326806e+003,6.920485e-003
1.328735e+003,6.998935e-003
1.330663e+003,6.986611e-003
1.332592e+003,6.926242e-003
1.334520e+003,6.938767e-003
1.336449e+003,6.918432e-003
1.338377e+003,6.930687e-003
1.340306e+003,6.944187e-003
1.342234e+003,7.133847e-003
1.344163e+003,7.324803e-003
1.346091e+003,7.493931e-003
1.348020e+003,7.645420e-003
1.349948e+003,7.551277e-003
1.351877e+003,7.424931e-003
1.353805e+003,7.472592e-003
1.355734e+003,7.344483e-003
1.357662e+003,7.042812e-003
1.359591e+003,6.875543e-003
1.361519e+003,6.613793e-003
1.363448e+003,6.341004e-003
1.365376e+003,6.143524e-003
1.367305e+003,6.004854e-003
1.369233e+003,5.973611e-003
1.371162e+003,5.821999e-003
1.373090e+003,5.679638e-003
1.375019e+003,5.784222e-003
1.376947e+003,5.984294e-003
1.378876e+003,6.179652e-003
1.380804e+003,6.376107e-003
1.382733e+003,6.333070e-003
1.384661e+003,6.153371e-003
1.386590e+003,6.015873e-003
1.388518e+003,5.986310e-003
1.390447e+003,5.948686e-003
1.392375e+003,5.713042e-003
1.394304e+003,5.502893e-003
1.396232e+003,5.521685e-003
1.398161e+003,5.379490e-003
1.400089e+003,5.247435e-003
1.402018e+003,5.190996e-003
1.403946e+003,5.038551e-003
1.405875e+003,4.910923e-003
1.407803e+003,4.792613e-003
1.409732e+003,4.470345e-003
1.411660e+003,4.265147e-003
1.413589e+003,4.302959e-003
1.415517e+003,4.351217e-003
1.417446e+003,4.290779e-003
1.419374e+003,4.495855e-003
1.421303e+003,5.241164e-003
1.423231e+003,5.698035e-003
1.425160e+003,6.160327e-003
1.427088e+003,6.722539e-003
1.429017e+003,7.149611e-003
1.430945e+003,7.483413e-003
1.432874e+003,7.837445e-003
1.434802e+003,8.132848e-003
1.436731e+003,8.330695e-003
1.438659e+003,8.864038e-003
1.440588e+003,9.334827e-003
1.442516e+003,9.715071e-003
1.444445e+003,1.010847e-002
1.446373e+003,1.056801e-002
1.448302e+003,1.096490e-002
1.450230e+003,1.136375e-002
1.452159e+003,1.184765e-002
1.454087e+003,1.222870e-002
1.456016e+003,1.209077e-002
1.457944e+003,1.225477e-002
1.459873e+003,1.271192e-002
1.461801e+003,1.279699e-002
1.463730e+003,1.258632e-002
1.465658e+003,1.258086e-002
1.467587e+003,1.245007e-002
1.469515e+003,1.196796e-002
1.471444e+003,1.140062e-002
1.473372e+003,1.097720e-002
1.475301e+003,1.080780e-002
1.477229e+003,1.045586e-002
1.479158e+003,9.997481e-003
1.481086e+003,9.363197e-003
1.483015e+003,8.843275e-003
1.484943e+003,8.302798e-003
1.486872e+003,7.803607e-003
1.488800e+003,7.391867e-003
1.490729e+003,7.015232e-003
1.492657e+003,6.703796e-003
1.494586e+003,6.426277e-003
1.496514e+003,6.132602e-003
1.498443e+003,5.931152e-003
1.500371e+003,5.710121e-003
1.502300e+003,5.606662e-003
1.504228e+003,5.218628e-003
1.506157e+003,4.695636e-003
1.508085e+003,4.833085e-003
1.510014e+003,5.006741e-003
1.511942e+003,4.987368e-003
1.513871e+003,4.922317e-003
1.515799e+003,4.748728e-003
1.517728e+003,4.780720e-003
1.519656e+003,4.725949e-003
1.521585e+003,4.686727e-003
1.523513e+003,5.068989e-003
1.525442e+003,5.300360e-003
1.527370e+003,5.449038e-003
1.529299e+003,5.591458e-003
1.531227e+003,5.662249e-003
1.533156e+003,5.805981e-003
1.535084e+003,6.319017e-003
1.537013e+003,6.501139e-003
1.538941e+003,6.239850e-003
1.540870e+003,6.356807e-003
1.542798e+003,6.761273e-003
1.544727e+003,7.248990e-003
1.546655e+003,7.565471e-003
1.548584e+003,7.690610e-003
1.550512e+003,8.017775e-003
1.552441e+003,8.212158e-003
1.554369e+003,8.210639e-003
1.556298e+003,8.162693e-003
1.558226e+003,7.863153e-003
1.560155e+003,8.399975e-003
1.562083e+003,9.290074e-003
1.564012e+003,9.688033e-003
1.565940e+003,9.965340e-003
1.567869e+003,1.001172e-002
1.569797e+003,9.989208e-003
1.571726e+003,1.023509e-002
1.573654e+003,1.029263e-002
1.575583e+003,1.010314e-002
1.577511e+003,1.005048e-002
1.579440e+003,1.005143e-002
1.581368e+003,1.000955e-002
1.583297e+003,9.860930e-003
1.585225e+003,9.756207e-003
1.587154e+003,9.674989e-003
1.589082e+003,9.449505e-003
1.591010e+003,9.189076e-003
1.592939e+003,8.931847e-003
1.594868e+003,8.756546e-003
1.596796e+003,8.648878e-003
1.598724e+003,8.418656e-003
1.600653e+003,8.085351e-003
1.602582e+003,7.892507e-003
1.604510e+003,7.682415e-003
1.606438e+003,7.387384e-003
1.608367e+003,7.089826e-003
1.610296e+003,6.945197e-003
1.612224e+003,6.712444e-003
1.614152e+003,6.389624e-003
1.616081e+003,5.973712e-003
1.618010e+003,6.038450e-003
1.619938e+003,5.984394e-003
1.621866e+003,5.726370e-003
1.623795e+003,5.601594e-003
1.625724e+003,5.667553e-003
1.627652e+003,5.602366e-003
1.629580e+003,5.539404e-003
1.631509e+003,5.395022e-003
1.633438e+003,5.131246e-003
1.635366e+003,4.773081e-003
1.637294e+003,4.691449e-003
1.639223e+003,4.678186e-003
1.641151e+003,4.494215e-003
1.643080e+003,4.071819e-003
1.645008e+003,3.540049e-003
1.646937e+003,3.286578e-003
1.648865e+003,3.209397e-003
1.650794e+003,2.783646e-003
1.652722e+003,2.236198e-003
1.654651e+003,2.420281e-003
1.656579e+003,2.663980e-003
1.658508e+003,2.588409e-003
1.660436e+003,2.504920e-003
1.662365e+003,2.416483e-003
1.664293e+003,2.397058e-003
1.666222e+003,2.365241e-003
1.668150e+003,2.041940e-003
1.670079e+003,1.734348e-003
1.672007e+003,1.748619e-003
1.673936e+003,1.539150e-003
1.675864e+003,1.313828e-003
1.677793e+003,1.205796e-003
1.679721e+003,1.043816e-003
1.681650e+003,7.175468e-004
1.683578e+003,2.052476e-004
1.685507e+003,1.015677e-004
1.687435e+003,7.266903e-005
1.689364e+003,-1.129393e-004
1.691292e+003,-2.242595e-004
1.693221e+003,-4.315221e-004
1.695149e+003,-7.478206e-004
1.697078e+003,-6.378255e-004
1.699006e+003,-7.719000e-004
1.700935e+003,-8.226013e-004
1.702863e+003,-4.965609e-004
1.704792e+003,-5.123475e-004
1.706720e+003,-4.646220e-004
1.708649e+003,-4.000087e-004
1.710577e+003,-3.687247e-004
1.712506e+003,-4.261266e-004
1.714434e+003,-6.094042e-004
1.716363e+003,-8.329856e-004
1.718291e+003,-8.014683e-004
1.720220e+003,-5.252213e-004
1.722148e+003,-5.325019e-004
1.724077e+003,-5.525891e-004
1.726005e+003,-5.583140e-004
1.727934e+003,-7.108720e-004
1.729862e+003,-7.490113e-004
1.731791e+003,-8.709489e-004
1.733719e+003,-1.255224e-003
1.735648e+003,-1.216996e-003
1.737576e+003,-1.095255e-003
1.739505e+003,-1.126355e-003
1.741433e+003,-9.290780e-004
1.743362e+003,-9.012048e-004
1.745290e+003,-8.258423e-004
1.747219e+003,-7.933984e-004
1.749147e+003,-8.770003e-004
1.751076e+003,-9.457746e-004
1.753004e+003,-7.934976e-004
1.754933e+003,-7.182157e-004
1.756861e+003,-6.402739e-004
1.758790e+003,-5.859776e-004
1.760718e+003,-7.277754e-004
1.762647e+003,-6.759383e-004
1.764575e+003,-5.772419e-004
1.766504e+003,-6.481150e-004
1.768432e+003,-7.126252e-004
1.770361e+003,-7.861552e-004
1.772289e+003,-9.108928e-004
1.774218e+003,-7.823847e-004
1.776146e+003,-6.537063e-004
1.778075e+003,-6.639292e-004
1.780003e+003,-7.631350e-004
1.781932e+003,-8.073221e-004
1.783860e+003,-7.255592e-004
1.785789e+003,-6.400422e-004
1.787717e+003,-6.399099e-004
1.789646e+003,-7.598605e-004
1.791574e+003,-9.231927e-004
1.793503e+003,-9.026927e-004
1.795431e+003,-7.663764e-004
1.797360e+003,-7.193073e-004
1.799288e+003,-6.825547e-004
1.801217e+003,-7.464644e-004
1.803145e+003,-6.838780e-004
1.805074e+003,-5.887240e-004
1.807002e+003,-5.189003e-004
1.808931e+003,-6.258485e-004
1.810859e+003,-5.998418e-004
1.812788e+003,-4.361562e-004
1.814716e+003,-4.032197e-004
1.816645e+003,-4.238095e-004
1.818573e+003,-4.495618e-004
1.820502e+003,-5.005656e-004
1.822430e+003,-5.184370e-004
1.824359e+003,-5.093028e-004
1.826287e+003,-5.084754e-004
1.828216e+003,-6.729939e-004
1.830144e+003,-6.771293e-004
1.832073e+003,-4.849440e-004
1.834001e+003,-4.393339e-004
1.835930e+003,-4.839511e-004
1.837858e+003,-5.153922e-004
1.839787e+003,-5.770434e-004
1.841715e+003,-6.988308e-004
1.843644e+003,-8.371855e-004
1.845572e+003,-8.045110e-004
1.847501e+003,-7.187780e-004
1.849429e+003,-6.182385e-004
1.851358e+003,-5.371681e-004
1.853286e+003,-5.823708e-004
1.855215e+003,-5.614577e-004
1.857143e+003,-5.167492e-004
1.859072e+003,-5.540783e-004
1.861000e+003,-5.540783e-004
1.862929e+003,-4.613121e-004
1.864857e+003,-4.472779e-004
1.866786e+003,-5.901137e-004
1.868714e+003,-6.794450e-004
1.870643e+003,-5.314098e-004
1.872571e+003,-4.112306e-004
1.874500e+003,-3.812716e-004
1.876428e+003,-3.823310e-004
1.878357e+003,-3.744189e-004
1.880285e+003,-3.607461e-004
1.882214e+003,-4.190097e-004
1.884142e+003,-4.801780e-004
1.886071e+003,-4.372485e-004
1.887999e+003,-4.383409e-004
1.889928e+003,-4.502900e-004
1.891856e+003,-4.342364e-004
1.893785e+003,-3.530984e-004
1.895713e+003,-3.483972e-004
1.897642e+003,-4.237432e-004
1.899570e+003,-4.170235e-004
1.901499e+003,-3.477019e-004
1.903427e+003,-3.215793e-004
1.905356e+003,-4.479068e-004
1.907284e+003,-4.807407e-004
1.909213e+003,-3.315783e-004
1.911141e+003,-3.183346e-004
1.913070e+003,-4.060004e-004
1.914998e+003,-5.355134e-004
1.916927e+003,-6.081138e-004
1.918855e+003,-6.019925e-004
1.920784e+003,-5.484857e-004
1.922712e+003,-5.625497e-004
1.924641e+003,-5.627482e-004
1.926569e+003,-5.172124e-004
1.928498e+003,-4.807076e-004
1.930426e+003,-4.666741e-004
1.932355e+003,-4.631656e-004
1.934283e+003,-4.316545e-004
1.936212e+003,-4.235446e-004
1.938140e+003,-3.918982e-004
1.940069e+003,-4.288740e-004
1.941997e+003,-5.330645e-004
1.943926e+003,-4.785231e-004
1.945854e+003,-4.435045e-004
1.947783e+003,-4.964616e-004
1.949711e+003,-5.253868e-004
1.951640e+003,-4.783246e-004
1.953568e+003,-4.807076e-004
1.955497e+003,-5.058940e-004
1.957425e+003,-5.144656e-004
1.959354e+003,-5.790950e-004
1.961282e+003,-5.593068e-004
1.963211e+003,-4.777950e-004
1.965139e+003,-4.936816e-004
1.967068e+003,-5.129101e-004
1.968996e+003,-4.902726e-004
1.970925e+003,-4.811710e-004
1.972853e+003,-5.482872e-004
1.974782e+003,-5.493130e-004
1.976710e+003,-5.213824e-004
1.978639e+003,-5.636748e-004
1.980567e+003,-5.697966e-004
1.982496e+003,-5.578838e-004
1.984424e+003,-5.525891e-004
1.986353e+003,-5.384587e-004
1.988281e+003,-5.956396e-004
1.990210e+003,-5.930586e-004
1.992138e+003,-4.932182e-004
1.994067e+003,-4.487343e-004
1.995995e+003,-4.376789e-004
1.997924e+003,-4.317869e-004
1.999852e+003,-4.368844e-004
2.001781e+003,-4.648867e-004
2.003709e+003,-5.194298e-004
2.005638e+003,-4.480723e-004
2.007566e+003,-3.952417e-004
2.009495e+003,-4.402938e-004
2.011423e+003,-4.425777e-004
2.013352e+003,-3.897795e-004
2.015280e+003,-3.967645e-004
2.017208e+003,-4.045107e-004
2.019137e+003,-4.068279e-004
2.021066e+003,-3.999755e-004
2.022994e+003,-3.314789e-004
2.024922e+003,-3.654472e-004
2.026851e+003,-4.394663e-004
2.028780e+003,-4.062652e-004
2.030708e+003,-3.499863e-004
2.032636e+003,-2.781706e-004
2.034565e+003,-2.820116e-004
2.036494e+003,-3.404844e-004
2.038422e+003,-2.995940e-004
2.040350e+003,-2.875083e-004
2.042279e+003,-2.878063e-004
2.044208e+003,-3.465101e-004
2.046136e+003,-3.695854e-004
2.048064e+003,-2.477057e-004
2.049993e+003,-1.812054e-004
2.051921e+003,-2.827401e-004
2.053850e+003,-4.051397e-004
2.055778e+003,-4.334420e-004
2.057707e+003,-2.987662e-004
2.059635e+003,-1.364577e-004
2.061564e+003,-1.744488e-004
2.063492e+003,-2.614814e-004
2.065421e+003,-2.358503e-004
2.067349e+003,-2.052831e-004
2.069278e+003,-2.253193e-004
2.071206e+003,-2.020044e-004
2.073135e+003,-1.259573e-004
2.075063e+003,-7.149737e-005
2.076992e+003,-1.159537e-004
2.078920e+003,-9.624372e-005
2.080849e+003,-5.354131e-005
2.082777e+003,-3.468995e-005
2.084706e+003,1.182901e-005
2.086634e+003,-3.137680e-005
2.088563e+003,-6.195623e-005
2.090491e+003,-1.951551e-005
2.092420e+003,2.084181e-005
2.094348e+003,-2.190105e-005
2.096277e+003,3.204180e-005
2.098205e+003,1.059424e-004
2.100134e+003,3.240630e-005
2.102062e+003,6.630627e-005
2.103991e+003,1.930487e-004
2.105919e+003,2.224858e-004
2.107848e+003,2.222869e-004
2.109776e+003,1.944741e-004
2.111705e+003,1.876123e-004
2.113633e+003,2.501678e-004
2.115562e+003,2.839190e-004
2.117490e+003,3.521256e-004
2.119419e+003,4.144063e-004
2.121347e+003,3.388283e-004
2.123276e+003,3.236745e-004
2.125204e+003,2.283536e-004
2.127133e+003,1.447205e-004
2.129061e+003,2.571631e-004
2.130990e+003,3.441008e-004
2.132918e+003,3.670483e-004
2.134847e+003,4.039592e-004
2.136775e+003,3.744103e-004
2.138704e+003,3.740455e-004
2.140632e+003,4.020025e-004
2.142561e+003,3.554749e-004
2.144489e+003,3.220497e-004
2.146418e+003,3.929154e-004
2.148346e+003,4.258154e-004
2.150275e+003,4.441569e-004
2.152203e+003,5.141138e-004
2.154132e+003,5.409517e-004
2.156060e+003,5.550183e-004
2.157989e+003,4.551356e-004
2.159917e+003,3.815072e-004
2.161846e+003,4.525816e-004
2.163774e+003,5.655022e-004
2.165703e+003,6.383323e-004
2.167631e+003,6.519374e-004
2.169560e+003,6.767928e-004
2.171488e+003,7.455591e-004
2.173417e+003,7.130663e-004
2.175345e+003,6.129814e-004
2.177274e+003,5.592981e-004
2.179202e+003,5.971213e-004
2.181131e+003,5.862716e-004
2.183059e+003,5.839491e-004
2.184988e+003,6.050844e-004
2.186916e+003,6.428784e-004
2.188845e+003,6.170294e-004
2.190773e+003,5.763845e-004
2.192702e+003,6.499464e-004
2.194630e+003,6.719477e-004
2.196559e+003,5.384636e-004
2.198487e+003,4.517524e-004
2.200416e+003,4.649205e-004
2.202344e+003,4.985557e-004
2.204273e+003,5.165354e-004
2.206201e+003,5.245966e-004
2.208130e+003,5.379991e-004
2.210058e+003,4.963995e-004
2.211987e+003,4.636601e-004
2.213915e+003,5.043941e-004
2.215844e+003,4.682375e-004
2.217772e+003,4.826998e-004
2.219701e+003,5.588668e-004
2.221629e+003,4.506579e-004
2.223558e+003,3.975584e-004
2.225486e+003,4.329795e-004
2.227415e+003,4.805768e-004
2.229343e+003,5.093368e-004
2.231272e+003,5.332883e-004
2.233200e+003,4.837944e-004
2.235129e+003,4.606417e-004
2.237057e+003,4.789183e-004
2.238986e+003,4.963995e-004
2.240914e+003,4.253179e-004
2.242843e+003,4.727154e-004
2.244771e+003,5.690522e-004
2.246700e+003,5.165022e-004
2.248628e+003,4.621011e-004
2.250557e+003,4.232616e-004
2.252485e+003,3.581609e-004
2.254414e+003,3.429733e-004
2.256342e+003,3.693365e-004
2.258271e+003,3.805786e-004
2.260199e+003,2.876987e-004
2.262128e+003,2.779178e-004
2.264056e+003,3.452614e-004
2.265985e+003,3.294110e-004
2.267913e+003,1.965293e-004
2.269842e+003,1.802534e-004
2.271770e+003,3.388615e-004
2.273699e+003,3.317653e-004
2.275627e+003,2.731435e-004
2.277556e+003,1.716019e-004
2.279484e+003,7.058124e-005
2.281413e+003,1.168132e-004
2.283341e+003,1.150898e-004
2.285270e+003,1.007060e-004
2.287198e+003,1.542001e-004
2.289127e+003,2.200989e-004
2.291055e+003,2.870024e-004
2.292984e+003,2.867704e-004
2.294912e+003,1.943415e-004
2.296841e+003,2.048166e-004
2.298769e+003,1.622546e-004
2.300698e+003,1.665968e-004
2.302626e+003,2.798077e-004
2.304555e+003,2.796751e-004
2.306483e+003,2.673083e-004
2.308412e+003,2.956231e-004
2.310340e+003,2.560359e-004
2.312269e+003,2.332931e-004
2.314197e+003,1.284797e-004
2.316125e+003,7.923072e-005
2.318054e+003,1.232604e-005
2.319983e+003,-9.448800e-005
2.321911e+003,-1.736539e-004
2.323840e+003,-1.805430e-004
2.325768e+003,-2.204842e-004
2.327697e+003,-2.746606e-004
2.329625e+003,-3.358161e-004
2.331553e+003,-4.423129e-004
2.333482e+003,-4.110651e-004
2.335411e+003,-3.335979e-004
2.337339e+003,-3.965328e-004
2.339268e+003,-4.021273e-004
2.341196e+003,-3.256186e-004
2.343125e+003,-3.711414e-004
2.345053e+003,-3.524694e-004
2.346981e+003,-1.072748e-004
2.348910e+003,2.243232e-005
2.350839e+003,-9.047963e-005
2.352767e+003,-3.066467e-004
2.354696e+003,-5.077804e-004
2.356624e+003,-5.718482e-004
2.358552e+003,-6.242272e-004
2.360481e+003,-6.610840e-004
2.362409e+003,-6.353111e-004
2.364338e+003,-5.740322e-004
2.366267e+003,-4.736247e-004
2.368195e+003,-4.613121e-004
2.370124e+003,-2.742964e-004
2.372052e+003,-4.042165e-005
2.373980e+003,8.416127e-006
2.375909e+003,4.692033e-005
2.377838e+003,2.130047e-004
2.379766e+003,3.530873e-004
2.381695e+003,5.201845e-004
2.383623e+003,6.873128e-004
2.385552e+003,7.061964e-004
2.387480e+003,6.934524e-004
2.389408e+003,8.439815e-004
2.391337e+003,9.611547e-004
2.393266e+003,8.849171e-004
2.395194e+003,8.650630e-004
2.397123e+003,8.925535e-004
2.399051e+003,8.634694e-004
2.400979e+003,7.892406e-004
2.402908e+003,8.255899e-004
2.404836e+003,8.710391e-004
2.406765e+003,8.973347e-004
2.408694e+003,8.514844e-004
2.410622e+003,8.815970e-004
2.412551e+003,9.691910e-004
2.414479e+003,9.910425e-004
2.416407e+003,9.757663e-004
2.418336e+003,1.052717e-003
2.420264e+003,1.068295e-003
2.422193e+003,1.094370e-003
2.424122e+003,1.181509e-003
2.426050e+003,1.141243e-003
2.427979e+003,1.109784e-003
2.429907e+003,1.196659e-003
2.431835e+003,1.289568e-003
2.433764e+003,1.349125e-003
2.435692e+003,1.336628e-003
2.437621e+003,1.345136e-003
2.439550e+003,1.465337e-003
2.441478e+003,1.453535e-003
2.443406e+003,1.454566e-003
2.445335e+003,1.513779e-003
2.447263e+003,1.487247e-003
2.449192e+003,1.444725e-003
2.451121e+003,1.517104e-003
2.453049e+003,1.538285e-003
2.454978e+003,1.531535e-003
2.456906e+003,1.549890e-003
2.458834e+003,1.594617e-003
2.460763e+003,1.709831e-003
2.462691e+003,1.752744e-003
2.464620e+003,1.700550e-003
2.466549e+003,1.749917e-003
2.468477e+003,1.780890e-003
2.470406e+003,1.786180e-003
2.472334e+003,1.647131e-003
2.474262e+003,1.618795e-003
2.476191e+003,1.728726e-003
2.478119e+003,1.799755e-003
2.480048e+003,1.814028e-003
2.481977e+003,1.796294e-003
2.483905e+003,1.795895e-003
2.485833e+003,1.759232e-003
2.487762e+003,1.777497e-003
2.489690e+003,1.837320e-003
2.491619e+003,1.872659e-003
2.493547e+003,1.996035e-003
2.495476e+003,2.045502e-003
2.497405e+003,1.971936e-003
2.499333e+003,2.002293e-003
2.501261e+003,2.111122e-003
2.503190e+003,2.073034e-003
2.505118e+003,1.911828e-003
2.507047e+003,1.844441e-003
2.508975e+003,2.017040e-003
2.510904e+003,2.241094e-003
2.512833e+003,2.304279e-003
2.514761e+003,2.245424e-003
2.516689e+003,2.175387e-003
2.518618e+003,2.162167e-003
2.520546e+003,2.169693e-003
2.522475e+003,2.116583e-003
2.524403e+003,2.124840e-003
2.526332e+003,2.202029e-003
2.528260e+003,2.279164e-003
2.530189e+003,2.310142e-003
2.532117e+003,2.384931e-003
2.534046e+003,2.364775e-003
2.535974e+003,2.398491e-003
2.537903e+003,2.384731e-003
2.539831e+003,2.285293e-003
2.541760e+003,2.255416e-003
2.543688e+003,2.212286e-003
2.545617e+003,2.187442e-003
2.547545e+003,2.325732e-003
2.549474e+003,2.414084e-003
2.551402e+003,2.393960e-003
2.553331e+003,2.387130e-003
2.555259e+003,2.297018e-003
2.557188e+003,2.258846e-003
2.559116e+003,2.268705e-003
2.561045e+003,2.304213e-003
2.562973e+003,2.437974e-003
2.564902e+003,2.419448e-003
2.566830e+003,2.330462e-003
2.568759e+003,2.401690e-003
2.570687e+003,2.483859e-003
2.572616e+003,2.539380e-003
2.574544e+003,2.616142e-003
2.576473e+003,2.504420e-003
2.578401e+003,2.366840e-003
2.580330e+003,2.403056e-003
2.582258e+003,2.564077e-003
2.584187e+003,2.631776e-003
2.586115e+003,2.601709e-003
2.588044e+003,2.613042e-003
2.589972e+003,2.635510e-003
2.591901e+003,2.602075e-003
2.593829e+003,2.673148e-003
2.595758e+003,2.706888e-003
2.597686e+003,2.676448e-003
2.599615e+003,2.795117e-003
2.601543e+003,2.859684e-003
2.603472e+003,2.734395e-003
2.605400e+003,2.698586e-003
2.607329e+003,2.750267e-003
2.609257e+003,2.757436e-003
2.611186e+003,2.752367e-003
2.613114e+003,2.682182e-003
2.615043e+003,2.666680e-003
2.616971e+003,2.768373e-003
2.618900e+003,2.818062e-003
2.620828e+003,2.869323e-003
2.622757e+003,2.943341e-003
2.624685e+003,3.053508e-003
2.626614e+003,3.029517e-003
2.628542e+003,2.926261e-003
2.630471e+003,2.883265e-003
2.632399e+003,2.951848e-003
2.634328e+003,2.969396e-003
2.636256e+003,2.983441e-003
2.638185e+003,2.984075e-003
2.640113e+003,3.070993e-003
2.642042e+003,3.115977e-003
2.643970e+003,3.155191e-003
2.645899e+003,3.272155e-003
2.647827e+003,3.344072e-003
2.649756e+003,3.382172e-003
2.651684e+003,3.374758e-003
2.653613e+003,3.412293e-003
2.655541e+003,3.521944e-003
2.657470e+003,3.557320e-003
2.659398e+003,3.483164e-003
2.661327e+003,3.489611e-003
2.663255e+003,3.539983e-003
2.665184e+003,3.516299e-003
2.667112e+003,3.558924e-003
2.669041e+003,3.589893e-003
2.670969e+003,3.545227e-003
2.672898e+003,3.572253e-003
2.674826e+003,3.696080e-003
2.676755e+003,3.850863e-003
2.678683e+003,3.820009e-003
2.680612e+003,3.718036e-003
2.682540e+003,3.806070e-003
2.684469e+003,3.815997e-003
2.686397e+003,3.823819e-003
2.688326e+003,3.848489e-003
2.690254e+003,3.858485e-003
2.692183e+003,3.950025e-003
2.694111e+003,4.049544e-003
2.696040e+003,4.125035e-003
2.697968e+003,4.177521e-003
2.699897e+003,4.226602e-003
2.701825e+003,4.207732e-003
2.703754e+003,4.277159e-003
2.705682e+003,4.391246e-003
2.707611e+003,4.459264e-003
2.709539e+003,4.545675e-003
2.711468e+003,4.579226e-003
2.713396e+003,4.567506e-003
2.715325e+003,4.601996e-003
2.717253e+003,4.653268e-003
2.719182e+003,4.646771e-003
2.721110e+003,4.803869e-003
2.723039e+003,4.915313e-003
2.724967e+003,4.950468e-003
2.726896e+003,5.080353e-003
2.728824e+003,5.148110e-003
2.730753e+003,5.217823e-003
2.732681e+003,5.293383e-003
2.734610e+003,5.289023e-003
2.736538e+003,5.367010e-003
2.738467e+003,5.498397e-003
2.740395e+003,5.605924e-003
2.742324e+003,5.659161e-003
2.744252e+003,5.728553e-003
2.746181e+003,5.771328e-003
2.748109e+003,5.942304e-003
2.750038e+003,6.002032e-003
2.751966e+003,5.898638e-003
2.753895e+003,5.992189e-003
2.755823e+003,6.116808e-003
2.757752e+003,6.243715e-003
2.759680e+003,6.496901e-003
2.761609e+003,6.722606e-003
2.763537e+003,7.001090e-003
2.765466e+003,7.160323e-003
2.767394e+003,7.343236e-003
2.769323e+003,7.678907e-003
2.771251e+003,8.096389e-003
2.773180e+003,8.466968e-003
2.775108e+003,8.881048e-003
2.777037e+003,9.303106e-003
2.778965e+003,9.763222e-003
2.780894e+003,1.043651e-002
2.782822e+003,1.108113e-002
2.784750e+003,1.160619e-002
2.786679e+003,1.231609e-002
2.788608e+003,1.311337e-002
2.790536e+003,1.377980e-002
2.792465e+003,1.444897e-002
2.794393e+003,1.523096e-002
2.796322e+003,1.590722e-002
2.798250e+003,1.655410e-002
2.800178e+003,1.729703e-002
2.802107e+003,1.793891e-002
2.804036e+003,1.844661e-002
2.805964e+003,1.884914e-002
2.807893e+003,1.907665e-002
2.809821e+003,1.919386e-002
2.811750e+003,1.941102e-002
2.813678e+003,1.947772e-002
2.815606e+003,1.940482e-002
2.817535e+003,1.918264e-002
2.819464e+003,1.890534e-002
2.821392e+003,1.871836e-002
2.823321e+003,1.843527e-002
2.825249e+003,1.795666e-002
2.827177e+003,1.747944e-002
2.829106e+003,1.698327e-002
2.831034e+003,1.641661e-002
2.832963e+003,1.599219e-002
2.834892e+003,1.547430e-002
2.836820e+003,1.478871e-002
2.838749e+003,1.420850e-002
2.840677e+003,1.360144e-002
2.842605e+003,1.284845e-002
2.844534e+003,1.205285e-002
2.846462e+003,1.134542e-002
2.848391e+003,1.065398e-002
2.850320e+003,1.021667e-002
2.852248e+003,9.952151e-003
2.854177e+003,9.706634e-003
2.856105e+003,9.546702e-003
2.858033e+003,9.484723e-003
2.859962e+003,9.541215e-003
2.861890e+003,9.602965e-003
2.863819e+003,9.613568e-003
2.865748e+003,9.690337e-003
2.867676e+003,9.810159e-003
2.869604e+003,9.786266e-003
2.871533e+003,9.796975e-003
2.873461e+003,9.865472e-003
2.875390e+003,1.000416e-002
2.877319e+003,1.024065e-002
2.879247e+003,1.050375e-002
2.881176e+003,1.055308e-002
2.883104e+003,1.056065e-002
2.885032e+003,1.047456e-002
2.886961e+003,1.043043e-002
2.888889e+003,1.035964e-002
2.890818e+003,1.022430e-002
2.892747e+003,1.007571e-002
2.894675e+003,9.972256e-003
2.896604e+003,9.955372e-003
2.898532e+003,9.907234e-003
2.900460e+003,9.797552e-003
2.902389e+003,9.699790e-003
2.904317e+003,9.518286e-003
2.906246e+003,9.435689e-003
2.908175e+003,9.467453e-003
2.910103e+003,9.285402e-003
2.912031e+003,8.986237e-003
2.913960e+003,8.767162e-003
2.915888e+003,8.652123e-003
2.917817e+003,8.736769e-003
2.919745e+003,8.896504e-003
2.921674e+003,8.981061e-003
2.923603e+003,9.088575e-003
2.925531e+003,9.410259e-003
2.927459e+003,9.780607e-003
2.929388e+003,1.006530e-002
2.931316e+003,1.044873e-002
2.933245e+003,1.076765e-002
2.935173e+003,1.098950e-002
2.937102e+003,1.117438e-002
2.939031e+003,1.124439e-002
2.940959e+003,1.138287e-002
2.942887e+003,1.140362e-002
2.944816e+003,1.129774e-002
2.946744e+003,1.111849e-002
2.948673e+003,1.078294e-002
2.950601e+003,1.041547e-002
2.952530e+003,1.004332e-002
2.954458e+003,9.476935e-003
2.956387e+003,8.838067e-003
2.958315e+003,8.317624e-003
2.960244e+003,7.808060e-003
2.962172e+003,7.284570e-003
2.964101e+003,6.827476e-003
2.966029e+003,6.324833e-003
2.967958e+003,5.807492e-003
2.969886e+003,5.337122e-003
2.971815e+003,4.825781e-003
2.973743e+003,4.448485e-003
2.975672e+003,4.231587e-003
2.977600e+003,4.015599e-003
2.979529e+003,3.820543e-003
2.981457e+003,3.515063e-003
2.983386e+003,3.205358e-003
2.985314e+003,2.927596e-003
2.987243e+003,2.749466e-003
2.989171e+003,2.640677e-003
2.991100e+003,2.597409e-003
2.993028e+003,2.423380e-003
2.994957e+003,2.229171e-003
2.996885e+003,2.109990e-003
2.998814e+003,2.100568e-003
3.000742e+003,2.051528e-003
3.002671e+003,1.951733e-003
3.004599e+003,1.953164e-003
3.006528e+003,1.908633e-003
3.008456e+003,1.702346e-003
3.010385e+003,1.606124e-003
3.012313e+003,1.731387e-003
3.014242e+003,1.715486e-003
3.016170e+003,1.593187e-003
3.018099e+003,1.519432e-003
3.020027e+003,1.656876e-003
3.021956e+003,1.687111e-003
3.023884e+003,1.500047e-003
3.025813e+003,1.380734e-003
3.027741e+003,1.277272e-003
3.029670e+003,1.358198e-003
3.031598e+003,1.441234e-003
3.033527e+003,1.401576e-003
3.035455e+003,1.359827e-003
3.037384e+003,1.239024e-003
3.039312e+003,1.127124e-003
3.041241e+003,1.013460e-003
3.043169e+003,9.474403e-004
3.045098e+003,1.013725e-003
3.047026e+003,1.077529e-003
3.048955e+003,1.014489e-003
3.050883e+003,9.685268e-004
3.052812e+003,9.266867e-004
3.054740e+003,9.197470e-004
3.056669e+003,9.049714e-004
3.058597e+003,8.182866e-004
3.060526e+003,7.721790e-004
3.062454e+003,7.378920e-004
3.064383e+003,7.095815e-004
3.066311e+003,7.439991e-004
3.068240e+003,6.936515e-004
3.070168e+003,5.124882e-004
3.072097e+003,4.109239e-004
3.074025e+003,4.896989e-004
3.075954e+003,5.137157e-004
3.077882e+003,5.423783e-004
3.079811e+003,4.575569e-004
3.081739e+003,3.136275e-004
3.083668e+003,3.513961e-004
3.085596e+003,3.819383e-004
3.087525e+003,2.674740e-004
3.089453e+003,2.811007e-004
3.091382e+003,2.512287e-004
3.093310e+003,1.995127e-004
3.095239e+003,1.847947e-004
3.097167e+003,1.546310e-004
3.099096e+003,5.885004e-005
3.101024e+003,3.790700e-005
3.102953e+003,2.150452e-005
3.104881e+003,-6.854891e-005
3.106810e+003,-9.743628e-005
3.108738e+003,2.601100e-005
3.110667e+003,-2.836181e-005
3.112595e+003,-1.624258e-004
3.114524e+003,-1.308597e-004
3.116452e+003,-1.614984e-004
3.118381e+003,-1.972684e-004
3.120309e+003,-2.143906e-004
3.122238e+003,-3.542241e-004
3.124166e+003,-4.344019e-004
3.126095e+003,-3.485958e-004
3.128023e+003,-2.554546e-004
3.129952e+003,-2.101846e-004
3.131880e+003,-2.452883e-004
3.133809e+003,-2.937995e-004
3.135737e+003,-3.296580e-004
3.137666e+003,-2.558188e-004
3.139594e+003,-2.121717e-004
3.141523e+003,-2.156822e-004
3.143451e+003,-2.657531e-004
3.145380e+003,-3.601833e-004
3.147308e+003,-3.710421e-004
3.149237e+003,-4.538648e-004
3.151165e+003,-5.348846e-004
3.153094e+003,-5.911395e-004
3.155022e+003,-4.882868e-004
3.156951e+003,-4.299001e-004
3.158879e+003,-3.632291e-004
3.160808e+003,-3.279032e-004
3.162736e+003,-4.495618e-004
3.164665e+003,-4.670381e-004
3.166593e+003,-5.446470e-004
3.168522e+003,-6.118858e-004
3.170450e+003,-5.071185e-004
3.172379e+003,-3.573361e-004
3.174307e+003,-3.060176e-004
3.176236e+003,-2.941306e-004
3.178164e+003,-3.596205e-004
3.180093e+003,-3.011171e-004
3.182021e+003,-3.401533e-004
3.183950e+003,-4.030211e-004
3.185878e+003,-4.517795e-004
3.187807e+003,-4.205324e-004
3.189735e+003,-3.449871e-004
3.191664e+003,-2.894619e-004
3.193592e+003,-4.181159e-004
3.195521e+003,-5.334285e-004
3.197449e+003,-3.665066e-004
3.199378e+003,-2.890977e-004
3.201306e+003,-2.590309e-004
3.203235e+003,-3.123748e-004
3.205163e+003,-2.386983e-004
3.207092e+003,-2.507192e-004
3.209020e+003,-2.649915e-004
3.210948e+003,-2.665809e-004
3.212877e+003,-2.323400e-004
3.214806e+003,-1.576232e-004
3.216734e+003,-1.763036e-004
3.218663e+003,-2.553221e-004
3.220591e+003,-2.003153e-004
3.222520e+003,-5.745062e-005
3.224448e+003,6.693127e-006
3.226376e+003,1.532720e-004
3.228305e+003,2.999003e-004
3.230234e+003,3.335891e-004
3.232162e+003,3.527225e-004
3.234091e+003,3.216850e-004
3.236019e+003,3.073607e-004
3.237948e+003,3.396241e-004
3.239876e+003,4.504920e-004
3.241804e+003,6.253580e-004
3.243733e+003,4.984231e-004
3.245662e+003,4.958356e-004
3.247590e+003,6.562182e-004
3.249519e+003,7.972405e-004
3.251447e+003,7.436008e-004
3.253375e+003,7.438995e-004
3.255304e+003,7.392528e-004
3.257232e+003,8.852824e-004
3.259161e+003,1.044414e-003
3.261090e+003,9.296420e-004
3.263018e+003,8.097551e-004
3.264947e+003,7.674324e-004
3.266875e+003,8.606142e-004
3.268803e+003,8.977996e-004
3.270732e+003,9.168914e-004
3.272660e+003,1.099353e-003
3.274589e+003,1.222809e-003
3.276518e+003,1.210348e-003
3.278446e+003,1.137024e-003
3.280375e+003,1.033686e-003
3.282303e+003,1.014589e-003
3.284231e+003,1.016582e-003
3.286160e+003,1.043285e-003
3.288088e+003,1.123902e-003
3.290017e+003,1.037074e-003
3.291946e+003,9.272181e-004
3.293874e+003,8.445126e-004
3.295802e+003,8.918231e-004
3.297731e+003,9.005886e-004
3.299659e+003,8.387693e-004
3.301588e+003,8.457410e-004
3.303516e+003,7.649430e-004
3.305445e+003,6.319280e-004
3.307374e+003,5.624499e-004
3.309302e+003,3.913236e-004
3.311230e+003,2.392274e-004
3.313159e+003,1.059756e-004
3.315087e+003,5.596700e-005
3.317016e+003,-3.468995e-005
3.318944e+003,-1.966391e-004
3.320873e+003,-1.419230e-004
3.322802e+003,-9.753566e-005
3.324730e+003,-3.394250e-004
3.326658e+003,-4.575719e-004
3.328587e+003,-4.200689e-004
3.330515e+003,-3.854760e-004
3.332444e+003,-5.412385e-004
3.334372e+003,-6.989300e-004
3.336301e+003,-7.206305e-004
3.338229e+003,-6.996908e-004
3.340158e+003,-7.144777e-004
3.342086e+003,-7.987893e-004
3.344015e+003,-8.185335e-004
3.345943e+003,-9.339383e-004
3.347872e+003,-9.992325e-004
3.349800e+003,-9.443860e-004
3.351729e+003,-9.406169e-004
3.353657e+003,-1.018406e-003
3.355586e+003,-1.165151e-003
3.357514e+003,-1.292489e-003
3.359443e+003,-1.327770e-003
3.361371e+003,-1.315647e-003
3.363300e+003,-1.240752e-003
3.365229e+003,-1.259750e-003
3.367157e+003,-1.506441e-003
3.369085e+003,-1.734413e-003
3.371014e+003,-1.671770e-003
3.372942e+003,-1.615655e-003
3.374871e+003,-1.789852e-003
3.376799e+003,-1.816547e-003
3.378728e+003,-1.848782e-003
3.380656e+003,-2.026745e-003
3.382585e+003,-2.294095e-003
3.384513e+003,-2.437610e-003
3.386442e+003,-2.439884e-003
3.388370e+003,-2.327877e-003
3.390299e+003,-2.427528e-003
3.392227e+003,-2.580023e-003
3.394156e+003,-2.460113e-003
3.396084e+003,-2.452008e-003
3.398013e+003,-2.558943e-003
3.399941e+003,-2.652019e-003
3.401870e+003,-2.652612e-003
3.403798e+003,-2.649451e-003
3.405727e+003,-2.761407e-003
3.407655e+003,-2.788075e-003
3.409584e+003,-2.711656e-003
3.411512e+003,-2.738886e-003
3.413441e+003,-2.758641e-003
3.415369e+003,-2.658507e-003
3.417298e+003,-2.563554e-003
3.419226e+003,-2.632885e-003
3.421155e+003,-2.846343e-003
3.423083e+003,-2.884032e-003
3.425012e+003,-2.884756e-003
3.426940e+003,-2.955352e-003
3.428869e+003,-2.923890e-003
3.430797e+003,-2.775202e-003
3.432726e+003,-2.892984e-003
3.434654e+003,-3.115624e-003
3.436583e+003,-3.205457e-003
3.438511e+003,-3.171315e-003
3.440440e+003,-3.132006e-003
3.442368e+003,-3.102465e-003
3.444297e+003,-3.031004e-003
3.446225e+003,-3.010735e-003
3.448154e+003,-3.059432e-003
3.450082e+003,-3.034031e-003
3.452011e+003,-2.992999e-003
3.453939e+003,-3.209831e-003
3.455868e+003,-3.492265e-003
3.457796e+003,-3.347520e-003
3.459725e+003,-3.215685e-003
3.461653e+003,-3.232492e-003
3.463582e+003,-3.271331e-003
3.465510e+003,-3.483554e-003
3.467439e+003,-3.462846e-003
3.469367e+003,-3.365669e-003
3.471296e+003,-3.313093e-003
3.473224e+003,-3.364683e-003
3.475153e+003,-3.471524e-003
3.477081e+003,-3.392891e-003
3.479010e+003,-3.361658e-003
3.480938e+003,-3.313422e-003
3.482867e+003,-3.245285e-003
3.484795e+003,-3.193057e-003
3.486724e+003,-3.352090e-003
3.488652e+003,-3.513234e-003
3.490581e+003,-3.570584e-003
3.492509e+003,-3.583729e-003
3.494438e+003,-3.463832e-003
3.496366e+003,-3.149145e-003
3.498295e+003,-3.212692e-003
3.500223e+003,-3.424517e-003
3.502152e+003,-3.446871e-003
3.504080e+003,-3.438390e-003
3.506009e+003,-3.417383e-003
3.507937e+003,-3.475271e-003
3.509866e+003,-3.593225e-003
3.511794e+003,-3.594934e-003
3.513723e+003,-3.632986e-003
3.515651e+003,-3.722284e-003
3.517580e+003,-3.666927e-003
3.519508e+003,-3.641561e-003
3.521437e+003,-3.592273e-003
3.523365e+003,-3.760292e-003
3.525294e+003,-3.793402e-003
3.527222e+003,-3.715846e-003
3.529151e+003,-3.640773e-003
3.531079e+003,-3.598155e-003
3.533008e+003,-3.668044e-003
3.534936e+003,-3.712199e-003
3.536865e+003,-3.540612e-003
3.538793e+003,-3.290207e-003
3.540722e+003,-3.334532e-003
3.542650e+003,-3.533513e-003
3.544579e+003,-3.611200e-003
3.546507e+003,-3.613270e-003
3.548436e+003,-3.673235e-003
3.550364e+003,-3.732205e-003
3.552293e+003,-3.663280e-003
3.554221e+003,-3.719164e-003
3.556150e+003,-3.894260e-003
3.558078e+003,-3.937998e-003
3.560007e+003,-3.897806e-003
3.561935e+003,-3.694623e-003
3.563864e+003,-3.822436e-003
3.565792e+003,-3.968107e-003
3.567721e+003,-3.916852e-003
3.569649e+003,-3.886871e-003
3.571578e+003,-3.918789e-003
3.573506e+003,-3.862373e-003
3.575435e+003,-3.757105e-003
3.577363e+003,-3.636666e-003
3.579292e+003,-3.731319e-003
3.581220e+003,-4.038068e-003
3.583149e+003,-4.139722e-003
3.585077e+003,-3.880172e-003
3.587006e+003,-3.910284e-003
3.588934e+003,-3.959537e-003
3.590863e+003,-3.898594e-003
3.592791e+003,-4.039052e-003
3.594720e+003,-4.103684e-003
3.596648e+003,-3.997918e-003
3.598577e+003,-3.856395e-003
3.600505e+003,-3.882733e-003
3.602434e+003,-3.937276e-003
3.604362e+003,-3.887659e-003
3.606291e+003,-4.091245e-003
3.608219e+003,-4.235709e-003
3.610148e+003,-3.966038e-003
3.612076e+003,-3.991351e-003
3.614005e+003,-4.132698e-003
3.615933e+003,-4.048736e-003
3.617862e+003,-3.901353e-003
3.619790e+003,-3.886411e-003
3.621719e+003,-4.022211e-003
3.623647e+003,-4.095478e-003
3.625576e+003,-4.163614e-003
3.627504e+003,-4.271965e-003
3.629433e+003,-4.176347e-003
3.631361e+003,-4.100533e-003
3.633290e+003,-4.227342e-003
3.635218e+003,-4.116813e-003
3.637146e+003,-4.004155e-003
3.639075e+003,-4.001135e-003
3.641004e+003,-3.966268e-003
3.642932e+003,-4.043812e-003
3.644861e+003,-4.223240e-003
3.646789e+003,-4.336858e-003
3.648718e+003,-4.434573e-003
3.650646e+003,-4.384881e-003
3.652574e+003,-4.120752e-003
3.654503e+003,-4.202370e-003
3.656432e+003,-4.300771e-003
3.658360e+003,-4.454513e-003
3.660289e+003,-4.469992e-003
3.662217e+003,-4.340598e-003
3.664146e+003,-4.356475e-003
3.666074e+003,-4.432736e-003
3.668002e+003,-4.550791e-003
3.669931e+003,-4.681008e-003
3.671860e+003,-4.673469e-003
3.673788e+003,-4.778318e-003
3.675717e+003,-4.763111e-003
3.677645e+003,-4.455037e-003
3.679573e+003,-4.488127e-003
3.681502e+003,-4.452578e-003
3.683430e+003,-4.394755e-003
3.685359e+003,-4.402135e-003
3.687288e+003,-4.628296e-003
3.689216e+003,-4.593676e-003
3.691145e+003,-4.404201e-003
3.693073e+003,-4.187866e-003
3.695001e+003,-4.307890e-003
3.696930e+003,-4.523608e-003
3.698858e+003,-4.543774e-003
3.700787e+003,-4.451200e-003
3.702716e+003,-4.302346e-003
3.704644e+003,-4.183370e-003
3.706573e+003,-4.202075e-003
3.708501e+003,-4.268094e-003
3.710429e+003,-4.303954e-003
3.712358e+003,-4.255593e-003
3.714286e+003,-4.183928e-003
3.716215e+003,-4.197776e-003
3.718144e+003,-4.265075e-003
3.720072e+003,-4.381536e-003
3.722000e+003,-4.431096e-003
3.723929e+003,-4.368874e-003
3.725857e+003,-4.247751e-003
3.727786e+003,-3.927918e-003
3.729714e+003,-4.098236e-003
3.731643e+003,-4.708476e-003
3.733572e+003,-4.985023e-003
3.735500e+003,-4.776023e-003
3.737428e+003,-4.573185e-003
3.739357e+003,-4.527904e-003
3.741285e+003,-4.439295e-003
3.743214e+003,-4.601348e-003
3.745142e+003,-4.458153e-003
3.747071e+003,-4.301165e-003
3.749000e+003,-4.372318e-003
3.750928e+003,-4.375500e-003
3.752856e+003,-4.168996e-003
3.754785e+003,-4.122655e-003
3.756713e+003,-4.051001e-003
3.758642e+003,-4.027333e-003
3.760570e+003,-4.180843e-003
3.762499e+003,-4.069252e-003
3.764427e+003,-4.069449e-003
3.766356e+003,-4.119209e-003
3.768284e+003,-4.127939e-003
3.770213e+003,-4.046930e-003
3.772141e+003,-3.994470e-003
3.774070e+003,-3.866707e-003
3.775998e+003,-3.765055e-003
3.777927e+003,-4.040431e-003
3.779855e+003,-4.270784e-003
3.781784e+003,-4.000675e-003
3.783712e+003,-3.850878e-003
3.785641e+003,-3.727212e-003
3.787569e+003,-3.690779e-003
3.789498e+003,-3.739991e-003
3.791426e+003,-3.901517e-003
3.793355e+003,-3.942234e-003
3.795283e+003,-3.877380e-003
3.797212e+003,-3.869959e-003
3.799140e+003,-4.151274e-003
3.801069e+003,-4.380453e-003
3.802997e+003,-4.186652e-003
3.804926e+003,-4.386357e-003
3.806854e+003,-4.435556e-003
3.808783e+003,-4.244798e-003
3.810711e+003,-4.115631e-003
3.812640e+003,-3.988003e-003
3.814568e+003,-4.248276e-003
3.816497e+003,-4.138606e-003
3.818425e+003,-3.888743e-003
3.820354e+003,-3.929362e-003
3.822282e+003,-3.948768e-003
3.824211e+003,-3.958093e-003
3.826139e+003,-3.944696e-003
3.828068e+003,-3.749550e-003
3.829996e+003,-3.646030e-003
3.831925e+003,-3.698270e-003
3.833853e+003,-3.686639e-003
3.835782e+003,-3.944499e-003
3.837710e+003,-4.248112e-003
3.839639e+003,-4.190983e-003
3.841567e+003,-4.128891e-003
3.843496e+003,-4.042532e-003
3.845424e+003,-3.939837e-003
3.847353e+003,-4.075522e-003
3.849281e+003,-4.173197e-003
3.851210e+003,-4.358377e-003
3.853138e+003,-4.515246e-003
3.855067e+003,-4.093148e-003
3.856995e+003,-3.956090e-003
3.858924e+003,-4.055236e-003
3.860852e+003,-4.113629e-003
3.862781e+003,-4.132042e-003
3.864709e+003,-4.112481e-003
3.866638e+003,-4.108279e-003
3.868566e+003,-4.349881e-003
3.870495e+003,-4.303428e-003
3.872423e+003,-4.246996e-003
3.874352e+003,-4.112185e-003
3.876280e+003,-4.209458e-003
3.878209e+003,-4.681172e-003
3.880137e+003,-4.703952e-003
3.882066e+003,-4.438475e-003
3.883994e+003,-4.583382e-003
3.885923e+003,-4.459301e-003
3.887851e+003,-4.239384e-003
3.889780e+003,-4.224028e-003
3.891708e+003,-4.389802e-003
3.893637e+003,-4.538134e-003
3.895565e+003,-4.248932e-003
3.897494e+003,-4.179202e-003
3.899422e+003,-4.148780e-003
3.901351e+003,-4.248637e-003
3.903279e+003,-4.414795e-003
3.905208e+003,-4.356803e-003
3.907136e+003,-4.318651e-003
3.909065e+003,-4.289485e-003
3.910993e+003,-4.382618e-003
3.912922e+003,-4.348438e-003
3.914850e+003,-4.251852e-003
3.916779e+003,-4.456776e-003
3.918707e+003,-4.331839e-003
3.920636e+003,-4.325475e-003
3.922564e+003,-4.544856e-003
3.924493e+003,-4.544594e-003
3.926421e+003,-4.307923e-003
3.928350e+003,-4.274262e-003
3.930278e+003,-4.357623e-003
3.932207e+003,-4.217137e-003
3.934135e+003,-3.947126e-003
3.936064e+003,-3.823652e-003
3.937992e+003,-4.019487e-003
3.939921e+003,-4.225767e-003
3.941849e+003,-4.205422e-003
3.943778e+003,-4.056647e-003
3.945706e+003,-4.234954e-003
3.947635e+003,-4.392262e-003
3.949563e+003,-4.066331e-003
3.951492e+003,-4.013085e-003
3.953420e+003,-4.138180e-003
3.955349e+003,-4.069679e-003
3.957277e+003,-4.052314e-003
3.959206e+003,-4.161251e-003
3.961134e+003,-4.311827e-003
3.963063e+003,-4.173722e-003
3.964991e+003,-4.264058e-003
3.966920e+003,-4.421060e-003
3.968848e+003,-4.263500e-003
3.970777e+003,-4.153145e-003
3.972705e+003,-4.347093e-003
3.974634e+003,-4.300574e-003
3.976562e+003,-3.887659e-003
3.978491e+003,-3.830319e-003
3.980419e+003,-3.928147e-003
3.982348e+003,-4.263992e-003
3.984276e+003,-4.424995e-003
3.986205e+003,-4.414401e-003
3.988133e+003,-4.216841e-003
3.990062e+003,-4.014103e-003
3.991990e+003,-3.892158e-003
3.993919e+003,-3.917574e-003
3.995847e+003,-4.110478e-003
3.997776e+003,-4.272687e-003
3.999704e+003,-4.217498e-003
4.001633e+003,0.000000e+000
