3.991989e+002,-3.627208e-002
4.011274e+002,-1.578817e-002
4.030559e+002,-1.338340e-002
4.049844e+002,-1.741549e-002
4.069129e+002,-1.653627e-002
4.088414e+002,-1.276539e-002
4.107699e+002,-1.428851e-002
4.126984e+002,-1.963867e-002
4.146269e+002,-1.317879e-002
4.165554e+002,-7.206177e-003
4.184839e+002,-7.022272e-003
4.204124e+002,-6.003323e-003
4.223409e+002,-6.493528e-003
4.242694e+002,-8.256644e-003
4.261979e+002,-4.863089e-003
4.281264e+002,-6.823742e-003
4.300549e+002,-1.861465e-002
4.319834e+002,-1.165708e-002
4.339119e+002,-5.470260e-003
4.358404e+002,-9.853427e-003
4.377689e+002,-4.564168e-003
4.396974e+002,-1.772891e-003
4.416259e+002,-4.658325e-003
4.435544e+002,-9.998936e-004
4.454829e+002,-5.847202e-004
4.474114e+002,1.498185e-003
4.493399e+002,4.852618e-003
4.512684e+002,-1.552236e-003
4.531969e+002,-5.353469e-003
4.551254e+002,-4.090030e-003
4.570539e+002,-2.437248e-003
4.589824e+002,-3.113452e-003
4.609109e+002,-5.753713e-003
4.628394e+002,-4.553152e-003
4.647679e+002,-7.203327e-004
4.666964e+002,-2.874421e-004
4.686249e+002,-2.469931e-003
4.705533e+002,-2.945907e-003
4.724819e+002,-1.633745e-003
4.744103e+002,3.396241e-004
4.763389e+002,1.245537e-003
4.782673e+002,-1.983242e-003
4.801959e+002,-4.498293e-003
4.821243e+002,-1.826709e-003
4.840529e+002,1.046108e-003
4.859813e+002,1.218722e-003
4.879099e+002,-1.302334e-003
4.898383e+002,-3.715320e-003
4.917668e+002,-3.218514e-003
4.936953e+002,-3.998837e-003
4.956238e+002,-6.718081e-003
4.975523e+002,-7.229380e-003
4.994808e+002,-5.602917e-003
5.014093e+002,-5.730562e-003
5.033378e+002,-6.371363e-003
5.052663e+002,-6.159567e-003
5.071948e+002,-5.229805e-003
5.091233e+002,-4.966254e-003
5.110518e+002,-5.453082e-003
5.129803e+002,-6.297336e-003
5.149088e+002,-7.122612e-003
5.168373e+002,-7.333907e-003
5.187658e+002,-6.735927e-003
5.206943e+002,-5.639549e-003
5.226228e+002,-6.954421e-003
5.245513e+002,-7.566590e-003
5.264798e+002,-6.456706e-003
5.284083e+002,-6.033028e-003
5.303368e+002,-5.897462e-003
5.322653e+002,-6.518270e-003
5.341938e+002,-6.740462e-003
5.361223e+002,-6.824623e-003
5.380508e+002,-6.784567e-003
5.399792e+002,-5.647203e-003
5.419078e+002,-4.560824e-003
5.438363e+002,-4.314845e-003
5.457648e+002,-3.438751e-003
5.476932e+002,-4.219105e-003
5.496218e+002,-3.776978e-003
5.515503e+002,-2.436687e-003
5.534788e+002,-2.729404e-003
5.554072e+002,-3.490424e-003
5.573358e+002,-4.572792e-003
5.592643e+002,-4.573939e-003
5.611927e+002,-2.161644e-003
5.631212e+002,-1.914137e-003
5.650497e+002,-3.530654e-003
5.669783e+002,-3.661407e-003
5.689067e+002,-2.206447e-003
5.708352e+002,-5.395839e-004
5.727637e+002,-1.377481e-003
5.746923e+002,-3.710589e-003
5.766207e+002,-3.240911e-003
5.785492e+002,-3.263899e-003
5.804777e+002,-1.734940e-003
5.824063e+002,-1.086166e-003
5.843347e+002,-2.986516e-003
5.862632e+002,-3.440724e-003
5.881917e+002,-3.815145e-003
5.901202e+002,-3.515798e-003
5.920487e+002,-3.241240e-003
5.939772e+002,-4.856896e-003
5.959057e+002,-5.266076e-003
5.978342e+002,-4.230885e-003
5.997627e+002,-3.846247e-003
6.016912e+002,-2.999744e-003
6.036197e+002,-3.377538e-003
6.055482e+002,-3.516883e-003
6.074767e+002,-2.572415e-003
6.094052e+002,-2.277780e-003
6.113337e+002,-1.629817e-003
6.132622e+002,-8.648644e-004
6.151907e+002,-1.710914e-003
6.171192e+002,-2.898547e-003
6.190477e+002,-2.961276e-003
6.209762e+002,-1.727878e-003
6.229047e+002,-3.817543e-003
6.248332e+002,-4.579185e-003
6.267617e+002,-4.622002e-003
6.286902e+002,-5.368524e-003
6.306187e+002,-5.179943e-003
6.325472e+002,-4.523018e-003
6.344756e+002,-3.976150e-003
6.364042e+002,-3.750536e-003
6.383326e+002,-3.440625e-003
6.402612e+002,-3.496439e-003
6.421896e+002,-3.539231e-003
6.441182e+002,-3.057589e-003
6.460466e+002,-3.159112e-003
6.479752e+002,-3.000666e-003
6.499036e+002,-2.560623e-003
6.518322e+002,-3.206081e-003
6.537606e+002,-3.693079e-003
6.556891e+002,-3.279191e-003
6.576177e+002,-2.761473e-003
6.595461e+002,-2.707606e-003
6.614746e+002,-2.932545e-003
6.634031e+002,-3.015012e-003
6.653317e+002,-2.999316e-003
6.672601e+002,-3.393253e-003
6.691886e+002,-2.536741e-003
6.711171e+002,-1.304778e-003
6.730457e+002,-8.857961e-004
6.749741e+002,-1.443502e-003
6.769026e+002,-1.591556e-003
6.788311e+002,-5.349839e-004
6.807596e+002,-2.362808e-004
6.826881e+002,-9.185968e-004
6.846166e+002,-7.694855e-004
6.865451e+002,-6.981691e-004
6.884736e+002,-6.797427e-004
6.904021e+002,-2.117080e-004
6.923306e+002,-1.342384e-004
6.942591e+002,-3.111497e-004
6.961876e+002,-3.974928e-004
6.981161e+002,-4.618086e-004
7.000446e+002,-6.785518e-004
7.019731e+002,-7.996492e-004
7.039016e+002,-5.521590e-004
7.058301e+002,-1.014108e-003
7.077585e+002,-1.728703e-003
7.096871e+002,-1.819384e-003
7.116156e+002,-1.710386e-003
7.135441e+002,-2.223095e-003
7.154725e+002,-2.870767e-003
7.174011e+002,-3.020573e-003
7.193296e+002,-2.791136e-003
7.212581e+002,-2.810955e-003
7.231865e+002,-2.821094e-003
7.251151e+002,-2.671745e-003
7.270436e+002,-3.168815e-003
7.289720e+002,-3.490786e-003
7.309005e+002,-3.580870e-003
7.328290e+002,-3.606633e-003
7.347576e+002,-3.689761e-003
7.366860e+002,-3.269489e-003
7.386145e+002,-2.397872e-003
7.405430e+002,-2.760090e-003
7.424716e+002,-3.242391e-003
7.444000e+002,-2.883538e-003
7.463285e+002,-2.318518e-003
7.482570e+002,-1.926969e-003
7.501855e+002,-1.772528e-003
7.521140e+002,-1.356474e-003
7.540425e+002,-7.246661e-004
7.559710e+002,-3.745513e-004
7.578995e+002,-6.619110e-004
7.598280e+002,-4.490984e-004
7.617565e+002,-1.934266e-004
7.636850e+002,2.404540e-004
7.656135e+002,9.170574e-004
7.675420e+002,9.757663e-004
7.694705e+002,8.406948e-004
7.713990e+002,4.837281e-004
7.733275e+002,7.407464e-004
7.752560e+002,1.248993e-003
7.771844e+002,1.537554e-003
7.791130e+002,1.520030e-003
7.810415e+002,1.261088e-003
7.829700e+002,8.307687e-004
7.848984e+002,6.135123e-004
7.868270e+002,1.001006e-003
7.887555e+002,1.077363e-003
7.906840e+002,7.881784e-004
7.926124e+002,3.542479e-004
7.945410e+002,4.105259e-004
7.964695e+002,3.195296e-004
7.983979e+002,1.279825e-004
8.003264e+002,2.826259e-004
8.022549e+002,6.527896e-005
8.041835e+002,-1.585506e-004
8.061119e+002,6.372143e-005
8.080404e+002,2.019326e-004
8.099689e+002,4.180213e-004
8.118975e+002,6.975344e-004
8.138259e+002,8.909266e-004
8.157545e+002,6.477894e-004
8.176830e+002,2.751659e-004
8.196115e+002,-6.719063e-005
8.215399e+002,-4.509520e-004
8.234684e+002,-4.874594e-004
8.253970e+002,-6.261793e-004
8.273254e+002,-6.498685e-004
8.292539e+002,-4.311580e-004
8.311824e+002,-9.409145e-004
8.331110e+002,-1.583600e-003
8.350394e+002,-1.315019e-003
8.369679e+002,-1.390858e-003
8.388964e+002,-1.616480e-003
8.408250e+002,-1.321295e-003
8.427534e+002,-1.364699e-003
8.446819e+002,-1.700782e-003
8.466104e+002,-1.575446e-003
8.485389e+002,-1.535068e-003
8.504674e+002,-1.708835e-003
8.523959e+002,-2.165402e-003
8.543244e+002,-2.465352e-003
8.562529e+002,-2.256816e-003
8.581814e+002,-2.024106e-003
8.601099e+002,-1.605752e-003
8.620384e+002,-1.502512e-003
8.639669e+002,-1.612948e-003
8.658954e+002,-2.236313e-003
8.678239e+002,-2.674874e-003
8.697524e+002,-2.205722e-003
8.716809e+002,-1.795297e-003
8.736094e+002,-1.535827e-003
8.755378e+002,-1.401229e-003
8.774664e+002,-1.740089e-003
8.793949e+002,-1.712400e-003
8.813234e+002,-1.603507e-003
8.832518e+002,-1.478374e-003
8.851804e+002,-1.102592e-003
8.871089e+002,-7.126914e-004
8.890374e+002,-8.825886e-004
8.909658e+002,-1.211842e-003
8.928943e+002,-1.158344e-003
8.948229e+002,-1.222283e-003
8.967513e+002,-1.177675e-003
8.986798e+002,-1.145291e-003
9.006083e+002,-8.167477e-004
9.025369e+002,-5.491476e-004
9.044653e+002,-6.722992e-004
9.063938e+002,-7.418667e-004
9.083223e+002,-8.701553e-004
9.102509e+002,-1.162177e-003
9.121793e+002,-1.475831e-003
9.141078e+002,-1.537643e-003
9.160364e+002,-1.509677e-003
9.179648e+002,-1.535431e-003
9.198933e+002,-1.558575e-003
9.218218e+002,-1.718307e-003
9.237504e+002,-2.017411e-003
9.256788e+002,-1.996534e-003
9.276073e+002,-2.112286e-003
9.295358e+002,-2.383439e-003
9.314644e+002,-2.883571e-003
9.333928e+002,-3.042783e-003
9.353213e+002,-2.978157e-003
9.372498e+002,-2.752978e-003
9.391783e+002,-2.676619e-003
9.411068e+002,-2.874025e-003
9.430353e+002,-3.190129e-003
9.449637e+002,-3.129177e-003
9.468923e+002,-3.042257e-003
9.488208e+002,-3.220981e-003
9.507493e+002,-3.141414e-003
9.526777e+002,-3.104405e-003
9.546063e+002,-3.091674e-003
9.565348e+002,-2.962559e-003
9.584633e+002,-2.851543e-003
9.603917e+002,-2.591354e-003
9.623203e+002,-2.424694e-003
9.642488e+002,-2.667431e-003
9.661772e+002,-2.688474e-003
9.681057e+002,-2.608481e-003
9.700343e+002,-2.506269e-003
9.719628e+002,-2.402815e-003
9.738912e+002,-2.078223e-003
9.758197e+002,-2.020973e-003
9.777483e+002,-2.073573e-003
9.796768e+002,-2.115121e-003
9.816052e+002,-2.303423e-003
9.835337e+002,-2.165864e-003
9.854623e+002,-2.155248e-003
9.873907e+002,-2.360800e-003
9.893192e+002,-2.121650e-003
9.912477e+002,-1.813082e-003
9.931763e+002,-1.723258e-003
9.951047e+002,-1.743917e-003
9.970332e+002,-1.759559e-003
9.989617e+002,-1.519549e-003
1.000890e+003,-1.530379e-003
1.002819e+003,-1.622290e-003
1.004747e+003,-1.330842e-003
1.006676e+003,-1.146183e-003
1.008604e+003,-1.047263e-003
1.010533e+003,-8.393020e-004
1.012461e+003,-6.963828e-004
1.014390e+003,-6.937694e-004
1.016318e+003,-2.715148e-004
1.018247e+003,2.597786e-005
1.020175e+003,2.856248e-005
1.022104e+003,2.218559e-004
1.024032e+003,6.052835e-004
1.025961e+003,7.784857e-004
1.027889e+003,9.701208e-004
1.029818e+003,1.181575e-003
1.031746e+003,1.494362e-003
1.033675e+003,1.962250e-003
1.035603e+003,2.021833e-003
1.037532e+003,2.110723e-003
1.039460e+003,2.461166e-003
1.041389e+003,2.587376e-003
1.043317e+003,2.446238e-003
1.045246e+003,2.247056e-003
1.047174e+003,2.173256e-003
1.049103e+003,2.326098e-003
1.051031e+003,2.584976e-003
1.052960e+003,2.695818e-003
1.054888e+003,2.607842e-003
1.056817e+003,2.599942e-003
1.058745e+003,2.321801e-003
1.060674e+003,2.247489e-003
1.062602e+003,2.318037e-003
1.064531e+003,2.390961e-003
1.066459e+003,2.480493e-003
1.068388e+003,2.496722e-003
1.070316e+003,2.445971e-003
1.072245e+003,2.436674e-003
1.074173e+003,2.451802e-003
1.076102e+003,2.568310e-003
1.078030e+003,2.568044e-003
1.079959e+003,2.895907e-003
1.081887e+003,2.849245e-003
1.083816e+003,2.891370e-003
1.085744e+003,3.057078e-003
1.087673e+003,3.316025e-003
1.089601e+003,3.559124e-003
1.091530e+003,3.498094e-003
1.093458e+003,3.318963e-003
1.095387e+003,3.305207e-003
1.097315e+003,3.372054e-003
1.099244e+003,3.175351e-003
1.101172e+003,3.350282e-003
1.103101e+003,3.584046e-003
1.105029e+003,3.532834e-003
1.106958e+003,3.630520e-003
1.108886e+003,3.747913e-003
1.110815e+003,3.725555e-003
1.112743e+003,3.683549e-003
1.114672e+003,3.768067e-003
1.116600e+003,3.686389e-003
1.118529e+003,3.618425e-003
1.120457e+003,3.724552e-003
1.122386e+003,3.925918e-003
1.124314e+003,3.807741e-003
1.126243e+003,3.668512e-003
1.128171e+003,3.452336e-003
1.130100e+003,3.254228e-003
1.132028e+003,3.025947e-003
1.133957e+003,2.844909e-003
1.135885e+003,2.619843e-003
1.137814e+003,2.353315e-003
1.139742e+003,2.047633e-003
1.141671e+003,1.909964e-003
1.143599e+003,1.771142e-003
1.145528e+003,1.390806e-003
1.147456e+003,1.001537e-003
1.149385e+003,6.904987e-004
1.151313e+003,3.935787e-004
1.153242e+003,2.939653e-004
1.155170e+003,2.326633e-004
1.157099e+003,1.746199e-005
1.159027e+003,-1.302966e-004
1.160956e+003,-3.085008e-004
1.162884e+003,-3.935534e-004
1.164813e+003,-3.602826e-004
1.166741e+003,-3.698172e-004
1.168670e+003,-2.214777e-004
1.170598e+003,-1.240693e-004
1.172526e+003,-2.281011e-004
1.174455e+003,-3.355513e-004
1.176384e+003,-1.900153e-004
1.178312e+003,1.858859e-005
1.180240e+003,-2.127153e-005
1.182169e+003,-3.061169e-004
1.184098e+003,-3.948776e-004
1.186026e+003,-4.351301e-004
1.187954e+003,-4.312573e-004
1.189883e+003,-4.253652e-004
1.191812e+003,-2.504542e-004
1.193740e+003,-1.973678e-004
1.195668e+003,-3.157851e-004
1.197597e+003,-2.801573e-004
1.199526e+003,-1.793507e-004
1.201454e+003,-1.353646e-004
1.203382e+003,2.017910e-005
1.205311e+003,1.404448e-004
1.207240e+003,1.531725e-004
1.209168e+003,2.230162e-004
1.211096e+003,4.616036e-004
1.213025e+003,6.171622e-004
1.214953e+003,7.531930e-004
1.216882e+003,8.245276e-004
1.218810e+003,8.971355e-004
1.220739e+003,1.111478e-003
1.222667e+003,1.182140e-003
1.224596e+003,1.186127e-003
1.226524e+003,1.340716e-003
1.228453e+003,1.484321e-003
1.230381e+003,1.598674e-003
1.232310e+003,1.844807e-003
1.234238e+003,2.091245e-003
1.236167e+003,2.231935e-003
1.238095e+003,2.351949e-003
1.240024e+003,2.454568e-003
1.241952e+003,2.361077e-003
1.243881e+003,2.283694e-003
1.245809e+003,2.184812e-003
1.247738e+003,2.082056e-003
1.249666e+003,1.941116e-003
1.251595e+003,1.874722e-003
1.253523e+003,1.863741e-003
1.255452e+003,1.713324e-003
1.257380e+003,1.504503e-003
1.259309e+003,1.482459e-003
1.261237e+003,1.757934e-003
1.263166e+003,2.071969e-003
1.265094e+003,2.422514e-003
1.267023e+003,2.660646e-003
1.268951e+003,2.818562e-003
1.270880e+003,3.129326e-003
1.272808e+003,3.186065e-003
1.274737e+003,3.244113e-003
1.276665e+003,3.740026e-003
1.278594e+003,4.214021e-003
1.280522e+003,4.377323e-003
1.282451e+003,4.458260e-003
1.284379e+003,4.764103e-003
1.286308e+003,5.084577e-003
1.288236e+003,5.531551e-003
1.290165e+003,6.015033e-003
1.292093e+003,6.393793e-003
1.294022e+003,6.724155e-003
1.295950e+003,6.724827e-003
1.297879e+003,6.719376e-003
1.299807e+003,6.710862e-003
1.301736e+003,6.623886e-003
1.303664e+003,6.573827e-003
1.305593e+003,6.454021e-003
1.307521e+003,6.310175e-003
1.309450e+003,6.164764e-003
1.311378e+003,5.849503e-003
1.313307e+003,5.563299e-003
1.315235e+003,5.331252e-003
1.317164e+003,4.921211e-003
1.319092e+003,4.645263e-003
1.321021e+003,4.570252e-003
1.322949e+003,4.306473e-003
1.324878e+003,4.028609e-003
1.326806e+003,3.855743e-003
1.328735e+003,3.656850e-003
1.330663e+003,3.560327e-003
1.332592e+003,3.339531e-003
1.334520e+003,3.112773e-003
1.336449e+003,3.059781e-003
1.338377e+003,3.028549e-003
1.340306e+003,3.017806e-003
1.342234e+003,3.083273e-003
1.344163e+003,3.129359e-003
1.346091e+003,3.072261e-003
1.348020e+003,2.948578e-003
1.349948e+003,2.765439e-003
1.351877e+003,2.603142e-003
1.353805e+003,2.475161e-003
1.355734e+003,2.401856e-003
1.357662e+003,2.400257e-003
1.359591e+003,2.228738e-003
1.361519e+003,1.773970e-003
1.363448e+003,1.484521e-003
1.365376e+003,1.730356e-003
1.367305e+003,1.754574e-003
1.369233e+003,1.660768e-003
1.371162e+003,1.540413e-003
1.373090e+003,1.307314e-003
1.375019e+003,1.262517e-003
1.376947e+003,1.399382e-003
1.378876e+003,1.450111e-003
1.380804e+003,1.508160e-003
1.382733e+003,1.359129e-003
1.384661e+003,1.256602e-003
1.386590e+003,8.383378e-004
1.388518e+003,6.505105e-004
1.390447e+003,7.373278e-004
1.392375e+003,5.209143e-004
1.394304e+003,1.482339e-004
1.396232e+003,1.995459e-004
1.398161e+003,1.235081e-004
1.400089e+003,1.559899e-004
1.402018e+003,4.154344e-004
1.403946e+003,3.966299e-004
1.405875e+003,5.330229e-004
1.407803e+003,7.396179e-004
1.409732e+003,6.032927e-004
1.411660e+003,5.580042e-004
1.413589e+003,7.559811e-004
1.415517e+003,8.646646e-004
1.417446e+003,7.830333e-004
1.419374e+003,1.076965e-003
1.421303e+003,2.161868e-003
1.423231e+003,2.730360e-003
1.425160e+003,3.254863e-003
1.427088e+003,3.944307e-003
1.429017e+003,4.240888e-003
1.430945e+003,4.548387e-003
1.432874e+003,4.915146e-003
1.434802e+003,4.662545e-003
1.436731e+003,4.322737e-003
1.438659e+003,5.334237e-003
1.440588e+003,6.056963e-003
1.442516e+003,6.435121e-003
1.444445e+003,6.838583e-003
1.446373e+003,7.031868e-003
1.448302e+003,7.306270e-003
1.450230e+003,7.952672e-003
1.452159e+003,8.278549e-003
1.454087e+003,8.087173e-003
1.456016e+003,7.072010e-003
1.457944e+003,7.372252e-003
1.459873e+003,8.747147e-003
1.461801e+003,9.205151e-003
1.463730e+003,8.912061e-003
1.465658e+003,8.869821e-003
1.467587e+003,9.095105e-003
1.469515e+003,8.888928e-003
1.471444e+003,7.819935e-003
1.473372e+003,7.290332e-003
1.475301e+003,7.510483e-003
1.477229e+003,7.581587e-003
1.479158e+003,7.603168e-003
1.481086e+003,7.301452e-003
1.483015e+003,6.913752e-003
1.484943e+003,6.301131e-003
1.486872e+003,5.529874e-003
1.488800e+003,4.778307e-003
1.490729e+003,4.526958e-003
1.492657e+003,4.682238e-003
1.494586e+003,4.151729e-003
1.496514e+003,3.247885e-003
1.498443e+003,3.122284e-003
1.500371e+003,3.312052e-003
1.502300e+003,3.113707e-003
1.504228e+003,1.958689e-003
1.506157e+003,3.142243e-004
1.508085e+003,6.368723e-004
1.510014e+003,1.544836e-003
1.511942e+003,1.733582e-003
1.513871e+003,1.776066e-003
1.515799e+003,1.347263e-003
1.517728e+003,1.231448e-003
1.519656e+003,1.071119e-003
1.521585e+003,6.701889e-004
1.523513e+003,1.389244e-003
1.525442e+003,1.794531e-003
1.527370e+003,2.176553e-003
1.529299e+003,2.690951e-003
1.531227e+003,2.784880e-003
1.533156e+003,2.607342e-003
1.535084e+003,3.278565e-003
1.537013e+003,3.316225e-003
1.538941e+003,2.242493e-003
1.540870e+003,2.326764e-003
1.542798e+003,3.550873e-003
1.544727e+003,4.378294e-003
1.546655e+003,5.193880e-003
1.548584e+003,5.584275e-003
1.550512e+003,5.721267e-003
1.552441e+003,5.719857e-003
1.554369e+003,5.460782e-003
1.556298e+003,5.099529e-003
1.558226e+003,3.690031e-003
1.560155e+003,4.652766e-003
1.562083e+003,6.779648e-003
1.564012e+003,7.385699e-003
1.565940e+003,7.613418e-003
1.567869e+003,7.627513e-003
1.569797e+003,7.510820e-003
1.571726e+003,8.217291e-003
1.573654e+003,8.262136e-003
1.575583e+003,7.434537e-003
1.577511e+003,7.670476e-003
1.579440e+003,8.342855e-003
1.581368e+003,8.350725e-003
1.583297e+003,8.045552e-003
1.585225e+003,7.790484e-003
1.587154e+003,7.562672e-003
1.589082e+003,7.251012e-003
1.591010e+003,6.795332e-003
1.592939e+003,6.140869e-003
1.594868e+003,5.688501e-003
1.596796e+003,5.391500e-003
1.598724e+003,4.921044e-003
1.600653e+003,4.265013e-003
1.602582e+003,3.660993e-003
1.604510e+003,3.265378e-003
1.606438e+003,2.924627e-003
1.608367e+003,2.512952e-003
1.610296e+003,2.153210e-003
1.612224e+003,1.770144e-003
1.614152e+003,1.131044e-003
1.616081e+003,-3.651218e-005
1.618010e+003,1.266899e-004
1.619938e+003,6.297049e-004
1.621866e+003,1.655361e-004
1.623795e+003,-2.327705e-004
1.625724e+003,-1.272823e-004
1.627652e+003,-2.468778e-004
1.629580e+003,-1.564639e-004
1.631509e+003,-3.325715e-004
1.633438e+003,-1.192182e-003
1.635366e+003,-2.486733e-003
1.637294e+003,-2.125244e-003
1.639223e+003,-1.521035e-003
1.641151e+003,-1.629784e-003
1.643080e+003,-2.041618e-003
1.645008e+003,-3.131907e-003
1.646937e+003,-4.126889e-003
1.648865e+003,-3.866510e-003
1.650794e+003,-4.623740e-003
1.652722e+003,-6.619117e-003
1.654651e+003,-5.835222e-003
1.656579e+003,-4.702281e-003
1.658508e+003,-4.786871e-003
1.660436e+003,-5.406878e-003
1.662365e+003,-6.073120e-003
1.664293e+003,-5.901777e-003
1.666222e+003,-5.884976e-003
1.668150e+003,-6.583187e-003
1.670079e+003,-6.972746e-003
1.672007e+003,-6.680300e-003
1.673936e+003,-6.855967e-003
1.675864e+003,-6.891321e-003
1.677793e+003,-6.313240e-003
1.679721e+003,-6.342596e-003
1.681650e+003,-6.705847e-003
1.683578e+003,-7.630537e-003
1.685507e+003,-6.968279e-003
1.687435e+003,-5.878765e-003
1.689364e+003,-5.512760e-003
1.691292e+003,-5.249545e-003
1.693221e+003,-5.498332e-003
1.695149e+003,-6.373616e-003
1.697078e+003,-6.293744e-003
1.699006e+003,-6.638827e-003
1.700935e+003,-6.621826e-003
1.702863e+003,-5.423371e-003
1.704792e+003,-5.384887e-003
1.706720e+003,-5.171201e-003
1.708649e+003,-4.912201e-003
1.710577e+003,-4.889398e-003
1.712506e+003,-5.196346e-003
1.714434e+003,-5.663000e-003
1.716363e+003,-6.305239e-003
1.718291e+003,-6.269870e-003
1.720220e+003,-5.302967e-003
1.722148e+003,-4.937132e-003
1.724077e+003,-4.960292e-003
1.726005e+003,-4.971004e-003
1.727934e+003,-5.159217e-003
1.729862e+003,-5.336254e-003
1.731791e+003,-5.746389e-003
1.733719e+003,-6.657165e-003
1.735648e+003,-6.017702e-003
1.737576e+003,-5.366298e-003
1.739505e+003,-5.620645e-003
1.741433e+003,-5.425989e-003
1.743362e+003,-5.276453e-003
1.745290e+003,-5.046993e-003
1.747219e+003,-5.144221e-003
1.749147e+003,-5.359426e-003
1.751076e+003,-5.349607e-003
1.753004e+003,-4.770124e-003
1.754933e+003,-4.620068e-003
1.756861e+003,-4.659799e-003
1.758790e+003,-4.489111e-003
1.760718e+003,-4.702740e-003
1.762647e+003,-4.580923e-003
1.764575e+003,-4.102634e-003
1.766504e+003,-4.321177e-003
1.768432e+003,-4.579808e-003
1.770361e+003,-4.744397e-003
1.772289e+003,-5.044537e-003
1.774218e+003,-4.534396e-003
1.776146e+003,-4.040136e-003
1.778075e+003,-3.945222e-003
1.780003e+003,-4.032126e-003
1.781932e+003,-3.973425e-003
1.783860e+003,-3.894227e-003
1.785789e+003,-3.738973e-003
1.787717e+003,-3.711049e-003
1.789646e+003,-4.036623e-003
1.791574e+003,-4.524625e-003
1.793503e+003,-4.323736e-003
1.795431e+003,-3.839876e-003
1.797360e+003,-3.860960e-003
1.799288e+003,-4.108247e-003
1.801217e+003,-4.170276e-003
1.803145e+003,-3.939837e-003
1.805074e+003,-3.810481e-003
1.807002e+003,-3.726259e-003
1.808931e+003,-3.807591e-003
1.810859e+003,-3.876559e-003
1.812788e+003,-3.903060e-003
1.814716e+003,-3.900072e-003
1.816645e+003,-3.856494e-003
1.818573e+003,-3.770409e-003
1.820502e+003,-3.804175e-003
1.822430e+003,-3.807459e-003
1.824359e+003,-4.090292e-003
1.826287e+003,-4.130992e-003
1.828216e+003,-4.217038e-003
1.830144e+003,-4.281185e-003
1.832073e+003,-4.068268e-003
1.834001e+003,-4.038691e-003
1.835930e+003,-4.063803e-003
1.837858e+003,-3.975231e-003
1.839787e+003,-3.900138e-003
1.841715e+003,-4.127710e-003
1.843644e+003,-4.689301e-003
1.845572e+003,-4.500851e-003
1.847501e+003,-4.104801e-003
1.849429e+003,-3.999559e-003
1.851358e+003,-3.914783e-003
1.853286e+003,-3.893570e-003
1.855215e+003,-3.940559e-003
1.857143e+003,-3.942299e-003
1.859072e+003,-3.919873e-003
1.861000e+003,-3.884736e-003
1.862929e+003,-3.835015e-003
1.864857e+003,-3.807952e-003
1.866786e+003,-4.021949e-003
1.868714e+003,-4.246111e-003
1.870643e+003,-4.066528e-003
1.872571e+003,-3.854491e-003
1.874500e+003,-3.735326e-003
1.876428e+003,-3.643336e-003
1.878357e+003,-3.602525e-003
1.880285e+003,-3.603314e-003
1.882214e+003,-3.551227e-003
1.884142e+003,-3.514516e-003
1.886071e+003,-3.493316e-003
1.887999e+003,-3.619021e-003
1.889928e+003,-3.671066e-003
1.891856e+003,-3.468040e-003
1.893785e+003,-3.445786e-003
1.895713e+003,-3.461992e-003
1.897642e+003,-3.424188e-003
1.899570e+003,-3.357121e-003
1.901499e+003,-3.339662e-003
1.903427e+003,-3.349164e-003
1.905356e+003,-3.367938e-003
1.907284e+003,-3.285965e-003
1.909213e+003,-3.229038e-003
1.911141e+003,-3.201707e-003
1.913070e+003,-3.205457e-003
1.914998e+003,-3.278927e-003
1.916927e+003,-3.576400e-003
1.918855e+003,-3.586982e-003
1.920784e+003,-3.422577e-003
1.922712e+003,-3.478460e-003
1.924641e+003,-3.410447e-003
1.926569e+003,-3.306681e-003
1.928498e+003,-3.249034e-003
1.930426e+003,-3.292969e-003
1.932355e+003,-3.340483e-003
1.934283e+003,-3.418994e-003
1.936212e+003,-3.452229e-003
1.938140e+003,-3.420835e-003
1.940069e+003,-3.515995e-003
1.941997e+003,-3.709637e-003
1.943926e+003,-3.616392e-003
1.945854e+003,-3.408606e-003
1.947783e+003,-3.389209e-003
1.949711e+003,-3.383587e-003
1.951640e+003,-3.389341e-003
1.953568e+003,-3.418633e-003
1.955497e+003,-3.394371e-003
1.957425e+003,-3.440000e-003
1.959354e+003,-3.599436e-003
1.961282e+003,-3.621255e-003
1.963211e+003,-3.586719e-003
1.965139e+003,-3.568119e-003
1.967068e+003,-3.490128e-003
1.968996e+003,-3.410348e-003
1.970925e+003,-3.443386e-003
1.972853e+003,-3.407225e-003
1.974782e+003,-3.376519e-003
1.976710e+003,-3.432966e-003
1.978639e+003,-3.405483e-003
1.980567e+003,-3.376519e-003
1.982496e+003,-3.409033e-003
1.984424e+003,-3.390162e-003
1.986353e+003,-3.331540e-003
1.988281e+003,-3.329140e-003
1.990210e+003,-3.354918e-003
1.992138e+003,-3.354260e-003
1.994067e+003,-3.277645e-003
1.995995e+003,-3.213021e-003
1.997924e+003,-3.125230e-003
1.999852e+003,-3.173190e-003
2.001781e+003,-3.175920e-003
2.003709e+003,-3.119407e-003
2.005638e+003,-3.053147e-003
2.007566e+003,-2.968219e-003
2.009495e+003,-2.914904e-003
2.011423e+003,-2.851906e-003
2.013352e+003,-2.840878e-003
2.015280e+003,-2.792651e-003
2.017208e+003,-2.854967e-003
2.019137e+003,-2.814411e-003
2.021066e+003,-2.735594e-003
2.022994e+003,-2.779416e-003
2.024922e+003,-2.814806e-003
2.026851e+003,-2.789194e-003
2.028780e+003,-2.834624e-003
2.030708e+003,-2.867212e-003
2.032636e+003,-2.896012e-003
2.034565e+003,-2.897724e-003
2.036494e+003,-2.777506e-003
2.038422e+003,-2.744088e-003
2.040350e+003,-2.788799e-003
2.042279e+003,-2.778198e-003
2.044208e+003,-2.732762e-003
2.046136e+003,-2.815366e-003
2.048064e+003,-2.818987e-003
2.049993e+003,-2.725156e-003
2.051921e+003,-2.619810e-003
2.053850e+003,-2.595833e-003
2.055778e+003,-2.673195e-003
2.057707e+003,-2.688145e-003
2.059635e+003,-2.636146e-003
2.061564e+003,-2.693315e-003
2.063492e+003,-2.743627e-003
2.065421e+003,-2.739907e-003
2.067349e+003,-2.595932e-003
2.069278e+003,-2.432009e-003
2.071206e+003,-2.393193e-003
2.073135e+003,-2.485943e-003
2.075063e+003,-2.570208e-003
2.076992e+003,-2.488513e-003
2.078920e+003,-2.430263e-003
2.080849e+003,-2.451152e-003
2.082777e+003,-2.346465e-003
2.084706e+003,-2.316573e-003
2.086634e+003,-2.326394e-003
2.088563e+003,-2.302137e-003
2.090491e+003,-2.179414e-003
2.092420e+003,-2.041849e-003
2.094348e+003,-1.993236e-003
2.096277e+003,-2.010782e-003
2.098205e+003,-2.028690e-003
2.100134e+003,-1.871877e-003
2.102062e+003,-1.720485e-003
2.103991e+003,-1.654078e-003
2.105919e+003,-1.636881e-003
2.107848e+003,-1.666027e-003
2.109776e+003,-1.672100e-003
2.111705e+003,-1.619913e-003
2.113633e+003,-1.515521e-003
2.115562e+003,-1.464438e-003
2.117490e+003,-1.458296e-003
2.119419e+003,-1.431216e-003
2.121347e+003,-1.393599e-003
2.123276e+003,-1.340421e-003
2.125204e+003,-1.329058e-003
2.127133e+003,-1.319478e-003
2.129061e+003,-1.290408e-003
2.130990e+003,-1.262789e-003
2.132918e+003,-1.241876e-003
2.134847e+003,-1.183491e-003
2.136775e+003,-1.128205e-003
2.138704e+003,-1.070466e-003
2.140632e+003,-1.044222e-003
2.142561e+003,-1.059823e-003
2.144489e+003,-1.031793e-003
2.146418e+003,-1.035760e-003
2.148346e+003,-1.025281e-003
2.150275e+003,-9.894142e-004
2.152203e+003,-9.989680e-004
2.154132e+003,-9.621400e-004
2.156060e+003,-9.451464e-004
2.157989e+003,-9.774468e-004
2.159917e+003,-1.035462e-003
2.161846e+003,-1.084315e-003
2.163774e+003,-1.050734e-003
2.165703e+003,-9.921581e-004
2.167631e+003,-9.626028e-004
2.169560e+003,-9.202500e-004
2.171488e+003,-9.389968e-004
2.173417e+003,-1.027595e-003
2.175345e+003,-1.058733e-003
2.177274e+003,-1.041445e-003
2.179202e+003,-1.006737e-003
2.181131e+003,-9.622392e-004
2.183059e+003,-9.671982e-004
2.184988e+003,-9.559906e-004
2.186916e+003,-1.034504e-003
2.188845e+003,-1.165945e-003
2.190773e+003,-1.129593e-003
2.192702e+003,-9.889514e-004
2.194630e+003,-8.888382e-004
2.196559e+003,-8.226675e-004
2.198487e+003,-8.415508e-004
2.200416e+003,-8.926077e-004
2.202344e+003,-8.779923e-004
2.204273e+003,-9.047428e-004
2.206201e+003,-9.974805e-004
2.208130e+003,-9.523208e-004
2.210058e+003,-9.683884e-004
2.211987e+003,-1.022108e-003
2.213915e+003,-1.006108e-003
2.215844e+003,-1.040090e-003
2.217772e+003,-9.965879e-004
2.219701e+003,-8.510748e-004
2.221629e+003,-8.736936e-004
2.223558e+003,-9.517588e-004
2.225486e+003,-9.368478e-004
2.227415e+003,-9.453117e-004
2.229343e+003,-9.820421e-004
2.231272e+003,-1.089372e-003
2.233200e+003,-1.150810e-003
2.235129e+003,-1.136831e-003
2.237057e+003,-1.097271e-003
2.238986e+003,-9.976788e-004
2.240914e+003,-1.010604e-003
2.242843e+003,-1.061476e-003
2.244771e+003,-9.954309e-004
2.246700e+003,-9.957944e-004
2.248628e+003,-1.059625e-003
2.250557e+003,-1.094230e-003
2.252485e+003,-1.138053e-003
2.254414e+003,-1.131345e-003
2.256342e+003,-1.150810e-003
2.258271e+003,-1.245081e-003
2.260199e+003,-1.296817e-003
2.262128e+003,-1.319974e-003
2.264056e+003,-1.344154e-003
2.265985e+003,-1.386762e-003
2.267913e+003,-1.364567e-003
2.269842e+003,-1.327572e-003
2.271770e+003,-1.397365e-003
2.273699e+003,-1.478869e-003
2.275627e+003,-1.491780e-003
2.277556e+003,-1.481247e-003
2.279484e+003,-1.410575e-003
2.281413e+003,-1.322815e-003
2.283341e+003,-1.417577e-003
2.285270e+003,-1.588981e-003
2.287198e+003,-1.613212e-003
2.289127e+003,-1.512219e-003
2.291055e+003,-1.413184e-003
2.292984e+003,-1.452781e-003
2.294912e+003,-1.498648e-003
2.296841e+003,-1.434618e-003
2.298769e+003,-1.362783e-003
2.300698e+003,-1.412425e-003
2.302626e+003,-1.461433e-003
2.304555e+003,-1.409155e-003
2.306483e+003,-1.399511e-003
2.308412e+003,-1.402715e-003
2.310340e+003,-1.446804e-003
2.312269e+003,-1.457768e-003
2.314197e+003,-1.474081e-003
2.316125e+003,-1.527210e-003
2.318054e+003,-1.645925e-003
2.319983e+003,-1.622191e-003
2.321911e+003,-1.515521e-003
2.323840e+003,-1.589741e-003
2.325768e+003,-1.632391e-003
2.327697e+003,-1.522422e-003
2.329625e+003,-1.546194e-003
2.331553e+003,-1.560655e-003
2.333482e+003,-1.565971e-003
2.335411e+003,-1.562669e-003
2.337339e+003,-1.483690e-003
2.339268e+003,-1.431415e-003
2.341196e+003,-1.420153e-003
2.343125e+003,-1.390759e-003
2.345053e+003,-1.297643e-003
2.346981e+003,-1.134187e-003
2.348910e+003,-1.055526e-003
2.350839e+003,-1.163400e-003
2.352767e+003,-1.317662e-003
2.354696e+003,-1.410212e-003
2.356624e+003,-1.339562e-003
2.358552e+003,-1.367573e-003
2.360481e+003,-1.509941e-003
2.362409e+003,-1.587925e-003
2.364338e+003,-1.539195e-003
2.366267e+003,-1.444063e-003
2.368195e+003,-1.347589e-003
2.370124e+003,-1.196675e-003
2.372052e+003,-9.954309e-004
2.373980e+003,-8.504135e-004
2.375909e+003,-7.781181e-004
2.377838e+003,-5.791612e-004
2.379766e+003,-3.348229e-004
2.381695e+003,-2.487322e-004
2.383623e+003,-2.473083e-004
2.385552e+003,-2.317770e-004
2.387480e+003,-1.634526e-004
2.389408e+003,-1.340065e-004
2.391337e+003,-1.858091e-004
2.393266e+003,-1.559008e-004
2.395194e+003,-7.649976e-005
2.397123e+003,1.303026e-004
2.399051e+003,1.342799e-004
2.400979e+003,6.905683e-005
2.402908e+003,1.211218e-004
2.404836e+003,2.149937e-004
2.406765e+003,2.624014e-004
2.408694e+003,2.759948e-004
2.410622e+003,3.196291e-004
2.412551e+003,3.550769e-004
2.414479e+003,3.561381e-004
2.416407e+003,4.039592e-004
2.418336e+003,3.987855e-004
2.420264e+003,4.595803e-004
2.422193e+003,5.537576e-004
2.424122e+003,5.481840e-004
2.426050e+003,5.332220e-004
2.427979e+003,5.757209e-004
2.429907e+003,6.284771e-004
2.431835e+003,6.905651e-004
2.433764e+003,7.451940e-004
2.435692e+003,7.770252e-004
2.437621e+003,7.704862e-004
2.439550e+003,8.300383e-004
2.441478e+003,9.467429e-004
2.443406e+003,9.126082e-004
2.445335e+003,8.774800e-004
2.447263e+003,9.345564e-004
2.449192e+003,9.637781e-004
2.451121e+003,9.839357e-004
2.453049e+003,1.044214e-003
2.454978e+003,1.081648e-003
2.456906e+003,1.105067e-003
2.458834e+003,1.213472e-003
2.460763e+003,1.325892e-003
2.462691e+003,1.316421e-003
2.464620e+003,1.264079e-003
2.466549e+003,1.256436e-003
2.468477e+003,1.270227e-003
2.470406e+003,1.205531e-003
2.472334e+003,1.247796e-003
2.474262e+003,1.355772e-003
2.476191e+003,1.430198e-003
2.478119e+003,1.398684e-003
2.480048e+003,1.392834e-003
2.481977e+003,1.530238e-003
2.483905e+003,1.668751e-003
2.485833e+003,1.785082e-003
2.487762e+003,1.887701e-003
2.489690e+003,1.816424e-003
2.491619e+003,1.691968e-003
2.493547e+003,1.631998e-003
2.495476e+003,1.599472e-003
2.497405e+003,1.694130e-003
2.499333e+003,1.804346e-003
2.501261e+003,1.789075e-003
2.503190e+003,1.820184e-003
2.505118e+003,1.744161e-003
2.507047e+003,1.741101e-003
2.508975e+003,1.862044e-003
2.510904e+003,1.864373e-003
2.512833e+003,1.870130e-003
2.514761e+003,1.938386e-003
2.516689e+003,1.941948e-003
2.518618e+003,1.954861e-003
2.520546e+003,2.039976e-003
2.522475e+003,2.101034e-003
2.524403e+003,2.082190e-003
2.526332e+003,2.094741e-003
2.528260e+003,2.039144e-003
2.530189e+003,2.093343e-003
2.532117e+003,2.148482e-003
2.534046e+003,2.090513e-003
2.535974e+003,2.132266e-003
2.537903e+003,2.073367e-003
2.539831e+003,2.023198e-003
2.541760e+003,2.131899e-003
2.543688e+003,2.299383e-003
2.545617e+003,2.343754e-003
2.547545e+003,2.307677e-003
2.549474e+003,2.312407e-003
2.551402e+003,2.375036e-003
2.553331e+003,2.442239e-003
2.555259e+003,2.428111e-003
2.557188e+003,2.420281e-003
2.559116e+003,2.453635e-003
2.561045e+003,2.456501e-003
2.562973e+003,2.418349e-003
2.564902e+003,2.396659e-003
2.566830e+003,2.489591e-003
2.568759e+003,2.554145e-003
2.570687e+003,2.538780e-003
2.572616e+003,2.493956e-003
2.574544e+003,2.433043e-003
2.576473e+003,2.469030e-003
2.578401e+003,2.518151e-003
2.580330e+003,2.501154e-003
2.582258e+003,2.503454e-003
2.584187e+003,2.499188e-003
2.586115e+003,2.594142e-003
2.588044e+003,2.654178e-003
2.589972e+003,2.574343e-003
2.591901e+003,2.620109e-003
2.593829e+003,2.680482e-003
2.595758e+003,2.578743e-003
2.597686e+003,2.604409e-003
2.599615e+003,2.806823e-003
2.601543e+003,2.852480e-003
2.603472e+003,2.798252e-003
2.605400e+003,2.805956e-003
2.607329e+003,2.841240e-003
2.609257e+003,2.787147e-003
2.611186e+003,2.737296e-003
2.613114e+003,2.908782e-003
2.615043e+003,2.986477e-003
2.616971e+003,2.926362e-003
2.618900e+003,2.927262e-003
2.620828e+003,2.904479e-003
2.622757e+003,2.852079e-003
2.624685e+003,2.804555e-003
2.626614e+003,2.890870e-003
2.628542e+003,2.972231e-003
2.630471e+003,3.012067e-003
2.632399e+003,3.031519e-003
2.634328e+003,3.072595e-003
2.636256e+003,3.041362e-003
2.638185e+003,3.000089e-003
2.640113e+003,3.062851e-003
2.642042e+003,3.195511e-003
2.643970e+003,3.371586e-003
2.645899e+003,3.421577e-003
2.647827e+003,3.319230e-003
2.649756e+003,3.319965e-003
2.651684e+003,3.409822e-003
2.653613e+003,3.455910e-003
2.655541e+003,3.441215e-003
2.657470e+003,3.419039e-003
2.659398e+003,3.425718e-003
2.661327e+003,3.385544e-003
2.663255e+003,3.496257e-003
2.665184e+003,3.589292e-003
2.667112e+003,3.613313e-003
2.669041e+003,3.565071e-003
2.670969e+003,3.508549e-003
2.672898e+003,3.562164e-003
2.674826e+003,3.576129e-003
2.676755e+003,3.659490e-003
2.678683e+003,3.755199e-003
2.680612e+003,3.843809e-003
2.682540e+003,3.860056e-003
2.684469e+003,3.844478e-003
2.686397e+003,3.926921e-003
2.688326e+003,3.993929e-003
2.690254e+003,4.061584e-003
2.692183e+003,4.119515e-003
2.694111e+003,4.160192e-003
2.696040e+003,4.147949e-003
2.697968e+003,4.181067e-003
2.699897e+003,4.302424e-003
2.701825e+003,4.339471e-003
2.703754e+003,4.393087e-003
2.705682e+003,4.423748e-003
2.707611e+003,4.340407e-003
2.709539e+003,4.264110e-003
2.711468e+003,4.367851e-003
2.713396e+003,4.464989e-003
2.715325e+003,4.545139e-003
2.717253e+003,4.516680e-003
2.719182e+003,4.431983e-003
2.721110e+003,4.460168e-003
2.723039e+003,4.585789e-003
2.724967e+003,4.718580e-003
2.726896e+003,4.795259e-003
2.728824e+003,4.702067e-003
2.730753e+003,4.763567e-003
2.732681e+003,4.978587e-003
2.734610e+003,4.910688e-003
2.736538e+003,4.832481e-003
2.738467e+003,4.879960e-003
2.740395e+003,4.849971e-003
2.742324e+003,4.850306e-003
2.744252e+003,5.109721e-003
2.746181e+003,5.298180e-003
2.748109e+003,5.360234e-003
2.750038e+003,5.429343e-003
2.751966e+003,5.449038e-003
2.753895e+003,5.424881e-003
2.755823e+003,5.577160e-003
2.757752e+003,5.770925e-003
2.759680e+003,5.919765e-003
2.761609e+003,6.066405e-003
2.763537e+003,6.217867e-003
2.765466e+003,6.408690e-003
2.767394e+003,6.494143e-003
2.769323e+003,6.682227e-003
2.771251e+003,6.944255e-003
2.773180e+003,7.095686e-003
2.775108e+003,7.313986e-003
2.777037e+003,7.679143e-003
2.778965e+003,8.111884e-003
2.780894e+003,8.478928e-003
2.782822e+003,8.904688e-003
2.784750e+003,9.364687e-003
2.786679e+003,9.667128e-003
2.788608e+003,1.003817e-002
2.790536e+003,1.037294e-002
2.792465e+003,1.063439e-002
2.794393e+003,1.093704e-002
2.796322e+003,1.130811e-002
2.798250e+003,1.176563e-002
2.800178e+003,1.215097e-002
2.802107e+003,1.239767e-002
2.804036e+003,1.250409e-002
2.805964e+003,1.260375e-002
2.807893e+003,1.271520e-002
2.809821e+003,1.279320e-002
2.811750e+003,1.277214e-002
2.813678e+003,1.268255e-002
2.815606e+003,1.258816e-002
2.817535e+003,1.251012e-002
2.819464e+003,1.246535e-002
2.821392e+003,1.227086e-002
2.823321e+003,1.197767e-002
2.825249e+003,1.173121e-002
2.827177e+003,1.153436e-002
2.829106e+003,1.115541e-002
2.831034e+003,1.084639e-002
2.832963e+003,1.050266e-002
2.834892e+003,1.021738e-002
2.836820e+003,9.895810e-003
2.838749e+003,9.376571e-003
2.840677e+003,8.946086e-003
2.842605e+003,8.476902e-003
2.844534e+003,7.990268e-003
2.846462e+003,7.555794e-003
2.848391e+003,7.050995e-003
2.850320e+003,6.677517e-003
2.852248e+003,6.576418e-003
2.854177e+003,6.539651e-003
2.856105e+003,6.516476e-003
2.858033e+003,6.578907e-003
2.859962e+003,6.595088e-003
2.861890e+003,6.595223e-003
2.863819e+003,6.530267e-003
2.865748e+003,6.448169e-003
2.867676e+003,6.479278e-003
2.869604e+003,6.646596e-003
2.871533e+003,6.704503e-003
2.873461e+003,6.755518e-003
2.875390e+003,6.874029e-003
2.877319e+003,6.846830e-003
2.879247e+003,6.987015e-003
2.881176e+003,7.107811e-003
2.883104e+003,7.068204e-003
2.885032e+003,7.041162e-003
2.886961e+003,6.977385e-003
2.888889e+003,6.966139e-003
2.890818e+003,6.960685e-003
2.892747e+003,6.962065e-003
2.894675e+003,6.844406e-003
2.896604e+003,6.625804e-003
2.898532e+003,6.573895e-003
2.900460e+003,6.550449e-003
2.902389e+003,6.484524e-003
2.904317e+003,6.344434e-003
2.906246e+003,6.150817e-003
2.908175e+003,5.938676e-003
2.910103e+003,5.790870e-003
2.912031e+003,5.640530e-003
2.913960e+003,5.456890e-003
2.915888e+003,5.294390e-003
2.917817e+003,5.257865e-003
2.919745e+003,5.388044e-003
2.921674e+003,5.520242e-003
2.923603e+003,5.658153e-003
2.925531e+003,5.646036e-003
2.927459e+003,5.693670e-003
2.929388e+003,5.769851e-003
2.931316e+003,5.874792e-003
2.933245e+003,5.971998e-003
2.935173e+003,6.091538e-003
2.937102e+003,6.243446e-003
2.939031e+003,6.269699e-003
2.940959e+003,6.075275e-003
2.942887e+003,5.950836e-003
2.944816e+003,5.913316e-003
2.946744e+003,5.879192e-003
2.948673e+003,5.684841e-003
2.950601e+003,5.372613e-003
2.952530e+003,5.078509e-003
2.954458e+003,4.830907e-003
2.956387e+003,4.523476e-003
2.958315e+003,4.069177e-003
2.960244e+003,3.706139e-003
2.962172e+003,3.456043e-003
2.964101e+003,3.180558e-003
2.966029e+003,2.877861e-003
2.967958e+003,2.571277e-003
2.969886e+003,2.418915e-003
2.971815e+003,2.239895e-003
2.973743e+003,2.074566e-003
2.975672e+003,1.927303e-003
2.977600e+003,1.756271e-003
2.979529e+003,1.658673e-003
2.981457e+003,1.608718e-003
2.983386e+003,1.426042e-003
2.985314e+003,1.214701e-003
2.987243e+003,1.059958e-003
2.989171e+003,9.995110e-004
2.991100e+003,9.158622e-004
2.993028e+003,8.498244e-004
2.994957e+003,7.892406e-004
2.996885e+003,7.178123e-004
2.998814e+003,6.951781e-004
3.000742e+003,7.333449e-004
3.002671e+003,6.720805e-004
3.004599e+003,6.246280e-004
3.006528e+003,6.707199e-004
3.008456e+003,7.301255e-004
3.010385e+003,6.014678e-004
3.012313e+003,4.697633e-004
3.014242e+003,5.397574e-004
3.016170e+003,5.323926e-004
3.018099e+003,4.373244e-004
3.020027e+003,4.453841e-004
3.021956e+003,5.091046e-004
3.023884e+003,6.024632e-004
3.025813e+003,5.345489e-004
3.027741e+003,3.853541e-004
3.029670e+003,3.525899e-004
3.031598e+003,3.940430e-004
3.033527e+003,4.675078e-004
3.035455e+003,3.773618e-004
3.037384e+003,2.938327e-004
3.039312e+003,2.750002e-004
3.041241e+003,2.790451e-004
3.043169e+003,2.226184e-004
3.045098e+003,1.243036e-004
3.047026e+003,1.166143e-004
3.048955e+003,2.003415e-004
3.050883e+003,1.970928e-004
3.052812e+003,6.517955e-005
3.054740e+003,-2.209984e-005
3.056669e+003,6.063953e-005
3.058597e+003,6.325749e-005
3.060526e+003,-8.077328e-005
3.062454e+003,-1.625914e-004
3.064383e+003,-1.946189e-004
3.066311e+003,-2.571103e-004
3.068240e+003,-2.199212e-004
3.070168e+003,-2.531034e-004
3.072097e+003,-2.408177e-004
3.074025e+003,-1.342715e-004
3.075954e+003,-2.554214e-004
3.077882e+003,-4.043121e-004
3.079811e+003,-3.281680e-004
3.081739e+003,-2.492621e-004
3.083668e+003,-2.249881e-004
3.085596e+003,-3.488607e-004
3.087525e+003,-4.605839e-004
3.089453e+003,-3.676322e-004
3.091382e+003,-3.657120e-004
3.093310e+003,-4.407572e-004
3.095239e+003,-5.388227e-004
3.097167e+003,-5.157563e-004
3.099096e+003,-4.425115e-004
3.101024e+003,-5.288285e-004
3.102953e+003,-6.590658e-004
3.104881e+003,-6.030183e-004
3.106810e+003,-5.113216e-004
3.108738e+003,-5.379954e-004
3.110667e+003,-5.518611e-004
3.112595e+003,-5.850511e-004
3.114524e+003,-5.471951e-004
3.116452e+003,-5.178413e-004
3.118381e+003,-6.236648e-004
3.120309e+003,-6.707443e-004
3.122238e+003,-6.314069e-004
3.124166e+003,-6.189664e-004
3.126095e+003,-6.548972e-004
3.128023e+003,-6.256169e-004
3.129952e+003,-6.514234e-004
3.131880e+003,-7.190426e-004
3.133809e+003,-8.591436e-004
3.135737e+003,-8.574240e-004
3.137666e+003,-7.826163e-004
3.139594e+003,-7.984586e-004
3.141523e+003,-7.262869e-004
3.143451e+003,-5.354472e-004
3.145380e+003,-4.857715e-004
3.147308e+003,-6.511257e-004
3.149237e+003,-8.432043e-004
3.151165e+003,-8.223037e-004
3.153094e+003,-7.071008e-004
3.155022e+003,-7.347550e-004
3.156951e+003,-1.018340e-003
3.158879e+003,-9.580735e-004
3.160808e+003,-7.290986e-004
3.162736e+003,-7.302894e-004
3.164665e+003,-7.861552e-004
3.166593e+003,-7.827486e-004
3.168522e+003,-6.598599e-004
3.170450e+003,-6.732916e-004
3.172379e+003,-7.406428e-004
3.174307e+003,-6.751443e-004
3.176236e+003,-5.435219e-004
3.178164e+003,-6.337560e-004
3.180093e+003,-6.673367e-004
3.182021e+003,-7.775889e-004
3.183950e+003,-8.528936e-004
3.185878e+003,-8.028242e-004
3.187807e+003,-7.051822e-004
3.189735e+003,-7.974333e-004
3.191664e+003,-9.623714e-004
3.193592e+003,-9.967200e-004
3.195521e+003,-8.826878e-004
3.197449e+003,-7.376327e-004
3.199378e+003,-6.928431e-004
3.201306e+003,-6.135732e-004
3.203235e+003,-5.172124e-004
3.205163e+003,-4.472779e-004
3.207092e+003,-5.545416e-004
3.209020e+003,-5.953418e-004
3.210948e+003,-5.842570e-004
3.212877e+003,-6.237640e-004
3.214806e+003,-5.423967e-004
3.216734e+003,-4.096417e-004
3.218663e+003,-3.832580e-004
3.220591e+003,-3.091631e-004
3.222520e+003,-2.632695e-004
3.224448e+003,-2.837666e-004
3.226376e+003,-3.316114e-004
3.228305e+003,-1.912407e-004
3.230234e+003,-3.048225e-005
3.232162e+003,1.201938e-004
3.234091e+003,1.797562e-004
3.236019e+003,1.837008e-004
3.237948e+003,1.218178e-004
3.239876e+003,5.149335e-005
3.241804e+003,1.203927e-004
3.243733e+003,2.209277e-004
3.245662e+003,2.783157e-004
3.247590e+003,2.939984e-004
3.249519e+003,3.978901e-004
3.251447e+003,4.265782e-004
3.253375e+003,4.092325e-004
3.255304e+003,4.069441e-004
3.257232e+003,5.181609e-004
3.259161e+003,7.131991e-004
3.261090e+003,9.393712e-004
3.263018e+003,9.088562e-004
3.264947e+003,8.382049e-004
3.266875e+003,9.266203e-004
3.268803e+003,9.744047e-004
3.270732e+003,1.060224e-003
3.272660e+003,1.099818e-003
3.274589e+003,1.021895e-003
3.276518e+003,9.769950e-004
3.278446e+003,1.034848e-003
3.280375e+003,1.045875e-003
3.282303e+003,9.650068e-004
3.284231e+003,9.955259e-004
3.286160e+003,1.050891e-003
3.288088e+003,9.319996e-004
3.290017e+003,9.330289e-004
3.291946e+003,8.462722e-004
3.293874e+003,7.817387e-004
3.295802e+003,8.541403e-004
3.297731e+003,8.051741e-004
3.299659e+003,5.884946e-004
3.301588e+003,5.490134e-004
3.303516e+003,4.774588e-004
3.305445e+003,3.673136e-004
3.307374e+003,1.785629e-004
3.309302e+003,1.192842e-005
3.311230e+003,-1.531517e-004
3.313159e+003,-1.938902e-004
3.315087e+003,-1.455003e-004
3.317016e+003,-2.477719e-004
3.318944e+003,-4.047093e-004
3.320873e+003,-4.886509e-004
3.322802e+003,-4.710099e-004
3.324730e+003,-4.132168e-004
3.326658e+003,-6.123821e-004
3.328587e+003,-7.877097e-004
3.330515e+003,-8.123822e-004
3.332444e+003,-9.093388e-004
3.334372e+003,-1.092247e-003
3.336301e+003,-1.110689e-003
3.338229e+003,-1.032190e-003
3.340158e+003,-1.165416e-003
3.342086e+003,-1.264408e-003
3.344015e+003,-1.222283e-003
3.345943e+003,-1.155205e-003
3.347872e+003,-1.196775e-003
3.349800e+003,-1.268307e-003
3.351729e+003,-1.351520e-003
3.353657e+003,-1.478638e-003
3.355586e+003,-1.598555e-003
3.357514e+003,-1.623281e-003
3.359443e+003,-1.489403e-003
3.361371e+003,-1.419129e-003
3.363300e+003,-1.510932e-003
3.365229e+003,-1.571913e-003
3.367157e+003,-1.587694e-003
3.369085e+003,-1.746722e-003
3.371014e+003,-1.997062e-003
3.372942e+003,-2.196821e-003
3.374871e+003,-2.254509e-003
3.376799e+003,-2.237764e-003
3.378728e+003,-2.420509e-003
3.380656e+003,-2.605253e-003
3.382585e+003,-2.698715e-003
3.384513e+003,-2.742804e-003
3.386442e+003,-2.753077e-003
3.388370e+003,-2.707540e-003
3.390299e+003,-2.731741e-003
3.392227e+003,-2.915102e-003
3.394156e+003,-2.949132e-003
3.396084e+003,-2.970128e-003
3.398013e+003,-3.011163e-003
3.399941e+003,-2.971510e-003
3.401870e+003,-3.017184e-003
3.403798e+003,-3.041171e-003
3.405727e+003,-3.048738e-003
3.407655e+003,-3.123058e-003
3.409584e+003,-3.066637e-003
3.411512e+003,-2.995828e-003
3.413441e+003,-3.049397e-003
3.415369e+003,-3.197300e-003
3.417298e+003,-3.022515e-003
3.419226e+003,-3.111972e-003
3.421155e+003,-3.373823e-003
3.423083e+003,-3.292443e-003
3.425012e+003,-3.143355e-003
3.426940e+003,-3.188255e-003
3.428869e+003,-3.336439e-003
3.430797e+003,-3.210489e-003
3.432726e+003,-3.133355e-003
3.434654e+003,-3.247291e-003
3.436583e+003,-3.296093e-003
3.438511e+003,-3.319736e-003
3.440440e+003,-3.421032e-003
3.442368e+003,-3.323780e-003
3.444297e+003,-3.401834e-003
3.446225e+003,-3.581790e-003
3.448154e+003,-3.447232e-003
3.450082e+003,-3.390787e-003
3.452011e+003,-3.515173e-003
3.453939e+003,-3.587475e-003
3.455868e+003,-3.417942e-003
3.457796e+003,-3.409329e-003
3.459725e+003,-3.503999e-003
3.461653e+003,-3.536767e-003
3.463582e+003,-3.510835e-003
3.465510e+003,-3.663477e-003
3.467439e+003,-3.743703e-003
3.469367e+003,-3.675370e-003
3.471296e+003,-3.650499e-003
3.473224e+003,-3.780723e-003
3.475153e+003,-3.826246e-003
3.477081e+003,-3.774843e-003
3.479010e+003,-3.844638e-003
3.480938e+003,-3.893307e-003
3.482867e+003,-3.740155e-003
3.484795e+003,-3.550964e-003
3.486724e+003,-3.440296e-003
3.488652e+003,-3.322037e-003
3.490581e+003,-3.479117e-003
3.492509e+003,-3.632000e-003
3.494438e+003,-3.668044e-003
3.496366e+003,-3.701259e-003
3.498295e+003,-3.732764e-003
3.500223e+003,-3.904177e-003
3.502152e+003,-3.965480e-003
3.504080e+003,-3.717061e-003
3.506009e+003,-3.614815e-003
3.507937e+003,-3.791267e-003
3.509866e+003,-3.757762e-003
3.511794e+003,-3.647870e-003
3.513723e+003,-3.573607e-003
3.515651e+003,-3.713415e-003
3.517580e+003,-3.706647e-003
3.519508e+003,-3.635121e-003
3.521437e+003,-3.768077e-003
3.523365e+003,-3.682565e-003
3.525294e+003,-3.451506e-003
3.527222e+003,-3.556124e-003
3.529151e+003,-3.857841e-003
3.531079e+003,-3.768536e-003
3.533008e+003,-3.594376e-003
3.534936e+003,-3.571471e-003
3.536865e+003,-3.467514e-003
3.538793e+003,-3.510868e-003
3.540722e+003,-3.679576e-003
3.542650e+003,-3.723467e-003
3.544579e+003,-3.815868e-003
3.546507e+003,-4.012264e-003
3.548436e+003,-3.729742e-003
3.550364e+003,-3.397099e-003
3.552293e+003,-3.459263e-003
3.554221e+003,-3.657760e-003
3.556150e+003,-3.865295e-003
3.558078e+003,-3.815605e-003
3.560007e+003,-3.611102e-003
3.561935e+003,-3.634267e-003
3.563864e+003,-3.807755e-003
3.565792e+003,-4.150388e-003
3.567721e+003,-4.219335e-003
3.569649e+003,-3.844769e-003
3.571578e+003,-3.472050e-003
3.573506e+003,-3.367872e-003
3.575435e+003,-3.364781e-003
3.577363e+003,-3.540283e-003
3.579292e+003,-3.761014e-003
3.581220e+003,-3.638571e-003
3.583149e+003,-3.483653e-003
3.585077e+003,-3.688479e-003
3.587006e+003,-4.008784e-003
3.588934e+003,-3.830647e-003
3.590863e+003,-3.562795e-003
3.592791e+003,-3.583531e-003
3.594720e+003,-3.724551e-003
3.596648e+003,-3.832027e-003
3.598577e+003,-3.760226e-003
3.600505e+003,-3.570649e-003
3.602434e+003,-3.521615e-003
3.604362e+003,-3.738513e-003
3.606291e+003,-4.075817e-003
3.608219e+003,-4.077064e-003
3.610148e+003,-3.772084e-003
3.612076e+003,-3.947126e-003
3.614005e+003,-3.946863e-003
3.615933e+003,-3.853308e-003
3.617862e+003,-3.914586e-003
3.619790e+003,-3.733092e-003
3.621719e+003,-3.404102e-003
3.623647e+003,-3.407422e-003
3.625576e+003,-3.759832e-003
3.627504e+003,-4.502294e-003
3.629433e+003,-4.506327e-003
3.631361e+003,-3.911663e-003
3.633290e+003,-3.701719e-003
3.635218e+003,-3.610280e-003
3.637146e+003,-3.567002e-003
3.639075e+003,-3.680923e-003
3.641004e+003,-3.739071e-003
3.642932e+003,-3.641397e-003
3.644861e+003,-3.953824e-003
3.646789e+003,-4.626625e-003
3.648718e+003,-4.897032e-003
3.650646e+003,-4.512984e-003
3.652574e+003,-4.143004e-003
3.654503e+003,-4.335579e-003
3.656432e+003,-4.063869e-003
3.658360e+003,-3.548039e-003
3.660289e+003,-3.541696e-003
3.662217e+003,-3.608637e-003
3.664146e+003,-3.468599e-003
3.666074e+003,-3.631901e-003
3.668002e+003,-4.212116e-003
3.669931e+003,-4.628821e-003
3.671860e+003,-4.527641e-003
3.673788e+003,-5.114226e-003
3.675717e+003,-4.998126e-003
3.677645e+003,-4.154392e-003
3.679573e+003,-3.963083e-003
3.681502e+003,-3.806178e-003
3.683430e+003,-3.886674e-003
3.685359e+003,-4.006880e-003
3.687288e+003,-4.425520e-003
3.689216e+003,-4.465139e-003
3.691145e+003,-4.135258e-003
3.693073e+003,-3.794354e-003
3.695001e+003,-3.667617e-003
3.696930e+003,-3.878169e-003
3.698858e+003,-3.942562e-003
3.700787e+003,-4.244076e-003
3.702716e+003,-4.130270e-003
3.704644e+003,-3.698335e-003
3.706573e+003,-3.774088e-003
3.708501e+003,-4.225799e-003
3.710429e+003,-4.658619e-003
3.712358e+003,-4.470058e-003
3.714286e+003,-3.727639e-003
3.716215e+003,-3.448153e-003
3.718144e+003,-3.440099e-003
3.720072e+003,-3.410217e-003
3.722000e+003,-3.344659e-003
3.723929e+003,-3.531607e-003
3.725857e+003,-3.789033e-003
3.727786e+003,-3.619612e-003
3.729714e+003,-3.616031e-003
3.731643e+003,-4.090128e-003
3.733572e+003,-4.309432e-003
3.735500e+003,-4.411154e-003
3.737428e+003,-3.931332e-003
3.739357e+003,-3.607980e-003
3.741285e+003,-3.982323e-003
3.743214e+003,-4.957704e-003
3.745142e+003,-4.567644e-003
3.747071e+003,-3.927359e-003
3.749000e+003,-4.148321e-003
3.750928e+003,-4.116911e-003
3.752856e+003,-3.666959e-003
3.754785e+003,-3.145691e-003
3.756713e+003,-3.061735e-003
3.758642e+003,-3.120394e-003
3.760570e+003,-3.236636e-003
3.762499e+003,-3.054398e-003
3.764427e+003,-3.115196e-003
3.766356e+003,-3.077626e-003
3.768284e+003,-3.203088e-003
3.770213e+003,-2.982041e-003
3.772141e+003,-2.560491e-003
3.774070e+003,-2.621457e-003
3.775998e+003,-2.792289e-003
3.777927e+003,-2.958445e-003
3.779855e+003,-2.779482e-003
3.781784e+003,-2.429735e-003
3.783712e+003,-2.672964e-003
3.785641e+003,-2.697102e-003
3.787569e+003,-2.559305e-003
3.789498e+003,-2.479815e-003
3.791426e+003,-2.392864e-003
3.793355e+003,-2.433096e-003
3.795283e+003,-2.609370e-003
3.797212e+003,-2.679089e-003
3.799140e+003,-3.109603e-003
3.801069e+003,-3.699781e-003
3.802997e+003,-3.304380e-003
3.804926e+003,-3.229959e-003
3.806854e+003,-3.212956e-003
3.808783e+003,-2.576730e-003
3.810711e+003,-2.200118e-003
3.812640e+003,-2.301972e-003
3.814568e+003,-3.228742e-003
3.816497e+003,-3.495716e-003
3.818425e+003,-3.328614e-003
3.820354e+003,-3.599798e-003
3.822282e+003,-3.047357e-003
3.824211e+003,-2.561907e-003
3.826139e+003,-2.677706e-003
3.828068e+003,-2.603540e-003
3.829996e+003,-2.775564e-003
3.831925e+003,-3.054036e-003
3.833853e+003,-3.233873e-003
3.835782e+003,-3.376979e-003
3.837710e+003,-3.473496e-003
3.839639e+003,-3.292805e-003
3.841567e+003,-3.096806e-003
3.843496e+003,-2.836270e-003
3.845424e+003,-2.433887e-003
3.847353e+003,-2.423706e-003
3.849281e+003,-2.699308e-003
3.851210e+003,-3.546100e-003
3.853138e+003,-4.353194e-003
3.855067e+003,-3.426292e-003
3.856995e+003,-2.603969e-003
3.858924e+003,-2.480342e-003
3.860852e+003,-2.700691e-003
3.862781e+003,-3.020935e-003
3.864709e+003,-3.096346e-003
3.866638e+003,-2.919940e-003
3.868566e+003,-3.242095e-003
3.870495e+003,-3.037058e-003
3.872423e+003,-2.808025e-003
3.874352e+003,-2.759300e-003
3.876280e+003,-2.433491e-003
3.878209e+003,-2.793243e-003
3.880137e+003,-2.901674e-003
3.882066e+003,-2.521720e-003
3.883994e+003,-2.729041e-003
3.885923e+003,-2.862966e-003
3.887851e+003,-2.534435e-003
3.889780e+003,-2.597678e-003
3.891708e+003,-2.669901e-003
3.893637e+003,-2.514736e-003
3.895565e+003,-2.416193e-003
3.897494e+003,-2.572019e-003
3.899422e+003,-2.892984e-003
3.901351e+003,-2.989807e-003
3.903279e+003,-3.009320e-003
3.905208e+003,-2.377409e-003
3.907136e+003,-1.921460e-003
3.909065e+003,-2.054777e-003
3.910993e+003,-2.282427e-003
3.912922e+003,-2.434776e-003
3.914850e+003,-2.490621e-003
3.916779e+003,-2.509794e-003
3.918707e+003,-2.366106e-003
3.920636e+003,-2.228072e-003
3.922564e+003,-2.256619e-003
3.924493e+003,-2.336578e-003
3.926421e+003,-2.062757e-003
3.928350e+003,-2.071001e-003
3.930278e+003,-2.320462e-003
3.932207e+003,-2.267595e-003
3.934135e+003,-2.058833e-003
3.936064e+003,-1.965992e-003
3.937992e+003,-1.973974e-003
3.939921e+003,-2.108098e-003
3.941849e+003,-2.123562e-003
3.943778e+003,-1.974501e-003
3.945706e+003,-1.977932e-003
3.947635e+003,-2.202162e-003
3.949563e+003,-2.307081e-003
3.951492e+003,-2.255630e-003
3.953420e+003,-2.217260e-003
3.955349e+003,-2.335556e-003
3.957277e+003,-2.513912e-003
3.959206e+003,-2.386273e-003
3.961134e+003,-2.135399e-003
3.963063e+003,-2.120760e-003
3.964991e+003,-2.175854e-003
3.966920e+003,-2.026844e-003
3.968848e+003,-1.836047e-003
3.970777e+003,-1.824400e-003
3.972705e+003,-1.860198e-003
3.974634e+003,-2.039013e-003
3.976562e+003,-2.071100e-003
3.978491e+003,-1.749527e-003
3.980419e+003,-1.695006e-003
3.982348e+003,-2.113011e-003
3.984276e+003,-2.258563e-003
3.986205e+003,-2.093326e-003
3.988133e+003,-1.889956e-003
3.990062e+003,-1.957317e-003
3.991990e+003,-2.005670e-003
3.993919e+003,-1.879762e-003
3.995847e+003,-1.858548e-003
3.997776e+003,-1.998975e-003
3.999704e+003,-2.265947e-003
4.001633e+003,0.000000e+000
