3.991989e+002,2.592657e-002
4.011274e+002,2.726842e-002
4.030559e+002,1.561301e-002
4.049844e+002,1.102040e-002
4.069129e+002,1.395379e-002
4.088414e+002,1.951470e-002
4.107699e+002,2.155220e-002
4.126984e+002,2.284765e-002
4.146269e+002,1.984445e-002
4.165554e+002,1.918423e-002
4.184839e+002,2.085358e-002
4.204124e+002,2.148344e-002
4.223409e+002,2.493668e-002
4.242694e+002,2.369650e-002
4.261979e+002,1.894597e-002
4.281264e+002,1.760046e-002
4.300549e+002,1.851458e-002
4.319834e+002,1.476211e-002
4.339119e+002,1.408547e-002
4.358404e+002,2.242898e-002
4.377689e+002,2.370434e-002
4.396974e+002,1.755702e-002
4.416259e+002,1.394469e-002
4.435544e+002,1.808324e-002
4.454829e+002,2.195128e-002
4.474114e+002,2.481258e-002
4.493399e+002,2.236210e-002
4.512684e+002,1.903272e-002
4.531969e+002,1.751838e-002
4.551254e+002,1.934900e-002
4.570539e+002,1.991392e-002
4.589824e+002,1.746729e-002
4.609109e+002,1.668299e-002
4.628394e+002,1.804953e-002
4.647679e+002,1.792682e-002
4.666964e+002,1.752166e-002
4.686249e+002,1.507529e-002
4.705533e+002,1.669012e-002
4.724819e+002,1.962728e-002
4.744103e+002,1.982260e-002
4.763389e+002,1.854999e-002
4.782673e+002,1.826570e-002
4.801959e+002,1.919985e-002
4.821243e+002,2.026918e-002
4.840529e+002,1.816518e-002
4.859813e+002,1.844360e-002
4.879099e+002,1.875378e-002
4.898383e+002,2.003098e-002
4.917668e+002,1.968497e-002
4.936953e+002,2.119697e-002
4.956238e+002,2.105056e-002
4.975523e+002,1.950687e-002
4.994808e+002,1.966715e-002
5.014093e+002,2.135175e-002
5.033378e+002,2.083616e-002
5.052663e+002,1.951311e-002
5.071948e+002,1.855604e-002
5.091233e+002,1.911449e-002
5.110518e+002,1.762089e-002
5.129803e+002,1.692590e-002
5.149088e+002,1.769605e-002
5.168373e+002,1.887457e-002
5.187658e+002,1.845781e-002
5.206943e+002,1.894660e-002
5.226228e+002,1.817786e-002
5.245513e+002,1.634432e-002
5.264798e+002,1.639682e-002
5.284083e+002,1.825450e-002
5.303368e+002,1.753463e-002
5.322653e+002,1.688935e-002
5.341938e+002,1.689011e-002
5.361223e+002,1.696804e-002
5.380508e+002,1.601632e-002
5.399792e+002,1.776411e-002
5.419078e+002,1.848741e-002
5.438363e+002,1.921852e-002
5.457648e+002,2.009465e-002
5.476932e+002,1.994344e-002
5.496218e+002,1.950153e-002
5.515503e+002,1.999285e-002
5.534788e+002,1.955435e-002
5.554072e+002,2.121747e-002
5.573358e+002,2.187967e-002
5.592643e+002,2.204703e-002
5.611927e+002,2.212878e-002
5.631212e+002,2.225055e-002
5.650497e+002,2.148082e-002
5.669783e+002,2.133543e-002
5.689067e+002,2.177141e-002
5.708352e+002,2.200966e-002
5.727637e+002,1.999076e-002
5.746923e+002,1.852489e-002
5.766207e+002,1.953470e-002
5.785492e+002,1.943195e-002
5.804777e+002,7.395979e-003
5.824063e+002,6.944928e-003
5.843347e+002,1.852841e-002
5.862632e+002,2.194267e-002
5.881917e+002,2.172302e-002
5.901202e+002,2.024192e-002
5.920487e+002,1.896314e-002
5.939772e+002,1.935084e-002
5.959057e+002,2.083710e-002
5.978342e+002,2.329491e-002
5.997627e+002,2.577676e-002
6.016912e+002,2.690246e-002
6.036197e+002,2.793868e-002
6.055482e+002,2.954397e-002
6.074767e+002,3.179358e-002
6.094052e+002,3.245329e-002
6.113337e+002,3.223576e-002
6.132622e+002,3.153729e-002
6.151907e+002,3.009583e-002
6.171192e+002,2.957891e-002
6.190477e+002,2.976527e-002
6.209762e+002,3.041594e-002
6.229047e+002,2.863054e-002
6.248332e+002,2.452850e-002
6.267617e+002,2.115070e-002
6.286902e+002,1.848872e-002
6.306187e+002,1.723583e-002
6.325472e+002,1.700763e-002
6.344756e+002,1.700195e-002
6.364042e+002,1.680245e-002
6.383326e+002,1.677349e-002
6.402612e+002,1.640849e-002
6.421896e+002,1.641884e-002
6.441182e+002,1.596758e-002
6.460466e+002,1.532318e-002
6.479752e+002,1.555692e-002
6.499036e+002,1.585677e-002
6.518322e+002,1.526967e-002
6.537606e+002,1.540038e-002
6.556891e+002,1.578436e-002
6.576177e+002,1.492880e-002
6.595461e+002,1.454935e-002
6.614746e+002,1.414726e-002
6.634031e+002,1.346946e-002
6.653317e+002,1.453520e-002
6.672601e+002,1.891341e-002
6.691886e+002,1.760840e-002
6.711171e+002,1.446781e-002
6.730457e+002,1.462038e-002
6.749741e+002,1.437755e-002
6.769026e+002,1.412261e-002
6.788311e+002,1.435457e-002
6.807596e+002,1.464639e-002
6.826881e+002,1.510308e-002
6.846166e+002,1.551145e-002
6.865451e+002,1.555077e-002
6.884736e+002,1.538349e-002
6.904021e+002,1.533907e-002
6.923306e+002,1.554075e-002
6.942591e+002,1.566281e-002
6.961876e+002,1.574052e-002
6.981161e+002,1.578178e-002
7.000446e+002,1.568504e-002
7.019731e+002,1.597418e-002
7.039016e+002,1.608643e-002
7.058301e+002,1.598239e-002
7.077585e+002,1.629557e-002
7.096871e+002,1.673946e-002
7.116156e+002,1.690799e-002
7.135441e+002,1.686355e-002
7.154725e+002,1.693938e-002
7.174011e+002,1.703592e-002
7.193296e+002,1.757289e-002
7.212581e+002,1.842421e-002
7.231865e+002,1.892860e-002
7.251151e+002,1.872417e-002
7.270436e+002,1.897678e-002
7.289720e+002,1.939411e-002
7.309005e+002,1.955744e-002
7.328290e+002,2.031046e-002
7.347576e+002,2.062031e-002
7.366860e+002,2.015410e-002
7.386145e+002,1.977228e-002
7.405430e+002,2.000083e-002
7.424716e+002,2.045516e-002
7.444000e+002,2.029060e-002
7.463285e+002,2.004940e-002
7.482570e+002,1.985780e-002
7.501855e+002,1.972456e-002
7.521140e+002,2.031268e-002
7.540425e+002,2.082049e-002
7.559710e+002,2.066916e-002
7.578995e+002,2.085542e-002
7.598280e+002,2.090124e-002
7.617565e+002,2.099026e-002
7.636850e+002,2.088383e-002
7.656135e+002,2.091901e-002
7.675420e+002,2.161791e-002
7.694705e+002,2.175668e-002
7.713990e+002,2.119725e-002
7.733275e+002,2.070708e-002
7.752560e+002,2.064512e-002
7.771844e+002,2.069741e-002
7.791130e+002,2.041355e-002
7.810415e+002,2.008296e-002
7.829700e+002,1.973112e-002
7.848984e+002,1.970241e-002
7.868270e+002,1.965252e-002
7.887555e+002,1.949470e-002
7.906840e+002,1.928235e-002
7.926124e+002,1.872590e-002
7.945410e+002,1.826000e-002
7.964695e+002,1.798028e-002
7.983979e+002,1.778379e-002
8.003264e+002,1.742218e-002
8.022549e+002,1.750141e-002
8.041835e+002,1.791595e-002
8.061119e+002,1.803578e-002
8.080404e+002,1.807260e-002
8.099689e+002,1.868491e-002
8.118975e+002,1.921208e-002
8.138259e+002,1.928017e-002
8.157545e+002,1.937662e-002
8.176830e+002,1.958274e-002
8.196115e+002,1.930348e-002
8.215399e+002,1.896799e-002
8.234684e+002,1.895601e-002
8.253970e+002,1.910151e-002
8.273254e+002,1.913021e-002
8.292539e+002,1.904071e-002
8.311824e+002,1.883426e-002
8.331110e+002,1.881627e-002
8.350394e+002,1.860549e-002
8.369679e+002,1.867062e-002
8.388964e+002,1.881488e-002
8.408250e+002,1.914098e-002
8.427534e+002,1.916886e-002
8.446819e+002,1.867090e-002
8.466104e+002,1.840440e-002
8.485389e+002,1.855943e-002
8.504674e+002,1.851534e-002
8.523959e+002,1.837502e-002
8.543244e+002,1.856099e-002
8.562529e+002,1.878630e-002
8.581814e+002,1.870483e-002
8.601099e+002,1.843593e-002
8.620384e+002,1.833333e-002
8.639669e+002,1.889883e-002
8.658954e+002,1.889908e-002
8.678239e+002,1.846967e-002
8.697524e+002,1.837744e-002
8.716809e+002,1.809940e-002
8.736094e+002,1.827987e-002
8.755378e+002,1.827344e-002
8.774664e+002,1.872448e-002
8.793949e+002,1.910989e-002
8.813234e+002,1.879049e-002
8.832518e+002,1.875499e-002
8.851804e+002,1.875499e-002
8.871089e+002,1.846773e-002
8.890374e+002,1.831844e-002
8.909658e+002,1.871175e-002
8.928943e+002,1.929164e-002
8.948229e+002,1.924879e-002
8.967513e+002,1.900897e-002
8.986798e+002,1.903338e-002
9.006083e+002,1.908226e-002
9.025369e+002,1.933764e-002
9.044653e+002,1.927757e-002
9.063938e+002,1.911155e-002
9.083223e+002,1.880409e-002
9.102509e+002,1.837626e-002
9.121793e+002,1.835514e-002
9.141078e+002,1.804977e-002
9.160364e+002,1.782511e-002
9.179648e+002,1.790690e-002
9.198933e+002,1.769708e-002
9.218218e+002,1.753915e-002
9.237504e+002,1.723890e-002
9.256788e+002,1.697896e-002
9.276073e+002,1.662488e-002
9.295358e+002,1.625800e-002
9.314644e+002,1.616163e-002
9.333928e+002,1.621246e-002
9.353213e+002,1.636324e-002
9.372498e+002,1.642493e-002
9.391783e+002,1.608306e-002
9.411068e+002,1.604056e-002
9.430353e+002,1.616325e-002
9.449637e+002,1.606755e-002
9.468923e+002,1.613584e-002
9.488208e+002,1.611789e-002
9.507493e+002,1.613811e-002
9.526777e+002,1.623269e-002
9.546063e+002,1.638753e-002
9.565348e+002,1.670572e-002
9.584633e+002,1.658955e-002
9.603917e+002,1.640590e-002
9.623203e+002,1.643994e-002
9.642488e+002,1.636840e-002
9.661772e+002,1.615933e-002
9.681057e+002,1.606425e-002
9.700343e+002,1.588976e-002
9.719628e+002,1.598913e-002
9.738912e+002,1.606865e-002
9.758197e+002,1.583666e-002
9.777483e+002,1.549950e-002
9.796768e+002,1.536231e-002
9.816052e+002,1.502487e-002
9.835337e+002,1.465270e-002
9.854623e+002,1.450731e-002
9.873907e+002,1.437629e-002
9.893192e+002,1.441485e-002
9.912477e+002,1.429458e-002
9.931763e+002,1.401333e-002
9.951047e+002,1.382622e-002
9.970332e+002,1.345312e-002
9.989617e+002,1.328374e-002
1.000890e+003,1.342988e-002
1.002819e+003,1.362124e-002
1.004747e+003,1.342158e-002
1.006676e+003,1.336468e-002
1.008604e+003,1.336362e-002
1.010533e+003,1.354100e-002
1.012461e+003,1.376722e-002
1.014390e+003,1.390024e-002
1.016318e+003,1.399855e-002
1.018247e+003,1.401066e-002
1.020175e+003,1.406162e-002
1.022104e+003,1.435050e-002
1.024032e+003,1.460510e-002
1.025961e+003,1.501890e-002
1.027889e+003,1.527407e-002
1.029818e+003,1.546376e-002
1.031746e+003,1.561761e-002
1.033675e+003,1.587976e-002
1.035603e+003,1.598078e-002
1.037532e+003,1.620971e-002
1.039460e+003,1.649022e-002
1.041389e+003,1.664904e-002
1.043317e+003,1.678099e-002
1.045246e+003,1.710326e-002
1.047174e+003,1.732686e-002
1.049103e+003,1.728876e-002
1.051031e+003,1.716248e-002
1.052960e+003,1.716623e-002
1.054888e+003,1.711136e-002
1.056817e+003,1.686813e-002
1.058745e+003,1.674115e-002
1.060674e+003,1.693021e-002
1.062602e+003,1.695709e-002
1.064531e+003,1.696422e-002
1.066459e+003,1.698982e-002
1.068388e+003,1.684754e-002
1.070316e+003,1.679226e-002
1.072245e+003,1.699654e-002
1.074173e+003,1.690265e-002
1.076102e+003,1.667314e-002
1.078030e+003,1.663093e-002
1.079959e+003,1.672452e-002
1.081887e+003,1.696777e-002
1.083816e+003,1.726759e-002
1.085744e+003,1.730393e-002
1.087673e+003,1.710605e-002
1.089601e+003,1.733007e-002
1.091530e+003,1.784106e-002
1.093458e+003,1.771634e-002
1.095387e+003,1.752294e-002
1.097315e+003,1.788656e-002
1.099244e+003,1.810386e-002
1.101172e+003,1.821504e-002
1.103101e+003,1.832988e-002
1.105029e+003,1.830043e-002
1.106958e+003,1.856227e-002
1.108886e+003,1.888641e-002
1.110815e+003,1.879900e-002
1.112743e+003,1.840264e-002
1.114672e+003,1.838850e-002
1.116600e+003,1.893922e-002
1.118529e+003,1.923268e-002
1.120457e+003,1.896639e-002
1.122386e+003,1.881212e-002
1.124314e+003,1.880464e-002
1.126243e+003,1.862082e-002
1.128171e+003,1.839216e-002
1.130100e+003,1.856012e-002
1.132028e+003,1.841985e-002
1.133957e+003,1.805474e-002
1.135885e+003,1.793293e-002
1.137814e+003,1.763797e-002
1.139742e+003,1.712649e-002
1.141671e+003,1.691736e-002
1.143599e+003,1.676250e-002
1.145528e+003,1.635302e-002
1.147456e+003,1.600498e-002
1.149385e+003,1.587976e-002
1.151313e+003,1.549490e-002
1.153242e+003,1.509704e-002
1.155170e+003,1.498251e-002
1.157099e+003,1.491231e-002
1.159027e+003,1.494688e-002
1.160956e+003,1.484216e-002
1.162884e+003,1.465654e-002
1.164813e+003,1.454363e-002
1.166741e+003,1.442462e-002
1.168670e+003,1.439040e-002
1.170598e+003,1.454263e-002
1.172526e+003,1.471501e-002
1.174455e+003,1.456182e-002
1.176384e+003,1.447213e-002
1.178312e+003,1.440420e-002
1.180240e+003,1.430800e-002
1.182169e+003,1.411498e-002
1.184098e+003,1.399047e-002
1.186026e+003,1.385269e-002
1.187954e+003,1.379314e-002
1.189883e+003,1.376609e-002
1.191812e+003,1.371595e-002
1.193740e+003,1.364667e-002
1.195668e+003,1.331282e-002
1.197597e+003,1.302517e-002
1.199526e+003,1.285674e-002
1.201454e+003,1.284500e-002
1.203382e+003,1.298007e-002
1.205311e+003,1.297789e-002
1.207240e+003,1.290251e-002
1.209168e+003,1.279566e-002
1.211096e+003,1.280296e-002
1.213025e+003,1.295013e-002
1.214953e+003,1.295621e-002
1.216882e+003,1.284173e-002
1.218810e+003,1.272267e-002
1.220739e+003,1.275078e-002
1.222667e+003,1.288657e-002
1.224596e+003,1.301182e-002
1.226524e+003,1.305232e-002
1.228453e+003,1.309957e-002
1.230381e+003,1.313847e-002
1.232310e+003,1.318813e-002
1.234238e+003,1.330158e-002
1.236167e+003,1.341560e-002
1.238095e+003,1.363019e-002
1.240024e+003,1.372265e-002
1.241952e+003,1.377197e-002
1.243881e+003,1.363248e-002
1.245809e+003,1.362407e-002
1.247738e+003,1.364903e-002
1.249666e+003,1.371643e-002
1.251595e+003,1.369102e-002
1.253523e+003,1.361901e-002
1.255452e+003,1.358383e-002
1.257380e+003,1.356189e-002
1.259309e+003,1.363580e-002
1.261237e+003,1.367567e-002
1.263166e+003,1.385741e-002
1.265094e+003,1.418991e-002
1.267023e+003,1.439605e-002
1.268951e+003,1.456652e-002
1.270880e+003,1.475419e-002
1.272808e+003,1.472200e-002
1.274737e+003,1.474795e-002
1.276665e+003,1.493930e-002
1.278594e+003,1.505701e-002
1.280522e+003,1.520306e-002
1.282451e+003,1.531113e-002
1.284379e+003,1.546053e-002
1.286308e+003,1.569077e-002
1.288236e+003,1.581594e-002
1.290165e+003,1.595310e-002
1.292093e+003,1.601780e-002
1.294022e+003,1.602471e-002
1.295950e+003,1.623059e-002
1.297879e+003,1.625701e-002
1.299807e+003,1.617690e-002
1.301736e+003,1.599549e-002
1.303664e+003,1.574636e-002
1.305593e+003,1.563420e-002
1.307521e+003,1.564625e-002
1.309450e+003,1.550891e-002
1.311378e+003,1.523529e-002
1.313307e+003,1.501688e-002
1.315235e+003,1.490357e-002
1.317164e+003,1.488056e-002
1.319092e+003,1.463488e-002
1.321021e+003,1.432591e-002
1.322949e+003,1.422668e-002
1.324878e+003,1.419200e-002
1.326806e+003,1.398154e-002
1.328735e+003,1.398958e-002
1.330663e+003,1.414212e-002
1.332592e+003,1.411761e-002
1.334520e+003,1.399092e-002
1.336449e+003,1.401805e-002
1.338377e+003,1.423065e-002
1.340306e+003,1.421288e-002
1.342234e+003,1.398900e-002
1.344163e+003,1.386326e-002
1.346091e+003,1.383942e-002
1.348020e+003,1.390158e-002
1.349948e+003,1.392348e-002
1.351877e+003,1.390962e-002
1.353805e+003,1.401562e-002
1.355734e+003,1.407709e-002
1.357662e+003,1.398739e-002
1.359591e+003,1.395252e-002
1.361519e+003,1.406809e-002
1.363448e+003,1.404006e-002
1.365376e+003,1.361030e-002
1.367305e+003,1.335375e-002
1.369233e+003,1.329061e-002
1.371162e+003,1.332464e-002
1.373090e+003,1.343877e-002
1.375019e+003,1.336106e-002
1.376947e+003,1.318547e-002
1.378876e+003,1.309476e-002
1.380804e+003,1.307922e-002
1.382733e+003,1.312884e-002
1.384661e+003,1.320975e-002
1.386590e+003,1.335088e-002
1.388518e+003,1.311805e-002
1.390447e+003,1.272328e-002
1.392375e+003,1.267975e-002
1.394304e+003,1.281698e-002
1.396232e+003,1.259641e-002
1.398161e+003,1.258376e-002
1.400089e+003,1.258488e-002
1.402018e+003,1.237609e-002
1.403946e+003,1.228030e-002
1.405875e+003,1.214974e-002
1.407803e+003,1.192467e-002
1.409732e+003,1.194262e-002
1.411660e+003,1.207353e-002
1.413589e+003,1.215100e-002
1.415517e+003,1.236579e-002
1.417446e+003,1.292282e-002
1.419374e+003,1.335375e-002
1.421303e+003,1.323667e-002
1.423231e+003,1.348429e-002
1.425160e+003,1.384753e-002
1.427088e+003,1.414455e-002
1.429017e+003,1.463118e-002
1.430945e+003,1.504212e-002
1.432874e+003,1.546372e-002
1.434802e+003,1.622474e-002
1.436731e+003,1.691106e-002
1.438659e+003,1.675826e-002
1.440588e+003,1.678248e-002
1.442516e+003,1.723128e-002
1.444445e+003,1.765319e-002
1.446373e+003,1.813937e-002
1.448302e+003,1.849874e-002
1.450230e+003,1.853875e-002
1.452159e+003,1.869546e-002
1.454087e+003,1.921007e-002
1.456016e+003,2.042581e-002
1.457944e+003,2.050966e-002
1.459873e+003,1.953671e-002
1.461801e+003,1.910487e-002
1.463730e+003,1.911491e-002
1.465658e+003,1.887021e-002
1.467587e+003,1.830482e-002
1.469515e+003,1.814179e-002
1.471444e+003,1.837363e-002
1.473372e+003,1.811726e-002
1.475301e+003,1.734155e-002
1.477229e+003,1.652095e-002
1.479158e+003,1.578584e-002
1.481086e+003,1.537158e-002
1.483015e+003,1.482179e-002
1.484943e+003,1.440605e-002
1.486872e+003,1.443602e-002
1.488800e+003,1.442602e-002
1.490729e+003,1.414233e-002
1.492657e+003,1.353321e-002
1.494586e+003,1.338908e-002
1.496514e+003,1.355125e-002
1.498443e+003,1.320630e-002
1.500371e+003,1.263639e-002
1.502300e+003,1.235669e-002
1.504228e+003,1.290965e-002
1.506157e+003,1.400618e-002
1.508085e+003,1.347684e-002
1.510014e+003,1.256060e-002
1.511942e+003,1.225828e-002
1.513871e+003,1.223211e-002
1.515799e+003,1.248970e-002
1.517728e+003,1.255750e-002
1.519656e+003,1.270732e-002
1.521585e+003,1.303702e-002
1.523513e+003,1.267136e-002
1.525442e+003,1.262367e-002
1.527370e+003,1.245495e-002
1.529299e+003,1.228136e-002
1.531227e+003,1.239518e-002
1.533156e+003,1.283169e-002
1.535084e+003,1.261824e-002
1.537013e+003,1.287132e-002
1.538941e+003,1.401904e-002
1.540870e+003,1.419039e-002
1.542798e+003,1.367892e-002
1.544727e+003,1.334528e-002
1.546655e+003,1.281094e-002
1.548584e+003,1.276269e-002
1.550512e+003,1.292255e-002
1.552441e+003,1.308209e-002
1.554369e+003,1.331507e-002
1.556298e+003,1.366650e-002
1.558226e+003,1.491142e-002
1.560155e+003,1.464684e-002
1.562083e+003,1.354681e-002
1.564012e+003,1.347684e-002
1.565940e+003,1.361665e-002
1.567869e+003,1.403787e-002
1.569797e+003,1.450128e-002
1.571726e+003,1.412035e-002
1.573654e+003,1.415338e-002
1.575583e+003,1.487439e-002
1.577511e+003,1.476769e-002
1.579440e+003,1.437262e-002
1.581368e+003,1.430375e-002
1.583297e+003,1.417392e-002
1.585225e+003,1.417245e-002
1.587154e+003,1.415020e-002
1.589082e+003,1.401278e-002
1.591010e+003,1.389214e-002
1.592939e+003,1.387654e-002
1.594868e+003,1.381106e-002
1.596796e+003,1.369212e-002
1.598724e+003,1.359693e-002
1.600653e+003,1.351728e-002
1.602582e+003,1.342609e-002
1.604510e+003,1.324743e-002
1.606438e+003,1.309664e-002
1.608367e+003,1.309169e-002
1.610296e+003,1.289521e-002
1.612224e+003,1.252591e-002
1.614152e+003,1.260020e-002
1.616081e+003,1.308301e-002
1.618010e+003,1.269803e-002
1.619938e+003,1.219128e-002
1.621866e+003,1.238659e-002
1.623795e+003,1.232645e-002
1.625724e+003,1.199061e-002
1.627652e+003,1.182769e-002
1.629580e+003,1.158676e-002
1.631509e+003,1.135018e-002
1.633438e+003,1.172934e-002
1.635366e+003,1.236804e-002
1.637294e+003,1.178248e-002
1.639223e+003,1.098920e-002
1.641151e+003,1.060682e-002
1.643080e+003,1.044275e-002
1.645008e+003,1.082614e-002
1.646937e+003,1.099729e-002
1.648865e+003,1.032378e-002
1.650794e+003,1.050837e-002
1.652722e+003,1.170262e-002
1.654651e+003,1.070091e-002
1.656579e+003,9.618480e-003
1.658508e+003,9.417370e-003
1.660436e+003,9.457158e-003
1.662365e+003,9.671669e-003
1.664293e+003,9.562452e-003
1.666222e+003,9.398950e-003
1.668150e+003,9.896318e-003
1.670079e+003,1.021680e-002
1.672007e+003,9.882895e-003
1.673936e+003,1.009270e-002
1.675864e+003,1.014689e-002
1.677793e+003,9.520555e-003
1.679721e+003,9.403386e-003
1.681650e+003,9.802500e-003
1.683578e+003,1.070672e-002
1.685507e+003,1.033972e-002
1.687435e+003,9.601846e-003
1.689364e+003,9.465048e-003
1.691292e+003,9.362723e-003
1.693221e+003,9.553002e-003
1.695149e+003,1.027712e-002
1.697078e+003,1.022118e-002
1.699006e+003,1.064251e-002
1.700935e+003,1.086922e-002
1.702863e+003,1.003892e-002
1.704792e+003,1.010548e-002
1.706720e+003,1.008073e-002
1.708649e+003,9.862253e-003
1.710577e+003,9.768814e-003
1.712506e+003,9.940388e-003
1.714434e+003,1.032232e-002
1.716363e+003,1.089616e-002
1.718291e+003,1.093157e-002
1.720220e+003,1.018689e-002
1.722148e+003,9.841679e-003
1.724077e+003,9.873472e-003
1.726005e+003,9.939540e-003
1.727934e+003,1.000921e-002
1.729862e+003,1.003956e-002
1.731791e+003,1.047833e-002
1.733719e+003,1.114348e-002
1.735648e+003,1.063218e-002
1.737576e+003,1.021016e-002
1.739505e+003,1.038112e-002
1.741433e+003,1.022454e-002
1.743362e+003,1.018882e-002
1.745290e+003,1.017573e-002
1.747219e+003,1.044988e-002
1.749147e+003,1.083046e-002
1.751076e+003,1.093439e-002
1.753004e+003,1.053637e-002
1.754933e+003,1.045487e-002
1.756861e+003,1.060173e-002
1.758790e+003,1.039256e-002
1.760718e+003,1.052147e-002
1.762647e+003,1.063375e-002
1.764575e+003,1.029310e-002
1.766504e+003,1.038720e-002
1.768432e+003,1.057959e-002
1.770361e+003,1.074238e-002
1.772289e+003,1.097914e-002
1.774218e+003,1.065918e-002
1.776146e+003,1.037440e-002
1.778075e+003,1.028404e-002
1.780003e+003,1.033579e-002
1.781932e+003,1.033911e-002
1.783860e+003,1.041927e-002
1.785789e+003,1.038231e-002
1.787717e+003,1.025151e-002
1.789646e+003,1.046550e-002
1.791574e+003,1.082917e-002
1.793503e+003,1.070482e-002
1.795431e+003,1.040888e-002
1.797360e+003,1.046404e-002
1.799288e+003,1.058974e-002
1.801217e+003,1.056798e-002
1.803145e+003,1.041540e-002
1.805074e+003,1.039714e-002
1.807002e+003,1.040328e-002
1.808931e+003,1.041886e-002
1.810859e+003,1.045134e-002
1.812788e+003,1.041279e-002
1.814716e+003,1.030223e-002
1.816645e+003,1.033283e-002
1.818573e+003,1.041109e-002
1.820502e+003,1.040383e-002
1.822430e+003,1.043851e-002
1.824359e+003,1.065483e-002
1.826287e+003,1.068414e-002
1.828216e+003,1.066638e-002
1.830144e+003,1.072387e-002
1.832073e+003,1.041754e-002
1.834001e+003,1.034386e-002
1.835930e+003,1.046658e-002
1.837858e+003,1.045148e-002
1.839787e+003,1.033640e-002
1.841715e+003,1.045565e-002
1.843644e+003,1.086409e-002
1.845572e+003,1.063745e-002
1.847501e+003,1.030464e-002
1.849429e+003,1.033518e-002
1.851358e+003,1.042921e-002
1.853286e+003,1.045952e-002
1.855215e+003,1.039358e-002
1.857143e+003,1.048437e-002
1.859072e+003,1.052717e-002
1.861000e+003,1.053916e-002
1.862929e+003,1.049523e-002
1.864857e+003,1.053152e-002
1.866786e+003,1.063181e-002
1.868714e+003,1.078545e-002
1.870643e+003,1.062505e-002
1.872571e+003,1.045552e-002
1.874500e+003,1.049666e-002
1.876428e+003,1.054764e-002
1.878357e+003,1.052062e-002
1.880285e+003,1.044795e-002
1.882214e+003,1.044391e-002
1.884142e+003,1.049649e-002
1.886071e+003,1.056007e-002
1.887999e+003,1.063670e-002
1.889928e+003,1.059894e-002
1.891856e+003,1.037827e-002
1.893785e+003,1.043597e-002
1.895713e+003,1.050786e-002
1.897642e+003,1.049207e-002
1.899570e+003,1.059735e-002
1.901499e+003,1.060689e-002
1.903427e+003,1.049061e-002
1.905356e+003,1.044835e-002
1.907284e+003,1.050178e-002
1.909213e+003,1.054971e-002
1.911141e+003,1.048776e-002
1.913070e+003,1.045453e-002
1.914998e+003,1.054031e-002
1.916927e+003,1.071912e-002
1.918855e+003,1.071711e-002
1.920784e+003,1.058285e-002
1.922712e+003,1.056713e-002
1.924641e+003,1.049051e-002
1.926569e+003,1.049343e-002
1.928498e+003,1.046740e-002
1.930426e+003,1.048729e-002
1.932355e+003,1.042908e-002
1.934283e+003,1.037685e-002
1.936212e+003,1.040060e-002
1.938140e+003,1.038788e-002
1.940069e+003,1.048776e-002
1.941997e+003,1.075339e-002
1.943926e+003,1.068577e-002
1.945854e+003,1.047513e-002
1.947783e+003,1.048348e-002
1.949711e+003,1.049041e-002
1.951640e+003,1.047031e-002
1.953568e+003,1.045368e-002
1.955497e+003,1.039307e-002
1.957425e+003,1.038445e-002
1.959354e+003,1.045460e-002
1.961282e+003,1.052693e-002
1.963211e+003,1.045341e-002
1.965139e+003,1.041856e-002
1.967068e+003,1.043464e-002
1.968996e+003,1.032408e-002
1.970925e+003,1.033687e-002
1.972853e+003,1.046288e-002
1.974782e+003,1.043868e-002
1.976710e+003,1.035540e-002
1.978639e+003,1.037505e-002
1.980567e+003,1.041238e-002
1.982496e+003,1.032656e-002
1.984424e+003,1.027692e-002
1.986353e+003,1.034183e-002
1.988281e+003,1.034162e-002
1.990210e+003,1.035418e-002
1.992138e+003,1.046512e-002
1.994067e+003,1.045161e-002
1.995995e+003,1.035842e-002
1.997924e+003,1.028913e-002
1.999852e+003,1.020412e-002
2.001781e+003,1.017220e-002
2.003709e+003,1.023095e-002
2.005638e+003,1.020595e-002
2.007566e+003,1.021647e-002
2.009495e+003,1.023726e-002
2.011423e+003,1.022471e-002
2.013352e+003,1.035448e-002
2.015280e+003,1.044072e-002
2.017208e+003,1.045087e-002
2.019137e+003,1.041472e-002
2.021066e+003,1.033345e-002
2.022994e+003,1.026097e-002
2.024922e+003,1.031468e-002
2.026851e+003,1.039711e-002
2.028780e+003,1.035299e-002
2.030708e+003,1.036239e-002
2.032636e+003,1.046132e-002
2.034565e+003,1.047575e-002
2.036494e+003,1.035208e-002
2.038422e+003,1.030125e-002
2.040350e+003,1.031139e-002
2.042279e+003,1.037298e-002
2.044208e+003,1.038706e-002
2.046136e+003,1.032109e-002
2.048064e+003,1.029497e-002
2.049993e+003,1.037420e-002
2.051921e+003,1.036884e-002
2.053850e+003,1.036874e-002
2.055778e+003,1.033168e-002
2.057707e+003,1.032557e-002
2.059635e+003,1.031797e-002
2.061564e+003,1.029151e-002
2.063492e+003,1.023143e-002
2.065421e+003,1.025962e-002
2.067349e+003,1.037498e-002
2.069278e+003,1.033989e-002
2.071206e+003,1.034688e-002
2.073135e+003,1.042555e-002
2.075063e+003,1.046628e-002
2.076992e+003,1.046835e-002
2.078920e+003,1.042738e-002
2.080849e+003,1.044045e-002
2.082777e+003,1.040400e-002
2.084706e+003,1.027437e-002
2.086634e+003,1.026304e-002
2.088563e+003,1.033789e-002
2.090491e+003,1.036456e-002
2.092420e+003,1.034189e-002
2.094348e+003,1.041306e-002
2.096277e+003,1.046607e-002
2.098205e+003,1.040315e-002
2.100134e+003,1.035418e-002
2.102062e+003,1.039164e-002
2.103991e+003,1.039334e-002
2.105919e+003,1.039751e-002
2.107848e+003,1.046461e-002
2.109776e+003,1.042280e-002
2.111705e+003,1.034692e-002
2.113633e+003,1.038696e-002
2.115562e+003,1.046275e-002
2.117490e+003,1.044486e-002
2.119419e+003,1.048960e-002
2.121347e+003,1.047273e-002
2.123276e+003,1.039728e-002
2.125204e+003,1.043654e-002
2.127133e+003,1.049509e-002
2.129061e+003,1.057049e-002
2.130990e+003,1.063690e-002
2.132918e+003,1.056414e-002
2.134847e+003,1.050086e-002
2.136775e+003,1.051275e-002
2.138704e+003,1.055997e-002
2.140632e+003,1.052996e-002
2.142561e+003,1.037125e-002
2.144489e+003,1.034960e-002
2.146418e+003,1.041296e-002
2.148346e+003,1.052320e-002
2.150275e+003,1.056380e-002
2.152203e+003,1.056486e-002
2.154132e+003,1.056794e-002
2.156060e+003,1.054387e-002
2.157989e+003,1.058872e-002
2.159917e+003,1.061901e-002
2.161846e+003,1.060431e-002
2.163774e+003,1.062746e-002
2.165703e+003,1.064200e-002
2.167631e+003,1.069171e-002
2.169560e+003,1.071599e-002
2.171488e+003,1.067001e-002
2.173417e+003,1.063802e-002
2.175345e+003,1.067269e-002
2.177274e+003,1.070614e-002
2.179202e+003,1.073803e-002
2.181131e+003,1.068448e-002
2.183059e+003,1.064852e-002
2.184988e+003,1.073861e-002
2.186916e+003,1.071345e-002
2.188845e+003,1.060706e-002
2.190773e+003,1.056730e-002
2.192702e+003,1.060825e-002
2.194630e+003,1.061361e-002
2.196559e+003,1.062234e-002
2.198487e+003,1.063032e-002
2.200416e+003,1.060923e-002
2.202344e+003,1.064733e-002
2.204273e+003,1.068743e-002
2.206201e+003,1.061001e-002
2.208130e+003,1.056462e-002
2.210058e+003,1.063470e-002
2.211987e+003,1.070540e-002
2.213915e+003,1.067636e-002
2.215844e+003,1.067103e-002
2.217772e+003,1.065521e-002
2.219701e+003,1.065755e-002
2.221629e+003,1.067660e-002
2.223558e+003,1.068434e-002
2.225486e+003,1.067388e-002
2.227415e+003,1.061823e-002
2.229343e+003,1.057423e-002
2.231272e+003,1.055582e-002
2.233200e+003,1.062509e-002
2.235129e+003,1.068651e-002
2.237057e+003,1.065830e-002
2.238986e+003,1.058217e-002
2.240914e+003,1.051855e-002
2.242843e+003,1.056465e-002
2.244771e+003,1.069857e-002
2.246700e+003,1.073406e-002
2.248628e+003,1.066512e-002
2.250557e+003,1.057141e-002
2.252485e+003,1.058397e-002
2.254414e+003,1.068407e-002
2.256342e+003,1.073902e-002
2.258271e+003,1.066869e-002
2.260199e+003,1.069684e-002
2.262128e+003,1.080804e-002
2.264056e+003,1.078766e-002
2.265985e+003,1.067032e-002
2.267913e+003,1.063395e-002
2.269842e+003,1.073501e-002
2.271770e+003,1.073854e-002
2.273699e+003,1.064417e-002
2.275627e+003,1.060767e-002
2.277556e+003,1.059283e-002
2.279484e+003,1.054214e-002
2.281413e+003,1.053216e-002
2.283341e+003,1.051970e-002
2.285270e+003,1.063629e-002
2.287198e+003,1.067497e-002
2.289127e+003,1.074737e-002
2.291055e+003,1.080960e-002
2.292984e+003,1.075784e-002
2.294912e+003,1.077465e-002
2.296841e+003,1.095352e-002
2.298769e+003,1.118196e-002
2.300698e+003,1.131668e-002
2.302626e+003,1.149479e-002
2.304555e+003,1.159765e-002
2.306483e+003,1.173451e-002
2.308412e+003,1.202250e-002
2.310340e+003,1.248015e-002
2.312269e+003,1.298676e-002
2.314197e+003,1.344215e-002
2.316125e+003,1.400974e-002
2.318054e+003,1.463693e-002
2.319983e+003,1.524253e-002
2.321911e+003,1.586584e-002
2.323840e+003,1.649166e-002
2.325768e+003,1.691757e-002
2.327697e+003,1.746191e-002
2.329625e+003,1.814753e-002
2.331553e+003,1.847357e-002
2.333482e+003,1.850971e-002
2.335411e+003,1.862766e-002
2.337339e+003,1.883796e-002
2.339268e+003,1.890742e-002
2.341196e+003,1.869587e-002
2.343125e+003,1.811336e-002
2.345053e+003,1.691247e-002
2.346981e+003,1.500192e-002
2.348910e+003,1.397387e-002
2.350839e+003,1.524939e-002
2.352767e+003,1.756772e-002
2.354696e+003,1.951411e-002
2.356624e+003,2.087778e-002
2.358552e+003,2.154492e-002
2.360481e+003,2.169039e-002
2.362409e+003,2.161216e-002
2.364338e+003,2.128824e-002
2.366267e+003,2.055037e-002
2.368195e+003,1.964281e-002
2.370124e+003,1.847088e-002
2.372052e+003,1.702066e-002
2.373980e+003,1.563093e-002
2.375909e+003,1.424154e-002
2.377838e+003,1.293132e-002
2.379766e+003,1.189253e-002
2.381695e+003,1.124955e-002
2.383623e+003,1.089236e-002
2.385552e+003,1.066336e-002
2.387480e+003,1.055759e-002
2.389408e+003,1.055565e-002
2.391337e+003,1.057952e-002
2.393266e+003,1.055012e-002
2.395194e+003,1.054595e-002
2.397123e+003,1.057433e-002
2.399051e+003,1.062784e-002
2.400979e+003,1.059470e-002
2.402908e+003,1.056316e-002
2.404836e+003,1.057073e-002
2.406765e+003,1.053114e-002
2.408694e+003,1.046617e-002
2.410622e+003,1.053501e-002
2.412551e+003,1.062105e-002
2.414479e+003,1.063500e-002
2.416407e+003,1.063568e-002
2.418336e+003,1.066757e-002
2.420264e+003,1.063422e-002
2.422193e+003,1.058010e-002
2.424122e+003,1.065167e-002
2.426050e+003,1.071188e-002
2.427979e+003,1.066417e-002
2.429907e+003,1.065174e-002
2.431835e+003,1.066753e-002
2.433764e+003,1.066926e-002
2.435692e+003,1.068455e-002
2.437621e+003,1.074259e-002
2.439550e+003,1.071073e-002
2.441478e+003,1.064760e-002
2.443406e+003,1.067572e-002
2.445335e+003,1.074194e-002
2.447263e+003,1.071511e-002
2.449192e+003,1.071232e-002
2.451121e+003,1.075176e-002
2.453049e+003,1.084045e-002
2.454978e+003,1.084225e-002
2.456906e+003,1.083559e-002
2.458834e+003,1.086396e-002
2.460763e+003,1.085281e-002
2.462691e+003,1.072761e-002
2.464620e+003,1.063483e-002
2.466549e+003,1.073294e-002
2.468477e+003,1.090245e-002
2.470406e+003,1.085281e-002
2.472334e+003,1.077706e-002
2.474262e+003,1.082119e-002
2.476191e+003,1.079350e-002
2.478119e+003,1.081548e-002
2.480048e+003,1.085730e-002
2.481977e+003,1.088023e-002
2.483905e+003,1.087170e-002
2.485833e+003,1.086525e-002
2.487762e+003,1.088967e-002
2.489690e+003,1.088777e-002
2.491619e+003,1.092086e-002
2.493547e+003,1.090496e-002
2.495476e+003,1.090507e-002
2.497405e+003,1.094924e-002
2.499333e+003,1.097207e-002
2.501261e+003,1.095376e-002
2.503190e+003,1.093551e-002
2.505118e+003,1.088431e-002
2.507047e+003,1.086202e-002
2.508975e+003,1.089012e-002
2.510904e+003,1.093857e-002
2.512833e+003,1.098264e-002
2.514761e+003,1.100041e-002
2.516689e+003,1.101999e-002
2.518618e+003,1.112896e-002
2.520546e+003,1.118206e-002
2.522475e+003,1.112114e-002
2.524403e+003,1.103318e-002
2.526332e+003,1.101265e-002
2.528260e+003,1.108260e-002
2.530189e+003,1.113610e-002
2.532117e+003,1.108725e-002
2.534046e+003,1.097815e-002
2.535974e+003,1.097887e-002
2.537903e+003,1.097347e-002
2.539831e+003,1.104534e-002
2.541760e+003,1.108232e-002
2.543688e+003,1.114650e-002
2.545617e+003,1.115259e-002
2.547545e+003,1.117717e-002
2.549474e+003,1.115952e-002
2.551402e+003,1.106971e-002
2.553331e+003,1.103093e-002
2.555259e+003,1.108358e-002
2.557188e+003,1.109663e-002
2.559116e+003,1.106774e-002
2.561045e+003,1.108667e-002
2.562973e+003,1.114147e-002
2.564902e+003,1.124156e-002
2.566830e+003,1.124367e-002
2.568759e+003,1.113831e-002
2.570687e+003,1.118709e-002
2.572616e+003,1.127081e-002
2.574544e+003,1.133263e-002
2.576473e+003,1.126078e-002
2.578401e+003,1.119134e-002
2.580330e+003,1.114028e-002
2.582258e+003,1.112036e-002
2.584187e+003,1.118509e-002
2.586115e+003,1.119593e-002
2.588044e+003,1.118866e-002
2.589972e+003,1.124116e-002
2.591901e+003,1.131678e-002
2.593829e+003,1.129794e-002
2.595758e+003,1.121059e-002
2.597686e+003,1.115663e-002
2.599615e+003,1.111339e-002
2.601543e+003,1.117220e-002
2.603472e+003,1.123215e-002
2.605400e+003,1.126020e-002
2.607329e+003,1.132114e-002
2.609257e+003,1.145437e-002
2.611186e+003,1.147046e-002
2.613114e+003,1.136130e-002
2.615043e+003,1.137960e-002
2.616971e+003,1.143831e-002
2.618900e+003,1.147387e-002
2.620828e+003,1.150200e-002
2.622757e+003,1.159040e-002
2.624685e+003,1.160514e-002
2.626614e+003,1.154008e-002
2.628542e+003,1.153381e-002
2.630471e+003,1.157244e-002
2.632399e+003,1.160633e-002
2.634328e+003,1.163339e-002
2.636256e+003,1.165343e-002
2.638185e+003,1.174830e-002
2.640113e+003,1.179473e-002
2.642042e+003,1.175695e-002
2.643970e+003,1.183804e-002
2.645899e+003,1.186951e-002
2.647827e+003,1.187210e-002
2.649756e+003,1.200247e-002
2.651684e+003,1.209063e-002
2.653613e+003,1.200894e-002
2.655541e+003,1.205452e-002
2.657470e+003,1.209952e-002
2.659398e+003,1.205329e-002
2.661327e+003,1.206058e-002
2.663255e+003,1.207339e-002
2.665184e+003,1.207860e-002
2.667112e+003,1.219224e-002
2.669041e+003,1.223286e-002
2.670969e+003,1.223940e-002
2.672898e+003,1.222056e-002
2.674826e+003,1.226790e-002
2.676755e+003,1.233668e-002
2.678683e+003,1.226121e-002
2.680612e+003,1.230379e-002
2.682540e+003,1.242007e-002
2.684469e+003,1.235441e-002
2.686397e+003,1.244244e-002
2.688326e+003,1.265904e-002
2.690254e+003,1.277378e-002
2.692183e+003,1.273836e-002
2.694111e+003,1.265560e-002
2.696040e+003,1.258655e-002
2.697968e+003,1.269930e-002
2.699897e+003,1.281794e-002
2.701825e+003,1.281258e-002
2.703754e+003,1.285951e-002
2.705682e+003,1.300947e-002
2.707611e+003,1.305006e-002
2.709539e+003,1.310507e-002
2.711468e+003,1.316945e-002
2.713396e+003,1.322816e-002
2.715325e+003,1.325904e-002
2.717253e+003,1.316935e-002
2.719182e+003,1.325768e-002
2.721110e+003,1.337459e-002
2.723039e+003,1.349369e-002
2.724967e+003,1.372190e-002
2.726896e+003,1.378185e-002
2.728824e+003,1.381264e-002
2.730753e+003,1.384855e-002
2.732681e+003,1.384534e-002
2.734610e+003,1.395334e-002
2.736538e+003,1.400039e-002
2.738467e+003,1.404690e-002
2.740395e+003,1.411710e-002
2.742324e+003,1.420692e-002
2.744252e+003,1.423151e-002
2.746181e+003,1.433755e-002
2.748109e+003,1.443102e-002
2.750038e+003,1.451050e-002
2.751966e+003,1.459605e-002
2.753895e+003,1.478024e-002
2.755823e+003,1.498807e-002
2.757752e+003,1.508682e-002
2.759680e+003,1.517424e-002
2.761609e+003,1.544069e-002
2.763537e+003,1.579443e-002
2.765466e+003,1.591024e-002
2.767394e+003,1.608096e-002
2.769323e+003,1.645556e-002
2.771251e+003,1.694365e-002
2.773180e+003,1.732869e-002
2.775108e+003,1.773394e-002
2.777037e+003,1.822433e-002
2.778965e+003,1.872590e-002
2.780894e+003,1.929780e-002
2.782822e+003,1.995704e-002
2.784750e+003,2.068762e-002
2.786679e+003,2.139474e-002
2.788608e+003,2.203598e-002
2.790536e+003,2.275274e-002
2.792465e+003,2.347037e-002
2.794393e+003,2.422401e-002
2.796322e+003,2.498609e-002
2.798250e+003,2.559853e-002
2.800178e+003,2.613061e-002
2.802107e+003,2.673790e-002
2.804036e+003,2.735416e-002
2.805964e+003,2.778175e-002
2.807893e+003,2.805329e-002
2.809821e+003,2.823797e-002
2.811750e+003,2.830053e-002
2.813678e+003,2.820127e-002
2.815606e+003,2.814608e-002
2.817535e+003,2.793416e-002
2.819464e+003,2.771044e-002
2.821392e+003,2.731023e-002
2.823321e+003,2.687133e-002
2.825249e+003,2.644454e-002
2.827177e+003,2.593719e-002
2.829106e+003,2.520055e-002
2.831034e+003,2.448759e-002
2.832963e+003,2.397303e-002
2.834892e+003,2.359084e-002
2.836820e+003,2.300299e-002
2.838749e+003,2.232324e-002
2.840677e+003,2.167733e-002
2.842605e+003,2.120132e-002
2.844534e+003,2.058786e-002
2.846462e+003,1.973708e-002
2.848391e+003,1.910757e-002
2.850320e+003,1.869196e-002
2.852248e+003,1.848924e-002
2.854177e+003,1.837453e-002
2.856105e+003,1.823411e-002
2.858033e+003,1.819894e-002
2.859962e+003,1.823494e-002
2.861890e+003,1.811412e-002
2.863819e+003,1.801260e-002
2.865748e+003,1.806732e-002
2.867676e+003,1.817299e-002
2.869604e+003,1.832832e-002
2.871533e+003,1.835590e-002
2.873461e+003,1.854504e-002
2.875390e+003,1.872971e-002
2.877319e+003,1.879174e-002
2.879247e+003,1.896837e-002
2.881176e+003,1.904155e-002
2.883104e+003,1.908150e-002
2.885032e+003,1.918517e-002
2.886961e+003,1.903836e-002
2.888889e+003,1.892867e-002
2.890818e+003,1.890378e-002
2.892747e+003,1.878976e-002
2.894675e+003,1.862801e-002
2.896604e+003,1.858630e-002
2.898532e+003,1.855628e-002
2.900460e+003,1.850659e-002
2.902389e+003,1.843921e-002
2.904317e+003,1.830903e-002
2.906246e+003,1.828989e-002
2.908175e+003,1.823553e-002
2.910103e+003,1.818698e-002
2.912031e+003,1.808621e-002
2.913960e+003,1.786819e-002
2.915888e+003,1.772725e-002
2.917817e+003,1.783381e-002
2.919745e+003,1.815261e-002
2.921674e+003,1.842538e-002
2.923603e+003,1.865357e-002
2.925531e+003,1.889409e-002
2.927459e+003,1.915767e-002
2.929388e+003,1.933747e-002
2.931316e+003,1.949009e-002
2.933245e+003,1.970875e-002
2.935173e+003,1.991295e-002
2.937102e+003,1.993748e-002
2.939031e+003,2.003733e-002
2.940959e+003,2.005652e-002
2.942887e+003,1.984795e-002
2.944816e+003,1.969828e-002
2.946744e+003,1.961681e-002
2.948673e+003,1.938074e-002
2.950601e+003,1.880250e-002
2.952530e+003,1.817679e-002
2.954458e+003,1.779732e-002
2.956387e+003,1.733065e-002
2.958315e+003,1.677776e-002
2.960244e+003,1.604881e-002
2.962172e+003,1.543753e-002
2.964101e+003,1.496934e-002
2.966029e+003,1.450930e-002
2.967958e+003,1.405005e-002
2.969886e+003,1.353198e-002
2.971815e+003,1.311873e-002
2.973743e+003,1.275085e-002
2.975672e+003,1.237980e-002
2.977600e+003,1.223460e-002
2.979529e+003,1.202229e-002
2.981457e+003,1.172352e-002
2.983386e+003,1.145662e-002
2.985314e+003,1.120603e-002
2.987243e+003,1.109969e-002
2.989171e+003,1.105839e-002
2.991100e+003,1.088410e-002
2.993028e+003,1.086076e-002
2.994957e+003,1.077652e-002
2.996885e+003,1.066926e-002
2.998814e+003,1.074364e-002
3.000742e+003,1.072455e-002
3.002671e+003,1.060349e-002
3.004599e+003,1.059595e-002
3.006528e+003,1.067640e-002
3.008456e+003,1.057725e-002
3.010385e+003,1.046733e-002
3.012313e+003,1.046763e-002
3.014242e+003,1.048783e-002
3.016170e+003,1.052194e-002
3.018099e+003,1.045321e-002
3.020027e+003,1.028099e-002
3.021956e+003,1.025310e-002
3.023884e+003,1.027858e-002
3.025813e+003,1.018977e-002
3.027741e+003,1.005970e-002
3.029670e+003,1.007425e-002
3.031598e+003,1.018953e-002
3.033527e+003,1.018292e-002
3.035455e+003,1.021867e-002
3.037384e+003,1.019699e-002
3.039312e+003,1.019316e-002
3.041241e+003,1.017166e-002
3.043169e+003,1.004634e-002
3.045098e+003,1.005136e-002
3.047026e+003,1.005723e-002
3.048955e+003,9.941438e-003
3.050883e+003,9.950287e-003
3.052812e+003,1.001545e-002
3.054740e+003,9.951304e-003
3.056669e+003,9.946591e-003
3.058597e+003,1.000589e-002
3.060526e+003,9.935371e-003
3.062454e+003,9.949100e-003
3.064383e+003,1.001301e-002
3.066311e+003,9.975612e-003
3.068240e+003,1.004329e-002
3.070168e+003,1.002427e-002
3.072097e+003,9.860015e-003
3.074025e+003,9.808058e-003
3.075954e+003,9.819140e-003
3.077882e+003,9.864761e-003
3.079811e+003,9.968052e-003
3.081739e+003,1.000501e-002
3.083668e+003,9.857067e-003
3.085596e+003,9.793315e-003
3.087525e+003,9.759800e-003
3.089453e+003,9.852254e-003
3.091382e+003,9.947676e-003
3.093310e+003,9.938015e-003
3.095239e+003,9.880183e-003
3.097167e+003,9.841543e-003
3.099096e+003,9.810565e-003
3.101024e+003,9.814429e-003
3.102953e+003,9.897809e-003
3.104881e+003,9.841238e-003
3.106810e+003,9.758987e-003
3.108738e+003,9.762579e-003
3.110667e+003,9.815446e-003
3.112595e+003,9.914996e-003
3.114524e+003,9.932319e-003
3.116452e+003,9.736418e-003
3.118381e+003,9.731471e-003
3.120309e+003,9.827104e-003
3.122238e+003,9.913301e-003
3.124166e+003,9.996532e-003
3.126095e+003,9.993887e-003
3.128023e+003,9.842086e-003
3.129952e+003,9.770576e-003
3.131880e+003,9.822224e-003
3.133809e+003,9.839272e-003
3.135737e+003,9.841983e-003
3.137666e+003,9.884692e-003
3.139594e+003,9.886386e-003
3.141523e+003,9.865371e-003
3.143451e+003,9.998837e-003
3.145380e+003,1.005512e-002
3.147308e+003,9.955541e-003
3.149237e+003,9.924794e-003
3.151165e+003,1.004387e-002
3.153094e+003,1.014696e-002
3.155022e+003,1.016151e-002
3.156951e+003,1.015198e-002
3.158879e+003,1.016528e-002
3.160808e+003,1.016881e-002
3.162736e+003,1.020473e-002
3.164665e+003,1.023991e-002
3.166593e+003,1.020018e-002
3.168522e+003,1.011101e-002
3.170450e+003,1.017518e-002
3.172379e+003,1.025110e-002
3.174307e+003,1.017976e-002
3.176236e+003,1.018699e-002
3.178164e+003,1.033565e-002
3.180093e+003,1.030410e-002
3.182021e+003,1.018112e-002
3.183950e+003,1.028706e-002
3.185878e+003,1.041055e-002
3.187807e+003,1.043793e-002
3.189735e+003,1.052880e-002
3.191664e+003,1.039690e-002
3.193592e+003,1.026762e-002
3.195521e+003,1.031713e-002
3.197449e+003,1.037674e-002
3.199378e+003,1.041180e-002
3.201306e+003,1.033626e-002
3.203235e+003,1.035309e-002
3.205163e+003,1.041879e-002
3.207092e+003,1.043641e-002
3.209020e+003,1.057653e-002
3.210948e+003,1.056747e-002
3.212877e+003,1.040372e-002
3.214806e+003,1.034695e-002
3.216734e+003,1.037515e-002
3.218663e+003,1.050188e-002
3.220591e+003,1.058546e-002
3.222520e+003,1.059847e-002
3.224448e+003,1.056492e-002
3.226376e+003,1.058404e-002
3.228305e+003,1.081989e-002
3.230234e+003,1.092871e-002
3.232162e+003,1.086963e-002
3.234091e+003,1.091522e-002
3.236019e+003,1.086001e-002
3.237948e+003,1.077302e-002
3.239876e+003,1.086134e-002
3.241804e+003,1.119811e-002
3.243733e+003,1.134593e-002
3.245662e+003,1.131376e-002
3.247590e+003,1.149132e-002
3.249519e+003,1.151724e-002
3.251447e+003,1.146852e-002
3.253375e+003,1.133362e-002
3.255304e+003,1.143542e-002
3.257232e+003,1.168212e-002
3.259161e+003,1.180975e-002
3.261090e+003,1.182013e-002
3.263018e+003,1.177870e-002
3.264947e+003,1.180097e-002
3.266875e+003,1.190520e-002
3.268803e+003,1.205264e-002
3.270732e+003,1.206872e-002
3.272660e+003,1.206222e-002
3.274589e+003,1.206736e-002
3.276518e+003,1.208732e-002
3.278446e+003,1.213165e-002
3.280375e+003,1.220781e-002
3.282303e+003,1.224390e-002
3.284231e+003,1.226312e-002
3.286160e+003,1.218426e-002
3.288088e+003,1.208061e-002
3.290017e+003,1.195945e-002
3.291946e+003,1.212841e-002
3.293874e+003,1.214497e-002
3.295802e+003,1.190073e-002
3.297731e+003,1.178908e-002
3.299659e+003,1.177591e-002
3.301588e+003,1.168410e-002
3.303516e+003,1.152953e-002
3.305445e+003,1.145066e-002
3.307374e+003,1.149282e-002
3.309302e+003,1.150551e-002
3.311230e+003,1.136256e-002
3.313159e+003,1.132168e-002
3.315087e+003,1.120212e-002
3.317016e+003,1.120800e-002
3.318944e+003,1.113488e-002
3.320873e+003,1.091176e-002
3.322802e+003,1.088587e-002
3.324730e+003,1.091451e-002
3.326658e+003,1.078168e-002
3.328587e+003,1.072431e-002
3.330515e+003,1.065133e-002
3.332444e+003,1.048993e-002
3.334372e+003,1.050063e-002
3.336301e+003,1.051709e-002
3.338229e+003,1.056051e-002
3.340158e+003,1.048253e-002
3.342086e+003,1.042399e-002
3.344015e+003,1.035588e-002
3.345943e+003,1.046414e-002
3.347872e+003,1.047907e-002
3.349800e+003,1.032147e-002
3.351729e+003,1.028767e-002
3.353657e+003,1.028493e-002
3.355586e+003,1.035275e-002
3.357514e+003,1.045989e-002
3.359443e+003,1.036035e-002
3.361371e+003,1.009853e-002
3.363300e+003,1.008025e-002
3.365229e+003,1.009609e-002
3.367157e+003,9.924251e-003
3.369085e+003,9.675328e-003
3.371014e+003,9.655101e-003
3.372942e+003,9.862286e-003
3.374871e+003,9.791485e-003
3.376799e+003,9.672685e-003
3.378728e+003,9.550563e-003
3.380656e+003,9.381107e-003
3.382585e+003,9.290074e-003
3.384513e+003,9.254803e-003
3.386442e+003,9.180920e-003
3.388370e+003,9.169041e-003
3.390299e+003,9.087255e-003
3.392227e+003,9.047096e-003
3.394156e+003,9.067226e-003
3.396084e+003,8.952547e-003
3.398013e+003,8.762125e-003
3.399941e+003,8.681193e-003
3.401870e+003,8.758405e-003
3.403798e+003,8.852811e-003
3.405727e+003,8.874826e-003
3.407655e+003,8.917337e-003
3.409584e+003,8.797321e-003
3.411512e+003,8.640631e-003
3.413441e+003,8.643909e-003
3.415369e+003,8.714929e-003
3.417298e+003,8.765607e-003
3.419226e+003,8.797626e-003
3.421155e+003,8.911317e-003
3.423083e+003,8.901002e-003
3.425012e+003,8.870261e-003
3.426940e+003,8.968613e-003
3.428869e+003,8.968140e-003
3.430797e+003,8.889198e-003
3.432726e+003,8.897992e-003
3.434654e+003,8.896910e-003
3.436583e+003,8.728452e-003
3.438511e+003,8.664156e-003
3.440440e+003,8.840028e-003
3.442368e+003,8.748568e-003
3.444297e+003,8.706952e-003
3.446225e+003,8.742076e-003
3.448154e+003,8.755837e-003
3.450082e+003,8.699683e-003
3.452011e+003,8.742786e-003
3.453939e+003,8.765607e-003
3.455868e+003,8.773011e-003
3.457796e+003,8.800196e-003
3.459725e+003,8.770713e-003
3.461653e+003,8.915240e-003
3.463582e+003,9.018441e-003
3.465510e+003,8.874657e-003
3.467439e+003,8.814870e-003
3.469367e+003,8.836816e-003
3.471296e+003,8.859540e-003
3.473224e+003,8.881082e-003
3.475153e+003,8.932895e-003
3.477081e+003,8.930562e-003
3.479010e+003,8.880203e-003
3.480938e+003,8.804320e-003
3.482867e+003,8.748297e-003
3.484795e+003,8.884802e-003
3.486724e+003,8.889131e-003
3.488652e+003,8.860386e-003
3.490581e+003,8.919941e-003
3.492509e+003,8.841855e-003
3.494438e+003,8.803679e-003
3.496366e+003,9.016242e-003
3.498295e+003,9.054910e-003
3.500223e+003,9.012791e-003
3.502152e+003,9.162950e-003
3.504080e+003,9.204677e-003
3.506009e+003,9.100654e-003
3.507937e+003,9.010457e-003
3.509866e+003,8.951938e-003
3.511794e+003,8.919435e-003
3.513723e+003,8.846791e-003
3.515651e+003,8.869720e-003
3.517580e+003,8.986440e-003
3.519508e+003,9.059782e-003
3.521437e+003,9.076497e-003
3.523365e+003,9.100891e-003
3.525294e+003,9.096289e-003
3.527222e+003,9.019151e-003
3.529151e+003,9.007514e-003
3.531079e+003,9.028049e-003
3.533008e+003,9.047434e-003
3.534936e+003,9.127182e-003
3.536865e+003,9.176080e-003
3.538793e+003,8.922884e-003
3.540722e+003,8.789004e-003
3.542650e+003,8.970846e-003
3.544579e+003,9.174625e-003
3.546507e+003,9.297013e-003
3.548436e+003,9.257172e-003
3.550364e+003,9.255412e-003
3.552293e+003,9.309335e-003
3.554221e+003,9.216895e-003
3.556150e+003,9.142748e-003
3.558078e+003,9.166943e-003
3.560007e+003,9.142037e-003
3.561935e+003,9.142647e-003
3.563864e+003,9.310622e-003
3.565792e+003,9.657337e-003
3.567721e+003,9.584334e-003
3.569649e+003,9.179498e-003
3.571578e+003,9.187079e-003
3.573506e+003,9.269595e-003
3.575435e+003,9.169786e-003
3.577363e+003,9.100147e-003
3.579292e+003,9.068342e-003
3.581220e+003,9.129821e-003
3.583149e+003,9.256698e-003
3.585077e+003,9.517710e-003
3.587006e+003,9.785893e-003
3.588934e+003,9.496543e-003
3.590863e+003,9.051155e-003
3.592791e+003,9.159363e-003
3.594720e+003,9.348944e-003
3.596648e+003,9.251757e-003
3.598577e+003,9.166774e-003
3.600505e+003,9.241704e-003
3.602434e+003,9.272709e-003
3.604362e+003,9.320033e-003
3.606291e+003,9.595614e-003
3.608219e+003,9.672482e-003
3.610148e+003,9.315699e-003
3.612076e+003,9.296303e-003
3.614005e+003,9.225052e-003
3.615933e+003,9.350942e-003
3.617862e+003,9.783250e-003
3.619790e+003,9.602117e-003
3.621719e+003,9.244920e-003
3.623647e+003,9.271964e-003
3.625576e+003,9.526109e-003
3.627504e+003,1.027200e-002
3.629433e+003,1.037461e-002
3.631361e+003,9.489092e-003
3.633290e+003,9.279377e-003
3.635218e+003,9.184372e-003
3.637146e+003,9.274199e-003
3.639075e+003,9.289363e-003
3.641004e+003,9.133341e-003
3.642932e+003,9.036202e-003
3.644861e+003,9.210126e-003
3.646789e+003,9.855202e-003
3.648718e+003,1.026616e-002
3.650646e+003,9.794874e-003
3.652574e+003,9.218960e-003
3.654503e+003,9.480490e-003
3.656432e+003,9.698435e-003
3.658360e+003,9.235511e-003
3.660289e+003,9.000410e-003
3.662217e+003,8.981772e-003
3.664146e+003,8.881183e-003
3.666074e+003,8.978051e-003
3.668002e+003,9.529191e-003
3.669931e+003,9.707244e-003
3.671860e+003,9.308117e-003
3.673788e+003,9.973849e-003
3.675717e+003,1.037322e-002
3.677645e+003,9.522993e-003
3.679573e+003,9.143594e-003
3.681502e+003,9.022162e-003
3.683430e+003,9.082993e-003
3.685359e+003,9.260964e-003
3.687288e+003,9.856389e-003
3.689216e+003,9.931065e-003
3.691145e+003,9.507041e-003
3.693073e+003,9.012994e-003
3.695001e+003,8.944125e-003
3.696930e+003,9.293696e-003
3.698858e+003,9.637044e-003
3.700787e+003,9.822733e-003
3.702716e+003,9.674277e-003
3.704644e+003,9.387811e-003
3.706573e+003,9.414221e-003
3.708501e+003,9.596325e-003
3.710429e+003,9.965204e-003
3.712358e+003,9.832900e-003
3.714286e+003,9.022703e-003
3.716215e+003,8.827483e-003
3.718144e+003,9.277312e-003
3.720072e+003,9.641719e-003
3.722000e+003,9.608046e-003
3.723929e+003,9.425768e-003
3.725857e+003,9.492885e-003
3.727786e+003,9.462779e-003
3.729714e+003,9.667535e-003
3.731643e+003,1.006781e-002
3.733572e+003,1.026318e-002
3.735500e+003,1.023889e-002
3.737428e+003,9.717172e-003
3.739357e+003,9.252976e-003
3.741285e+003,9.449810e-003
3.743214e+003,1.030437e-002
3.745142e+003,1.033901e-002
3.747071e+003,9.814971e-003
3.749000e+003,1.032201e-002
3.750928e+003,1.044242e-002
3.752856e+003,9.921878e-003
3.754785e+003,9.403488e-003
3.756713e+003,9.219298e-003
3.758642e+003,9.105527e-003
3.760570e+003,9.404402e-003
3.762499e+003,9.398747e-003
3.764427e+003,9.209991e-003
3.766356e+003,9.224476e-003
3.768284e+003,9.436671e-003
3.770213e+003,9.621968e-003
3.772141e+003,9.370713e-003
3.774070e+003,9.170429e-003
3.775998e+003,9.239504e-003
3.777927e+003,9.293561e-003
3.779855e+003,9.450961e-003
3.781784e+003,9.342443e-003
3.783712e+003,9.129957e-003
3.785641e+003,9.060899e-003
3.787569e+003,9.035120e-003
3.789498e+003,8.859608e-003
3.791426e+003,8.834212e-003
3.793355e+003,8.924068e-003
3.795283e+003,9.186233e-003
3.797212e+003,9.346574e-003
3.799140e+003,9.608723e-003
3.801069e+003,9.947439e-003
3.802997e+003,9.346913e-003
3.804926e+003,9.323621e-003
3.806854e+003,9.855372e-003
3.808783e+003,9.403386e-003
3.810711e+003,9.016040e-003
3.812640e+003,8.970948e-003
3.814568e+003,9.181799e-003
3.816497e+003,9.484859e-003
3.818425e+003,9.507854e-003
3.820354e+003,9.936082e-003
3.822282e+003,9.531698e-003
3.824211e+003,8.875029e-003
3.826139e+003,8.880203e-003
3.828068e+003,8.911148e-003
3.829996e+003,9.187147e-003
3.831925e+003,9.179228e-003
3.833853e+003,8.993645e-003
3.835782e+003,9.301211e-003
3.837710e+003,9.642668e-003
3.839639e+003,9.459799e-003
3.841567e+003,9.333032e-003
3.843496e+003,9.492140e-003
3.845424e+003,9.222175e-003
3.847353e+003,8.800162e-003
3.849281e+003,8.911554e-003
3.851210e+003,9.797687e-003
3.853138e+003,1.075244e-002
3.855067e+003,1.005143e-002
3.856995e+003,9.178043e-003
3.858924e+003,9.107117e-003
3.860852e+003,9.359811e-003
3.862781e+003,9.607945e-003
3.864709e+003,9.514187e-003
3.866638e+003,9.110264e-003
3.868566e+003,9.547007e-003
3.870495e+003,9.652594e-003
3.872423e+003,9.469586e-003
3.874352e+003,9.441514e-003
3.876280e+003,9.275011e-003
3.878209e+003,9.442969e-003
3.880137e+003,9.393838e-003
3.882066e+003,9.002576e-003
3.883994e+003,9.173204e-003
3.885923e+003,9.515611e-003
3.887851e+003,9.372474e-003
3.889780e+003,9.640974e-003
3.891708e+003,9.568651e-003
3.893637e+003,9.154490e-003
3.895565e+003,8.921869e-003
3.897494e+003,9.096662e-003
3.899422e+003,9.245258e-003
3.901351e+003,9.206234e-003
3.903279e+003,9.370679e-003
3.905208e+003,9.255446e-003
3.907136e+003,8.819672e-003
3.909065e+003,8.820551e-003
3.910993e+003,8.820077e-003
3.912922e+003,8.759995e-003
3.914850e+003,8.894576e-003
3.916779e+003,9.105459e-003
3.918707e+003,9.199128e-003
3.920636e+003,9.188094e-003
3.922564e+003,9.203290e-003
3.924493e+003,9.142409e-003
3.926421e+003,8.994356e-003
3.928350e+003,8.921802e-003
3.930278e+003,8.841753e-003
3.932207e+003,8.888860e-003
3.934135e+003,8.813991e-003
3.936064e+003,8.830695e-003
3.937992e+003,8.901137e-003
3.939921e+003,8.953866e-003
3.941849e+003,9.047738e-003
3.943778e+003,8.787652e-003
3.945706e+003,8.803036e-003
3.947635e+003,8.988334e-003
3.949563e+003,9.012352e-003
3.951492e+003,9.057076e-003
3.953420e+003,8.954137e-003
3.955349e+003,8.821194e-003
3.957277e+003,8.855516e-003
3.959206e+003,8.729500e-003
3.961134e+003,8.667232e-003
3.963063e+003,9.066245e-003
3.964991e+003,9.217436e-003
3.966920e+003,9.096933e-003
3.968848e+003,9.285673e-003
3.970777e+003,9.224646e-003
3.972705e+003,8.928836e-003
3.974634e+003,8.738053e-003
3.976562e+003,8.629443e-003
3.978491e+003,8.726627e-003
3.980419e+003,9.036878e-003
3.982348e+003,9.188602e-003
3.984276e+003,8.981197e-003
3.986205e+003,8.853961e-003
3.988133e+003,9.026696e-003
3.990062e+003,9.177840e-003
3.991990e+003,8.753537e-003
3.993919e+003,8.485382e-003
3.995847e+003,8.559654e-003
3.997776e+003,8.748230e-003
3.999704e+003,8.618628e-003
4.001633e+003,0.000000e+000
