3.991989e+002,4.536199e-003
4.011274e+002,3.207294e-003
4.030559e+002,-1.362684e-003
4.049844e+002,-9.327926e-003
4.069129e+002,-5.919885e-003
4.088414e+002,-1.424149e-003
4.107699e+002,-3.516324e-003
4.126984e+002,-5.077091e-003
4.146269e+002,-1.100014e-003
4.165554e+002,6.859082e-003
4.184839e+002,7.378858e-003
4.204124e+002,7.052511e-003
4.223409e+002,9.431761e-003
4.242694e+002,6.944928e-003
4.261979e+002,-7.435206e-004
4.281264e+002,4.260630e-003
4.300549e+002,1.035140e-002
4.319834e+002,1.018471e-002
4.339119e+002,1.119294e-002
4.358404e+002,1.279490e-002
4.377689e+002,1.175150e-002
4.396974e+002,4.417790e-003
4.416259e+002,-2.801276e-003
4.435544e+002,-1.931285e-004
4.454829e+002,3.939158e-003
4.474114e+002,6.513954e-003
4.493399e+002,6.225161e-003
4.512684e+002,6.505814e-003
4.531969e+002,5.902333e-003
4.551254e+002,4.030080e-003
4.570539e+002,2.998988e-003
4.589824e+002,3.430294e-003
4.609109e+002,3.084240e-003
4.628394e+002,4.839651e-003
4.647679e+002,5.697565e-003
4.666964e+002,5.956681e-003
4.686249e+002,4.583846e-003
4.705533e+002,5.012942e-003
4.724819e+002,6.497675e-003
4.744103e+002,6.321908e-003
4.763389e+002,6.342887e-003
4.782673e+002,6.569623e-003
4.801959e+002,5.590417e-003
4.821243e+002,4.861028e-003
4.840529e+002,4.637996e-003
4.859813e+002,3.526387e-003
4.879099e+002,3.279533e-003
4.898383e+002,3.745640e-003
4.917668e+002,2.724625e-003
4.936953e+002,9.043737e-004
4.956238e+002,2.623909e-003
4.975523e+002,4.825445e-003
4.994808e+002,2.743464e-003
5.014093e+002,3.250923e-003
5.033378e+002,5.263869e-003
5.052663e+002,7.395945e-003
5.071948e+002,6.726914e-003
5.091233e+002,3.215973e-003
5.110518e+002,2.086950e-003
5.129803e+002,3.333788e-003
5.149088e+002,3.629852e-003
5.168373e+002,3.294357e-003
5.187658e+002,2.791349e-003
5.206943e+002,1.895421e-003
5.226228e+002,1.575229e-003
5.245513e+002,1.446155e-003
5.264798e+002,8.372090e-004
5.284083e+002,9.176551e-004
5.303368e+002,2.323433e-003
5.322653e+002,2.393827e-003
5.341938e+002,2.781445e-003
5.361223e+002,1.920181e-003
5.380508e+002,6.862840e-004
5.399792e+002,3.778924e-004
5.419078e+002,1.240420e-003
5.438363e+002,1.938985e-003
5.457648e+002,2.273135e-003
5.476932e+002,2.218880e-003
5.496218e+002,1.758400e-003
5.515503e+002,1.850031e-003
5.534788e+002,1.565253e-003
5.554072e+002,1.943745e-003
5.573358e+002,1.915788e-003
5.592643e+002,9.308042e-004
5.611927e+002,6.028945e-004
5.631212e+002,1.233840e-003
5.650497e+002,1.450776e-003
5.669783e+002,1.479600e-003
5.689067e+002,2.093576e-003
5.708352e+002,2.505853e-003
5.727637e+002,2.159037e-003
5.746923e+002,1.435317e-003
5.766207e+002,2.694965e-004
5.785492e+002,-4.763056e-004
5.804777e+002,-3.440954e-003
5.824063e+002,-1.898038e-003
5.843347e+002,1.513214e-003
5.862632e+002,1.794464e-003
5.881917e+002,2.119047e-003
5.901202e+002,2.351349e-003
5.920487e+002,2.731161e-003
5.939772e+002,2.502787e-003
5.959057e+002,3.234232e-003
5.978342e+002,3.489577e-003
5.997627e+002,3.010198e-003
6.016912e+002,2.205226e-003
6.036197e+002,1.585339e-003
6.055482e+002,2.987011e-003
6.074767e+002,2.741430e-003
6.094052e+002,8.090580e-004
6.113337e+002,-2.388639e-004
6.132622e+002,1.391190e-004
6.151907e+002,5.690522e-004
6.171192e+002,3.359102e-004
6.190477e+002,-1.758730e-004
6.209762e+002,8.321297e-004
6.229047e+002,6.640497e-004
6.248332e+002,3.292784e-004
6.267617e+002,9.962897e-004
6.286902e+002,1.277870e-003
6.306187e+002,2.026360e-003
6.325472e+002,2.332228e-003
6.344756e+002,2.473395e-003
6.364042e+002,2.530315e-003
6.383326e+002,2.042140e-003
6.402612e+002,1.892559e-003
6.421896e+002,2.478527e-003
6.441182e+002,2.409053e-003
6.460466e+002,1.768347e-003
6.479752e+002,1.909365e-003
6.499036e+002,2.080392e-003
6.518322e+002,2.072734e-003
6.537606e+002,2.168627e-003
6.556891e+002,1.992706e-003
6.576177e+002,1.580217e-003
6.595461e+002,1.467831e-003
6.614746e+002,1.776765e-003
6.634031e+002,1.785614e-003
6.653317e+002,2.303913e-003
6.672601e+002,2.657612e-003
6.691886e+002,2.672514e-003
6.711171e+002,2.408153e-003
6.730457e+002,2.279797e-003
6.749741e+002,2.662613e-003
6.769026e+002,2.919590e-003
6.788311e+002,2.840806e-003
6.807596e+002,2.719257e-003
6.826881e+002,2.818462e-003
6.846166e+002,2.715956e-003
6.865451e+002,2.348184e-003
6.884736e+002,2.458200e-003
6.904021e+002,3.018740e-003
6.923306e+002,3.270252e-003
6.942591e+002,3.375894e-003
6.961876e+002,3.244580e-003
6.981161e+002,3.128792e-003
7.000446e+002,2.625609e-003
7.019731e+002,1.814095e-003
7.039016e+002,2.174455e-003
7.058301e+002,2.604142e-003
7.077585e+002,2.405121e-003
7.096871e+002,2.580209e-003
7.116156e+002,3.258568e-003
7.135441e+002,3.388984e-003
7.154725e+002,3.090948e-003
7.174011e+002,2.937537e-003
7.193296e+002,2.558411e-003
7.212581e+002,2.491490e-003
7.231865e+002,2.681149e-003
7.251151e+002,2.926028e-003
7.270436e+002,3.080002e-003
7.289720e+002,3.460920e-003
7.309005e+002,3.507280e-003
7.328290e+002,3.273357e-003
7.347576e+002,3.200952e-003
7.366860e+002,3.473077e-003
7.386145e+002,3.740427e-003
7.405430e+002,3.697216e-003
7.424716e+002,3.213269e-003
7.444000e+002,3.370651e-003
7.463285e+002,4.183878e-003
7.482570e+002,4.386360e-003
7.501855e+002,4.297505e-003
7.521140e+002,4.464922e-003
7.540425e+002,5.018104e-003
7.559710e+002,5.399082e-003
7.578995e+002,5.053971e-003
7.598280e+002,4.818812e-003
7.617565e+002,4.654205e-003
7.636850e+002,4.701330e-003
7.656135e+002,5.141908e-003
7.675420e+002,5.019981e-003
7.694705e+002,4.946781e-003
7.713990e+002,5.056250e-003
7.733275e+002,5.078175e-003
7.752560e+002,5.016998e-003
7.771844e+002,4.771574e-003
7.791130e+002,4.624199e-003
7.810415e+002,4.646938e-003
7.829700e+002,4.814624e-003
7.848984e+002,5.248140e-003
7.868270e+002,5.350641e-003
7.887555e+002,5.045892e-003
7.906840e+002,4.687731e-003
7.926124e+002,4.715800e-003
7.945410e+002,5.090444e-003
7.964695e+002,5.382643e-003
7.983979e+002,5.364629e-003
8.003264e+002,5.332023e-003
8.022549e+002,5.631333e-003
8.041835e+002,5.881946e-003
8.061119e+002,5.858537e-003
8.080404e+002,6.418508e-003
8.099689e+002,6.746398e-003
8.118975e+002,6.302913e-003
8.138259e+002,6.702719e-003
8.157545e+002,7.287569e-003
8.176830e+002,7.055104e-003
8.196115e+002,6.353176e-003
8.215399e+002,5.892290e-003
8.234684e+002,5.864481e-003
8.253970e+002,5.377578e-003
8.273254e+002,4.632705e-003
8.292539e+002,4.010984e-003
8.311824e+002,3.545628e-003
8.331110e+002,3.585583e-003
8.350394e+002,3.952867e-003
8.369679e+002,4.339236e-003
8.388964e+002,3.976441e-003
8.408250e+002,3.515597e-003
8.427534e+002,3.490045e-003
8.446819e+002,3.528692e-003
8.466104e+002,3.472376e-003
8.485389e+002,3.470873e-003
8.504674e+002,3.376294e-003
8.523959e+002,3.529360e-003
8.543244e+002,3.684250e-003
8.562529e+002,3.593601e-003
8.581814e+002,3.727861e-003
8.601099e+002,3.951062e-003
8.620384e+002,3.728529e-003
8.639669e+002,3.559826e-003
8.658954e+002,3.625007e-003
8.678239e+002,3.539548e-003
8.697524e+002,3.245749e-003
8.716809e+002,2.759170e-003
8.736094e+002,2.802921e-003
8.755378e+002,3.114542e-003
8.774664e+002,3.229993e-003
8.793949e+002,3.457179e-003
8.813234e+002,3.537678e-003
8.832518e+002,3.318295e-003
8.851804e+002,3.211333e-003
8.871089e+002,2.980672e-003
8.890374e+002,3.005160e-003
8.909658e+002,2.818028e-003
8.928943e+002,2.937403e-003
8.948229e+002,3.161066e-003
8.967513e+002,2.972498e-003
8.986798e+002,2.657279e-003
9.006083e+002,2.581176e-003
9.025369e+002,2.553345e-003
9.044653e+002,2.559211e-003
9.063938e+002,2.447004e-003
9.083223e+002,2.489191e-003
9.102509e+002,2.437874e-003
9.121793e+002,2.087616e-003
9.141078e+002,2.071536e-003
9.160364e+002,2.181881e-003
9.179648e+002,2.237830e-003
9.198933e+002,2.121710e-003
9.218218e+002,2.019003e-003
9.237504e+002,1.958323e-003
9.256788e+002,1.790771e-003
9.276073e+002,1.861910e-003
9.295358e+002,2.331894e-003
9.314644e+002,2.639977e-003
9.333928e+002,2.822197e-003
9.353213e+002,2.758469e-003
9.372498e+002,2.667347e-003
9.391783e+002,2.666813e-003
9.411068e+002,2.851579e-003
9.430353e+002,2.933934e-003
9.449637e+002,2.969562e-003
9.468923e+002,2.994617e-003
9.488208e+002,3.021376e-003
9.507493e+002,3.024445e-003
9.526777e+002,3.132330e-003
9.546063e+002,2.900310e-003
9.565348e+002,2.781078e-003
9.584633e+002,3.215872e-003
9.603917e+002,3.351117e-003
9.623203e+002,2.771541e-003
9.642488e+002,2.651711e-003
9.661772e+002,2.866688e-003
9.681057e+002,3.018740e-003
9.700343e+002,3.075531e-003
9.719628e+002,3.030551e-003
9.738912e+002,2.817294e-003
9.758197e+002,2.533315e-003
9.777483e+002,2.437674e-003
9.796768e+002,2.697719e-003
9.816052e+002,2.900376e-003
9.835337e+002,2.638543e-003
9.854623e+002,2.560145e-003
9.873907e+002,2.586943e-003
9.893192e+002,2.532648e-003
9.912477e+002,2.606875e-003
9.931763e+002,2.834570e-003
9.951047e+002,3.263609e-003
9.970332e+002,3.482062e-003
9.989617e+002,3.295458e-003
1.000890e+003,3.485435e-003
1.002819e+003,3.664836e-003
1.004747e+003,3.869483e-003
1.006676e+003,4.182707e-003
1.008604e+003,4.535663e-003
1.010533e+003,4.549425e-003
1.012461e+003,4.715364e-003
1.014390e+003,5.052094e-003
1.016318e+003,5.394989e-003
1.018247e+003,5.734294e-003
1.020175e+003,5.788352e-003
1.022104e+003,5.803731e-003
1.024032e+003,6.095402e-003
1.025961e+003,6.383101e-003
1.027889e+003,6.499894e-003
1.029818e+003,6.590883e-003
1.031746e+003,6.803242e-003
1.033675e+003,6.871739e-003
1.035603e+003,7.215502e-003
1.037532e+003,7.335149e-003
1.039460e+003,7.316514e-003
1.041389e+003,7.690644e-003
1.043317e+003,7.877627e-003
1.045246e+003,7.600537e-003
1.047174e+003,7.663259e-003
1.049103e+003,7.814301e-003
1.051031e+003,7.866932e-003
1.052960e+003,8.211888e-003
1.054888e+003,8.328534e-003
1.056817e+003,8.081333e-003
1.058745e+003,8.074312e-003
1.060674e+003,8.168366e-003
1.062602e+003,8.332485e-003
1.064531e+003,8.392273e-003
1.066459e+003,8.379065e-003
1.068388e+003,8.558201e-003
1.070316e+003,8.610719e-003
1.072245e+003,8.632215e-003
1.074173e+003,8.782140e-003
1.076102e+003,8.724700e-003
1.078030e+003,8.490856e-003
1.079959e+003,8.392847e-003
1.081887e+003,8.569555e-003
1.083816e+003,8.751509e-003
1.085744e+003,8.788361e-003
1.087673e+003,8.897451e-003
1.089601e+003,9.045404e-003
1.091530e+003,9.353209e-003
1.093458e+003,9.628473e-003
1.095387e+003,9.600119e-003
1.097315e+003,9.647207e-003
1.099244e+003,9.720256e-003
1.101172e+003,9.787690e-003
1.103101e+003,9.818835e-003
1.105029e+003,9.656084e-003
1.106958e+003,9.604591e-003
1.108886e+003,9.611061e-003
1.110815e+003,9.733877e-003
1.112743e+003,9.928420e-003
1.114672e+003,9.966051e-003
1.116600e+003,1.002786e-002
1.118529e+003,9.995379e-003
1.120457e+003,9.807210e-003
1.122386e+003,9.925743e-003
1.124314e+003,1.009290e-002
1.126243e+003,9.958728e-003
1.128171e+003,9.778302e-003
1.130100e+003,9.753260e-003
1.132028e+003,9.612924e-003
1.133957e+003,9.338991e-003
1.135885e+003,9.183086e-003
1.137814e+003,9.145895e-003
1.139742e+003,8.963574e-003
1.141671e+003,8.635933e-003
1.143599e+003,8.314854e-003
1.145528e+003,8.171978e-003
1.147456e+003,7.936778e-003
1.149385e+003,7.434031e-003
1.151313e+003,7.054633e-003
1.153242e+003,6.857265e-003
1.155170e+003,6.592498e-003
1.157099e+003,6.358589e-003
1.159027e+003,6.190575e-003
1.160956e+003,6.194104e-003
1.162884e+003,6.060760e-003
1.164813e+003,5.760348e-003
1.166741e+003,5.720528e-003
1.168670e+003,5.824014e-003
1.170598e+003,5.819413e-003
1.172526e+003,5.680108e-003
1.174455e+003,5.607703e-003
1.176384e+003,5.571119e-003
1.178312e+003,5.381201e-003
1.180240e+003,5.227549e-003
1.182169e+003,5.163098e-003
1.184098e+003,5.202968e-003
1.186026e+003,5.236133e-003
1.187954e+003,5.139326e-003
1.189883e+003,4.675439e-003
1.191812e+003,4.489528e-003
1.193740e+003,4.672994e-003
1.195668e+003,4.594160e-003
1.197597e+003,4.456620e-003
1.199526e+003,4.508042e-003
1.201454e+003,4.516512e-003
1.203382e+003,4.506870e-003
1.205311e+003,4.432752e-003
1.207240e+003,4.330334e-003
1.209168e+003,4.594294e-003
1.211096e+003,4.816734e-003
1.213025e+003,4.818108e-003
1.214953e+003,4.713656e-003
1.216882e+003,4.633341e-003
1.218810e+003,4.716537e-003
1.220739e+003,4.739114e-003
1.222667e+003,4.826685e-003
1.224596e+003,4.954791e-003
1.226524e+003,4.936828e-003
1.228453e+003,4.833822e-003
1.230381e+003,4.901406e-003
1.232310e+003,4.947284e-003
1.234238e+003,4.908343e-003
1.236167e+003,4.967225e-003
1.238095e+003,5.008048e-003
1.240024e+003,5.144657e-003
1.241952e+003,5.345843e-003
1.243881e+003,5.358993e-003
1.245809e+003,5.595586e-003
1.247738e+003,5.844600e-003
1.249666e+003,5.859511e-003
1.251595e+003,5.983118e-003
1.253523e+003,6.422107e-003
1.255452e+003,6.797722e-003
1.257380e+003,7.093363e-003
1.259309e+003,7.410033e-003
1.261237e+003,7.722381e-003
1.263166e+003,8.124070e-003
1.265094e+003,8.465854e-003
1.267023e+003,8.865932e-003
1.268951e+003,9.294746e-003
1.270880e+003,9.657743e-003
1.272808e+003,1.000575e-002
1.274737e+003,1.035062e-002
1.276665e+003,1.085111e-002
1.278594e+003,1.130318e-002
1.280522e+003,1.154919e-002
1.282451e+003,1.205271e-002
1.284379e+003,1.258887e-002
1.286308e+003,1.316511e-002
1.288236e+003,1.357840e-002
1.290165e+003,1.394955e-002
1.292093e+003,1.436053e-002
1.294022e+003,1.449340e-002
1.295950e+003,1.477116e-002
1.297879e+003,1.507279e-002
1.299807e+003,1.524332e-002
1.301736e+003,1.515300e-002
1.303664e+003,1.496687e-002
1.305593e+003,1.492678e-002
1.307521e+003,1.485532e-002
1.309450e+003,1.455983e-002
1.311378e+003,1.418019e-002
1.313307e+003,1.388974e-002
1.315235e+003,1.360660e-002
1.317164e+003,1.325853e-002
1.319092e+003,1.274447e-002
1.321021e+003,1.208238e-002
1.322949e+003,1.159095e-002
1.324878e+003,1.129158e-002
1.326806e+003,1.111587e-002
1.328735e+003,1.098386e-002
1.330663e+003,1.080824e-002
1.332592e+003,1.071888e-002
1.334520e+003,1.066315e-002
1.336449e+003,1.056156e-002
1.338377e+003,1.045063e-002
1.340306e+003,1.035550e-002
1.342234e+003,1.044666e-002
1.344163e+003,1.044812e-002
1.346091e+003,1.042850e-002
1.348020e+003,1.039850e-002
1.349948e+003,1.030002e-002
1.351877e+003,1.007215e-002
1.353805e+003,9.929336e-003
1.355734e+003,9.801110e-003
1.357662e+003,9.618716e-003
1.359591e+003,9.581319e-003
1.361519e+003,9.634029e-003
1.363448e+003,9.571021e-003
1.365376e+003,9.426987e-003
1.367305e+003,9.319762e-003
1.369233e+003,9.218656e-003
1.371162e+003,9.055858e-003
1.373090e+003,9.105662e-003
1.375019e+003,9.214154e-003
1.376947e+003,9.308659e-003
1.378876e+003,9.453433e-003
1.380804e+003,9.599340e-003
1.382733e+003,9.510191e-003
1.384661e+003,9.280054e-003
1.386590e+003,9.260151e-003
1.388518e+003,9.181055e-003
1.390447e+003,8.879019e-003
1.392375e+003,8.678049e-003
1.394304e+003,8.527079e-003
1.396232e+003,8.321104e-003
1.398161e+003,8.264669e-003
1.400089e+003,8.323366e-003
1.402018e+003,8.211686e-003
1.403946e+003,8.066987e-003
1.405875e+003,8.014467e-003
1.407803e+003,7.889268e-003
1.409732e+003,7.776957e-003
1.411660e+003,7.656953e-003
1.413589e+003,7.585128e-003
1.415517e+003,7.796725e-003
1.417446e+003,8.133085e-003
1.419374e+003,8.622379e-003
1.421303e+003,9.171817e-003
1.423231e+003,9.826630e-003
1.425160e+003,1.062695e-002
1.427088e+003,1.122963e-002
1.429017e+003,1.166633e-002
1.430945e+003,1.193499e-002
1.432874e+003,1.212743e-002
1.434802e+003,1.252666e-002
1.436731e+003,1.307670e-002
1.438659e+003,1.346317e-002
1.440588e+003,1.381305e-002
1.442516e+003,1.433495e-002
1.444445e+003,1.488738e-002
1.446373e+003,1.554033e-002
1.448302e+003,1.621119e-002
1.450230e+003,1.681864e-002
1.452159e+003,1.750941e-002
1.454087e+003,1.827537e-002
1.456016e+003,1.878873e-002
1.457944e+003,1.924585e-002
1.459873e+003,1.965318e-002
1.461801e+003,1.994261e-002
1.463730e+003,2.021804e-002
1.465658e+003,2.037994e-002
1.467587e+003,2.030022e-002
1.469515e+003,2.019683e-002
1.471444e+003,2.002352e-002
1.473372e+003,1.973049e-002
1.475301e+003,1.945780e-002
1.477229e+003,1.893099e-002
1.479158e+003,1.839907e-002
1.481086e+003,1.785511e-002
1.483015e+003,1.721984e-002
1.484943e+003,1.663111e-002
1.486872e+003,1.612164e-002
1.488800e+003,1.560095e-002
1.490729e+003,1.495151e-002
1.492657e+003,1.436903e-002
1.494586e+003,1.394548e-002
1.496514e+003,1.347090e-002
1.498443e+003,1.293665e-002
1.500371e+003,1.231190e-002
1.502300e+003,1.192175e-002
1.504228e+003,1.165398e-002
1.506157e+003,1.132828e-002
1.508085e+003,1.115755e-002
1.510014e+003,1.082597e-002
1.511942e+003,1.059589e-002
1.513871e+003,1.043756e-002
1.515799e+003,1.022040e-002
1.517728e+003,1.023492e-002
1.519656e+003,1.030152e-002
1.521585e+003,1.032958e-002
1.523513e+003,1.046264e-002
1.525442e+003,1.072166e-002
1.527370e+003,1.087717e-002
1.529299e+003,1.093279e-002
1.531227e+003,1.102937e-002
1.533156e+003,1.138783e-002
1.535084e+003,1.177931e-002
1.537013e+003,1.207411e-002
1.538941e+003,1.246116e-002
1.540870e+003,1.280439e-002
1.542798e+003,1.309428e-002
1.544727e+003,1.353143e-002
1.546655e+003,1.382252e-002
1.548584e+003,1.405847e-002
1.550512e+003,1.448898e-002
1.552441e+003,1.483396e-002
1.554369e+003,1.508068e-002
1.556298e+003,1.536351e-002
1.558226e+003,1.583192e-002
1.560155e+003,1.642879e-002
1.562083e+003,1.690120e-002
1.564012e+003,1.734375e-002
1.565940e+003,1.783011e-002
1.567869e+003,1.812746e-002
1.569797e+003,1.841225e-002
1.571726e+003,1.862905e-002
1.573654e+003,1.882727e-002
1.575583e+003,1.904165e-002
1.577511e+003,1.894424e-002
1.579440e+003,1.869394e-002
1.581368e+003,1.866433e-002
1.583297e+003,1.857766e-002
1.585225e+003,1.832780e-002
1.587154e+003,1.805194e-002
1.589082e+003,1.761281e-002
1.591010e+003,1.700405e-002
1.592939e+003,1.646843e-002
1.594868e+003,1.602756e-002
1.596796e+003,1.543203e-002
1.598724e+003,1.477356e-002
1.600653e+003,1.405590e-002
1.602582e+003,1.344376e-002
1.604510e+003,1.284053e-002
1.606438e+003,1.231456e-002
1.608367e+003,1.170149e-002
1.610296e+003,1.122239e-002
1.612224e+003,1.082825e-002
1.614152e+003,1.042935e-002
1.616081e+003,1.005750e-002
1.618010e+003,9.836764e-003
1.619938e+003,9.589889e-003
1.621866e+003,9.323282e-003
1.623795e+003,9.024699e-003
1.625724e+003,8.940201e-003
1.627652e+003,8.827888e-003
1.629580e+003,8.580539e-003
1.631509e+003,8.357920e-003
1.633438e+003,8.282297e-003
1.635366e+003,8.132038e-003
1.637294e+003,7.767445e-003
1.639223e+003,7.356514e-003
1.641151e+003,7.007521e-003
1.643080e+003,6.642558e-003
1.645008e+003,6.290575e-003
1.646937e+003,5.970386e-003
1.648865e+003,5.542492e-003
1.650794e+003,5.231305e-003
1.652722e+003,5.215241e-003
1.654651e+003,4.802630e-003
1.656579e+003,4.317516e-003
1.658508e+003,3.945244e-003
1.660436e+003,3.714493e-003
1.662365e+003,3.531398e-003
1.664293e+003,3.407117e-003
1.666222e+003,3.261072e-003
1.668150e+003,2.956485e-003
1.670079e+003,2.496056e-003
1.672007e+003,2.260045e-003
1.673936e+003,2.153809e-003
1.675864e+003,2.016207e-003
1.677793e+003,1.658007e-003
1.679721e+003,1.417233e-003
1.681650e+003,1.325062e-003
1.683578e+003,1.317451e-003
1.685507e+003,1.138020e-003
1.687435e+003,7.986015e-004
1.689364e+003,6.662399e-004
1.691292e+003,5.922439e-004
1.693221e+003,6.186885e-004
1.695149e+003,7.991326e-004
1.697078e+003,8.992272e-004
1.699006e+003,7.553505e-004
1.700935e+003,7.591676e-004
1.702863e+003,7.518986e-004
1.704792e+003,6.900009e-004
1.706720e+003,7.435676e-004
1.708649e+003,7.306898e-004
1.710577e+003,6.694256e-004
1.712506e+003,5.497101e-004
1.714434e+003,4.909594e-004
1.716363e+003,4.527143e-004
1.718291e+003,4.950063e-004
1.720220e+003,4.790841e-004
1.722148e+003,3.834638e-004
1.724077e+003,3.389278e-004
1.726005e+003,3.619745e-004
1.727934e+003,3.817393e-004
1.729862e+003,4.317854e-004
1.731791e+003,4.457158e-004
1.733719e+003,3.570998e-004
1.735648e+003,1.709390e-004
1.737576e+003,1.277505e-004
1.739505e+003,3.708951e-004
1.741433e+003,4.845573e-004
1.743362e+003,4.155671e-004
1.745290e+003,4.444886e-004
1.747219e+003,4.142073e-004
1.749147e+003,3.182697e-004
1.751076e+003,2.537152e-004
1.753004e+003,2.352491e-004
1.754933e+003,3.060676e-004
1.756861e+003,4.433277e-004
1.758790e+003,3.375350e-004
1.760718e+003,2.739724e-004
1.762647e+003,2.787799e-004
1.764575e+003,2.481786e-004
1.766504e+003,2.834548e-004
1.768432e+003,3.837291e-004
1.770361e+003,3.444323e-004
1.772289e+003,3.231108e-004
1.774218e+003,3.225139e-004
1.776146e+003,3.467204e-004
1.778075e+003,2.911470e-004
1.780003e+003,1.517473e-004
1.781932e+003,1.550950e-004
1.783860e+003,1.844964e-004
1.785789e+003,2.219554e-004
1.787717e+003,2.271933e-004
1.789646e+003,2.981430e-004
1.791574e+003,2.321660e-004
1.793503e+003,1.438587e-004
1.795431e+003,1.171778e-004
1.797360e+003,1.087264e-004
1.799288e+003,1.430632e-004
1.801217e+003,1.325564e-004
1.803145e+003,1.237401e-004
1.805074e+003,1.721986e-004
1.807002e+003,1.547967e-004
1.808931e+003,1.053790e-004
1.810859e+003,2.019989e-004
1.812788e+003,2.400230e-004
1.814716e+003,1.821097e-004
1.816645e+003,2.103858e-004
1.818573e+003,1.826401e-004
1.820502e+003,8.377093e-005
1.822430e+003,9.875066e-005
1.824359e+003,9.606621e-005
1.826287e+003,8.539481e-005
1.828216e+003,9.805469e-005
1.830144e+003,7.717603e-005
1.832073e+003,1.185035e-004
1.834001e+003,2.037890e-004
1.835930e+003,1.738560e-004
1.837858e+003,1.053459e-004
1.839787e+003,7.856791e-005
1.841715e+003,1.268225e-004
1.843644e+003,1.575478e-004
1.845572e+003,1.231104e-004
1.847501e+003,1.023631e-004
1.849429e+003,1.062076e-004
1.851358e+003,1.564871e-004
1.853286e+003,1.689170e-004
1.855215e+003,8.841061e-005
1.857143e+003,-4.075468e-006
1.859072e+003,1.722973e-006
1.861000e+003,7.177426e-005
1.862929e+003,1.252647e-004
1.864857e+003,2.117118e-004
1.866786e+003,1.446873e-004
1.868714e+003,8.390349e-005
1.870643e+003,9.043221e-005
1.872571e+003,1.652046e-004
1.874500e+003,2.819296e-004
1.876428e+003,2.650538e-004
1.878357e+003,2.205299e-004
1.880285e+003,2.243754e-004
1.882214e+003,1.788612e-004
1.884142e+003,1.404779e-004
1.886071e+003,1.693811e-004
1.887999e+003,9.361375e-005
1.889928e+003,7.532020e-005
1.891856e+003,8.433432e-005
1.893785e+003,1.461126e-004
1.895713e+003,2.190381e-004
1.897642e+003,2.448302e-004
1.899570e+003,2.353817e-004
1.901499e+003,2.201984e-004
1.903427e+003,2.979772e-004
1.905356e+003,2.586219e-004
1.907284e+003,2.421448e-004
1.909213e+003,3.410500e-004
1.911141e+003,3.992167e-004
1.913070e+003,4.077400e-004
1.914998e+003,3.560054e-004
1.916927e+003,4.190163e-004
1.918855e+003,3.976248e-004
1.920784e+003,2.852120e-004
1.922712e+003,2.231157e-004
1.924641e+003,3.128317e-004
1.926569e+003,3.331580e-004
1.928498e+003,3.524572e-004
1.930426e+003,3.872445e-004
1.932355e+003,4.003111e-004
1.934283e+003,3.566687e-004
1.936212e+003,3.624056e-004
1.938140e+003,3.742777e-004
1.940069e+003,3.965635e-004
1.941997e+003,4.131128e-004
1.943926e+003,4.167279e-004
1.945854e+003,3.647933e-004
1.947783e+003,2.982093e-004
1.949711e+003,2.523227e-004
1.951640e+003,2.226847e-004
1.953568e+003,2.632634e-004
1.955497e+003,3.040450e-004
1.957425e+003,3.506002e-004
1.959354e+003,3.229118e-004
1.961282e+003,3.152523e-004
1.963211e+003,3.530541e-004
1.965139e+003,3.830990e-004
1.967068e+003,3.879409e-004
1.968996e+003,4.139419e-004
1.970925e+003,3.757700e-004
1.972853e+003,3.213202e-004
1.974782e+003,3.811424e-004
1.976710e+003,3.944078e-004
1.978639e+003,3.811424e-004
1.980567e+003,4.096968e-004
1.982496e+003,4.401436e-004
1.984424e+003,4.027984e-004
1.986353e+003,4.215701e-004
1.988281e+003,4.816715e-004
1.990210e+003,4.990202e-004
1.992138e+003,5.397574e-004
1.994067e+003,5.996097e-004
1.995995e+003,5.861057e-004
1.997924e+003,6.209448e-004
1.999852e+003,6.708194e-004
2.001781e+003,6.323262e-004
2.003709e+003,5.981830e-004
2.005638e+003,5.817261e-004
2.007566e+003,6.345827e-004
2.009495e+003,6.108578e-004
2.011423e+003,5.528618e-004
2.013352e+003,6.690606e-004
2.015280e+003,7.526620e-004
2.017208e+003,7.253794e-004
2.019137e+003,6.484200e-004
2.021066e+003,6.475904e-004
2.022994e+003,7.527284e-004
2.024922e+003,8.269509e-004
2.026851e+003,8.403296e-004
2.028780e+003,7.976720e-004
2.030708e+003,7.700879e-004
2.032636e+003,8.460066e-004
2.034565e+003,9.075944e-004
2.036494e+003,8.591866e-004
2.038422e+003,9.134050e-004
2.040350e+003,9.969538e-004
2.042279e+003,1.022493e-003
2.044208e+003,1.038867e-003
2.046136e+003,1.053548e-003
2.048064e+003,1.058331e-003
2.049993e+003,1.160379e-003
2.051921e+003,1.189815e-003
2.053850e+003,1.150777e-003
2.055778e+003,1.153236e-003
2.057707e+003,1.223772e-003
2.059635e+003,1.322336e-003
2.061564e+003,1.317019e-003
2.063492e+003,1.311136e-003
2.065421e+003,1.305885e-003
2.067349e+003,1.360027e-003
2.069278e+003,1.375250e-003
2.071206e+003,1.385654e-003
2.073135e+003,1.481462e-003
2.075063e+003,1.556374e-003
2.076992e+003,1.576193e-003
2.078920e+003,1.598175e-003
2.080849e+003,1.633428e-003
2.082777e+003,1.656976e-003
2.084706e+003,1.727894e-003
2.086634e+003,1.759232e-003
2.088563e+003,1.740469e-003
2.090491e+003,1.769046e-003
2.092420e+003,1.913625e-003
2.094348e+003,1.973168e-003
2.096277e+003,1.982654e-003
2.098205e+003,2.038078e-003
2.100134e+003,2.039443e-003
2.102062e+003,2.084454e-003
2.103991e+003,2.123808e-003
2.105919e+003,2.153510e-003
2.107848e+003,2.194169e-003
2.109776e+003,2.192504e-003
2.111705e+003,2.212086e-003
2.113633e+003,2.315138e-003
2.115562e+003,2.390028e-003
2.117490e+003,2.443205e-003
2.119419e+003,2.485392e-003
2.121347e+003,2.463198e-003
2.123276e+003,2.460333e-003
2.125204e+003,2.488924e-003
2.127133e+003,2.511785e-003
2.129061e+003,2.635177e-003
2.130990e+003,2.686917e-003
2.132918e+003,2.753134e-003
2.134847e+003,2.758036e-003
2.136775e+003,2.706421e-003
2.138704e+003,2.773909e-003
2.140632e+003,2.820162e-003
2.142561e+003,2.781378e-003
2.144489e+003,2.748699e-003
2.146418e+003,2.874159e-003
2.148346e+003,2.979904e-003
2.150275e+003,3.033587e-003
2.152203e+003,3.067956e-003
2.154132e+003,3.065854e-003
2.156060e+003,3.040828e-003
2.157989e+003,3.002391e-003
2.159917e+003,2.973933e-003
2.161846e+003,2.953749e-003
2.163774e+003,3.028950e-003
2.165703e+003,3.118113e-003
2.167631e+003,3.112406e-003
2.169560e+003,3.155692e-003
2.171488e+003,3.257867e-003
2.173417e+003,3.278265e-003
2.175345e+003,3.248319e-003
2.177274e+003,3.189803e-003
2.179202e+003,3.238037e-003
2.181131e+003,3.244447e-003
2.183059e+003,3.180324e-003
2.184988e+003,3.162367e-003
2.186916e+003,3.236302e-003
2.188845e+003,3.293622e-003
2.190773e+003,3.350383e-003
2.192702e+003,3.385444e-003
2.194630e+003,3.312586e-003
2.196559e+003,3.201920e-003
2.198487e+003,3.135734e-003
2.200416e+003,3.126422e-003
2.202344e+003,3.131829e-003
2.204273e+003,3.147215e-003
2.206201e+003,3.219478e-003
2.208130e+003,3.115710e-003
2.210058e+003,3.089046e-003
2.211987e+003,3.131128e-003
2.213915e+003,3.191205e-003
2.215844e+003,3.162768e-003
2.217772e+003,3.106199e-003
2.219701e+003,3.126623e-003
2.221629e+003,3.058479e-003
2.223558e+003,3.022777e-003
2.225486e+003,3.007763e-003
2.227415e+003,3.010866e-003
2.229343e+003,3.011032e-003
2.231272e+003,3.056010e-003
2.233200e+003,2.985676e-003
2.235129e+003,2.979537e-003
2.237057e+003,3.025580e-003
2.238986e+003,2.982240e-003
2.240914e+003,2.836471e-003
2.242843e+003,2.793617e-003
2.244771e+003,2.837505e-003
2.246700e+003,2.796451e-003
2.248628e+003,2.772375e-003
2.250557e+003,2.760237e-003
2.252485e+003,2.692951e-003
2.254414e+003,2.693718e-003
2.256342e+003,2.711655e-003
2.258271e+003,2.713122e-003
2.260199e+003,2.678449e-003
2.262128e+003,2.622509e-003
2.264056e+003,2.636210e-003
2.265985e+003,2.671681e-003
2.267913e+003,2.613309e-003
2.269842e+003,2.631576e-003
2.271770e+003,2.667847e-003
2.273699e+003,2.609342e-003
2.275627e+003,2.611476e-003
2.277556e+003,2.622776e-003
2.279484e+003,2.541947e-003
2.281413e+003,2.560811e-003
2.283341e+003,2.522350e-003
2.285270e+003,2.380833e-003
2.287198e+003,2.468363e-003
2.289127e+003,2.534681e-003
2.291055e+003,2.551979e-003
2.292984e+003,2.508053e-003
2.294912e+003,2.424546e-003
2.296841e+003,2.468030e-003
2.298769e+003,2.536614e-003
2.300698e+003,2.563777e-003
2.302626e+003,2.594976e-003
2.304555e+003,2.611409e-003
2.306483e+003,2.577710e-003
2.308412e+003,2.666680e-003
2.310340e+003,2.724459e-003
2.312269e+003,2.752767e-003
2.314197e+003,2.768573e-003
2.316125e+003,2.759770e-003
2.318054e+003,2.757936e-003
2.319983e+003,2.761504e-003
2.321911e+003,2.752834e-003
2.323840e+003,2.861185e-003
2.325768e+003,2.952048e-003
2.327697e+003,2.965859e-003
2.329625e+003,3.043531e-003
2.331553e+003,2.987378e-003
2.333482e+003,2.977202e-003
2.335411e+003,3.052206e-003
2.337339e+003,3.059147e-003
2.339268e+003,3.183328e-003
2.341196e+003,3.200685e-003
2.343125e+003,3.126723e-003
2.345053e+003,3.099257e-003
2.346981e+003,3.067356e-003
2.348910e+003,2.979037e-003
2.350839e+003,3.046968e-003
2.352767e+003,3.145813e-003
2.354696e+003,3.169810e-003
2.356624e+003,3.331417e-003
2.358552e+003,3.442684e-003
2.360481e+003,3.353221e-003
2.362409e+003,3.281603e-003
2.364338e+003,3.365976e-003
2.366267e+003,3.481093e-003
2.368195e+003,3.503639e-003
2.370124e+003,3.495857e-003
2.372052e+003,3.560093e-003
2.373980e+003,3.517635e-003
2.375909e+003,3.408252e-003
2.377838e+003,3.534604e-003
2.379766e+003,3.715563e-003
2.381695e+003,3.738355e-003
2.383623e+003,3.746476e-003
2.385552e+003,3.894724e-003
2.387480e+003,3.966309e-003
2.389408e+003,4.065932e-003
2.391337e+003,4.189197e-003
2.393266e+003,4.161798e-003
2.395194e+003,4.214758e-003
2.397123e+003,4.204453e-003
2.399051e+003,4.147146e-003
2.400979e+003,4.162501e-003
2.402908e+003,4.242595e-003
2.404836e+003,4.338098e-003
2.406765e+003,4.360187e-003
2.408694e+003,4.392250e-003
2.410622e+003,4.403464e-003
2.412551e+003,4.461574e-003
2.414479e+003,4.514370e-003
2.416407e+003,4.517483e-003
2.418336e+003,4.583947e-003
2.420264e+003,4.645967e-003
2.422193e+003,4.644761e-003
2.424122e+003,4.684349e-003
2.426050e+003,4.756131e-003
2.427979e+003,4.879726e-003
2.429907e+003,4.887232e-003
2.431835e+003,4.958310e-003
2.433764e+003,5.053200e-003
2.435692e+003,5.087126e-003
2.437621e+003,5.112471e-003
2.439550e+003,5.138656e-003
2.441478e+003,5.169335e-003
2.443406e+003,5.189052e-003
2.445335e+003,5.182044e-003
2.447263e+003,5.145194e-003
2.449192e+003,5.145194e-003
2.451121e+003,5.285367e-003
2.453049e+003,5.319680e-003
2.454978e+003,5.331856e-003
2.456906e+003,5.435718e-003
2.458834e+003,5.470814e-003
2.460763e+003,5.536653e-003
2.462691e+003,5.644189e-003
2.464620e+003,5.750678e-003
2.466549e+003,5.814679e-003
2.468477e+003,5.742117e-003
2.470406e+003,5.786371e-003
2.472334e+003,5.768273e-003
2.474262e+003,5.769481e-003
2.476191e+003,5.944084e-003
2.478119e+003,6.071411e-003
2.480048e+003,6.099838e-003
2.481977e+003,6.053570e-003
2.483905e+003,6.093622e-003
2.485833e+003,6.170645e-003
2.487762e+003,6.260085e-003
2.489690e+003,6.327758e-003
2.491619e+003,6.346182e-003
2.493547e+003,6.478739e-003
2.495476e+003,6.489098e-003
2.497405e+003,6.422107e-003
2.499333e+003,6.486778e-003
2.501261e+003,6.682530e-003
2.503190e+003,6.656555e-003
2.505118e+003,6.572919e-003
2.507047e+003,6.572953e-003
2.508975e+003,6.671729e-003
2.510904e+003,6.769552e-003
2.512833e+003,6.857567e-003
2.514761e+003,6.883723e-003
2.516689e+003,6.844978e-003
2.518618e+003,6.777461e-003
2.520546e+003,6.811420e-003
2.522475e+003,6.820306e-003
2.524403e+003,6.843935e-003
2.526332e+003,6.960011e-003
2.528260e+003,7.067665e-003
2.530189e+003,7.039175e-003
2.532117e+003,7.036515e-003
2.534046e+003,7.034663e-003
2.535974e+003,7.115255e-003
2.537903e+003,7.154664e-003
2.539831e+003,7.102489e-003
2.541760e+003,7.046887e-003
2.543688e+003,7.072481e-003
2.545617e+003,7.140550e-003
2.547545e+003,7.224362e-003
2.549474e+003,7.292455e-003
2.551402e+003,7.265129e-003
2.553331e+003,7.211291e-003
2.555259e+003,7.228136e-003
2.557188e+003,7.210145e-003
2.559116e+003,7.207787e-003
2.561045e+003,7.238546e-003
2.562973e+003,7.261355e-003
2.564902e+003,7.271800e-003
2.566830e+003,7.339395e-003
2.568759e+003,7.354559e-003
2.570687e+003,7.343641e-003
2.572616e+003,7.429649e-003
2.574544e+003,7.451761e-003
2.576473e+003,7.300777e-003
2.578401e+003,7.227900e-003
2.580330e+003,7.244341e-003
2.582258e+003,7.367264e-003
2.584187e+003,7.536914e-003
2.586115e+003,7.594164e-003
2.588044e+003,7.545680e-003
2.589972e+003,7.599661e-003
2.591901e+003,7.702515e-003
2.593829e+003,7.682516e-003
2.595758e+003,7.651793e-003
2.597686e+003,7.669060e-003
2.599615e+003,7.716580e-003
2.601543e+003,7.759855e-003
2.603472e+003,7.687979e-003
2.605400e+003,7.753480e-003
2.607329e+003,7.871925e-003
2.609257e+003,7.891563e-003
2.611186e+003,7.937959e-003
2.613114e+003,8.023006e-003
2.615043e+003,8.065974e-003
2.616971e+003,8.090718e-003
2.618900e+003,8.047611e-003
2.620828e+003,8.020272e-003
2.622757e+003,8.167252e-003
2.624685e+003,8.328972e-003
2.626614e+003,8.265750e-003
2.628542e+003,8.117994e-003
2.630471e+003,8.076674e-003
2.632399e+003,8.168433e-003
2.634328e+003,8.174342e-003
2.636256e+003,8.143246e-003
2.638185e+003,8.240489e-003
2.640113e+003,8.349576e-003
2.642042e+003,8.395280e-003
2.643970e+003,8.365384e-003
2.645899e+003,8.498087e-003
2.647827e+003,8.518901e-003
2.649756e+003,8.502006e-003
2.651684e+003,8.608421e-003
2.653613e+003,8.699514e-003
2.655541e+003,8.756816e-003
2.657470e+003,8.830357e-003
2.659398e+003,8.892276e-003
2.661327e+003,8.935364e-003
2.663255e+003,8.924440e-003
2.665184e+003,8.862482e-003
2.667112e+003,8.882130e-003
2.669041e+003,8.961544e-003
2.670969e+003,9.023482e-003
2.672898e+003,9.049802e-003
2.674826e+003,9.044626e-003
2.676755e+003,9.070846e-003
2.678683e+003,9.058226e-003
2.680612e+003,9.119771e-003
2.682540e+003,9.154863e-003
2.684469e+003,9.171275e-003
2.686397e+003,9.290954e-003
2.688326e+003,9.402811e-003
2.690254e+003,9.457226e-003
2.692183e+003,9.567093e-003
2.694111e+003,9.614754e-003
2.696040e+003,9.580879e-003
2.697968e+003,9.642261e-003
2.699897e+003,9.726016e-003
2.701825e+003,9.715986e-003
2.703754e+003,9.712428e-003
2.705682e+003,9.790774e-003
2.707611e+003,9.862151e-003
2.709539e+003,9.916454e-003
2.711468e+003,9.952965e-003
2.713396e+003,9.963271e-003
2.715325e+003,1.000030e-002
2.717253e+003,9.993345e-003
2.719182e+003,1.001959e-002
2.721110e+003,1.014154e-002
2.723039e+003,1.026087e-002
2.724967e+003,1.032025e-002
2.726896e+003,1.031960e-002
2.728824e+003,1.033976e-002
2.730753e+003,1.040759e-002
2.732681e+003,1.061422e-002
2.734610e+003,1.064478e-002
2.736538e+003,1.063327e-002
2.738467e+003,1.076381e-002
2.740395e+003,1.097258e-002
2.742324e+003,1.104358e-002
2.744252e+003,1.111604e-002
2.746181e+003,1.120365e-002
2.748109e+003,1.129050e-002
2.750038e+003,1.143831e-002
2.751966e+003,1.145692e-002
2.753895e+003,1.153660e-002
2.755823e+003,1.163325e-002
2.757752e+003,1.172215e-002
2.759680e+003,1.189423e-002
2.761609e+003,1.202158e-002
2.763537e+003,1.220546e-002
2.765466e+003,1.241724e-002
2.767394e+003,1.272666e-002
2.769323e+003,1.307601e-002
2.771251e+003,1.340579e-002
2.773180e+003,1.373862e-002
2.775108e+003,1.409252e-002
2.777037e+003,1.446627e-002
2.778965e+003,1.483544e-002
2.780894e+003,1.538833e-002
2.782822e+003,1.597754e-002
2.784750e+003,1.656029e-002
2.786679e+003,1.723373e-002
2.788608e+003,1.787223e-002
2.790536e+003,1.839621e-002
2.792465e+003,1.900108e-002
2.794393e+003,1.972221e-002
2.796322e+003,2.027418e-002
2.798250e+003,2.085803e-002
2.800178e+003,2.159614e-002
2.802107e+003,2.219827e-002
2.804036e+003,2.260678e-002
2.805964e+003,2.298499e-002
2.807893e+003,2.328026e-002
2.809821e+003,2.347114e-002
2.811750e+003,2.362873e-002
2.813678e+003,2.376772e-002
2.815606e+003,2.382011e-002
2.817535e+003,2.384889e-002
2.819464e+003,2.383366e-002
2.821392e+003,2.364839e-002
2.823321e+003,2.333550e-002
2.825249e+003,2.295317e-002
2.827177e+003,2.269398e-002
2.829106e+003,2.249904e-002
2.831034e+003,2.210459e-002
2.832963e+003,2.167113e-002
2.834892e+003,2.126816e-002
2.836820e+003,2.083307e-002
2.838749e+003,2.048660e-002
2.840677e+003,2.004857e-002
2.842605e+003,1.948600e-002
2.844534e+003,1.882499e-002
2.846462e+003,1.831346e-002
2.848391e+003,1.789965e-002
2.850320e+003,1.755133e-002
2.852248e+003,1.716392e-002
2.854177e+003,1.681978e-002
2.856105e+003,1.657819e-002
2.858033e+003,1.636007e-002
2.859962e+003,1.625291e-002
2.861890e+003,1.619623e-002
2.863819e+003,1.614299e-002
2.865748e+003,1.617659e-002
2.867676e+003,1.613828e-002
2.869604e+003,1.596129e-002
2.871533e+003,1.600285e-002
2.873461e+003,1.617783e-002
2.875390e+003,1.623668e-002
2.877319e+003,1.623943e-002
2.879247e+003,1.650164e-002
2.881176e+003,1.674187e-002
2.883104e+003,1.671529e-002
2.885032e+003,1.657826e-002
2.886961e+003,1.655868e-002
2.888889e+003,1.654067e-002
2.890818e+003,1.646031e-002
2.892747e+003,1.635347e-002
2.894675e+003,1.631745e-002
2.896604e+003,1.630802e-002
2.898532e+003,1.620428e-002
2.900460e+003,1.606205e-002
2.902389e+003,1.607893e-002
2.904317e+003,1.608147e-002
2.906246e+003,1.596534e-002
2.908175e+003,1.592337e-002
2.910103e+003,1.587543e-002
2.912031e+003,1.587962e-002
2.913960e+003,1.584085e-002
2.915888e+003,1.577031e-002
2.917817e+003,1.586704e-002
2.919745e+003,1.589512e-002
2.921674e+003,1.588010e-002
2.923603e+003,1.588433e-002
2.925531e+003,1.595960e-002
2.927459e+003,1.612903e-002
2.929388e+003,1.628765e-002
2.931316e+003,1.645480e-002
2.933245e+003,1.661868e-002
2.935173e+003,1.672717e-002
2.937102e+003,1.669707e-002
2.939031e+003,1.658707e-002
2.940959e+003,1.661162e-002
2.942887e+003,1.657758e-002
2.944816e+003,1.643650e-002
2.946744e+003,1.620366e-002
2.948673e+003,1.593911e-002
2.950601e+003,1.560236e-002
2.952530e+003,1.520993e-002
2.954458e+003,1.480749e-002
2.956387e+003,1.435536e-002
2.958315e+003,1.391246e-002
2.960244e+003,1.340941e-002
2.962172e+003,1.290033e-002
2.964101e+003,1.244203e-002
2.966029e+003,1.191759e-002
2.967958e+003,1.143638e-002
2.969886e+003,1.094129e-002
2.971815e+003,1.047228e-002
2.973743e+003,1.011284e-002
2.975672e+003,9.743195e-003
2.977600e+003,9.433861e-003
2.979529e+003,9.146368e-003
2.981457e+003,8.760468e-003
2.983386e+003,8.396158e-003
2.985314e+003,8.116407e-003
2.987243e+003,7.945654e-003
2.989171e+003,7.756077e-003
2.991100e+003,7.558997e-003
2.993028e+003,7.419639e-003
2.994957e+003,7.378251e-003
2.996885e+003,7.254886e-003
2.998814e+003,7.083427e-003
3.000742e+003,6.925199e-003
3.002671e+003,6.860294e-003
3.004599e+003,6.787524e-003
3.006528e+003,6.795299e-003
3.008456e+003,6.729909e-003
3.010385e+003,6.564711e-003
3.012313e+003,6.555797e-003
3.014242e+003,6.549070e-003
3.016170e+003,6.455803e-003
3.018099e+003,6.431052e-003
3.020027e+003,6.491520e-003
3.021956e+003,6.411749e-003
3.023884e+003,6.286642e-003
3.025813e+003,6.193062e-003
3.027741e+003,6.097687e-003
3.029670e+003,6.239917e-003
3.031598e+003,6.333137e-003
3.033527e+003,6.272590e-003
3.035455e+003,6.151757e-003
3.037384e+003,6.032167e-003
3.039312e+003,5.926987e-003
3.041241e+003,5.777909e-003
3.043169e+003,5.714519e-003
3.045098e+003,5.778681e-003
3.047026e+003,5.791508e-003
3.048955e+003,5.640430e-003
3.050883e+003,5.481149e-003
3.052812e+003,5.438671e-003
3.054740e+003,5.337893e-003
3.056669e+003,5.265210e-003
3.058597e+003,5.259241e-003
3.060526e+003,5.193042e-003
3.062454e+003,5.212860e-003
3.064383e+003,5.237844e-003
3.066311e+003,5.178188e-003
3.068240e+003,5.158304e-003
3.070168e+003,4.988776e-003
3.072097e+003,4.825211e-003
3.074025e+003,4.813987e-003
3.075954e+003,4.835095e-003
3.077882e+003,4.692755e-003
3.079811e+003,4.561412e-003
3.081739e+003,4.568410e-003
3.083668e+003,4.625907e-003
3.085596e+003,4.549759e-003
3.087525e+003,4.341077e-003
3.089453e+003,4.279803e-003
3.091382e+003,4.288336e-003
3.093310e+003,4.299546e-003
3.095239e+003,4.218638e-003
3.097167e+003,4.169225e-003
3.099096e+003,4.089044e-003
3.101024e+003,3.949490e-003
3.102953e+003,3.852601e-003
3.104881e+003,3.800387e-003
3.106810e+003,3.751556e-003
3.108738e+003,3.733007e-003
3.110667e+003,3.647293e-003
3.112595e+003,3.582509e-003
3.114524e+003,3.558890e-003
3.116452e+003,3.555249e-003
3.118381e+003,3.594102e-003
3.120309e+003,3.446191e-003
3.122238e+003,3.307812e-003
3.124166e+003,3.328679e-003
3.126095e+003,3.252960e-003
3.128023e+003,3.249721e-003
3.129952e+003,3.445857e-003
3.131880e+003,3.435470e-003
3.133809e+003,3.332886e-003
3.135737e+003,3.258167e-003
3.137666e+003,3.361836e-003
3.139594e+003,3.399804e-003
3.141523e+003,3.233398e-003
3.143451e+003,3.178822e-003
3.145380e+003,3.167707e-003
3.147308e+003,3.224485e-003
3.149237e+003,3.165771e-003
3.151165e+003,3.031119e-003
3.153094e+003,2.947144e-003
3.155022e+003,2.911751e-003
3.156951e+003,2.980105e-003
3.158879e+003,3.085575e-003
3.160808e+003,3.184696e-003
3.162736e+003,3.133932e-003
3.164665e+003,3.020642e-003
3.166593e+003,2.904112e-003
3.168522e+003,2.887901e-003
3.170450e+003,2.932132e-003
3.172379e+003,2.948912e-003
3.174307e+003,3.010732e-003
3.176236e+003,3.110003e-003
3.178164e+003,3.101326e-003
3.180093e+003,3.120916e-003
3.182021e+003,2.983941e-003
3.183950e+003,2.935969e-003
3.185878e+003,2.969396e-003
3.187807e+003,2.972765e-003
3.189735e+003,2.945443e-003
3.191664e+003,2.923293e-003
3.193592e+003,2.819529e-003
3.195521e+003,2.762038e-003
3.197449e+003,2.889236e-003
3.199378e+003,2.930732e-003
3.201306e+003,2.896507e-003
3.203235e+003,2.810758e-003
3.205163e+003,2.848611e-003
3.207092e+003,2.850112e-003
3.209020e+003,2.963324e-003
3.210948e+003,3.079669e-003
3.212877e+003,3.104964e-003
3.214806e+003,3.130194e-003
3.216734e+003,3.027749e-003
3.218663e+003,2.962390e-003
3.220591e+003,3.036524e-003
3.222520e+003,3.129359e-003
3.224448e+003,3.212902e-003
3.226376e+003,3.406583e-003
3.228305e+003,3.554748e-003
3.230234e+003,3.519272e-003
3.232162e+003,3.527623e-003
3.234091e+003,3.564904e-003
3.236019e+003,3.588356e-003
3.237948e+003,3.636434e-003
3.239876e+003,3.824254e-003
3.241804e+003,3.987309e-003
3.243733e+003,3.958685e-003
3.245662e+003,3.988679e-003
3.247590e+003,4.003226e-003
3.249519e+003,4.175079e-003
3.251447e+003,4.261500e-003
3.253375e+003,4.264745e-003
3.255304e+003,4.271337e-003
3.257232e+003,4.459767e-003
3.259161e+003,4.693191e-003
3.261090e+003,4.763534e-003
3.263018e+003,4.786917e-003
3.264947e+003,4.763233e-003
3.266875e+003,4.747823e-003
3.268803e+003,4.880195e-003
3.270732e+003,5.005903e-003
3.272660e+003,5.170241e-003
3.274589e+003,5.248006e-003
3.276518e+003,5.252801e-003
3.278446e+003,5.252533e-003
3.280375e+003,5.166451e-003
3.282303e+003,5.149519e-003
3.284231e+003,5.130139e-003
3.286160e+003,5.222015e-003
3.288088e+003,5.253036e-003
3.290017e+003,5.010127e-003
3.291946e+003,4.839651e-003
3.293874e+003,4.840791e-003
3.295802e+003,4.827623e-003
3.297731e+003,4.813317e-003
3.299659e+003,4.761223e-003
3.301588e+003,4.654540e-003
3.303516e+003,4.336793e-003
3.305445e+003,4.093358e-003
3.307374e+003,3.975103e-003
3.309302e+003,3.914784e-003
3.311230e+003,3.811619e-003
3.313159e+003,3.688361e-003
3.315087e+003,3.606264e-003
3.317016e+003,3.433700e-003
3.318944e+003,3.244213e-003
3.320873e+003,3.217441e-003
3.322802e+003,3.079035e-003
3.324730e+003,2.802621e-003
3.326658e+003,2.739630e-003
3.328587e+003,2.817061e-003
3.330515e+003,2.762137e-003
3.332444e+003,2.546179e-003
3.334372e+003,2.315605e-003
3.336301e+003,2.274201e-003
3.338229e+003,2.337657e-003
3.340158e+003,2.307410e-003
3.342086e+003,2.254383e-003
3.344015e+003,2.277399e-003
3.345943e+003,2.176786e-003
3.347872e+003,1.933294e-003
3.349800e+003,1.861311e-003
3.351729e+003,1.940816e-003
3.353657e+003,1.815792e-003
3.355586e+003,1.647397e-003
3.357514e+003,1.518933e-003
3.359443e+003,1.486815e-003
3.361371e+003,1.429732e-003
3.363300e+003,1.262185e-003
3.365229e+003,1.170013e-003
3.367157e+003,1.122141e-003
3.369085e+003,8.763180e-004
3.371014e+003,6.559527e-004
3.372942e+003,5.647391e-004
3.374871e+003,4.468104e-004
3.376799e+003,4.526148e-004
3.378728e+003,3.670483e-004
3.380656e+003,2.309725e-004
3.382585e+003,1.557328e-005
3.384513e+003,-9.892698e-005
3.386442e+003,-7.852058e-005
3.388370e+003,-1.461187e-005
3.390299e+003,-1.311579e-004
3.392227e+003,-2.640643e-004
3.394156e+003,-2.755546e-004
3.396084e+003,-3.850125e-004
3.398013e+003,-4.003397e-004
3.399941e+003,-4.451264e-004
3.401870e+003,-4.722677e-004
3.403798e+003,-4.400952e-004
3.405727e+003,-6.131100e-004
3.407655e+003,-6.426229e-004
3.409584e+003,-5.508022e-004
3.411512e+003,-6.460306e-004
3.413441e+003,-8.070906e-004
3.415369e+003,-7.581736e-004
3.417298e+003,-8.021297e-004
3.419226e+003,-8.803070e-004
3.421155e+003,-9.594620e-004
3.423083e+003,-1.060385e-003
3.425012e+003,-1.100775e-003
3.426940e+003,-1.132634e-003
3.428869e+003,-1.127776e-003
3.430797e+003,-1.099684e-003
3.432726e+003,-1.015761e-003
3.434654e+003,-1.106525e-003
3.436583e+003,-1.374079e-003
3.438511e+003,-1.323244e-003
3.440440e+003,-1.304051e-003
3.442368e+003,-1.335665e-003
3.444297e+003,-1.283305e-003
3.446225e+003,-1.237713e-003
3.448154e+003,-1.291961e-003
3.450082e+003,-1.388381e-003
3.452011e+003,-1.439208e-003
3.453939e+003,-1.591589e-003
3.455868e+003,-1.729165e-003
3.457796e+003,-1.619088e-003
3.459725e+003,-1.502049e-003
3.461653e+003,-1.557981e-003
3.463582e+003,-1.598819e-003
3.465510e+003,-1.773023e-003
3.467439e+003,-1.837168e-003
3.469367e+003,-1.821958e-003
3.471296e+003,-1.886294e-003
3.473224e+003,-1.878409e-003
3.475153e+003,-2.002042e-003
3.477081e+003,-1.819912e-003
3.479010e+003,-1.702135e-003
3.480938e+003,-1.700320e-003
3.482867e+003,-1.722103e-003
3.484795e+003,-1.666588e-003
3.486724e+003,-1.684610e-003
3.488652e+003,-1.775036e-003
3.490581e+003,-1.891770e-003
3.492509e+003,-1.925386e-003
3.494438e+003,-1.732003e-003
3.496366e+003,-1.561316e-003
3.498295e+003,-1.738340e-003
3.500223e+003,-1.865279e-003
3.502152e+003,-1.880883e-003
3.504080e+003,-1.974073e-003
3.506009e+003,-1.921394e-003
3.507937e+003,-1.864652e-003
3.509866e+003,-1.830570e-003
3.511794e+003,-1.755698e-003
3.513723e+003,-1.848452e-003
3.515651e+003,-2.078948e-003
3.517580e+003,-2.086994e-003
3.519508e+003,-2.024007e-003
3.521437e+003,-1.970378e-003
3.523365e+003,-2.017213e-003
3.525294e+003,-2.079773e-003
3.527222e+003,-2.057711e-003
3.529151e+003,-1.971401e-003
3.531079e+003,-2.081521e-003
3.533008e+003,-2.206843e-003
3.534936e+003,-2.119903e-003
3.536865e+003,-2.106449e-003
3.538793e+003,-2.118649e-003
3.540722e+003,-1.978493e-003
3.542650e+003,-1.902426e-003
3.544579e+003,-1.878343e-003
3.546507e+003,-1.970576e-003
3.548436e+003,-2.220524e-003
3.550364e+003,-2.268353e-003
3.552293e+003,-2.155742e-003
3.554221e+003,-2.159534e-003
3.556150e+003,-2.297358e-003
3.558078e+003,-2.362810e-003
3.560007e+003,-2.313310e-003
3.561935e+003,-2.148753e-003
3.563864e+003,-2.224117e-003
3.565792e+003,-2.273133e-003
3.567721e+003,-2.007352e-003
3.569649e+003,-2.034726e-003
3.571578e+003,-2.292085e-003
3.573506e+003,-2.334567e-003
3.575435e+003,-2.217820e-003
3.577363e+003,-2.161842e-003
3.579292e+003,-2.272374e-003
3.581220e+003,-2.468647e-003
3.583149e+003,-2.566749e-003
3.585077e+003,-2.403935e-003
3.587006e+003,-2.287108e-003
3.588934e+003,-2.323000e-003
3.590863e+003,-2.313277e-003
3.592791e+003,-2.422849e-003
3.594720e+003,-2.593363e-003
3.596648e+003,-2.575149e-003
3.598577e+003,-2.329064e-003
3.600505e+003,-2.314563e-003
3.602434e+003,-2.549720e-003
3.604362e+003,-2.438961e-003
3.606291e+003,-2.556637e-003
3.608219e+003,-2.614277e-003
3.610148e+003,-2.539113e-003
3.612076e+003,-2.546261e-003
3.614005e+003,-2.462255e-003
3.615933e+003,-2.598732e-003
3.617862e+003,-2.518755e-003
3.619790e+003,-2.255003e-003
3.621719e+003,-2.426012e-003
3.623647e+003,-2.698847e-003
3.625576e+003,-2.585096e-003
3.627504e+003,-2.300193e-003
3.629433e+003,-2.134674e-003
3.631361e+003,-2.459092e-003
3.633290e+003,-2.499483e-003
3.635218e+003,-2.626562e-003
3.637146e+003,-2.866915e-003
3.639075e+003,-2.783136e-003
3.641004e+003,-2.519414e-003
3.642932e+003,-2.622083e-003
3.644861e+003,-2.799531e-003
3.646789e+003,-2.634828e-003
3.648718e+003,-2.741454e-003
3.650646e+003,-2.916451e-003
3.652574e+003,-2.791103e-003
3.654503e+003,-2.743298e-003
3.656432e+003,-2.745109e-003
3.658360e+003,-2.954299e-003
3.660289e+003,-3.154408e-003
3.662217e+003,-3.253441e-003
3.664146e+003,-3.136381e-003
3.666074e+003,-3.061110e-003
3.668002e+003,-3.142434e-003
3.669931e+003,-3.234958e-003
3.671860e+003,-3.480563e-003
3.673788e+003,-3.494072e-003
3.675717e+003,-3.090029e-003
3.677645e+003,-3.044560e-003
3.679573e+003,-3.179538e-003
3.681502e+003,-3.077790e-003
3.683430e+003,-2.958775e-003
3.685359e+003,-2.978256e-003
3.687288e+003,-2.852729e-003
3.689216e+003,-2.704148e-003
3.691145e+003,-2.849437e-003
3.693073e+003,-2.908454e-003
3.695001e+003,-3.074171e-003
3.696930e+003,-3.192859e-003
3.698858e+003,-3.252520e-003
3.700787e+003,-2.930538e-003
3.702716e+003,-2.750443e-003
3.704644e+003,-2.957261e-003
3.706573e+003,-3.003759e-003
3.708501e+003,-2.939621e-003
3.710429e+003,-2.815629e-003
3.712358e+003,-2.595833e-003
3.714286e+003,-2.581571e-003
3.716215e+003,-2.852103e-003
3.718144e+003,-2.824880e-003
3.720072e+003,-2.726572e-003
3.722000e+003,-2.724728e-003
3.723929e+003,-2.708165e-003
3.725857e+003,-2.612367e-003
3.727786e+003,-2.401365e-003
3.729714e+003,-2.733618e-003
3.731643e+003,-3.048903e-003
3.733572e+003,-2.902398e-003
3.735500e+003,-2.795943e-003
3.737428e+003,-2.821752e-003
3.739357e+003,-2.783070e-003
3.741285e+003,-2.415633e-003
3.743214e+003,-2.402848e-003
3.745142e+003,-2.223325e-003
3.747071e+003,-2.298380e-003
3.749000e+003,-2.133652e-003
3.750928e+003,-2.024931e-003
3.752856e+003,-1.917799e-003
3.754785e+003,-1.874021e-003
3.756713e+003,-1.847331e-003
3.758642e+003,-1.792360e-003
3.760570e+003,-1.817932e-003
3.762499e+003,-1.926606e-003
3.764427e+003,-1.858086e-003
3.766356e+003,-1.882533e-003
3.768284e+003,-1.882896e-003
3.770213e+003,-1.674015e-003
3.772141e+003,-1.831955e-003
3.774070e+003,-1.961077e-003
3.775998e+003,-1.899292e-003
3.777927e+003,-1.968927e-003
3.779855e+003,-2.024832e-003
3.781784e+003,-2.025458e-003
3.783712e+003,-1.936865e-003
3.785641e+003,-1.773551e-003
3.787569e+003,-1.906385e-003
3.789498e+003,-1.949895e-003
3.791426e+003,-1.964606e-003
3.793355e+003,-2.123859e-003
3.795283e+003,-2.029944e-003
3.797212e+003,-1.825422e-003
3.799140e+003,-1.983869e-003
3.801069e+003,-1.863101e-003
3.802997e+003,-1.743422e-003
3.804926e+003,-1.985881e-003
3.806854e+003,-1.822156e-003
3.808783e+003,-2.017774e-003
3.810711e+003,-2.089402e-003
3.812640e+003,-1.879498e-003
3.814568e+003,-1.994390e-003
3.816497e+003,-1.779491e-003
3.818425e+003,-1.553029e-003
3.820354e+003,-1.292324e-003
3.822282e+003,-1.282942e-003
3.824211e+003,-1.627671e-003
3.826139e+003,-1.799652e-003
3.828068e+003,-1.653715e-003
3.829996e+003,-1.600899e-003
3.831925e+003,-1.601097e-003
3.833853e+003,-1.539195e-003
3.835782e+003,-1.598093e-003
3.837710e+003,-1.547845e-003
3.839639e+003,-1.764113e-003
3.841567e+003,-1.824993e-003
3.843496e+003,-1.748240e-003
3.845424e+003,-1.819021e-003
3.847353e+003,-1.926342e-003
3.849281e+003,-1.801434e-003
3.851210e+003,-1.641337e-003
3.853138e+003,-1.528299e-003
3.855067e+003,-1.388216e-003
3.856995e+003,-1.646288e-003
3.858924e+003,-1.775300e-003
3.860852e+003,-1.659062e-003
3.862781e+003,-1.616711e-003
3.864709e+003,-1.460046e-003
3.866638e+003,-1.566466e-003
3.868566e+003,-1.806087e-003
3.870495e+003,-1.409419e-003
3.872423e+003,-1.572376e-003
3.874352e+003,-1.631797e-003
3.876280e+003,-1.656785e-003
3.878209e+003,-1.878046e-003
3.880137e+003,-1.878772e-003
3.882066e+003,-1.729825e-003
3.883994e+003,-1.771340e-003
3.885923e+003,-1.599479e-003
3.887851e+003,-1.614004e-003
3.889780e+003,-1.736954e-003
3.891708e+003,-1.934952e-003
3.893637e+003,-2.191975e-003
3.895565e+003,-1.973776e-003
3.897494e+003,-1.666588e-003
3.899422e+003,-1.517899e-003
3.901351e+003,-1.750913e-003
3.903279e+003,-1.802127e-003
3.905208e+003,-1.617504e-003
3.907136e+003,-1.793251e-003
3.909065e+003,-1.804272e-003
3.910993e+003,-1.864355e-003
3.912922e+003,-1.935414e-003
3.914850e+003,-1.801038e-003
3.916779e+003,-1.779491e-003
3.918707e+003,-1.833110e-003
3.920636e+003,-1.872471e-003
3.922564e+003,-2.111494e-003
3.924493e+003,-2.006660e-003
3.926421e+003,-1.919547e-003
3.928350e+003,-1.878871e-003
3.930278e+003,-1.718472e-003
3.932207e+003,-1.533417e-003
3.934135e+003,-1.306892e-003
3.936064e+003,-1.185606e-003
3.937992e+003,-1.261468e-003
3.939921e+003,-1.702861e-003
3.941849e+003,-1.829349e-003
3.943778e+003,-1.713324e-003
3.945706e+003,-1.855777e-003
3.947635e+003,-1.945640e-003
3.949563e+003,-1.855480e-003
3.951492e+003,-1.796452e-003
3.953420e+003,-1.710386e-003
3.955349e+003,-1.493134e-003
3.957277e+003,-1.625327e-003
3.959206e+003,-1.822948e-003
3.961134e+003,-1.719099e-003
3.963063e+003,-1.511064e-003
3.964991e+003,-1.601196e-003
3.966920e+003,-1.809683e-003
3.968848e+003,-1.824169e-003
3.970777e+003,-1.664344e-003
3.972705e+003,-1.676820e-003
3.974634e+003,-1.722598e-003
3.976562e+003,-1.645199e-003
3.978491e+003,-1.554316e-003
3.980419e+003,-1.490757e-003
3.982348e+003,-1.617141e-003
3.984276e+003,-1.474378e-003
3.986205e+003,-1.499210e-003
3.988133e+003,-1.500200e-003
3.990062e+003,-1.405919e-003
3.991990e+003,-1.339760e-003
3.993919e+003,-1.314622e-003
3.995847e+003,-1.448918e-003
3.997776e+003,-1.490790e-003
3.999704e+003,-1.523313e-003
4.001633e+003,0.000000e+000
