3.991989e+002,7.415430e-004
4.011274e+002,8.736093e-003
4.030559e+002,8.650298e-004
4.049844e+002,-6.359053e-003
4.069129e+002,-1.877024e-003
4.088414e+002,7.922539e-003
4.107699e+002,9.237575e-003
4.126984e+002,4.297237e-003
4.146269e+002,5.513026e-004
4.165554e+002,3.964503e-003
4.184839e+002,8.085486e-003
4.204124e+002,7.282818e-003
4.223409e+002,9.079609e-003
4.242694e+002,1.037322e-002
4.261979e+002,7.546287e-003
4.281264e+002,5.899310e-003
4.300549e+002,5.076800e-003
4.319834e+002,-1.249111e-003
4.339119e+002,-6.243265e-004
4.358404e+002,6.621968e-003
4.377689e+002,8.317016e-003
4.396974e+002,4.928248e-003
4.416259e+002,3.029784e-003
4.435544e+002,6.124906e-003
4.454829e+002,9.424481e-003
4.474114e+002,1.206896e-002
4.493399e+002,9.454585e-003
4.512684e+002,4.556423e-003
4.531969e+002,3.236369e-003
4.551254e+002,6.258674e-003
4.570539e+002,6.114825e-003
4.589824e+002,2.217048e-003
4.609109e+002,4.049945e-003
4.628394e+002,6.493941e-003
4.647679e+002,5.482592e-003
4.666964e+002,5.761658e-003
4.686249e+002,5.342489e-003
4.705533e+002,6.843464e-003
4.724819e+002,9.177333e-003
4.744103e+002,7.433761e-003
4.763389e+002,5.070867e-003
4.782673e+002,6.124604e-003
4.801959e+002,6.600740e-003
4.821243e+002,6.957587e-003
4.840529e+002,6.736101e-003
4.859813e+002,7.845238e-003
4.879099e+002,7.567898e-003
4.898383e+002,7.140853e-003
4.917668e+002,6.564510e-003
4.936953e+002,7.364063e-003
4.956238e+002,8.249067e-003
4.975523e+002,6.718905e-003
4.994808e+002,7.585431e-003
5.014093e+002,8.322724e-003
5.033378e+002,6.717828e-003
5.052663e+002,4.820118e-003
5.071948e+002,4.604575e-003
5.091233e+002,5.863104e-003
5.110518e+002,5.271448e-003
5.129803e+002,4.248785e-003
5.149088e+002,3.711151e-003
5.168373e+002,3.488141e-003
5.187658e+002,4.264444e-003
5.206943e+002,5.080756e-003
5.226228e+002,4.397037e-003
5.245513e+002,3.724018e-003
5.264798e+002,3.832711e-003
5.284083e+002,5.325180e-003
5.303368e+002,4.576312e-003
5.322653e+002,2.579143e-003
5.341938e+002,2.425179e-003
5.361223e+002,2.874660e-003
5.380508e+002,2.885567e-003
5.399792e+002,3.444588e-003
5.419078e+002,3.606230e-003
5.438363e+002,3.883725e-003
5.457648e+002,3.469537e-003
5.476932e+002,3.803362e-003
5.496218e+002,4.948993e-003
5.515503e+002,5.608039e-003
5.534788e+002,5.810749e-003
5.554072e+002,6.884194e-003
5.573358e+002,7.031497e-003
5.592643e+002,6.560944e-003
5.611927e+002,5.610657e-003
5.631212e+002,5.634791e-003
5.650497e+002,5.918287e-003
5.669783e+002,6.941763e-003
5.689067e+002,8.326811e-003
5.708352e+002,8.237045e-003
5.727637e+002,6.189432e-003
5.746923e+002,4.756934e-003
5.766207e+002,6.341711e-003
5.785492e+002,7.369354e-003
5.804777e+002,-5.207205e-004
5.824063e+002,-2.306883e-003
5.843347e+002,5.568736e-003
5.862632e+002,8.972673e-003
5.881917e+002,8.960766e-003
5.901202e+002,7.222172e-003
5.920487e+002,5.635059e-003
5.939772e+002,4.791541e-003
5.959057e+002,5.557963e-003
5.978342e+002,8.126029e-003
5.997627e+002,1.033636e-002
6.016912e+002,1.123677e-002
6.036197e+002,1.230938e-002
6.055482e+002,1.465061e-002
6.074767e+002,1.569843e-002
6.094052e+002,1.517795e-002
6.113337e+002,1.537000e-002
6.132622e+002,1.546307e-002
6.151907e+002,1.529418e-002
6.171192e+002,1.464780e-002
6.190477e+002,1.368723e-002
6.209762e+002,1.397825e-002
6.229047e+002,1.322328e-002
6.248332e+002,1.040233e-002
6.267617e+002,7.032070e-003
6.286902e+002,4.889745e-003
6.306187e+002,4.386226e-003
6.325472e+002,4.207196e-003
6.344756e+002,4.481426e-003
6.364042e+002,4.276290e-003
6.383326e+002,3.737887e-003
6.402612e+002,3.207728e-003
6.421896e+002,3.319464e-003
6.441182e+002,2.725226e-003
6.460466e+002,2.271503e-003
6.479752e+002,2.191605e-003
6.499036e+002,2.224708e-003
6.518322e+002,2.352515e-003
6.537606e+002,2.405388e-003
6.556891e+002,1.998998e-003
6.576177e+002,1.712292e-003
6.595461e+002,1.190347e-003
6.614746e+002,5.166349e-004
6.634031e+002,2.592518e-004
6.653317e+002,5.834846e-004
6.672601e+002,1.812930e-003
6.691886e+002,1.815426e-003
6.711171e+002,1.304190e-003
6.730457e+002,1.383061e-003
6.749741e+002,1.258596e-003
6.769026e+002,1.246600e-003
6.788311e+002,1.358365e-003
6.807596e+002,1.671911e-003
6.826881e+002,1.974133e-003
6.846166e+002,2.293054e-003
6.865451e+002,2.112255e-003
6.884736e+002,1.984585e-003
6.904021e+002,2.248521e-003
6.923306e+002,2.196467e-003
6.942591e+002,2.317004e-003
6.961876e+002,2.726259e-003
6.981161e+002,3.010766e-003
7.000446e+002,3.052140e-003
7.019731e+002,2.983007e-003
7.039016e+002,3.027515e-003
7.058301e+002,3.089313e-003
7.077585e+002,3.178388e-003
7.096871e+002,3.840333e-003
7.116156e+002,4.331305e-003
7.135441e+002,4.003928e-003
7.154725e+002,4.228843e-003
7.174011e+002,4.450092e-003
7.193296e+002,4.498400e-003
7.212581e+002,5.021992e-003
7.231865e+002,5.783483e-003
7.251151e+002,5.541015e-003
7.270436e+002,5.480176e-003
7.289720e+002,6.166578e-003
7.309005e+002,6.711232e-003
7.328290e+002,6.845248e-003
7.347576e+002,6.872682e-003
7.366860e+002,7.030150e-003
7.386145e+002,6.678694e-003
7.405430e+002,6.705579e-003
7.424716e+002,7.345528e-003
7.444000e+002,7.349909e-003
7.463285e+002,7.197310e-003
7.482570e+002,7.213009e-003
7.501855e+002,7.347011e-003
7.521140e+002,8.139195e-003
7.540425e+002,8.695863e-003
7.559710e+002,8.570299e-003
7.578995e+002,8.583918e-003
7.598280e+002,8.524848e-003
7.617565e+002,8.940506e-003
7.636850e+002,9.131277e-003
7.656135e+002,9.195439e-003
7.675420e+002,9.085022e-003
7.694705e+002,8.871884e-003
7.713990e+002,8.950281e-003
7.733275e+002,8.824913e-003
7.752560e+002,8.307121e-003
7.771844e+002,8.145340e-003
7.791130e+002,8.008830e-003
7.810415e+002,7.742855e-003
7.829700e+002,7.153080e-003
7.848984e+002,7.153788e-003
7.868270e+002,7.610990e-003
7.887555e+002,7.394765e-003
7.906840e+002,6.862314e-003
7.926124e+002,6.571742e-003
7.945410e+002,6.397929e-003
7.964695e+002,6.388682e-003
7.983979e+002,5.972301e-003
8.003264e+002,5.694913e-003
8.022549e+002,5.883323e-003
8.041835e+002,6.096579e-003
8.061119e+002,6.048463e-003
8.080404e+002,6.123730e-003
8.099689e+002,6.265195e-003
8.118975e+002,6.529090e-003
8.138259e+002,6.971627e-003
8.157545e+002,6.865646e-003
8.176830e+002,7.160997e-003
8.196115e+002,7.208225e-003
8.215399e+002,6.579277e-003
8.234684e+002,6.580724e-003
8.253970e+002,7.144558e-003
8.273254e+002,7.203576e-003
8.292539e+002,7.168744e-003
8.311824e+002,7.464435e-003
8.331110e+002,7.735704e-003
8.350394e+002,7.600301e-003
8.369679e+002,7.499898e-003
8.388964e+002,7.255291e-003
8.408250e+002,7.182050e-003
8.427534e+002,7.269206e-003
8.446819e+002,7.081608e-003
8.466104e+002,7.073357e-003
8.485389e+002,7.146377e-003
8.504674e+002,6.970482e-003
8.523959e+002,6.999507e-003
8.543244e+002,7.239927e-003
8.562529e+002,7.175346e-003
8.581814e+002,6.874500e-003
8.601099e+002,6.796780e-003
8.620384e+002,6.792707e-003
8.639669e+002,6.991392e-003
8.658954e+002,6.904965e-003
8.678239e+002,6.302274e-003
8.697524e+002,6.271851e-003
8.716809e+002,6.718198e-003
8.736094e+002,7.032743e-003
8.755378e+002,6.818455e-003
8.774664e+002,6.928229e-003
8.793949e+002,6.875442e-003
8.813234e+002,6.615105e-003
8.832518e+002,6.840199e-003
8.851804e+002,6.890591e-003
8.871089e+002,6.555158e-003
8.890374e+002,6.307283e-003
8.909658e+002,6.701441e-003
8.928943e+002,7.130647e-003
8.948229e+002,7.001662e-003
8.967513e+002,6.770561e-003
8.986798e+002,6.881805e-003
9.006083e+002,6.802602e-003
9.025369e+002,6.773961e-003
9.044653e+002,6.828048e-003
9.063938e+002,6.518932e-003
9.083223e+002,6.124335e-003
9.102509e+002,5.913686e-003
9.121793e+002,6.186945e-003
9.141078e+002,6.145641e-003
9.160364e+002,5.580785e-003
9.179648e+002,5.359395e-003
9.198933e+002,5.224631e-003
9.218218e+002,5.048473e-003
9.237504e+002,4.837809e-003
9.256788e+002,4.662444e-003
9.276073e+002,4.413840e-003
9.295358e+002,4.071317e-003
9.314644e+002,3.958418e-003
9.333928e+002,4.071150e-003
9.353213e+002,3.921972e-003
9.372498e+002,3.714326e-003
9.391783e+002,3.263008e-003
9.411068e+002,3.265846e-003
9.430353e+002,3.734411e-003
9.449637e+002,3.858451e-003
9.468923e+002,3.854139e-003
9.488208e+002,3.741262e-003
9.507493e+002,3.769504e-003
9.526777e+002,3.719272e-003
9.546063e+002,3.754196e-003
9.565348e+002,3.867745e-003
9.584633e+002,3.892116e-003
9.603917e+002,3.930398e-003
9.623203e+002,4.054929e-003
9.642488e+002,3.925450e-003
9.661772e+002,3.873963e-003
9.681057e+002,3.876303e-003
9.700343e+002,3.449030e-003
9.719628e+002,3.160431e-003
9.738912e+002,3.010732e-003
9.758197e+002,2.945810e-003
9.777483e+002,2.822430e-003
9.796768e+002,2.653445e-003
9.816052e+002,2.441273e-003
9.835337e+002,2.399657e-003
9.854623e+002,2.268572e-003
9.873907e+002,2.072634e-003
9.893192e+002,1.984451e-003
9.912477e+002,1.814394e-003
9.931763e+002,1.543273e-003
9.951047e+002,1.416369e-003
9.970332e+002,1.098423e-003
9.989617e+002,1.014157e-003
1.000890e+003,1.231215e-003
1.002819e+003,1.339187e-003
1.004747e+003,1.347629e-003
1.006676e+003,1.569543e-003
1.008604e+003,1.730123e-003
1.010533e+003,1.676501e-003
1.012461e+003,1.690737e-003
1.014390e+003,1.802583e-003
1.016318e+003,2.148115e-003
1.018247e+003,2.489624e-003
1.020175e+003,2.674048e-003
1.022104e+003,2.942507e-003
1.024032e+003,3.244614e-003
1.025961e+003,3.414998e-003
1.027889e+003,3.631222e-003
1.029818e+003,4.035698e-003
1.031746e+003,4.467533e-003
1.033675e+003,4.784605e-003
1.035603e+003,5.081795e-003
1.037532e+003,5.421258e-003
1.039460e+003,5.721401e-003
1.041389e+003,5.904113e-003
1.043317e+003,6.144868e-003
1.045246e+003,6.439862e-003
1.047174e+003,6.448303e-003
1.049103e+003,6.547153e-003
1.051031e+003,6.478369e-003
1.052960e+003,6.476789e-003
1.054888e+003,6.531781e-003
1.056817e+003,6.613558e-003
1.058745e+003,6.659549e-003
1.060674e+003,6.592397e-003
1.062602e+003,6.613692e-003
1.064531e+003,6.685996e-003
1.066459e+003,6.740846e-003
1.068388e+003,6.661400e-003
1.070316e+003,6.599966e-003
1.072245e+003,6.711704e-003
1.074173e+003,6.693802e-003
1.076102e+003,6.488358e-003
1.078030e+003,6.471979e-003
1.079959e+003,6.405730e-003
1.081887e+003,6.405999e-003
1.083816e+003,6.657531e-003
1.085744e+003,6.730716e-003
1.087673e+003,6.634080e-003
1.089601e+003,6.670047e-003
1.091530e+003,6.980786e-003
1.093458e+003,7.205699e-003
1.095387e+003,7.197075e-003
1.097315e+003,7.194447e-003
1.099244e+003,7.375589e-003
1.101172e+003,7.495684e-003
1.103101e+003,7.267791e-003
1.105029e+003,7.295791e-003
1.106958e+003,7.481121e-003
1.108886e+003,7.588938e-003
1.110815e+003,7.421830e-003
1.112743e+003,7.367197e-003
1.114672e+003,7.361771e-003
1.116600e+003,7.718671e-003
1.118529e+003,8.024221e-003
1.120457e+003,7.786807e-003
1.122386e+003,7.531958e-003
1.124314e+003,7.665283e-003
1.126243e+003,7.661236e-003
1.128171e+003,7.278472e-003
1.130100e+003,7.228978e-003
1.132028e+003,7.157325e-003
1.133957e+003,6.992436e-003
1.135885e+003,6.861237e-003
1.137814e+003,6.478571e-003
1.139742e+003,5.748429e-003
1.141671e+003,5.537424e-003
1.143599e+003,5.303311e-003
1.145528e+003,4.811776e-003
1.147456e+003,4.468504e-003
1.149385e+003,4.263072e-003
1.151313e+003,3.852634e-003
1.153242e+003,3.409722e-003
1.155170e+003,3.378999e-003
1.157099e+003,3.454073e-003
1.159027e+003,3.421343e-003
1.160956e+003,3.211633e-003
1.162884e+003,3.050438e-003
1.164813e+003,2.970863e-003
1.166741e+003,2.998321e-003
1.168670e+003,2.914019e-003
1.170598e+003,2.874926e-003
1.172526e+003,2.911618e-003
1.174455e+003,2.817561e-003
1.176384e+003,2.904212e-003
1.178312e+003,2.929097e-003
1.180240e+003,2.787114e-003
1.182169e+003,2.790249e-003
1.184098e+003,2.560578e-003
1.186026e+003,2.260478e-003
1.187954e+003,2.283427e-003
1.189883e+003,2.248688e-003
1.191812e+003,1.997000e-003
1.193740e+003,1.865238e-003
1.195668e+003,1.585339e-003
1.197597e+003,1.273749e-003
1.199526e+003,1.145827e-003
1.201454e+003,1.072148e-003
1.203382e+003,1.052418e-003
1.205311e+003,1.005921e-003
1.207240e+003,9.260227e-004
1.209168e+003,8.858136e-004
1.211096e+003,9.511594e-004
1.213025e+003,1.090118e-003
1.214953e+003,1.079555e-003
1.216882e+003,9.373456e-004
1.218810e+003,8.468365e-004
1.220739e+003,8.605810e-004
1.222667e+003,8.562983e-004
1.224596e+003,1.017047e-003
1.226524e+003,1.133203e-003
1.228453e+003,1.204667e-003
1.230381e+003,1.251053e-003
1.232310e+003,1.408390e-003
1.234238e+003,1.473316e-003
1.236167e+003,1.473748e-003
1.238095e+003,1.598840e-003
1.240024e+003,1.792002e-003
1.241952e+003,1.864173e-003
1.243881e+003,1.624548e-003
1.245809e+003,1.425976e-003
1.247738e+003,1.474014e-003
1.249666e+003,1.691535e-003
1.251595e+003,1.687910e-003
1.253523e+003,1.512416e-003
1.255452e+003,1.420191e-003
1.257380e+003,1.261753e-003
1.259309e+003,1.065804e-003
1.261237e+003,1.137256e-003
1.263166e+003,1.220782e-003
1.265094e+003,1.394063e-003
1.267023e+003,1.510986e-003
1.268951e+003,1.666056e-003
1.270880e+003,1.829467e-003
1.272808e+003,1.776365e-003
1.274737e+003,1.747322e-003
1.276665e+003,1.714887e-003
1.278594e+003,1.619726e-003
1.280522e+003,1.619659e-003
1.282451e+003,1.618828e-003
1.284379e+003,1.599273e-003
1.286308e+003,1.652719e-003
1.288236e+003,1.719810e-003
1.290165e+003,1.740602e-003
1.292093e+003,1.605592e-003
1.294022e+003,1.569642e-003
1.295950e+003,1.695328e-003
1.297879e+003,1.729757e-003
1.299807e+003,1.696991e-003
1.301736e+003,1.601501e-003
1.303664e+003,1.358498e-003
1.305593e+003,1.181243e-003
1.307521e+003,1.196061e-003
1.309450e+003,1.134665e-003
1.311378e+003,8.966706e-004
1.313307e+003,8.254239e-004
1.315235e+003,8.296067e-004
1.317164e+003,8.325945e-004
1.319092e+003,6.246944e-004
1.321021e+003,5.178291e-004
1.322949e+003,7.613914e-004
1.324878e+003,9.004889e-004
1.326806e+003,9.282474e-004
1.328735e+003,1.167422e-003
1.330663e+003,1.424180e-003
1.332592e+003,1.557106e-003
1.334520e+003,1.617697e-003
1.336449e+003,1.701914e-003
1.338377e+003,1.911828e-003
1.340306e+003,2.102066e-003
1.342234e+003,2.159703e-003
1.344163e+003,2.142288e-003
1.346091e+003,2.213152e-003
1.348020e+003,2.468497e-003
1.349948e+003,2.530448e-003
1.351877e+003,2.517951e-003
1.353805e+003,2.597142e-003
1.355734e+003,2.593609e-003
1.357662e+003,2.391861e-003
1.359591e+003,2.211986e-003
1.361519e+003,2.183613e-003
1.363448e+003,1.929001e-003
1.365376e+003,1.346698e-003
1.367305e+003,1.049496e-003
1.369233e+003,9.816774e-004
1.371162e+003,9.704197e-004
1.373090e+003,9.812457e-004
1.375019e+003,8.210087e-004
1.376947e+003,6.365072e-004
1.378876e+003,5.683223e-004
1.380804e+003,5.292742e-004
1.382733e+003,5.306012e-004
1.384661e+003,6.615940e-004
1.386590e+003,9.063327e-004
1.388518e+003,7.169162e-004
1.390447e+003,3.337549e-004
1.392375e+003,3.018566e-004
1.394304e+003,4.460143e-004
1.396232e+003,2.381002e-004
1.398161e+003,1.355725e-004
1.400089e+003,-7.822242e-005
1.402018e+003,-3.985190e-004
1.403946e+003,-5.050666e-004
1.405875e+003,-6.357742e-004
1.407803e+003,-9.046436e-004
1.409732e+003,-9.888192e-004
1.411660e+003,-9.489155e-004
1.413589e+003,-1.000026e-003
1.415517e+003,-9.054702e-004
1.417446e+003,-4.417171e-004
1.419374e+003,-1.464500e-005
1.421303e+003,-1.283092e-004
1.423231e+003,1.782648e-005
1.425160e+003,3.915889e-004
1.427088e+003,6.201817e-004
1.429017e+003,1.006054e-003
1.430945e+003,1.407593e-003
1.432874e+003,1.836455e-003
1.434802e+003,2.614609e-003
1.436731e+003,3.323871e-003
1.438659e+003,3.228123e-003
1.440588e+003,3.384877e-003
1.442516e+003,3.770573e-003
1.444445e+003,4.087572e-003
1.446373e+003,4.555552e-003
1.448302e+003,4.934549e-003
1.450230e+003,4.864145e-003
1.452159e+003,4.918731e-003
1.454087e+003,5.298750e-003
1.456016e+003,6.311587e-003
1.457944e+003,6.417668e-003
1.459873e+003,5.449642e-003
1.461801e+003,4.860023e-003
1.463730e+003,4.667066e-003
1.465658e+003,4.235401e-003
1.467587e+003,3.504040e-003
1.469515e+003,3.231862e-003
1.471444e+003,3.369950e-003
1.473372e+003,3.074029e-003
1.475301e+003,2.367473e-003
1.477229e+003,1.732152e-003
1.479158e+003,1.040162e-003
1.481086e+003,6.270171e-004
1.483015e+003,1.680884e-004
1.484943e+003,-1.515618e-004
1.486872e+003,-1.666322e-004
1.488800e+003,-6.709125e-005
1.490729e+003,-1.254274e-004
1.492657e+003,-6.156577e-004
1.494586e+003,-7.846669e-004
1.496514e+003,-5.441507e-004
1.498443e+003,-6.015293e-004
1.500371e+003,-8.856307e-004
1.502300e+003,-9.915960e-004
1.504228e+003,-4.611466e-004
1.506157e+003,5.186917e-004
1.508085e+003,1.344787e-004
1.510014e+003,-6.200914e-004
1.511942e+003,-8.615576e-004
1.513871e+003,-8.778269e-004
1.515799e+003,-4.977193e-004
1.517728e+003,-2.796937e-004
1.519656e+003,4.029286e-005
1.521585e+003,4.490326e-004
1.523513e+003,5.623210e-005
1.525442e+003,-1.756101e-006
1.527370e+003,-1.775953e-004
1.529299e+003,-3.509796e-004
1.531227e+003,-2.535008e-004
1.533156e+003,2.147948e-004
1.535084e+003,1.786292e-004
1.537013e+003,4.150696e-004
1.538941e+003,1.408756e-003
1.540870e+003,1.713324e-003
1.542798e+003,1.333304e-003
1.544727e+003,1.037472e-003
1.546655e+003,5.299377e-004
1.548584e+003,4.489331e-004
1.550512e+003,5.375015e-004
1.552441e+003,5.302362e-004
1.554369e+003,6.740052e-004
1.556298e+003,1.056371e-003
1.558226e+003,2.263309e-003
1.560155e+003,2.078328e-003
1.562083e+003,1.070687e-003
1.564012e+003,1.057135e-003
1.565940e+003,1.119716e-003
1.567869e+003,1.400313e-003
1.569797e+003,1.846105e-003
1.571726e+003,1.469992e-003
1.573654e+003,1.369799e-003
1.575583e+003,1.833693e-003
1.577511e+003,1.536888e-003
1.579440e+003,9.899797e-004
1.581368e+003,9.255246e-004
1.583297e+003,8.092240e-004
1.585225e+003,8.118133e-004
1.587154e+003,8.941141e-004
1.589082e+003,9.684936e-004
1.591010e+003,9.648740e-004
1.592939e+003,9.768290e-004
1.594868e+003,1.133536e-003
1.596796e+003,1.340117e-003
1.598724e+003,1.380069e-003
1.600653e+003,1.427538e-003
1.602582e+003,1.624881e-003
1.604510e+003,1.658540e-003
1.606438e+003,1.543871e-003
1.608367e+003,1.528243e-003
1.610296e+003,1.310239e-003
1.612224e+003,1.042687e-003
1.614152e+003,1.192672e-003
1.616081e+003,1.707768e-003
1.618010e+003,1.341513e-003
1.619938e+003,7.599974e-004
1.621866e+003,9.874227e-004
1.623795e+003,9.527533e-004
1.625724e+003,6.681646e-004
1.627652e+003,6.580765e-004
1.629580e+003,4.326809e-004
1.631509e+003,1.565203e-004
1.633438e+003,5.715405e-004
1.635366e+003,1.179814e-003
1.637294e+003,6.226039e-004
1.639223e+003,-2.680461e-005
1.641151e+003,-3.270092e-004
1.643080e+003,-5.261148e-004
1.645008e+003,-1.519924e-004
1.646937e+003,1.434941e-004
1.648865e+003,-3.719691e-004
1.650794e+003,-1.505681e-004
1.652722e+003,1.051522e-003
1.654651e+003,1.713368e-004
1.656579e+003,-9.159186e-004
1.658508e+003,-1.076449e-003
1.660436e+003,-8.250817e-004
1.662365e+003,-3.714725e-004
1.664293e+003,-4.141436e-004
1.666222e+003,-4.829582e-004
1.668150e+003,2.577905e-005
1.670079e+003,3.083554e-004
1.672007e+003,-6.262288e-006
1.673936e+003,1.260270e-004
1.675864e+003,1.989824e-004
1.677793e+003,-4.479730e-004
1.679721e+003,-7.276101e-004
1.681650e+003,-5.705577e-004
1.683578e+003,6.892427e-005
1.685507e+003,-2.773096e-004
1.687435e+003,-1.052188e-003
1.689364e+003,-1.400667e-003
1.691292e+003,-1.650645e-003
1.693221e+003,-1.628430e-003
1.695149e+003,-1.026934e-003
1.697078e+003,-1.043660e-003
1.699006e+003,-6.773608e-004
1.700935e+003,-5.148627e-004
1.702863e+003,-1.407372e-003
1.704792e+003,-1.418502e-003
1.706720e+003,-1.476756e-003
1.708649e+003,-1.646882e-003
1.710577e+003,-1.775300e-003
1.712506e+003,-1.677216e-003
1.714434e+003,-1.348481e-003
1.716363e+003,-8.811998e-004
1.718291e+003,-9.182001e-004
1.720220e+003,-1.558212e-003
1.722148e+003,-1.847858e-003
1.724077e+003,-1.889098e-003
1.726005e+003,-1.967014e-003
1.727934e+003,-1.893189e-003
1.729862e+003,-1.819648e-003
1.731791e+003,-1.508488e-003
1.733719e+003,-9.592968e-004
1.735648e+003,-1.463811e-003
1.737576e+003,-1.896851e-003
1.739505e+003,-1.663188e-003
1.741433e+003,-1.853269e-003
1.743362e+003,-2.024073e-003
1.745290e+003,-2.055304e-003
1.747219e+003,-1.746590e-003
1.749147e+003,-1.371305e-003
1.751076e+003,-1.234211e-003
1.753004e+003,-1.560391e-003
1.754933e+003,-1.636386e-003
1.756861e+003,-1.527903e-003
1.758790e+003,-1.703785e-003
1.760718e+003,-1.553755e-003
1.762647e+003,-1.503535e-003
1.764575e+003,-1.821496e-003
1.766504e+003,-1.773023e-003
1.768432e+003,-1.632986e-003
1.770361e+003,-1.512219e-003
1.772289e+003,-1.205300e-003
1.774218e+003,-1.492242e-003
1.776146e+003,-1.814600e-003
1.778075e+003,-1.966190e-003
1.780003e+003,-1.952831e-003
1.781932e+003,-1.967179e-003
1.783860e+003,-2.036539e-003
1.785789e+003,-1.974864e-003
1.787717e+003,-1.930103e-003
1.789646e+003,-1.814270e-003
1.791574e+003,-1.475171e-003
1.793503e+003,-1.596541e-003
1.795431e+003,-1.897214e-003
1.797360e+003,-1.821793e-003
1.799288e+003,-1.700419e-003
1.801217e+003,-1.749428e-003
1.803145e+003,-1.924660e-003
1.805074e+003,-1.859406e-003
1.807002e+003,-1.797277e-003
1.808931e+003,-1.808364e-003
1.810859e+003,-1.817074e-003
1.812788e+003,-1.889560e-003
1.814716e+003,-1.896257e-003
1.816645e+003,-1.846077e-003
1.818573e+003,-1.860891e-003
1.820502e+003,-1.893057e-003
1.822430e+003,-1.806087e-003
1.824359e+003,-1.575446e-003
1.826287e+003,-1.585977e-003
1.828216e+003,-1.568480e-003
1.830144e+003,-1.563429e-003
1.832073e+003,-1.950060e-003
1.834001e+003,-2.032681e-003
1.835930e+003,-1.998975e-003
1.837858e+003,-2.041057e-003
1.839787e+003,-2.024205e-003
1.841715e+003,-1.945013e-003
1.843644e+003,-1.573762e-003
1.845572e+003,-1.719957e-003
1.847501e+003,-2.044454e-003
1.849429e+003,-2.087588e-003
1.851358e+003,-2.096096e-003
1.853286e+003,-2.118155e-003
1.855215e+003,-2.057349e-003
1.857143e+003,-1.941978e-003
1.859072e+003,-1.927035e-003
1.861000e+003,-1.903317e-003
1.862929e+003,-1.944452e-003
1.864857e+003,-1.940329e-003
1.866786e+003,-1.872075e-003
1.868714e+003,-1.733026e-003
1.870643e+003,-1.839115e-003
1.872571e+003,-2.038914e-003
1.874500e+003,-2.068495e-003
1.876428e+003,-2.058602e-003
1.878357e+003,-1.963089e-003
1.880285e+003,-1.899688e-003
1.882214e+003,-1.931126e-003
1.884142e+003,-1.926408e-003
1.886071e+003,-1.956360e-003
1.887999e+003,-1.821034e-003
1.889928e+003,-1.816283e-003
1.891856e+003,-2.011705e-003
1.893785e+003,-1.961143e-003
1.895713e+003,-1.939702e-003
1.897642e+003,-1.930532e-003
1.899570e+003,-1.949433e-003
1.901499e+003,-1.955173e-003
1.903427e+003,-1.902954e-003
1.905356e+003,-1.888966e-003
1.907284e+003,-1.931192e-003
1.909213e+003,-1.987332e-003
1.911141e+003,-2.094150e-003
1.913070e+003,-2.111231e-003
1.914998e+003,-1.999997e-003
1.916927e+003,-1.804371e-003
1.918855e+003,-1.768865e-003
1.920784e+003,-1.928817e-003
1.922712e+003,-1.958966e-003
1.924641e+003,-2.026481e-003
1.926569e+003,-2.043696e-003
1.928498e+003,-2.052831e-003
1.930426e+003,-2.014674e-003
1.932355e+003,-2.072188e-003
1.934283e+003,-2.098766e-003
1.936212e+003,-2.124024e-003
1.938140e+003,-2.210271e-003
1.940069e+003,-2.073903e-003
1.941997e+003,-1.862342e-003
1.943926e+003,-1.951874e-003
1.945854e+003,-2.058734e-003
1.947783e+003,-2.001283e-003
1.949711e+003,-2.034165e-003
1.951640e+003,-2.100976e-003
1.953568e+003,-2.075552e-003
1.955497e+003,-2.041025e-003
1.957425e+003,-2.114330e-003
1.959354e+003,-2.069781e-003
1.961282e+003,-2.032153e-003
1.963211e+003,-2.134476e-003
1.965139e+003,-2.161314e-003
1.967068e+003,-2.149379e-003
1.968996e+003,-2.248048e-003
1.970925e+003,-2.239676e-003
1.972853e+003,-2.215447e-003
1.974782e+003,-2.205095e-003
1.976710e+003,-2.158347e-003
1.978639e+003,-2.108362e-003
1.980567e+003,-2.185579e-003
1.982496e+003,-2.301577e-003
1.984424e+003,-2.268716e-003
1.986353e+003,-2.171205e-003
1.988281e+003,-2.216732e-003
1.990210e+003,-2.235555e-003
1.992138e+003,-2.096656e-003
1.994067e+003,-2.135465e-003
1.995995e+003,-2.317990e-003
1.997924e+003,-2.390919e-003
1.999852e+003,-2.346564e-003
2.001781e+003,-2.373191e-003
2.003709e+003,-2.373421e-003
2.005638e+003,-2.384889e-003
2.007566e+003,-2.330349e-003
2.009495e+003,-2.248741e-003
2.011423e+003,-2.248543e-003
2.013352e+003,-2.205326e-003
2.015280e+003,-2.172194e-003
2.017208e+003,-2.162930e-003
2.019137e+003,-2.204700e-003
2.021066e+003,-2.285295e-003
2.022994e+003,-2.375201e-003
2.024922e+003,-2.400014e-003
2.026851e+003,-2.305697e-003
2.028780e+003,-2.182645e-003
2.030708e+003,-2.145653e-003
2.032636e+003,-2.180073e-003
2.034565e+003,-2.227050e-003
2.036494e+003,-2.258102e-003
2.038422e+003,-2.260673e-003
2.040350e+003,-2.266309e-003
2.042279e+003,-2.299863e-003
2.044208e+003,-2.355956e-003
2.046136e+003,-2.432767e-003
2.048064e+003,-2.401629e-003
2.049993e+003,-2.273363e-003
2.051921e+003,-2.288327e-003
2.053850e+003,-2.298083e-003
2.055778e+003,-2.268782e-003
2.057707e+003,-2.261925e-003
2.059635e+003,-2.293535e-003
2.061564e+003,-2.347157e-003
2.063492e+003,-2.490951e-003
2.065421e+003,-2.451712e-003
2.067349e+003,-2.314760e-003
2.069278e+003,-2.316870e-003
2.071206e+003,-2.334337e-003
2.073135e+003,-2.225106e-003
2.075063e+003,-2.159765e-003
2.076992e+003,-2.238489e-003
2.078920e+003,-2.229358e-003
2.080849e+003,-2.182546e-003
2.082777e+003,-2.286020e-003
2.084706e+003,-2.347816e-003
2.086634e+003,-2.369137e-003
2.088563e+003,-2.402584e-003
2.090491e+003,-2.326856e-003
2.092420e+003,-2.242181e-003
2.094348e+003,-2.182546e-003
2.096277e+003,-2.222567e-003
2.098205e+003,-2.299501e-003
2.100134e+003,-2.265519e-003
2.102062e+003,-2.233347e-003
2.103991e+003,-2.257014e-003
2.105919e+003,-2.218644e-003
2.107848e+003,-2.158841e-003
2.109776e+003,-2.202524e-003
2.111705e+003,-2.239214e-003
2.113633e+003,-2.233347e-003
2.115562e+003,-2.249103e-003
2.117490e+003,-2.318682e-003
2.119419e+003,-2.294557e-003
2.121347e+003,-2.279955e-003
2.123276e+003,-2.316903e-003
2.125204e+003,-2.316408e-003
2.127133e+003,-2.297127e-003
2.129061e+003,-2.156072e-003
2.130990e+003,-2.170941e-003
2.132918e+003,-2.353286e-003
2.134847e+003,-2.386603e-003
2.136775e+003,-2.365414e-003
2.138704e+003,-2.297622e-003
2.140632e+003,-2.250587e-003
2.142561e+003,-2.325933e-003
2.144489e+003,-2.354802e-003
2.146418e+003,-2.307279e-003
2.148346e+003,-2.288129e-003
2.150275e+003,-2.228633e-003
2.152203e+003,-2.152083e-003
2.154132e+003,-2.151225e-003
2.156060e+003,-2.249037e-003
2.157989e+003,-2.285822e-003
2.159917e+003,-2.297457e-003
2.161846e+003,-2.287734e-003
2.163774e+003,-2.206282e-003
2.165703e+003,-2.157918e-003
2.167631e+003,-2.132465e-003
2.169560e+003,-2.054678e-003
2.171488e+003,-2.020973e-003
2.173417e+003,-2.119606e-003
2.175345e+003,-2.199129e-003
2.177274e+003,-2.183568e-003
2.179202e+003,-2.131838e-003
2.181131e+003,-2.211590e-003
2.183059e+003,-2.249235e-003
2.184988e+003,-2.209645e-003
2.186916e+003,-2.154720e-003
2.188845e+003,-2.223754e-003
2.190773e+003,-2.317430e-003
2.192702e+003,-2.383670e-003
2.194630e+003,-2.392369e-003
2.196559e+003,-2.297721e-003
2.198487e+003,-2.219930e-003
2.200416e+003,-2.304609e-003
2.202344e+003,-2.329295e-003
2.204273e+003,-2.315683e-003
2.206201e+003,-2.310476e-003
2.208130e+003,-2.244884e-003
2.210058e+003,-2.277252e-003
2.211987e+003,-2.310476e-003
2.213915e+003,-2.333513e-003
2.215844e+003,-2.305961e-003
2.217772e+003,-2.173381e-003
2.219701e+003,-2.158215e-003
2.221629e+003,-2.253784e-003
2.223558e+003,-2.328570e-003
2.225486e+003,-2.261596e-003
2.227415e+003,-2.183535e-003
2.229343e+003,-2.104042e-003
2.231272e+003,-2.126035e-003
2.233200e+003,-2.192502e-003
2.235129e+003,-2.203348e-003
2.237057e+003,-2.184821e-003
2.238986e+003,-2.237665e-003
2.240914e+003,-2.293271e-003
2.242843e+003,-2.202788e-003
2.244771e+003,-2.146577e-003
2.246700e+003,-2.187788e-003
2.248628e+003,-2.159303e-003
2.250557e+003,-2.333348e-003
2.252485e+003,-2.360075e-003
2.254414e+003,-2.226029e-003
2.256342e+003,-2.203150e-003
2.258271e+003,-2.236280e-003
2.260199e+003,-2.241720e-003
2.262128e+003,-2.253158e-003
2.264056e+003,-2.307971e-003
2.265985e+003,-2.317858e-003
2.267913e+003,-2.267364e-003
2.269842e+003,-2.199326e-003
2.271770e+003,-2.244521e-003
2.273699e+003,-2.316705e-003
2.275627e+003,-2.282790e-003
2.277556e+003,-2.259025e-003
2.279484e+003,-2.223688e-003
2.281413e+003,-2.218282e-003
2.283341e+003,-2.321813e-003
2.285270e+003,-2.316804e-003
2.287198e+003,-2.336545e-003
2.289127e+003,-2.329426e-003
2.291055e+003,-2.301116e-003
2.292984e+003,-2.276791e-003
2.294912e+003,-2.341752e-003
2.296841e+003,-2.344784e-003
2.298769e+003,-2.284174e-003
2.300698e+003,-2.205458e-003
2.302626e+003,-2.127519e-003
2.304555e+003,-2.179513e-003
2.306483e+003,-2.197118e-003
2.308412e+003,-2.200876e-003
2.310340e+003,-2.193986e-003
2.312269e+003,-2.104537e-003
2.314197e+003,-2.000888e-003
2.316125e+003,-1.828293e-003
2.318054e+003,-1.724776e-003
2.319983e+003,-1.647146e-003
2.321911e+003,-1.540912e-003
2.323840e+003,-1.420252e-003
2.325768e+003,-1.370710e-003
2.327697e+003,-1.227239e-003
2.329625e+003,-9.806536e-004
2.331553e+003,-9.670660e-004
2.333482e+003,-1.037214e-003
2.335411e+003,-1.091289e-003
2.337339e+003,-1.098130e-003
2.339268e+003,-1.078564e-003
2.341196e+003,-1.154577e-003
2.343125e+003,-1.343064e-003
2.345053e+003,-1.566433e-003
2.346981e+003,-1.829118e-003
2.348910e+003,-2.022919e-003
2.350839e+003,-1.860561e-003
2.352767e+003,-1.444162e-003
2.354696e+003,-1.040421e-003
2.356624e+003,-7.096149e-004
2.358552e+003,-5.842570e-004
2.360481e+003,-6.257161e-004
2.362409e+003,-6.660134e-004
2.364338e+003,-6.392151e-004
2.366267e+003,-6.916852e-004
2.368195e+003,-8.767688e-004
2.370124e+003,-1.096280e-003
2.372052e+003,-1.330049e-003
2.373980e+003,-1.489205e-003
2.375909e+003,-1.684643e-003
2.377838e+003,-1.947025e-003
2.379766e+003,-2.254872e-003
2.381695e+003,-2.492268e-003
2.383623e+003,-2.461893e-003
2.385552e+003,-2.392962e-003
2.387480e+003,-2.420476e-003
2.389408e+003,-2.375728e-003
2.391337e+003,-2.340236e-003
2.393266e+003,-2.382352e-003
2.395194e+003,-2.329426e-003
2.397123e+003,-2.283449e-003
2.399051e+003,-2.314760e-003
2.400979e+003,-2.386998e-003
2.402908e+003,-2.447132e-003
2.404836e+003,-2.414908e-003
2.406765e+003,-2.434381e-003
2.408694e+003,-2.473852e-003
2.410622e+003,-2.438533e-003
2.412551e+003,-2.429571e-003
2.414479e+003,-2.440608e-003
2.416407e+003,-2.453787e-003
2.418336e+003,-2.440081e-003
2.420264e+003,-2.458038e-003
2.422193e+003,-2.514308e-003
2.424122e+003,-2.434216e-003
2.426050e+003,-2.343169e-003
2.427979e+003,-2.417083e-003
2.429907e+003,-2.404825e-003
2.431835e+003,-2.342708e-003
2.433764e+003,-2.285592e-003
2.435692e+003,-2.208722e-003
2.437621e+003,-2.237236e-003
2.439550e+003,-2.339116e-003
2.441478e+003,-2.341159e-003
2.443406e+003,-2.295479e-003
2.445335e+003,-2.261662e-003
2.447263e+003,-2.244159e-003
2.449192e+003,-2.295447e-003
2.451121e+003,-2.328504e-003
2.453049e+003,-2.292250e-003
2.454978e+003,-2.273594e-003
2.456906e+003,-2.270891e-003
2.458834e+003,-2.288294e-003
2.460763e+003,-2.245115e-003
2.462691e+003,-2.335095e-003
2.464620e+003,-2.373454e-003
2.466549e+003,-2.249004e-003
2.468477e+003,-2.238159e-003
2.470406e+003,-2.398729e-003
2.472334e+003,-2.482978e-003
2.474262e+003,-2.405846e-003
2.476191e+003,-2.391908e-003
2.478119e+003,-2.365578e-003
2.480048e+003,-2.357241e-003
2.481977e+003,-2.324450e-003
2.483905e+003,-2.358691e-003
2.485833e+003,-2.407593e-003
2.487762e+003,-2.369500e-003
2.489690e+003,-2.326230e-003
2.491619e+003,-2.311201e-003
2.493547e+003,-2.270891e-003
2.495476e+003,-2.272012e-003
2.497405e+003,-2.292711e-003
2.499333e+003,-2.275670e-003
2.501261e+003,-2.237500e-003
2.503190e+003,-2.261959e-003
2.505118e+003,-2.294820e-003
2.507047e+003,-2.350584e-003
2.508975e+003,-2.412371e-003
2.510904e+003,-2.392468e-003
2.512833e+003,-2.320429e-003
2.514761e+003,-2.317858e-003
2.516689e+003,-2.338292e-003
2.518618e+003,-2.230182e-003
2.520546e+003,-2.088412e-003
2.522475e+003,-2.153731e-003
2.524403e+003,-2.301379e-003
2.526332e+003,-2.326032e-003
2.528260e+003,-2.250125e-003
2.530189e+003,-2.212974e-003
2.532117e+003,-2.272935e-003
2.534046e+003,-2.442355e-003
2.535974e+003,-2.435073e-003
2.537903e+003,-2.370983e-003
2.539831e+003,-2.283350e-003
2.541760e+003,-2.246005e-003
2.543688e+003,-2.240698e-003
2.545617e+003,-2.293832e-003
2.547545e+003,-2.301742e-003
2.549474e+003,-2.340335e-003
2.551402e+003,-2.419224e-003
2.553331e+003,-2.413788e-003
2.555259e+003,-2.345773e-003
2.557188e+003,-2.335655e-003
2.559116e+003,-2.340038e-003
2.561045e+003,-2.312321e-003
2.562973e+003,-2.339972e-003
2.564902e+003,-2.264497e-003
2.566830e+003,-2.102328e-003
2.568759e+003,-2.141796e-003
2.570687e+003,-2.268188e-003
2.572616e+003,-2.191909e-003
2.574544e+003,-2.094249e-003
2.576473e+003,-2.108065e-003
2.578401e+003,-2.097579e-003
2.580330e+003,-2.065956e-003
2.582258e+003,-2.042113e-003
2.584187e+003,-1.972588e-003
2.586115e+003,-2.058800e-003
2.588044e+003,-2.196129e-003
2.589972e+003,-2.168732e-003
2.591901e+003,-2.066681e-003
2.593829e+003,-2.058074e-003
2.595758e+003,-2.153863e-003
2.597686e+003,-2.161314e-003
2.599615e+003,-2.110769e-003
2.601543e+003,-2.078124e-003
2.603472e+003,-2.061768e-003
2.605400e+003,-2.078388e-003
2.607329e+003,-2.029944e-003
2.609257e+003,-1.894377e-003
2.611186e+003,-1.830009e-003
2.613114e+003,-1.875209e-003
2.615043e+003,-1.898368e-003
2.616971e+003,-1.885304e-003
2.618900e+003,-1.874351e-003
2.620828e+003,-1.901964e-003
2.622757e+003,-1.887284e-003
2.624685e+003,-1.835783e-003
2.626614e+003,-1.797937e-003
2.628542e+003,-1.782098e-003
2.630471e+003,-1.709726e-003
2.632399e+003,-1.616612e-003
2.634328e+003,-1.567985e-003
2.636256e+003,-1.614665e-003
2.638185e+003,-1.551873e-003
2.640113e+003,-1.491252e-003
2.642042e+003,-1.528993e-003
2.643970e+003,-1.426461e-003
2.645899e+003,-1.342634e-003
2.647827e+003,-1.304415e-003
2.649756e+003,-1.200376e-003
2.651684e+003,-1.123612e-003
2.653613e+003,-1.135013e-003
2.655541e+003,-1.137426e-003
2.657470e+003,-1.179823e-003
2.659398e+003,-1.169315e-003
2.661327e+003,-1.127743e-003
2.663255e+003,-1.152297e-003
2.665184e+003,-1.182863e-003
2.667112e+003,-1.055890e-003
2.669041e+003,-9.246475e-004
2.670969e+003,-8.965426e-004
2.672898e+003,-9.426668e-004
2.674826e+003,-9.316239e-004
2.676755e+003,-7.931007e-004
2.678683e+003,-8.375493e-004
2.680612e+003,-8.992870e-004
2.682540e+003,-8.256439e-004
2.684469e+003,-7.357804e-004
2.686397e+003,-6.509933e-004
2.688326e+003,-5.544423e-004
2.690254e+003,-4.388705e-004
2.692183e+003,-4.743859e-004
2.694111e+003,-5.171463e-004
2.696040e+003,-5.349839e-004
2.697968e+003,-4.496280e-004
2.699897e+003,-3.434641e-004
2.701825e+003,-3.482978e-004
2.703754e+003,-3.715718e-004
2.705682e+003,-1.716004e-004
2.707611e+003,-1.397038e-004
2.709539e+003,-1.929629e-004
2.711468e+003,-1.240693e-004
2.713396e+003,-1.199436e-005
2.715325e+003,1.279825e-004
2.717253e+003,1.524765e-004
2.719182e+003,2.803050e-004
2.721110e+003,3.341528e-004
2.723039e+003,3.421775e-004
2.724967e+003,4.687019e-004
2.726896e+003,6.510415e-004
2.728824e+003,7.150244e-004
2.730753e+003,7.630179e-004
2.732681e+003,8.674534e-004
2.734610e+003,9.558084e-004
2.736538e+003,9.867584e-004
2.738467e+003,1.053714e-003
2.740395e+003,1.203039e-003
2.742324e+003,1.248561e-003
2.744252e+003,1.292293e-003
2.746181e+003,1.406496e-003
2.748109e+003,1.477040e-003
2.750038e+003,1.607454e-003
2.751966e+003,1.707935e-003
2.753895e+003,1.813696e-003
2.755823e+003,1.887800e-003
2.757752e+003,1.990210e-003
2.759680e+003,2.169693e-003
2.761609e+003,2.434042e-003
2.763537e+003,2.777743e-003
2.765466e+003,2.977436e-003
2.767394e+003,3.226154e-003
2.769323e+003,3.542421e-003
2.771251e+003,4.008811e-003
2.773180e+003,4.518353e-003
2.775108e+003,5.062452e-003
2.777037e+003,5.597533e-003
2.778965e+003,6.080685e-003
2.780894e+003,6.707767e-003
2.782822e+003,7.476267e-003
2.784750e+003,8.275712e-003
2.786679e+003,9.112903e-003
2.788608e+003,9.881912e-003
2.790536e+003,1.063582e-002
2.792465e+003,1.145441e-002
2.794393e+003,1.230737e-002
2.796322e+003,1.313933e-002
2.798250e+003,1.388827e-002
2.800178e+003,1.457594e-002
2.802107e+003,1.522245e-002
2.804036e+003,1.579580e-002
2.805964e+003,1.620283e-002
2.807893e+003,1.658050e-002
2.809821e+003,1.688202e-002
2.811750e+003,1.697610e-002
2.813678e+003,1.684795e-002
2.815606e+003,1.668437e-002
2.817535e+003,1.642411e-002
2.819464e+003,1.613402e-002
2.821392e+003,1.577629e-002
2.823321e+003,1.534151e-002
2.825249e+003,1.473417e-002
2.827177e+003,1.404290e-002
2.829106e+003,1.336639e-002
2.831034e+003,1.261947e-002
2.832963e+003,1.198097e-002
2.834892e+003,1.152929e-002
2.836820e+003,1.100191e-002
2.838749e+003,1.029687e-002
2.840677e+003,9.539217e-003
2.842605e+003,8.904621e-003
2.844534e+003,8.211618e-003
2.846462e+003,7.324096e-003
2.848391e+003,6.599798e-003
2.850320e+003,6.131056e-003
2.852248e+003,5.899108e-003
2.854177e+003,5.840704e-003
2.856105e+003,5.824283e-003
2.858033e+003,5.836640e-003
2.859962e+003,5.918959e-003
2.861890e+003,5.800608e-003
2.863819e+003,5.633616e-003
2.865748e+003,5.718380e-003
2.867676e+003,5.840436e-003
2.869604e+003,5.988493e-003
2.871533e+003,6.128737e-003
2.873461e+003,6.328296e-003
2.875390e+003,6.526735e-003
2.877319e+003,6.645250e-003
2.879247e+003,6.810175e-003
2.881176e+003,6.869316e-003
2.883104e+003,6.892947e-003
2.885032e+003,6.936814e-003
2.886961e+003,6.889379e-003
2.888889e+003,6.764605e-003
2.890818e+003,6.642626e-003
2.892747e+003,6.534505e-003
2.894675e+003,6.366894e-003
2.896604e+003,6.254942e-003
2.898532e+003,6.247648e-003
2.900460e+003,6.201128e-003
2.902389e+003,6.062641e-003
2.904317e+003,6.054611e-003
2.906246e+003,5.954295e-003
2.908175e+003,5.790803e-003
2.910103e+003,5.659496e-003
2.912031e+003,5.354498e-003
2.913960e+003,5.118740e-003
2.915888e+003,5.033054e-003
2.917817e+003,5.095574e-003
2.919745e+003,5.503095e-003
2.921674e+003,5.959133e-003
2.923603e+003,6.333305e-003
2.925531e+003,6.732534e-003
2.927459e+003,7.099424e-003
2.929388e+003,7.302867e-003
2.931316e+003,7.520900e-003
2.933245e+003,7.880091e-003
2.935173e+003,8.124847e-003
2.937102e+003,8.168602e-003
2.939031e+003,8.258117e-003
2.940959e+003,8.205540e-003
2.942887e+003,7.973123e-003
2.944816e+003,7.862444e-003
2.946744e+003,7.711217e-003
2.948673e+003,7.335789e-003
2.950601e+003,6.800886e-003
2.952530e+003,6.175753e-003
2.954458e+003,5.429075e-003
2.956387e+003,4.698952e-003
2.958315e+003,4.137244e-003
2.960244e+003,3.470973e-003
2.962172e+003,2.696919e-003
2.964101e+003,2.085585e-003
2.966029e+003,1.568944e-003
2.967958e+003,1.114766e-003
2.969886e+003,6.623904e-004
2.971815e+003,2.360779e-004
2.973743e+003,-1.884255e-004
2.975672e+003,-5.340573e-004
2.977600e+003,-7.852291e-004
2.979529e+003,-1.006836e-003
2.981457e+003,-1.183557e-003
2.983386e+003,-1.391254e-003
2.985314e+003,-1.624766e-003
2.987243e+003,-1.742399e-003
2.989171e+003,-1.796485e-003
2.991100e+003,-1.995808e-003
2.993028e+003,-2.054315e-003
2.994957e+003,-2.022424e-003
2.996885e+003,-2.106153e-003
2.998814e+003,-2.215051e-003
3.000742e+003,-2.324483e-003
3.002671e+003,-2.450163e-003
3.004599e+003,-2.440707e-003
3.006528e+003,-2.358592e-003
3.008456e+003,-2.357538e-003
3.010385e+003,-2.421761e-003
3.012313e+003,-2.408680e-003
3.014242e+003,-2.482615e-003
3.016170e+003,-2.566914e-003
3.018099e+003,-2.586940e-003
3.020027e+003,-2.618954e-003
3.021956e+003,-2.525442e-003
3.023884e+003,-2.504721e-003
3.025813e+003,-2.602980e-003
3.027741e+003,-2.690153e-003
3.029670e+003,-2.697925e-003
3.031598e+003,-2.691602e-003
3.033527e+003,-2.714948e-003
3.035455e+003,-2.716299e-003
3.037384e+003,-2.684720e-003
3.039312e+003,-2.575313e-003
3.041241e+003,-2.691174e-003
3.043169e+003,-2.784190e-003
3.045098e+003,-2.694961e-003
3.047026e+003,-2.659232e-003
3.048955e+003,-2.709976e-003
3.050883e+003,-2.692162e-003
3.052812e+003,-2.678002e-003
3.054740e+003,-2.805391e-003
3.056669e+003,-2.753340e-003
3.058597e+003,-2.799959e-003
3.060526e+003,-2.958873e-003
3.062454e+003,-2.900390e-003
3.064383e+003,-2.825242e-003
3.066311e+003,-2.815465e-003
3.068240e+003,-2.614310e-003
3.070168e+003,-2.638912e-003
3.072097e+003,-2.845882e-003
3.074025e+003,-2.919479e-003
3.075954e+003,-2.923988e-003
3.077882e+003,-2.903122e-003
3.079811e+003,-2.827052e-003
3.081739e+003,-2.799268e-003
3.083668e+003,-2.873762e-003
3.085596e+003,-2.904241e-003
3.087525e+003,-2.925897e-003
3.089453e+003,-2.961473e-003
3.091382e+003,-2.897197e-003
3.093310e+003,-2.759366e-003
3.095239e+003,-2.758937e-003
3.097167e+003,-2.886500e-003
3.099096e+003,-2.868923e-003
3.101024e+003,-2.770165e-003
3.102953e+003,-2.813885e-003
3.104881e+003,-2.835282e-003
3.106810e+003,-2.729041e-003
3.108738e+003,-2.777869e-003
3.110667e+003,-2.802823e-003
3.112595e+003,-2.763942e-003
3.114524e+003,-2.726078e-003
3.116452e+003,-2.752583e-003
3.118381e+003,-2.664138e-003
3.120309e+003,-2.626727e-003
3.122238e+003,-2.704675e-003
3.124166e+003,-2.739084e-003
3.126095e+003,-2.699176e-003
3.128023e+003,-2.691042e-003
3.129952e+003,-2.614113e-003
3.131880e+003,-2.647705e-003
3.133809e+003,-2.702765e-003
3.135737e+003,-2.709647e-003
3.137666e+003,-2.602783e-003
3.139594e+003,-2.497572e-003
3.141523e+003,-2.456160e-003
3.143451e+003,-2.369302e-003
3.145380e+003,-2.369764e-003
3.147308e+003,-2.592078e-003
3.149237e+003,-2.682086e-003
3.151165e+003,-2.571130e-003
3.153094e+003,-2.429735e-003
3.155022e+003,-2.293238e-003
3.156951e+003,-2.328602e-003
3.158879e+003,-2.326790e-003
3.160808e+003,-2.249037e-003
3.162736e+003,-2.249828e-003
3.164665e+003,-2.261464e-003
3.166593e+003,-2.172754e-003
3.168522e+003,-2.169754e-003
3.170450e+003,-2.176810e-003
3.172379e+003,-2.156632e-003
3.174307e+003,-2.225600e-003
3.176236e+003,-2.137971e-003
3.178164e+003,-2.046631e-003
3.180093e+003,-2.072287e-003
3.182021e+003,-2.115484e-003
3.183950e+003,-2.163787e-003
3.185878e+003,-2.087753e-003
3.187807e+003,-1.923308e-003
3.189735e+003,-1.904042e-003
3.191664e+003,-2.040827e-003
3.193592e+003,-2.053391e-003
3.195521e+003,-1.985551e-003
3.197449e+003,-1.955832e-003
3.199378e+003,-1.930664e-003
3.201306e+003,-1.931917e-003
3.203235e+003,-1.891243e-003
3.205163e+003,-1.938152e-003
3.207092e+003,-2.051644e-003
3.209020e+003,-1.969950e-003
3.210948e+003,-1.840006e-003
3.212877e+003,-1.717251e-003
3.214806e+003,-1.735172e-003
3.216734e+003,-1.866598e-003
3.218663e+003,-1.847792e-003
3.220591e+003,-1.765763e-003
3.222520e+003,-1.740617e-003
3.224448e+003,-1.758338e-003
3.226376e+003,-1.789522e-003
3.228305e+003,-1.756523e-003
3.230234e+003,-1.664377e-003
3.232162e+003,-1.704545e-003
3.234091e+003,-1.577691e-003
3.236019e+003,-1.539492e-003
3.237948e+003,-1.571088e-003
3.239876e+003,-1.438020e-003
3.241804e+003,-1.196775e-003
3.243733e+003,-1.068285e-003
3.245662e+003,-1.017745e-003
3.247590e+003,-8.994854e-004
3.249519e+003,-9.285159e-004
3.251447e+003,-9.231927e-004
3.253375e+003,-1.072516e-003
3.255304e+003,-1.113135e-003
3.257232e+003,-8.709489e-004
3.259161e+003,-7.110374e-004
3.261090e+003,-6.420605e-004
3.263018e+003,-6.829186e-004
3.264947e+003,-7.305210e-004
3.266875e+003,-6.865246e-004
3.268803e+003,-6.093381e-004
3.270732e+003,-5.797567e-004
3.272660e+003,-6.395791e-004
3.274589e+003,-6.754089e-004
3.276518e+003,-6.622749e-004
3.278446e+003,-7.030651e-004
3.280375e+003,-6.051028e-004
3.282303e+003,-5.402126e-004
3.284231e+003,-5.405105e-004
3.286160e+003,-7.170248e-004
3.288088e+003,-8.103648e-004
3.290017e+003,-8.897310e-004
3.291946e+003,-7.313479e-004
3.293874e+003,-6.104300e-004
3.295802e+003,-7.066377e-004
3.297731e+003,-6.801728e-004
3.299659e+003,-6.925123e-004
3.301588e+003,-8.021959e-004
3.303516e+003,-1.070367e-003
3.305445e+003,-1.220763e-003
3.307374e+003,-1.161285e-003
3.309302e+003,-1.294141e-003
3.311230e+003,-1.422168e-003
3.313159e+003,-1.446177e-003
3.315087e+003,-1.544346e-003
3.317016e+003,-1.545600e-003
3.318944e+003,-1.520672e-003
3.320873e+003,-1.564023e-003
3.322802e+003,-1.710749e-003
3.324730e+003,-1.806087e-003
3.326658e+003,-1.883886e-003
3.328587e+003,-2.010551e-003
3.330515e+003,-2.044883e-003
3.332444e+003,-2.047917e-003
3.334372e+003,-2.004120e-003
3.336301e+003,-1.977800e-003
3.338229e+003,-1.938416e-003
3.340158e+003,-2.046367e-003
3.342086e+003,-2.017609e-003
3.344015e+003,-1.973545e-003
3.345943e+003,-1.967773e-003
3.347872e+003,-1.938713e-003
3.349800e+003,-1.927233e-003
3.351729e+003,-1.952237e-003
3.353657e+003,-1.991455e-003
3.355586e+003,-1.910178e-003
3.357514e+003,-1.811300e-003
3.359443e+003,-1.916413e-003
3.361371e+003,-2.058833e-003
3.363300e+003,-2.140905e-003
3.365229e+003,-2.248873e-003
3.367157e+003,-2.424496e-003
3.369085e+003,-2.596261e-003
3.371014e+003,-2.793737e-003
3.372942e+003,-2.755085e-003
3.374871e+003,-2.805029e-003
3.376799e+003,-2.838738e-003
3.378728e+003,-2.938502e-003
3.380656e+003,-2.994907e-003
3.382585e+003,-3.069763e-003
3.384513e+003,-3.174571e-003
3.386442e+003,-3.352254e-003
3.388370e+003,-3.541269e-003
3.390299e+003,-3.669686e-003
3.392227e+003,-3.574954e-003
3.394156e+003,-3.600225e-003
3.396084e+003,-3.620696e-003
3.398013e+003,-3.684635e-003
3.399941e+003,-3.839975e-003
3.401870e+003,-3.838398e-003
3.403798e+003,-3.751028e-003
3.405727e+003,-3.718901e-003
3.407655e+003,-3.804306e-003
3.409584e+003,-3.896525e-003
3.411512e+003,-3.859647e-003
3.413441e+003,-3.944499e-003
3.415369e+003,-3.879843e-003
3.417298e+003,-3.900597e-003
3.419226e+003,-4.064427e-003
3.421155e+003,-4.122951e-003
3.423083e+003,-4.108542e-003
3.425012e+003,-3.991745e-003
3.426940e+003,-4.052807e-003
3.428869e+003,-4.096069e-003
3.430797e+003,-4.029466e-003
3.432726e+003,-3.956549e-003
3.434654e+003,-3.894949e-003
3.436583e+003,-4.026775e-003
3.438511e+003,-4.026676e-003
3.440440e+003,-3.924896e-003
3.442368e+003,-4.177922e-003
3.444297e+003,-4.325507e-003
3.446225e+003,-4.177857e-003
3.448154e+003,-4.126298e-003
3.450082e+003,-4.004155e-003
3.452011e+003,-3.962985e-003
3.453939e+003,-4.043287e-003
3.455868e+003,-4.148222e-003
3.457796e+003,-4.224257e-003
3.459725e+003,-4.291027e-003
3.461653e+003,-4.076441e-003
3.463582e+003,-3.855213e-003
3.465510e+003,-3.997556e-003
3.467439e+003,-4.189244e-003
3.469367e+003,-4.215266e-003
3.471296e+003,-4.175560e-003
3.473224e+003,-4.119734e-003
3.475153e+003,-4.142380e-003
3.477081e+003,-4.121375e-003
3.479010e+003,-4.063147e-003
3.480938e+003,-4.065051e-003
3.482867e+003,-4.115304e-003
3.484795e+003,-4.066167e-003
3.486724e+003,-4.145826e-003
3.488652e+003,-4.196332e-003
3.490581e+003,-4.151832e-003
3.492509e+003,-4.078082e-003
3.494438e+003,-4.114910e-003
3.496366e+003,-4.012560e-003
3.498295e+003,-3.921252e-003
3.500223e+003,-3.911401e-003
3.502152e+003,-3.841880e-003
3.504080e+003,-3.810941e-003
3.506009e+003,-4.015252e-003
3.507937e+003,-4.198269e-003
3.509866e+003,-4.222157e-003
3.511794e+003,-4.074438e-003
3.513723e+003,-4.004123e-003
3.515651e+003,-4.149863e-003
3.517580e+003,-4.141265e-003
3.519508e+003,-4.004254e-003
3.521437e+003,-4.040726e-003
3.523365e+003,-4.099319e-003
3.525294e+003,-4.159151e-003
3.527222e+003,-4.134799e-003
3.529151e+003,-4.047390e-003
3.531079e+003,-4.172179e-003
3.533008e+003,-4.216644e-003
3.534936e+003,-4.137720e-003
3.536865e+003,-4.047292e-003
3.538793e+003,-4.163253e-003
3.540722e+003,-4.426340e-003
3.542650e+003,-4.319110e-003
3.544579e+003,-4.064394e-003
3.546507e+003,-3.791135e-003
3.548436e+003,-3.866445e-003
3.550364e+003,-3.887035e-003
3.552293e+003,-3.851798e-003
3.554221e+003,-3.956516e-003
3.556150e+003,-4.053955e-003
3.558078e+003,-4.067086e-003
3.560007e+003,-4.182648e-003
3.561935e+003,-4.339351e-003
3.563864e+003,-4.180318e-003
3.565792e+003,-3.715977e-003
3.567721e+003,-3.711279e-003
3.569649e+003,-4.169981e-003
3.571578e+003,-4.321899e-003
3.573506e+003,-4.215004e-003
3.575435e+003,-4.150847e-003
3.577363e+003,-4.217858e-003
3.579292e+003,-4.309268e-003
3.581220e+003,-4.280988e-003
3.583149e+003,-4.300607e-003
3.585077e+003,-4.102503e-003
3.587006e+003,-3.714203e-003
3.588934e+003,-3.893340e-003
3.590863e+003,-4.293225e-003
3.592791e+003,-4.232723e-003
3.594720e+003,-4.094625e-003
3.596648e+003,-4.163089e-003
3.598577e+003,-4.357295e-003
3.600505e+003,-4.289387e-003
3.602434e+003,-4.368513e-003
3.604362e+003,-4.405119e-003
3.606291e+003,-4.273901e-003
3.608219e+003,-3.965545e-003
3.610148e+003,-3.912911e-003
3.612076e+003,-4.072994e-003
3.614005e+003,-4.348241e-003
3.615933e+003,-4.284269e-003
3.617862e+003,-3.968205e-003
3.619790e+003,-4.062950e-003
3.621719e+003,-4.619248e-003
3.623647e+003,-4.735909e-003
3.625576e+003,-4.489046e-003
3.627504e+003,-3.790774e-003
3.629433e+003,-3.376256e-003
3.631361e+003,-4.088060e-003
3.633290e+003,-4.494752e-003
3.635218e+003,-4.619970e-003
3.637146e+003,-4.522166e-003
3.639075e+003,-4.514329e-003
3.641004e+003,-4.648293e-003
3.642932e+003,-4.736630e-003
3.644861e+003,-4.613413e-003
3.646789e+003,-4.002711e-003
3.648718e+003,-3.506957e-003
3.650646e+003,-3.910580e-003
3.652574e+003,-4.688907e-003
3.654503e+003,-4.561152e-003
3.656432e+003,-4.199253e-003
3.658360e+003,-4.792737e-003
3.660289e+003,-5.071196e-003
3.662217e+003,-5.053543e-003
3.664146e+003,-5.141961e-003
3.666074e+003,-5.131647e-003
3.668002e+003,-4.703330e-003
3.669931e+003,-4.270981e-003
3.671860e+003,-4.569382e-003
3.673788e+003,-4.292471e-003
3.675717e+003,-3.833866e-003
3.677645e+003,-4.413844e-003
3.679573e+003,-4.825014e-003
3.681502e+003,-5.132826e-003
3.683430e+003,-5.199718e-003
3.685359e+003,-5.042703e-003
3.687288e+003,-4.514427e-003
3.689216e+003,-4.210574e-003
3.691145e+003,-4.432178e-003
3.693073e+003,-4.862794e-003
3.695001e+003,-5.120481e-003
3.696930e+003,-5.020104e-003
3.698858e+003,-4.820099e-003
3.700787e+003,-4.518460e-003
3.702716e+003,-4.646654e-003
3.704644e+003,-4.925797e-003
3.706573e+003,-4.816462e-003
3.708501e+003,-4.732074e-003
3.710429e+003,-4.460974e-003
3.712358e+003,-4.327312e-003
3.714286e+003,-4.839596e-003
3.716215e+003,-5.219525e-003
3.718144e+003,-5.080922e-003
3.720072e+003,-4.872460e-003
3.722000e+003,-4.639409e-003
3.723929e+003,-4.689957e-003
3.725857e+003,-4.745086e-003
3.727786e+003,-4.943585e-003
3.729714e+003,-5.045421e-003
3.731643e+003,-4.533118e-003
3.733572e+003,-4.087601e-003
3.735500e+003,-3.971521e-003
3.737428e+003,-4.213035e-003
3.739357e+003,-4.614331e-003
3.741285e+003,-4.492095e-003
3.743214e+003,-3.562992e-003
3.745142e+003,-3.357022e-003
3.747071e+003,-4.056549e-003
3.749000e+003,-3.542452e-003
3.750928e+003,-3.302275e-003
3.752856e+003,-3.823717e-003
3.754785e+003,-4.324556e-003
3.756713e+003,-4.325737e-003
3.758642e+003,-4.232231e-003
3.760570e+003,-4.143759e-003
3.762499e+003,-4.300771e-003
3.764427e+003,-4.312746e-003
3.766356e+003,-4.352210e-003
3.768284e+003,-4.331150e-003
3.770213e+003,-4.110577e-003
3.772141e+003,-4.356573e-003
3.774070e+003,-4.585939e-003
3.775998e+003,-4.627936e-003
3.777927e+003,-4.544561e-003
3.779855e+003,-4.377796e-003
3.781784e+003,-4.554398e-003
3.783712e+003,-4.596693e-003
3.785641e+003,-4.461039e-003
3.787569e+003,-4.466319e-003
3.789498e+003,-4.810760e-003
3.791426e+003,-5.094251e-003
3.793355e+003,-4.996684e-003
3.795283e+003,-4.627641e-003
3.797212e+003,-4.509082e-003
3.799140e+003,-4.353457e-003
3.801069e+003,-3.994634e-003
3.802997e+003,-4.548955e-003
3.804926e+003,-4.541413e-003
3.806854e+003,-3.997688e-003
3.808783e+003,-4.492489e-003
3.810711e+003,-4.907222e-003
3.812640e+003,-4.899915e-003
3.814568e+003,-4.504228e-003
3.816497e+003,-4.052938e-003
3.818425e+003,-4.158954e-003
3.820354e+003,-3.859121e-003
3.822282e+003,-4.079067e-003
3.824211e+003,-4.567447e-003
3.826139e+003,-4.511082e-003
3.828068e+003,-4.474616e-003
3.829996e+003,-4.252148e-003
3.831925e+003,-4.323277e-003
3.833853e+003,-4.414894e-003
3.835782e+003,-4.252837e-003
3.837710e+003,-4.059766e-003
3.839639e+003,-4.222518e-003
3.841567e+003,-4.460580e-003
3.843496e+003,-4.471468e-003
3.845424e+003,-4.730731e-003
3.847353e+003,-5.157940e-003
3.849281e+003,-5.080529e-003
3.851210e+003,-4.027464e-003
3.853138e+003,-2.889594e-003
3.855067e+003,-3.540349e-003
3.856995e+003,-4.349816e-003
3.858924e+003,-4.668814e-003
3.860852e+003,-4.755409e-003
3.862781e+003,-4.497703e-003
3.864709e+003,-4.381962e-003
3.866638e+003,-4.706772e-003
3.868566e+003,-4.455333e-003
3.870495e+003,-4.297162e-003
3.872423e+003,-4.498588e-003
3.874352e+003,-4.632296e-003
3.876280e+003,-5.003465e-003
3.878209e+003,-4.972478e-003
3.880137e+003,-4.717522e-003
3.882066e+003,-4.917475e-003
3.883994e+003,-4.947254e-003
3.885923e+003,-4.787428e-003
3.887851e+003,-5.031895e-003
3.889780e+003,-4.737482e-003
3.891708e+003,-4.544430e-003
3.893637e+003,-4.855422e-003
3.895565e+003,-5.021610e-003
3.897494e+003,-4.906664e-003
3.899422e+003,-4.802371e-003
3.901351e+003,-4.819673e-003
3.903279e+003,-4.792147e-003
3.905208e+003,-4.776974e-003
3.907136e+003,-5.202534e-003
3.909065e+003,-5.378996e-003
3.910993e+003,-5.425825e-003
3.912922e+003,-5.523687e-003
3.914850e+003,-5.244635e-003
3.916779e+003,-5.041949e-003
3.918707e+003,-5.029798e-003
3.920636e+003,-5.200700e-003
3.922564e+003,-5.231965e-003
3.924493e+003,-5.075977e-003
3.926421e+003,-5.172478e-003
3.928350e+003,-5.338545e-003
3.930278e+003,-5.377884e-003
3.932207e+003,-5.345189e-003
3.934135e+003,-5.363091e-003
3.936064e+003,-5.365906e-003
3.937992e+003,-5.346204e-003
3.939921e+003,-5.327253e-003
3.941849e+003,-5.235959e-003
3.943778e+003,-5.454064e-003
3.945706e+003,-5.496795e-003
3.947635e+003,-5.257631e-003
3.949563e+003,-5.128110e-003
3.951492e+003,-5.109904e-003
3.953420e+003,-5.275439e-003
3.955349e+003,-5.463356e-003
3.957277e+003,-5.586922e-003
3.959206e+003,-5.671077e-003
3.961134e+003,-5.765648e-003
3.963063e+003,-5.581099e-003
3.964991e+003,-5.428803e-003
3.966920e+003,-5.510797e-003
3.968848e+003,-5.396439e-003
3.970777e+003,-5.245813e-003
3.972705e+003,-5.314914e-003
3.974634e+003,-5.401380e-003
3.976562e+003,-5.475790e-003
3.978491e+003,-5.348887e-003
3.980419e+003,-5.246042e-003
3.982348e+003,-5.304014e-003
3.984276e+003,-5.394901e-003
3.986205e+003,-5.599319e-003
3.988133e+003,-5.594183e-003
3.990062e+003,-5.508409e-003
3.991990e+003,-5.632092e-003
3.993919e+003,-5.758651e-003
3.995847e+003,-5.764994e-003
3.997776e+003,-5.560425e-003
3.999704e+003,-5.621463e-003
4.001633e+003,0.000000e+000
