3.991989e+002,-2.450854e-002
4.011274e+002,-1.429938e-002
4.030559e+002,-1.417615e-002
4.049844e+002,-6.203306e-003
4.069129e+002,1.106827e-003
4.088414e+002,2.046034e-003
4.107699e+002,-3.061831e-004
4.126984e+002,-2.727263e-003
4.146269e+002,-1.069574e-003
4.165554e+002,7.428706e-004
4.184839e+002,-3.583137e-003
4.204124e+002,-5.505498e-003
4.223409e+002,-5.608117e-003
4.242694e+002,-3.913371e-003
4.261979e+002,7.822698e-004
4.281264e+002,-4.821308e-004
4.300549e+002,-1.302119e-002
4.319834e+002,-3.224105e-003
4.339119e+002,1.740103e-003
4.358404e+002,-6.387819e-003
4.377689e+002,2.139258e-003
4.396974e+002,7.297610e-003
4.416259e+002,5.032450e-003
4.435544e+002,2.287125e-003
4.454829e+002,6.954436e-004
4.474114e+002,-3.253803e-003
4.493399e+002,-1.076350e-003
4.512684e+002,-1.304415e-003
4.531969e+002,1.157256e-003
4.551254e+002,5.287514e-003
4.570539e+002,9.761121e-003
4.589824e+002,8.475888e-003
4.609109e+002,4.074962e-003
4.628394e+002,1.458655e-003
4.647679e+002,2.511385e-003
4.666964e+002,1.307381e-003
4.686249e+002,-4.247363e-004
4.705533e+002,-5.108968e-005
4.724819e+002,9.884853e-004
4.744103e+002,3.099801e-004
4.763389e+002,1.968341e-003
4.782673e+002,1.416269e-003
4.801959e+002,-1.188415e-003
4.821243e+002,-1.375896e-003
4.840529e+002,-8.621859e-004
4.859813e+002,-1.294603e-003
4.879099e+002,1.335176e-004
4.898383e+002,2.673746e-004
4.917668e+002,-7.543367e-004
4.936953e+002,-1.391320e-003
4.956238e+002,-1.762826e-003
4.975523e+002,-2.916287e-003
4.994808e+002,-2.445913e-003
5.014093e+002,-3.251797e-003
5.033378e+002,-1.209364e-003
5.052663e+002,8.878057e-004
5.071948e+002,1.320243e-003
5.091233e+002,8.147346e-004
5.110518e+002,1.193736e-003
5.129803e+002,-6.341530e-004
5.149088e+002,-2.824880e-003
5.168373e+002,-2.475763e-003
5.187658e+002,-4.662107e-004
5.206943e+002,1.988829e-004
5.226228e+002,-2.537988e-004
5.245513e+002,-5.971286e-004
5.264798e+002,-2.548585e-004
5.284083e+002,-3.078386e-004
5.303368e+002,-2.652895e-004
5.322653e+002,-3.167784e-004
5.341938e+002,-1.190012e-004
5.361223e+002,-6.419281e-004
5.380508e+002,-1.300979e-003
5.399792e+002,-7.641934e-004
5.419078e+002,2.266960e-004
5.438363e+002,-6.585696e-004
5.457648e+002,-2.504542e-004
5.476932e+002,-1.105666e-003
5.496218e+002,-9.183984e-004
5.515503e+002,3.717905e-004
5.534788e+002,1.119550e-003
5.554072e+002,-4.141767e-004
5.573358e+002,-1.401691e-003
5.592643e+002,-2.235489e-003
5.611927e+002,-1.803443e-004
5.631212e+002,3.429401e-004
5.650497e+002,-1.249177e-003
5.669783e+002,-1.193834e-003
5.689067e+002,1.524433e-004
5.708352e+002,7.344070e-004
5.727637e+002,-2.620443e-004
5.746923e+002,-1.794637e-003
5.766207e+002,-8.647653e-004
5.785492e+002,4.613714e-004
5.804777e+002,9.388895e-003
5.824063e+002,6.720756e-003
5.843347e+002,-9.552633e-004
5.862632e+002,-1.342384e-004
5.881917e+002,-3.781267e-004
5.901202e+002,1.560641e-005
5.920487e+002,5.696826e-004
5.939772e+002,-9.930506e-004
5.959057e+002,-1.591358e-003
5.978342e+002,-1.084547e-003
5.997627e+002,-1.689494e-003
6.016912e+002,-1.435113e-003
6.036197e+002,-7.522198e-004
6.055482e+002,5.756214e-004
6.074767e+002,-1.780590e-004
6.094052e+002,-9.587017e-004
6.113337e+002,-6.198928e-004
6.132622e+002,4.309563e-004
6.151907e+002,-1.681889e-004
6.171192e+002,-1.050932e-003
6.190477e+002,-1.512979e-003
6.209762e+002,-4.234453e-004
6.229047e+002,-8.571595e-004
6.248332e+002,-5.573212e-004
6.267617e+002,-2.665809e-004
6.286902e+002,-1.171926e-003
6.306187e+002,-1.581950e-003
6.325472e+002,-1.491483e-003
6.344756e+002,-1.666753e-003
6.364042e+002,-1.243230e-003
6.383326e+002,-4.273182e-004
6.402612e+002,-2.673094e-004
6.421896e+002,-3.044912e-005
6.441182e+002,-9.614434e-005
6.460466e+002,-6.473541e-004
6.479752e+002,-4.362224e-004
6.499036e+002,1.805843e-005
6.518322e+002,-1.048234e-004
6.537606e+002,-3.508753e-005
6.556891e+002,-5.254741e-005
6.576177e+002,-5.029815e-004
6.595461e+002,-6.636314e-004
6.614746e+002,-9.746037e-004
6.634031e+002,-9.336738e-004
6.653317e+002,-9.430305e-004
6.672601e+002,-1.876826e-003
6.691886e+002,-1.491384e-003
6.711171e+002,-1.061939e-003
6.730457e+002,-1.319677e-003
6.749741e+002,-9.608506e-004
6.769026e+002,-7.934976e-004
6.788311e+002,-4.340046e-004
6.807596e+002,-5.603326e-004
6.826881e+002,-1.098593e-003
6.846166e+002,-9.849843e-004
6.865451e+002,-7.579420e-004
6.884736e+002,-3.897795e-004
6.904021e+002,-4.236109e-004
6.923306e+002,-5.712857e-004
6.942591e+002,-5.694657e-004
6.961876e+002,-4.773978e-004
6.981161e+002,-6.438801e-004
7.000446e+002,-8.712796e-004
7.019731e+002,-4.131506e-004
7.039016e+002,-6.238691e-005
7.058301e+002,-4.952702e-004
7.077585e+002,-4.700832e-004
7.096871e+002,5.308398e-005
7.116156e+002,-2.163114e-004
7.135441e+002,-6.554928e-004
7.154725e+002,-5.254198e-004
7.174011e+002,-9.425612e-005
7.193296e+002,-9.575632e-006
7.212581e+002,-5.788303e-004
7.231865e+002,-3.619379e-004
7.251151e+002,2.175463e-004
7.270436e+002,-3.818013e-004
7.289720e+002,-5.624504e-004
7.309005e+002,-5.392860e-004
7.328290e+002,-4.883530e-004
7.347576e+002,-5.008634e-004
7.366860e+002,-4.606170e-004
7.386145e+002,-1.930623e-004
7.405430e+002,-4.318862e-004
7.424716e+002,-6.773277e-004
7.444000e+002,-7.945559e-004
7.463285e+002,-7.624404e-004
7.482570e+002,-5.308472e-004
7.501855e+002,-5.356127e-004
7.521140e+002,-3.484303e-004
7.540425e+002,-1.292035e-004
7.559710e+002,-3.491255e-004
7.578995e+002,-1.032917e-003
7.598280e+002,-1.062699e-003
7.617565e+002,-8.080166e-004
7.636850e+002,-5.478239e-004
7.656135e+002,-1.871007e-004
7.675420e+002,-6.817607e-004
7.694705e+002,-1.108673e-003
7.713990e+002,-1.065145e-003
7.733275e+002,-9.159186e-004
7.752560e+002,-9.229282e-004
7.771844e+002,-5.366385e-004
7.791130e+002,-3.309161e-004
7.810415e+002,-3.608123e-004
7.829700e+002,-4.182814e-004
7.848984e+002,-5.356127e-004
7.868270e+002,-1.729253e-004
7.887555e+002,2.478802e-004
7.906840e+002,1.150235e-004
7.926124e+002,-5.482210e-004
7.945410e+002,-4.398966e-004
7.964695e+002,-3.478935e-005
7.983979e+002,-1.089311e-004
8.003264e+002,-3.697510e-004
8.022549e+002,-2.755546e-004
8.041835e+002,-1.872332e-004
8.061119e+002,-3.174406e-004
8.080404e+002,-7.365081e-004
8.099689e+002,-9.205145e-004
8.118975e+002,-7.832116e-004
8.138259e+002,-5.480886e-004
8.157545e+002,-6.486774e-004
8.176830e+002,-7.252946e-004
8.196115e+002,-6.453359e-004
8.215399e+002,-4.203338e-004
8.234684e+002,-3.094279e-004
8.253970e+002,-3.929244e-004
8.273254e+002,-4.608700e-005
8.292539e+002,3.408842e-004
8.311824e+002,-6.053167e-005
8.331110e+002,-4.252659e-004
8.350394e+002,-1.627239e-004
8.369679e+002,-4.873270e-004
8.388964e+002,-9.635285e-004
8.408250e+002,-7.759352e-004
8.427534e+002,-5.349839e-004
8.446819e+002,-5.409406e-004
8.466104e+002,-5.236659e-004
8.485389e+002,-4.923908e-004
8.504674e+002,-3.928582e-004
8.523959e+002,-4.503231e-004
8.543244e+002,-4.885516e-004
8.562529e+002,-4.055038e-004
8.581814e+002,-5.189996e-004
8.601099e+002,-2.389632e-004
8.620384e+002,-1.199287e-004
8.639669e+002,-2.546929e-004
8.658954e+002,-6.103307e-004
8.678239e+002,-8.956498e-004
8.697524e+002,-8.215761e-004
8.716809e+002,-5.314760e-004
8.736094e+002,4.078992e-005
8.755378e+002,1.098864e-004
8.774664e+002,-4.752134e-004
8.793949e+002,-6.469239e-004
8.813234e+002,-7.336965e-004
8.832518e+002,-7.064393e-004
8.851804e+002,-6.640284e-004
8.871089e+002,-5.089387e-004
8.890374e+002,-7.047852e-004
8.909658e+002,-9.153896e-004
8.928943e+002,-5.537473e-004
8.948229e+002,-3.944141e-004
8.967513e+002,-6.810330e-004
8.986798e+002,-6.144997e-004
9.006083e+002,-5.331307e-004
9.025369e+002,-6.794450e-004
9.044653e+002,-7.627050e-004
9.063938e+002,-5.484195e-004
9.083223e+002,-3.628649e-004
9.102509e+002,-3.192616e-004
9.121793e+002,-3.650499e-004
9.141078e+002,-4.546260e-004
9.160364e+002,-5.911064e-004
9.179648e+002,-4.636290e-004
9.198933e+002,-1.617634e-004
9.218218e+002,-2.263459e-004
9.237504e+002,-4.259610e-004
9.256788e+002,-3.128383e-004
9.276073e+002,-2.129334e-004
9.295358e+002,-8.329099e-005
9.314644e+002,-2.414138e-004
9.333928e+002,-7.566190e-004
9.353213e+002,-7.899918e-004
9.372498e+002,-1.421549e-004
9.391783e+002,8.367151e-005
9.411068e+002,-7.795740e-005
9.430353e+002,-3.391932e-004
9.449637e+002,-5.527215e-004
9.468923e+002,-3.673673e-004
9.488208e+002,-3.607461e-004
9.507493e+002,-5.921322e-004
9.526777e+002,-6.452697e-004
9.546063e+002,-6.254845e-004
9.565348e+002,-7.377320e-004
9.584633e+002,-7.775559e-004
9.603917e+002,-5.595053e-004
9.623203e+002,-4.465497e-004
9.642488e+002,-6.784525e-004
9.661772e+002,-6.805367e-004
9.681057e+002,-6.241942e-004
9.700343e+002,-6.576763e-004
9.719628e+002,-6.398438e-004
9.738912e+002,-4.111975e-004
9.758197e+002,-3.583624e-004
9.777483e+002,-2.522756e-004
9.796768e+002,-3.052560e-004
9.816052e+002,-5.059271e-004
9.835337e+002,-3.993466e-004
9.854623e+002,-3.821655e-004
9.873907e+002,-4.093107e-004
9.893192e+002,-2.018057e-004
9.912477e+002,-3.045276e-004
9.931763e+002,-4.160967e-004
9.951047e+002,-4.478406e-004
9.970332e+002,-3.928582e-004
9.989617e+002,-2.061111e-004
1.000890e+003,-2.323400e-004
1.002819e+003,-4.881875e-004
1.004747e+003,-5.905108e-004
1.006676e+003,-6.893034e-004
1.008604e+003,-6.696856e-004
1.010533e+003,-5.198931e-004
1.012461e+003,-5.275378e-004
1.014390e+003,-6.816615e-004
1.016318e+003,-6.315723e-004
1.018247e+003,-5.081444e-004
1.020175e+003,-4.777619e-004
1.022104e+003,-5.692341e-004
1.024032e+003,-6.088418e-004
1.025961e+003,-8.059661e-004
1.027889e+003,-6.313738e-004
1.029818e+003,-2.854884e-004
1.031746e+003,-3.485958e-004
1.033675e+003,-3.070440e-004
1.035603e+003,-3.041633e-004
1.037532e+003,-4.567113e-004
1.039460e+003,-6.486774e-004
1.041389e+003,-6.665758e-004
1.043317e+003,-6.446411e-004
1.045246e+003,-7.918109e-004
1.047174e+003,-8.662533e-004
1.049103e+003,-6.699172e-004
1.051031e+003,-5.536150e-004
1.052960e+003,-5.269753e-004
1.054888e+003,-5.980220e-004
1.056817e+003,-7.832777e-004
1.058745e+003,-8.243541e-004
1.060674e+003,-4.803766e-004
1.062602e+003,-4.446961e-004
1.064531e+003,-4.746838e-004
1.066459e+003,-6.125476e-004
1.068388e+003,-6.256830e-004
1.070316e+003,-6.454682e-004
1.072245e+003,-7.923731e-004
1.074173e+003,-8.896649e-004
1.076102e+003,-8.821918e-004
1.078030e+003,-7.754060e-004
1.079959e+003,-4.682297e-004
1.081887e+003,-5.257508e-004
1.083816e+003,-5.014922e-004
1.085744e+003,-4.284768e-004
1.087673e+003,-4.560162e-004
1.089601e+003,-4.187449e-004
1.091530e+003,-3.566078e-004
1.093458e+003,-6.309437e-004
1.095387e+003,-6.643923e-004
1.097315e+003,-6.099006e-004
1.099244e+003,-5.710209e-004
1.101172e+003,-5.573212e-004
1.103101e+003,-7.545352e-004
1.105029e+003,-8.157886e-004
1.106958e+003,-6.078491e-004
1.108886e+003,-5.219450e-004
1.110815e+003,-6.288924e-004
1.112743e+003,-6.230030e-004
1.114672e+003,-4.900409e-004
1.116600e+003,-5.608621e-004
1.118529e+003,-7.303556e-004
1.120457e+003,-6.520851e-004
1.122386e+003,-4.951709e-004
1.124314e+003,-5.902792e-004
1.126243e+003,-5.633770e-004
1.128171e+003,-7.442152e-004
1.130100e+003,-8.815966e-004
1.132028e+003,-6.844073e-004
1.133957e+003,-6.228376e-004
1.135885e+003,-7.120959e-004
1.137814e+003,-7.760013e-004
1.139742e+003,-8.352014e-004
1.141671e+003,-7.584051e-004
1.143599e+003,-4.614114e-004
1.145528e+003,-3.486620e-004
1.147456e+003,-6.516220e-004
1.149385e+003,-7.468283e-004
1.151313e+003,-7.051161e-004
1.153242e+003,-7.332003e-004
1.155170e+003,-6.110586e-004
1.157099e+003,-5.356789e-004
1.159027e+003,-4.993079e-004
1.160956e+003,-5.448787e-004
1.162884e+003,-5.384918e-004
1.164813e+003,-5.824701e-004
1.166741e+003,-5.553688e-004
1.168670e+003,-2.781706e-004
1.170598e+003,-2.487322e-004
1.172526e+003,-4.437031e-004
1.174455e+003,-6.010330e-004
1.176384e+003,-5.792604e-004
1.178312e+003,-3.812386e-004
1.180240e+003,-3.470398e-004
1.182169e+003,-5.580162e-004
1.184098e+003,-7.876105e-004
1.186026e+003,-9.085122e-004
1.187954e+003,-7.987893e-004
1.189883e+003,-7.062077e-004
1.191812e+003,-5.679766e-004
1.193740e+003,-4.944428e-004
1.195668e+003,-4.873601e-004
1.197597e+003,-3.739554e-004
1.199526e+003,-4.261928e-004
1.201454e+003,-5.042723e-004
1.203382e+003,-4.956012e-004
1.205311e+003,-4.732606e-004
1.207240e+003,-4.470131e-004
1.209168e+003,-4.927880e-004
1.211096e+003,-5.773412e-004
1.213025e+003,-5.844886e-004
1.214953e+003,-4.985467e-004
1.216882e+003,-5.976580e-004
1.218810e+003,-5.331307e-004
1.220739e+003,-4.006707e-004
1.222667e+003,-4.691233e-004
1.224596e+003,-4.154346e-004
1.226524e+003,-3.260822e-004
1.228453e+003,-2.432020e-004
1.230381e+003,-3.317438e-004
1.232310e+003,-4.822301e-004
1.234238e+003,-4.120251e-004
1.236167e+003,-3.494235e-004
1.238095e+003,-3.954072e-004
1.240024e+003,-3.964004e-004
1.241952e+003,-4.186455e-004
1.243881e+003,-3.805764e-004
1.245809e+003,-4.340378e-004
1.247738e+003,-4.126871e-004
1.249666e+003,-3.247909e-004
1.251595e+003,-3.332337e-004
1.253523e+003,-2.607860e-004
1.255452e+003,-2.594614e-004
1.257380e+003,-4.458877e-004
1.259309e+003,-6.076506e-004
1.261237e+003,-5.268760e-004
1.263166e+003,-2.861507e-004
1.265094e+003,-2.790646e-004
1.267023e+003,-4.985467e-004
1.268951e+003,-5.973933e-004
1.270880e+003,-6.217127e-004
1.272808e+003,-7.019734e-004
1.274737e+003,-5.869703e-004
1.276665e+003,-3.264464e-004
1.278594e+003,-1.858091e-004
1.280522e+003,-2.991967e-004
1.282451e+003,-4.020942e-004
1.284379e+003,-4.179504e-004
1.286308e+003,-4.363217e-004
1.288236e+003,-3.588259e-004
1.290165e+003,-2.897599e-004
1.292093e+003,-2.895612e-004
1.294022e+003,-3.187319e-004
1.295950e+003,-4.879227e-004
1.297879e+003,-5.136383e-004
1.299807e+003,-4.231474e-004
1.301736e+003,-3.547869e-004
1.303664e+003,-3.163811e-004
1.305593e+003,-4.381422e-004
1.307521e+003,-4.500914e-004
1.309450e+003,-3.105868e-004
1.311378e+003,-3.517410e-004
1.313307e+003,-4.233460e-004
1.315235e+003,-3.347236e-004
1.317164e+003,-2.673094e-004
1.319092e+003,-2.809189e-004
1.321021e+003,-2.673094e-004
1.322949e+003,-3.194603e-004
1.324878e+003,-4.189435e-004
1.326806e+003,-4.181821e-004
1.328735e+003,-4.893790e-004
1.330663e+003,-4.434052e-004
1.332592e+003,-5.074163e-004
1.334520e+003,-6.487767e-004
1.336449e+003,-7.207958e-004
1.338377e+003,-7.528813e-004
1.340306e+003,-6.828525e-004
1.342234e+003,-5.562293e-004
1.344163e+003,-5.189003e-004
1.346091e+003,-4.983150e-004
1.348020e+003,-4.268217e-004
1.349948e+003,-4.600543e-004
1.351877e+003,-4.335413e-004
1.353805e+003,-4.079203e-004
1.355734e+003,-3.975259e-004
1.357662e+003,-3.512775e-004
1.359591e+003,-3.946790e-004
1.361519e+003,-5.961690e-004
1.363448e+003,-6.620765e-004
1.365376e+003,-3.853767e-004
1.367305e+003,-3.666390e-004
1.369233e+003,-4.149712e-004
1.371162e+003,-3.937520e-004
1.373090e+003,-5.154585e-004
1.375019e+003,-5.912388e-004
1.376947e+003,-5.501403e-004
1.378876e+003,-6.175768e-004
1.380804e+003,-6.676014e-004
1.382733e+003,-6.450050e-004
1.384661e+003,-4.986791e-004
1.386590e+003,-7.213582e-004
1.388518e+003,-7.992524e-004
1.390447e+003,-5.251551e-004
1.392375e+003,-4.576381e-004
1.394304e+003,-6.540040e-004
1.396232e+003,-6.574778e-004
1.398161e+003,-7.507644e-004
1.400089e+003,-8.101002e-004
1.402018e+003,-6.851351e-004
1.403946e+003,-7.097804e-004
1.405875e+003,-6.046727e-004
1.407803e+003,-4.696860e-004
1.409732e+003,-5.551041e-004
1.411660e+003,-4.867313e-004
1.413589e+003,-4.901071e-004
1.415517e+003,-7.233098e-004
1.417446e+003,-1.148595e-003
1.419374e+003,-1.226710e-003
1.421303e+003,-7.793418e-004
1.423231e+003,-7.750091e-004
1.425160e+003,-7.730907e-004
1.427088e+003,-5.933234e-004
1.429017e+003,-6.183378e-004
1.430945e+003,-5.938197e-004
1.432874e+003,-4.655487e-004
1.434802e+003,-7.604889e-004
1.436731e+003,-1.282050e-003
1.438659e+003,-7.670049e-004
1.440588e+003,-4.924901e-004
1.442516e+003,-4.551556e-004
1.444445e+003,-4.288740e-004
1.446373e+003,-5.935881e-004
1.448302e+003,-6.942325e-004
1.450230e+003,-5.425953e-004
1.452159e+003,-5.691679e-004
1.454087e+003,-1.101799e-003
1.456016e+003,-2.149676e-003
1.457944e+003,-1.908001e-003
1.459873e+003,-9.215064e-004
1.461801e+003,-6.348147e-004
1.463730e+003,-9.126122e-004
1.465658e+003,-8.451884e-004
1.467587e+003,-5.936212e-004
1.469515e+003,-8.625497e-004
1.471444e+003,-1.618527e-003
1.473372e+003,-1.672232e-003
1.475301e+003,-1.177411e-003
1.477229e+003,-8.476026e-004
1.479158e+003,-5.503389e-004
1.481086e+003,-5.005656e-004
1.483015e+003,-4.967264e-004
1.484943e+003,-6.399430e-004
1.486872e+003,-9.561229e-004
1.488800e+003,-1.189439e-003
1.490729e+003,-9.724878e-004
1.492657e+003,-6.199921e-004
1.494586e+003,-8.915827e-004
1.496514e+003,-1.190562e-003
1.498443e+003,-9.547013e-004
1.500371e+003,-6.093381e-004
1.502300e+003,-5.358112e-004
1.504228e+003,-1.405555e-003
1.506157e+003,-2.667464e-003
1.508085e+003,-2.074035e-003
1.510014e+003,-1.176122e-003
1.511942e+003,-1.035661e-003
1.513871e+003,-1.066070e-003
1.515799e+003,-1.350066e-003
1.517728e+003,-1.432240e-003
1.519656e+003,-1.648401e-003
1.521585e+003,-2.025261e-003
1.523513e+003,-1.459419e-003
1.525442e+003,-1.216236e-003
1.527370e+003,-1.085141e-003
1.529299e+003,-9.115872e-004
1.531227e+003,-1.024587e-003
1.533156e+003,-1.460046e-003
1.535084e+003,-1.142911e-003
1.537013e+003,-1.369125e-003
1.538941e+003,-2.521621e-003
1.540870e+003,-2.612268e-003
1.542798e+003,-1.799751e-003
1.544727e+003,-1.281786e-003
1.546655e+003,-9.181339e-004
1.548584e+003,-8.162516e-004
1.550512e+003,-7.726938e-004
1.552441e+003,-9.873646e-004
1.554369e+003,-1.319941e-003
1.556298e+003,-1.602649e-003
1.558226e+003,-3.023271e-003
1.560155e+003,-2.590629e-003
1.562083e+003,-1.017480e-003
1.564012e+003,-7.736530e-004
1.565940e+003,-8.095379e-004
1.567869e+003,-1.004158e-003
1.569797e+003,-1.326911e-003
1.571726e+003,-9.352939e-004
1.573654e+003,-9.641236e-004
1.575583e+003,-1.617999e-003
1.577511e+003,-1.301970e-003
1.579440e+003,-7.296940e-004
1.581368e+003,-7.040575e-004
1.583297e+003,-7.545021e-004
1.585225e+003,-6.318701e-004
1.587154e+003,-5.201910e-004
1.589082e+003,-4.825941e-004
1.591010e+003,-4.977193e-004
1.592939e+003,-6.608855e-004
1.594868e+003,-7.059430e-004
1.596796e+003,-5.723115e-004
1.598724e+003,-4.951709e-004
1.600653e+003,-5.423967e-004
1.602582e+003,-5.838599e-004
1.604510e+003,-4.980834e-004
1.606438e+003,-4.746507e-004
1.608367e+003,-5.106928e-004
1.610296e+003,-5.671163e-004
1.612224e+003,-5.997095e-004
1.614152e+003,-8.260738e-004
1.616081e+003,-1.440034e-003
1.618010e+003,-1.164590e-003
1.619938e+003,-6.954565e-004
1.621866e+003,-9.478906e-004
1.623795e+003,-1.156659e-003
1.625724e+003,-9.826702e-004
1.627652e+003,-9.386993e-004
1.629580e+003,-7.640611e-004
1.631509e+003,-7.338619e-004
1.633438e+003,-1.287534e-003
1.635366e+003,-2.061834e-003
1.637294e+003,-1.348316e-003
1.639223e+003,-6.370646e-004
1.641151e+003,-6.430530e-004
1.643080e+003,-7.361443e-004
1.645008e+003,-1.302532e-003
1.646937e+003,-1.718274e-003
1.648865e+003,-1.231501e-003
1.650794e+003,-1.728736e-003
1.652722e+003,-3.171085e-003
1.654651e+003,-2.014476e-003
1.656579e+003,-8.280250e-004
1.658508e+003,-6.453359e-004
1.660436e+003,-8.693617e-004
1.662365e+003,-1.205894e-003
1.664293e+003,-9.827033e-004
1.666222e+003,-9.152574e-004
1.668150e+003,-1.368927e-003
1.670079e+003,-1.458098e-003
1.672007e+003,-1.122521e-003
1.673936e+003,-1.346400e-003
1.675864e+003,-1.302168e-003
1.677793e+003,-8.396658e-004
1.679721e+003,-9.415427e-004
1.681650e+003,-1.356540e-003
1.683578e+003,-2.375629e-003
1.685507e+003,-1.967377e-003
1.687435e+003,-1.158774e-003
1.689364e+003,-8.972039e-004
1.691292e+003,-6.987646e-004
1.693221e+003,-9.752318e-004
1.695149e+003,-1.817009e-003
1.697078e+003,-1.872174e-003
1.699006e+003,-2.394346e-003
1.700935e+003,-2.498989e-003
1.702863e+003,-1.345541e-003
1.704792e+003,-1.218384e-003
1.706720e+003,-1.075127e-003
1.708649e+003,-9.310949e-004
1.710577e+003,-9.761906e-004
1.712506e+003,-1.236556e-003
1.714434e+003,-1.548373e-003
1.716363e+003,-2.009265e-003
1.718291e+003,-1.859703e-003
1.720220e+003,-9.112235e-004
1.722148e+003,-5.916689e-004
1.724077e+003,-6.325649e-004
1.726005e+003,-6.234662e-004
1.727934e+003,-7.272462e-004
1.729862e+003,-9.596604e-004
1.731791e+003,-1.334806e-003
1.733719e+003,-2.056788e-003
1.735648e+003,-1.438680e-003
1.737576e+003,-9.356575e-004
1.739505e+003,-1.275806e-003
1.741433e+003,-1.110128e-003
1.743362e+003,-9.534780e-004
1.745290e+003,-8.167146e-004
1.747219e+003,-1.048883e-003
1.749147e+003,-1.386928e-003
1.751076e+003,-1.378241e-003
1.753004e+003,-8.041472e-004
1.754933e+003,-7.381620e-004
1.756861e+003,-9.304666e-004
1.758790e+003,-8.911528e-004
1.760718e+003,-1.126916e-003
1.762647e+003,-1.071194e-003
1.764575e+003,-7.024035e-004
1.766504e+003,-8.593420e-004
1.768432e+003,-1.065806e-003
1.770361e+003,-1.268174e-003
1.772289e+003,-1.609548e-003
1.774218e+003,-1.163202e-003
1.776146e+003,-7.450752e-004
1.778075e+003,-7.009479e-004
1.780003e+003,-7.869489e-004
1.781932e+003,-7.658472e-004
1.783860e+003,-7.217220e-004
1.785789e+003,-7.998146e-004
1.787717e+003,-9.342027e-004
1.789646e+003,-1.096941e-003
1.791574e+003,-1.406843e-003
1.793503e+003,-1.165845e-003
1.795431e+003,-7.958458e-004
1.797360e+003,-8.976337e-004
1.799288e+003,-1.132535e-003
1.801217e+003,-1.096908e-003
1.803145e+003,-7.614812e-004
1.805074e+003,-5.792935e-004
1.807002e+003,-5.656934e-004
1.808931e+003,-6.797427e-004
1.810859e+003,-8.121176e-004
1.812788e+003,-7.771920e-004
1.814716e+003,-6.991946e-004
1.816645e+003,-6.870869e-004
1.818573e+003,-6.511587e-004
1.820502e+003,-6.788164e-004
1.822430e+003,-7.255923e-004
1.824359e+003,-9.762897e-004
1.826287e+003,-1.026769e-003
1.828216e+003,-1.082035e-003
1.830144e+003,-1.098758e-003
1.832073e+003,-8.335478e-004
1.834001e+003,-6.947949e-004
1.835930e+003,-7.006833e-004
1.837858e+003,-7.136507e-004
1.839787e+003,-5.924961e-004
1.841715e+003,-7.678317e-004
1.843644e+003,-1.302961e-003
1.845572e+003,-1.111119e-003
1.847501e+003,-7.678648e-004
1.849429e+003,-7.326711e-004
1.851358e+003,-6.756736e-004
1.853286e+003,-6.813969e-004
1.855215e+003,-6.883440e-004
1.857143e+003,-7.406759e-004
1.859072e+003,-8.179052e-004
1.861000e+003,-8.417823e-004
1.862929e+003,-7.997485e-004
1.864857e+003,-8.048748e-004
1.866786e+003,-9.663387e-004
1.868714e+003,-1.139342e-003
1.870643e+003,-1.002142e-003
1.872571e+003,-8.459490e-004
1.874500e+003,-7.888011e-004
1.876428e+003,-6.748796e-004
1.878357e+003,-6.072866e-004
1.880285e+003,-6.160548e-004
1.882214e+003,-6.457990e-004
1.884142e+003,-6.930747e-004
1.886071e+003,-7.649873e-004
1.887999e+003,-8.867881e-004
1.889928e+003,-9.695786e-004
1.891856e+003,-8.137050e-004
1.893785e+003,-7.182487e-004
1.895713e+003,-6.670721e-004
1.897642e+003,-6.734902e-004
1.899570e+003,-7.275770e-004
1.901499e+003,-7.400805e-004
1.903427e+003,-7.341927e-004
1.905356e+003,-7.765636e-004
1.907284e+003,-7.754060e-004
1.909213e+003,-7.470929e-004
1.911141e+003,-6.856975e-004
1.913070e+003,-6.967136e-004
1.914998e+003,-7.660788e-004
1.916927e+003,-9.710002e-004
1.918855e+003,-1.010902e-003
1.920784e+003,-8.830185e-004
1.922712e+003,-9.069912e-004
1.924641e+003,-8.572257e-004
1.926569e+003,-8.145319e-004
1.928498e+003,-7.539729e-004
1.930426e+003,-7.556267e-004
1.932355e+003,-8.537204e-004
1.934283e+003,-9.126452e-004
1.936212e+003,-9.073880e-004
1.938140e+003,-7.724623e-004
1.940069e+003,-7.346558e-004
1.941997e+003,-9.429313e-004
1.943926e+003,-8.847049e-004
1.945854e+003,-7.217220e-004
1.947783e+003,-7.009479e-004
1.949711e+003,-7.313810e-004
1.951640e+003,-7.886357e-004
1.953568e+003,-7.846338e-004
1.955497e+003,-8.139696e-004
1.957425e+003,-8.550431e-004
1.959354e+003,-8.710812e-004
1.961282e+003,-8.203856e-004
1.963211e+003,-8.191288e-004
1.965139e+003,-8.279258e-004
1.967068e+003,-8.574902e-004
1.968996e+003,-8.056685e-004
1.970925e+003,-7.581736e-004
1.972853e+003,-7.209943e-004
1.974782e+003,-7.644250e-004
1.976710e+003,-7.868828e-004
1.978639e+003,-7.611174e-004
1.980567e+003,-7.836415e-004
1.982496e+003,-8.227006e-004
1.984424e+003,-7.850307e-004
1.986353e+003,-7.587359e-004
1.988281e+003,-7.704116e-004
1.990210e+003,-8.637402e-004
1.992138e+003,-9.440223e-004
1.994067e+003,-9.321198e-004
1.995995e+003,-8.797118e-004
1.997924e+003,-7.924392e-004
1.999852e+003,-9.254741e-004
2.001781e+003,-9.638922e-004
2.003709e+003,-8.486938e-004
2.005638e+003,-7.537083e-004
2.007566e+003,-8.120184e-004
2.009495e+003,-8.518354e-004
2.011423e+003,-7.672695e-004
2.013352e+003,-6.965151e-004
2.015280e+003,-7.402128e-004
2.017208e+003,-8.344407e-004
2.019137e+003,-8.315305e-004
2.021066e+003,-7.516575e-004
2.022994e+003,-7.895287e-004
2.024922e+003,-8.168138e-004
2.026851e+003,-8.638724e-004
2.028780e+003,-9.291442e-004
2.030708e+003,-8.829524e-004
2.032636e+003,-8.599042e-004
2.034565e+003,-9.103969e-004
2.036494e+003,-8.904584e-004
2.038422e+003,-8.711804e-004
2.040350e+003,-8.810014e-004
2.042279e+003,-8.436342e-004
2.044208e+003,-8.061315e-004
2.046136e+003,-8.880115e-004
2.048064e+003,-8.745863e-004
2.049993e+003,-8.038495e-004
2.051921e+003,-8.154248e-004
2.053850e+003,-9.255733e-004
2.055778e+003,-9.393605e-004
2.057707e+003,-8.995516e-004
2.059635e+003,-8.976668e-004
2.061564e+003,-9.278877e-004
2.063492e+003,-9.894142e-004
2.065421e+003,-9.679917e-004
2.067349e+003,-8.709159e-004
2.069278e+003,-7.688571e-004
2.071206e+003,-7.754060e-004
2.073135e+003,-8.284880e-004
2.075063e+003,-8.579532e-004
2.076992e+003,-7.986901e-004
2.078920e+003,-8.443948e-004
2.080849e+003,-9.656774e-004
2.082777e+003,-9.216387e-004
2.084706e+003,-9.532796e-004
2.086634e+003,-9.638591e-004
2.088563e+003,-8.496859e-004
2.090491e+003,-7.971688e-004
2.092420e+003,-8.000130e-004
2.094348e+003,-8.025597e-004
2.096277e+003,-8.612931e-004
2.098205e+003,-9.334423e-004
2.100134e+003,-8.649637e-004
2.102062e+003,-8.285542e-004
2.103991e+003,-8.388390e-004
2.105919e+003,-8.547786e-004
2.107848e+003,-8.474702e-004
2.109776e+003,-8.414185e-004
2.111705e+003,-8.587799e-004
2.113633e+003,-8.482308e-004
2.115562e+003,-7.673687e-004
2.117490e+003,-8.098356e-004
2.119419e+003,-8.501489e-004
2.121347e+003,-8.433366e-004
2.123276e+003,-9.316569e-004
2.125204e+003,-1.022802e-003
2.127133e+003,-1.006307e-003
2.129061e+003,-9.907035e-004
2.130990e+003,-9.862075e-004
2.132918e+003,-9.943730e-004
2.134847e+003,-1.022339e-003
2.136775e+003,-1.009150e-003
2.138704e+003,-9.282184e-004
2.140632e+003,-8.878462e-004
2.142561e+003,-8.406249e-004
2.144489e+003,-8.927730e-004
2.146418e+003,-9.915299e-004
2.148346e+003,-9.564204e-004
2.150275e+003,-9.233911e-004
2.152203e+003,-9.797610e-004
2.154132e+003,-1.003166e-003
2.156060e+003,-8.997499e-004
2.157989e+003,-9.097025e-004
2.159917e+003,-1.066599e-003
2.161846e+003,-1.098858e-003
2.163774e+003,-1.028984e-003
2.165703e+003,-9.366163e-004
2.167631e+003,-9.063960e-004
2.169560e+003,-9.443860e-004
2.171488e+003,-9.994970e-004
2.173417e+003,-1.054601e-003
2.175345e+003,-1.081572e-003
2.177274e+003,-1.055064e-003
2.179202e+003,-1.024290e-003
2.181131e+003,-9.979432e-004
2.183059e+003,-9.920589e-004
2.184988e+003,-9.440554e-004
2.186916e+003,-1.007497e-003
2.188845e+003,-1.173082e-003
2.190773e+003,-1.146216e-003
2.192702e+003,-1.029711e-003
2.194630e+003,-9.823065e-004
2.196559e+003,-9.588008e-004
2.198487e+003,-9.726532e-004
2.200416e+003,-1.006836e-003
2.202344e+003,-9.317892e-004
2.204273e+003,-9.164477e-004
2.206201e+003,-1.029314e-003
2.208130e+003,-1.120241e-003
2.210058e+003,-1.161748e-003
2.211987e+003,-1.152528e-003
2.213915e+003,-1.057080e-003
2.215844e+003,-1.059989e-003
2.217772e+003,-1.090562e-003
2.219701e+003,-9.832322e-004
2.221629e+003,-1.048618e-003
2.223558e+003,-1.132601e-003
2.225486e+003,-1.023265e-003
2.227415e+003,-9.797610e-004
2.229343e+003,-1.052386e-003
2.231272e+003,-1.147670e-003
2.233200e+003,-1.202689e-003
2.235129e+003,-1.233583e-003
2.237057e+003,-1.139045e-003
2.238986e+003,-1.064319e-003
2.240914e+003,-1.117729e-003
2.242843e+003,-1.121331e-003
2.244771e+003,-9.969515e-004
2.246700e+003,-9.988688e-004
2.248628e+003,-1.063327e-003
2.250557e+003,-1.088347e-003
2.252485e+003,-1.095718e-003
2.254414e+003,-1.090496e-003
2.256342e+003,-1.038999e-003
2.258271e+003,-1.066632e-003
2.260199e+003,-1.155866e-003
2.262128e+003,-1.142812e-003
2.264056e+003,-1.152363e-003
2.265985e+003,-1.170273e-003
2.267913e+003,-1.005943e-003
2.269842e+003,-9.640245e-004
2.271770e+003,-1.045610e-003
2.273699e+003,-1.112772e-003
2.275627e+003,-1.104641e-003
2.277556e+003,-1.135905e-003
2.279484e+003,-1.166308e-003
2.281413e+003,-1.117762e-003
2.283341e+003,-1.126487e-003
2.285270e+003,-1.239001e-003
2.287198e+003,-1.235334e-003
2.289127e+003,-1.107384e-003
2.291055e+003,-9.954639e-004
2.292984e+003,-1.020786e-003
2.294912e+003,-1.198724e-003
2.296841e+003,-1.228098e-003
2.298769e+003,-1.227834e-003
2.300698e+003,-1.340256e-003
2.302626e+003,-1.385012e-003
2.304555e+003,-1.291762e-003
2.306483e+003,-1.288195e-003
2.308412e+003,-1.330115e-003
2.310340e+003,-1.328695e-003
2.312269e+003,-1.488115e-003
2.314197e+003,-1.685798e-003
2.316125e+003,-1.791964e-003
2.318054e+003,-1.976514e-003
2.319983e+003,-2.045345e-003
2.321911e+003,-1.997326e-003
2.323840e+003,-2.082147e-003
2.325768e+003,-2.232522e-003
2.327697e+003,-2.419587e-003
2.329625e+003,-2.570834e-003
2.331553e+003,-2.613750e-003
2.333482e+003,-2.625739e-003
2.335411e+003,-2.626101e-003
2.337339e+003,-2.683765e-003
2.339268e+003,-2.804272e-003
2.341196e+003,-2.792321e-003
2.343125e+003,-2.559569e-003
2.345053e+003,-2.227347e-003
2.346981e+003,-1.896917e-003
2.348910e+003,-1.765664e-003
2.350839e+003,-2.095931e-003
2.352767e+003,-2.567803e-003
2.354696e+003,-2.832089e-003
2.356624e+003,-2.959893e-003
2.358552e+003,-3.158750e-003
2.360481e+003,-3.277283e-003
2.362409e+003,-3.288563e-003
2.364338e+003,-3.169210e-003
2.366267e+003,-3.016460e-003
2.368195e+003,-2.945183e-003
2.370124e+003,-2.764403e-003
2.372052e+003,-2.430460e-003
2.373980e+003,-2.077893e-003
2.375909e+003,-1.771538e-003
2.377838e+003,-1.497096e-003
2.379766e+003,-1.245048e-003
2.381695e+003,-1.016852e-003
2.383623e+003,-9.687190e-004
2.385552e+003,-1.081308e-003
2.387480e+003,-1.078630e-003
2.389408e+003,-1.079853e-003
2.391337e+003,-1.120604e-003
2.393266e+003,-1.173181e-003
2.395194e+003,-1.192545e-003
2.397123e+003,-1.106360e-003
2.399051e+003,-1.117762e-003
2.400979e+003,-1.124735e-003
2.402908e+003,-1.014472e-003
2.404836e+003,-1.003464e-003
2.406765e+003,-1.029975e-003
2.408694e+003,-1.027066e-003
2.410622e+003,-1.008489e-003
2.412551e+003,-1.025943e-003
2.414479e+003,-1.070665e-003
2.416407e+003,-1.043296e-003
2.418336e+003,-1.012786e-003
2.420264e+003,-1.003530e-003
2.422193e+003,-1.002704e-003
2.424122e+003,-1.043594e-003
2.426050e+003,-1.090859e-003
2.427979e+003,-1.096114e-003
2.429907e+003,-1.144266e-003
2.431835e+003,-1.133460e-003
2.433764e+003,-1.171364e-003
2.435692e+003,-1.190298e-003
2.437621e+003,-1.173677e-003
2.439550e+003,-1.096445e-003
2.441478e+003,-1.047164e-003
2.443406e+003,-1.150149e-003
2.445335e+003,-1.238076e-003
2.447263e+003,-1.193867e-003
2.449192e+003,-1.223142e-003
2.451121e+003,-1.210851e-003
2.453049e+003,-1.137426e-003
2.454978e+003,-1.120241e-003
2.456906e+003,-1.167696e-003
2.458834e+003,-1.127676e-003
2.460763e+003,-1.053775e-003
2.462691e+003,-1.030702e-003
2.464620e+003,-1.037809e-003
2.466549e+003,-1.099188e-003
2.468477e+003,-1.111350e-003
2.470406e+003,-1.116176e-003
2.472334e+003,-1.174668e-003
2.474262e+003,-1.227834e-003
2.476191e+003,-1.251193e-003
2.478119e+003,-1.267910e-003
2.480048e+003,-1.291432e-003
2.481977e+003,-1.272040e-003
2.483905e+003,-1.178964e-003
2.485833e+003,-1.087257e-003
2.487762e+003,-1.061906e-003
2.489690e+003,-1.043396e-003
2.491619e+003,-1.103980e-003
2.493547e+003,-1.265597e-003
2.495476e+003,-1.358225e-003
2.497405e+003,-1.322451e-003
2.499333e+003,-1.240752e-003
2.501261e+003,-1.154577e-003
2.503190e+003,-1.091124e-003
2.505118e+003,-1.255917e-003
2.507047e+003,-1.274881e-003
2.508975e+003,-1.121133e-003
2.510904e+003,-1.181542e-003
2.512833e+003,-1.255256e-003
2.514761e+003,-1.201268e-003
2.516689e+003,-1.160988e-003
2.518618e+003,-1.228924e-003
2.520546e+003,-1.186168e-003
2.522475e+003,-1.107550e-003
2.524403e+003,-1.104278e-003
2.526332e+003,-1.111813e-003
2.528260e+003,-1.171992e-003
2.530189e+003,-1.137194e-003
2.532117e+003,-1.155733e-003
2.534046e+003,-1.250763e-003
2.535974e+003,-1.246336e-003
2.537903e+003,-1.288921e-003
2.539831e+003,-1.288855e-003
2.541760e+003,-1.302136e-003
2.543688e+003,-1.278581e-003
2.545617e+003,-1.230378e-003
2.547545e+003,-1.233748e-003
2.549474e+003,-1.210950e-003
2.551402e+003,-1.152462e-003
2.553331e+003,-1.190662e-003
2.555259e+003,-1.246237e-003
2.557188e+003,-1.252944e-003
2.559116e+003,-1.257338e-003
2.561045e+003,-1.189340e-003
2.562973e+003,-1.182169e-003
2.564902e+003,-1.167134e-003
2.566830e+003,-1.145291e-003
2.568759e+003,-1.241942e-003
2.570687e+003,-1.291961e-003
2.572616e+003,-1.300781e-003
2.574544e+003,-1.348283e-003
2.576473e+003,-1.417214e-003
2.578401e+003,-1.408297e-003
2.580330e+003,-1.341511e-003
2.582258e+003,-1.235896e-003
2.584187e+003,-1.321494e-003
2.586115e+003,-1.373155e-003
2.588044e+003,-1.362882e-003
2.589972e+003,-1.350958e-003
2.591901e+003,-1.243759e-003
2.593829e+003,-1.247988e-003
2.595758e+003,-1.321956e-003
2.597686e+003,-1.312905e-003
2.599615e+003,-1.226446e-003
2.601543e+003,-1.187886e-003
2.603472e+003,-1.241942e-003
2.605400e+003,-1.282777e-003
2.607329e+003,-1.256743e-003
2.609257e+003,-1.295661e-003
2.611186e+003,-1.315085e-003
2.613114e+003,-1.256347e-003
2.615043e+003,-1.290606e-003
2.616971e+003,-1.254034e-003
2.618900e+003,-1.169646e-003
2.620828e+003,-1.239497e-003
2.622757e+003,-1.390429e-003
2.624685e+003,-1.387456e-003
2.626614e+003,-1.330578e-003
2.628542e+003,-1.325160e-003
2.630471e+003,-1.272899e-003
2.632399e+003,-1.206985e-003
2.634328e+003,-1.191256e-003
2.636256e+003,-1.309139e-003
2.638185e+003,-1.344187e-003
2.640113e+003,-1.271676e-003
2.642042e+003,-1.204474e-003
2.643970e+003,-1.143077e-003
2.645899e+003,-1.126916e-003
2.647827e+003,-1.237250e-003
2.649756e+003,-1.408330e-003
2.651684e+003,-1.369323e-003
2.653613e+003,-1.219342e-003
2.655541e+003,-1.217162e-003
2.657470e+003,-1.288492e-003
2.659398e+003,-1.342172e-003
2.661327e+003,-1.381775e-003
2.663255e+003,-1.283437e-003
2.665184e+003,-1.238208e-003
2.667112e+003,-1.207513e-003
2.669041e+003,-1.246964e-003
2.670969e+003,-1.311484e-003
2.672898e+003,-1.277160e-003
2.674826e+003,-1.310493e-003
2.676755e+003,-1.272601e-003
2.678683e+003,-1.207646e-003
2.680612e+003,-1.272601e-003
2.682540e+003,-1.350859e-003
2.684469e+003,-1.315481e-003
2.686397e+003,-1.221919e-003
2.688326e+003,-1.223505e-003
2.690254e+003,-1.316671e-003
2.692183e+003,-1.341445e-003
2.694111e+003,-1.285519e-003
2.696040e+003,-1.253406e-003
2.697968e+003,-1.334905e-003
2.699897e+003,-1.380883e-003
2.701825e+003,-1.351355e-003
2.703754e+003,-1.319016e-003
2.705682e+003,-1.265994e-003
2.707611e+003,-1.292126e-003
2.709539e+003,-1.420714e-003
2.711468e+003,-1.373980e-003
2.713396e+003,-1.328034e-003
2.715325e+003,-1.312607e-003
2.717253e+003,-1.320866e-003
2.719182e+003,-1.432075e-003
2.721110e+003,-1.478737e-003
2.723039e+003,-1.417742e-003
2.724967e+003,-1.286245e-003
2.726896e+003,-1.204606e-003
2.728824e+003,-1.349042e-003
2.730753e+003,-1.467576e-003
2.732681e+003,-1.385441e-003
2.734610e+003,-1.410344e-003
2.736538e+003,-1.486266e-003
2.738467e+003,-1.495379e-003
2.740395e+003,-1.483525e-003
2.742324e+003,-1.451064e-003
2.744252e+003,-1.428938e-003
2.746181e+003,-1.369026e-003
2.748109e+003,-1.284164e-003
2.750038e+003,-1.281852e-003
2.751966e+003,-1.302235e-003
2.753895e+003,-1.375797e-003
2.755823e+003,-1.343328e-003
2.757752e+003,-1.293084e-003
2.759680e+003,-1.287402e-003
2.761609e+003,-1.293612e-003
2.763537e+003,-1.241017e-003
2.765466e+003,-1.168126e-003
2.767394e+003,-1.271115e-003
2.769323e+003,-1.346664e-003
2.771251e+003,-1.389140e-003
2.773180e+003,-1.528993e-003
2.775108e+003,-1.642558e-003
2.777037e+003,-1.522059e-003
2.778965e+003,-1.393104e-003
2.780894e+003,-1.379199e-003
2.782822e+003,-1.314457e-003
2.784750e+003,-1.174933e-003
2.786679e+003,-1.240951e-003
2.788608e+003,-1.354426e-003
2.790536e+003,-1.347820e-003
2.792465e+003,-1.368960e-003
2.794393e+003,-1.377746e-003
2.796322e+003,-1.389140e-003
2.798250e+003,-1.321163e-003
2.800178e+003,-1.259023e-003
2.802107e+003,-1.265168e-003
2.804036e+003,-1.366846e-003
2.805964e+003,-1.469854e-003
2.807893e+003,-1.537016e-003
2.809821e+003,-1.464603e-003
2.811750e+003,-1.314821e-003
2.813678e+003,-1.344451e-003
2.815606e+003,-1.421309e-003
2.817535e+003,-1.479397e-003
2.819464e+003,-1.479827e-003
2.821392e+003,-1.483228e-003
2.823321e+003,-1.426031e-003
2.825249e+003,-1.404069e-003
2.827177e+003,-1.385838e-003
2.829106e+003,-1.372164e-003
2.831034e+003,-1.298502e-003
2.832963e+003,-1.310791e-003
2.834892e+003,-1.325391e-003
2.836820e+003,-1.421507e-003
2.838749e+003,-1.448323e-003
2.840677e+003,-1.395086e-003
2.842605e+003,-1.367209e-003
2.844534e+003,-1.440298e-003
2.846462e+003,-1.437954e-003
2.848391e+003,-1.393170e-003
2.850320e+003,-1.362519e-003
2.852248e+003,-1.424744e-003
2.854177e+003,-1.522752e-003
2.856105e+003,-1.529290e-003
2.858033e+003,-1.449842e-003
2.859962e+003,-1.456480e-003
2.861890e+003,-1.404895e-003
2.863819e+003,-1.469425e-003
2.865748e+003,-1.590731e-003
2.867676e+003,-1.564881e-003
2.869604e+003,-1.373980e-003
2.871533e+003,-1.343989e-003
2.873461e+003,-1.475930e-003
2.875390e+003,-1.600899e-003
2.877319e+003,-1.603771e-003
2.879247e+003,-1.525361e-003
2.881176e+003,-1.461532e-003
2.883104e+003,-1.344880e-003
2.885032e+003,-1.365756e-003
2.886961e+003,-1.486200e-003
2.888889e+003,-1.398851e-003
2.890818e+003,-1.374905e-003
2.892747e+003,-1.358687e-003
2.894675e+003,-1.375070e-003
2.896604e+003,-1.432868e-003
2.898532e+003,-1.498384e-003
2.900460e+003,-1.475270e-003
2.902389e+003,-1.418006e-003
2.904317e+003,-1.453640e-003
2.906246e+003,-1.439241e-003
2.908175e+003,-1.419393e-003
2.910103e+003,-1.444558e-003
2.912031e+003,-1.535332e-003
2.913960e+003,-1.496271e-003
2.915888e+003,-1.447002e-003
2.917817e+003,-1.480784e-003
2.919745e+003,-1.399676e-003
2.921674e+003,-1.406018e-003
2.923603e+003,-1.489304e-003
2.925531e+003,-1.599347e-003
2.927459e+003,-1.527639e-003
2.929388e+003,-1.455753e-003
2.931316e+003,-1.509281e-003
2.933245e+003,-1.551477e-003
2.935173e+003,-1.543487e-003
2.937102e+003,-1.446077e-003
2.939031e+003,-1.443898e-003
2.940959e+003,-1.539954e-003
2.942887e+003,-1.561877e-003
2.944816e+003,-1.503238e-003
2.946744e+003,-1.387093e-003
2.948673e+003,-1.384186e-003
2.950601e+003,-1.431448e-003
2.952530e+003,-1.427650e-003
2.954458e+003,-1.395614e-003
2.956387e+003,-1.465660e-003
2.958315e+003,-1.559830e-003
2.960244e+003,-1.515455e-003
2.962172e+003,-1.377118e-003
2.964101e+003,-1.405027e-003
2.966029e+003,-1.492308e-003
2.967958e+003,-1.390131e-003
2.969886e+003,-1.236788e-003
2.971815e+003,-1.314722e-003
2.973743e+003,-1.357498e-003
2.975672e+003,-1.481676e-003
2.977600e+003,-1.450305e-003
2.979529e+003,-1.278350e-003
2.981457e+003,-1.213692e-003
2.983386e+003,-1.301144e-003
2.985314e+003,-1.394293e-003
2.987243e+003,-1.376028e-003
2.989171e+003,-1.228891e-003
2.991100e+003,-1.311715e-003
2.993028e+003,-1.469491e-003
2.994957e+003,-1.415992e-003
2.996885e+003,-1.336490e-003
2.998814e+003,-1.340983e-003
3.000742e+003,-1.316274e-003
3.002671e+003,-1.391320e-003
3.004599e+003,-1.437359e-003
3.006528e+003,-1.361132e-003
3.008456e+003,-1.387093e-003
3.010385e+003,-1.499309e-003
3.012313e+003,-1.575512e-003
3.014242e+003,-1.494158e-003
3.016170e+003,-1.355120e-003
3.018099e+003,-1.358588e-003
3.020027e+003,-1.431051e-003
3.021956e+003,-1.399412e-003
3.023884e+003,-1.323442e-003
3.025813e+003,-1.395185e-003
3.027741e+003,-1.404168e-003
3.029670e+003,-1.295925e-003
3.031598e+003,-1.321857e-003
3.033527e+003,-1.421705e-003
3.035455e+003,-1.486101e-003
3.037384e+003,-1.415727e-003
3.039312e+003,-1.330148e-003
3.041241e+003,-1.335565e-003
3.043169e+003,-1.397761e-003
3.045098e+003,-1.452814e-003
3.047026e+003,-1.501323e-003
3.048955e+003,-1.442313e-003
3.050883e+003,-1.431877e-003
3.052812e+003,-1.432075e-003
3.054740e+003,-1.454267e-003
3.056669e+003,-1.489039e-003
3.058597e+003,-1.361528e-003
3.060526e+003,-1.376953e-003
3.062454e+003,-1.440992e-003
3.064383e+003,-1.390032e-003
3.066311e+003,-1.436302e-003
3.068240e+003,-1.471505e-003
3.070168e+003,-1.475171e-003
3.072097e+003,-1.366218e-003
3.074025e+003,-1.297378e-003
3.075954e+003,-1.443997e-003
3.077882e+003,-1.433066e-003
3.079811e+003,-1.302598e-003
3.081739e+003,-1.249541e-003
3.083668e+003,-1.321130e-003
3.085596e+003,-1.484351e-003
3.087525e+003,-1.460311e-003
3.089453e+003,-1.331602e-003
3.091382e+003,-1.392245e-003
3.093310e+003,-1.472793e-003
3.095239e+003,-1.560919e-003
3.097167e+003,-1.564881e-003
3.099096e+003,-1.428773e-003
3.101024e+003,-1.374707e-003
3.102953e+003,-1.404003e-003
3.104881e+003,-1.450106e-003
3.106810e+003,-1.419426e-003
3.108738e+003,-1.415826e-003
3.110667e+003,-1.459749e-003
3.112595e+003,-1.476524e-003
3.114524e+003,-1.515719e-003
3.116452e+003,-1.518196e-003
3.118381e+003,-1.529191e-003
3.120309e+003,-1.467576e-003
3.122238e+003,-1.377382e-003
3.124166e+003,-1.311583e-003
3.126095e+003,-1.364104e-003
3.128023e+003,-1.385937e-003
3.129952e+003,-1.417874e-003
3.131880e+003,-1.478209e-003
3.133809e+003,-1.613113e-003
3.135737e+003,-1.601856e-003
3.137666e+003,-1.548010e-003
3.139594e+003,-1.508488e-003
3.141523e+003,-1.495346e-003
3.143451e+003,-1.349472e-003
3.145380e+003,-1.294868e-003
3.147308e+003,-1.395020e-003
3.149237e+003,-1.458692e-003
3.151165e+003,-1.395284e-003
3.153094e+003,-1.449974e-003
3.155022e+003,-1.577427e-003
3.156951e+003,-1.747085e-003
3.158879e+003,-1.731673e-003
3.160808e+003,-1.584128e-003
3.162736e+003,-1.549034e-003
3.164665e+003,-1.648500e-003
3.166593e+003,-1.579375e-003
3.168522e+003,-1.491945e-003
3.170450e+003,-1.502875e-003
3.172379e+003,-1.449215e-003
3.174307e+003,-1.409056e-003
3.176236e+003,-1.359018e-003
3.178164e+003,-1.333550e-003
3.180093e+003,-1.465363e-003
3.182021e+003,-1.614335e-003
3.183950e+003,-1.748735e-003
3.185878e+003,-1.717383e-003
3.187807e+003,-1.577988e-003
3.189735e+003,-1.552038e-003
3.191664e+003,-1.583303e-003
3.193592e+003,-1.592646e-003
3.195521e+003,-1.590269e-003
3.197449e+003,-1.547812e-003
3.199378e+003,-1.488379e-003
3.201306e+003,-1.433726e-003
3.203235e+003,-1.483921e-003
3.205163e+003,-1.608723e-003
3.207092e+003,-1.617603e-003
3.209020e+003,-1.469854e-003
3.210948e+003,-1.488412e-003
3.212877e+003,-1.587727e-003
3.214806e+003,-1.455852e-003
3.216734e+003,-1.353997e-003
3.218663e+003,-1.493827e-003
3.220591e+003,-1.502974e-003
3.222520e+003,-1.447134e-003
3.224448e+003,-1.458362e-003
3.226376e+003,-1.539492e-003
3.228305e+003,-1.506111e-003
3.230234e+003,-1.375103e-003
3.232162e+003,-1.319115e-003
3.234091e+003,-1.259849e-003
3.236019e+003,-1.321229e-003
3.237948e+003,-1.476194e-003
3.239876e+003,-1.526516e-003
3.241804e+003,-1.514332e-003
3.243733e+003,-1.638762e-003
3.245662e+003,-1.671176e-003
3.247590e+003,-1.509049e-003
3.249519e+003,-1.467774e-003
3.251447e+003,-1.522059e-003
3.253375e+003,-1.575776e-003
3.255304e+003,-1.549628e-003
3.257232e+003,-1.491582e-003
3.259161e+003,-1.527012e-003
3.261090e+003,-1.598093e-003
3.263018e+003,-1.640512e-003
3.264947e+003,-1.619253e-003
3.266875e+003,-1.550916e-003
3.268803e+003,-1.581686e-003
3.270732e+003,-1.530313e-003
3.272660e+003,-1.502413e-003
3.274589e+003,-1.584492e-003
3.276518e+003,-1.499639e-003
3.278446e+003,-1.415364e-003
3.280375e+003,-1.496568e-003
3.282303e+003,-1.547977e-003
3.284231e+003,-1.520969e-003
3.286160e+003,-1.452451e-003
3.288088e+003,-1.574587e-003
3.290017e+003,-1.649424e-003
3.291946e+003,-1.697482e-003
3.293874e+003,-1.592316e-003
3.295802e+003,-1.437227e-003
3.297731e+003,-1.491384e-003
3.299659e+003,-1.621993e-003
3.301588e+003,-1.541572e-003
3.303516e+003,-1.554217e-003
3.305445e+003,-1.620904e-003
3.307374e+003,-1.557354e-003
3.309302e+003,-1.623116e-003
3.311230e+003,-1.694907e-003
3.313159e+003,-1.699000e-003
3.315087e+003,-1.653616e-003
3.317016e+003,-1.595848e-003
3.318944e+003,-1.695567e-003
3.320873e+003,-1.686854e-003
3.322802e+003,-1.593570e-003
3.324730e+003,-1.573861e-003
3.326658e+003,-1.610109e-003
3.328587e+003,-1.588882e-003
3.330515e+003,-1.552500e-003
3.332444e+003,-1.542331e-003
3.334372e+003,-1.507399e-003
3.336301e+003,-1.497460e-003
3.338229e+003,-1.495908e-003
3.340158e+003,-1.566169e-003
3.342086e+003,-1.619980e-003
3.344015e+003,-1.679857e-003
3.345943e+003,-1.554349e-003
3.347872e+003,-1.409948e-003
3.349800e+003,-1.435576e-003
3.351729e+003,-1.514233e-003
3.353657e+003,-1.530115e-003
3.355586e+003,-1.596673e-003
3.357514e+003,-1.700287e-003
3.359443e+003,-1.571550e-003
3.361371e+003,-1.382898e-003
3.363300e+003,-1.417577e-003
3.365229e+003,-1.426098e-003
3.367157e+003,-1.381082e-003
3.369085e+003,-1.424843e-003
3.371014e+003,-1.431250e-003
3.372942e+003,-1.608690e-003
3.374871e+003,-1.751012e-003
3.376799e+003,-1.570032e-003
3.378728e+003,-1.368233e-003
3.380656e+003,-1.510766e-003
3.382585e+003,-1.798003e-003
3.384513e+003,-1.737053e-003
3.386442e+003,-1.665103e-003
3.388370e+003,-1.657478e-003
3.390299e+003,-1.642624e-003
3.392227e+003,-1.579341e-003
3.394156e+003,-1.483888e-003
3.396084e+003,-1.586803e-003
3.398013e+003,-1.654078e-003
3.399941e+003,-1.636419e-003
3.401870e+003,-1.750022e-003
3.403798e+003,-1.803414e-003
3.405727e+003,-1.794802e-003
3.407655e+003,-1.808298e-003
3.409584e+003,-1.684445e-003
3.411512e+003,-1.517899e-003
3.413441e+003,-1.515290e-003
3.415369e+003,-1.684280e-003
3.417298e+003,-1.609185e-003
3.419226e+003,-1.642657e-003
3.421155e+003,-1.713423e-003
3.423083e+003,-1.537016e-003
3.425012e+003,-1.541935e-003
3.426940e+003,-1.705799e-003
3.428869e+003,-1.671539e-003
3.430797e+003,-1.560556e-003
3.432726e+003,-1.563065e-003
3.434654e+003,-1.651537e-003
3.436583e+003,-1.631995e-003
3.438511e+003,-1.594759e-003
3.440440e+003,-1.672331e-003
3.442368e+003,-1.739264e-003
3.444297e+003,-1.790512e-003
3.446225e+003,-1.776191e-003
3.448154e+003,-1.685930e-003
3.450082e+003,-1.666852e-003
3.452011e+003,-1.789258e-003
3.453939e+003,-1.678767e-003
3.455868e+003,-1.502248e-003
3.457796e+003,-1.587463e-003
3.459725e+003,-1.641337e-003
3.461653e+003,-1.636485e-003
3.463582e+003,-1.658303e-003
3.465510e+003,-1.678669e-003
3.467439e+003,-1.606676e-003
3.469367e+003,-1.508488e-003
3.471296e+003,-1.649589e-003
3.473224e+003,-1.697284e-003
3.475153e+003,-1.586637e-003
3.477081e+003,-1.658435e-003
3.479010e+003,-1.750748e-003
3.480938e+003,-1.812488e-003
3.482867e+003,-1.695567e-003
3.484795e+003,-1.544213e-003
3.486724e+003,-1.483063e-003
3.488652e+003,-1.496205e-003
3.490581e+003,-1.541836e-003
3.492509e+003,-1.600074e-003
3.494438e+003,-1.677909e-003
3.496366e+003,-1.869534e-003
3.498295e+003,-1.724314e-003
3.500223e+003,-1.612651e-003
3.502152e+003,-1.741673e-003
3.504080e+003,-1.583567e-003
3.506009e+003,-1.345211e-003
3.507937e+003,-1.433165e-003
3.509866e+003,-1.491219e-003
3.511794e+003,-1.414737e-003
3.513723e+003,-1.490591e-003
3.515651e+003,-1.686161e-003
3.517580e+003,-1.569536e-003
3.519508e+003,-1.541572e-003
3.521437e+003,-1.741310e-003
3.523365e+003,-1.692531e-003
3.525294e+003,-1.553326e-003
3.527222e+003,-1.742663e-003
3.529151e+003,-1.886822e-003
3.531079e+003,-1.659987e-003
3.533008e+003,-1.464339e-003
3.534936e+003,-1.583864e-003
3.536865e+003,-1.495478e-003
3.538793e+003,-1.512946e-003
3.540722e+003,-1.761704e-003
3.542650e+003,-1.715271e-003
3.544579e+003,-1.768073e-003
3.546507e+003,-1.986342e-003
3.548436e+003,-1.713159e-003
3.550364e+003,-1.453343e-003
3.552293e+003,-1.550487e-003
3.554221e+003,-1.694082e-003
3.556150e+003,-1.555076e-003
3.558078e+003,-1.577427e-003
3.560007e+003,-1.647576e-003
3.561935e+003,-1.630444e-003
3.563864e+003,-1.703785e-003
3.565792e+003,-2.049401e-003
3.567721e+003,-2.057250e-003
3.569649e+003,-1.758899e-003
3.571578e+003,-1.597268e-003
3.573506e+003,-1.558707e-003
3.575435e+003,-1.585779e-003
3.577363e+003,-1.744940e-003
3.579292e+003,-1.799685e-003
3.581220e+003,-1.638960e-003
3.583149e+003,-1.613113e-003
3.585077e+003,-1.899490e-003
3.587006e+003,-2.188579e-003
3.588934e+003,-2.045773e-003
3.590863e+003,-1.767017e-003
3.592791e+003,-1.822222e-003
3.594720e+003,-1.987101e-003
3.596648e+003,-2.038090e-003
3.598577e+003,-1.879663e-003
3.600505e+003,-1.721674e-003
3.602434e+003,-1.685270e-003
3.604362e+003,-1.719033e-003
3.606291e+003,-2.058107e-003
3.608219e+003,-2.125013e-003
3.610148e+003,-1.708934e-003
3.612076e+003,-1.773485e-003
3.614005e+003,-1.897181e-003
3.615933e+003,-1.846704e-003
3.617862e+003,-2.114396e-003
3.619790e+003,-2.183997e-003
3.621719e+003,-2.056458e-003
3.623647e+003,-2.076574e-003
3.625576e+003,-2.220919e-003
3.627504e+003,-2.894597e-003
3.629433e+003,-2.874980e-003
3.631361e+003,-2.058635e-003
3.633290e+003,-1.856767e-003
3.635218e+003,-1.669328e-003
3.637146e+003,-1.463712e-003
3.639075e+003,-1.544709e-003
3.641004e+003,-1.630345e-003
3.642932e+003,-1.727878e-003
3.644861e+003,-2.022457e-003
3.646789e+003,-2.711162e-003
3.648718e+003,-3.075257e-003
3.650646e+003,-2.641086e-003
3.652574e+003,-2.054678e-003
3.654503e+003,-1.944485e-003
3.656432e+003,-1.631566e-003
3.658360e+003,-1.255554e-003
3.660289e+003,-1.508752e-003
3.662217e+003,-1.712862e-003
3.664146e+003,-1.735238e-003
3.666074e+003,-1.900216e-003
3.668002e+003,-2.344454e-003
3.669931e+003,-2.571196e-003
3.671860e+003,-2.274385e-003
3.673788e+003,-2.610819e-003
3.675717e+003,-2.800914e-003
3.677645e+003,-1.987695e-003
3.679573e+003,-1.729627e-003
3.681502e+003,-1.739066e-003
3.683430e+003,-1.813511e-003
3.685359e+003,-1.898830e-003
3.687288e+003,-2.513089e-003
3.689216e+003,-2.781424e-003
3.691145e+003,-2.420872e-003
3.693073e+003,-2.026316e-003
3.695001e+003,-1.798762e-003
3.696930e+003,-1.767116e-003
3.698858e+003,-1.804899e-003
3.700787e+003,-2.143906e-003
3.702716e+003,-1.985716e-003
3.704644e+003,-1.788400e-003
3.706573e+003,-1.937162e-003
3.708501e+003,-2.377211e-003
3.710429e+003,-2.846046e-003
3.712358e+003,-2.783531e-003
3.714286e+003,-2.113605e-003
3.716215e+003,-1.733422e-003
3.718144e+003,-1.691904e-003
3.720072e+003,-1.782329e-003
3.722000e+003,-1.884150e-003
3.723929e+003,-2.000294e-003
3.725857e+003,-2.129365e-003
3.727786e+003,-1.924594e-003
3.729714e+003,-1.931621e-003
3.731643e+003,-2.418368e-003
3.733572e+003,-2.609831e-003
3.735500e+003,-2.687783e-003
3.737428e+003,-2.355857e-003
3.739357e+003,-2.234632e-003
3.741285e+003,-2.540496e-003
3.743214e+003,-3.600586e-003
3.745142e+003,-3.335255e-003
3.747071e+003,-2.583778e-003
3.749000e+003,-3.189274e-003
3.750928e+003,-3.232294e-003
3.752856e+003,-2.767498e-003
3.754785e+003,-2.026745e-003
3.756713e+003,-1.921922e-003
3.758642e+003,-2.066516e-003
3.760570e+003,-1.924198e-003
3.762499e+003,-1.837366e-003
3.764427e+003,-2.066846e-003
3.766356e+003,-1.960318e-003
3.768284e+003,-2.126497e-003
3.770213e+003,-2.158017e-003
3.772141e+003,-1.644374e-003
3.774070e+003,-1.546987e-003
3.775998e+003,-1.765235e-003
3.777927e+003,-2.095271e-003
3.779855e+003,-2.085543e-003
3.781784e+003,-1.570098e-003
3.783712e+003,-1.692960e-003
3.785641e+003,-1.909915e-003
3.787569e+003,-1.769228e-003
3.789498e+003,-1.707548e-003
3.791426e+003,-1.621267e-003
3.793355e+003,-1.683520e-003
3.795283e+003,-1.865312e-003
3.797212e+003,-1.958372e-003
3.799140e+003,-2.099855e-003
3.801069e+003,-2.431910e-003
3.802997e+003,-2.173743e-003
3.804926e+003,-2.109087e-003
3.806854e+003,-2.447033e-003
3.808783e+003,-1.993763e-003
3.810711e+003,-1.516380e-003
3.812640e+003,-1.586538e-003
3.814568e+003,-2.472666e-003
3.816497e+003,-2.771547e-003
3.818425e+003,-2.734606e-003
3.820354e+003,-3.270673e-003
3.822282e+003,-2.583383e-003
3.824211e+003,-1.880356e-003
3.826139e+003,-1.952468e-003
3.828068e+003,-2.033538e-003
3.829996e+003,-2.324549e-003
3.831925e+003,-2.386965e-003
3.833853e+003,-2.367687e-003
3.835782e+003,-2.598369e-003
3.837710e+003,-2.951238e-003
3.839639e+003,-2.804173e-003
3.841567e+003,-2.630481e-003
3.843496e+003,-2.333052e-003
3.845424e+003,-1.966453e-003
3.847353e+003,-1.817569e-003
3.849281e+003,-2.244521e-003
3.851210e+003,-3.154572e-003
3.853138e+003,-4.086321e-003
3.855067e+003,-3.077823e-003
3.856995e+003,-2.011376e-003
3.858924e+003,-1.890847e-003
3.860852e+003,-2.178788e-003
3.862781e+003,-2.370126e-003
3.864709e+003,-2.520797e-003
3.866638e+003,-2.372927e-003
3.868566e+003,-2.687684e-003
3.870495e+003,-2.626661e-003
3.872423e+003,-2.344454e-003
3.874352e+003,-2.259124e-003
3.876280e+003,-1.793713e-003
3.878209e+003,-2.000096e-003
3.880137e+003,-2.294095e-003
3.882066e+003,-2.199689e-003
3.883994e+003,-2.284735e-003
3.885923e+003,-2.255465e-003
3.887851e+003,-1.909123e-003
3.889780e+003,-2.044421e-003
3.891708e+003,-2.185216e-003
3.893637e+003,-2.165798e-003
3.895565e+003,-2.205722e-003
3.897494e+003,-2.379847e-003
3.899422e+003,-2.599753e-003
3.901351e+003,-2.674018e-003
3.903279e+003,-2.632589e-003
3.905208e+003,-2.082081e-003
3.907136e+003,-1.606610e-003
3.909065e+003,-1.601625e-003
3.910993e+003,-1.924198e-003
3.912922e+003,-2.133355e-003
3.914850e+003,-2.263046e-003
3.916779e+003,-2.340236e-003
3.918707e+003,-1.972885e-003
3.920636e+003,-1.716789e-003
3.922564e+003,-1.951709e-003
3.924493e+003,-2.207733e-003
3.926421e+003,-2.006198e-003
3.928350e+003,-1.877584e-003
3.930278e+003,-2.146478e-003
3.932207e+003,-2.194612e-003
3.934135e+003,-1.871646e-003
3.936064e+003,-1.760417e-003
3.937992e+003,-1.801797e-003
3.939921e+003,-1.954381e-003
3.941849e+003,-2.109483e-003
3.943778e+003,-2.086302e-003
3.945706e+003,-2.031494e-003
3.947635e+003,-2.069979e-003
3.949563e+003,-2.159567e-003
3.951492e+003,-2.290239e-003
3.953420e+003,-2.213798e-003
3.955349e+003,-2.257080e-003
3.957277e+003,-2.426276e-003
3.959206e+003,-2.210930e-003
3.961134e+003,-1.960318e-003
3.963063e+003,-1.959428e-003
3.964991e+003,-2.040200e-003
3.966920e+003,-1.971896e-003
3.968848e+003,-1.841590e-003
3.970777e+003,-1.927365e-003
3.972705e+003,-1.940164e-003
3.974634e+003,-2.125475e-003
3.976562e+003,-2.106087e-003
3.978491e+003,-1.793713e-003
3.980419e+003,-1.916974e-003
3.982348e+003,-2.347651e-003
3.984276e+003,-2.326790e-003
3.986205e+003,-2.094084e-003
3.988133e+003,-1.988981e-003
3.990062e+003,-2.147302e-003
3.991990e+003,-2.390821e-003
3.993919e+003,-2.377310e-003
3.995847e+003,-2.123134e-003
3.997776e+003,-1.984759e-003
3.999704e+003,-2.128343e-003
4.001633e+003,0.000000e+000
