3.991989e+002,3.617530e-002
4.011274e+002,3.424735e-002
4.030559e+002,2.116928e-002
4.049844e+002,8.169885e-003
4.069129e+002,7.582801e-003
4.088414e+002,1.782908e-002
4.107699e+002,2.364349e-002
4.126984e+002,1.866028e-002
4.146269e+002,1.313991e-002
4.165554e+002,1.682677e-002
4.184839e+002,2.251970e-002
4.204124e+002,1.895106e-002
4.223409e+002,1.799012e-002
4.242694e+002,2.194752e-002
4.261979e+002,2.131031e-002
4.281264e+002,1.861507e-002
4.300549e+002,1.807965e-002
4.319834e+002,1.240173e-002
4.339119e+002,1.139294e-002
4.358404e+002,1.430869e-002
4.377689e+002,2.076828e-002
4.396974e+002,2.175525e-002
4.416259e+002,1.519047e-002
4.435544e+002,1.540512e-002
4.454829e+002,2.061301e-002
4.474114e+002,2.463261e-002
4.493399e+002,2.177012e-002
4.512684e+002,1.559329e-002
4.531969e+002,1.648561e-002
4.551254e+002,2.029917e-002
4.570539e+002,1.968792e-002
4.589824e+002,1.644971e-002
4.609109e+002,1.661079e-002
4.628394e+002,1.850075e-002
4.647679e+002,1.700246e-002
4.666964e+002,1.517578e-002
4.686249e+002,1.243760e-002
4.705533e+002,1.059857e-002
4.724819e+002,1.556537e-002
4.744103e+002,2.107988e-002
4.763389e+002,2.038181e-002
4.782673e+002,1.457597e-002
4.801959e+002,1.217707e-002
4.821243e+002,1.924370e-002
4.840529e+002,2.509694e-002
4.859813e+002,2.079880e-002
4.879099e+002,1.688429e-002
4.898383e+002,1.778310e-002
4.917668e+002,1.830859e-002
4.936953e+002,2.068536e-002
4.956238e+002,2.087858e-002
4.975523e+002,1.716875e-002
4.994808e+002,1.689873e-002
5.014093e+002,1.773526e-002
5.033378e+002,1.739424e-002
5.052663e+002,1.639589e-002
5.071948e+002,1.799768e-002
5.091233e+002,1.760005e-002
5.110518e+002,1.566662e-002
5.129803e+002,1.555884e-002
5.149088e+002,1.512572e-002
5.168373e+002,1.536461e-002
5.187658e+002,1.631738e-002
5.206943e+002,1.642380e-002
5.226228e+002,1.596242e-002
5.245513e+002,1.623816e-002
5.264798e+002,1.669298e-002
5.284083e+002,1.778199e-002
5.303368e+002,1.642882e-002
5.322653e+002,1.487929e-002
5.341938e+002,1.456521e-002
5.361223e+002,1.495425e-002
5.380508e+002,1.507917e-002
5.399792e+002,1.632915e-002
5.419078e+002,1.641695e-002
5.438363e+002,1.631377e-002
5.457648e+002,1.778876e-002
5.476932e+002,1.823429e-002
5.496218e+002,1.766147e-002
5.515503e+002,1.769940e-002
5.534788e+002,1.778676e-002
5.554072e+002,1.877399e-002
5.573358e+002,1.883430e-002
5.592643e+002,1.864126e-002
5.611927e+002,1.793169e-002
5.631212e+002,1.816318e-002
5.650497e+002,1.872420e-002
5.669783e+002,1.923490e-002
5.689067e+002,2.009247e-002
5.708352e+002,1.918264e-002
5.727637e+002,1.722204e-002
5.746923e+002,1.661895e-002
5.766207e+002,1.835307e-002
5.785492e+002,1.749120e-002
5.804777e+002,6.576283e-003
5.824063e+002,6.385790e-003
5.843347e+002,1.659709e-002
5.862632e+002,1.994310e-002
5.881917e+002,1.977044e-002
5.901202e+002,1.832403e-002
5.920487e+002,1.772935e-002
5.939772e+002,1.864572e-002
5.959057e+002,2.045888e-002
5.978342e+002,2.120947e-002
5.997627e+002,2.329012e-002
6.016912e+002,2.367565e-002
6.036197e+002,2.439926e-002
6.055482e+002,2.562057e-002
6.074767e+002,2.653840e-002
6.094052e+002,2.766919e-002
6.113337e+002,2.910228e-002
6.132622e+002,2.823730e-002
6.151907e+002,2.799677e-002
6.171192e+002,2.790773e-002
6.190477e+002,2.820159e-002
6.209762e+002,2.796108e-002
6.229047e+002,2.544824e-002
6.248332e+002,2.102284e-002
6.267617e+002,1.889700e-002
6.286902e+002,1.697820e-002
6.306187e+002,1.525739e-002
6.325472e+002,1.445195e-002
6.344756e+002,1.475785e-002
6.364042e+002,1.444510e-002
6.383326e+002,1.412216e-002
6.402612e+002,1.347366e-002
6.421896e+002,1.369283e-002
6.441182e+002,1.380238e-002
6.460466e+002,1.377282e-002
6.479752e+002,1.336338e-002
6.499036e+002,1.285862e-002
6.518322e+002,1.228763e-002
6.537606e+002,1.261927e-002
6.556891e+002,1.271090e-002
6.576177e+002,1.237111e-002
6.595461e+002,1.221238e-002
6.614746e+002,1.134246e-002
6.634031e+002,1.105037e-002
6.653317e+002,1.162923e-002
6.672601e+002,1.242402e-002
6.691886e+002,1.247094e-002
6.711171e+002,1.256036e-002
6.730457e+002,1.295122e-002
6.749741e+002,1.233716e-002
6.769026e+002,1.177250e-002
6.788311e+002,1.189297e-002
6.807596e+002,1.223920e-002
6.826881e+002,1.213083e-002
6.846166e+002,1.274290e-002
6.865451e+002,1.338266e-002
6.884736e+002,1.332696e-002
6.904021e+002,1.328087e-002
6.923306e+002,1.328842e-002
6.942591e+002,1.339397e-002
6.961876e+002,1.384879e-002
6.981161e+002,1.395307e-002
7.000446e+002,1.384842e-002
7.019731e+002,1.336021e-002
7.039016e+002,1.355112e-002
7.058301e+002,1.406661e-002
7.077585e+002,1.434005e-002
7.096871e+002,1.413267e-002
7.116156e+002,1.456768e-002
7.135441e+002,1.479368e-002
7.154725e+002,1.493758e-002
7.174011e+002,1.505729e-002
7.193296e+002,1.566659e-002
7.212581e+002,1.633675e-002
7.231865e+002,1.674990e-002
7.251151e+002,1.672162e-002
7.270436e+002,1.691622e-002
7.289720e+002,1.740990e-002
7.309005e+002,1.811181e-002
7.328290e+002,1.835946e-002
7.347576e+002,1.856157e-002
7.366860e+002,1.818229e-002
7.386145e+002,1.786775e-002
7.405430e+002,1.839638e-002
7.424716e+002,1.884481e-002
7.444000e+002,1.854135e-002
7.463285e+002,1.845860e-002
7.482570e+002,1.821500e-002
7.501855e+002,1.807664e-002
7.521140e+002,1.882350e-002
7.540425e+002,1.919386e-002
7.559710e+002,1.948590e-002
7.578995e+002,2.041661e-002
7.598280e+002,2.020204e-002
7.617565e+002,1.965748e-002
7.636850e+002,1.964635e-002
7.656135e+002,1.992270e-002
7.675420e+002,2.002768e-002
7.694705e+002,1.984126e-002
7.713990e+002,1.969610e-002
7.733275e+002,1.959650e-002
7.752560e+002,1.912253e-002
7.771844e+002,1.901222e-002
7.791130e+002,1.884803e-002
7.810415e+002,1.859882e-002
7.829700e+002,1.818505e-002
7.848984e+002,1.811947e-002
7.868270e+002,1.832400e-002
7.887555e+002,1.846531e-002
7.906840e+002,1.802746e-002
7.926124e+002,1.742652e-002
7.945410e+002,1.684940e-002
7.964695e+002,1.653248e-002
7.983979e+002,1.644376e-002
8.003264e+002,1.620682e-002
8.022549e+002,1.605864e-002
8.041835e+002,1.639469e-002
8.061119e+002,1.653276e-002
8.080404e+002,1.646258e-002
8.099689e+002,1.647094e-002
8.118975e+002,1.699099e-002
8.138259e+002,1.763076e-002
8.157545e+002,1.758207e-002
8.176830e+002,1.768687e-002
8.196115e+002,1.789378e-002
8.215399e+002,1.767348e-002
8.234684e+002,1.787582e-002
8.253970e+002,1.811678e-002
8.273254e+002,1.834954e-002
8.292539e+002,1.806376e-002
8.311824e+002,1.784213e-002
8.331110e+002,1.787900e-002
8.350394e+002,1.782590e-002
8.369679e+002,1.797738e-002
8.388964e+002,1.820111e-002
8.408250e+002,1.809899e-002
8.427534e+002,1.781851e-002
8.446819e+002,1.774696e-002
8.466104e+002,1.773060e-002
8.485389e+002,1.749862e-002
8.504674e+002,1.733865e-002
8.523959e+002,1.740983e-002
8.543244e+002,1.755754e-002
8.562529e+002,1.751483e-002
8.581814e+002,1.773570e-002
8.601099e+002,1.771641e-002
8.620384e+002,1.737486e-002
8.639669e+002,1.752646e-002
8.658954e+002,1.771048e-002
8.678239e+002,1.742197e-002
8.697524e+002,1.761516e-002
8.716809e+002,1.774195e-002
8.736094e+002,1.787783e-002
8.755378e+002,1.778503e-002
8.774664e+002,1.781202e-002
8.793949e+002,1.787151e-002
8.813234e+002,1.776366e-002
8.832518e+002,1.778330e-002
8.851804e+002,1.800780e-002
8.871089e+002,1.802393e-002
8.890374e+002,1.770012e-002
8.909658e+002,1.763862e-002
8.928943e+002,1.817382e-002
8.948229e+002,1.840896e-002
8.967513e+002,1.835697e-002
8.986798e+002,1.821932e-002
9.006083e+002,1.822475e-002
9.025369e+002,1.811851e-002
9.044653e+002,1.808317e-002
9.063938e+002,1.802234e-002
9.083223e+002,1.778724e-002
9.102509e+002,1.751014e-002
9.121793e+002,1.769177e-002
9.141078e+002,1.729382e-002
9.160364e+002,1.673709e-002
9.179648e+002,1.654587e-002
9.198933e+002,1.634618e-002
9.218218e+002,1.611727e-002
9.237504e+002,1.613367e-002
9.256788e+002,1.597057e-002
9.276073e+002,1.567803e-002
9.295358e+002,1.526583e-002
9.314644e+002,1.485896e-002
9.333928e+002,1.479248e-002
9.353213e+002,1.498501e-002
9.372498e+002,1.485779e-002
9.391783e+002,1.447994e-002
9.411068e+002,1.471134e-002
9.430353e+002,1.494671e-002
9.449637e+002,1.487984e-002
9.468923e+002,1.477571e-002
9.488208e+002,1.480317e-002
9.507493e+002,1.484620e-002
9.526777e+002,1.474884e-002
9.546063e+002,1.474856e-002
9.565348e+002,1.487007e-002
9.584633e+002,1.485457e-002
9.603917e+002,1.476457e-002
9.623203e+002,1.486756e-002
9.642488e+002,1.479872e-002
9.661772e+002,1.480266e-002
9.681057e+002,1.467316e-002
9.700343e+002,1.429718e-002
9.719628e+002,1.430228e-002
9.738912e+002,1.429352e-002
9.758197e+002,1.407110e-002
9.777483e+002,1.397422e-002
9.796768e+002,1.368760e-002
9.816052e+002,1.328689e-002
9.835337e+002,1.320839e-002
9.854623e+002,1.311153e-002
9.873907e+002,1.278146e-002
9.893192e+002,1.257104e-002
9.912477e+002,1.240572e-002
9.931763e+002,1.222236e-002
9.951047e+002,1.208119e-002
9.970332e+002,1.179038e-002
9.989617e+002,1.172808e-002
1.000890e+003,1.186920e-002
1.002819e+003,1.186682e-002
1.004747e+003,1.186052e-002
1.006676e+003,1.190884e-002
1.008604e+003,1.203745e-002
1.010533e+003,1.206644e-002
1.012461e+003,1.208545e-002
1.014390e+003,1.215577e-002
1.016318e+003,1.250917e-002
1.018247e+003,1.269220e-002
1.020175e+003,1.260484e-002
1.022104e+003,1.264802e-002
1.024032e+003,1.301360e-002
1.025961e+003,1.342247e-002
1.027889e+003,1.337275e-002
1.029818e+003,1.366049e-002
1.031746e+003,1.412213e-002
1.033675e+003,1.439598e-002
1.035603e+003,1.480084e-002
1.037532e+003,1.500474e-002
1.039460e+003,1.498148e-002
1.041389e+003,1.514405e-002
1.043317e+003,1.537917e-002
1.045246e+003,1.529562e-002
1.047174e+003,1.535658e-002
1.049103e+003,1.560806e-002
1.051031e+003,1.547846e-002
1.052960e+003,1.537357e-002
1.054888e+003,1.543749e-002
1.056817e+003,1.547746e-002
1.058745e+003,1.532847e-002
1.060674e+003,1.532713e-002
1.062602e+003,1.538449e-002
1.064531e+003,1.534498e-002
1.066459e+003,1.524603e-002
1.068388e+003,1.511780e-002
1.070316e+003,1.530550e-002
1.072245e+003,1.561682e-002
1.074173e+003,1.553388e-002
1.076102e+003,1.521044e-002
1.078030e+003,1.526350e-002
1.079959e+003,1.523916e-002
1.081887e+003,1.509245e-002
1.083816e+003,1.541181e-002
1.085744e+003,1.562194e-002
1.087673e+003,1.540282e-002
1.089601e+003,1.546146e-002
1.091530e+003,1.586209e-002
1.093458e+003,1.604579e-002
1.095387e+003,1.601646e-002
1.097315e+003,1.603368e-002
1.099244e+003,1.612016e-002
1.101172e+003,1.639052e-002
1.103101e+003,1.643392e-002
1.105029e+003,1.665207e-002
1.106958e+003,1.665796e-002
1.108886e+003,1.683672e-002
1.110815e+003,1.681568e-002
1.112743e+003,1.652749e-002
1.114672e+003,1.642049e-002
1.116600e+003,1.672190e-002
1.118529e+003,1.703620e-002
1.120457e+003,1.700639e-002
1.122386e+003,1.702855e-002
1.124314e+003,1.708796e-002
1.126243e+003,1.683080e-002
1.128171e+003,1.645350e-002
1.130100e+003,1.657503e-002
1.132028e+003,1.663551e-002
1.133957e+003,1.640707e-002
1.135885e+003,1.623571e-002
1.137814e+003,1.591117e-002
1.139742e+003,1.527149e-002
1.141671e+003,1.494389e-002
1.143599e+003,1.470130e-002
1.145528e+003,1.431386e-002
1.147456e+003,1.390428e-002
1.149385e+003,1.352295e-002
1.151313e+003,1.333762e-002
1.153242e+003,1.317474e-002
1.155170e+003,1.311812e-002
1.157099e+003,1.312594e-002
1.159027e+003,1.294685e-002
1.160956e+003,1.257830e-002
1.162884e+003,1.254808e-002
1.164813e+003,1.255876e-002
1.166741e+003,1.255664e-002
1.168670e+003,1.253137e-002
1.170598e+003,1.252738e-002
1.172526e+003,1.254818e-002
1.174455e+003,1.249758e-002
1.176384e+003,1.257922e-002
1.178312e+003,1.261701e-002
1.180240e+003,1.252203e-002
1.182169e+003,1.245130e-002
1.184098e+003,1.229366e-002
1.186026e+003,1.196115e-002
1.187954e+003,1.194266e-002
1.189883e+003,1.205728e-002
1.191812e+003,1.195693e-002
1.193740e+003,1.170806e-002
1.195668e+003,1.131862e-002
1.197597e+003,1.101408e-002
1.199526e+003,1.102522e-002
1.201454e+003,1.119141e-002
1.203382e+003,1.127523e-002
1.205311e+003,1.112539e-002
1.207240e+003,1.096388e-002
1.209168e+003,1.092185e-002
1.211096e+003,1.100276e-002
1.213025e+003,1.120916e-002
1.214953e+003,1.122218e-002
1.216882e+003,1.101629e-002
1.218810e+003,1.082339e-002
1.220739e+003,1.078355e-002
1.222667e+003,1.083494e-002
1.224596e+003,1.094431e-002
1.226524e+003,1.106924e-002
1.228453e+003,1.120154e-002
1.230381e+003,1.116255e-002
1.232310e+003,1.121752e-002
1.234238e+003,1.131706e-002
1.236167e+003,1.130053e-002
1.238095e+003,1.137365e-002
1.240024e+003,1.153643e-002
1.241952e+003,1.152316e-002
1.243881e+003,1.123973e-002
1.245809e+003,1.116353e-002
1.247738e+003,1.132352e-002
1.249666e+003,1.149618e-002
1.251595e+003,1.149880e-002
1.253523e+003,1.134532e-002
1.255452e+003,1.124347e-002
1.257380e+003,1.112675e-002
1.259309e+003,1.103715e-002
1.261237e+003,1.100453e-002
1.263166e+003,1.107563e-002
1.265094e+003,1.128727e-002
1.267023e+003,1.152670e-002
1.268951e+003,1.167215e-002
1.270880e+003,1.177581e-002
1.272808e+003,1.156274e-002
1.274737e+003,1.140290e-002
1.276665e+003,1.147155e-002
1.278594e+003,1.147727e-002
1.280522e+003,1.146713e-002
1.282451e+003,1.148802e-002
1.284379e+003,1.148176e-002
1.286308e+003,1.149731e-002
1.288236e+003,1.146900e-002
1.290165e+003,1.141845e-002
1.292093e+003,1.150489e-002
1.294022e+003,1.163509e-002
1.295950e+003,1.166242e-002
1.297879e+003,1.159714e-002
1.299807e+003,1.142855e-002
1.301736e+003,1.129090e-002
1.303664e+003,1.109055e-002
1.305593e+003,1.099018e-002
1.307521e+003,1.105571e-002
1.309450e+003,1.116476e-002
1.311378e+003,1.115235e-002
1.313307e+003,1.071963e-002
1.315235e+003,1.059646e-002
1.317164e+003,1.078171e-002
1.319092e+003,1.053267e-002
1.321021e+003,1.033433e-002
1.322949e+003,1.036253e-002
1.324878e+003,1.044157e-002
1.326806e+003,1.043844e-002
1.328735e+003,1.050779e-002
1.330663e+003,1.069409e-002
1.332592e+003,1.079377e-002
1.334520e+003,1.070798e-002
1.336449e+003,1.062695e-002
1.338377e+003,1.065059e-002
1.340306e+003,1.067483e-002
1.342234e+003,1.065334e-002
1.344163e+003,1.055603e-002
1.346091e+003,1.051665e-002
1.348020e+003,1.070543e-002
1.349948e+003,1.071902e-002
1.351877e+003,1.068668e-002
1.353805e+003,1.084136e-002
1.355734e+003,1.091400e-002
1.357662e+003,1.077845e-002
1.359591e+003,1.073871e-002
1.361519e+003,1.070546e-002
1.363448e+003,1.053495e-002
1.365376e+003,1.021429e-002
1.367305e+003,1.002807e-002
1.369233e+003,9.979274e-003
1.371162e+003,9.891979e-003
1.373090e+003,9.824698e-003
1.375019e+003,9.734724e-003
1.376947e+003,9.637416e-003
1.378876e+003,9.523028e-003
1.380804e+003,9.379922e-003
1.382733e+003,9.289058e-003
1.384661e+003,9.369054e-003
1.386590e+003,9.656219e-003
1.388518e+003,9.640974e-003
1.390447e+003,9.278091e-003
1.392375e+003,9.127656e-003
1.394304e+003,9.176757e-003
1.396232e+003,9.002406e-003
1.398161e+003,8.986237e-003
1.400089e+003,8.940235e-003
1.402018e+003,8.662297e-003
1.403946e+003,8.455345e-003
1.405875e+003,8.433183e-003
1.407803e+003,8.412845e-003
1.409732e+003,8.399874e-003
1.411660e+003,8.449974e-003
1.413589e+003,8.587839e-003
1.415517e+003,8.746979e-003
1.417446e+003,8.944801e-003
1.419374e+003,9.128570e-003
1.421303e+003,9.179769e-003
1.423231e+003,9.431220e-003
1.425160e+003,9.788401e-003
1.427088e+003,1.001955e-002
1.429017e+003,1.039928e-002
1.430945e+003,1.090303e-002
1.432874e+003,1.142256e-002
1.434802e+003,1.206535e-002
1.436731e+003,1.267258e-002
1.438659e+003,1.278542e-002
1.440588e+003,1.286500e-002
1.442516e+003,1.313963e-002
1.444445e+003,1.347284e-002
1.446373e+003,1.389751e-002
1.448302e+003,1.427140e-002
1.450230e+003,1.431755e-002
1.452159e+003,1.433242e-002
1.454087e+003,1.459585e-002
1.456016e+003,1.515478e-002
1.457944e+003,1.514909e-002
1.459873e+003,1.455891e-002
1.461801e+003,1.410899e-002
1.463730e+003,1.385813e-002
1.465658e+003,1.356414e-002
1.467587e+003,1.307564e-002
1.469515e+003,1.272669e-002
1.471444e+003,1.255146e-002
1.473372e+003,1.229319e-002
1.475301e+003,1.179671e-002
1.477229e+003,1.114470e-002
1.479158e+003,1.058658e-002
1.481086e+003,1.024462e-002
1.483015e+003,9.789791e-003
1.484943e+003,9.426343e-003
1.486872e+003,9.395294e-003
1.488800e+003,9.297657e-003
1.490729e+003,9.089895e-003
1.492657e+003,8.819604e-003
1.494586e+003,8.866777e-003
1.496514e+003,8.954204e-003
1.498443e+003,8.727370e-003
1.500371e+003,8.400954e-003
1.502300e+003,8.274632e-003
1.504228e+003,8.537080e-003
1.506157e+003,9.103835e-003
1.508085e+003,8.829580e-003
1.510014e+003,8.321542e-003
1.511942e+003,8.209558e-003
1.513871e+003,8.187679e-003
1.515799e+003,8.355994e-003
1.517728e+003,8.456798e-003
1.519656e+003,8.532519e-003
1.521585e+003,8.626739e-003
1.523513e+003,8.363324e-003
1.525442e+003,8.411832e-003
1.527370e+003,8.346199e-003
1.529299e+003,8.281689e-003
1.531227e+003,8.313403e-003
1.533156e+003,8.481361e-003
1.535084e+003,8.373830e-003
1.537013e+003,8.425244e-003
1.538941e+003,8.847366e-003
1.540870e+003,8.845067e-003
1.542798e+003,8.620115e-003
1.544727e+003,8.506094e-003
1.546655e+003,8.296144e-003
1.548584e+003,8.186835e-003
1.550512e+003,7.971875e-003
1.552441e+003,7.890821e-003
1.554369e+003,8.034988e-003
1.556298e+003,8.093924e-003
1.558226e+003,8.498188e-003
1.560155e+003,8.511400e-003
1.562083e+003,8.142031e-003
1.564012e+003,8.191359e-003
1.565940e+003,8.207601e-003
1.567869e+003,8.441359e-003
1.569797e+003,8.784406e-003
1.571726e+003,8.624711e-003
1.573654e+003,8.607339e-003
1.575583e+003,8.944497e-003
1.577511e+003,8.930697e-003
1.579440e+003,8.805977e-003
1.581368e+003,8.868298e-003
1.583297e+003,8.925996e-003
1.585225e+003,9.020979e-003
1.587154e+003,9.000512e-003
1.589082e+003,8.985188e-003
1.591010e+003,8.983700e-003
1.592939e+003,9.060933e-003
1.594868e+003,9.209348e-003
1.596796e+003,9.244073e-003
1.598724e+003,9.183018e-003
1.600653e+003,9.234529e-003
1.602582e+003,9.307338e-003
1.604510e+003,9.220246e-003
1.606438e+003,9.171004e-003
1.608367e+003,9.159126e-003
1.610296e+003,9.041480e-003
1.612224e+003,8.847062e-003
1.614152e+003,8.935127e-003
1.616081e+003,9.102650e-003
1.618010e+003,8.763544e-003
1.619938e+003,8.556883e-003
1.621866e+003,8.688122e-003
1.623795e+003,8.568846e-003
1.625724e+003,8.354913e-003
1.627652e+003,8.263351e-003
1.629580e+003,8.035596e-003
1.631509e+003,7.825029e-003
1.633438e+003,7.999785e-003
1.635366e+003,8.219486e-003
1.637294e+003,7.901449e-003
1.639223e+003,7.550973e-003
1.641151e+003,7.317997e-003
1.643080e+003,7.181747e-003
1.645008e+003,7.307213e-003
1.646937e+003,7.305798e-003
1.648865e+003,7.011023e-003
1.650794e+003,7.154798e-003
1.652722e+003,7.667104e-003
1.654651e+003,7.121351e-003
1.656579e+003,6.653392e-003
1.658508e+003,6.581565e-003
1.660436e+003,6.709786e-003
1.662365e+003,6.999642e-003
1.664293e+003,7.047392e-003
1.666222e+003,7.130580e-003
1.668150e+003,7.536374e-003
1.670079e+003,7.728992e-003
1.672007e+003,7.658571e-003
1.673936e+003,7.824489e-003
1.675864e+003,7.897332e-003
1.677793e+003,7.648421e-003
1.679721e+003,7.541263e-003
1.681650e+003,7.575316e-003
1.683578e+003,7.976701e-003
1.685507e+003,7.969816e-003
1.687435e+003,7.653648e-003
1.689364e+003,7.558694e-003
1.691292e+003,7.506505e-003
1.693221e+003,7.613486e-003
1.695149e+003,8.048590e-003
1.697078e+003,8.166374e-003
1.699006e+003,8.291214e-003
1.700935e+003,8.400617e-003
1.702863e+003,8.132443e-003
1.704792e+003,8.268688e-003
1.706720e+003,8.193318e-003
1.708649e+003,8.083662e-003
1.710577e+003,8.053620e-003
1.712506e+003,8.139938e-003
1.714434e+003,8.395550e-003
1.716363e+003,8.677204e-003
1.718291e+003,8.662601e-003
1.720220e+003,8.452306e-003
1.722148e+003,8.429636e-003
1.724077e+003,8.398353e-003
1.726005e+003,8.419940e-003
1.727934e+003,8.520117e-003
1.729862e+003,8.526233e-003
1.731791e+003,8.765303e-003
1.733719e+003,9.045032e-003
1.735648e+003,8.731427e-003
1.737576e+003,8.510319e-003
1.739505e+003,8.648946e-003
1.741433e+003,8.586183e-003
1.743362e+003,8.557796e-003
1.745290e+003,8.602405e-003
1.747219e+003,8.810475e-003
1.749147e+003,8.946221e-003
1.751076e+003,9.062625e-003
1.753004e+003,8.949570e-003
1.754933e+003,8.859439e-003
1.756861e+003,8.887237e-003
1.758790e+003,8.866405e-003
1.760718e+003,8.931238e-003
1.762647e+003,8.931576e-003
1.764575e+003,8.786028e-003
1.766504e+003,8.853385e-003
1.768432e+003,8.876991e-003
1.770361e+003,8.971320e-003
1.772289e+003,9.164304e-003
1.774218e+003,9.094428e-003
1.776146e+003,8.904790e-003
1.778075e+003,8.758000e-003
1.780003e+003,8.733117e-003
1.781932e+003,8.685655e-003
1.783860e+003,8.616059e-003
1.785789e+003,8.697317e-003
1.787717e+003,8.758203e-003
1.789646e+003,8.801649e-003
1.791574e+003,9.003591e-003
1.793503e+003,9.129247e-003
1.795431e+003,9.042765e-003
1.797360e+003,8.957553e-003
1.799288e+003,8.968377e-003
1.801217e+003,8.896369e-003
1.803145e+003,8.787280e-003
1.805074e+003,8.906143e-003
1.807002e+003,8.942231e-003
1.808931e+003,8.950078e-003
1.810859e+003,8.933977e-003
1.812788e+003,8.861705e-003
1.814716e+003,8.825826e-003
1.816645e+003,8.883822e-003
1.818573e+003,8.893020e-003
1.820502e+003,8.899074e-003
1.822430e+003,8.924203e-003
1.824359e+003,9.042697e-003
1.826287e+003,9.007311e-003
1.828216e+003,9.023245e-003
1.830144e+003,9.052137e-003
1.832073e+003,8.822242e-003
1.834001e+003,8.806958e-003
1.835930e+003,8.899785e-003
1.837858e+003,8.855347e-003
1.839787e+003,8.859642e-003
1.841715e+003,8.820483e-003
1.843644e+003,9.017866e-003
1.845572e+003,8.978356e-003
1.847501e+003,8.785048e-003
1.849429e+003,8.778117e-003
1.851358e+003,8.874048e-003
1.853286e+003,8.894982e-003
1.855215e+003,8.896943e-003
1.857143e+003,8.966652e-003
1.859072e+003,8.922748e-003
1.861000e+003,8.862144e-003
1.862929e+003,8.911825e-003
1.864857e+003,9.008394e-003
1.866786e+003,8.995743e-003
1.868714e+003,8.979539e-003
1.870643e+003,8.892446e-003
1.872571e+003,8.836883e-003
1.874500e+003,8.856159e-003
1.876428e+003,8.878208e-003
1.878357e+003,8.921430e-003
1.880285e+003,8.919502e-003
1.882214e+003,8.932016e-003
1.884142e+003,8.943922e-003
1.886071e+003,8.860961e-003
1.887999e+003,8.936751e-003
1.889928e+003,9.009747e-003
1.891856e+003,8.890721e-003
1.893785e+003,8.943279e-003
1.895713e+003,9.004943e-003
1.897642e+003,8.934418e-003
1.899570e+003,8.970372e-003
1.901499e+003,9.030620e-003
1.903427e+003,8.947406e-003
1.905356e+003,8.892344e-003
1.907284e+003,8.909389e-003
1.909213e+003,8.882300e-003
1.911141e+003,8.828768e-003
1.913070e+003,8.816527e-003
1.914998e+003,8.885445e-003
1.916927e+003,8.981197e-003
1.918855e+003,9.094766e-003
1.920784e+003,9.022467e-003
1.922712e+003,8.850376e-003
1.924641e+003,8.795192e-003
1.926569e+003,8.909761e-003
1.928498e+003,8.872898e-003
1.930426e+003,8.798810e-003
1.932355e+003,8.722502e-003
1.934283e+003,8.678353e-003
1.936212e+003,8.711447e-003
1.938140e+003,8.735923e-003
1.940069e+003,8.874149e-003
1.941997e+003,8.960022e-003
1.943926e+003,8.814228e-003
1.945854e+003,8.730852e-003
1.947783e+003,8.812504e-003
1.949711e+003,8.819942e-003
1.951640e+003,8.797626e-003
1.953568e+003,8.801954e-003
1.955497e+003,8.706005e-003
1.957425e+003,8.661993e-003
1.959354e+003,8.741535e-003
1.961282e+003,8.757324e-003
1.963211e+003,8.735551e-003
1.965139e+003,8.731055e-003
1.967068e+003,8.711718e-003
1.968996e+003,8.570333e-003
1.970925e+003,8.533195e-003
1.972853e+003,8.599735e-003
1.974782e+003,8.710534e-003
1.976710e+003,8.753537e-003
1.978639e+003,8.777677e-003
1.980567e+003,8.701306e-003
1.982496e+003,8.639820e-003
1.984424e+003,8.633905e-003
1.986353e+003,8.648878e-003
1.988281e+003,8.597674e-003
1.990210e+003,8.595139e-003
1.992138e+003,8.671694e-003
1.994067e+003,8.725781e-003
1.995995e+003,8.673655e-003
1.997924e+003,8.542284e-003
1.999852e+003,8.502615e-003
2.001781e+003,8.490045e-003
2.003709e+003,8.537453e-003
2.005638e+003,8.555125e-003
2.007566e+003,8.648608e-003
2.009495e+003,8.661283e-003
2.011423e+003,8.586858e-003
2.013352e+003,8.635595e-003
2.015280e+003,8.641544e-003
2.017208e+003,8.614640e-003
2.019137e+003,8.679030e-003
2.021066e+003,8.610550e-003
2.022994e+003,8.509609e-003
2.024922e+003,8.599668e-003
2.026851e+003,8.591827e-003
2.028780e+003,8.541811e-003
2.030708e+003,8.495856e-003
2.032636e+003,8.549921e-003
2.034565e+003,8.597674e-003
2.036494e+003,8.537756e-003
2.038422e+003,8.578748e-003
2.040350e+003,8.606968e-003
2.042279e+003,8.547151e-003
2.044208e+003,8.549212e-003
2.046136e+003,8.534816e-003
2.048064e+003,8.533296e-003
2.049993e+003,8.540190e-003
2.051921e+003,8.511365e-003
2.053850e+003,8.506567e-003
2.055778e+003,8.511771e-003
2.057707e+003,8.511906e-003
2.059635e+003,8.528599e-003
2.061564e+003,8.473016e-003
2.063492e+003,8.281115e-003
2.065421e+003,8.277333e-003
2.067349e+003,8.463116e-003
2.069278e+003,8.428487e-003
2.071206e+003,8.372242e-003
2.073135e+003,8.450346e-003
2.075063e+003,8.497545e-003
2.076992e+003,8.486362e-003
2.078920e+003,8.506162e-003
2.080849e+003,8.532620e-003
2.082777e+003,8.492477e-003
2.084706e+003,8.452406e-003
2.086634e+003,8.395786e-003
2.088563e+003,8.421460e-003
2.090491e+003,8.471259e-003
2.092420e+003,8.446629e-003
2.094348e+003,8.500587e-003
2.096277e+003,8.481159e-003
2.098205e+003,8.426392e-003
2.100134e+003,8.443015e-003
2.102062e+003,8.491667e-003
2.103991e+003,8.494538e-003
2.105919e+003,8.516333e-003
2.107848e+003,8.582972e-003
2.109776e+003,8.508156e-003
2.111705e+003,8.383490e-003
2.113633e+003,8.384977e-003
2.115562e+003,8.503188e-003
2.117490e+003,8.533431e-003
2.119419e+003,8.545495e-003
2.121347e+003,8.482375e-003
2.123276e+003,8.344408e-003
2.125204e+003,8.342247e-003
2.127133e+003,8.407441e-003
2.129061e+003,8.460684e-003
2.130990e+003,8.530964e-003
2.132918e+003,8.407474e-003
2.134847e+003,8.283446e-003
2.136775e+003,8.310396e-003
2.138704e+003,8.376498e-003
2.140632e+003,8.386936e-003
2.142561e+003,8.350151e-003
2.144489e+003,8.303136e-003
2.146418e+003,8.262271e-003
2.148346e+003,8.287802e-003
2.150275e+003,8.383422e-003
2.152203e+003,8.472002e-003
2.154132e+003,8.492815e-003
2.156060e+003,8.457441e-003
2.157989e+003,8.386091e-003
2.159917e+003,8.363561e-003
2.161846e+003,8.322049e-003
2.163774e+003,8.324211e-003
2.165703e+003,8.396901e-003
2.167631e+003,8.482307e-003
2.169560e+003,8.514441e-003
2.171488e+003,8.450481e-003
2.173417e+003,8.441257e-003
2.175345e+003,8.470111e-003
2.177274e+003,8.506770e-003
2.179202e+003,8.486869e-003
2.181131e+003,8.394807e-003
2.183059e+003,8.399874e-003
2.184988e+003,8.515690e-003
2.186916e+003,8.534276e-003
2.188845e+003,8.432913e-003
2.190773e+003,8.353529e-003
2.192702e+003,8.335154e-003
2.194630e+003,8.441156e-003
2.196559e+003,8.460110e-003
2.198487e+003,8.463589e-003
2.200416e+003,8.375653e-003
2.202344e+003,8.350421e-003
2.204273e+003,8.413454e-003
2.206201e+003,8.344240e-003
2.208130e+003,8.339983e-003
2.210058e+003,8.403252e-003
2.211987e+003,8.450110e-003
2.213915e+003,8.403049e-003
2.215844e+003,8.426967e-003
2.217772e+003,8.463589e-003
2.219701e+003,8.493120e-003
2.221629e+003,8.461799e-003
2.223558e+003,8.393320e-003
2.225486e+003,8.406090e-003
2.227415e+003,8.374167e-003
2.229343e+003,8.409197e-003
2.231272e+003,8.436865e-003
2.233200e+003,8.458521e-003
2.235129e+003,8.516570e-003
2.237057e+003,8.498087e-003
2.238986e+003,8.518090e-003
2.240914e+003,8.529511e-003
2.242843e+003,8.527112e-003
2.244771e+003,8.500148e-003
2.246700e+003,8.493288e-003
2.248628e+003,8.480145e-003
2.250557e+003,8.320326e-003
2.252485e+003,8.317759e-003
2.254414e+003,8.447913e-003
2.256342e+003,8.433554e-003
2.258271e+003,8.344375e-003
2.260199e+003,8.367310e-003
2.262128e+003,8.452947e-003
2.264056e+003,8.403049e-003
2.265985e+003,8.321474e-003
2.267913e+003,8.391631e-003
2.269842e+003,8.475854e-003
2.271770e+003,8.447204e-003
2.273699e+003,8.307627e-003
2.275627e+003,8.290707e-003
2.277556e+003,8.289964e-003
2.279484e+003,8.346469e-003
2.281413e+003,8.384605e-003
2.283341e+003,8.329040e-003
2.285270e+003,8.348158e-003
2.287198e+003,8.356230e-003
2.289127e+003,8.375620e-003
2.291055e+003,8.348056e-003
2.292984e+003,8.272639e-003
2.294912e+003,8.278954e-003
2.296841e+003,8.316611e-003
2.298769e+003,8.402947e-003
2.300698e+003,8.473218e-003
2.302626e+003,8.504912e-003
2.304555e+003,8.424703e-003
2.306483e+003,8.403657e-003
2.308412e+003,8.391091e-003
2.310340e+003,8.338261e-003
2.312269e+003,8.419872e-003
2.314197e+003,8.539717e-003
2.316125e+003,8.616397e-003
2.318054e+003,8.621737e-003
2.319983e+003,8.600242e-003
2.321911e+003,8.663480e-003
2.323840e+003,8.850782e-003
2.325768e+003,8.969730e-003
2.327697e+003,9.008969e-003
2.329625e+003,9.252535e-003
2.331553e+003,9.317426e-003
2.333482e+003,9.238150e-003
2.335411e+003,9.191344e-003
2.337339e+003,9.127453e-003
2.339268e+003,9.073688e-003
2.341196e+003,9.071489e-003
2.343125e+003,9.037319e-003
2.345053e+003,8.924609e-003
2.346981e+003,8.771659e-003
2.348910e+003,8.522922e-003
2.350839e+003,8.544886e-003
2.352767e+003,8.845338e-003
2.354696e+003,9.080150e-003
2.356624e+003,9.295591e-003
2.358552e+003,9.380735e-003
2.360481e+003,9.368716e-003
2.362409e+003,9.400000e-003
2.364338e+003,9.416049e-003
2.366267e+003,9.374167e-003
2.368195e+003,9.345829e-003
2.370124e+003,9.189177e-003
2.372052e+003,8.940810e-003
2.373980e+003,8.832555e-003
2.375909e+003,8.675277e-003
2.377838e+003,8.467205e-003
2.379766e+003,8.208106e-003
2.381695e+003,8.060674e-003
2.383623e+003,8.149493e-003
2.385552e+003,8.177347e-003
2.387480e+003,8.193723e-003
2.389408e+003,8.241503e-003
2.391337e+003,8.187611e-003
2.393266e+003,8.080252e-003
2.395194e+003,8.078531e-003
2.397123e+003,8.130687e-003
2.399051e+003,8.232858e-003
2.400979e+003,8.201286e-003
2.402908e+003,8.018550e-003
2.404836e+003,7.931447e-003
2.406765e+003,7.918556e-003
2.408694e+003,7.913630e-003
2.410622e+003,7.958544e-003
2.412551e+003,7.962055e-003
2.414479e+003,8.019091e-003
2.416407e+003,8.082346e-003
2.418336e+003,8.111714e-003
2.420264e+003,8.018821e-003
2.422193e+003,7.977882e-003
2.424122e+003,8.021994e-003
2.426050e+003,8.070903e-003
2.427979e+003,8.009978e-003
2.429907e+003,8.058751e-003
2.431835e+003,8.118061e-003
2.433764e+003,8.086228e-003
2.435692e+003,8.088524e-003
2.437621e+003,8.128831e-003
2.439550e+003,8.036034e-003
2.441478e+003,7.970120e-003
2.443406e+003,7.973765e-003
2.445335e+003,8.033098e-003
2.447263e+003,8.083831e-003
2.449192e+003,8.010012e-003
2.451121e+003,7.960671e-003
2.453049e+003,7.921425e-003
2.454978e+003,7.936273e-003
2.456906e+003,8.011463e-003
2.458834e+003,8.053789e-003
2.460763e+003,8.038262e-003
2.462691e+003,7.941672e-003
2.464620e+003,7.966137e-003
2.466549e+003,8.041975e-003
2.468477e+003,8.056692e-003
2.470406e+003,8.047746e-003
2.472334e+003,7.982337e-003
2.474262e+003,7.980481e-003
2.476191e+003,7.992529e-003
2.478119e+003,7.950716e-003
2.480048e+003,7.953618e-003
2.481977e+003,7.970593e-003
2.483905e+003,7.966408e-003
2.485833e+003,7.910728e-003
2.487762e+003,7.956858e-003
2.489690e+003,7.952403e-003
2.491619e+003,7.814268e-003
2.493547e+003,7.837580e-003
2.495476e+003,7.986151e-003
2.497405e+003,8.060979e-003
2.499333e+003,8.015817e-003
2.501261e+003,7.943258e-003
2.503190e+003,7.911875e-003
2.505118e+003,7.961076e-003
2.507047e+003,7.933741e-003
2.508975e+003,7.923787e-003
2.510904e+003,7.960569e-003
2.512833e+003,8.020373e-003
2.514761e+003,7.957769e-003
2.516689e+003,7.865211e-003
2.518618e+003,7.951086e-003
2.520546e+003,8.028474e-003
2.522475e+003,7.950581e-003
2.524403e+003,7.941807e-003
2.526332e+003,7.989087e-003
2.528260e+003,8.013758e-003
2.530189e+003,8.034853e-003
2.532117e+003,7.982539e-003
2.534046e+003,7.900436e-003
2.535974e+003,7.983113e-003
2.537903e+003,8.053046e-003
2.539831e+003,8.103984e-003
2.541760e+003,8.060371e-003
2.543688e+003,8.106584e-003
2.545617e+003,8.142605e-003
2.547545e+003,8.050447e-003
2.549474e+003,7.969040e-003
2.551402e+003,7.941874e-003
2.553331e+003,8.010518e-003
2.555259e+003,8.117724e-003
2.557188e+003,8.073029e-003
2.559116e+003,7.956149e-003
2.561045e+003,7.926553e-003
2.562973e+003,7.945552e-003
2.564902e+003,8.060405e-003
2.566830e+003,8.140478e-003
2.568759e+003,8.022736e-003
2.570687e+003,8.103073e-003
2.572616e+003,8.155975e-003
2.574544e+003,8.131836e-003
2.576473e+003,8.093519e-003
2.578401e+003,8.088929e-003
2.580330e+003,8.032287e-003
2.582258e+003,8.013724e-003
2.584187e+003,8.114585e-003
2.586115e+003,8.106887e-003
2.588044e+003,8.021487e-003
2.589972e+003,8.098954e-003
2.591901e+003,8.131464e-003
2.593829e+003,8.029621e-003
2.595758e+003,8.017875e-003
2.597686e+003,8.026618e-003
2.599615e+003,8.049063e-003
2.601543e+003,8.108035e-003
2.603472e+003,8.127311e-003
2.605400e+003,8.059425e-003
2.607329e+003,8.033536e-003
2.609257e+003,8.153712e-003
2.611186e+003,8.257712e-003
2.613114e+003,8.294456e-003
2.615043e+003,8.325359e-003
2.616971e+003,8.308336e-003
2.618900e+003,8.308573e-003
2.620828e+003,8.332823e-003
2.622757e+003,8.427406e-003
2.624685e+003,8.425751e-003
2.626614e+003,8.393895e-003
2.628542e+003,8.434027e-003
2.630471e+003,8.461055e-003
2.632399e+003,8.472172e-003
2.634328e+003,8.443420e-003
2.636256e+003,8.408657e-003
2.638185e+003,8.542859e-003
2.640113e+003,8.620520e-003
2.642042e+003,8.547252e-003
2.643970e+003,8.666015e-003
2.645899e+003,8.744240e-003
2.647827e+003,8.704890e-003
2.649756e+003,8.753334e-003
2.651684e+003,8.859709e-003
2.653613e+003,8.854197e-003
2.655541e+003,8.823932e-003
2.657470e+003,8.748466e-003
2.659398e+003,8.753436e-003
2.661327e+003,8.873067e-003
2.663255e+003,8.900494e-003
2.665184e+003,8.920279e-003
2.667112e+003,9.106847e-003
2.669041e+003,9.181022e-003
2.670969e+003,9.083466e-003
2.672898e+003,9.035458e-003
2.674826e+003,9.122580e-003
2.676755e+003,9.208366e-003
2.678683e+003,9.178381e-003
2.680612e+003,9.197740e-003
2.682540e+003,9.259135e-003
2.684469e+003,9.381548e-003
2.686397e+003,9.491700e-003
2.688326e+003,9.504061e-003
2.690254e+003,9.577119e-003
2.692183e+003,9.596495e-003
2.694111e+003,9.533594e-003
2.696040e+003,9.489025e-003
2.697968e+003,9.559404e-003
2.699897e+003,9.624002e-003
2.701825e+003,9.633284e-003
2.703754e+003,9.670957e-003
2.705682e+003,9.777760e-003
2.707611e+003,9.868489e-003
2.709539e+003,1.000545e-002
2.711468e+003,1.006421e-002
2.713396e+003,1.015639e-002
2.715325e+003,1.024764e-002
2.717253e+003,1.021450e-002
2.719182e+003,1.027896e-002
2.721110e+003,1.035964e-002
2.723039e+003,1.054401e-002
2.724967e+003,1.069439e-002
2.726896e+003,1.073280e-002
2.728824e+003,1.070068e-002
2.730753e+003,1.077750e-002
2.732681e+003,1.084863e-002
2.734610e+003,1.095919e-002
2.736538e+003,1.097890e-002
2.738467e+003,1.102549e-002
2.740395e+003,1.115194e-002
2.742324e+003,1.121321e-002
2.744252e+003,1.134971e-002
2.746181e+003,1.152939e-002
2.748109e+003,1.158955e-002
2.750038e+003,1.164240e-002
2.751966e+003,1.174255e-002
2.753895e+003,1.181145e-002
2.755823e+003,1.192839e-002
2.757752e+003,1.205465e-002
2.759680e+003,1.222512e-002
2.761609e+003,1.246003e-002
2.763537e+003,1.278695e-002
2.765466e+003,1.306645e-002
2.767394e+003,1.326106e-002
2.769323e+003,1.354972e-002
2.771251e+003,1.403085e-002
2.773180e+003,1.448590e-002
2.775108e+003,1.493175e-002
2.777037e+003,1.549573e-002
2.778965e+003,1.609595e-002
2.780894e+003,1.680672e-002
2.782822e+003,1.756368e-002
2.784750e+003,1.824040e-002
2.786679e+003,1.896110e-002
2.788608e+003,1.963369e-002
2.790536e+003,2.032487e-002
2.792465e+003,2.112131e-002
2.794393e+003,2.197052e-002
2.796322e+003,2.277851e-002
2.798250e+003,2.355264e-002
2.800178e+003,2.416782e-002
2.802107e+003,2.474747e-002
2.804036e+003,2.526832e-002
2.805964e+003,2.567874e-002
2.807893e+003,2.604304e-002
2.809821e+003,2.627660e-002
2.811750e+003,2.629578e-002
2.813678e+003,2.609465e-002
2.815606e+003,2.590683e-002
2.817535e+003,2.564229e-002
2.819464e+003,2.539614e-002
2.821392e+003,2.510077e-002
2.823321e+003,2.453159e-002
2.825249e+003,2.390861e-002
2.827177e+003,2.330015e-002
2.829106e+003,2.264971e-002
2.831034e+003,2.188238e-002
2.832963e+003,2.131344e-002
2.834892e+003,2.091706e-002
2.836820e+003,2.029664e-002
2.838749e+003,1.956464e-002
2.840677e+003,1.889254e-002
2.842605e+003,1.829960e-002
2.844534e+003,1.766823e-002
2.846462e+003,1.691399e-002
2.848391e+003,1.622223e-002
2.850320e+003,1.573997e-002
2.852248e+003,1.549525e-002
2.854177e+003,1.540560e-002
2.856105e+003,1.537450e-002
2.858033e+003,1.529452e-002
2.859962e+003,1.534673e-002
2.861890e+003,1.535768e-002
2.863819e+003,1.529843e-002
2.865748e+003,1.529661e-002
2.867676e+003,1.532019e-002
2.869604e+003,1.542016e-002
2.871533e+003,1.556036e-002
2.873461e+003,1.579282e-002
2.875390e+003,1.596204e-002
2.877319e+003,1.618044e-002
2.879247e+003,1.640611e-002
2.881176e+003,1.638591e-002
2.883104e+003,1.640900e-002
2.885032e+003,1.655272e-002
2.886961e+003,1.645160e-002
2.888889e+003,1.628122e-002
2.890818e+003,1.621975e-002
2.892747e+003,1.604056e-002
2.894675e+003,1.581525e-002
2.896604e+003,1.574853e-002
2.898532e+003,1.577550e-002
2.900460e+003,1.577505e-002
2.902389e+003,1.575351e-002
2.904317e+003,1.561009e-002
2.906246e+003,1.555943e-002
2.908175e+003,1.550658e-002
2.910103e+003,1.545154e-002
2.912031e+003,1.539012e-002
2.913960e+003,1.529359e-002
2.915888e+003,1.518704e-002
2.917817e+003,1.520917e-002
2.919745e+003,1.557753e-002
2.921674e+003,1.594671e-002
2.923603e+003,1.624469e-002
2.925531e+003,1.654935e-002
2.927459e+003,1.689294e-002
2.929388e+003,1.718695e-002
2.931316e+003,1.739462e-002
2.933245e+003,1.751100e-002
2.935173e+003,1.764725e-002
2.937102e+003,1.771054e-002
2.939031e+003,1.774009e-002
2.940959e+003,1.766899e-002
2.942887e+003,1.746985e-002
2.944816e+003,1.727341e-002
2.946744e+003,1.704643e-002
2.948673e+003,1.671591e-002
2.950601e+003,1.615792e-002
2.952530e+003,1.552718e-002
2.954458e+003,1.491752e-002
2.956387e+003,1.421298e-002
2.958315e+003,1.365245e-002
2.960244e+003,1.301104e-002
2.962172e+003,1.229332e-002
2.964101e+003,1.170541e-002
2.966029e+003,1.111965e-002
2.967958e+003,1.057334e-002
2.969886e+003,1.018709e-002
2.971815e+003,9.926386e-003
2.973743e+003,9.548938e-003
2.975672e+003,9.115609e-003
2.977600e+003,8.921701e-003
2.979529e+003,8.738696e-003
2.981457e+003,8.506804e-003
2.983386e+003,8.330459e-003
2.985314e+003,8.063240e-003
2.987243e+003,7.894835e-003
2.989171e+003,7.903879e-003
2.991100e+003,7.852120e-003
2.993028e+003,7.814740e-003
2.994957e+003,7.763970e-003
2.996885e+003,7.670004e-003
2.998814e+003,7.619960e-003
3.000742e+003,7.536442e-003
3.002671e+003,7.472862e-003
3.004599e+003,7.520462e-003
3.006528e+003,7.538296e-003
3.008456e+003,7.475154e-003
3.010385e+003,7.419268e-003
3.012313e+003,7.385362e-003
3.014242e+003,7.367669e-003
3.016170e+003,7.410639e-003
3.018099e+003,7.450446e-003
3.020027e+003,7.273451e-003
3.021956e+003,7.218366e-003
3.023884e+003,7.269947e-003
3.025813e+003,7.283323e-003
3.027741e+003,7.173932e-003
3.029670e+003,7.056484e-003
3.031598e+003,7.073121e-003
3.033527e+003,7.137923e-003
3.035455e+003,7.278842e-003
3.037384e+003,7.406730e-003
3.039312e+003,7.368376e-003
3.041241e+003,7.277393e-003
3.043169e+003,7.185722e-003
3.045098e+003,7.153721e-003
3.047026e+003,7.171641e-003
3.048955e+003,7.289490e-003
3.050883e+003,7.216883e-003
3.052812e+003,7.178344e-003
3.054740e+003,7.112594e-003
3.056669e+003,7.146243e-003
3.058597e+003,7.161064e-003
3.060526e+003,7.081171e-003
3.062454e+003,7.129873e-003
3.064383e+003,7.168205e-003
3.066311e+003,7.139775e-003
3.068240e+003,7.291882e-003
3.070168e+003,7.282077e-003
3.072097e+003,7.101176e-003
3.074025e+003,7.052006e-003
3.075954e+003,7.112190e-003
3.077882e+003,7.174403e-003
3.079811e+003,7.239792e-003
3.081739e+003,7.285648e-003
3.083668e+003,7.337171e-003
3.085596e+003,7.307281e-003
3.087525e+003,7.219882e-003
3.089453e+003,7.226552e-003
3.091382e+003,7.234806e-003
3.093310e+003,7.340068e-003
3.095239e+003,7.358940e-003
3.097167e+003,7.295352e-003
3.099096e+003,7.276989e-003
3.101024e+003,7.271396e-003
3.102953e+003,7.289624e-003
3.104881e+003,7.327566e-003
3.106810e+003,7.356009e-003
3.108738e+003,7.414077e-003
3.110667e+003,7.468514e-003
3.112595e+003,7.562335e-003
3.114524e+003,7.496662e-003
3.116452e+003,7.334474e-003
3.118381e+003,7.449738e-003
3.120309e+003,7.506674e-003
3.122238e+003,7.480716e-003
3.124166e+003,7.564965e-003
3.126095e+003,7.554614e-003
3.128023e+003,7.432548e-003
3.129952e+003,7.440132e-003
3.131880e+003,7.464165e-003
3.133809e+003,7.565707e-003
3.135737e+003,7.592141e-003
3.137666e+003,7.653378e-003
3.139594e+003,7.742417e-003
3.141523e+003,7.722752e-003
3.143451e+003,7.755504e-003
3.145380e+003,7.753345e-003
3.147308e+003,7.674152e-003
3.149237e+003,7.739482e-003
3.151165e+003,7.906915e-003
3.153094e+003,7.979637e-003
3.155022e+003,8.003194e-003
3.156951e+003,7.926453e-003
3.158879e+003,7.932493e-003
3.160808e+003,8.114922e-003
3.162736e+003,8.214792e-003
3.164665e+003,8.152193e-003
3.166593e+003,7.887108e-003
3.168522e+003,7.852761e-003
3.170450e+003,8.137069e-003
3.172379e+003,8.213543e-003
3.174307e+003,8.071105e-003
3.176236e+003,8.141390e-003
3.178164e+003,8.226814e-003
3.180093e+003,8.167859e-003
3.182021e+003,8.150471e-003
3.183950e+003,8.260346e-003
3.185878e+003,8.292666e-003
3.187807e+003,8.249236e-003
3.189735e+003,8.273990e-003
3.191664e+003,8.286012e-003
3.193592e+003,8.250587e-003
3.195521e+003,8.194128e-003
3.197449e+003,8.133828e-003
3.199378e+003,8.118230e-003
3.201306e+003,8.092304e-003
3.203235e+003,8.171000e-003
3.205163e+003,8.251295e-003
3.207092e+003,8.263183e-003
3.209020e+003,8.351907e-003
3.210948e+003,8.467103e-003
3.212877e+003,8.511230e-003
3.214806e+003,8.477679e-003
3.216734e+003,8.432947e-003
3.218663e+003,8.538973e-003
3.220591e+003,8.597674e-003
3.222520e+003,8.590306e-003
3.224448e+003,8.541811e-003
3.226376e+003,8.528667e-003
3.228305e+003,8.641374e-003
3.230234e+003,8.882029e-003
3.232162e+003,8.887237e-003
3.234091e+003,8.868400e-003
3.236019e+003,8.846115e-003
3.237948e+003,8.795563e-003
3.239876e+003,9.013367e-003
3.241804e+003,9.262927e-003
3.243733e+003,9.324298e-003
3.245662e+003,9.349654e-003
3.247590e+003,9.348064e-003
3.249519e+003,9.373490e-003
3.251447e+003,9.512325e-003
3.253375e+003,9.459563e-003
3.255304e+003,9.497593e-003
3.257232e+003,9.747465e-003
3.259161e+003,9.806228e-003
3.261090e+003,9.745838e-003
3.263018e+003,9.698977e-003
3.264947e+003,9.687795e-003
3.266875e+003,9.636739e-003
3.268803e+003,9.720696e-003
3.270732e+003,9.820157e-003
3.272660e+003,9.803550e-003
3.274589e+003,9.793078e-003
3.276518e+003,9.833307e-003
3.278446e+003,9.851779e-003
3.280375e+003,9.958186e-003
3.282303e+003,1.007432e-002
3.284231e+003,1.009182e-002
3.286160e+003,1.002745e-002
3.288088e+003,9.948592e-003
3.290017e+003,9.813108e-003
3.291946e+003,9.844390e-003
3.293874e+003,9.841983e-003
3.295802e+003,9.800466e-003
3.297731e+003,9.781183e-003
3.299659e+003,9.728556e-003
3.301588e+003,9.650494e-003
3.303516e+003,9.508024e-003
3.305445e+003,9.454043e-003
3.307374e+003,9.511614e-003
3.309302e+003,9.383612e-003
3.311230e+003,9.274570e-003
3.313159e+003,9.170226e-003
3.315087e+003,9.028928e-003
3.317016e+003,9.015498e-003
3.318944e+003,8.994626e-003
3.320873e+003,8.828396e-003
3.322802e+003,8.724091e-003
3.324730e+003,8.731123e-003
3.326658e+003,8.745457e-003
3.328587e+003,8.724936e-003
3.330515e+003,8.566109e-003
3.332444e+003,8.381092e-003
3.334372e+003,8.412575e-003
3.336301e+003,8.532620e-003
3.338229e+003,8.640124e-003
3.340158e+003,8.577768e-003
3.342086e+003,8.573240e-003
3.344015e+003,8.600884e-003
3.345943e+003,8.727404e-003
3.347872e+003,8.747485e-003
3.349800e+003,8.681328e-003
3.351729e+003,8.627990e-003
3.353657e+003,8.543434e-003
3.355586e+003,8.585609e-003
3.357514e+003,8.712225e-003
3.359443e+003,8.606663e-003
3.361371e+003,8.512346e-003
3.363300e+003,8.516400e-003
3.365229e+003,8.407880e-003
3.367157e+003,8.198821e-003
3.369085e+003,8.054228e-003
3.371014e+003,7.918826e-003
3.372942e+003,7.989221e-003
3.374871e+003,7.974811e-003
3.376799e+003,8.048455e-003
3.378728e+003,7.945890e-003
3.380656e+003,7.692769e-003
3.382585e+003,7.516518e-003
3.384513e+003,7.485402e-003
3.386442e+003,7.479132e-003
3.388370e+003,7.435615e-003
3.390299e+003,7.378386e-003
3.392227e+003,7.441716e-003
3.394156e+003,7.396248e-003
3.396084e+003,7.221162e-003
3.398013e+003,6.996274e-003
3.399941e+003,6.901767e-003
3.401870e+003,6.931427e-003
3.403798e+003,6.943413e-003
3.405727e+003,6.854807e-003
3.407655e+003,6.949204e-003
3.409584e+003,7.037053e-003
3.411512e+003,6.960415e-003
3.413441e+003,6.849523e-003
3.415369e+003,6.875173e-003
3.417298e+003,7.018836e-003
3.419226e+003,7.114009e-003
3.421155e+003,7.109158e-003
3.423083e+003,6.987588e-003
3.425012e+003,7.039445e-003
3.426940e+003,7.155641e-003
3.428869e+003,7.144289e-003
3.430797e+003,7.049008e-003
3.432726e+003,6.982705e-003
3.434654e+003,7.068777e-003
3.436583e+003,7.021226e-003
3.438511e+003,6.983042e-003
3.440440e+003,7.073727e-003
3.442368e+003,7.017522e-003
3.444297e+003,6.916681e-003
3.446225e+003,6.939137e-003
3.448154e+003,7.087569e-003
3.450082e+003,7.227495e-003
3.452011e+003,7.187911e-003
3.453939e+003,7.202060e-003
3.455868e+003,7.155337e-003
3.457796e+003,7.053016e-003
3.459725e+003,7.044631e-003
3.461653e+003,7.320861e-003
3.463582e+003,7.527913e-003
3.465510e+003,7.302024e-003
3.467439e+003,7.032103e-003
3.469367e+003,7.087670e-003
3.471296e+003,7.157426e-003
3.473224e+003,7.155135e-003
3.475153e+003,7.111146e-003
3.477081e+003,7.307651e-003
3.479010e+003,7.336496e-003
3.480938e+003,7.261760e-003
3.482867e+003,7.209236e-003
3.484795e+003,7.384081e-003
3.486724e+003,7.464098e-003
3.488652e+003,7.320995e-003
3.490581e+003,7.359379e-003
3.492509e+003,7.416066e-003
3.494438e+003,7.361097e-003
3.496366e+003,7.454660e-003
3.498295e+003,7.433323e-003
3.500223e+003,7.502021e-003
3.502152e+003,7.616824e-003
3.504080e+003,7.522148e-003
3.506009e+003,7.368815e-003
3.507937e+003,7.452738e-003
3.509866e+003,7.524710e-003
3.511794e+003,7.576698e-003
3.513723e+003,7.559469e-003
3.515651e+003,7.489481e-003
3.517580e+003,7.377240e-003
3.519508e+003,7.353818e-003
3.521437e+003,7.415122e-003
3.523365e+003,7.502797e-003
3.525294e+003,7.575080e-003
3.527222e+003,7.628862e-003
3.529151e+003,7.635708e-003
3.531079e+003,7.625726e-003
3.533008e+003,7.684944e-003
3.534936e+003,7.722010e-003
3.536865e+003,7.758540e-003
3.538793e+003,7.621612e-003
3.540722e+003,7.335283e-003
3.542650e+003,7.300474e-003
3.544579e+003,7.533677e-003
3.546507e+003,7.863119e-003
3.548436e+003,7.911369e-003
3.550364e+003,7.856810e-003
3.552293e+003,7.833058e-003
3.554221e+003,7.815246e-003
3.556150e+003,7.809814e-003
3.558078e+003,7.883093e-003
3.560007e+003,7.751085e-003
3.561935e+003,7.570090e-003
3.563864e+003,7.654592e-003
3.565792e+003,7.946025e-003
3.567721e+003,7.833295e-003
3.569649e+003,7.780432e-003
3.571578e+003,7.817371e-003
3.573506e+003,7.773112e-003
3.575435e+003,7.756583e-003
3.577363e+003,7.807318e-003
3.579292e+003,7.858294e-003
3.581220e+003,7.906814e-003
3.583149e+003,7.983754e-003
3.585077e+003,8.172654e-003
3.587006e+003,8.155671e-003
3.588934e+003,7.821993e-003
3.590863e+003,7.656818e-003
3.592791e+003,7.814436e-003
3.594720e+003,7.759315e-003
3.596648e+003,7.750141e-003
3.598577e+003,7.698738e-003
3.600505e+003,7.664204e-003
3.602434e+003,7.777598e-003
3.604362e+003,7.873916e-003
3.606291e+003,7.882486e-003
3.608219e+003,8.159250e-003
3.610148e+003,8.244846e-003
3.612076e+003,8.010686e-003
3.614005e+003,7.734423e-003
3.615933e+003,7.841729e-003
3.617862e+003,8.111782e-003
3.619790e+003,7.979839e-003
3.621719e+003,7.720256e-003
3.623647e+003,7.638034e-003
3.625576e+003,7.755841e-003
3.627504e+003,8.271085e-003
3.629433e+003,8.529849e-003
3.631361e+003,8.070868e-003
3.633290e+003,7.870070e-003
3.635218e+003,7.856237e-003
3.637146e+003,7.916397e-003
3.639075e+003,7.933371e-003
3.641004e+003,7.781882e-003
3.642932e+003,7.788191e-003
3.644861e+003,7.846823e-003
3.646789e+003,8.053755e-003
3.648718e+003,8.187679e-003
3.650646e+003,8.007446e-003
3.652574e+003,7.723123e-003
3.654503e+003,7.886670e-003
3.656432e+003,8.160735e-003
3.658360e+003,7.882014e-003
3.660289e+003,7.642284e-003
3.662217e+003,7.652771e-003
3.664146e+003,7.647713e-003
3.666074e+003,7.685889e-003
3.668002e+003,7.824050e-003
3.669931e+003,7.967927e-003
3.671860e+003,7.869530e-003
3.673788e+003,8.091460e-003
3.675717e+003,8.114652e-003
3.677645e+003,7.790248e-003
3.679573e+003,7.662079e-003
3.681502e+003,7.794769e-003
3.683430e+003,7.820947e-003
3.685359e+003,7.672499e-003
3.687288e+003,7.773719e-003
3.689216e+003,8.088219e-003
3.691145e+003,8.180183e-003
3.693073e+003,7.795747e-003
3.695001e+003,7.559706e-003
3.696930e+003,7.646870e-003
3.698858e+003,7.783265e-003
3.700787e+003,7.966408e-003
3.702716e+003,8.013994e-003
3.704644e+003,7.873477e-003
3.706573e+003,7.845744e-003
3.708501e+003,7.950412e-003
3.710429e+003,8.123835e-003
3.712358e+003,8.201388e-003
3.714286e+003,7.860622e-003
3.716215e+003,7.785290e-003
3.718144e+003,7.987028e-003
3.720072e+003,7.926723e-003
3.722000e+003,7.890651e-003
3.723929e+003,7.816156e-003
3.725857e+003,7.627176e-003
3.727786e+003,7.393518e-003
3.729714e+003,7.554952e-003
3.731643e+003,7.951998e-003
3.733572e+003,8.153375e-003
3.735500e+003,8.043190e-003
3.737428e+003,7.801178e-003
3.739357e+003,7.608630e-003
3.741285e+003,7.677659e-003
3.743214e+003,8.156143e-003
3.745142e+003,8.358392e-003
3.747071e+003,8.247243e-003
3.749000e+003,8.466124e-003
3.750928e+003,8.485078e-003
3.752856e+003,8.166171e-003
3.754785e+003,8.007041e-003
3.756713e+003,7.998469e-003
3.758642e+003,7.909783e-003
3.760570e+003,7.955272e-003
3.762499e+003,7.935564e-003
3.764427e+003,7.785762e-003
3.766356e+003,7.721504e-003
3.768284e+003,7.714016e-003
3.770213e+003,7.937554e-003
3.772141e+003,8.018618e-003
3.774070e+003,7.945552e-003
3.775998e+003,7.935665e-003
3.777927e+003,8.025706e-003
3.779855e+003,8.011530e-003
3.781784e+003,7.741775e-003
3.783712e+003,7.708856e-003
3.785641e+003,7.788056e-003
3.787569e+003,7.708013e-003
3.789498e+003,7.604617e-003
3.791426e+003,7.644172e-003
3.793355e+003,7.784311e-003
3.795283e+003,7.940221e-003
3.797212e+003,7.976836e-003
3.799140e+003,7.936036e-003
3.801069e+003,7.987230e-003
3.802997e+003,7.733647e-003
3.804926e+003,7.649668e-003
3.806854e+003,7.874388e-003
3.808783e+003,7.789506e-003
3.810711e+003,7.627682e-003
3.812640e+003,7.646128e-003
3.814568e+003,7.783636e-003
3.816497e+003,7.959253e-003
3.818425e+003,7.977949e-003
3.820354e+003,8.228367e-003
3.822282e+003,8.078531e-003
3.824211e+003,7.763093e-003
3.826139e+003,7.594839e-003
3.828068e+003,7.558593e-003
3.829996e+003,7.784682e-003
3.831925e+003,7.843315e-003
3.833853e+003,7.753918e-003
3.835782e+003,7.732635e-003
3.837710e+003,7.888054e-003
3.839639e+003,7.911571e-003
3.841567e+003,7.960435e-003
3.843496e+003,7.961211e-003
3.845424e+003,7.800200e-003
3.847353e+003,7.586578e-003
3.849281e+003,7.557750e-003
3.851210e+003,8.084877e-003
3.853138e+003,8.683390e-003
3.855067e+003,8.365891e-003
3.856995e+003,7.832249e-003
3.858924e+003,7.646162e-003
3.860852e+003,7.780027e-003
3.862781e+003,8.003160e-003
3.864709e+003,7.988986e-003
3.866638e+003,7.658673e-003
3.868566e+003,7.846014e-003
3.870495e+003,7.984665e-003
3.872423e+003,8.027765e-003
3.874352e+003,8.014973e-003
3.876280e+003,7.748184e-003
3.878209e+003,7.787010e-003
3.880137e+003,7.837141e-003
3.882066e+003,7.565302e-003
3.883994e+003,7.588668e-003
3.885923e+003,7.812850e-003
3.887851e+003,7.795275e-003
3.889780e+003,8.045182e-003
3.891708e+003,8.092777e-003
3.893637e+003,7.958207e-003
3.895565e+003,7.764038e-003
3.897494e+003,7.690576e-003
3.899422e+003,7.608664e-003
3.901351e+003,7.552187e-003
3.903279e+003,7.596828e-003
3.905208e+003,7.724573e-003
3.907136e+003,7.663360e-003
3.909065e+003,7.651018e-003
3.910993e+003,7.505123e-003
3.912922e+003,7.483717e-003
3.914850e+003,7.782287e-003
3.916779e+003,7.859374e-003
3.918707e+003,7.587556e-003
3.920636e+003,7.627985e-003
3.922564e+003,7.925069e-003
3.924493e+003,7.850062e-003
3.926421e+003,7.516349e-003
3.928350e+003,7.432076e-003
3.930278e+003,7.416437e-003
3.932207e+003,7.673950e-003
3.934135e+003,7.740055e-003
3.936064e+003,7.716108e-003
3.937992e+003,7.773483e-003
3.939921e+003,7.757224e-003
3.941849e+003,7.819024e-003
3.943778e+003,7.607247e-003
3.945706e+003,7.630076e-003
3.947635e+003,7.813727e-003
3.949563e+003,7.737694e-003
3.951492e+003,7.691959e-003
3.953420e+003,7.488739e-003
3.955349e+003,7.316514e-003
3.957277e+003,7.462278e-003
3.959206e+003,7.550164e-003
3.961134e+003,7.586544e-003
3.963063e+003,7.915722e-003
3.964991e+003,7.963607e-003
3.966920e+003,7.743496e-003
3.968848e+003,7.786369e-003
3.970777e+003,7.748049e-003
3.972705e+003,7.815144e-003
3.974634e+003,7.901584e-003
3.976562e+003,7.865346e-003
3.978491e+003,7.873376e-003
3.980419e+003,7.882114e-003
3.982348e+003,7.897096e-003
3.984276e+003,7.840919e-003
3.986205e+003,7.767242e-003
3.988133e+003,7.883802e-003
3.990062e+003,7.940356e-003
3.991990e+003,7.741607e-003
3.993919e+003,7.574979e-003
3.995847e+003,7.491301e-003
3.997776e+003,7.654930e-003
3.999704e+003,7.536105e-003
4.001633e+003,0.000000e+000
