3.991989e+002,-1.057653e-002
4.011274e+002,-2.468891e-002
4.030559e+002,-2.342494e-002
4.049844e+002,-1.783282e-002
4.069129e+002,-8.967998e-003
4.088414e+002,-6.551888e-003
4.107699e+002,-1.112895e-002
4.126984e+002,-9.695137e-003
4.146269e+002,-2.875770e-003
4.165554e+002,4.236706e-003
4.184839e+002,3.505276e-003
4.204124e+002,4.939810e-003
4.223409e+002,3.677868e-003
4.242694e+002,-9.921581e-004
4.261979e+002,-5.531212e-003
4.281264e+002,3.658019e-003
4.300549e+002,1.038743e-002
4.319834e+002,6.982638e-003
4.339119e+002,4.226802e-003
4.358404e+002,5.836338e-003
4.377689e+002,8.277907e-003
4.396974e+002,4.401455e-003
4.416259e+002,-4.130401e-003
4.435544e+002,-4.803453e-003
4.454829e+002,1.125828e-003
4.474114e+002,5.926819e-003
4.493399e+002,5.336653e-003
4.512684e+002,5.011501e-003
4.531969e+002,5.542660e-003
4.551254e+002,4.827724e-003
4.570539e+002,5.470613e-003
4.589824e+002,4.035966e-003
4.609109e+002,3.380736e-003
4.628394e+002,5.511182e-003
4.647679e+002,4.299814e-003
4.666964e+002,4.496659e-003
4.686249e+002,5.827876e-003
4.705533e+002,6.996241e-003
4.724819e+002,7.186429e-003
4.744103e+002,5.921176e-003
4.763389e+002,1.977462e-003
4.782673e+002,-3.088976e-003
4.801959e+002,-3.417548e-003
4.821243e+002,2.390128e-003
4.840529e+002,5.345776e-003
4.859813e+002,8.019542e-004
4.879099e+002,5.020182e-003
4.898383e+002,5.264170e-003
4.917668e+002,-6.703804e-004
4.936953e+002,3.459909e-004
4.956238e+002,1.178585e-003
4.975523e+002,1.564920e-003
4.994808e+002,1.461115e-003
5.014093e+002,1.551453e-003
5.033378e+002,3.290551e-003
5.052663e+002,9.304596e-003
5.071948e+002,6.510557e-003
5.091233e+002,2.910144e-004
5.110518e+002,2.020984e-004
5.129803e+002,1.972369e-003
5.149088e+002,2.043371e-003
5.168373e+002,2.180949e-003
5.187658e+002,2.618542e-003
5.206943e+002,1.311601e-003
5.226228e+002,7.776891e-004
5.245513e+002,1.102475e-003
5.264798e+002,4.203761e-004
5.284083e+002,7.369627e-004
5.303368e+002,1.577490e-003
5.322653e+002,1.335032e-003
5.341938e+002,2.123442e-003
5.361223e+002,1.464772e-003
5.380508e+002,3.931144e-004
5.399792e+002,2.090930e-004
5.419078e+002,8.645982e-004
5.438363e+002,2.190273e-003
5.457648e+002,2.085552e-003
5.476932e+002,1.122872e-003
5.496218e+002,1.189981e-003
5.515503e+002,1.880646e-003
5.534788e+002,1.815592e-003
5.554072e+002,1.327521e-003
5.573358e+002,7.988338e-004
5.592643e+002,1.098888e-003
5.611927e+002,1.077795e-003
5.631212e+002,8.168591e-004
5.650497e+002,1.588165e-003
5.669783e+002,1.779093e-003
5.689067e+002,1.121477e-003
5.708352e+002,1.599605e-003
5.727637e+002,2.237431e-003
5.746923e+002,1.354210e-003
5.766207e+002,-3.105206e-004
5.785492e+002,1.142804e-003
5.804777e+002,6.176156e-003
5.824063e+002,5.436691e-003
5.843347e+002,1.884672e-003
5.862632e+002,1.212176e-003
5.881917e+002,1.673906e-003
5.901202e+002,2.755935e-003
5.920487e+002,3.088746e-003
5.939772e+002,2.995585e-003
5.959057e+002,2.864920e-003
5.978342e+002,2.416216e-003
5.997627e+002,1.900047e-003
6.016912e+002,1.668285e-003
6.036197e+002,9.316343e-004
6.055482e+002,1.394363e-003
6.074767e+002,1.726929e-003
6.094052e+002,9.449166e-004
6.113337e+002,-1.318487e-003
6.132622e+002,-1.908364e-003
6.151907e+002,-1.181730e-004
6.171192e+002,1.251651e-003
6.190477e+002,6.032927e-004
6.209762e+002,2.302432e-004
6.229047e+002,4.055180e-004
6.248332e+002,7.659388e-004
6.267617e+002,7.661380e-004
6.286902e+002,6.651116e-004
6.306187e+002,1.416136e-003
6.325472e+002,2.393393e-003
6.344756e+002,2.454235e-003
6.364042e+002,2.210554e-003
6.383326e+002,1.884972e-003
6.402612e+002,1.650790e-003
6.421896e+002,2.021200e-003
6.441182e+002,1.691469e-003
6.460466e+002,7.599310e-004
6.479752e+002,1.267037e-003
6.499036e+002,2.106528e-003
6.518322e+002,2.177119e-003
6.537606e+002,2.116183e-003
6.556891e+002,2.236731e-003
6.576177e+002,2.072701e-003
6.595461e+002,2.132299e-003
6.614746e+002,2.065543e-003
6.634031e+002,1.973201e-003
6.653317e+002,2.431943e-003
6.672601e+002,2.237764e-003
6.691886e+002,2.498255e-003
6.711171e+002,2.878529e-003
6.730457e+002,2.464765e-003
6.749741e+002,2.140690e-003
6.769026e+002,2.274035e-003
6.788311e+002,2.509319e-003
6.807596e+002,2.821296e-003
6.826881e+002,2.936903e-003
6.846166e+002,2.627010e-003
6.865451e+002,2.783379e-003
6.884736e+002,3.010499e-003
6.904021e+002,2.934634e-003
6.923306e+002,2.955384e-003
6.942591e+002,3.226287e-003
6.961876e+002,2.807923e-003
6.981161e+002,2.332161e-003
7.000446e+002,2.416816e-003
7.019731e+002,3.135233e-003
7.039016e+002,3.302970e-003
7.058301e+002,2.942841e-003
7.077585e+002,2.475928e-003
7.096871e+002,2.834370e-003
7.116156e+002,3.307244e-003
7.135441e+002,3.019407e-003
7.154725e+002,2.815260e-003
7.174011e+002,2.827166e-003
7.193296e+002,3.322769e-003
7.212581e+002,3.544258e-003
7.231865e+002,3.258067e-003
7.251151e+002,3.346676e-003
7.270436e+002,3.108835e-003
7.289720e+002,3.181592e-003
7.309005e+002,4.114130e-003
7.328290e+002,4.589171e-003
7.347576e+002,4.138382e-003
7.366860e+002,4.034662e-003
7.386145e+002,3.997340e-003
7.405430e+002,3.691468e-003
7.424716e+002,3.777559e-003
7.444000e+002,4.097840e-003
7.463285e+002,4.155609e-003
7.482570e+002,4.332844e-003
7.501855e+002,4.837675e-003
7.521140e+002,5.275305e-003
7.540425e+002,5.700553e-003
7.559710e+002,5.502725e-003
7.578995e+002,5.339537e-003
7.598280e+002,5.355739e-003
7.617565e+002,5.443636e-003
7.636850e+002,5.703104e-003
7.656135e+002,5.625325e-003
7.675420e+002,5.398008e-003
7.694705e+002,5.403812e-003
7.713990e+002,5.229829e-003
7.733275e+002,5.281275e-003
7.752560e+002,5.020383e-003
7.771844e+002,4.704244e-003
7.791130e+002,4.982441e-003
7.810415e+002,5.199078e-003
7.829700e+002,5.536116e-003
7.848984e+002,5.490108e-003
7.868270e+002,5.311026e-003
7.887555e+002,5.130508e-003
7.906840e+002,5.069324e-003
7.926124e+002,5.622069e-003
7.945410e+002,5.206489e-003
7.964695e+002,5.380127e-003
7.983979e+002,6.672604e-003
8.003264e+002,6.329069e-003
8.022549e+002,5.482961e-003
8.041835e+002,5.737248e-003
8.061119e+002,6.549978e-003
8.080404e+002,7.169822e-003
8.099689e+002,6.868407e-003
8.118975e+002,6.527946e-003
8.138259e+002,7.116804e-003
8.157545e+002,7.324096e-003
8.176830e+002,6.924727e-003
8.196115e+002,6.295114e-003
8.215399e+002,5.701594e-003
8.234684e+002,5.654394e-003
8.253970e+002,5.441724e-003
8.273254e+002,4.769798e-003
8.292539e+002,4.397840e-003
8.311824e+002,4.051684e-003
8.331110e+002,3.998544e-003
8.350394e+002,4.153402e-003
8.369679e+002,4.551601e-003
8.388964e+002,4.277661e-003
8.408250e+002,3.807708e-003
8.427534e+002,3.454741e-003
8.446819e+002,3.568912e-003
8.466104e+002,3.500867e-003
8.485389e+002,3.346576e-003
8.504674e+002,3.054442e-003
8.523959e+002,3.298029e-003
8.543244e+002,3.577498e-003
8.562529e+002,3.590026e-003
8.581814e+002,3.389385e-003
8.601099e+002,3.734044e-003
8.620384e+002,3.977377e-003
8.639669e+002,3.661327e-003
8.658954e+002,3.658955e-003
8.678239e+002,3.992491e-003
8.697524e+002,3.745741e-003
8.716809e+002,3.183695e-003
8.736094e+002,3.084741e-003
8.755378e+002,3.478354e-003
8.774664e+002,3.610507e-003
8.793949e+002,3.803530e-003
8.813234e+002,3.866575e-003
8.832518e+002,3.661160e-003
8.851804e+002,3.102628e-003
8.871089e+002,2.718157e-003
8.890374e+002,2.788414e-003
8.909658e+002,3.189136e-003
8.928943e+002,3.718136e-003
8.948229e+002,3.687926e-003
8.967513e+002,3.339464e-003
8.986798e+002,3.003626e-003
9.006083e+002,2.806789e-003
9.025369e+002,2.940405e-003
9.044653e+002,2.946410e-003
9.063938e+002,2.771307e-003
9.083223e+002,2.841040e-003
9.102509e+002,3.072728e-003
9.121793e+002,2.879629e-003
9.141078e+002,2.551345e-003
9.160364e+002,2.494589e-003
9.179648e+002,2.440073e-003
9.198933e+002,2.541813e-003
9.218218e+002,2.742798e-003
9.237504e+002,2.655645e-003
9.256788e+002,2.463998e-003
9.276073e+002,2.431976e-003
9.295358e+002,2.807023e-003
9.314644e+002,2.954050e-003
9.333928e+002,3.039026e-003
9.353213e+002,3.118513e-003
9.372498e+002,3.186833e-003
9.391783e+002,3.179556e-003
9.411068e+002,3.358964e-003
9.430353e+002,3.466264e-003
9.449637e+002,3.454407e-003
9.468923e+002,3.405147e-003
9.488208e+002,3.615418e-003
9.507493e+002,3.634129e-003
9.526777e+002,3.387114e-003
9.546063e+002,3.035389e-003
9.565348e+002,3.437441e-003
9.584633e+002,3.235300e-003
9.603917e+002,2.972798e-003
9.623203e+002,3.075297e-003
9.642488e+002,2.856582e-003
9.661772e+002,2.818962e-003
9.681057e+002,3.385411e-003
9.700343e+002,4.341043e-003
9.719628e+002,4.819649e-003
9.738912e+002,4.818376e-003
9.758197e+002,3.915285e-003
9.777483e+002,2.946410e-003
9.796768e+002,3.056578e-003
9.816052e+002,3.096087e-003
9.835337e+002,3.163535e-003
9.854623e+002,3.191439e-003
9.873907e+002,2.968628e-003
9.893192e+002,2.903212e-003
9.912477e+002,2.967127e-003
9.931763e+002,3.150619e-003
9.951047e+002,3.332485e-003
9.970332e+002,3.474781e-003
9.989617e+002,3.545160e-003
1.000890e+003,3.806204e-003
1.002819e+003,4.169024e-003
1.004747e+003,4.363969e-003
1.006676e+003,4.736166e-003
1.008604e+003,4.912297e-003
1.010533e+003,4.719418e-003
1.012461e+003,5.116863e-003
1.014390e+003,5.545378e-003
1.016318e+003,5.674468e-003
1.018247e+003,6.006366e-003
1.020175e+003,5.995817e-003
1.022104e+003,6.090463e-003
1.024032e+003,6.490275e-003
1.025961e+003,6.791764e-003
1.027889e+003,6.771672e-003
1.029818e+003,6.917018e-003
1.031746e+003,7.210786e-003
1.033675e+003,7.469087e-003
1.035603e+003,7.802831e-003
1.037532e+003,7.880056e-003
1.039460e+003,7.874321e-003
1.041389e+003,7.970423e-003
1.043317e+003,8.013151e-003
1.045246e+003,8.063949e-003
1.047174e+003,8.278447e-003
1.049103e+003,8.266121e-003
1.051031e+003,8.128493e-003
1.052960e+003,8.329649e-003
1.054888e+003,8.546036e-003
1.056817e+003,8.395583e-003
1.058745e+003,8.327217e-003
1.060674e+003,8.460819e-003
1.062602e+003,8.677407e-003
1.064531e+003,8.802664e-003
1.066459e+003,8.867217e-003
1.068388e+003,8.974872e-003
1.070316e+003,8.989112e-003
1.072245e+003,9.177298e-003
1.074173e+003,9.398679e-003
1.076102e+003,9.072977e-003
1.078030e+003,8.671085e-003
1.079959e+003,8.854265e-003
1.081887e+003,9.193407e-003
1.083816e+003,9.219772e-003
1.085744e+003,9.289227e-003
1.087673e+003,9.457158e-003
1.089601e+003,9.411242e-003
1.091530e+003,9.656219e-003
1.093458e+003,9.993548e-003
1.095387e+003,1.007883e-002
1.097315e+003,1.018655e-002
1.099244e+003,1.006011e-002
1.101172e+003,1.013106e-002
1.103101e+003,1.025049e-002
1.105029e+003,1.018183e-002
1.106958e+003,1.016158e-002
1.108886e+003,1.005424e-002
1.110815e+003,1.008280e-002
1.112743e+003,1.026562e-002
1.114672e+003,1.022708e-002
1.116600e+003,1.020524e-002
1.118529e+003,1.032680e-002
1.120457e+003,1.032608e-002
1.122386e+003,1.048946e-002
1.124314e+003,1.054143e-002
1.126243e+003,1.018553e-002
1.128171e+003,1.017589e-002
1.130100e+003,1.040138e-002
1.132028e+003,1.016575e-002
1.133957e+003,1.001189e-002
1.135885e+003,9.836934e-003
1.137814e+003,9.544535e-003
1.139742e+003,9.291021e-003
1.141671e+003,9.005654e-003
1.143599e+003,8.713375e-003
1.145528e+003,8.606190e-003
1.147456e+003,8.510487e-003
1.149385e+003,8.184943e-003
1.151313e+003,7.759180e-003
1.153242e+003,7.482166e-003
1.155170e+003,7.187035e-003
1.157099e+003,7.024426e-003
1.159027e+003,6.710189e-003
1.160956e+003,6.460074e-003
1.162884e+003,6.349948e-003
1.164813e+003,6.330548e-003
1.166741e+003,6.348805e-003
1.168670e+003,6.422073e-003
1.170598e+003,6.438585e-003
1.172526e+003,6.220690e-003
1.174455e+003,6.199683e-003
1.176384e+003,6.303787e-003
1.178312e+003,6.111431e-003
1.180240e+003,5.990341e-003
1.182169e+003,5.916641e-003
1.184098e+003,5.892995e-003
1.186026e+003,5.720562e-003
1.187954e+003,5.574509e-003
1.189883e+003,5.310019e-003
1.191812e+003,5.201191e-003
1.193740e+003,5.497826e-003
1.195668e+003,5.534035e-003
1.197597e+003,5.289694e-003
1.199526e+003,5.239487e-003
1.201454e+003,5.262628e-003
1.203382e+003,5.211217e-003
1.205311e+003,5.062653e-003
1.207240e+003,5.025344e-003
1.209168e+003,5.132084e-003
1.211096e+003,5.218729e-003
1.213025e+003,5.235966e-003
1.214953e+003,5.345374e-003
1.216882e+003,5.315185e-003
1.218810e+003,5.223625e-003
1.220739e+003,5.019680e-003
1.222667e+003,5.011702e-003
1.224596e+003,5.177148e-003
1.226524e+003,5.216549e-003
1.228453e+003,5.217689e-003
1.230381e+003,5.373552e-003
1.232310e+003,5.515074e-003
1.234238e+003,5.553198e-003
1.236167e+003,5.696558e-003
1.238095e+003,5.829454e-003
1.240024e+003,5.824148e-003
1.241952e+003,5.760785e-003
1.243881e+003,5.758636e-003
1.245809e+003,5.974686e-003
1.247738e+003,6.199919e-003
1.249666e+003,6.415516e-003
1.251595e+003,6.746096e-003
1.253523e+003,7.143413e-003
1.255452e+003,7.475390e-003
1.257380e+003,7.751287e-003
1.259309e+003,7.863726e-003
1.261237e+003,8.189266e-003
1.263166e+003,8.657329e-003
1.265094e+003,8.973823e-003
1.267023e+003,9.287569e-003
1.268951e+003,9.674345e-003
1.270880e+003,1.003817e-002
1.272808e+003,1.034885e-002
1.274737e+003,1.068587e-002
1.276665e+003,1.121222e-002
1.278594e+003,1.179525e-002
1.280522e+003,1.223623e-002
1.282451e+003,1.260910e-002
1.284379e+003,1.293071e-002
1.286308e+003,1.352319e-002
1.288236e+003,1.398849e-002
1.290165e+003,1.440016e-002
1.292093e+003,1.487689e-002
1.294022e+003,1.500285e-002
1.295950e+003,1.523450e-002
1.297879e+003,1.552011e-002
1.299807e+003,1.574107e-002
1.301736e+003,1.573396e-002
1.303664e+003,1.559666e-002
1.305593e+003,1.549689e-002
1.307521e+003,1.539547e-002
1.309450e+003,1.517812e-002
1.311378e+003,1.486218e-002
1.313307e+003,1.452242e-002
1.315235e+003,1.410419e-002
1.317164e+003,1.375583e-002
1.319092e+003,1.332385e-002
1.321021e+003,1.269203e-002
1.322949e+003,1.226391e-002
1.324878e+003,1.196527e-002
1.326806e+003,1.163332e-002
1.328735e+003,1.147917e-002
1.330663e+003,1.135198e-002
1.332592e+003,1.115881e-002
1.334520e+003,1.105432e-002
1.336449e+003,1.097200e-002
1.338377e+003,1.095073e-002
1.340306e+003,1.098118e-002
1.342234e+003,1.110313e-002
1.344163e+003,1.109442e-002
1.346091e+003,1.098573e-002
1.348020e+003,1.086905e-002
1.349948e+003,1.073060e-002
1.351877e+003,1.057226e-002
1.353805e+003,1.042460e-002
1.355734e+003,1.033094e-002
1.357662e+003,1.018641e-002
1.359591e+003,1.009555e-002
1.361519e+003,1.008982e-002
1.363448e+003,1.000097e-002
1.365376e+003,9.897301e-003
1.367305e+003,9.897301e-003
1.369233e+003,9.875641e-003
1.371162e+003,9.669635e-003
1.373090e+003,9.603472e-003
1.375019e+003,9.788164e-003
1.376947e+003,9.963984e-003
1.378876e+003,1.008463e-002
1.380804e+003,1.012858e-002
1.382733e+003,1.003627e-002
1.384661e+003,9.973680e-003
1.386590e+003,9.794637e-003
1.388518e+003,9.622680e-003
1.390447e+003,9.430339e-003
1.392375e+003,9.082958e-003
1.394304e+003,8.917946e-003
1.396232e+003,8.876246e-003
1.398161e+003,8.832487e-003
1.400089e+003,8.824473e-003
1.402018e+003,8.732813e-003
1.403946e+003,8.549381e-003
1.405875e+003,8.447913e-003
1.407803e+003,8.409671e-003
1.409732e+003,8.278414e-003
1.411660e+003,8.161782e-003
1.413589e+003,8.110567e-003
1.415517e+003,8.213003e-003
1.417446e+003,8.478084e-003
1.419374e+003,8.999328e-003
1.421303e+003,9.766407e-003
1.423231e+003,1.045603e-002
1.425160e+003,1.116020e-002
1.427088e+003,1.176569e-002
1.429017e+003,1.222836e-002
1.430945e+003,1.254576e-002
1.432874e+003,1.283831e-002
1.434802e+003,1.305501e-002
1.436731e+003,1.331992e-002
1.438659e+003,1.391865e-002
1.440588e+003,1.444750e-002
1.442516e+003,1.497130e-002
1.444445e+003,1.551619e-002
1.446373e+003,1.620703e-002
1.448302e+003,1.695075e-002
1.450230e+003,1.755788e-002
1.452159e+003,1.814204e-002
1.454087e+003,1.879378e-002
1.456016e+003,1.906696e-002
1.457944e+003,1.964236e-002
1.459873e+003,2.018538e-002
1.461801e+003,2.035594e-002
1.463730e+003,2.050059e-002
1.465658e+003,2.075225e-002
1.467587e+003,2.077582e-002
1.469515e+003,2.066287e-002
1.471444e+003,2.048336e-002
1.473372e+003,2.014092e-002
1.475301e+003,1.984896e-002
1.477229e+003,1.936296e-002
1.479158e+003,1.891109e-002
1.481086e+003,1.826480e-002
1.483015e+003,1.766665e-002
1.484943e+003,1.709347e-002
1.486872e+003,1.655699e-002
1.488800e+003,1.602423e-002
1.490729e+003,1.547224e-002
1.492657e+003,1.494033e-002
1.494586e+003,1.439930e-002
1.496514e+003,1.380963e-002
1.498443e+003,1.329403e-002
1.500371e+003,1.283050e-002
1.502300e+003,1.245706e-002
1.504228e+003,1.191762e-002
1.506157e+003,1.141790e-002
1.508085e+003,1.136903e-002
1.510014e+003,1.124343e-002
1.511942e+003,1.102386e-002
1.513871e+003,1.089463e-002
1.515799e+003,1.070006e-002
1.517728e+003,1.066264e-002
1.519656e+003,1.060288e-002
1.521585e+003,1.047673e-002
1.523513e+003,1.073294e-002
1.525442e+003,1.107202e-002
1.527370e+003,1.129220e-002
1.529299e+003,1.141114e-002
1.531227e+003,1.158384e-002
1.533156e+003,1.179729e-002
1.535084e+003,1.221152e-002
1.537013e+003,1.246596e-002
1.538941e+003,1.258417e-002
1.540870e+003,1.293996e-002
1.542798e+003,1.343463e-002
1.544727e+003,1.390288e-002
1.546655e+003,1.426157e-002
1.548584e+003,1.459228e-002
1.550512e+003,1.499119e-002
1.552441e+003,1.527283e-002
1.554369e+003,1.560177e-002
1.556298e+003,1.585494e-002
1.558226e+003,1.611535e-002
1.560155e+003,1.680276e-002
1.562083e+003,1.753580e-002
1.564012e+003,1.800031e-002
1.565940e+003,1.838386e-002
1.567869e+003,1.857603e-002
1.569797e+003,1.880800e-002
1.571726e+003,1.922520e-002
1.573654e+003,1.936889e-002
1.575583e+003,1.935455e-002
1.577511e+003,1.931512e-002
1.579440e+003,1.928083e-002
1.581368e+003,1.928409e-002
1.583297e+003,1.909798e-002
1.585225e+003,1.884613e-002
1.587154e+003,1.863043e-002
1.589082e+003,1.823577e-002
1.591010e+003,1.765726e-002
1.592939e+003,1.706042e-002
1.594868e+003,1.654429e-002
1.596796e+003,1.597686e-002
1.598724e+003,1.540302e-002
1.600653e+003,1.471220e-002
1.602582e+003,1.402452e-002
1.604510e+003,1.342722e-002
1.606438e+003,1.290108e-002
1.608367e+003,1.237708e-002
1.610296e+003,1.198523e-002
1.612224e+003,1.148999e-002
1.614152e+003,1.100979e-002
1.616081e+003,1.057402e-002
1.618010e+003,1.045396e-002
1.619938e+003,1.023648e-002
1.621866e+003,9.864219e-003
1.623795e+003,9.556423e-003
1.625724e+003,9.516457e-003
1.627652e+003,9.349553e-003
1.629580e+003,9.172629e-003
1.631509e+003,9.012521e-003
1.633438e+003,8.797626e-003
1.635366e+003,8.448251e-003
1.637294e+003,8.210639e-003
1.639223e+003,7.915789e-003
1.641151e+003,7.552592e-003
1.643080e+003,7.054801e-003
1.645008e+003,6.552400e-003
1.646937e+003,6.239614e-003
1.648865e+003,6.072453e-003
1.650794e+003,5.716365e-003
1.652722e+003,5.220606e-003
1.654651e+003,5.045859e-003
1.656579e+003,4.949060e-003
1.658508e+003,4.536969e-003
1.660436e+003,4.293222e-003
1.662365e+003,4.035932e-003
1.664293e+003,3.854707e-003
1.666222e+003,3.803296e-003
1.668150e+003,3.486404e-003
1.670079e+003,3.049971e-003
1.672007e+003,2.908015e-003
1.673936e+003,2.701420e-003
1.675864e+003,2.464631e-003
1.677793e+003,2.141655e-003
1.679721e+003,1.932862e-003
1.681650e+003,1.728726e-003
1.683578e+003,1.478968e-003
1.685507e+003,1.515575e-003
1.687435e+003,1.448415e-003
1.689364e+003,1.322237e-003
1.691292e+003,1.248860e-003
1.693221e+003,1.146060e-003
1.695149e+003,9.942638e-004
1.697078e+003,1.109385e-003
1.699006e+003,1.037771e-003
1.700935e+003,1.001636e-003
1.702863e+003,1.200680e-003
1.704792e+003,1.227726e-003
1.706720e+003,1.316753e-003
1.708649e+003,1.303858e-003
1.710577e+003,1.239988e-003
1.712506e+003,1.174399e-003
1.714434e+003,1.067332e-003
1.716363e+003,9.542477e-004
1.718291e+003,9.808803e-004
1.720220e+003,1.053913e-003
1.722148e+003,1.043118e-003
1.724077e+003,1.073444e-003
1.726005e+003,1.119816e-003
1.727934e+003,1.105166e-003
1.729862e+003,1.072115e-003
1.731791e+003,9.186181e-004
1.733719e+003,7.471523e-004
1.735648e+003,7.731084e-004
1.737576e+003,7.909003e-004
1.739505e+003,8.930184e-004
1.741433e+003,9.865259e-004
1.743362e+003,1.021829e-003
1.745290e+003,1.025648e-003
1.747219e+003,9.192157e-004
1.749147e+003,8.684162e-004
1.751076e+003,8.772144e-004
1.753004e+003,9.476395e-004
1.754933e+003,9.593947e-004
1.756861e+003,9.853636e-004
1.758790e+003,9.832050e-004
1.760718e+003,9.070300e-004
1.762647e+003,8.801693e-004
1.764575e+003,9.077604e-004
1.766504e+003,9.052370e-004
1.768432e+003,9.158622e-004
1.770361e+003,8.039127e-004
1.772289e+003,7.828341e-004
1.774218e+003,8.293744e-004
1.776146e+003,8.843859e-004
1.778075e+003,9.394708e-004
1.780003e+003,9.070631e-004
1.781932e+003,8.130415e-004
1.783860e+003,7.565786e-004
1.785789e+003,7.547199e-004
1.787717e+003,8.302707e-004
1.789646e+003,8.800697e-004
1.791574e+003,7.781207e-004
1.793503e+003,6.891713e-004
1.795431e+003,7.653745e-004
1.797360e+003,8.473345e-004
1.799288e+003,8.104854e-004
1.801217e+003,7.781207e-004
1.803145e+003,8.376074e-004
1.805074e+003,8.290424e-004
1.807002e+003,8.394000e-004
1.808931e+003,7.856556e-004
1.810859e+003,8.510860e-004
1.812788e+003,9.592287e-004
1.814716e+003,9.619849e-004
1.816645e+003,8.817298e-004
1.818573e+003,7.666358e-004
1.820502e+003,7.388213e-004
1.822430e+003,7.738719e-004
1.824359e+003,8.052405e-004
1.826287e+003,8.471021e-004
1.828216e+003,7.697560e-004
1.830144e+003,6.931205e-004
1.832073e+003,8.123776e-004
1.834001e+003,8.365450e-004
1.835930e+003,7.206002e-004
1.837858e+003,7.148917e-004
1.839787e+003,7.274704e-004
1.841715e+003,7.198036e-004
1.843644e+003,6.683969e-004
1.845572e+003,6.818039e-004
1.847501e+003,7.155223e-004
1.849429e+003,7.460569e-004
1.851358e+003,8.151993e-004
1.853286e+003,8.324949e-004
1.855215e+003,7.924272e-004
1.857143e+003,7.949168e-004
1.859072e+003,8.064688e-004
1.861000e+003,8.815306e-004
1.862929e+003,9.530854e-004
1.864857e+003,1.035645e-003
1.866786e+003,9.277493e-004
1.868714e+003,8.206767e-004
1.870643e+003,8.660590e-004
1.872571e+003,9.246945e-004
1.874500e+003,9.450494e-004
1.876428e+003,8.921551e-004
1.878357e+003,8.754216e-004
1.880285e+003,9.708514e-004
1.882214e+003,9.536167e-004
1.884142e+003,8.628386e-004
1.886071e+003,8.424875e-004
1.887999e+003,8.491272e-004
1.889928e+003,9.209423e-004
1.891856e+003,9.492666e-004
1.893785e+003,9.323980e-004
1.895713e+003,9.689254e-004
1.897642e+003,9.946291e-004
1.899570e+003,1.003596e-003
1.901499e+003,9.619185e-004
1.903427e+003,9.759655e-004
1.905356e+003,9.666340e-004
1.907284e+003,1.048366e-003
1.909213e+003,1.134266e-003
1.911141e+003,1.116826e-003
1.913070e+003,1.091082e-003
1.914998e+003,1.013991e-003
1.916927e+003,9.577344e-004
1.918855e+003,1.037837e-003
1.920784e+003,1.022726e-003
1.922712e+003,9.681947e-004
1.924641e+003,1.088956e-003
1.926569e+003,1.159116e-003
1.928498e+003,1.136160e-003
1.930426e+003,1.150744e-003
1.932355e+003,1.212973e-003
1.934283e+003,1.254343e-003
1.936212e+003,1.181376e-003
1.938140e+003,1.091414e-003
1.940069e+003,1.093473e-003
1.941997e+003,1.075868e-003
1.943926e+003,1.019836e-003
1.945854e+003,1.020334e-003
1.947783e+003,1.000906e-003
1.949711e+003,1.033287e-003
1.951640e+003,1.095633e-003
1.953568e+003,1.140180e-003
1.955497e+003,1.146691e-003
1.957425e+003,1.105365e-003
1.959354e+003,9.926697e-004
1.961282e+003,1.053448e-003
1.963211e+003,1.083840e-003
1.965139e+003,1.132705e-003
1.967068e+003,1.108089e-003
1.968996e+003,1.035081e-003
1.970925e+003,1.133203e-003
1.972853e+003,1.168950e-003
1.974782e+003,1.141210e-003
1.976710e+003,1.161608e-003
1.978639e+003,1.208920e-003
1.980567e+003,1.190812e-003
1.982496e+003,1.158252e-003
1.984424e+003,1.193104e-003
1.986353e+003,1.264910e-003
1.988281e+003,1.308278e-003
1.990210e+003,1.301598e-003
1.992138e+003,1.295749e-003
1.994067e+003,1.302994e-003
1.995995e+003,1.317384e-003
1.997924e+003,1.361290e-003
1.999852e+003,1.417864e-003
2.001781e+003,1.387748e-003
2.003709e+003,1.380468e-003
2.005638e+003,1.430198e-003
2.007566e+003,1.387881e-003
2.009495e+003,1.256004e-003
2.011423e+003,1.247730e-003
2.013352e+003,1.385155e-003
2.015280e+003,1.418430e-003
2.017208e+003,1.393665e-003
2.019137e+003,1.406496e-003
2.021066e+003,1.370330e-003
2.022994e+003,1.383360e-003
2.024922e+003,1.499382e-003
2.026851e+003,1.592854e-003
2.028780e+003,1.630601e-003
2.030708e+003,1.637652e-003
2.032636e+003,1.639215e-003
2.034565e+003,1.649160e-003
2.036494e+003,1.657009e-003
2.038422e+003,1.652420e-003
2.040350e+003,1.673574e-003
2.042279e+003,1.751746e-003
2.044208e+003,1.791603e-003
2.046136e+003,1.815526e-003
2.048064e+003,1.829234e-003
2.049993e+003,1.869897e-003
2.051921e+003,1.858317e-003
2.053850e+003,1.876652e-003
2.055778e+003,1.936057e-003
2.057707e+003,1.998032e-003
2.059635e+003,2.108692e-003
2.061564e+003,2.124241e-003
2.063492e+003,2.105162e-003
2.065421e+003,2.109091e-003
2.067349e+003,2.206358e-003
2.069278e+003,2.240062e-003
2.071206e+003,2.212419e-003
2.073135e+003,2.239396e-003
2.075063e+003,2.312041e-003
2.076992e+003,2.282495e-003
2.078920e+003,2.328097e-003
2.080849e+003,2.426712e-003
2.082777e+003,2.458700e-003
2.084706e+003,2.568744e-003
2.086634e+003,2.561211e-003
2.088563e+003,2.494389e-003
2.090491e+003,2.557878e-003
2.092420e+003,2.628909e-003
2.094348e+003,2.632710e-003
2.096277e+003,2.653478e-003
2.098205e+003,2.699786e-003
2.100134e+003,2.678215e-003
2.102062e+003,2.752734e-003
2.103991e+003,2.880497e-003
2.105919e+003,2.955250e-003
2.107848e+003,2.981673e-003
2.109776e+003,2.963057e-003
2.111705e+003,2.988712e-003
2.113633e+003,2.982073e-003
2.115562e+003,2.979204e-003
2.117490e+003,3.094685e-003
2.119419e+003,3.219344e-003
2.121347e+003,3.265946e-003
2.123276e+003,3.244848e-003
2.125204e+003,3.229225e-003
2.127133e+003,3.266447e-003
2.129061e+003,3.298330e-003
2.130990e+003,3.416635e-003
2.132918e+003,3.586452e-003
2.134847e+003,3.551641e-003
2.136775e+003,3.485068e-003
2.138704e+003,3.586920e-003
2.140632e+003,3.589893e-003
2.142561e+003,3.520474e-003
2.144489e+003,3.438509e-003
2.146418e+003,3.500433e-003
2.148346e+003,3.626745e-003
2.150275e+003,3.671118e-003
2.152203e+003,3.717367e-003
2.154132e+003,3.729398e-003
2.156060e+003,3.746242e-003
2.157989e+003,3.686088e-003
2.159917e+003,3.660626e-003
2.161846e+003,3.805669e-003
2.163774e+003,3.966476e-003
2.165703e+003,3.919665e-003
2.167631e+003,3.870018e-003
2.169560e+003,3.943471e-003
2.171488e+003,3.997641e-003
2.173417e+003,3.951663e-003
2.175345e+003,3.924480e-003
2.177274e+003,3.902113e-003
2.179202e+003,3.905657e-003
2.181131e+003,3.884159e-003
2.183059e+003,3.891080e-003
2.184988e+003,3.933006e-003
2.186916e+003,3.942836e-003
2.188845e+003,3.938088e-003
2.190773e+003,3.988813e-003
2.192702e+003,4.025465e-003
2.194630e+003,3.946146e-003
2.196559e+003,3.853437e-003
2.198487e+003,3.853069e-003
2.200416e+003,3.868079e-003
2.202344e+003,3.858919e-003
2.204273e+003,3.895292e-003
2.206201e+003,3.916155e-003
2.208130e+003,3.847988e-003
2.210058e+003,3.758107e-003
2.211987e+003,3.764524e-003
2.213915e+003,3.810081e-003
2.215844e+003,3.774818e-003
2.217772e+003,3.727493e-003
2.219701e+003,3.819674e-003
2.221629e+003,3.849492e-003
2.223558e+003,3.728830e-003
2.225486e+003,3.671218e-003
2.227415e+003,3.769537e-003
2.229343e+003,3.818739e-003
2.231272e+003,3.805970e-003
2.233200e+003,3.705704e-003
2.235129e+003,3.613748e-003
2.237057e+003,3.594637e-003
2.238986e+003,3.586251e-003
2.240914e+003,3.513159e-003
2.242843e+003,3.524817e-003
2.244771e+003,3.545962e-003
2.246700e+003,3.457112e-003
2.248628e+003,3.488642e-003
2.250557e+003,3.548868e-003
2.252485e+003,3.502370e-003
2.254414e+003,3.503873e-003
2.256342e+003,3.560561e-003
2.258271e+003,3.481928e-003
2.260199e+003,3.363438e-003
2.262128e+003,3.289482e-003
2.264056e+003,3.306676e-003
2.265985e+003,3.363038e-003
2.267913e+003,3.313921e-003
2.269842e+003,3.322469e-003
2.271770e+003,3.367913e-003
2.273699e+003,3.322703e-003
2.275627e+003,3.348579e-003
2.277556e+003,3.370918e-003
2.279484e+003,3.292554e-003
2.281413e+003,3.273357e-003
2.283341e+003,3.246016e-003
2.285270e+003,3.182393e-003
2.287198e+003,3.181292e-003
2.289127e+003,3.212568e-003
2.291055e+003,3.228390e-003
2.292984e+003,3.219044e-003
2.294912e+003,3.095520e-003
2.296841e+003,3.049370e-003
2.298769e+003,3.038259e-003
2.300698e+003,3.075331e-003
2.302626e+003,3.189303e-003
2.304555e+003,3.218443e-003
2.306483e+003,3.166005e-003
2.308412e+003,3.160832e-003
2.310340e+003,3.073496e-003
2.312269e+003,2.972198e-003
2.314197e+003,2.969095e-003
2.316125e+003,3.072561e-003
2.318054e+003,3.002191e-003
2.319983e+003,2.973632e-003
2.321911e+003,3.014135e-003
2.323840e+003,3.013869e-003
2.325768e+003,3.016204e-003
2.327697e+003,3.071994e-003
2.329625e+003,3.110637e-003
2.331553e+003,2.984308e-003
2.333482e+003,2.942741e-003
2.335411e+003,3.041262e-003
2.337339e+003,3.052206e-003
2.339268e+003,3.062017e-003
2.341196e+003,3.107367e-003
2.343125e+003,3.126189e-003
2.345053e+003,3.232797e-003
2.346981e+003,3.438376e-003
2.348910e+003,3.508416e-003
2.350839e+003,3.436472e-003
2.352767e+003,3.302603e-003
2.354696e+003,3.251290e-003
2.356624e+003,3.330950e-003
2.358552e+003,3.280101e-003
2.360481e+003,3.149584e-003
2.362409e+003,3.138971e-003
2.364338e+003,3.245916e-003
2.366267e+003,3.489744e-003
2.368195e+003,3.482930e-003
2.370124e+003,3.505176e-003
2.372052e+003,3.670817e-003
2.373980e+003,3.782405e-003
2.375909e+003,3.841436e-003
2.377838e+003,4.069678e-003
2.379766e+003,4.279034e-003
2.381695e+003,4.491905e-003
2.383623e+003,4.654976e-003
2.385552e+003,4.706019e-003
2.387480e+003,4.773986e-003
2.389408e+003,4.885556e-003
2.391337e+003,4.958377e-003
2.393266e+003,4.988776e-003
2.395194e+003,5.071302e-003
2.397123e+003,5.051658e-003
2.399051e+003,4.954422e-003
2.400979e+003,4.951507e-003
2.402908e+003,5.074018e-003
2.404836e+003,5.143350e-003
2.406765e+003,5.143785e-003
2.408694e+003,5.204645e-003
2.410622e+003,5.269872e-003
2.412551e+003,5.274333e-003
2.414479e+003,5.214705e-003
2.416407e+003,5.224061e-003
2.418336e+003,5.293048e-003
2.420264e+003,5.313642e-003
2.422193e+003,5.421459e-003
2.424122e+003,5.501484e-003
2.426050e+003,5.521685e-003
2.427979e+003,5.574610e-003
2.429907e+003,5.600889e-003
2.431835e+003,5.608307e-003
2.433764e+003,5.682458e-003
2.435692e+003,5.792549e-003
2.437621e+003,5.857731e-003
2.439550e+003,5.906262e-003
2.441478e+003,5.885909e-003
2.443406e+003,5.860250e-003
2.445335e+003,5.838655e-003
2.447263e+003,5.898134e-003
2.449192e+003,5.940960e-003
2.451121e+003,5.944823e-003
2.453049e+003,5.992659e-003
2.454978e+003,6.100544e-003
2.456906e+003,6.169737e-003
2.458834e+003,6.246808e-003
2.460763e+003,6.339357e-003
2.462691e+003,6.440401e-003
2.464620e+003,6.440031e-003
2.466549e+003,6.442586e-003
2.468477e+003,6.466498e-003
2.470406e+003,6.539819e-003
2.472334e+003,6.539853e-003
2.474262e+003,6.559632e-003
2.476191e+003,6.681924e-003
2.478119e+003,6.748721e-003
2.480048e+003,6.787490e-003
2.481977e+003,6.806775e-003
2.483905e+003,6.859049e-003
2.485833e+003,6.903215e-003
2.487762e+003,6.989136e-003
2.489690e+003,7.075512e-003
2.491619e+003,7.084168e-003
2.493547e+003,7.209067e-003
2.495476e+003,7.253943e-003
2.497405e+003,7.222577e-003
2.499333e+003,7.244678e-003
2.501261e+003,7.371645e-003
2.503190e+003,7.377914e-003
2.505118e+003,7.296262e-003
2.507047e+003,7.357424e-003
2.508975e+003,7.438716e-003
2.510904e+003,7.470334e-003
2.512833e+003,7.545107e-003
2.514761e+003,7.649028e-003
2.516689e+003,7.654828e-003
2.518618e+003,7.613856e-003
2.520546e+003,7.576361e-003
2.522475e+003,7.574473e-003
2.524403e+003,7.601481e-003
2.526332e+003,7.695838e-003
2.528260e+003,7.714252e-003
2.530189e+003,7.767580e-003
2.532117e+003,7.871486e-003
2.534046e+003,7.820407e-003
2.535974e+003,7.884376e-003
2.537903e+003,7.922741e-003
2.539831e+003,7.923686e-003
2.541760e+003,7.951221e-003
2.543688e+003,7.929017e-003
2.545617e+003,7.838557e-003
2.547545e+003,7.916667e-003
2.549474e+003,8.052810e-003
2.551402e+003,8.053046e-003
2.553331e+003,8.011868e-003
2.555259e+003,7.968669e-003
2.557188e+003,8.022736e-003
2.559116e+003,8.031343e-003
2.561045e+003,8.095477e-003
2.562973e+003,8.229042e-003
2.564902e+003,8.155772e-003
2.566830e+003,8.126366e-003
2.568759e+003,8.180622e-003
2.570687e+003,8.220296e-003
2.572616e+003,8.237585e-003
2.574544e+003,8.235660e-003
2.576473e+003,8.166610e-003
2.578401e+003,8.127008e-003
2.580330e+003,8.130147e-003
2.582258e+003,8.219621e-003
2.584187e+003,8.266830e-003
2.586115e+003,8.295806e-003
2.588044e+003,8.321474e-003
2.589972e+003,8.398083e-003
2.591901e+003,8.490518e-003
2.593829e+003,8.492377e-003
2.595758e+003,8.457441e-003
2.597686e+003,8.492512e-003
2.599615e+003,8.655570e-003
2.601543e+003,8.682308e-003
2.603472e+003,8.518394e-003
2.605400e+003,8.502344e-003
2.607329e+003,8.610314e-003
2.609257e+003,8.682444e-003
2.611186e+003,8.756715e-003
2.613114e+003,8.855280e-003
2.615043e+003,8.865086e-003
2.616971e+003,8.900765e-003
2.618900e+003,8.892648e-003
2.620828e+003,8.890247e-003
2.622757e+003,8.968648e-003
2.624685e+003,9.112124e-003
2.626614e+003,9.135506e-003
2.628542e+003,8.950788e-003
2.630471e+003,8.796274e-003
2.632399e+003,8.879053e-003
2.634328e+003,8.947879e-003
2.636256e+003,8.929344e-003
2.638185e+003,9.008665e-003
2.640113e+003,9.134999e-003
2.642042e+003,9.183492e-003
2.643970e+003,9.150971e-003
2.645899e+003,9.247120e-003
2.647827e+003,9.414391e-003
2.649756e+003,9.388183e-003
2.651684e+003,9.341970e-003
2.653613e+003,9.444933e-003
2.655541e+003,9.515882e-003
2.657470e+003,9.576272e-003
2.659398e+003,9.649071e-003
2.661327e+003,9.724322e-003
2.663255e+003,9.739332e-003
2.665184e+003,9.677665e-003
2.667112e+003,9.709108e-003
2.669041e+003,9.840085e-003
2.670969e+003,9.790130e-003
2.672898e+003,9.820564e-003
2.674826e+003,9.917539e-003
2.676755e+003,9.966493e-003
2.678683e+003,9.981851e-003
2.680612e+003,9.999448e-003
2.682540e+003,1.007262e-002
2.684469e+003,1.007021e-002
2.686397e+003,1.014459e-002
2.688326e+003,1.025809e-002
2.690254e+003,1.024730e-002
2.692183e+003,1.020374e-002
2.694111e+003,1.020819e-002
2.696040e+003,1.032764e-002
2.697968e+003,1.042388e-002
2.699897e+003,1.043342e-002
2.701825e+003,1.044798e-002
2.703754e+003,1.052205e-002
2.705682e+003,1.061969e-002
2.707611e+003,1.071002e-002
2.709539e+003,1.071620e-002
2.711468e+003,1.066920e-002
2.713396e+003,1.074408e-002
2.715325e+003,1.078939e-002
2.717253e+003,1.084031e-002
2.719182e+003,1.085183e-002
2.721110e+003,1.097398e-002
2.723039e+003,1.111781e-002
2.724967e+003,1.115588e-002
2.726896e+003,1.122623e-002
2.728824e+003,1.131063e-002
2.730753e+003,1.136804e-002
2.732681e+003,1.148315e-002
2.734610e+003,1.157175e-002
2.736538e+003,1.167055e-002
2.738467e+003,1.172518e-002
2.740395e+003,1.175657e-002
2.742324e+003,1.178214e-002
2.744252e+003,1.186934e-002
2.746181e+003,1.191316e-002
2.748109e+003,1.204764e-002
2.750038e+003,1.223494e-002
2.751966e+003,1.230944e-002
2.753895e+003,1.235403e-002
2.755823e+003,1.239610e-002
2.757752e+003,1.246590e-002
2.759680e+003,1.257373e-002
2.761609e+003,1.285927e-002
2.763537e+003,1.318752e-002
2.765466e+003,1.333749e-002
2.767394e+003,1.356684e-002
2.769323e+003,1.388827e-002
2.771251e+003,1.413695e-002
2.773180e+003,1.451033e-002
2.775108e+003,1.487627e-002
2.777037e+003,1.517736e-002
2.778965e+003,1.563773e-002
2.780894e+003,1.625573e-002
2.782822e+003,1.688047e-002
2.784750e+003,1.740928e-002
2.786679e+003,1.801789e-002
2.788608e+003,1.867401e-002
2.790536e+003,1.929042e-002
2.792465e+003,1.997380e-002
2.794393e+003,2.057518e-002
2.796322e+003,2.111014e-002
2.798250e+003,2.175034e-002
2.800178e+003,2.236705e-002
2.802107e+003,2.291262e-002
2.804036e+003,2.348642e-002
2.805964e+003,2.408775e-002
2.807893e+003,2.436866e-002
2.809821e+003,2.437911e-002
2.811750e+003,2.456791e-002
2.813678e+003,2.471246e-002
2.815606e+003,2.467623e-002
2.817535e+003,2.472211e-002
2.819464e+003,2.468104e-002
2.821392e+003,2.441759e-002
2.823321e+003,2.425064e-002
2.825249e+003,2.398903e-002
2.827177e+003,2.373227e-002
2.829106e+003,2.345086e-002
2.831034e+003,2.304152e-002
2.832963e+003,2.258350e-002
2.834892e+003,2.219629e-002
2.836820e+003,2.174016e-002
2.838749e+003,2.124673e-002
2.840677e+003,2.079876e-002
2.842605e+003,2.027102e-002
2.844534e+003,1.969537e-002
2.846462e+003,1.916408e-002
2.848391e+003,1.871327e-002
2.850320e+003,1.833509e-002
2.852248e+003,1.807554e-002
2.854177e+003,1.781151e-002
2.856105e+003,1.744708e-002
2.858033e+003,1.725380e-002
2.859962e+003,1.712994e-002
2.861890e+003,1.694306e-002
2.863819e+003,1.691251e-002
2.865748e+003,1.700480e-002
2.867676e+003,1.702469e-002
2.869604e+003,1.696477e-002
2.871533e+003,1.695970e-002
2.873461e+003,1.702100e-002
2.875390e+003,1.708954e-002
2.877319e+003,1.724469e-002
2.879247e+003,1.742611e-002
2.881176e+003,1.749141e-002
2.883104e+003,1.755267e-002
2.885032e+003,1.739852e-002
2.886961e+003,1.740431e-002
2.888889e+003,1.753994e-002
2.890818e+003,1.749196e-002
2.892747e+003,1.731231e-002
2.894675e+003,1.717078e-002
2.896604e+003,1.714989e-002
2.898532e+003,1.706325e-002
2.900460e+003,1.694868e-002
2.902389e+003,1.689714e-002
2.904317e+003,1.687268e-002
2.906246e+003,1.685890e-002
2.908175e+003,1.690396e-002
2.910103e+003,1.683476e-002
2.912031e+003,1.674222e-002
2.913960e+003,1.673674e-002
2.915888e+003,1.674728e-002
2.917817e+003,1.677022e-002
2.919745e+003,1.673010e-002
2.921674e+003,1.678075e-002
2.923603e+003,1.679787e-002
2.925531e+003,1.685839e-002
2.927459e+003,1.698189e-002
2.929388e+003,1.708892e-002
2.931316e+003,1.721591e-002
2.933245e+003,1.736407e-002
2.935173e+003,1.756965e-002
2.937102e+003,1.761896e-002
2.939031e+003,1.755302e-002
2.940959e+003,1.755954e-002
2.942887e+003,1.747009e-002
2.944816e+003,1.735103e-002
2.946744e+003,1.714417e-002
2.948673e+003,1.681210e-002
2.950601e+003,1.653978e-002
2.952530e+003,1.627242e-002
2.954458e+003,1.588268e-002
2.956387e+003,1.540581e-002
2.958315e+003,1.491869e-002
2.960244e+003,1.436225e-002
2.962172e+003,1.389426e-002
2.964101e+003,1.346290e-002
2.966029e+003,1.298454e-002
2.967958e+003,1.243286e-002
2.969886e+003,1.198997e-002
2.971815e+003,1.149632e-002
2.973743e+003,1.099787e-002
2.975672e+003,1.060227e-002
2.977600e+003,1.040135e-002
2.979529e+003,1.032316e-002
2.981457e+003,9.940625e-003
2.983386e+003,9.387405e-003
2.985314e+003,9.073586e-003
2.987243e+003,8.933133e-003
2.989171e+003,8.818252e-003
2.991100e+003,8.685147e-003
2.993028e+003,8.439129e-003
2.994957e+003,8.302291e-003
2.996885e+003,8.190515e-003
2.998814e+003,8.025369e-003
3.000742e+003,7.918658e-003
3.002671e+003,7.815246e-003
3.004599e+003,7.724304e-003
3.006528e+003,7.634156e-003
3.008456e+003,7.525451e-003
3.010385e+003,7.411651e-003
3.012313e+003,7.504617e-003
3.014242e+003,7.511158e-003
3.016170e+003,7.463862e-003
3.018099e+003,7.416909e-003
3.020027e+003,7.439525e-003
3.021956e+003,7.466019e-003
3.023884e+003,7.268633e-003
3.025813e+003,7.077331e-003
3.027741e+003,6.987453e-003
3.029670e+003,7.033349e-003
3.031598e+003,7.120745e-003
3.033527e+003,7.022607e-003
3.035455e+003,6.924357e-003
3.037384e+003,6.878303e-003
3.039312e+003,6.747980e-003
3.041241e+003,6.629908e-003
3.043169e+003,6.545302e-003
3.045098e+003,6.526331e-003
3.047026e+003,6.500870e-003
3.048955e+003,6.450422e-003
3.050883e+003,6.386866e-003
3.052812e+003,6.234505e-003
3.054740e+003,6.130283e-003
3.056669e+003,6.088648e-003
3.058597e+003,6.022962e-003
3.060526e+003,5.943311e-003
3.062454e+003,5.986679e-003
3.064383e+003,6.017250e-003
3.066311e+003,5.984227e-003
3.068240e+003,5.996589e-003
3.070168e+003,5.941094e-003
3.072097e+003,5.770421e-003
3.074025e+003,5.668191e-003
3.075954e+003,5.628983e-003
3.077882e+003,5.599882e-003
3.079811e+003,5.468264e-003
3.081739e+003,5.417433e-003
3.083668e+003,5.459372e-003
3.085596e+003,5.506719e-003
3.087525e+003,5.395022e-003
3.089453e+003,5.226978e-003
3.091382e+003,5.146132e-003
3.093310e+003,5.133626e-003
3.095239e+003,5.043479e-003
3.097167e+003,5.003322e-003
3.099096e+003,5.031780e-003
3.101024e+003,4.875906e-003
3.102953e+003,4.776264e-003
3.104881e+003,4.822765e-003
3.106810e+003,4.803534e-003
3.108738e+003,4.775024e-003
3.110667e+003,4.698785e-003
3.112595e+003,4.573768e-003
3.114524e+003,4.539380e-003
3.116452e+003,4.545039e-003
3.118381e+003,4.405137e-003
3.120309e+003,4.249889e-003
3.122238e+003,4.229445e-003
3.124166e+003,4.241089e-003
3.126095e+003,4.216865e-003
3.128023e+003,4.237308e-003
3.129952e+003,4.265381e-003
3.131880e+003,4.241691e-003
3.133809e+003,4.246409e-003
3.135737e+003,4.177421e-003
3.137666e+003,4.164207e-003
3.139594e+003,4.243933e-003
3.141523e+003,4.219609e-003
3.143451e+003,4.096536e-003
3.145380e+003,4.007540e-003
3.147308e+003,4.074996e-003
3.149237e+003,4.062220e-003
3.151165e+003,3.950861e-003
3.153094e+003,3.841670e-003
3.155022e+003,3.932237e-003
3.156951e+003,4.060012e-003
3.158879e+003,4.159992e-003
3.160808e+003,4.177120e-003
3.162736e+003,4.065129e-003
3.164665e+003,4.024963e-003
3.166593e+003,4.011887e-003
3.168522e+003,3.838661e-003
3.170450e+003,3.838661e-003
3.172379e+003,3.911541e-003
3.174307e+003,3.899471e-003
3.176236e+003,3.966409e-003
3.178164e+003,3.954204e-003
3.180093e+003,3.954338e-003
3.182021e+003,3.941365e-003
3.183950e+003,3.970455e-003
3.185878e+003,3.999414e-003
3.187807e+003,3.991823e-003
3.189735e+003,3.909267e-003
3.191664e+003,3.847453e-003
3.193592e+003,3.834449e-003
3.195521e+003,3.879345e-003
3.197449e+003,4.001922e-003
3.199378e+003,4.044059e-003
3.201306e+003,3.992960e-003
3.203235e+003,3.848757e-003
3.205163e+003,3.806304e-003
3.207092e+003,3.843408e-003
3.209020e+003,3.915820e-003
3.210948e+003,4.004630e-003
3.212877e+003,4.077237e-003
3.214806e+003,4.109748e-003
3.216734e+003,4.024194e-003
3.218663e+003,3.939559e-003
3.220591e+003,3.998711e-003
3.222520e+003,4.124366e-003
3.224448e+003,4.225765e-003
3.226376e+003,4.406811e-003
3.228305e+003,4.558566e-003
3.230234e+003,4.580565e-003
3.232162e+003,4.598178e-003
3.234091e+003,4.636020e-003
3.236019e+003,4.645364e-003
3.237948e+003,4.720054e-003
3.239876e+003,4.934582e-003
3.241804e+003,5.087059e-003
3.243733e+003,4.982307e-003
3.245662e+003,4.989983e-003
3.247590e+003,5.102145e-003
3.249519e+003,5.292813e-003
3.251447e+003,5.363354e-003
3.253375e+003,5.422130e-003
3.255304e+003,5.527424e-003
3.257232e+003,5.637912e-003
3.259161e+003,5.754372e-003
3.261090e+003,5.729896e-003
3.263018e+003,5.854708e-003
3.264947e+003,5.832879e-003
3.266875e+003,5.811757e-003
3.268803e+003,5.971562e-003
3.270732e+003,6.088951e-003
3.272660e+003,6.122621e-003
3.274589e+003,6.189096e-003
3.276518e+003,6.196591e-003
3.278446e+003,6.226438e-003
3.280375e+003,6.222371e-003
3.282303e+003,6.361985e-003
3.284231e+003,6.436768e-003
3.286160e+003,6.353714e-003
3.288088e+003,6.180492e-003
3.290017e+003,5.969378e-003
3.291946e+003,5.867739e-003
3.293874e+003,5.800038e-003
3.295802e+003,5.764915e-003
3.297731e+003,5.768172e-003
3.299659e+003,5.730601e-003
3.301588e+003,5.639994e-003
3.303516e+003,5.503665e-003
3.305445e+003,5.353425e-003
3.307374e+003,5.280101e-003
3.309302e+003,5.169436e-003
3.311230e+003,4.940782e-003
3.313159e+003,4.738042e-003
3.315087e+003,4.610133e-003
3.317016e+003,4.469173e-003
3.318944e+003,4.321030e-003
3.320873e+003,4.319022e-003
3.322802e+003,4.198732e-003
3.324730e+003,3.979985e-003
3.326658e+003,3.856445e-003
3.328587e+003,3.855810e-003
3.330515e+003,3.869851e-003
3.332444e+003,3.843040e-003
3.334372e+003,3.719840e-003
3.336301e+003,3.517334e-003
3.338229e+003,3.423681e-003
3.340158e+003,3.389585e-003
3.342086e+003,3.319531e-003
3.344015e+003,3.252125e-003
3.345943e+003,3.169043e-003
3.347872e+003,3.049003e-003
3.349800e+003,3.032253e-003
3.351729e+003,3.139004e-003
3.353657e+003,2.945376e-003
3.355586e+003,2.749266e-003
3.357514e+003,2.586509e-003
3.359443e+003,2.530082e-003
3.361371e+003,2.579010e-003
3.363300e+003,2.427612e-003
3.365229e+003,2.253451e-003
3.367157e+003,2.276399e-003
3.369085e+003,2.223576e-003
3.371014e+003,1.973368e-003
3.372942e+003,1.855355e-003
3.374871e+003,1.878116e-003
3.376799e+003,1.757102e-003
3.378728e+003,1.600470e-003
3.380656e+003,1.497953e-003
3.382585e+003,1.281326e-003
3.384513e+003,1.058098e-003
3.386442e+003,1.051422e-003
3.388370e+003,1.157389e-003
3.390299e+003,1.011002e-003
3.392227e+003,8.898310e-004
3.394156e+003,9.084577e-004
3.396084e+003,7.981699e-004
3.398013e+003,7.227575e-004
3.399941e+003,7.701875e-004
3.401870e+003,7.513344e-004
3.403798e+003,6.864168e-004
3.405727e+003,5.643741e-004
3.407655e+003,5.556818e-004
3.409584e+003,5.697489e-004
3.411512e+003,4.565951e-004
3.413441e+003,4.215370e-004
3.415369e+003,4.576565e-004
3.417298e+003,5.520988e-004
3.419226e+003,4.264124e-004
3.421155e+003,2.439682e-004
3.423083e+003,2.895223e-004
3.425012e+003,3.117707e-004
3.426940e+003,1.727290e-004
3.428869e+003,2.140655e-004
3.430797e+003,2.304090e-004
3.432726e+003,9.941350e-005
3.434654e+003,3.644897e-005
3.436583e+003,-7.103357e-005
3.438511e+003,-1.386107e-004
3.440440e+003,-5.228237e-005
3.442368e+003,7.952242e-006
3.444297e+003,3.919934e-005
3.446225e+003,3.744163e-006
3.448154e+003,-1.301310e-004
3.450082e+003,-1.735546e-004
3.452011e+003,-2.496926e-004
3.453939e+003,-4.355604e-004
3.455868e+003,-5.993786e-004
3.457796e+003,-4.081852e-004
3.459725e+003,-1.945526e-004
3.461653e+003,-1.858091e-004
3.463582e+003,-3.135336e-004
3.465510e+003,-3.661755e-004
3.467439e+003,-3.749155e-004
3.469367e+003,-6.049043e-004
3.471296e+003,-6.771293e-004
3.473224e+003,-5.767125e-004
3.475153e+003,-5.084092e-004
3.477081e+003,-5.316415e-004
3.479010e+003,-5.917682e-004
3.480938e+003,-4.490984e-004
3.482867e+003,-4.468807e-004
3.484795e+003,-5.444154e-004
3.486724e+003,-5.069530e-004
3.488652e+003,-4.973552e-004
3.490581e+003,-5.224745e-004
3.492509e+003,-5.677781e-004
3.494438e+003,-5.134728e-004
3.496366e+003,-3.599184e-004
3.498295e+003,-4.147064e-004
3.500223e+003,-5.473606e-004
3.502152e+003,-5.252213e-004
3.504080e+003,-5.920329e-004
3.506009e+003,-6.098013e-004
3.507937e+003,-5.875328e-004
3.509866e+003,-5.291594e-004
3.511794e+003,-5.452427e-004
3.513723e+003,-7.490775e-004
3.515651e+003,-9.263999e-004
3.517580e+003,-8.304723e-004
3.519508e+003,-8.347053e-004
3.521437e+003,-7.682287e-004
3.523365e+003,-7.486476e-004
3.525294e+003,-8.156232e-004
3.527222e+003,-9.205145e-004
3.529151e+003,-7.700809e-004
3.531079e+003,-6.547980e-004
3.533008e+003,-8.326218e-004
3.534936e+003,-8.391367e-004
3.536865e+003,-7.295286e-004
3.538793e+003,-7.553621e-004
3.540722e+003,-7.770266e-004
3.542650e+003,-7.329357e-004
3.544579e+003,-7.075971e-004
3.546507e+003,-7.190757e-004
3.548436e+003,-8.700230e-004
3.550364e+003,-9.672644e-004
3.552293e+003,-8.605656e-004
3.554221e+003,-9.418072e-004
3.556150e+003,-9.972821e-004
3.558078e+003,-1.013083e-003
3.560007e+003,-1.094264e-003
3.561935e+003,-1.013083e-003
3.563864e+003,-1.058832e-003
3.565792e+003,-1.145555e-003
3.567721e+003,-9.766204e-004
3.569649e+003,-9.458738e-004
3.571578e+003,-1.079027e-003
3.573506e+003,-1.080646e-003
3.575435e+003,-9.330786e-004
3.577363e+003,-8.641370e-004
3.579292e+003,-9.339052e-004
3.581220e+003,-1.066500e-003
3.583149e+003,-1.217360e-003
3.585077e+003,-1.085175e-003
3.587006e+003,-1.119613e-003
3.588934e+003,-1.174404e-003
3.590863e+003,-1.214254e-003
3.592791e+003,-1.375566e-003
3.594720e+003,-1.510139e-003
3.596648e+003,-1.333650e-003
3.598577e+003,-1.080679e-003
3.600505e+003,-1.040156e-003
3.602434e+003,-1.190298e-003
3.604362e+003,-1.066335e-003
3.606291e+003,-1.186234e-003
3.608219e+003,-1.311055e-003
3.610148e+003,-1.174371e-003
3.612076e+003,-1.202094e-003
3.614005e+003,-1.302136e-003
3.615933e+003,-1.333617e-003
3.617862e+003,-1.148992e-003
3.619790e+003,-9.853480e-004
3.621719e+003,-1.043032e-003
3.623647e+003,-1.189439e-003
3.625576e+003,-1.303688e-003
3.627504e+003,-1.428839e-003
3.629433e+003,-1.227735e-003
3.631361e+003,-1.207910e-003
3.633290e+003,-1.374245e-003
3.635218e+003,-1.520771e-003
3.637146e+003,-1.507828e-003
3.639075e+003,-1.423720e-003
3.641004e+003,-1.387126e-003
3.642932e+003,-1.475270e-003
3.644861e+003,-1.638597e-003
3.646789e+003,-1.607897e-003
3.648718e+003,-1.546822e-003
3.650646e+003,-1.486002e-003
3.652574e+003,-1.386201e-003
3.654503e+003,-1.567258e-003
3.656432e+003,-1.657016e-003
3.658360e+003,-1.614599e-003
3.660289e+003,-1.564056e-003
3.662217e+003,-1.645925e-003
3.664146e+003,-1.791964e-003
3.666074e+003,-1.868314e-003
3.668002e+003,-1.923308e-003
3.669931e+003,-1.866961e-003
3.671860e+003,-1.885898e-003
3.673788e+003,-2.129365e-003
3.675717e+003,-1.856437e-003
3.677645e+003,-1.573597e-003
3.679573e+003,-1.715997e-003
3.681502e+003,-1.663717e-003
3.683430e+003,-1.720188e-003
3.685359e+003,-1.913147e-003
3.687288e+003,-1.853665e-003
3.689216e+003,-1.668568e-003
3.691145e+003,-1.608822e-003
3.693073e+003,-1.655564e-003
3.695001e+003,-1.830998e-003
3.696930e+003,-1.856041e-003
3.698858e+003,-1.826808e-003
3.700787e+003,-1.649259e-003
3.702716e+003,-1.449776e-003
3.704644e+003,-1.426031e-003
3.706573e+003,-1.468962e-003
3.708501e+003,-1.486002e-003
3.710429e+003,-1.398058e-003
3.712358e+003,-1.273890e-003
3.714286e+003,-1.334740e-003
3.716215e+003,-1.588519e-003
3.718144e+003,-1.457768e-003
3.720072e+003,-1.186069e-003
3.722000e+003,-1.129395e-003
3.723929e+003,-1.202954e-003
3.725857e+003,-1.142350e-003
3.727786e+003,-1.008059e-003
3.729714e+003,-1.139904e-003
3.731643e+003,-1.273626e-003
3.733572e+003,-1.361231e-003
3.735500e+003,-1.150512e-003
3.737428e+003,-9.385340e-004
3.739357e+003,-1.033016e-003
3.741285e+003,-9.242838e-004
3.743214e+003,-1.058534e-003
3.745142e+003,-8.162847e-004
3.747071e+003,-8.117538e-004
3.749000e+003,-7.462329e-004
3.750928e+003,-5.472613e-004
3.752856e+003,-3.899782e-004
3.754785e+003,-5.304501e-004
3.756713e+003,-5.412385e-004
3.758642e+003,-5.620202e-004
3.760570e+003,-4.850433e-004
3.762499e+003,-3.209171e-004
3.764427e+003,-3.867339e-004
3.766356e+003,-4.605839e-004
3.768284e+003,-4.920267e-004
3.770213e+003,-3.635601e-004
3.772141e+003,-3.288965e-004
3.774070e+003,-3.402527e-004
3.775998e+003,-3.064480e-004
3.777927e+003,-5.091373e-004
3.779855e+003,-5.867386e-004
3.781784e+003,-5.176096e-004
3.783712e+003,-4.318200e-004
3.785641e+003,-4.259280e-004
3.787569e+003,-5.314760e-004
3.789498e+003,-4.038817e-004
3.791426e+003,-3.114146e-004
3.793355e+003,-3.879588e-004
3.795283e+003,-3.727967e-004
3.797212e+003,-4.017631e-004
3.799140e+003,-6.395791e-004
3.801069e+003,-5.369033e-004
3.802997e+003,-3.948445e-004
3.804926e+003,-7.566521e-004
3.806854e+003,-6.674360e-004
3.808783e+003,-6.356419e-004
3.810711e+003,-6.684285e-004
3.812640e+003,-5.005986e-004
3.814568e+003,-4.443320e-004
3.816497e+003,-1.693151e-004
3.818425e+003,-1.409625e-004
3.820354e+003,-1.075729e-004
3.822282e+003,-9.766816e-005
3.824211e+003,-4.057686e-004
3.826139e+003,-5.629137e-004
3.828068e+003,-3.734257e-004
3.829996e+003,-2.970113e-004
3.831925e+003,-2.897599e-004
3.833853e+003,-2.623092e-004
3.835782e+003,-2.016070e-004
3.837710e+003,-3.707541e-005
3.839639e+003,-4.820735e-005
3.841567e+003,-9.236788e-005
3.843496e+003,-1.632207e-004
3.845424e+003,-3.191623e-004
3.847353e+003,-5.906763e-004
3.849281e+003,-5.659250e-004
3.851210e+003,-2.901903e-004
3.853138e+003,-1.358493e-006
3.855067e+003,4.416992e-005
3.856995e+003,-1.486801e-004
3.858924e+003,-2.365457e-004
3.860852e+003,-2.731043e-004
3.862781e+003,-1.522905e-004
3.864709e+003,-2.014503e-005
3.866638e+003,-1.886574e-004
3.868566e+003,-3.852773e-004
3.870495e+003,-1.791519e-004
3.872423e+003,-1.665329e-004
3.874352e+003,6.478188e-005
3.876280e+003,8.672044e-005
3.878209e+003,-1.352983e-004
3.880137e+003,-2.141919e-004
3.882066e+003,-1.157549e-004
3.883994e+003,-1.322178e-004
3.885923e+003,-3.710996e-006
3.887851e+003,-1.928967e-004
3.889780e+003,-2.804222e-004
3.891708e+003,-2.066410e-004
3.893637e+003,-4.633642e-004
3.895565e+003,-4.360238e-004
3.897494e+003,-2.063760e-004
3.899422e+003,1.008054e-004
3.901351e+003,9.450856e-005
3.903279e+003,9.608882e-007
3.905208e+003,3.393058e-005
3.907136e+003,-6.726158e-006
3.909065e+003,-1.115480e-004
3.910993e+003,-3.138316e-004
3.912922e+003,-1.684870e-004
3.914850e+003,1.325364e-006
3.916779e+003,-2.415131e-004
3.918707e+003,-2.377710e-004
3.920636e+003,-9.100967e-005
3.922564e+003,-3.584286e-004
3.924493e+003,-4.345674e-004
3.926421e+003,-3.661424e-004
3.928350e+003,-2.697598e-004
3.930278e+003,-2.013420e-004
3.932207e+003,-8.375478e-005
3.934135e+003,1.681547e-004
3.936064e+003,2.706237e-004
3.937992e+003,1.184704e-004
3.939921e+003,-5.430329e-005
3.941849e+003,-7.749361e-005
3.943778e+003,5.387929e-005
3.945706e+003,-4.721344e-005
3.947635e+003,-2.078001e-004
3.949563e+003,1.267893e-004
3.951492e+003,1.809827e-004
3.953420e+003,-6.709125e-005
3.955349e+003,-3.969276e-005
3.957277e+003,8.599134e-005
3.959206e+003,3.909993e-005
3.961134e+003,-5.844451e-005
3.963063e+003,1.601995e-004
3.964991e+003,6.196507e-005
3.966920e+003,-7.934878e-005
3.968848e+003,1.111458e-004
3.970777e+003,1.324901e-004
3.972705e+003,4.738194e-006
3.974634e+003,1.200612e-004
3.976562e+003,2.376692e-004
3.978491e+003,1.328878e-004
3.980419e+003,5.255377e-005
3.982348e+003,-7.471084e-005
3.984276e+003,-4.767727e-005
3.986205e+003,6.501385e-005
3.988133e+003,2.774205e-004
3.990062e+003,2.494715e-004
3.991990e+003,1.205252e-004
3.993919e+003,1.104829e-004
3.995847e+003,9.020022e-005
3.997776e+003,-1.030456e-005
3.999704e+003,-4.618640e-005
4.001633e+003,0.000000e+000
