3.991989e+002,3.727193e-003
4.011274e+002,5.853365e-003
4.030559e+002,2.441573e-003
4.049844e+002,6.109449e-003
4.069129e+002,1.027332e-002
4.088414e+002,1.806262e-002
4.107699e+002,1.881111e-002
4.126984e+002,1.686862e-002
4.146269e+002,1.102492e-002
4.165554e+002,1.038122e-002
4.184839e+002,1.381534e-002
4.204124e+002,1.377002e-002
4.223409e+002,1.498062e-002
4.242694e+002,1.596407e-002
4.261979e+002,1.058017e-002
4.281264e+002,7.992056e-003
4.300549e+002,7.090163e-003
4.319834e+002,3.083874e-003
4.339119e+002,1.971270e-003
4.358404e+002,6.397324e-003
4.377689e+002,1.129992e-002
4.396974e+002,9.400643e-003
4.416259e+002,7.251416e-003
4.435544e+002,7.796186e-003
4.454829e+002,1.059860e-002
4.474114e+002,1.481061e-002
4.493399e+002,1.261197e-002
4.512684e+002,5.278558e-003
4.531969e+002,4.440753e-003
4.551254e+002,1.289009e-002
4.570539e+002,1.443212e-002
4.589824e+002,7.190809e-003
4.609109e+002,7.848746e-003
4.628394e+002,1.115962e-002
4.647679e+002,9.947846e-003
4.666964e+002,9.570243e-003
4.686249e+002,8.288039e-003
4.705533e+002,9.001459e-003
4.724819e+002,1.037515e-002
4.744103e+002,9.900521e-003
4.763389e+002,1.132403e-002
4.782673e+002,1.178602e-002
4.801959e+002,1.100439e-002
4.821243e+002,1.192788e-002
4.840529e+002,1.268521e-002
4.859813e+002,1.031855e-002
4.879099e+002,7.166352e-003
4.898383e+002,5.523967e-003
4.917668e+002,5.749973e-003
4.936953e+002,6.860530e-003
4.956238e+002,9.487026e-003
4.975523e+002,1.018672e-002
4.994808e+002,9.187959e-003
5.014093e+002,8.596964e-003
5.033378e+002,5.755648e-003
5.052663e+002,5.802455e-003
5.071948e+002,6.937352e-003
5.091233e+002,6.523069e-003
5.110518e+002,5.332090e-003
5.129803e+002,4.218672e-003
5.149088e+002,4.136040e-003
5.168373e+002,6.380713e-003
5.187658e+002,6.851643e-003
5.206943e+002,5.576791e-003
5.226228e+002,4.345394e-003
5.245513e+002,5.557762e-003
5.264798e+002,6.797217e-003
5.284083e+002,6.617931e-003
5.303368e+002,4.284287e-003
5.322653e+002,3.275761e-003
5.341938e+002,4.411664e-003
5.361223e+002,5.612402e-003
5.380508e+002,6.497944e-003
5.399792e+002,7.802392e-003
5.419078e+002,5.554875e-003
5.438363e+002,3.677333e-003
5.457648e+002,3.755299e-003
5.476932e+002,4.623663e-003
5.496218e+002,4.768861e-003
5.515503e+002,4.898524e-003
5.534788e+002,4.950300e-003
5.554072e+002,5.256926e-003
5.573358e+002,4.748225e-003
5.592643e+002,4.927645e-003
5.611927e+002,4.733653e-003
5.631212e+002,4.698718e-003
5.650497e+002,5.346380e-003
5.669783e+002,6.361783e-003
5.689067e+002,6.425738e-003
5.708352e+002,5.738222e-003
5.727637e+002,4.523844e-003
5.746923e+002,4.089780e-003
5.766207e+002,6.353613e-003
5.785492e+002,8.495046e-003
5.804777e+002,5.099999e-003
5.824063e+002,2.161635e-003
5.843347e+002,5.342556e-003
5.862632e+002,7.008060e-003
5.881917e+002,6.243412e-003
5.901202e+002,5.022394e-003
5.920487e+002,3.136935e-003
5.939772e+002,3.066521e-003
5.959057e+002,4.274784e-003
5.978342e+002,4.882138e-003
5.997627e+002,4.585320e-003
6.016912e+002,3.610139e-003
6.036197e+002,3.116377e-003
6.055482e+002,3.729933e-003
6.074767e+002,4.160962e-003
6.094052e+002,4.062320e-003
6.113337e+002,4.679559e-003
6.132622e+002,4.765276e-003
6.151907e+002,4.085465e-003
6.171192e+002,4.517952e-003
6.190477e+002,5.392607e-003
6.209762e+002,4.674769e-003
6.229047e+002,3.322369e-003
6.248332e+002,2.333760e-003
6.267617e+002,2.393027e-003
6.286902e+002,2.948745e-003
6.306187e+002,3.941131e-003
6.325472e+002,4.376085e-003
6.344756e+002,4.527527e-003
6.364042e+002,4.642417e-003
6.383326e+002,4.598178e-003
6.402612e+002,4.329698e-003
6.421896e+002,3.964369e-003
6.441182e+002,3.601486e-003
6.460466e+002,3.898435e-003
6.479752e+002,4.320629e-003
6.499036e+002,4.164006e-003
6.518322e+002,3.824688e-003
6.537606e+002,3.975471e-003
6.556891e+002,4.148216e-003
6.576177e+002,4.184380e-003
6.595461e+002,3.877306e-003
6.614746e+002,3.080370e-003
6.634031e+002,2.751800e-003
6.653317e+002,4.315408e-003
6.672601e+002,8.404198e-003
6.691886e+002,7.608933e-003
6.711171e+002,5.087159e-003
6.730457e+002,5.130407e-003
6.749741e+002,5.043009e-003
6.769026e+002,4.609631e-003
6.788311e+002,4.611741e-003
6.807596e+002,5.108179e-003
6.826881e+002,5.096680e-003
6.846166e+002,5.004093e-003
6.865451e+002,4.848865e-003
6.884736e+002,4.614554e-003
6.904021e+002,4.702402e-003
6.923306e+002,4.495085e-003
6.942591e+002,4.352188e-003
6.961876e+002,4.910688e-003
6.981161e+002,5.251393e-003
7.000446e+002,4.733553e-003
7.019731e+002,4.335488e-003
7.039016e+002,4.694698e-003
7.058301e+002,4.867763e-003
7.077585e+002,4.485845e-003
7.096871e+002,4.334819e-003
7.116156e+002,4.496458e-003
7.135441e+002,4.162199e-003
7.154725e+002,3.921671e-003
7.174011e+002,4.060748e-003
7.193296e+002,4.570921e-003
7.212581e+002,5.075928e-003
7.231865e+002,5.192606e-003
7.251151e+002,5.002719e-003
7.270436e+002,5.209306e-003
7.289720e+002,5.545277e-003
7.309005e+002,5.699848e-003
7.328290e+002,5.590384e-003
7.347576e+002,5.302137e-003
7.366860e+002,5.249716e-003
7.386145e+002,5.085885e-003
7.405430e+002,5.523799e-003
7.424716e+002,5.889973e-003
7.444000e+002,5.731272e-003
7.463285e+002,5.902333e-003
7.482570e+002,5.956714e-003
7.501855e+002,6.197902e-003
7.521140e+002,6.577763e-003
7.540425e+002,6.754139e-003
7.559710e+002,6.790688e-003
7.578995e+002,7.216210e-003
7.598280e+002,7.309572e-003
7.617565e+002,7.304349e-003
7.636850e+002,7.418526e-003
7.656135e+002,7.723731e-003
7.675420e+002,7.655671e-003
7.694705e+002,7.493021e-003
7.713990e+002,7.370904e-003
7.733275e+002,6.892005e-003
7.752560e+002,6.785202e-003
7.771844e+002,6.874971e-003
7.791130e+002,6.565721e-003
7.810415e+002,6.785538e-003
7.829700e+002,6.954254e-003
7.848984e+002,6.720957e-003
7.868270e+002,6.215884e-003
7.887555e+002,5.900620e-003
7.906840e+002,6.192490e-003
7.926124e+002,6.677954e-003
7.945410e+002,7.090028e-003
7.964695e+002,7.315368e-003
7.983979e+002,7.353818e-003
8.003264e+002,7.274394e-003
8.022549e+002,6.836328e-003
8.041835e+002,6.765312e-003
8.061119e+002,6.860395e-003
8.080404e+002,6.691750e-003
8.099689e+002,7.183061e-003
8.118975e+002,8.113470e-003
8.138259e+002,8.558201e-003
8.157545e+002,8.065366e-003
8.176830e+002,7.931650e-003
8.196115e+002,7.736210e-003
8.215399e+002,6.861439e-003
8.234684e+002,6.467338e-003
8.253970e+002,6.688789e-003
8.273254e+002,6.617426e-003
8.292539e+002,5.913282e-003
8.311824e+002,5.425754e-003
8.331110e+002,5.472157e-003
8.350394e+002,5.652380e-003
8.369679e+002,5.914525e-003
8.388964e+002,5.745877e-003
8.408250e+002,5.653085e-003
8.427534e+002,5.437564e-003
8.446819e+002,4.952311e-003
8.466104e+002,4.815796e-003
8.485389e+002,4.826115e-003
8.504674e+002,4.938269e-003
8.523959e+002,4.935387e-003
8.543244e+002,4.999535e-003
8.562529e+002,4.978989e-003
8.581814e+002,4.900635e-003
8.601099e+002,4.915715e-003
8.620384e+002,4.733553e-003
8.639669e+002,4.914743e-003
8.658954e+002,5.210110e-003
8.678239e+002,5.281879e-003
8.697524e+002,5.529135e-003
8.716809e+002,5.330413e-003
8.736094e+002,4.823435e-003
8.755378e+002,4.809699e-003
8.774664e+002,5.203471e-003
8.793949e+002,5.273863e-003
8.813234e+002,5.047535e-003
8.832518e+002,4.944871e-003
8.851804e+002,4.629590e-003
8.871089e+002,4.672760e-003
8.890374e+002,4.577350e-003
8.909658e+002,4.494784e-003
8.928943e+002,4.622390e-003
8.948229e+002,4.539279e-003
8.967513e+002,4.330836e-003
8.986798e+002,4.219040e-003
9.006083e+002,4.133397e-003
9.025369e+002,4.168991e-003
9.044653e+002,4.398878e-003
9.063938e+002,4.340307e-003
9.083223e+002,3.897098e-003
9.102509e+002,3.752291e-003
9.121793e+002,4.232557e-003
9.141078e+002,4.046333e-003
9.160364e+002,3.528324e-003
9.179648e+002,3.595639e-003
9.198933e+002,3.608502e-003
9.218218e+002,3.776857e-003
9.237504e+002,3.871489e-003
9.256788e+002,3.656950e-003
9.276073e+002,3.436372e-003
9.295358e+002,3.442183e-003
9.314644e+002,3.727761e-003
9.333928e+002,3.896295e-003
9.353213e+002,3.998110e-003
9.372498e+002,4.172637e-003
9.391783e+002,3.989482e-003
9.411068e+002,3.808710e-003
9.430353e+002,4.097305e-003
9.449637e+002,4.299982e-003
9.468923e+002,4.425555e-003
9.488208e+002,4.129985e-003
9.507493e+002,3.993929e-003
9.526777e+002,4.195788e-003
9.546063e+002,4.266586e-003
9.565348e+002,4.412367e-003
9.584633e+002,4.291080e-003
9.603917e+002,4.094997e-003
9.623203e+002,4.200271e-003
9.642488e+002,4.236238e-003
9.661772e+002,4.116773e-003
9.681057e+002,4.128045e-003
9.700343e+002,3.824087e-003
9.719628e+002,3.558523e-003
9.738912e+002,3.561630e-003
9.758197e+002,3.298830e-003
9.777483e+002,3.275360e-003
9.796768e+002,3.315190e-003
9.816052e+002,3.295859e-003
9.835337e+002,3.476350e-003
9.854623e+002,3.519739e-003
9.873907e+002,3.359164e-003
9.893192e+002,3.178688e-003
9.912477e+002,3.163535e-003
9.931763e+002,3.312119e-003
9.951047e+002,3.444822e-003
9.970332e+002,3.584614e-003
9.989617e+002,3.767966e-003
1.000890e+003,3.935313e-003
1.002819e+003,4.147045e-003
1.004747e+003,4.311393e-003
1.006676e+003,4.733285e-003
1.008604e+003,4.927545e-003
1.010533e+003,4.976576e-003
1.012461e+003,5.193847e-003
1.014390e+003,5.439308e-003
1.016318e+003,5.892189e-003
1.018247e+003,6.240757e-003
1.020175e+003,6.448337e-003
1.022104e+003,6.617225e-003
1.024032e+003,6.706252e-003
1.025961e+003,6.996106e-003
1.027889e+003,7.075310e-003
1.029818e+003,7.094170e-003
1.031746e+003,7.292691e-003
1.033675e+003,7.551007e-003
1.035603e+003,7.851918e-003
1.037532e+003,7.848307e-003
1.039460e+003,7.555659e-003
1.041389e+003,7.317019e-003
1.043317e+003,8.009303e-003
1.045246e+003,8.820450e-003
1.047174e+003,8.604974e-003
1.049103e+003,8.060911e-003
1.051031e+003,7.844901e-003
1.052960e+003,8.634851e-003
1.054888e+003,9.191817e-003
1.056817e+003,9.071015e-003
1.058745e+003,8.463083e-003
1.060674e+003,8.091730e-003
1.062602e+003,8.509574e-003
1.064531e+003,8.901611e-003
1.066459e+003,8.745389e-003
1.068388e+003,8.916999e-003
1.070316e+003,9.148263e-003
1.072245e+003,8.988368e-003
1.074173e+003,8.901035e-003
1.076102e+003,8.850105e-003
1.078030e+003,9.024463e-003
1.079959e+003,8.776663e-003
1.081887e+003,8.706613e-003
1.083816e+003,9.097643e-003
1.085744e+003,9.237304e-003
1.087673e+003,9.062286e-003
1.089601e+003,9.218181e-003
1.091530e+003,9.608351e-003
1.093458e+003,9.875980e-003
1.095387e+003,9.801619e-003
1.097315e+003,9.612517e-003
1.099244e+003,9.643616e-003
1.101172e+003,9.616989e-003
1.103101e+003,9.431897e-003
1.105029e+003,9.491429e-003
1.106958e+003,9.649240e-003
1.108886e+003,9.868896e-003
1.110815e+003,9.866591e-003
1.112743e+003,9.600526e-003
1.114672e+003,9.511580e-003
1.116600e+003,9.756038e-003
1.118529e+003,9.956390e-003
1.120457e+003,9.848084e-003
1.122386e+003,9.864659e-003
1.124314e+003,9.954016e-003
1.126243e+003,9.732691e-003
1.128171e+003,9.403589e-003
1.130100e+003,9.663469e-003
1.132028e+003,9.837849e-003
1.133957e+003,9.628609e-003
1.135885e+003,9.393940e-003
1.137814e+003,9.034003e-003
1.139742e+003,8.577160e-003
1.141671e+003,8.338870e-003
1.143599e+003,8.255146e-003
1.145528e+003,8.051595e-003
1.147456e+003,7.632201e-003
1.149385e+003,7.336126e-003
1.151313e+003,7.040185e-003
1.153242e+003,6.836261e-003
1.155170e+003,6.677079e-003
1.157099e+003,6.459671e-003
1.159027e+003,6.233698e-003
1.160956e+003,5.878688e-003
1.162884e+003,5.745575e-003
1.164813e+003,5.786841e-003
1.166741e+003,5.785229e-003
1.168670e+003,5.640631e-003
1.170598e+003,5.547660e-003
1.172526e+003,5.497491e-003
1.174455e+003,5.336653e-003
1.176384e+003,5.365467e-003
1.178312e+003,5.394284e-003
1.180240e+003,5.213631e-003
1.182169e+003,5.208702e-003
1.184098e+003,5.102111e-003
1.186026e+003,4.847760e-003
1.187954e+003,4.836468e-003
1.189883e+003,4.781859e-003
1.191812e+003,4.663282e-003
1.193740e+003,4.592151e-003
1.195668e+003,4.330066e-003
1.197597e+003,4.079009e-003
1.199526e+003,4.050481e-003
1.201454e+003,4.212014e-003
1.203382e+003,4.455314e-003
1.205311e+003,4.435932e-003
1.207240e+003,4.507506e-003
1.209168e+003,4.448017e-003
1.211096e+003,4.435163e-003
1.213025e+003,4.783567e-003
1.214953e+003,4.840925e-003
1.216882e+003,4.644627e-003
1.218810e+003,4.597676e-003
1.220739e+003,4.585789e-003
1.222667e+003,4.555552e-003
1.224596e+003,4.583612e-003
1.226524e+003,4.568276e-003
1.228453e+003,4.573131e-003
1.230381e+003,4.424551e-003
1.232310e+003,4.378595e-003
1.234238e+003,4.454511e-003
1.236167e+003,4.415379e-003
1.238095e+003,4.438644e-003
1.240024e+003,4.579460e-003
1.241952e+003,4.705885e-003
1.243881e+003,4.694464e-003
1.245809e+003,4.738309e-003
1.247738e+003,4.926271e-003
1.249666e+003,5.210178e-003
1.251595e+003,5.410690e-003
1.253523e+003,5.607535e-003
1.255452e+003,5.847353e-003
1.257380e+003,6.025213e-003
1.259309e+003,6.370155e-003
1.261237e+003,6.756259e-003
1.263166e+003,6.973850e-003
1.265094e+003,7.347314e-003
1.267023e+003,7.727778e-003
1.268951e+003,7.970660e-003
1.270880e+003,8.204662e-003
1.272808e+003,8.285304e-003
1.274737e+003,8.546137e-003
1.276665e+003,8.923222e-003
1.278594e+003,9.196725e-003
1.280522e+003,9.496476e-003
1.282451e+003,9.734758e-003
1.284379e+003,1.017861e-002
1.286308e+003,1.063538e-002
1.288236e+003,1.100497e-002
1.290165e+003,1.146669e-002
1.292093e+003,1.190421e-002
1.294022e+003,1.220011e-002
1.295950e+003,1.245751e-002
1.297879e+003,1.268019e-002
1.299807e+003,1.270871e-002
1.301736e+003,1.271383e-002
1.303664e+003,1.257765e-002
1.305593e+003,1.239368e-002
1.307521e+003,1.236572e-002
1.309450e+003,1.217837e-002
1.311378e+003,1.174888e-002
1.313307e+003,1.133525e-002
1.315235e+003,1.109470e-002
1.317164e+003,1.087367e-002
1.319092e+003,1.045355e-002
1.321021e+003,9.945880e-003
1.322949e+003,9.634842e-003
1.324878e+003,9.372271e-003
1.326806e+003,9.084515e-003
1.328735e+003,8.956674e-003
1.330663e+003,8.852676e-003
1.332592e+003,8.887745e-003
1.334520e+003,8.850038e-003
1.336449e+003,8.829445e-003
1.338377e+003,8.951836e-003
1.340306e+003,8.986779e-003
1.342234e+003,8.848110e-003
1.344163e+003,8.747553e-003
1.346091e+003,8.604872e-003
1.348020e+003,8.612544e-003
1.349948e+003,8.543974e-003
1.351877e+003,8.351637e-003
1.353805e+003,8.334039e-003
1.355734e+003,8.353394e-003
1.357662e+003,8.303709e-003
1.359591e+003,8.265851e-003
1.361519e+003,8.333870e-003
1.363448e+003,8.238970e-003
1.365376e+003,7.836162e-003
1.367305e+003,7.642924e-003
1.369233e+003,7.526328e-003
1.371162e+003,7.442053e-003
1.373090e+003,7.649770e-003
1.375019e+003,7.770312e-003
1.376947e+003,7.676007e-003
1.378876e+003,7.722111e-003
1.380804e+003,7.747510e-003
1.382733e+003,7.651287e-003
1.384661e+003,7.509606e-003
1.386590e+003,7.525350e-003
1.388518e+003,7.313211e-003
1.390447e+003,6.872749e-003
1.392375e+003,6.702618e-003
1.394304e+003,6.714900e-003
1.396232e+003,6.515097e-003
1.398161e+003,6.474771e-003
1.400089e+003,6.503157e-003
1.402018e+003,6.271279e-003
1.403946e+003,6.075208e-003
1.405875e+003,5.912913e-003
1.407803e+003,5.694745e-003
1.409732e+003,5.580785e-003
1.411660e+003,5.623076e-003
1.413589e+003,5.742755e-003
1.415517e+003,5.979221e-003
1.417446e+003,6.642390e-003
1.419374e+003,7.420650e-003
1.421303e+003,7.576665e-003
1.423231e+003,8.133253e-003
1.425160e+003,8.863700e-003
1.427088e+003,9.277718e-003
1.429017e+003,9.699248e-003
1.430945e+003,1.000836e-002
1.432874e+003,1.045491e-002
1.434802e+003,1.117822e-002
1.436731e+003,1.186896e-002
1.438659e+003,1.183147e-002
1.440588e+003,1.206481e-002
1.442516e+003,1.266337e-002
1.444445e+003,1.311279e-002
1.446373e+003,1.377707e-002
1.448302e+003,1.441533e-002
1.450230e+003,1.488032e-002
1.452159e+003,1.530629e-002
1.454087e+003,1.593193e-002
1.456016e+003,1.711619e-002
1.457944e+003,1.769584e-002
1.459873e+003,1.735876e-002
1.461801e+003,1.719202e-002
1.463730e+003,1.739824e-002
1.465658e+003,1.747661e-002
1.467587e+003,1.711984e-002
1.469515e+003,1.707845e-002
1.471444e+003,1.738621e-002
1.473372e+003,1.716296e-002
1.475301e+003,1.651183e-002
1.477229e+003,1.580907e-002
1.479158e+003,1.512813e-002
1.481086e+003,1.467388e-002
1.483015e+003,1.397103e-002
1.484943e+003,1.333403e-002
1.486872e+003,1.313444e-002
1.488800e+003,1.300677e-002
1.490729e+003,1.258427e-002
1.492657e+003,1.177822e-002
1.494586e+003,1.140277e-002
1.496514e+003,1.124966e-002
1.498443e+003,1.064610e-002
1.500371e+003,9.974663e-003
1.502300e+003,9.542977e-003
1.504228e+003,9.736926e-003
1.506157e+003,1.038900e-002
1.508085e+003,9.804736e-003
1.510014e+003,8.843173e-003
1.511942e+003,8.456360e-003
1.513871e+003,8.324514e-003
1.515799e+003,8.450920e-003
1.517728e+003,8.435345e-003
1.519656e+003,8.615349e-003
1.521585e+003,8.960902e-003
1.523513e+003,8.756140e-003
1.525442e+003,8.823730e-003
1.527370e+003,8.780078e-003
1.529299e+003,8.760502e-003
1.531227e+003,8.887948e-003
1.533156e+003,9.458818e-003
1.535084e+003,9.658760e-003
1.537013e+003,9.974798e-003
1.538941e+003,1.104239e-002
1.540870e+003,1.153854e-002
1.542798e+003,1.140222e-002
1.544727e+003,1.131216e-002
1.546655e+003,1.109833e-002
1.548584e+003,1.138892e-002
1.550512e+003,1.174203e-002
1.552441e+003,1.202508e-002
1.554369e+003,1.248636e-002
1.556298e+003,1.301336e-002
1.558226e+003,1.433951e-002
1.560155e+003,1.470356e-002
1.562083e+003,1.417574e-002
1.564012e+003,1.440198e-002
1.565940e+003,1.468142e-002
1.567869e+003,1.510891e-002
1.569797e+003,1.573379e-002
1.571726e+003,1.568033e-002
1.573654e+003,1.578069e-002
1.575583e+003,1.637618e-002
1.577511e+003,1.625219e-002
1.579440e+003,1.580938e-002
1.581368e+003,1.573839e-002
1.583297e+003,1.555338e-002
1.585225e+003,1.543609e-002
1.587154e+003,1.519908e-002
1.589082e+003,1.481576e-002
1.591010e+003,1.442506e-002
1.592939e+003,1.408934e-002
1.594868e+003,1.373784e-002
1.596796e+003,1.329806e-002
1.598724e+003,1.281118e-002
1.600653e+003,1.223402e-002
1.602582e+003,1.175766e-002
1.604510e+003,1.118386e-002
1.606438e+003,1.061772e-002
1.608367e+003,1.023336e-002
1.610296e+003,9.831307e-003
1.612224e+003,9.340581e-003
1.614152e+003,9.194931e-003
1.616081e+003,9.362147e-003
1.618010e+003,8.901949e-003
1.619938e+003,8.319212e-003
1.621866e+003,8.315193e-003
1.623795e+003,8.161242e-003
1.625724e+003,7.785087e-003
1.627652e+003,7.509674e-003
1.629580e+003,7.189428e-003
1.631509e+003,6.966914e-003
1.633438e+003,7.247878e-003
1.635366e+003,7.702178e-003
1.637294e+003,7.199433e-003
1.639223e+003,6.417870e-003
1.641151e+003,5.927423e-003
1.643080e+003,5.575314e-003
1.645008e+003,5.673394e-003
1.646937e+003,5.655770e-003
1.648865e+003,4.976107e-003
1.650794e+003,4.907203e-003
1.652722e+003,5.741546e-003
1.654651e+003,4.868233e-003
1.656579e+003,3.759544e-003
1.658508e+003,3.331718e-003
1.660436e+003,3.193041e-003
1.662365e+003,3.252693e-003
1.664293e+003,3.016738e-003
1.666222e+003,2.707988e-003
1.668150e+003,2.806222e-003
1.670079e+003,2.786647e-003
1.672007e+003,2.391694e-003
1.673936e+003,2.362176e-003
1.675864e+003,2.262843e-003
1.677793e+003,1.664094e-003
1.679721e+003,1.397587e-003
1.681650e+003,1.471454e-003
1.683578e+003,2.109624e-003
1.685507e+003,1.766717e-003
1.687435e+003,1.087229e-003
1.689364e+003,8.897314e-004
1.691292e+003,7.653082e-004
1.693221e+003,9.205107e-004
1.695149e+003,1.495825e-003
1.697078e+003,1.432824e-003
1.699006e+003,1.622387e-003
1.700935e+003,1.879381e-003
1.702863e+003,1.189350e-003
1.704792e+003,1.114035e-003
1.706720e+003,9.967546e-004
1.708649e+003,7.542552e-004
1.710577e+003,5.799677e-004
1.712506e+003,6.486523e-004
1.714434e+003,1.031228e-003
1.716363e+003,1.385687e-003
1.718291e+003,1.316155e-003
1.720220e+003,7.389873e-004
1.722148e+003,5.226394e-004
1.724077e+003,5.312646e-004
1.726005e+003,4.704267e-004
1.727934e+003,4.964659e-004
1.729862e+003,5.971213e-004
1.731791e+003,8.148341e-004
1.733719e+003,1.276640e-003
1.735648e+003,9.816774e-004
1.737576e+003,6.585742e-004
1.739505e+003,8.179214e-004
1.741433e+003,6.391287e-004
1.743362e+003,5.650709e-004
1.745290e+003,5.982161e-004
1.747219e+003,7.697227e-004
1.749147e+003,9.017175e-004
1.751076e+003,9.434887e-004
1.753004e+003,6.602335e-004
1.754933e+003,4.957030e-004
1.756861e+003,6.198167e-004
1.758790e+003,4.938121e-004
1.760718e+003,5.984816e-004
1.762647e+003,6.263535e-004
1.764575e+003,3.542811e-004
1.766504e+003,4.250857e-004
1.768432e+003,5.838827e-004
1.770361e+003,6.791158e-004
1.772289e+003,8.627058e-004
1.774218e+003,6.337199e-004
1.776146e+003,4.171590e-004
1.778075e+003,2.956562e-004
1.780003e+003,2.285193e-004
1.781932e+003,1.917559e-004
1.783860e+003,2.280220e-004
1.785789e+003,2.232483e-004
1.787717e+003,1.056773e-004
1.789646e+003,2.689992e-004
1.791574e+003,6.148063e-004
1.793503e+003,6.121187e-004
1.795431e+003,3.778261e-004
1.797360e+003,3.434375e-004
1.799288e+003,4.047883e-004
1.801217e+003,3.479142e-004
1.803145e+003,1.871482e-004
1.805074e+003,2.474161e-004
1.807002e+003,2.761938e-004
1.808931e+003,2.573952e-004
1.810859e+003,2.857094e-004
1.812788e+003,2.213918e-004
1.814716e+003,1.339816e-004
1.816645e+003,1.192326e-004
1.818573e+003,9.179099e-005
1.820502e+003,9.394516e-005
1.822430e+003,2.116455e-004
1.824359e+003,4.220676e-004
1.826287e+003,4.346710e-004
1.828216e+003,3.776603e-004
1.830144e+003,3.990840e-004
1.832073e+003,1.239390e-004
1.834001e+003,4.725171e-005
1.835930e+003,1.301037e-004
1.837858e+003,8.648846e-005
1.839787e+003,5.759078e-005
1.841715e+003,1.230773e-004
1.843644e+003,4.221339e-004
1.845572e+003,2.885940e-004
1.847501e+003,4.287756e-005
1.849429e+003,2.382403e-005
1.851358e+003,1.275185e-004
1.853286e+003,1.952365e-004
1.855215e+003,1.453834e-004
1.857143e+003,1.585422e-004
1.859072e+003,1.261596e-004
1.861000e+003,1.185698e-004
1.862929e+003,1.195641e-004
1.864857e+003,2.265965e-004
1.866786e+003,3.401547e-004
1.868714e+003,3.493069e-004
1.870643e+003,1.147252e-004
1.872571e+003,3.025243e-005
1.874500e+003,1.416048e-004
1.876428e+003,1.708064e-004
1.878357e+003,2.097228e-004
1.880285e+003,1.882090e-004
1.882214e+003,1.111789e-004
1.884142e+003,1.290100e-004
1.886071e+003,1.265905e-004
1.887999e+003,1.484659e-004
1.889928e+003,1.690165e-004
1.891856e+003,5.855180e-005
1.893785e+003,1.114441e-004
1.895713e+003,1.296066e-004
1.897642e+003,1.409088e-004
1.899570e+003,2.903844e-004
1.901499e+003,2.971151e-004
1.903427e+003,2.762932e-004
1.905356e+003,2.796087e-004
1.907284e+003,2.377687e-004
1.909213e+003,2.027614e-004
1.911141e+003,2.189386e-004
1.913070e+003,2.261324e-004
1.914998e+003,3.164459e-004
1.916927e+003,5.032662e-004
1.918855e+003,5.338191e-004
1.920784e+003,4.302929e-004
1.922712e+003,4.367937e-004
1.924641e+003,3.362418e-004
1.926569e+003,2.996682e-004
1.928498e+003,2.702259e-004
1.930426e+003,2.908486e-004
1.932355e+003,3.055370e-004
1.934283e+003,2.524222e-004
1.936212e+003,2.666783e-004
1.938140e+003,2.994361e-004
1.940069e+003,3.491743e-004
1.941997e+003,4.766627e-004
1.943926e+003,4.598125e-004
1.945854e+003,3.235418e-004
1.947783e+003,3.182033e-004
1.949711e+003,3.213865e-004
1.951640e+003,2.469851e-004
1.953568e+003,2.597491e-004
1.955497e+003,3.021882e-004
1.957425e+003,3.402873e-004
1.959354e+003,3.300410e-004
1.961282e+003,3.045092e-004
1.963211e+003,3.175402e-004
1.965139e+003,3.108754e-004
1.967068e+003,3.707625e-004
1.968996e+003,2.710547e-004
1.970925e+003,2.583898e-004
1.972853e+003,3.672804e-004
1.974782e+003,3.663519e-004
1.976710e+003,3.423101e-004
1.978639e+003,4.224988e-004
1.980567e+003,4.531787e-004
1.982496e+003,3.789868e-004
1.984424e+003,3.849230e-004
1.986353e+003,4.152686e-004
1.988281e+003,3.882394e-004
1.990210e+003,4.055511e-004
1.992138e+003,4.953381e-004
1.994067e+003,4.765300e-004
1.995995e+003,4.076737e-004
1.997924e+003,4.212385e-004
1.999852e+003,4.391154e-004
2.001781e+003,3.926501e-004
2.003709e+003,4.065793e-004
2.005638e+003,4.421668e-004
2.007566e+003,5.021052e-004
2.009495e+003,5.334542e-004
2.011423e+003,4.994182e-004
2.013352e+003,5.827878e-004
2.015280e+003,6.358768e-004
2.017208e+003,6.276807e-004
2.019137e+003,6.123178e-004
2.021066e+003,6.000742e-004
2.022994e+003,5.873997e-004
2.024922e+003,5.959268e-004
2.026851e+003,6.276807e-004
2.028780e+003,6.600675e-004
2.030708e+003,6.757641e-004
2.032636e+003,7.155223e-004
2.034565e+003,7.074575e-004
2.036494e+003,6.779211e-004
2.038422e+003,7.016496e-004
2.040350e+003,7.700547e-004
2.042279e+003,8.559995e-004
2.044208e+003,8.935164e-004
2.046136e+003,8.431847e-004
2.048064e+003,8.746247e-004
2.049993e+003,9.116121e-004
2.051921e+003,8.947117e-004
2.053850e+003,9.752349e-004
2.055778e+003,1.052452e-003
2.057707e+003,1.082146e-003
2.059635e+003,1.081847e-003
2.061564e+003,1.008976e-003
2.063492e+003,8.757203e-004
2.065421e+003,9.633132e-004
2.067349e+003,1.166924e-003
2.069278e+003,1.153502e-003
2.071206e+003,1.200713e-003
2.073135e+003,1.288936e-003
2.075063e+003,1.308876e-003
2.076992e+003,1.273683e-003
2.078920e+003,1.312333e-003
2.080849e+003,1.380734e-003
2.082777e+003,1.315723e-003
2.084706e+003,1.353246e-003
2.086634e+003,1.397653e-003
2.088563e+003,1.407593e-003
2.090491e+003,1.492533e-003
2.092420e+003,1.520097e-003
2.094348e+003,1.577391e-003
2.096277e+003,1.589994e-003
2.098205e+003,1.585971e-003
2.100134e+003,1.632131e-003
2.102062e+003,1.702679e-003
2.103991e+003,1.736343e-003
2.105919e+003,1.764455e-003
2.107848e+003,1.865238e-003
2.109776e+003,1.911295e-003
2.111705e+003,1.865138e-003
2.113633e+003,1.904074e-003
2.115562e+003,2.033684e-003
2.117490e+003,2.047599e-003
2.119419e+003,2.043804e-003
2.121347e+003,2.008784e-003
2.123276e+003,2.011647e-003
2.125204e+003,2.079892e-003
2.127133e+003,2.103398e-003
2.129061e+003,2.211686e-003
2.130990e+003,2.310209e-003
2.132918e+003,2.239762e-003
2.134847e+003,2.161035e-003
2.136775e+003,2.209289e-003
2.138704e+003,2.296618e-003
2.140632e+003,2.357079e-003
2.142561e+003,2.391161e-003
2.144489e+003,2.317337e-003
2.146418e+003,2.317104e-003
2.148346e+003,2.425013e-003
2.150275e+003,2.427478e-003
2.152203e+003,2.447504e-003
2.154132e+003,2.541780e-003
2.156060e+003,2.597509e-003
2.157989e+003,2.648078e-003
2.159917e+003,2.642377e-003
2.161846e+003,2.543346e-003
2.163774e+003,2.486425e-003
2.165703e+003,2.549979e-003
2.167631e+003,2.686183e-003
2.169560e+003,2.777844e-003
2.171488e+003,2.750700e-003
2.173417e+003,2.701053e-003
2.175345e+003,2.621643e-003
2.177274e+003,2.637010e-003
2.179202e+003,2.724159e-003
2.181131e+003,2.703187e-003
2.183059e+003,2.707954e-003
2.184988e+003,2.794050e-003
2.186916e+003,2.810191e-003
2.188845e+003,2.749166e-003
2.190773e+003,2.669147e-003
2.192702e+003,2.645111e-003
2.194630e+003,2.716790e-003
2.196559e+003,2.731928e-003
2.198487e+003,2.744631e-003
2.200416e+003,2.728093e-003
2.202344e+003,2.725359e-003
2.204273e+003,2.673081e-003
2.206201e+003,2.635210e-003
2.208130e+003,2.675215e-003
2.210058e+003,2.675615e-003
2.211987e+003,2.633110e-003
2.213915e+003,2.642310e-003
2.215844e+003,2.722858e-003
2.217772e+003,2.738330e-003
2.219701e+003,2.672347e-003
2.221629e+003,2.576176e-003
2.223558e+003,2.554412e-003
2.225486e+003,2.564577e-003
2.227415e+003,2.520017e-003
2.229343e+003,2.527916e-003
2.231272e+003,2.517118e-003
2.233200e+003,2.535348e-003
2.235129e+003,2.560978e-003
2.237057e+003,2.443239e-003
2.238986e+003,2.375402e-003
2.240914e+003,2.429544e-003
2.242843e+003,2.471696e-003
2.244771e+003,2.460899e-003
2.246700e+003,2.441806e-003
2.248628e+003,2.446671e-003
2.250557e+003,2.276632e-003
2.252485e+003,2.274301e-003
2.254414e+003,2.389729e-003
2.256342e+003,2.456201e-003
2.258271e+003,2.473795e-003
2.260199e+003,2.465864e-003
2.262128e+003,2.470663e-003
2.264056e+003,2.410619e-003
2.265985e+003,2.347385e-003
2.267913e+003,2.375269e-003
2.269842e+003,2.433476e-003
2.271770e+003,2.496755e-003
2.273699e+003,2.467331e-003
2.275627e+003,2.344687e-003
2.277556e+003,2.292354e-003
2.279484e+003,2.301914e-003
2.281413e+003,2.335892e-003
2.283341e+003,2.289723e-003
2.285270e+003,2.290789e-003
2.287198e+003,2.281895e-003
2.289127e+003,2.377402e-003
2.291055e+003,2.413018e-003
2.292984e+003,2.472729e-003
2.294912e+003,2.450703e-003
2.296841e+003,2.494023e-003
2.298769e+003,2.724792e-003
2.300698e+003,2.882198e-003
2.302626e+003,3.017072e-003
2.304555e+003,3.186265e-003
2.306483e+003,3.378866e-003
2.308412e+003,3.542288e-003
2.310340e+003,3.814660e-003
2.312269e+003,4.284086e-003
2.314197e+003,4.744976e-003
2.316125e+003,5.321960e-003
2.318054e+003,5.837648e-003
2.319983e+003,6.347762e-003
2.321911e+003,7.008532e-003
2.323840e+003,7.637596e-003
2.325768e+003,7.982776e-003
2.327697e+003,8.460346e-003
2.329625e+003,9.210228e-003
2.331553e+003,9.505586e-003
2.333482e+003,9.585316e-003
2.335411e+003,9.754174e-003
2.337339e+003,9.949439e-003
2.339268e+003,1.003112e-002
2.341196e+003,9.900420e-003
2.343125e+003,9.451536e-003
2.345053e+003,8.373593e-003
2.346981e+003,6.677954e-003
2.348910e+003,5.654092e-003
2.350839e+003,6.728967e-003
2.352767e+003,8.907326e-003
2.354696e+003,1.068135e-002
2.356624e+003,1.183770e-002
2.358552e+003,1.250566e-002
2.360481e+003,1.275737e-002
2.362409e+003,1.281077e-002
2.364338e+003,1.257601e-002
2.366267e+003,1.192989e-002
2.368195e+003,1.102315e-002
2.370124e+003,9.954592e-003
2.372052e+003,8.768954e-003
2.373980e+003,7.572652e-003
2.375909e+003,6.317605e-003
2.377838e+003,5.120081e-003
2.379766e+003,4.192978e-003
2.381695e+003,3.640945e-003
2.383623e+003,3.440213e-003
2.385552e+003,3.292187e-003
2.387480e+003,3.163736e-003
2.389408e+003,3.242945e-003
2.391337e+003,3.369316e-003
2.393266e+003,3.355658e-003
2.395194e+003,3.410724e-003
2.397123e+003,3.540083e-003
2.399051e+003,3.596842e-003
2.400979e+003,3.571017e-003
2.402908e+003,3.553679e-003
2.404836e+003,3.536108e-003
2.406765e+003,3.601854e-003
2.408694e+003,3.617022e-003
2.410622e+003,3.693941e-003
2.412551e+003,3.831173e-003
2.414479e+003,3.894924e-003
2.416407e+003,3.927723e-003
2.418336e+003,3.978547e-003
2.420264e+003,3.883992e-003
2.422193e+003,3.838394e-003
2.424122e+003,3.957381e-003
2.426050e+003,4.104396e-003
2.427979e+003,4.079846e-003
2.429907e+003,4.034929e-003
2.431835e+003,4.104597e-003
2.433764e+003,4.213754e-003
2.435692e+003,4.341411e-003
2.437621e+003,4.322670e-003
2.439550e+003,4.204085e-003
2.441478e+003,4.198832e-003
2.443406e+003,4.327657e-003
2.445335e+003,4.406075e-003
2.447263e+003,4.406610e-003
2.449192e+003,4.421304e-003
2.451121e+003,4.400217e-003
2.453049e+003,4.456586e-003
2.454978e+003,4.564526e-003
2.456906e+003,4.654272e-003
2.458834e+003,4.651325e-003
2.460763e+003,4.632437e-003
2.462691e+003,4.627681e-003
2.464620e+003,4.686626e-003
2.466549e+003,4.797872e-003
2.468477e+003,4.843572e-003
2.470406e+003,4.818376e-003
2.472334e+003,4.748627e-003
2.474262e+003,4.807655e-003
2.476191e+003,4.871148e-003
2.478119e+003,4.987502e-003
2.480048e+003,5.092624e-003
2.481977e+003,5.156057e-003
2.483905e+003,5.137214e-003
2.485833e+003,5.093830e-003
2.487762e+003,5.123836e-003
2.489690e+003,5.172923e-003
2.491619e+003,5.298045e-003
2.493547e+003,5.423069e-003
2.495476e+003,5.543029e-003
2.497405e+003,5.561621e-003
2.499333e+003,5.482961e-003
2.501261e+003,5.502793e-003
2.503190e+003,5.519605e-003
2.505118e+003,5.602669e-003
2.507047e+003,5.565313e-003
2.508975e+003,5.504873e-003
2.510904e+003,5.584544e-003
2.512833e+003,5.679269e-003
2.514761e+003,5.688903e-003
2.516689e+003,5.675744e-003
2.518618e+003,5.760382e-003
2.520546e+003,5.828212e-003
2.522475e+003,5.764277e-003
2.524403e+003,5.714821e-003
2.526332e+003,5.719421e-003
2.528260e+003,5.765385e-003
2.530189e+003,5.754707e-003
2.532117e+003,5.688064e-003
2.534046e+003,5.679638e-003
2.535974e+003,5.872306e-003
2.537903e+003,5.979187e-003
2.539831e+003,6.052024e-003
2.541760e+003,6.008314e-003
2.543688e+003,5.971092e-003
2.545617e+003,5.995682e-003
2.547545e+003,6.039357e-003
2.549474e+003,6.007507e-003
2.551402e+003,5.976601e-003
2.553331e+003,5.996052e-003
2.555259e+003,6.009053e-003
2.557188e+003,6.004551e-003
2.559116e+003,6.053771e-003
2.561045e+003,6.134585e-003
2.562973e+003,6.081726e-003
2.564902e+003,6.053267e-003
2.566830e+003,6.125881e-003
2.568759e+003,6.137575e-003
2.570687e+003,6.138450e-003
2.572616e+003,6.181534e-003
2.574544e+003,6.225799e-003
2.576473e+003,6.174006e-003
2.578401e+003,6.203414e-003
2.580330e+003,6.179853e-003
2.582258e+003,6.155555e-003
2.584187e+003,6.262371e-003
2.586115e+003,6.241833e-003
2.588044e+003,6.223346e-003
2.589972e+003,6.293735e-003
2.591901e+003,6.307015e-003
2.593829e+003,6.282675e-003
2.595758e+003,6.243749e-003
2.597686e+003,6.267817e-003
2.599615e+003,6.326850e-003
2.601543e+003,6.450826e-003
2.603472e+003,6.510018e-003
2.605400e+003,6.537028e-003
2.607329e+003,6.626039e-003
2.609257e+003,6.714598e-003
2.611186e+003,6.725837e-003
2.613114e+003,6.732298e-003
2.615043e+003,6.782677e-003
2.616971e+003,6.828855e-003
2.618900e+003,6.869854e-003
2.620828e+003,6.869753e-003
2.622757e+003,6.935669e-003
2.624685e+003,6.988092e-003
2.626614e+003,6.939575e-003
2.628542e+003,6.952974e-003
2.630471e+003,6.983816e-003
2.632399e+003,7.005299e-003
2.634328e+003,7.063220e-003
2.636256e+003,7.180669e-003
2.638185e+003,7.317592e-003
2.640113e+003,7.303001e-003
2.642042e+003,7.128087e-003
2.643970e+003,7.198759e-003
2.645899e+003,7.302395e-003
2.647827e+003,7.347785e-003
2.649756e+003,7.462514e-003
2.651684e+003,7.493594e-003
2.653613e+003,7.440267e-003
2.655541e+003,7.480548e-003
2.657470e+003,7.419639e-003
2.659398e+003,7.485301e-003
2.661327e+003,7.624715e-003
2.663255e+003,7.676783e-003
2.665184e+003,7.681605e-003
2.667112e+003,7.714523e-003
2.669041e+003,7.790957e-003
2.670969e+003,7.872330e-003
2.672898e+003,7.830764e-003
2.674826e+003,7.813322e-003
2.676755e+003,7.872263e-003
2.678683e+003,7.934822e-003
2.680612e+003,7.984058e-003
2.682540e+003,8.026144e-003
2.684469e+003,8.073536e-003
2.686397e+003,8.099495e-003
2.688326e+003,8.175659e-003
2.690254e+003,8.349069e-003
2.692183e+003,8.378322e-003
2.694111e+003,8.306884e-003
2.696040e+003,8.273044e-003
2.697968e+003,8.383322e-003
2.699897e+003,8.569217e-003
2.701825e+003,8.631269e-003
2.703754e+003,8.612713e-003
2.705682e+003,8.648067e-003
2.707611e+003,8.736431e-003
2.709539e+003,8.792182e-003
2.711468e+003,8.803543e-003
2.713396e+003,8.825319e-003
2.715325e+003,8.952953e-003
2.717253e+003,9.004267e-003
2.719182e+003,9.044558e-003
2.721110e+003,9.095071e-003
2.723039e+003,9.114053e-003
2.724967e+003,9.226270e-003
2.726896e+003,9.317087e-003
2.728824e+003,9.347555e-003
2.730753e+003,9.481303e-003
2.732681e+003,9.590872e-003
2.734610e+003,9.667941e-003
2.736538e+003,9.680071e-003
2.738467e+003,9.758207e-003
2.740395e+003,9.954321e-003
2.742324e+003,1.002623e-002
2.744252e+003,9.982902e-003
2.746181e+003,1.007171e-002
2.748109e+003,1.021867e-002
2.750038e+003,1.035309e-002
2.751966e+003,1.045976e-002
2.753895e+003,1.060325e-002
2.755823e+003,1.078695e-002
2.757752e+003,1.085308e-002
2.759680e+003,1.096854e-002
2.761609e+003,1.115283e-002
2.763537e+003,1.145842e-002
2.765466e+003,1.173553e-002
2.767394e+003,1.189937e-002
2.769323e+003,1.209274e-002
2.771251e+003,1.244626e-002
2.773180e+003,1.281118e-002
2.775108e+003,1.322249e-002
2.777037e+003,1.375405e-002
2.778965e+003,1.419874e-002
2.780894e+003,1.481113e-002
2.782822e+003,1.554318e-002
2.784750e+003,1.611892e-002
2.786679e+003,1.669012e-002
2.788608e+003,1.735617e-002
2.790536e+003,1.801088e-002
2.792465e+003,1.865077e-002
2.794393e+003,1.930844e-002
2.796322e+003,2.001592e-002
2.798250e+003,2.064501e-002
2.800178e+003,2.120818e-002
2.802107e+003,2.178312e-002
2.804036e+003,2.228560e-002
2.805964e+003,2.269709e-002
2.807893e+003,2.310858e-002
2.809821e+003,2.348268e-002
2.811750e+003,2.364398e-002
2.813678e+003,2.359546e-002
2.815606e+003,2.360081e-002
2.817535e+003,2.356775e-002
2.819464e+003,2.351255e-002
2.821392e+003,2.336773e-002
2.823321e+003,2.314789e-002
2.825249e+003,2.286019e-002
2.827177e+003,2.246736e-002
2.829106e+003,2.196296e-002
2.831034e+003,2.136268e-002
2.832963e+003,2.091094e-002
2.834892e+003,2.064619e-002
2.836820e+003,2.025119e-002
2.838749e+003,1.964385e-002
2.840677e+003,1.898408e-002
2.842605e+003,1.853073e-002
2.844534e+003,1.805992e-002
2.846462e+003,1.746122e-002
2.848391e+003,1.702551e-002
2.850320e+003,1.673598e-002
2.852248e+003,1.643051e-002
2.854177e+003,1.606473e-002
2.856105e+003,1.582433e-002
2.858033e+003,1.568425e-002
2.859962e+003,1.567638e-002
2.861890e+003,1.558735e-002
2.863819e+003,1.544608e-002
2.865748e+003,1.539575e-002
2.867676e+003,1.533004e-002
2.869604e+003,1.539108e-002
2.871533e+003,1.551746e-002
2.873461e+003,1.559889e-002
2.875390e+003,1.567532e-002
2.877319e+003,1.579910e-002
2.879247e+003,1.598318e-002
2.881176e+003,1.590337e-002
2.883104e+003,1.587646e-002
2.885032e+003,1.608075e-002
2.886961e+003,1.610857e-002
2.888889e+003,1.607989e-002
2.890818e+003,1.595857e-002
2.892747e+003,1.580769e-002
2.894675e+003,1.566838e-002
2.896604e+003,1.570737e-002
2.898532e+003,1.568318e-002
2.900460e+003,1.556891e-002
2.902389e+003,1.561263e-002
2.904317e+003,1.560882e-002
2.906246e+003,1.552852e-002
2.908175e+003,1.547660e-002
2.910103e+003,1.541861e-002
2.912031e+003,1.533070e-002
2.913960e+003,1.525608e-002
2.915888e+003,1.517359e-002
2.917817e+003,1.524040e-002
2.919745e+003,1.543585e-002
2.921674e+003,1.557777e-002
2.923603e+003,1.573107e-002
2.925531e+003,1.589787e-002
2.927459e+003,1.597637e-002
2.929388e+003,1.607247e-002
2.931316e+003,1.619320e-002
2.933245e+003,1.620751e-002
2.935173e+003,1.632457e-002
2.937102e+003,1.640642e-002
2.939031e+003,1.638953e-002
2.940959e+003,1.624098e-002
2.942887e+003,1.607315e-002
2.944816e+003,1.595671e-002
2.946744e+003,1.576959e-002
2.948673e+003,1.547475e-002
2.950601e+003,1.498759e-002
2.952530e+003,1.447956e-002
2.954458e+003,1.404909e-002
2.956387e+003,1.358240e-002
2.958315e+003,1.316965e-002
2.960244e+003,1.255518e-002
2.962172e+003,1.196146e-002
2.964101e+003,1.153957e-002
2.966029e+003,1.100677e-002
2.967958e+003,1.050192e-002
2.969886e+003,1.000853e-002
2.971815e+003,9.536711e-003
2.973743e+003,9.112294e-003
2.975672e+003,8.716620e-003
2.977600e+003,8.312423e-003
2.979529e+003,7.989626e-003
2.981457e+003,7.812175e-003
2.983386e+003,7.582936e-003
2.985314e+003,7.354357e-003
2.987243e+003,7.136306e-003
2.989171e+003,6.977553e-003
2.991100e+003,6.774937e-003
2.993028e+003,6.674152e-003
2.994957e+003,6.590446e-003
2.996885e+003,6.377620e-003
2.998814e+003,6.286171e-003
3.000742e+003,6.248656e-003
3.002671e+003,6.164730e-003
3.004599e+003,6.079307e-003
3.006528e+003,6.047522e-003
3.008456e+003,6.007709e-003
3.010385e+003,5.988695e-003
3.012313e+003,5.917582e-003
3.014242e+003,5.889133e-003
3.016170e+003,5.861425e-003
3.018099e+003,5.906565e-003
3.020027e+003,5.854708e-003
3.021956e+003,5.696423e-003
3.023884e+003,5.527894e-003
3.025813e+003,5.540008e-003
3.027741e+003,5.531686e-003
3.029670e+003,5.375263e-003
3.031598e+003,5.264539e-003
3.033527e+003,5.278056e-003
3.035455e+003,5.325818e-003
3.037384e+003,5.396197e-003
3.039312e+003,5.315755e-003
3.041241e+003,5.205650e-003
3.043169e+003,5.114650e-003
3.045098e+003,5.055446e-003
3.047026e+003,5.079750e-003
3.048955e+003,4.959785e-003
3.050883e+003,4.864781e-003
3.052812e+003,4.913269e-003
3.054740e+003,4.803601e-003
3.056669e+003,4.737037e-003
3.058597e+003,4.710508e-003
3.060526e+003,4.684549e-003
3.062454e+003,4.687698e-003
3.064383e+003,4.643153e-003
3.066311e+003,4.590008e-003
3.068240e+003,4.601226e-003
3.070168e+003,4.549056e-003
3.072097e+003,4.413907e-003
3.074025e+003,4.342382e-003
3.075954e+003,4.310422e-003
3.077882e+003,4.266318e-003
3.079811e+003,4.223155e-003
3.081739e+003,4.123362e-003
3.083668e+003,4.122559e-003
3.085596e+003,4.103995e-003
3.087525e+003,4.036434e-003
3.089453e+003,4.054527e-003
3.091382e+003,4.042956e-003
3.093310e+003,4.033391e-003
3.095239e+003,3.980687e-003
3.097167e+003,3.857716e-003
3.099096e+003,3.830939e-003
3.101024e+003,3.809011e-003
3.102953e+003,3.815697e-003
3.104881e+003,3.788355e-003
3.106810e+003,3.802727e-003
3.108738e+003,3.763588e-003
3.110667e+003,3.718270e-003
3.112595e+003,3.780400e-003
3.114524e+003,3.839631e-003
3.116452e+003,3.700858e-003
3.118381e+003,3.557554e-003
3.120309e+003,3.568278e-003
3.122238e+003,3.633260e-003
3.124166e+003,3.674259e-003
3.126095e+003,3.652306e-003
3.128023e+003,3.595740e-003
3.129952e+003,3.479256e-003
3.131880e+003,3.359164e-003
3.133809e+003,3.415700e-003
3.135737e+003,3.396765e-003
3.137666e+003,3.373022e-003
3.139594e+003,3.440747e-003
3.141523e+003,3.427388e-003
3.143451e+003,3.406316e-003
3.145380e+003,3.482496e-003
3.147308e+003,3.442083e-003
3.149237e+003,3.382940e-003
3.151165e+003,3.409989e-003
3.153094e+003,3.388416e-003
3.155022e+003,3.436639e-003
3.156951e+003,3.367646e-003
3.158879e+003,3.400638e-003
3.160808e+003,3.535606e-003
3.162736e+003,3.585115e-003
3.164665e+003,3.581808e-003
3.166593e+003,3.432197e-003
3.168522e+003,3.334556e-003
3.170450e+003,3.362337e-003
3.172379e+003,3.359532e-003
3.174307e+003,3.299665e-003
3.176236e+003,3.469704e-003
3.178164e+003,3.582743e-003
3.180093e+003,3.553378e-003
3.182021e+003,3.535373e-003
3.183950e+003,3.535540e-003
3.185878e+003,3.495523e-003
3.187807e+003,3.579870e-003
3.189735e+003,3.560193e-003
3.191664e+003,3.446124e-003
3.193592e+003,3.489844e-003
3.195521e+003,3.547064e-003
3.197449e+003,3.459517e-003
3.199378e+003,3.290384e-003
3.201306e+003,3.237370e-003
3.203235e+003,3.364073e-003
3.205163e+003,3.387014e-003
3.207092e+003,3.338062e-003
3.209020e+003,3.428858e-003
3.210948e+003,3.530529e-003
3.212877e+003,3.638807e-003
3.214806e+003,3.713591e-003
3.216734e+003,3.601519e-003
3.218663e+003,3.508082e-003
3.220591e+003,3.596040e-003
3.222520e+003,3.759611e-003
3.224448e+003,3.675128e-003
3.226376e+003,3.668846e-003
3.228305e+003,3.882087e-003
3.230234e+003,4.178391e-003
3.232162e+003,4.217903e-003
3.234091e+003,4.300550e-003
3.236019e+003,4.203516e-003
3.237948e+003,4.138716e-003
3.239876e+003,4.351251e-003
3.241804e+003,4.678755e-003
3.243733e+003,4.730136e-003
3.245662e+003,4.738544e-003
3.247590e+003,4.798844e-003
3.249519e+003,4.797705e-003
3.251447e+003,4.844744e-003
3.253375e+003,4.882473e-003
3.255304e+003,5.023836e-003
3.257232e+003,5.278525e-003
3.259161e+003,5.450817e-003
3.261090e+003,5.496585e-003
3.263018e+003,5.430719e-003
3.264947e+003,5.425250e-003
3.266875e+003,5.401866e-003
3.268803e+003,5.499840e-003
3.270732e+003,5.676684e-003
3.272660e+003,5.667586e-003
3.274589e+003,5.625291e-003
3.276518e+003,5.648117e-003
3.278446e+003,5.694879e-003
3.280375e+003,5.895615e-003
3.282303e+003,5.996657e-003
3.284231e+003,5.852122e-003
3.286160e+003,5.689575e-003
3.288088e+003,5.578604e-003
3.290017e+003,5.490880e-003
3.291946e+003,5.636838e-003
3.293874e+003,5.690045e-003
3.295802e+003,5.481887e-003
3.297731e+003,5.344871e-003
3.299659e+003,5.293283e-003
3.301588e+003,5.189991e-003
3.303516e+003,5.054306e-003
3.305445e+003,4.958578e-003
3.307374e+003,4.907539e-003
3.309302e+003,4.728662e-003
3.311230e+003,4.505129e-003
3.313159e+003,4.376453e-003
3.315087e+003,4.207464e-003
3.317016e+003,4.142296e-003
3.318944e+003,4.043524e-003
3.320873e+003,3.955709e-003
3.322802e+003,3.912577e-003
3.324730e+003,3.728095e-003
3.326658e+003,3.459383e-003
3.328587e+003,3.282371e-003
3.330515e+003,3.240842e-003
3.332444e+003,3.250856e-003
3.334372e+003,3.161166e-003
3.336301e+003,3.120549e-003
3.338229e+003,3.116477e-003
3.340158e+003,2.967394e-003
3.342086e+003,2.881964e-003
3.344015e+003,2.807756e-003
3.345943e+003,2.863686e-003
3.347872e+003,2.761204e-003
3.349800e+003,2.579176e-003
3.351729e+003,2.549179e-003
3.353657e+003,2.474295e-003
3.355586e+003,2.387896e-003
3.357514e+003,2.491623e-003
3.359443e+003,2.414917e-003
3.361371e+003,2.201229e-003
3.363300e+003,2.128803e-003
3.365229e+003,2.059850e-003
3.367157e+003,1.731121e-003
3.369085e+003,1.423349e-003
3.371014e+003,1.341746e-003
3.372942e+003,1.400878e-003
3.374871e+003,1.363184e-003
3.376799e+003,1.423948e-003
3.378728e+003,1.303360e-003
3.380656e+003,1.106296e-003
3.382585e+003,9.702205e-004
3.384513e+003,8.652290e-004
3.386442e+003,6.824344e-004
3.388370e+003,5.331225e-004
3.390299e+003,5.580705e-004
3.392227e+003,6.895032e-004
3.394156e+003,6.442388e-004
3.396084e+003,5.131185e-004
3.398013e+003,3.350812e-004
3.399941e+003,1.196966e-004
3.401870e+003,6.004303e-005
3.403798e+003,2.261987e-004
3.405727e+003,3.589237e-004
3.407655e+003,3.210881e-004
3.409584e+003,1.968277e-004
3.411512e+003,1.320592e-004
3.413441e+003,-4.231011e-005
3.415369e+003,-6.921149e-005
3.417298e+003,-1.172455e-004
3.419226e+003,-2.056805e-004
3.421155e+003,-1.277129e-004
3.423083e+003,9.675247e-006
3.425012e+003,1.504311e-005
3.426940e+003,-1.064135e-004
3.428869e+003,-2.223388e-004
3.430797e+003,-3.334323e-004
3.432726e+003,-3.257842e-004
3.434654e+003,-2.155166e-004
3.436583e+003,-4.158981e-004
3.438511e+003,-5.774405e-004
3.440440e+003,-5.680428e-004
3.442368e+003,-6.723653e-004
3.444297e+003,-7.541713e-004
3.446225e+003,-5.400471e-004
3.448154e+003,-3.317769e-004
3.450082e+003,-4.258617e-004
3.452011e+003,-6.359728e-004
3.453939e+003,-7.079609e-004
3.455868e+003,-7.684271e-004
3.457796e+003,-8.003768e-004
3.459725e+003,-7.615143e-004
3.461653e+003,-7.592320e-004
3.463582e+003,-7.691548e-004
3.465510e+003,-8.648644e-004
3.467439e+003,-1.005348e-003
3.469367e+003,-9.269289e-004
3.471296e+003,-8.506118e-004
3.473224e+003,-8.556714e-004
3.475153e+003,-9.345665e-004
3.477081e+003,-9.542384e-004
3.479010e+003,-1.050667e-003
3.480938e+003,-1.109962e-003
3.482867e+003,-1.105798e-003
3.484795e+003,-9.524531e-004
3.486724e+003,-9.050073e-004
3.488652e+003,-1.068153e-003
3.490581e+003,-1.093636e-003
3.492509e+003,-1.096908e-003
3.494438e+003,-1.117002e-003
3.496366e+003,-1.029248e-003
3.498295e+003,-1.050370e-003
3.500223e+003,-1.172719e-003
3.502152e+003,-1.110028e-003
3.504080e+003,-1.047825e-003
3.506009e+003,-1.215212e-003
3.507937e+003,-1.256380e-003
3.509866e+003,-1.240290e-003
3.511794e+003,-1.188877e-003
3.513723e+003,-1.241777e-003
3.515651e+003,-1.308214e-003
3.517580e+003,-1.163764e-003
3.519508e+003,-1.200343e-003
3.521437e+003,-1.357928e-003
3.523365e+003,-1.366350e-003
3.525294e+003,-1.410575e-003
3.527222e+003,-1.299195e-003
3.529151e+003,-1.265135e-003
3.531079e+003,-1.479661e-003
3.533008e+003,-1.475204e-003
3.534936e+003,-1.308676e-003
3.536865e+003,-1.185143e-003
3.538793e+003,-1.418601e-003
3.540722e+003,-1.649061e-003
3.542650e+003,-1.645100e-003
3.544579e+003,-1.461764e-003
3.546507e+003,-1.192942e-003
3.548436e+003,-1.103551e-003
3.550364e+003,-1.182533e-003
3.552293e+003,-1.216269e-003
3.554221e+003,-1.281786e-003
3.556150e+003,-1.426725e-003
3.558078e+003,-1.446837e-003
3.560007e+003,-1.564716e-003
3.561935e+003,-1.720023e-003
3.563864e+003,-1.466750e-003
3.565792e+003,-1.124272e-003
3.567721e+003,-1.233880e-003
3.569649e+003,-1.515290e-003
3.571578e+003,-1.591490e-003
3.573506e+003,-1.454697e-003
3.575435e+003,-1.433693e-003
3.577363e+003,-1.516380e-003
3.579292e+003,-1.557552e-003
3.581220e+003,-1.629685e-003
3.583149e+003,-1.650315e-003
3.585077e+003,-1.474279e-003
3.587006e+003,-1.140995e-003
3.588934e+003,-1.195519e-003
3.590863e+003,-1.494323e-003
3.592791e+003,-1.484284e-003
3.594720e+003,-1.471340e-003
3.596648e+003,-1.442181e-003
3.598577e+003,-1.475204e-003
3.600505e+003,-1.573036e-003
3.602434e+003,-1.634504e-003
3.604362e+003,-1.672232e-003
3.606291e+003,-1.620013e-003
3.608219e+003,-1.382072e-003
3.610148e+003,-1.389339e-003
3.612076e+003,-1.497823e-003
3.614005e+003,-1.510007e-003
3.615933e+003,-1.538997e-003
3.617862e+003,-1.351619e-003
3.619790e+003,-1.443436e-003
3.621719e+003,-1.756424e-003
3.623647e+003,-1.874714e-003
3.625576e+003,-1.781141e-003
3.627504e+003,-1.248484e-003
3.629433e+003,-7.788457e-004
3.631361e+003,-1.475435e-003
3.633290e+003,-1.809485e-003
3.635218e+003,-1.806351e-003
3.637146e+003,-1.801896e-003
3.639075e+003,-1.855777e-003
3.641004e+003,-2.122672e-003
3.642932e+003,-1.984264e-003
3.644861e+003,-1.960615e-003
3.646789e+003,-1.714314e-003
3.648718e+003,-1.227801e-003
3.650646e+003,-1.406447e-003
3.652574e+003,-2.043762e-003
3.654503e+003,-2.007880e-003
3.656432e+003,-1.769327e-003
3.658360e+003,-2.111857e-003
3.660289e+003,-2.403771e-003
3.662217e+003,-2.523531e-003
3.664146e+003,-2.571690e-003
3.666074e+003,-2.619316e-003
3.668002e+003,-2.400344e-003
3.669931e+003,-2.058173e-003
3.671860e+003,-2.303620e-003
3.673788e+003,-2.041948e-003
3.675717e+003,-1.493431e-003
3.677645e+003,-1.974996e-003
3.679573e+003,-2.364458e-003
3.681502e+003,-2.615035e-003
3.683430e+003,-2.576400e-003
3.685359e+003,-2.484296e-003
3.687288e+003,-1.976348e-003
3.689216e+003,-1.382964e-003
3.691145e+003,-1.615985e-003
3.693073e+003,-2.164578e-003
3.695001e+003,-2.352232e-003
3.696930e+003,-2.260574e-003
3.698858e+003,-2.277319e-003
3.700787e+003,-2.135037e-003
3.702716e+003,-2.034924e-003
3.704644e+003,-2.177996e-003
3.706573e+003,-2.228600e-003
3.708501e+003,-2.087786e-003
3.710429e+003,-1.878673e-003
3.712358e+003,-1.739891e-003
3.714286e+003,-2.206150e-003
3.716215e+003,-2.428549e-003
3.718144e+003,-2.201700e-003
3.720072e+003,-2.132465e-003
3.722000e+003,-1.877749e-003
3.723929e+003,-1.790611e-003
3.725857e+003,-1.760450e-003
3.727786e+003,-2.004549e-003
3.729714e+003,-2.171765e-003
3.731643e+003,-1.915951e-003
3.733572e+003,-1.452880e-003
3.735500e+003,-1.195684e-003
3.737428e+003,-1.501224e-003
3.739357e+003,-2.008440e-003
3.741285e+003,-2.099195e-003
3.743214e+003,-1.320040e-003
3.745142e+003,-6.712736e-004
3.747071e+003,-1.280761e-003
3.749000e+003,-7.677325e-004
3.750928e+003,-4.665417e-004
3.752856e+003,-7.386582e-004
3.754785e+003,-1.217690e-003
3.756713e+003,-1.478869e-003
3.758642e+003,-1.477383e-003
3.760570e+003,-1.287732e-003
3.762499e+003,-1.444459e-003
3.764427e+003,-1.437755e-003
3.766356e+003,-1.461334e-003
3.768284e+003,-1.430391e-003
3.770213e+003,-1.118786e-003
3.772141e+003,-1.298733e-003
3.774070e+003,-1.533054e-003
3.775998e+003,-1.594792e-003
3.777927e+003,-1.547284e-003
3.779855e+003,-1.360075e-003
3.781784e+003,-1.286708e-003
3.783712e+003,-1.182103e-003
3.785641e+003,-1.286179e-003
3.787569e+003,-1.475732e-003
3.789498e+003,-1.757315e-003
3.791426e+003,-1.934787e-003
3.793355e+003,-1.934688e-003
3.795283e+003,-1.694049e-003
3.797212e+003,-1.422234e-003
3.799140e+003,-1.166870e-003
3.801069e+003,-7.621758e-004
3.802997e+003,-1.288723e-003
3.804926e+003,-1.576997e-003
3.806854e+003,-1.097569e-003
3.808783e+003,-1.354162e-003
3.810711e+003,-1.560028e-003
3.812640e+003,-1.564320e-003
3.814568e+003,-1.457636e-003
3.816497e+003,-8.784222e-004
3.818425e+003,-8.806377e-004
3.820354e+003,-6.394137e-004
3.822282e+003,-7.727269e-004
3.824211e+003,-1.501389e-003
3.826139e+003,-1.619980e-003
3.828068e+003,-1.502314e-003
3.829996e+003,-1.350066e-003
3.831925e+003,-1.330148e-003
3.833853e+003,-1.374079e-003
3.835782e+003,-1.257173e-003
3.837710e+003,-8.251478e-004
3.839639e+003,-9.837281e-004
3.841567e+003,-1.276995e-003
3.843496e+003,-1.185969e-003
3.845424e+003,-1.524865e-003
3.847353e+003,-1.833506e-003
3.849281e+003,-1.654012e-003
3.851210e+003,-9.996953e-004
3.853138e+003,-2.372332e-005
3.855067e+003,-2.597263e-004
3.856995e+003,-1.084348e-003
3.858924e+003,-1.440761e-003
3.860852e+003,-1.453640e-003
3.862781e+003,-1.198427e-003
3.864709e+003,-1.007497e-003
3.866638e+003,-1.272700e-003
3.868566e+003,-1.050667e-003
3.870495e+003,-9.137364e-004
3.872423e+003,-1.192545e-003
3.874352e+003,-1.188646e-003
3.876280e+003,-1.435543e-003
3.878209e+003,-1.444195e-003
3.880137e+003,-1.190728e-003
3.882066e+003,-1.574389e-003
3.883994e+003,-1.722202e-003
3.885923e+003,-1.376458e-003
3.887851e+003,-1.573597e-003
3.889780e+003,-1.363378e-003
3.891708e+003,-9.538417e-004
3.893637e+003,-1.247294e-003
3.895565e+003,-1.766588e-003
3.897494e+003,-1.822387e-003
3.899422e+003,-1.532790e-003
3.901351e+003,-1.322881e-003
3.903279e+003,-1.250301e-003
3.905208e+003,-1.379397e-003
3.907136e+003,-1.818658e-003
3.909065e+003,-1.893816e-003
3.910993e+003,-1.888735e-003
3.912922e+003,-2.042970e-003
3.914850e+003,-1.883061e-003
3.916779e+003,-1.550817e-003
3.918707e+003,-1.516644e-003
3.920636e+003,-1.716096e-003
3.922564e+003,-1.748702e-003
3.924493e+003,-1.618131e-003
3.926421e+003,-1.662264e-003
3.928350e+003,-1.756226e-003
3.930278e+003,-1.838356e-003
3.932207e+003,-1.907440e-003
3.934135e+003,-2.094348e-003
3.936064e+003,-1.997161e-003
3.937992e+003,-1.838884e-003
3.939921e+003,-1.836608e-003
3.941849e+003,-1.602748e-003
3.943778e+003,-1.677942e-003
3.945706e+003,-1.773485e-003
3.947635e+003,-1.509281e-003
3.949563e+003,-1.631467e-003
3.951492e+003,-1.897939e-003
3.953420e+003,-1.961077e-003
3.955349e+003,-2.068627e-003
3.957277e+003,-1.946959e-003
3.959206e+003,-2.046169e-003
3.961134e+003,-2.240533e-003
3.963063e+003,-1.992675e-003
3.964991e+003,-1.678107e-003
3.966920e+003,-1.519285e-003
3.968848e+003,-1.494719e-003
3.970777e+003,-1.613311e-003
3.972705e+003,-1.648665e-003
3.974634e+003,-1.628958e-003
3.976562e+003,-1.701706e-003
3.978491e+003,-1.663981e-003
3.980419e+003,-1.671968e-003
3.982348e+003,-1.791073e-003
3.984276e+003,-1.790710e-003
3.986205e+003,-1.838158e-003
3.988133e+003,-1.775366e-003
3.990062e+003,-1.585218e-003
3.991990e+003,-1.633745e-003
3.993919e+003,-1.926541e-003
3.995847e+003,-2.094908e-003
3.997776e+003,-1.851917e-003
3.999704e+003,-1.880686e-003
4.001633e+003,0.000000e+000
