3.991989e+002,-3.928247e-002
4.011274e+002,-2.979754e-002
4.030559e+002,-2.468275e-002
4.049844e+002,-2.521505e-002
4.069129e+002,-3.076275e-002
4.088414e+002,-3.423034e-002
4.107699e+002,-3.189309e-002
4.126984e+002,-2.802651e-002
4.146269e+002,-2.179542e-002
4.165554e+002,-2.341474e-002
4.184839e+002,-2.578773e-002
4.204124e+002,-2.303975e-002
4.223409e+002,-2.197314e-002
4.242694e+002,-2.466343e-002
4.261979e+002,-2.348239e-002
4.281264e+002,-1.983073e-002
4.300549e+002,-1.652147e-002
4.319834e+002,-1.683749e-002
4.339119e+002,-1.652555e-002
4.358404e+002,-1.756539e-002
4.377689e+002,-1.696681e-002
4.396974e+002,-1.533298e-002
4.416259e+002,-1.813000e-002
4.435544e+002,-1.968212e-002
4.454829e+002,-2.022412e-002
4.474114e+002,-2.032535e-002
4.493399e+002,-1.974215e-002
4.512684e+002,-1.983504e-002
4.531969e+002,-1.982095e-002
4.551254e+002,-2.084833e-002
4.570539e+002,-1.876309e-002
4.589824e+002,-1.587813e-002
4.609109e+002,-1.661543e-002
4.628394e+002,-1.676921e-002
4.647679e+002,-1.922896e-002
4.666964e+002,-2.290613e-002
4.686249e+002,-2.238439e-002
4.705533e+002,-2.337804e-002
4.724819e+002,-2.236384e-002
4.744103e+002,-1.999047e-002
4.763389e+002,-1.842348e-002
4.782673e+002,-1.619535e-002
4.801959e+002,-1.550067e-002
4.821243e+002,-1.506048e-002
4.840529e+002,-1.519222e-002
4.859813e+002,-1.552005e-002
4.879099e+002,-1.555697e-002
4.898383e+002,-1.639217e-002
4.917668e+002,-1.571567e-002
4.936953e+002,-1.547164e-002
4.956238e+002,-1.492364e-002
4.975523e+002,-1.398918e-002
4.994808e+002,-1.548504e-002
5.014093e+002,-1.768597e-002
5.033378e+002,-1.735717e-002
5.052663e+002,-1.755311e-002
5.071948e+002,-1.805238e-002
5.091233e+002,-1.762043e-002
5.110518e+002,-1.769370e-002
5.129803e+002,-1.735258e-002
5.149088e+002,-1.834868e-002
5.168373e+002,-1.913738e-002
5.187658e+002,-1.850762e-002
5.206943e+002,-1.820235e-002
5.226228e+002,-1.924748e-002
5.245513e+002,-2.028563e-002
5.264798e+002,-1.873983e-002
5.284083e+002,-1.804240e-002
5.303368e+002,-1.955163e-002
5.322653e+002,-2.017010e-002
5.341938e+002,-2.017020e-002
5.361223e+002,-2.161469e-002
5.380508e+002,-2.138588e-002
5.399792e+002,-1.981614e-002
5.419078e+002,-1.955848e-002
5.438363e+002,-1.993186e-002
5.457648e+002,-1.896356e-002
5.476932e+002,-1.873656e-002
5.496218e+002,-1.895861e-002
5.515503e+002,-1.891852e-002
5.534788e+002,-1.886345e-002
5.554072e+002,-2.053054e-002
5.573358e+002,-2.062746e-002
5.592643e+002,-1.879453e-002
5.611927e+002,-1.837444e-002
5.631212e+002,-2.019547e-002
5.650497e+002,-2.069109e-002
5.669783e+002,-1.976875e-002
5.689067e+002,-1.906514e-002
5.708352e+002,-2.019619e-002
5.727637e+002,-1.948441e-002
5.746923e+002,-1.893917e-002
5.766207e+002,-1.659623e-002
5.785492e+002,-1.587941e-002
5.804777e+002,-2.202322e-002
5.824063e+002,-2.240324e-002
5.843347e+002,-2.111886e-002
5.862632e+002,-2.304289e-002
5.881917e+002,-2.215492e-002
5.901202e+002,-1.945438e-002
5.920487e+002,-1.923328e-002
5.939772e+002,-1.771766e-002
5.959057e+002,-1.673500e-002
5.978342e+002,-1.698026e-002
5.997627e+002,-1.576226e-002
6.016912e+002,-1.392398e-002
6.036197e+002,-1.350406e-002
6.055482e+002,-1.367535e-002
6.074767e+002,-1.325050e-002
6.094052e+002,-1.101418e-002
6.113337e+002,-1.035545e-002
6.132622e+002,-1.102610e-002
6.151907e+002,-1.127109e-002
6.171192e+002,-1.043662e-002
6.190477e+002,-9.830073e-003
6.209762e+002,-1.080713e-002
6.229047e+002,-1.392658e-002
6.248332e+002,-1.723340e-002
6.267617e+002,-1.866426e-002
6.286902e+002,-1.925828e-002
6.306187e+002,-1.911930e-002
6.325472e+002,-1.828092e-002
6.344756e+002,-1.794739e-002
6.364042e+002,-1.792736e-002
6.383326e+002,-1.836386e-002
6.402612e+002,-1.874106e-002
6.421896e+002,-1.848559e-002
6.441182e+002,-1.771924e-002
6.460466e+002,-1.783670e-002
6.479752e+002,-1.843684e-002
6.499036e+002,-1.888673e-002
6.518322e+002,-1.912419e-002
6.537606e+002,-1.866788e-002
6.556891e+002,-1.876467e-002
6.576177e+002,-1.891325e-002
6.595461e+002,-1.925838e-002
6.614746e+002,-1.947922e-002
6.634031e+002,-1.972388e-002
6.653317e+002,-1.933907e-002
6.672601e+002,-1.780862e-002
6.691886e+002,-1.721885e-002
6.711171e+002,-1.780398e-002
6.730457e+002,-1.785820e-002
6.749741e+002,-1.789343e-002
6.769026e+002,-1.794211e-002
6.788311e+002,-1.719602e-002
6.807596e+002,-1.716404e-002
6.826881e+002,-1.734157e-002
6.846166e+002,-1.720353e-002
6.865451e+002,-1.642139e-002
6.884736e+002,-1.636285e-002
6.904021e+002,-1.689929e-002
6.923306e+002,-1.690735e-002
6.942591e+002,-1.665787e-002
6.961876e+002,-1.631125e-002
6.981161e+002,-1.586580e-002
7.000446e+002,-1.567991e-002
7.019731e+002,-1.535741e-002
7.039016e+002,-1.544951e-002
7.058301e+002,-1.578223e-002
7.077585e+002,-1.577798e-002
7.096871e+002,-1.593940e-002
7.116156e+002,-1.590273e-002
7.135441e+002,-1.566738e-002
7.154725e+002,-1.578603e-002
7.174011e+002,-1.646960e-002
7.193296e+002,-1.649212e-002
7.212581e+002,-1.627371e-002
7.231865e+002,-1.583271e-002
7.251151e+002,-1.539889e-002
7.270436e+002,-1.540318e-002
7.289720e+002,-1.527451e-002
7.309005e+002,-1.538594e-002
7.328290e+002,-1.532284e-002
7.347576e+002,-1.561701e-002
7.366860e+002,-1.597667e-002
7.386145e+002,-1.540954e-002
7.405430e+002,-1.476469e-002
7.424716e+002,-1.406916e-002
7.444000e+002,-1.399184e-002
7.463285e+002,-1.447030e-002
7.482570e+002,-1.405565e-002
7.501855e+002,-1.375513e-002
7.521140e+002,-1.349327e-002
7.540425e+002,-1.324436e-002
7.559710e+002,-1.302286e-002
7.578995e+002,-1.287460e-002
7.598280e+002,-1.289657e-002
7.617565e+002,-1.290014e-002
7.636850e+002,-1.248290e-002
7.656135e+002,-1.219553e-002
7.675420e+002,-1.195000e-002
7.694705e+002,-1.217343e-002
7.713990e+002,-1.254693e-002
7.733275e+002,-1.221180e-002
7.752560e+002,-1.184145e-002
7.771844e+002,-1.200570e-002
7.791130e+002,-1.251519e-002
7.810415e+002,-1.244700e-002
7.829700e+002,-1.240292e-002
7.848984e+002,-1.219556e-002
7.868270e+002,-1.224137e-002
7.887555e+002,-1.316063e-002
7.906840e+002,-1.407721e-002
7.926124e+002,-1.429733e-002
7.945410e+002,-1.419158e-002
7.964695e+002,-1.419860e-002
7.983979e+002,-1.427139e-002
8.003264e+002,-1.418610e-002
8.022549e+002,-1.395218e-002
8.041835e+002,-1.424859e-002
8.061119e+002,-1.471959e-002
8.080404e+002,-1.490116e-002
8.099689e+002,-1.488912e-002
8.118975e+002,-1.478970e-002
8.138259e+002,-1.472923e-002
8.157545e+002,-1.458921e-002
8.176830e+002,-1.460151e-002
8.196115e+002,-1.439418e-002
8.215399e+002,-1.423259e-002
8.234684e+002,-1.452763e-002
8.253970e+002,-1.435388e-002
8.273254e+002,-1.377362e-002
8.292539e+002,-1.354806e-002
8.311824e+002,-1.354905e-002
8.331110e+002,-1.349102e-002
8.350394e+002,-1.330673e-002
8.369679e+002,-1.312694e-002
8.388964e+002,-1.309337e-002
8.408250e+002,-1.313411e-002
8.427534e+002,-1.320791e-002
8.446819e+002,-1.373096e-002
8.466104e+002,-1.409725e-002
8.485389e+002,-1.341431e-002
8.504674e+002,-1.311434e-002
8.523959e+002,-1.352359e-002
8.543244e+002,-1.383512e-002
8.562529e+002,-1.408478e-002
8.581814e+002,-1.389167e-002
8.601099e+002,-1.377041e-002
8.620384e+002,-1.415242e-002
8.639669e+002,-1.454163e-002
8.658954e+002,-1.444248e-002
8.678239e+002,-1.444405e-002
8.697524e+002,-1.478125e-002
8.716809e+002,-1.492658e-002
8.736094e+002,-1.502220e-002
8.755378e+002,-1.502367e-002
8.774664e+002,-1.513997e-002
8.793949e+002,-1.518368e-002
8.813234e+002,-1.508506e-002
8.832518e+002,-1.485986e-002
8.851804e+002,-1.486245e-002
8.871089e+002,-1.513652e-002
8.890374e+002,-1.481285e-002
8.909658e+002,-1.426488e-002
8.928943e+002,-1.445677e-002
8.948229e+002,-1.460533e-002
8.967513e+002,-1.425671e-002
8.986798e+002,-1.412253e-002
9.006083e+002,-1.430817e-002
9.025369e+002,-1.417433e-002
9.044653e+002,-1.410855e-002
9.063938e+002,-1.463544e-002
9.083223e+002,-1.468330e-002
9.102509e+002,-1.420075e-002
9.121793e+002,-1.418020e-002
9.141078e+002,-1.479976e-002
9.160364e+002,-1.508797e-002
9.179648e+002,-1.486764e-002
9.198933e+002,-1.475751e-002
9.218218e+002,-1.478579e-002
9.237504e+002,-1.508586e-002
9.256788e+002,-1.522191e-002
9.276073e+002,-1.532837e-002
9.295358e+002,-1.518058e-002
9.314644e+002,-1.523961e-002
9.333928e+002,-1.557548e-002
9.353213e+002,-1.543682e-002
9.372498e+002,-1.528564e-002
9.391783e+002,-1.554751e-002
9.411068e+002,-1.551154e-002
9.430353e+002,-1.558587e-002
9.449637e+002,-1.541162e-002
9.468923e+002,-1.530579e-002
9.488208e+002,-1.550825e-002
9.507493e+002,-1.591624e-002
9.526777e+002,-1.614093e-002
9.546063e+002,-1.610501e-002
9.565348e+002,-1.581009e-002
9.584633e+002,-1.578133e-002
9.603917e+002,-1.588053e-002
9.623203e+002,-1.597798e-002
9.642488e+002,-1.616608e-002
9.661772e+002,-1.591142e-002
9.681057e+002,-1.570033e-002
9.700343e+002,-1.586874e-002
9.719628e+002,-1.598791e-002
9.738912e+002,-1.628836e-002
9.758197e+002,-1.615848e-002
9.777483e+002,-1.588730e-002
9.796768e+002,-1.614093e-002
9.816052e+002,-1.650373e-002
9.835337e+002,-1.653853e-002
9.854623e+002,-1.654344e-002
9.873907e+002,-1.663529e-002
9.893192e+002,-1.669881e-002
9.912477e+002,-1.668143e-002
9.931763e+002,-1.640624e-002
9.951047e+002,-1.622932e-002
9.970332e+002,-1.649062e-002
9.989617e+002,-1.654730e-002
1.000890e+003,-1.646893e-002
1.002819e+003,-1.642841e-002
1.004747e+003,-1.618137e-002
1.006676e+003,-1.587408e-002
1.008604e+003,-1.546109e-002
1.010533e+003,-1.521497e-002
1.012461e+003,-1.508752e-002
1.014390e+003,-1.503971e-002
1.016318e+003,-1.476059e-002
1.018247e+003,-1.436680e-002
1.020175e+003,-1.406579e-002
1.022104e+003,-1.371770e-002
1.024032e+003,-1.316436e-002
1.025961e+003,-1.275335e-002
1.027889e+003,-1.235568e-002
1.029818e+003,-1.204544e-002
1.031746e+003,-1.164518e-002
1.033675e+003,-1.117206e-002
1.035603e+003,-1.089322e-002
1.037532e+003,-1.044859e-002
1.039460e+003,-9.889444e-003
1.041389e+003,-9.631591e-003
1.043317e+003,-9.493417e-003
1.045246e+003,-9.305581e-003
1.047174e+003,-9.170158e-003
1.049103e+003,-9.063184e-003
1.051031e+003,-8.888926e-003
1.052960e+003,-8.841334e-003
1.054888e+003,-8.879122e-003
1.056817e+003,-8.731032e-003
1.058745e+003,-8.627523e-003
1.060674e+003,-8.726972e-003
1.062602e+003,-8.764544e-003
1.064531e+003,-8.755387e-003
1.066459e+003,-8.665396e-003
1.068388e+003,-8.533054e-003
1.070316e+003,-8.570773e-003
1.072245e+003,-8.782695e-003
1.074173e+003,-8.627263e-003
1.076102e+003,-8.583052e-003
1.078030e+003,-8.589516e-003
1.079959e+003,-8.466868e-003
1.081887e+003,-8.461181e-003
1.083816e+003,-8.649188e-003
1.085744e+003,-8.932847e-003
1.087673e+003,-8.868669e-003
1.089601e+003,-8.677218e-003
1.091530e+003,-8.544750e-003
1.093458e+003,-8.482660e-003
1.095387e+003,-8.679328e-003
1.097315e+003,-8.838315e-003
1.099244e+003,-8.751296e-003
1.101172e+003,-8.702030e-003
1.103101e+003,-8.704142e-003
1.105029e+003,-8.834841e-003
1.106958e+003,-8.859547e-003
1.108886e+003,-8.931321e-003
1.110815e+003,-9.053806e-003
1.112743e+003,-8.940052e-003
1.114672e+003,-8.862793e-003
1.116600e+003,-8.979813e-003
1.118529e+003,-8.966765e-003
1.120457e+003,-8.929698e-003
1.122386e+003,-8.957450e-003
1.124314e+003,-8.910871e-003
1.126243e+003,-8.975399e-003
1.128171e+003,-8.996203e-003
1.130100e+003,-8.837048e-003
1.132028e+003,-8.983318e-003
1.133957e+003,-9.202079e-003
1.135885e+003,-9.445209e-003
1.137814e+003,-9.963186e-003
1.139742e+003,-1.023120e-002
1.141671e+003,-1.056841e-002
1.143599e+003,-1.109009e-002
1.145528e+003,-1.127919e-002
1.147456e+003,-1.154785e-002
1.149385e+003,-1.189400e-002
1.151313e+003,-1.219646e-002
1.153242e+003,-1.255875e-002
1.155170e+003,-1.270596e-002
1.157099e+003,-1.288766e-002
1.159027e+003,-1.307923e-002
1.160956e+003,-1.314275e-002
1.162884e+003,-1.317747e-002
1.164813e+003,-1.312620e-002
1.166741e+003,-1.318133e-002
1.168670e+003,-1.317532e-002
1.170598e+003,-1.304354e-002
1.172526e+003,-1.299759e-002
1.174455e+003,-1.304100e-002
1.176384e+003,-1.305097e-002
1.178312e+003,-1.313938e-002
1.180240e+003,-1.326907e-002
1.182169e+003,-1.320106e-002
1.184098e+003,-1.323343e-002
1.186026e+003,-1.323353e-002
1.187954e+003,-1.328241e-002
1.189883e+003,-1.334529e-002
1.191812e+003,-1.350746e-002
1.193740e+003,-1.376341e-002
1.195668e+003,-1.385617e-002
1.197597e+003,-1.387854e-002
1.199526e+003,-1.415800e-002
1.201454e+003,-1.433801e-002
1.203382e+003,-1.426802e-002
1.205311e+003,-1.428451e-002
1.207240e+003,-1.419732e-002
1.209168e+003,-1.403239e-002
1.211096e+003,-1.374068e-002
1.213025e+003,-1.371028e-002
1.214953e+003,-1.393887e-002
1.216882e+003,-1.406874e-002
1.218810e+003,-1.408022e-002
1.220739e+003,-1.406268e-002
1.222667e+003,-1.392648e-002
1.224596e+003,-1.381409e-002
1.226524e+003,-1.377898e-002
1.228453e+003,-1.366980e-002
1.230381e+003,-1.353852e-002
1.232310e+003,-1.346246e-002
1.234238e+003,-1.349628e-002
1.236167e+003,-1.348710e-002
1.238095e+003,-1.341980e-002
1.240024e+003,-1.361431e-002
1.241952e+003,-1.380142e-002
1.243881e+003,-1.398979e-002
1.245809e+003,-1.418651e-002
1.247738e+003,-1.417750e-002
1.249666e+003,-1.419562e-002
1.251595e+003,-1.436577e-002
1.253523e+003,-1.452683e-002
1.255452e+003,-1.472763e-002
1.257380e+003,-1.494867e-002
1.259309e+003,-1.505878e-002
1.261237e+003,-1.521750e-002
1.263166e+003,-1.520963e-002
1.265094e+003,-1.502441e-002
1.267023e+003,-1.489220e-002
1.268951e+003,-1.477013e-002
1.270880e+003,-1.464025e-002
1.272808e+003,-1.475582e-002
1.274737e+003,-1.490251e-002
1.276665e+003,-1.498299e-002
1.278594e+003,-1.510922e-002
1.280522e+003,-1.532284e-002
1.282451e+003,-1.521862e-002
1.284379e+003,-1.515552e-002
1.286308e+003,-1.518736e-002
1.288236e+003,-1.513399e-002
1.290165e+003,-1.511312e-002
1.292093e+003,-1.518026e-002
1.294022e+003,-1.533653e-002
1.295950e+003,-1.536352e-002
1.297879e+003,-1.532677e-002
1.299807e+003,-1.544261e-002
1.301736e+003,-1.559127e-002
1.303664e+003,-1.578523e-002
1.305593e+003,-1.592119e-002
1.307521e+003,-1.607774e-002
1.309450e+003,-1.628782e-002
1.311378e+003,-1.650947e-002
1.313307e+003,-1.655840e-002
1.315235e+003,-1.653228e-002
1.317164e+003,-1.660296e-002
1.319092e+003,-1.675904e-002
1.321021e+003,-1.679659e-002
1.322949e+003,-1.670385e-002
1.324878e+003,-1.648060e-002
1.326806e+003,-1.643993e-002
1.328735e+003,-1.637835e-002
1.330663e+003,-1.613441e-002
1.332592e+003,-1.609843e-002
1.334520e+003,-1.614961e-002
1.336449e+003,-1.614147e-002
1.338377e+003,-1.605178e-002
1.340306e+003,-1.596271e-002
1.342234e+003,-1.603304e-002
1.344163e+003,-1.603952e-002
1.346091e+003,-1.613559e-002
1.348020e+003,-1.621467e-002
1.349948e+003,-1.625654e-002
1.351877e+003,-1.624135e-002
1.353805e+003,-1.614437e-002
1.355734e+003,-1.619188e-002
1.357662e+003,-1.620008e-002
1.359591e+003,-1.617017e-002
1.361519e+003,-1.620946e-002
1.363448e+003,-1.630314e-002
1.365376e+003,-1.646839e-002
1.367305e+003,-1.673385e-002
1.369233e+003,-1.690776e-002
1.371162e+003,-1.693660e-002
1.373090e+003,-1.704098e-002
1.375019e+003,-1.719866e-002
1.376947e+003,-1.741673e-002
1.378876e+003,-1.748685e-002
1.380804e+003,-1.756233e-002
1.382733e+003,-1.758480e-002
1.384661e+003,-1.762317e-002
1.386590e+003,-1.742542e-002
1.388518e+003,-1.747424e-002
1.390447e+003,-1.772761e-002
1.392375e+003,-1.773824e-002
1.394304e+003,-1.759126e-002
1.396232e+003,-1.776031e-002
1.398161e+003,-1.782541e-002
1.400089e+003,-1.804965e-002
1.402018e+003,-1.836907e-002
1.403946e+003,-1.824095e-002
1.405875e+003,-1.831428e-002
1.407803e+003,-1.847327e-002
1.409732e+003,-1.836847e-002
1.411660e+003,-1.831469e-002
1.413589e+003,-1.830278e-002
1.415517e+003,-1.811659e-002
1.417446e+003,-1.765082e-002
1.419374e+003,-1.721796e-002
1.421303e+003,-1.753312e-002
1.423231e+003,-1.743675e-002
1.425160e+003,-1.716143e-002
1.427088e+003,-1.690024e-002
1.429017e+003,-1.623615e-002
1.430945e+003,-1.573580e-002
1.432874e+003,-1.535537e-002
1.434802e+003,-1.469512e-002
1.436731e+003,-1.404022e-002
1.438659e+003,-1.416743e-002
1.440588e+003,-1.416390e-002
1.442516e+003,-1.377949e-002
1.444445e+003,-1.354151e-002
1.446373e+003,-1.329950e-002
1.448302e+003,-1.284057e-002
1.450230e+003,-1.280078e-002
1.452159e+003,-1.271001e-002
1.454087e+003,-1.246828e-002
1.456016e+003,-1.144907e-002
1.457944e+003,-1.100872e-002
1.459873e+003,-1.192244e-002
1.461801e+003,-1.253592e-002
1.463730e+003,-1.250247e-002
1.465658e+003,-1.270727e-002
1.467587e+003,-1.339776e-002
1.469515e+003,-1.384725e-002
1.471444e+003,-1.349320e-002
1.473372e+003,-1.342080e-002
1.475301e+003,-1.409286e-002
1.477229e+003,-1.477724e-002
1.479158e+003,-1.540532e-002
1.481086e+003,-1.573545e-002
1.483015e+003,-1.610791e-002
1.484943e+003,-1.642503e-002
1.486872e+003,-1.641559e-002
1.488800e+003,-1.625405e-002
1.490729e+003,-1.641619e-002
1.492657e+003,-1.691308e-002
1.494586e+003,-1.687662e-002
1.496514e+003,-1.655078e-002
1.498443e+003,-1.672387e-002
1.500371e+003,-1.707953e-002
1.502300e+003,-1.735112e-002
1.504228e+003,-1.684004e-002
1.506157e+003,-1.544126e-002
1.508085e+003,-1.570464e-002
1.510014e+003,-1.681313e-002
1.511942e+003,-1.708941e-002
1.513871e+003,-1.724592e-002
1.515799e+003,-1.708348e-002
1.517728e+003,-1.687165e-002
1.519656e+003,-1.667691e-002
1.521585e+003,-1.625396e-002
1.523513e+003,-1.679592e-002
1.525442e+003,-1.709887e-002
1.527370e+003,-1.717672e-002
1.529299e+003,-1.742586e-002
1.531227e+003,-1.745928e-002
1.533156e+003,-1.700141e-002
1.535084e+003,-1.728528e-002
1.537013e+003,-1.742602e-002
1.538941e+003,-1.625616e-002
1.540870e+003,-1.574752e-002
1.542798e+003,-1.655920e-002
1.544727e+003,-1.711222e-002
1.546655e+003,-1.756857e-002
1.548584e+003,-1.770420e-002
1.550512e+003,-1.764111e-002
1.552441e+003,-1.759940e-002
1.554369e+003,-1.734055e-002
1.556298e+003,-1.710894e-002
1.558226e+003,-1.588385e-002
1.560155e+003,-1.582875e-002
1.562083e+003,-1.711735e-002
1.564012e+003,-1.732667e-002
1.565940e+003,-1.717901e-002
1.567869e+003,-1.674539e-002
1.569797e+003,-1.622890e-002
1.571726e+003,-1.662837e-002
1.573654e+003,-1.673283e-002
1.575583e+003,-1.608192e-002
1.577511e+003,-1.603658e-002
1.579440e+003,-1.639144e-002
1.581368e+003,-1.642133e-002
1.583297e+003,-1.639705e-002
1.585225e+003,-1.626513e-002
1.587154e+003,-1.615749e-002
1.589082e+003,-1.611111e-002
1.591010e+003,-1.614214e-002
1.592939e+003,-1.609862e-002
1.594868e+003,-1.604699e-002
1.596796e+003,-1.606676e-002
1.598724e+003,-1.615370e-002
1.600653e+003,-1.615264e-002
1.602582e+003,-1.627678e-002
1.604510e+003,-1.635190e-002
1.606438e+003,-1.644880e-002
1.608367e+003,-1.640573e-002
1.610296e+003,-1.647467e-002
1.612224e+003,-1.668676e-002
1.614152e+003,-1.680816e-002
1.616081e+003,-1.634118e-002
1.618010e+003,-1.648386e-002
1.619938e+003,-1.710706e-002
1.621866e+003,-1.708431e-002
1.623795e+003,-1.705210e-002
1.625724e+003,-1.739145e-002
1.627652e+003,-1.755311e-002
1.629580e+003,-1.772080e-002
1.631509e+003,-1.799704e-002
1.633438e+003,-1.779148e-002
1.635366e+003,-1.720086e-002
1.637294e+003,-1.771031e-002
1.639223e+003,-1.848022e-002
1.641151e+003,-1.886084e-002
1.643080e+003,-1.905940e-002
1.645008e+003,-1.867159e-002
1.646937e+003,-1.839080e-002
1.648865e+003,-1.910399e-002
1.650794e+003,-1.915894e-002
1.652722e+003,-1.763908e-002
1.654651e+003,-1.815752e-002
1.656579e+003,-1.946049e-002
1.658508e+003,-1.990660e-002
1.660436e+003,-1.978942e-002
1.662365e+003,-1.933951e-002
1.664293e+003,-1.932548e-002
1.666222e+003,-1.949823e-002
1.668150e+003,-1.887614e-002
1.670079e+003,-1.839896e-002
1.672007e+003,-1.874906e-002
1.673936e+003,-1.850623e-002
1.675864e+003,-1.816317e-002
1.677793e+003,-1.868902e-002
1.679721e+003,-1.866743e-002
1.681650e+003,-1.823108e-002
1.683578e+003,-1.723344e-002
1.685507e+003,-1.728719e-002
1.687435e+003,-1.801078e-002
1.689364e+003,-1.820686e-002
1.691292e+003,-1.829744e-002
1.693221e+003,-1.819991e-002
1.695149e+003,-1.738130e-002
1.697078e+003,-1.720439e-002
1.699006e+003,-1.683599e-002
1.700935e+003,-1.630505e-002
1.702863e+003,-1.725375e-002
1.704792e+003,-1.725847e-002
1.706720e+003,-1.715824e-002
1.708649e+003,-1.728161e-002
1.710577e+003,-1.734577e-002
1.712506e+003,-1.723703e-002
1.714434e+003,-1.683933e-002
1.716363e+003,-1.619871e-002
1.718291e+003,-1.609888e-002
1.720220e+003,-1.691130e-002
1.722148e+003,-1.725538e-002
1.724077e+003,-1.712139e-002
1.726005e+003,-1.719245e-002
1.727934e+003,-1.723251e-002
1.729862e+003,-1.705303e-002
1.731791e+003,-1.680402e-002
1.733719e+003,-1.595901e-002
1.735648e+003,-1.624333e-002
1.737576e+003,-1.688635e-002
1.739505e+003,-1.661441e-002
1.741433e+003,-1.660710e-002
1.743362e+003,-1.664591e-002
1.745290e+003,-1.659457e-002
1.747219e+003,-1.641948e-002
1.749147e+003,-1.614932e-002
1.751076e+003,-1.596779e-002
1.753004e+003,-1.633677e-002
1.754933e+003,-1.642870e-002
1.756861e+003,-1.633358e-002
1.758790e+003,-1.650207e-002
1.760718e+003,-1.623366e-002
1.762647e+003,-1.612053e-002
1.764575e+003,-1.640643e-002
1.766504e+003,-1.630962e-002
1.768432e+003,-1.619529e-002
1.770361e+003,-1.609003e-002
1.772289e+003,-1.563257e-002
1.774218e+003,-1.585715e-002
1.776146e+003,-1.623950e-002
1.778075e+003,-1.637772e-002
1.780003e+003,-1.636626e-002
1.781932e+003,-1.639657e-002
1.783860e+003,-1.631823e-002
1.785789e+003,-1.619357e-002
1.787717e+003,-1.638110e-002
1.789646e+003,-1.637009e-002
1.791574e+003,-1.594202e-002
1.793503e+003,-1.593442e-002
1.795431e+003,-1.629947e-002
1.797360e+003,-1.634632e-002
1.799288e+003,-1.629191e-002
1.801217e+003,-1.617984e-002
1.803145e+003,-1.634925e-002
1.805074e+003,-1.658711e-002
1.807002e+003,-1.661795e-002
1.808931e+003,-1.639667e-002
1.810859e+003,-1.628157e-002
1.812788e+003,-1.643081e-002
1.814716e+003,-1.662324e-002
1.816645e+003,-1.652919e-002
1.818573e+003,-1.653933e-002
1.820502e+003,-1.662353e-002
1.822430e+003,-1.665551e-002
1.824359e+003,-1.648807e-002
1.826287e+003,-1.645697e-002
1.828216e+003,-1.640295e-002
1.830144e+003,-1.626309e-002
1.832073e+003,-1.647732e-002
1.834001e+003,-1.659400e-002
1.835930e+003,-1.660066e-002
1.837858e+003,-1.666520e-002
1.839787e+003,-1.667075e-002
1.841715e+003,-1.649458e-002
1.843644e+003,-1.602055e-002
1.845572e+003,-1.612072e-002
1.847501e+003,-1.646663e-002
1.849429e+003,-1.659731e-002
1.851358e+003,-1.669738e-002
1.853286e+003,-1.662190e-002
1.855215e+003,-1.655470e-002
1.857143e+003,-1.660927e-002
1.859072e+003,-1.669703e-002
1.861000e+003,-1.667002e-002
1.862929e+003,-1.665895e-002
1.864857e+003,-1.660710e-002
1.866786e+003,-1.645014e-002
1.868714e+003,-1.624148e-002
1.870643e+003,-1.641970e-002
1.872571e+003,-1.670720e-002
1.874500e+003,-1.667764e-002
1.876428e+003,-1.663077e-002
1.878357e+003,-1.674858e-002
1.880285e+003,-1.682081e-002
1.882214e+003,-1.684427e-002
1.884142e+003,-1.671427e-002
1.886071e+003,-1.663644e-002
1.887999e+003,-1.660608e-002
1.889928e+003,-1.662228e-002
1.891856e+003,-1.678833e-002
1.893785e+003,-1.679382e-002
1.895713e+003,-1.677134e-002
1.897642e+003,-1.676592e-002
1.899570e+003,-1.678495e-002
1.901499e+003,-1.676025e-002
1.903427e+003,-1.673095e-002
1.905356e+003,-1.670790e-002
1.907284e+003,-1.673168e-002
1.909213e+003,-1.668357e-002
1.911141e+003,-1.673474e-002
1.913070e+003,-1.678939e-002
1.914998e+003,-1.679834e-002
1.916927e+003,-1.661897e-002
1.918855e+003,-1.661227e-002
1.920784e+003,-1.678224e-002
1.922712e+003,-1.678613e-002
1.924641e+003,-1.674284e-002
1.926569e+003,-1.674211e-002
1.928498e+003,-1.679904e-002
1.930426e+003,-1.690078e-002
1.932355e+003,-1.689820e-002
1.934283e+003,-1.687561e-002
1.936212e+003,-1.694638e-002
1.938140e+003,-1.697745e-002
1.940069e+003,-1.701317e-002
1.941997e+003,-1.685227e-002
1.943926e+003,-1.676289e-002
1.945854e+003,-1.685208e-002
1.947783e+003,-1.693032e-002
1.949711e+003,-1.694196e-002
1.951640e+003,-1.698223e-002
1.953568e+003,-1.703206e-002
1.955497e+003,-1.706727e-002
1.957425e+003,-1.712591e-002
1.959354e+003,-1.710237e-002
1.961282e+003,-1.701744e-002
1.963211e+003,-1.700196e-002
1.965139e+003,-1.703184e-002
1.967068e+003,-1.708778e-002
1.968996e+003,-1.718404e-002
1.970925e+003,-1.720006e-002
1.972853e+003,-1.716449e-002
1.974782e+003,-1.718767e-002
1.976710e+003,-1.711069e-002
1.978639e+003,-1.702009e-002
1.980567e+003,-1.706956e-002
1.982496e+003,-1.714483e-002
1.984424e+003,-1.713037e-002
1.986353e+003,-1.709865e-002
1.988281e+003,-1.704981e-002
1.990210e+003,-1.695461e-002
1.992138e+003,-1.697487e-002
1.994067e+003,-1.707246e-002
1.995995e+003,-1.702601e-002
1.997924e+003,-1.696930e-002
1.999852e+003,-1.697121e-002
2.001781e+003,-1.700180e-002
2.003709e+003,-1.703729e-002
2.005638e+003,-1.706781e-002
2.007566e+003,-1.713286e-002
2.009495e+003,-1.719359e-002
2.011423e+003,-1.714617e-002
2.013352e+003,-1.707361e-002
2.015280e+003,-1.709320e-002
2.017208e+003,-1.713799e-002
2.019137e+003,-1.715617e-002
2.021066e+003,-1.717165e-002
2.022994e+003,-1.726111e-002
2.024922e+003,-1.725162e-002
2.026851e+003,-1.723226e-002
2.028780e+003,-1.727244e-002
2.030708e+003,-1.720522e-002
2.032636e+003,-1.716471e-002
2.034565e+003,-1.727066e-002
2.036494e+003,-1.733498e-002
2.038422e+003,-1.726916e-002
2.040350e+003,-1.722748e-002
2.042279e+003,-1.724866e-002
2.044208e+003,-1.724181e-002
2.046136e+003,-1.723500e-002
2.048064e+003,-1.729091e-002
2.049993e+003,-1.734061e-002
2.051921e+003,-1.729037e-002
2.053850e+003,-1.722210e-002
2.055778e+003,-1.726878e-002
2.057707e+003,-1.729320e-002
2.059635e+003,-1.730053e-002
2.061564e+003,-1.733593e-002
2.063492e+003,-1.736786e-002
2.065421e+003,-1.732530e-002
2.067349e+003,-1.734972e-002
2.069278e+003,-1.738397e-002
2.071206e+003,-1.729101e-002
2.073135e+003,-1.723732e-002
2.075063e+003,-1.731915e-002
2.076992e+003,-1.744398e-002
2.078920e+003,-1.742198e-002
2.080849e+003,-1.735125e-002
2.082777e+003,-1.731896e-002
2.084706e+003,-1.734418e-002
2.086634e+003,-1.737761e-002
2.088563e+003,-1.740116e-002
2.090491e+003,-1.740059e-002
2.092420e+003,-1.736538e-002
2.094348e+003,-1.734431e-002
2.096277e+003,-1.740069e-002
2.098205e+003,-1.743984e-002
2.100134e+003,-1.746998e-002
2.102062e+003,-1.747704e-002
2.103991e+003,-1.745858e-002
2.105919e+003,-1.742898e-002
2.107848e+003,-1.743809e-002
2.109776e+003,-1.745741e-002
2.111705e+003,-1.735669e-002
2.113633e+003,-1.737076e-002
2.115562e+003,-1.735284e-002
2.117490e+003,-1.734399e-002
2.119419e+003,-1.744133e-002
2.121347e+003,-1.741851e-002
2.123276e+003,-1.744550e-002
2.125204e+003,-1.750922e-002
2.127133e+003,-1.747218e-002
2.129061e+003,-1.736350e-002
2.130990e+003,-1.739047e-002
2.132918e+003,-1.742020e-002
2.134847e+003,-1.748376e-002
2.136775e+003,-1.753070e-002
2.138704e+003,-1.743627e-002
2.140632e+003,-1.739034e-002
2.142561e+003,-1.736344e-002
2.144489e+003,-1.721955e-002
2.146418e+003,-1.717726e-002
2.148346e+003,-1.724843e-002
2.150275e+003,-1.735538e-002
2.152203e+003,-1.740877e-002
2.154132e+003,-1.743213e-002
2.156060e+003,-1.735863e-002
2.157989e+003,-1.736659e-002
2.159917e+003,-1.737652e-002
2.161846e+003,-1.736220e-002
2.163774e+003,-1.733106e-002
2.165703e+003,-1.728260e-002
2.167631e+003,-1.733319e-002
2.169560e+003,-1.741055e-002
2.171488e+003,-1.744372e-002
2.173417e+003,-1.740428e-002
2.175345e+003,-1.730938e-002
2.177274e+003,-1.730101e-002
2.179202e+003,-1.723605e-002
2.181131e+003,-1.717554e-002
2.183059e+003,-1.722334e-002
2.184988e+003,-1.730438e-002
2.186916e+003,-1.730088e-002
2.188845e+003,-1.722990e-002
2.190773e+003,-1.720837e-002
2.192702e+003,-1.721681e-002
2.194630e+003,-1.728703e-002
2.196559e+003,-1.737111e-002
2.198487e+003,-1.734017e-002
2.200416e+003,-1.727330e-002
2.202344e+003,-1.722907e-002
2.204273e+003,-1.724105e-002
2.206201e+003,-1.732221e-002
2.208130e+003,-1.733259e-002
2.210058e+003,-1.738270e-002
2.211987e+003,-1.744496e-002
2.213915e+003,-1.744935e-002
2.215844e+003,-1.734255e-002
2.217772e+003,-1.729871e-002
2.219701e+003,-1.739757e-002
2.221629e+003,-1.744082e-002
2.223558e+003,-1.745559e-002
2.225486e+003,-1.745572e-002
2.227415e+003,-1.739238e-002
2.229343e+003,-1.736602e-002
2.231272e+003,-1.747520e-002
2.233200e+003,-1.745626e-002
2.235129e+003,-1.742357e-002
2.237057e+003,-1.745034e-002
2.238986e+003,-1.750683e-002
2.240914e+003,-1.762556e-002
2.242843e+003,-1.765460e-002
2.244771e+003,-1.759857e-002
2.246700e+003,-1.758938e-002
2.248628e+003,-1.760971e-002
2.250557e+003,-1.765594e-002
2.252485e+003,-1.766141e-002
2.254414e+003,-1.756004e-002
2.256342e+003,-1.755113e-002
2.258271e+003,-1.760736e-002
2.260199e+003,-1.764710e-002
2.262128e+003,-1.769857e-002
2.264056e+003,-1.778013e-002
2.265985e+003,-1.767913e-002
2.267913e+003,-1.758200e-002
2.269842e+003,-1.758200e-002
2.271770e+003,-1.761833e-002
2.273699e+003,-1.769510e-002
2.275627e+003,-1.770926e-002
2.277556e+003,-1.770754e-002
2.279484e+003,-1.778843e-002
2.281413e+003,-1.781034e-002
2.283341e+003,-1.776375e-002
2.285270e+003,-1.783238e-002
2.287198e+003,-1.783540e-002
2.289127e+003,-1.778928e-002
2.291055e+003,-1.781807e-002
2.292984e+003,-1.778798e-002
2.294912e+003,-1.780006e-002
2.296841e+003,-1.784424e-002
2.298769e+003,-1.783575e-002
2.300698e+003,-1.777020e-002
2.302626e+003,-1.773973e-002
2.304555e+003,-1.780544e-002
2.306483e+003,-1.777542e-002
2.308412e+003,-1.765699e-002
2.310340e+003,-1.750550e-002
2.312269e+003,-1.740731e-002
2.314197e+003,-1.741230e-002
2.316125e+003,-1.746107e-002
2.318054e+003,-1.744445e-002
2.319983e+003,-1.739492e-002
2.321911e+003,-1.724165e-002
2.323840e+003,-1.708202e-002
2.325768e+003,-1.699151e-002
2.327697e+003,-1.680708e-002
2.329625e+003,-1.672457e-002
2.331553e+003,-1.673261e-002
2.333482e+003,-1.667544e-002
2.335411e+003,-1.662946e-002
2.337339e+003,-1.660050e-002
2.339268e+003,-1.656807e-002
2.341196e+003,-1.667923e-002
2.343125e+003,-1.684023e-002
2.345053e+003,-1.695840e-002
2.346981e+003,-1.725343e-002
2.348910e+003,-1.758528e-002
2.350839e+003,-1.745053e-002
2.352767e+003,-1.703557e-002
2.354696e+003,-1.674326e-002
2.356624e+003,-1.648529e-002
2.358552e+003,-1.633358e-002
2.360481e+003,-1.613416e-002
2.362409e+003,-1.599264e-002
2.364338e+003,-1.611060e-002
2.366267e+003,-1.626318e-002
2.368195e+003,-1.631715e-002
2.370124e+003,-1.653840e-002
2.372052e+003,-1.689951e-002
2.373980e+003,-1.730479e-002
2.375909e+003,-1.756536e-002
2.377838e+003,-1.770926e-002
2.379766e+003,-1.782729e-002
2.381695e+003,-1.795648e-002
2.383623e+003,-1.800963e-002
2.385552e+003,-1.809141e-002
2.387480e+003,-1.807606e-002
2.389408e+003,-1.802635e-002
2.391337e+003,-1.804498e-002
2.393266e+003,-1.809618e-002
2.395194e+003,-1.800823e-002
2.397123e+003,-1.789823e-002
2.399051e+003,-1.784659e-002
2.400979e+003,-1.793982e-002
2.402908e+003,-1.808547e-002
2.404836e+003,-1.805804e-002
2.406765e+003,-1.803913e-002
2.408694e+003,-1.811951e-002
2.410622e+003,-1.816152e-002
2.412551e+003,-1.810200e-002
2.414479e+003,-1.801214e-002
2.416407e+003,-1.802133e-002
2.418336e+003,-1.810909e-002
2.420264e+003,-1.805998e-002
2.422193e+003,-1.795956e-002
2.424122e+003,-1.798131e-002
2.426050e+003,-1.806608e-002
2.427979e+003,-1.812415e-002
2.429907e+003,-1.810905e-002
2.431835e+003,-1.799377e-002
2.433764e+003,-1.795219e-002
2.435692e+003,-1.796675e-002
2.437621e+003,-1.802530e-002
2.439550e+003,-1.803341e-002
2.441478e+003,-1.798512e-002
2.443406e+003,-1.806882e-002
2.445335e+003,-1.814871e-002
2.447263e+003,-1.817811e-002
2.449192e+003,-1.809787e-002
2.451121e+003,-1.805909e-002
2.453049e+003,-1.808973e-002
2.454978e+003,-1.808878e-002
2.456906e+003,-1.812453e-002
2.458834e+003,-1.817061e-002
2.460763e+003,-1.816857e-002
2.462691e+003,-1.804345e-002
2.464620e+003,-1.799968e-002
2.466549e+003,-1.810254e-002
2.468477e+003,-1.815745e-002
2.470406e+003,-1.814064e-002
2.472334e+003,-1.816689e-002
2.474262e+003,-1.810244e-002
2.476191e+003,-1.802063e-002
2.478119e+003,-1.808058e-002
2.480048e+003,-1.821462e-002
2.481977e+003,-1.825627e-002
2.483905e+003,-1.827803e-002
2.485833e+003,-1.829338e-002
2.487762e+003,-1.819193e-002
2.489690e+003,-1.813998e-002
2.491619e+003,-1.811420e-002
2.493547e+003,-1.806424e-002
2.495476e+003,-1.806024e-002
2.497405e+003,-1.819701e-002
2.499333e+003,-1.821859e-002
2.501261e+003,-1.812682e-002
2.503190e+003,-1.815002e-002
2.505118e+003,-1.808445e-002
2.507047e+003,-1.794799e-002
2.508975e+003,-1.799561e-002
2.510904e+003,-1.800922e-002
2.512833e+003,-1.803913e-002
2.514761e+003,-1.814312e-002
2.516689e+003,-1.812389e-002
2.518618e+003,-1.807568e-002
2.520546e+003,-1.806281e-002
2.522475e+003,-1.798016e-002
2.524403e+003,-1.804279e-002
2.526332e+003,-1.804279e-002
2.528260e+003,-1.805238e-002
2.530189e+003,-1.809475e-002
2.532117e+003,-1.811083e-002
2.534046e+003,-1.806608e-002
2.535974e+003,-1.806221e-002
2.537903e+003,-1.807514e-002
2.539831e+003,-1.798299e-002
2.541760e+003,-1.799510e-002
2.543688e+003,-1.809221e-002
2.545617e+003,-1.808411e-002
2.547545e+003,-1.807285e-002
2.549474e+003,-1.808973e-002
2.551402e+003,-1.811144e-002
2.553331e+003,-1.809262e-002
2.555259e+003,-1.806713e-002
2.557188e+003,-1.806316e-002
2.559116e+003,-1.797679e-002
2.561045e+003,-1.799622e-002
2.562973e+003,-1.802041e-002
2.564902e+003,-1.792335e-002
2.566830e+003,-1.794128e-002
2.568759e+003,-1.798827e-002
2.570687e+003,-1.801259e-002
2.572616e+003,-1.803233e-002
2.574544e+003,-1.798658e-002
2.576473e+003,-1.794688e-002
2.578401e+003,-1.799746e-002
2.580330e+003,-1.803245e-002
2.582258e+003,-1.795877e-002
2.584187e+003,-1.792230e-002
2.586115e+003,-1.790472e-002
2.588044e+003,-1.802775e-002
2.589972e+003,-1.814824e-002
2.591901e+003,-1.811048e-002
2.593829e+003,-1.809431e-002
2.595758e+003,-1.810130e-002
2.597686e+003,-1.813432e-002
2.599615e+003,-1.806573e-002
2.601543e+003,-1.801850e-002
2.603472e+003,-1.803446e-002
2.605400e+003,-1.804231e-002
2.607329e+003,-1.801268e-002
2.609257e+003,-1.798776e-002
2.611186e+003,-1.795766e-002
2.613114e+003,-1.797320e-002
2.615043e+003,-1.794014e-002
2.616971e+003,-1.788847e-002
2.618900e+003,-1.790755e-002
2.620828e+003,-1.787550e-002
2.622757e+003,-1.784042e-002
2.624685e+003,-1.783909e-002
2.626614e+003,-1.786678e-002
2.628542e+003,-1.784341e-002
2.630471e+003,-1.785747e-002
2.632399e+003,-1.779011e-002
2.634328e+003,-1.771737e-002
2.636256e+003,-1.766736e-002
2.638185e+003,-1.760930e-002
2.640113e+003,-1.749165e-002
2.642042e+003,-1.738588e-002
2.643970e+003,-1.747908e-002
2.645899e+003,-1.762228e-002
2.647827e+003,-1.749862e-002
2.649756e+003,-1.731409e-002
2.651684e+003,-1.733338e-002
2.653613e+003,-1.736487e-002
2.655541e+003,-1.728419e-002
2.657470e+003,-1.730365e-002
2.659398e+003,-1.735214e-002
2.661327e+003,-1.735643e-002
2.663255e+003,-1.728958e-002
2.665184e+003,-1.716859e-002
2.667112e+003,-1.715289e-002
2.669041e+003,-1.720124e-002
2.670969e+003,-1.717248e-002
2.672898e+003,-1.712104e-002
2.674826e+003,-1.705790e-002
2.676755e+003,-1.702490e-002
2.678683e+003,-1.700326e-002
2.680612e+003,-1.693804e-002
2.682540e+003,-1.689919e-002
2.684469e+003,-1.685546e-002
2.686397e+003,-1.684756e-002
2.688326e+003,-1.677737e-002
2.690254e+003,-1.668019e-002
2.692183e+003,-1.664776e-002
2.694111e+003,-1.654673e-002
2.696040e+003,-1.654504e-002
2.697968e+003,-1.653180e-002
2.699897e+003,-1.649311e-002
2.701825e+003,-1.653955e-002
2.703754e+003,-1.653812e-002
2.705682e+003,-1.648683e-002
2.707611e+003,-1.638987e-002
2.709539e+003,-1.630751e-002
2.711468e+003,-1.623873e-002
2.713396e+003,-1.617575e-002
2.715325e+003,-1.614045e-002
2.717253e+003,-1.605434e-002
2.719182e+003,-1.594326e-002
2.721110e+003,-1.594505e-002
2.723039e+003,-1.588002e-002
2.724967e+003,-1.566440e-002
2.726896e+003,-1.554582e-002
2.728824e+003,-1.551954e-002
2.730753e+003,-1.545853e-002
2.732681e+003,-1.542556e-002
2.734610e+003,-1.538565e-002
2.736538e+003,-1.534871e-002
2.738467e+003,-1.522486e-002
2.740395e+003,-1.506368e-002
2.742324e+003,-1.494150e-002
2.744252e+003,-1.485650e-002
2.746181e+003,-1.473484e-002
2.748109e+003,-1.468144e-002
2.750038e+003,-1.456790e-002
2.751966e+003,-1.449542e-002
2.753895e+003,-1.444370e-002
2.755823e+003,-1.425757e-002
2.757752e+003,-1.406274e-002
2.759680e+003,-1.392597e-002
2.761609e+003,-1.371593e-002
2.763537e+003,-1.343564e-002
2.765466e+003,-1.322080e-002
2.767394e+003,-1.300090e-002
2.769323e+003,-1.262843e-002
2.771251e+003,-1.218544e-002
2.773180e+003,-1.173130e-002
2.775108e+003,-1.122815e-002
2.777037e+003,-1.064227e-002
2.778965e+003,-1.005333e-002
2.780894e+003,-9.405329e-003
2.782822e+003,-8.620864e-003
2.784750e+003,-7.736887e-003
2.786679e+003,-6.928563e-003
2.788608e+003,-6.209382e-003
2.790536e+003,-5.357167e-003
2.792465e+003,-4.476912e-003
2.794393e+003,-3.683485e-003
2.796322e+003,-2.901871e-003
2.798250e+003,-2.072848e-003
2.800178e+003,-1.378604e-003
2.802107e+003,-8.304061e-004
2.804036e+003,-2.455201e-004
2.805964e+003,2.289834e-004
2.807893e+003,4.606748e-004
2.809821e+003,5.483167e-004
2.811750e+003,6.225376e-004
2.813678e+003,5.203504e-004
2.815606e+003,3.185018e-004
2.817535e+003,9.142644e-005
2.819464e+003,-2.480368e-004
2.821392e+003,-6.958204e-004
2.823321e+003,-1.194759e-003
2.825249e+003,-1.846044e-003
2.827177e+003,-2.543856e-003
2.829106e+003,-3.239924e-003
2.831034e+003,-3.907559e-003
2.832963e+003,-4.533019e-003
2.834892e+003,-5.279563e-003
2.836820e+003,-5.989728e-003
2.838749e+003,-6.649563e-003
2.840677e+003,-7.245543e-003
2.842605e+003,-8.002308e-003
2.844534e+003,-8.866104e-003
2.846462e+003,-9.667530e-003
2.848391e+003,-1.040489e-002
2.850320e+003,-1.081760e-002
2.852248e+003,-1.099706e-002
2.854177e+003,-1.107149e-002
2.856105e+003,-1.124471e-002
2.858033e+003,-1.146489e-002
2.859962e+003,-1.151506e-002
2.861890e+003,-1.135118e-002
2.863819e+003,-1.126140e-002
2.865748e+003,-1.133272e-002
2.867676e+003,-1.124455e-002
2.869604e+003,-1.095461e-002
2.871533e+003,-1.066490e-002
2.873461e+003,-1.056295e-002
2.875390e+003,-1.054668e-002
2.877319e+003,-1.030326e-002
2.879247e+003,-1.009040e-002
2.881176e+003,-1.014332e-002
2.883104e+003,-1.009503e-002
2.885032e+003,-1.007139e-002
2.886961e+003,-1.023340e-002
2.888889e+003,-1.023702e-002
2.890818e+003,-1.028977e-002
2.892747e+003,-1.047058e-002
2.894675e+003,-1.067744e-002
2.896604e+003,-1.069904e-002
2.898532e+003,-1.066810e-002
2.900460e+003,-1.075467e-002
2.902389e+003,-1.086637e-002
2.904317e+003,-1.091787e-002
2.906246e+003,-1.103861e-002
2.908175e+003,-1.115233e-002
2.910103e+003,-1.122501e-002
2.912031e+003,-1.140686e-002
2.913960e+003,-1.155030e-002
2.915888e+003,-1.165344e-002
2.917817e+003,-1.162547e-002
2.919745e+003,-1.143862e-002
2.921674e+003,-1.108667e-002
2.923603e+003,-1.060964e-002
2.925531e+003,-1.021139e-002
2.927459e+003,-9.902140e-003
2.929388e+003,-9.566804e-003
2.931316e+003,-9.307235e-003
2.933245e+003,-9.142127e-003
2.935173e+003,-8.942844e-003
2.937102e+003,-8.670820e-003
2.939031e+003,-8.636358e-003
2.940959e+003,-8.823477e-003
2.942887e+003,-8.937456e-003
2.944816e+003,-9.176581e-003
2.946744e+003,-9.558668e-003
2.948673e+003,-1.000781e-002
2.950601e+003,-1.050374e-002
2.952530e+003,-1.110401e-002
2.954458e+003,-1.174220e-002
2.956387e+003,-1.245231e-002
2.958315e+003,-1.324972e-002
2.960244e+003,-1.386265e-002
2.962172e+003,-1.452144e-002
2.964101e+003,-1.532719e-002
2.966029e+003,-1.597444e-002
2.967958e+003,-1.654673e-002
2.969886e+003,-1.702671e-002
2.971815e+003,-1.734733e-002
2.973743e+003,-1.767363e-002
2.975672e+003,-1.809637e-002
2.977600e+003,-1.839280e-002
2.979529e+003,-1.864344e-002
2.981457e+003,-1.889473e-002
2.983386e+003,-1.904120e-002
2.985314e+003,-1.925442e-002
2.987243e+003,-1.946401e-002
2.989171e+003,-1.949851e-002
2.991100e+003,-1.951555e-002
2.993028e+003,-1.962220e-002
2.994957e+003,-1.970232e-002
2.996885e+003,-1.978037e-002
2.998814e+003,-1.980823e-002
3.000742e+003,-1.975627e-002
3.002671e+003,-1.975890e-002
3.004599e+003,-1.976083e-002
3.006528e+003,-1.982082e-002
3.008456e+003,-1.989695e-002
3.010385e+003,-1.999670e-002
3.012313e+003,-2.014005e-002
3.014242e+003,-2.016744e-002
3.016170e+003,-2.010427e-002
3.018099e+003,-2.010848e-002
3.020027e+003,-2.007422e-002
3.021956e+003,-2.014359e-002
3.023884e+003,-2.022668e-002
3.025813e+003,-2.015251e-002
3.027741e+003,-2.018620e-002
3.029670e+003,-2.026492e-002
3.031598e+003,-2.017273e-002
3.033527e+003,-2.011063e-002
3.035455e+003,-2.027950e-002
3.037384e+003,-2.024566e-002
3.039312e+003,-2.015988e-002
3.041241e+003,-2.032240e-002
3.043169e+003,-2.034833e-002
3.045098e+003,-2.037979e-002
3.047026e+003,-2.045740e-002
3.048955e+003,-2.045888e-002
3.050883e+003,-2.038918e-002
3.052812e+003,-2.040944e-002
3.054740e+003,-2.035405e-002
3.056669e+003,-2.046037e-002
3.058597e+003,-2.057800e-002
3.060526e+003,-2.050490e-002
3.062454e+003,-2.045512e-002
3.064383e+003,-2.048623e-002
3.066311e+003,-2.059232e-002
3.068240e+003,-2.044627e-002
3.070168e+003,-2.033964e-002
3.072097e+003,-2.039724e-002
3.074025e+003,-2.045348e-002
3.075954e+003,-2.046230e-002
3.077882e+003,-2.040420e-002
3.079811e+003,-2.042781e-002
3.081739e+003,-2.051963e-002
3.083668e+003,-2.062755e-002
3.085596e+003,-2.070047e-002
3.087525e+003,-2.067719e-002
3.089453e+003,-2.069500e-002
3.091382e+003,-2.057958e-002
3.093310e+003,-2.045338e-002
3.095239e+003,-2.051508e-002
3.097167e+003,-2.050569e-002
3.099096e+003,-2.029458e-002
3.101024e+003,-2.029878e-002
3.102953e+003,-2.033815e-002
3.104881e+003,-2.041314e-002
3.106810e+003,-2.047213e-002
3.108738e+003,-2.043009e-002
3.110667e+003,-2.048771e-002
3.112595e+003,-2.048003e-002
3.114524e+003,-2.036914e-002
3.116452e+003,-2.034125e-002
3.118381e+003,-2.036013e-002
3.120309e+003,-2.040040e-002
3.122238e+003,-2.037110e-002
3.124166e+003,-2.038235e-002
3.126095e+003,-2.043107e-002
3.128023e+003,-2.042800e-002
3.129952e+003,-2.043925e-002
3.131880e+003,-2.040657e-002
3.133809e+003,-2.034125e-002
3.135737e+003,-2.029872e-002
3.137666e+003,-2.033518e-002
3.139594e+003,-2.030312e-002
3.141523e+003,-2.024594e-002
3.143451e+003,-2.022077e-002
3.145380e+003,-2.025268e-002
3.147308e+003,-2.031048e-002
3.149237e+003,-2.029325e-002
3.151165e+003,-2.020717e-002
3.153094e+003,-2.015305e-002
3.155022e+003,-2.020021e-002
3.156951e+003,-2.013774e-002
3.158879e+003,-2.001053e-002
3.160808e+003,-2.002992e-002
3.162736e+003,-2.009206e-002
3.164665e+003,-2.011038e-002
3.166593e+003,-2.016026e-002
3.168522e+003,-2.015729e-002
3.170450e+003,-2.014033e-002
3.172379e+003,-1.996496e-002
3.174307e+003,-1.991100e-002
3.176236e+003,-2.002432e-002
3.178164e+003,-2.000461e-002
3.180093e+003,-1.999145e-002
3.182021e+003,-1.998676e-002
3.183950e+003,-1.999882e-002
3.185878e+003,-1.997515e-002
3.187807e+003,-1.998566e-002
3.189735e+003,-1.995851e-002
3.191664e+003,-1.991160e-002
3.193592e+003,-1.994319e-002
3.195521e+003,-1.988578e-002
3.197449e+003,-1.980234e-002
3.199378e+003,-1.989245e-002
3.201306e+003,-2.004125e-002
3.203235e+003,-2.004951e-002
3.205163e+003,-2.012873e-002
3.207092e+003,-2.008653e-002
3.209020e+003,-1.991708e-002
3.210948e+003,-1.985089e-002
3.212877e+003,-1.985678e-002
3.214806e+003,-1.992585e-002
3.216734e+003,-1.991831e-002
3.218663e+003,-1.998926e-002
3.220591e+003,-1.996420e-002
3.222520e+003,-1.968370e-002
3.224448e+003,-1.963496e-002
3.226376e+003,-1.980566e-002
3.228305e+003,-1.987090e-002
3.230234e+003,-1.976748e-002
3.232162e+003,-1.965843e-002
3.234091e+003,-1.966309e-002
3.236019e+003,-1.962508e-002
3.237948e+003,-1.962534e-002
3.239876e+003,-1.955417e-002
3.241804e+003,-1.948980e-002
3.243733e+003,-1.943962e-002
3.245662e+003,-1.937589e-002
3.247590e+003,-1.933584e-002
3.249519e+003,-1.926586e-002
3.251447e+003,-1.919767e-002
3.253375e+003,-1.913598e-002
3.255304e+003,-1.903721e-002
3.257232e+003,-1.896686e-002
3.259161e+003,-1.905351e-002
3.261090e+003,-1.903394e-002
3.263018e+003,-1.890266e-002
3.264947e+003,-1.897054e-002
3.266875e+003,-1.900869e-002
3.268803e+003,-1.883908e-002
3.270732e+003,-1.885723e-002
3.272660e+003,-1.889993e-002
3.274589e+003,-1.889926e-002
3.276518e+003,-1.891906e-002
3.278446e+003,-1.898148e-002
3.280375e+003,-1.903407e-002
3.282303e+003,-1.888496e-002
3.284231e+003,-1.876791e-002
3.286160e+003,-1.878276e-002
3.288088e+003,-1.877286e-002
3.290017e+003,-1.884949e-002
3.291946e+003,-1.901685e-002
3.293874e+003,-1.909606e-002
3.295802e+003,-1.918712e-002
3.297731e+003,-1.923318e-002
3.299659e+003,-1.914689e-002
3.301588e+003,-1.914210e-002
3.303516e+003,-1.929527e-002
3.305445e+003,-1.940267e-002
3.307374e+003,-1.958296e-002
3.309302e+003,-1.971749e-002
3.311230e+003,-1.979211e-002
3.313159e+003,-1.983599e-002
3.315087e+003,-1.978885e-002
3.317016e+003,-2.001176e-002
3.318944e+003,-2.025397e-002
3.320873e+003,-2.022940e-002
3.322802e+003,-2.031785e-002
3.324730e+003,-2.038981e-002
3.326658e+003,-2.029088e-002
3.328587e+003,-2.036756e-002
3.330515e+003,-2.042756e-002
3.332444e+003,-2.037732e-002
3.334372e+003,-2.025530e-002
3.336301e+003,-2.026340e-002
3.338229e+003,-2.036395e-002
3.340158e+003,-2.034840e-002
3.342086e+003,-2.030381e-002
3.344015e+003,-2.021324e-002
3.345943e+003,-2.027678e-002
3.347872e+003,-2.055215e-002
3.349800e+003,-2.066761e-002
3.351729e+003,-2.054609e-002
3.353657e+003,-2.054371e-002
3.355586e+003,-2.041077e-002
3.357514e+003,-2.036070e-002
3.359443e+003,-2.045032e-002
3.361371e+003,-2.045361e-002
3.363300e+003,-2.037555e-002
3.365229e+003,-2.035007e-002
3.367157e+003,-2.046777e-002
3.369085e+003,-2.077095e-002
3.371014e+003,-2.075468e-002
3.372942e+003,-2.075171e-002
3.374871e+003,-2.091875e-002
3.376799e+003,-2.098928e-002
3.378728e+003,-2.115506e-002
3.380656e+003,-2.124868e-002
3.382585e+003,-2.133857e-002
3.384513e+003,-2.149491e-002
3.386442e+003,-2.169378e-002
3.388370e+003,-2.185144e-002
3.390299e+003,-2.188040e-002
3.392227e+003,-2.183547e-002
3.394156e+003,-2.193436e-002
3.396084e+003,-2.204370e-002
3.398013e+003,-2.197087e-002
3.399941e+003,-2.194867e-002
3.401870e+003,-2.210192e-002
3.403798e+003,-2.223023e-002
3.405727e+003,-2.221499e-002
3.407655e+003,-2.221877e-002
3.409584e+003,-2.220400e-002
3.411512e+003,-2.221458e-002
3.413441e+003,-2.217655e-002
3.415369e+003,-2.215649e-002
3.417298e+003,-2.227263e-002
3.419226e+003,-2.223529e-002
3.421155e+003,-2.217979e-002
3.423083e+003,-2.228481e-002
3.425012e+003,-2.233719e-002
3.426940e+003,-2.223819e-002
3.428869e+003,-2.223391e-002
3.430797e+003,-2.236576e-002
3.432726e+003,-2.244040e-002
3.434654e+003,-2.240283e-002
3.436583e+003,-2.239626e-002
3.438511e+003,-2.242351e-002
3.440440e+003,-2.242011e-002
3.442368e+003,-2.239572e-002
3.444297e+003,-2.239484e-002
3.446225e+003,-2.230061e-002
3.448154e+003,-2.229797e-002
3.450082e+003,-2.234090e-002
3.452011e+003,-2.254350e-002
3.453939e+003,-2.267966e-002
3.455868e+003,-2.258965e-002
3.457796e+003,-2.241674e-002
3.459725e+003,-2.239191e-002
3.461653e+003,-2.243741e-002
3.463582e+003,-2.239257e-002
3.465510e+003,-2.240595e-002
3.467439e+003,-2.238304e-002
3.469367e+003,-2.231751e-002
3.471296e+003,-2.240834e-002
3.473224e+003,-2.241646e-002
3.475153e+003,-2.232054e-002
3.477081e+003,-2.234477e-002
3.479010e+003,-2.234877e-002
3.480938e+003,-2.236557e-002
3.482867e+003,-2.242983e-002
3.484795e+003,-2.242351e-002
3.486724e+003,-2.246705e-002
3.488652e+003,-2.239223e-002
3.490581e+003,-2.226400e-002
3.492509e+003,-2.236796e-002
3.494438e+003,-2.233426e-002
3.496366e+003,-2.218889e-002
3.498295e+003,-2.220114e-002
3.500223e+003,-2.224508e-002
3.502152e+003,-2.233577e-002
3.504080e+003,-2.235553e-002
3.506009e+003,-2.247700e-002
3.507937e+003,-2.241979e-002
3.509866e+003,-2.222500e-002
3.511794e+003,-2.222849e-002
3.513723e+003,-2.238980e-002
3.515651e+003,-2.255228e-002
3.517580e+003,-2.232308e-002
3.519508e+003,-2.216490e-002
3.521437e+003,-2.206429e-002
3.523365e+003,-2.186499e-002
3.525294e+003,-2.205135e-002
3.527222e+003,-2.229432e-002
3.529151e+003,-2.213980e-002
3.531079e+003,-2.192828e-002
3.533008e+003,-2.206177e-002
3.534936e+003,-2.218826e-002
3.536865e+003,-2.222821e-002
3.538793e+003,-2.220636e-002
3.540722e+003,-2.229687e-002
3.542650e+003,-2.232425e-002
3.544579e+003,-2.223293e-002
3.546507e+003,-2.201075e-002
3.548436e+003,-2.202653e-002
3.550364e+003,-2.191905e-002
3.552293e+003,-2.186348e-002
3.554221e+003,-2.215189e-002
3.556150e+003,-2.207645e-002
3.558078e+003,-2.186001e-002
3.560007e+003,-2.186181e-002
3.561935e+003,-2.195846e-002
3.563864e+003,-2.207383e-002
3.565792e+003,-2.186213e-002
3.567721e+003,-2.149740e-002
3.569649e+003,-2.177415e-002
3.571578e+003,-2.214050e-002
3.573506e+003,-2.224729e-002
3.575435e+003,-2.225119e-002
3.577363e+003,-2.214626e-002
3.579292e+003,-2.206354e-002
3.581220e+003,-2.207831e-002
3.583149e+003,-2.209692e-002
3.585077e+003,-2.186833e-002
3.587006e+003,-2.129068e-002
3.588934e+003,-2.134147e-002
3.590863e+003,-2.193972e-002
3.592791e+003,-2.187322e-002
3.594720e+003,-2.156075e-002
3.596648e+003,-2.167424e-002
3.598577e+003,-2.173693e-002
3.600505e+003,-2.177730e-002
3.602434e+003,-2.218990e-002
3.604362e+003,-2.233794e-002
3.606291e+003,-2.203484e-002
3.608219e+003,-2.166270e-002
3.610148e+003,-2.173037e-002
3.612076e+003,-2.170468e-002
3.614005e+003,-2.159193e-002
3.615933e+003,-2.166752e-002
3.617862e+003,-2.139648e-002
3.619790e+003,-2.129487e-002
3.621719e+003,-2.170591e-002
3.623647e+003,-2.196379e-002
3.625576e+003,-2.197522e-002
3.627504e+003,-2.132923e-002
3.629433e+003,-2.080269e-002
3.631361e+003,-2.162128e-002
3.633290e+003,-2.192220e-002
3.635218e+003,-2.201664e-002
3.637146e+003,-2.217532e-002
3.639075e+003,-2.222840e-002
3.641004e+003,-2.217031e-002
3.642932e+003,-2.223860e-002
3.644861e+003,-2.233533e-002
3.646789e+003,-2.171118e-002
3.648718e+003,-2.057399e-002
3.650646e+003,-2.052191e-002
3.652574e+003,-2.189896e-002
3.654503e+003,-2.230099e-002
3.656432e+003,-2.175984e-002
3.658360e+003,-2.199173e-002
3.660289e+003,-2.221861e-002
3.662217e+003,-2.230842e-002
3.664146e+003,-2.244632e-002
3.666074e+003,-2.246794e-002
3.668002e+003,-2.207802e-002
3.669931e+003,-2.141042e-002
3.671860e+003,-2.174374e-002
3.673788e+003,-2.161901e-002
3.675717e+003,-2.056318e-002
3.677645e+003,-2.147410e-002
3.679573e+003,-2.222594e-002
3.681502e+003,-2.250261e-002
3.683430e+003,-2.251679e-002
3.685359e+003,-2.265781e-002
3.687288e+003,-2.211269e-002
3.689216e+003,-2.147432e-002
3.691145e+003,-2.177730e-002
3.693073e+003,-2.224253e-002
3.695001e+003,-2.260862e-002
3.696930e+003,-2.285888e-002
3.698858e+003,-2.295475e-002
3.700787e+003,-2.246690e-002
3.702716e+003,-2.240378e-002
3.704644e+003,-2.272639e-002
3.706573e+003,-2.269919e-002
3.708501e+003,-2.232740e-002
3.710429e+003,-2.186105e-002
3.712358e+003,-2.144073e-002
3.714286e+003,-2.223023e-002
3.716215e+003,-2.289355e-002
3.718144e+003,-2.261280e-002
3.720072e+003,-2.236680e-002
3.722000e+003,-2.231364e-002
3.723929e+003,-2.229284e-002
3.725857e+003,-2.204725e-002
3.727786e+003,-2.216484e-002
3.729714e+003,-2.238027e-002
3.731643e+003,-2.192324e-002
3.733572e+003,-2.166087e-002
3.735500e+003,-2.123300e-002
3.737428e+003,-2.138203e-002
3.739357e+003,-2.203979e-002
3.741285e+003,-2.245979e-002
3.743214e+003,-2.150364e-002
3.745142e+003,-2.058979e-002
3.747071e+003,-2.157951e-002
3.749000e+003,-2.113527e-002
3.750928e+003,-2.083320e-002
3.752856e+003,-2.100257e-002
3.754785e+003,-2.177386e-002
3.756713e+003,-2.194908e-002
3.758642e+003,-2.210133e-002
3.760570e+003,-2.211515e-002
3.762499e+003,-2.226293e-002
3.764427e+003,-2.195179e-002
3.766356e+003,-2.213666e-002
3.768284e+003,-2.215057e-002
3.770213e+003,-2.197919e-002
3.772141e+003,-2.206946e-002
3.774070e+003,-2.240642e-002
3.775998e+003,-2.265844e-002
3.777927e+003,-2.240412e-002
3.779855e+003,-2.224159e-002
3.781784e+003,-2.253558e-002
3.783712e+003,-2.265290e-002
3.785641e+003,-2.278437e-002
3.787569e+003,-2.268787e-002
3.789498e+003,-2.250456e-002
3.791426e+003,-2.245673e-002
3.793355e+003,-2.244698e-002
3.795283e+003,-2.224940e-002
3.797212e+003,-2.229369e-002
3.799140e+003,-2.250673e-002
3.801069e+003,-2.147044e-002
3.802997e+003,-2.146318e-002
3.804926e+003,-2.203126e-002
3.806854e+003,-2.165041e-002
3.808783e+003,-2.212557e-002
3.810711e+003,-2.251793e-002
3.812640e+003,-2.275092e-002
3.814568e+003,-2.228487e-002
3.816497e+003,-2.137257e-002
3.818425e+003,-2.190195e-002
3.820354e+003,-2.167020e-002
3.822282e+003,-2.162011e-002
3.824211e+003,-2.238323e-002
3.826139e+003,-2.239956e-002
3.828068e+003,-2.239582e-002
3.829996e+003,-2.231304e-002
3.831925e+003,-2.238068e-002
3.833853e+003,-2.243329e-002
3.835782e+003,-2.203998e-002
3.837710e+003,-2.164164e-002
3.839639e+003,-2.191058e-002
3.841567e+003,-2.219157e-002
3.843496e+003,-2.221631e-002
3.845424e+003,-2.244405e-002
3.847353e+003,-2.271039e-002
3.849281e+003,-2.275627e-002
3.851210e+003,-2.206870e-002
3.853138e+003,-2.037635e-002
3.855067e+003,-2.063286e-002
3.856995e+003,-2.199781e-002
3.858924e+003,-2.245308e-002
3.860852e+003,-2.224877e-002
3.862781e+003,-2.217375e-002
3.864709e+003,-2.201601e-002
3.866638e+003,-2.209915e-002
3.868566e+003,-2.181073e-002
3.870495e+003,-2.157118e-002
3.872423e+003,-2.207374e-002
3.874352e+003,-2.217595e-002
3.876280e+003,-2.257710e-002
3.878209e+003,-2.268787e-002
3.880137e+003,-2.226917e-002
3.882066e+003,-2.253705e-002
3.883994e+003,-2.259248e-002
3.885923e+003,-2.203169e-002
3.887851e+003,-2.263516e-002
3.889780e+003,-2.262793e-002
3.891708e+003,-2.218240e-002
3.893637e+003,-2.250440e-002
3.895565e+003,-2.297002e-002
3.897494e+003,-2.273668e-002
3.899422e+003,-2.225988e-002
3.901351e+003,-2.205944e-002
3.903279e+003,-2.196826e-002
3.905208e+003,-2.217296e-002
3.907136e+003,-2.260767e-002
3.909065e+003,-2.285162e-002
3.910993e+003,-2.280038e-002
3.912922e+003,-2.270853e-002
3.914850e+003,-2.251459e-002
3.916779e+003,-2.238785e-002
3.918707e+003,-2.275982e-002
3.920636e+003,-2.308399e-002
3.922564e+003,-2.307240e-002
3.924493e+003,-2.274570e-002
3.926421e+003,-2.271337e-002
3.928350e+003,-2.292574e-002
3.930278e+003,-2.279129e-002
3.932207e+003,-2.254649e-002
3.934135e+003,-2.280849e-002
3.936064e+003,-2.310146e-002
3.937992e+003,-2.306489e-002
3.939921e+003,-2.295421e-002
3.941849e+003,-2.281239e-002
3.943778e+003,-2.276894e-002
3.945706e+003,-2.282804e-002
3.947635e+003,-2.269627e-002
3.949563e+003,-2.266841e-002
3.951492e+003,-2.304368e-002
3.953420e+003,-2.330126e-002
3.955349e+003,-2.332083e-002
3.957277e+003,-2.315537e-002
3.959206e+003,-2.309345e-002
3.961134e+003,-2.309087e-002
3.963063e+003,-2.307180e-002
3.964991e+003,-2.315402e-002
3.966920e+003,-2.335979e-002
3.968848e+003,-2.333948e-002
3.970777e+003,-2.321386e-002
3.972705e+003,-2.333483e-002
3.974634e+003,-2.343455e-002
3.976562e+003,-2.334384e-002
3.978491e+003,-2.328016e-002
3.980419e+003,-2.340654e-002
3.982348e+003,-2.339854e-002
3.984276e+003,-2.334158e-002
3.986205e+003,-2.331521e-002
3.988133e+003,-2.331304e-002
3.990062e+003,-2.328138e-002
3.991990e+003,-2.317921e-002
3.993919e+003,-2.315261e-002
3.995847e+003,-2.326320e-002
3.997776e+003,-2.340259e-002
3.999704e+003,-2.340724e-002
4.001633e+003,0.000000e+000
