3.991989e+002,6.901397e-003
4.011274e+002,6.849825e-003
4.030559e+002,-4.258776e-003
4.049844e+002,-1.394817e-002
4.069129e+002,-1.274174e-002
4.088414e+002,-3.289023e-003
4.107699e+002,-3.357168e-004
4.126984e+002,3.190323e-004
4.146269e+002,-4.166594e-004
4.165554e+002,-9.822404e-004
4.184839e+002,-3.026733e-004
4.204124e+002,2.775476e-003
4.223409e+002,5.055446e-003
4.242694e+002,4.533956e-003
4.261979e+002,7.588356e-004
4.281264e+002,6.727110e-004
4.300549e+002,3.057345e-003
4.319834e+002,-2.878798e-003
4.339119e+002,-3.318190e-003
4.358404e+002,4.043758e-003
4.377689e+002,4.904824e-003
4.396974e+002,1.745521e-004
4.416259e+002,-9.220024e-004
4.435544e+002,1.820250e-003
4.454829e+002,4.522907e-003
4.474114e+002,8.647527e-003
4.493399e+002,4.673899e-003
4.512684e+002,-2.215447e-003
4.531969e+002,-2.706618e-003
4.551254e+002,1.685848e-003
4.570539e+002,2.290489e-003
4.589824e+002,-9.564535e-004
4.609109e+002,-2.014083e-004
4.628394e+002,1.972635e-003
4.647679e+002,5.621513e-004
4.666964e+002,-1.180649e-003
4.686249e+002,-2.179612e-003
4.705533e+002,-8.754131e-004
4.724819e+002,1.038545e-004
4.744103e+002,-2.177023e-004
4.763389e+002,5.108627e-004
4.782673e+002,-3.762728e-004
4.801959e+002,-1.863728e-003
4.821243e+002,-2.239615e-004
4.840529e+002,-2.402216e-004
4.859813e+002,-7.871474e-004
4.879099e+002,-1.931621e-003
4.898383e+002,-2.925140e-003
4.917668e+002,-4.642426e-003
4.936953e+002,-3.040776e-003
4.956238e+002,-1.792228e-003
4.975523e+002,-3.327331e-003
4.994808e+002,-4.395017e-003
5.014093e+002,-3.955269e-003
5.033378e+002,-3.236142e-003
5.052663e+002,-2.997540e-003
5.071948e+002,-3.649546e-003
5.091233e+002,-4.981486e-003
5.110518e+002,-6.153360e-003
5.129803e+002,-6.194683e-003
5.149088e+002,-5.585842e-003
5.168373e+002,-4.620920e-003
5.187658e+002,-4.983386e-003
5.206943e+002,-4.504885e-003
5.226228e+002,-4.488652e-003
5.245513e+002,-4.939523e-003
5.264798e+002,-5.449254e-003
5.284083e+002,-5.359818e-003
5.303368e+002,-6.198537e-003
5.322653e+002,-6.414886e-003
5.341938e+002,-5.347840e-003
5.361223e+002,-4.951186e-003
5.380508e+002,-5.673040e-003
5.399792e+002,-4.728273e-003
5.419078e+002,-4.168274e-003
5.438363e+002,-4.406694e-003
5.457648e+002,-4.590693e-003
5.476932e+002,-5.232947e-003
5.496218e+002,-5.183839e-003
5.515503e+002,-3.518723e-003
5.534788e+002,-3.257716e-003
5.554072e+002,-2.732499e-003
5.573358e+002,-2.442849e-003
5.592643e+002,-2.555221e-003
5.611927e+002,-3.563157e-003
5.631212e+002,-3.369055e-003
5.650497e+002,-4.054218e-003
5.669783e+002,-4.234954e-003
5.689067e+002,-2.940213e-003
5.708352e+002,-3.453182e-003
5.727637e+002,-4.312451e-003
5.746923e+002,-5.663097e-003
5.766207e+002,-5.360276e-003
5.785492e+002,-2.006989e-003
5.804777e+002,-1.147141e-003
5.824063e+002,-6.289106e-003
5.843347e+002,-6.909909e-003
5.862632e+002,-4.707788e-003
5.881917e+002,-5.254455e-003
5.901202e+002,-6.407735e-003
5.920487e+002,-8.317303e-003
5.939772e+002,-9.001006e-003
5.959057e+002,-8.604232e-003
5.978342e+002,-6.947410e-003
5.997627e+002,-6.235381e-003
6.016912e+002,-6.341813e-003
6.036197e+002,-5.443790e-003
6.055482e+002,-3.688413e-003
6.074767e+002,-2.466637e-003
6.094052e+002,-1.923308e-003
6.113337e+002,-8.866889e-004
6.132622e+002,-1.376094e-003
6.151907e+002,-2.224611e-003
6.171192e+002,-2.178128e-003
6.190477e+002,-2.861879e-003
6.209762e+002,-2.679089e-003
6.229047e+002,-3.774909e-003
6.248332e+002,-6.639773e-003
6.267617e+002,-8.284407e-003
6.286902e+002,-8.206771e-003
6.306187e+002,-7.097969e-003
6.325472e+002,-5.892886e-003
6.344756e+002,-5.052528e-003
6.364042e+002,-4.866988e-003
6.383326e+002,-4.708935e-003
6.402612e+002,-4.936313e-003
6.421896e+002,-4.236431e-003
6.441182e+002,-3.987248e-003
6.460466e+002,-4.253854e-003
6.479752e+002,-4.076802e-003
6.499036e+002,-4.171162e-003
6.518322e+002,-4.387834e-003
6.537606e+002,-4.075883e-003
6.556891e+002,-3.891042e-003
6.576177e+002,-4.152915e-003
6.595461e+002,-4.199449e-003
6.614746e+002,-4.809482e-003
6.634031e+002,-4.633771e-003
6.653317e+002,-4.061604e-003
6.672601e+002,-3.261433e-003
6.691886e+002,-3.444767e-003
6.711171e+002,-3.861223e-003
6.730457e+002,-3.547579e-003
6.749741e+002,-3.786767e-003
6.769026e+002,-4.235873e-003
6.788311e+002,-4.649047e-003
6.807596e+002,-4.714310e-003
6.826881e+002,-4.567972e-003
6.846166e+002,-4.416960e-003
6.865451e+002,-4.357984e-003
6.884736e+002,-4.489373e-003
6.904021e+002,-4.790606e-003
6.923306e+002,-5.102765e-003
6.942591e+002,-4.794179e-003
6.961876e+002,-4.506786e-003
6.981161e+002,-4.743382e-003
7.000446e+002,-5.021578e-003
7.019731e+002,-5.641348e-003
7.039016e+002,-5.687789e-003
7.058301e+002,-6.035217e-003
7.077585e+002,-6.467707e-003
7.096871e+002,-6.289531e-003
7.116156e+002,-6.205984e-003
7.135441e+002,-6.605411e-003
7.154725e+002,-6.836039e-003
7.174011e+002,-6.822568e-003
7.193296e+002,-6.853521e-003
7.212581e+002,-6.836235e-003
7.231865e+002,-6.652826e-003
7.251151e+002,-6.517095e-003
7.270436e+002,-5.920670e-003
7.289720e+002,-5.369898e-003
7.309005e+002,-5.422716e-003
7.328290e+002,-5.843623e-003
7.347576e+002,-6.003062e-003
7.366860e+002,-5.633793e-003
7.386145e+002,-5.537886e-003
7.405430e+002,-4.791229e-003
7.424716e+002,-4.117568e-003
7.444000e+002,-3.944860e-003
7.463285e+002,-3.546922e-003
7.482570e+002,-3.049199e-003
7.501855e+002,-2.774445e-003
7.521140e+002,-1.754378e-003
7.540425e+002,-1.385441e-003
7.559710e+002,-8.770664e-004
7.578995e+002,-7.514260e-004
7.598280e+002,-7.310171e-004
7.617565e+002,1.161835e-004
7.636850e+002,1.800877e-004
7.656135e+002,6.285767e-004
7.675420e+002,1.057500e-003
7.694705e+002,9.618188e-004
7.713990e+002,6.391287e-004
7.733275e+002,6.466612e-004
7.752560e+002,1.177422e-003
7.771844e+002,1.393698e-003
7.791130e+002,9.517571e-004
7.810415e+002,4.420673e-004
7.829700e+002,1.079310e-004
7.848984e+002,3.738134e-004
7.868270e+002,3.933466e-004
7.887555e+002,-1.787214e-004
7.906840e+002,-5.665868e-004
7.926124e+002,-8.910206e-004
7.945410e+002,-1.362222e-003
7.964695e+002,-1.838422e-003
7.983979e+002,-1.941253e-003
8.003264e+002,-1.852577e-003
8.022549e+002,-2.124189e-003
8.041835e+002,-2.058470e-003
8.061119e+002,-2.341126e-003
8.080404e+002,-2.957787e-003
8.099689e+002,-2.696081e-003
8.118975e+002,-2.493982e-003
8.138259e+002,-2.690581e-003
8.157545e+002,-2.788799e-003
8.176830e+002,-2.837191e-003
8.196115e+002,-3.303229e-003
8.215399e+002,-3.434050e-003
8.234684e+002,-2.969930e-003
8.253970e+002,-2.716397e-003
8.273254e+002,-2.655840e-003
8.292539e+002,-2.668090e-003
8.311824e+002,-2.492894e-003
8.331110e+002,-2.138598e-003
8.350394e+002,-2.401069e-003
8.369679e+002,-2.274055e-003
8.388964e+002,-1.889560e-003
8.408250e+002,-1.732564e-003
8.427534e+002,-1.790413e-003
8.446819e+002,-2.063417e-003
8.466104e+002,-2.224842e-003
8.485389e+002,-2.023710e-003
8.504674e+002,-2.131970e-003
8.523959e+002,-2.132663e-003
8.543244e+002,-1.735072e-003
8.562529e+002,-1.450338e-003
8.581814e+002,-1.371041e-003
8.601099e+002,-1.409320e-003
8.620384e+002,-1.431150e-003
8.639669e+002,-1.254265e-003
8.658954e+002,-1.200839e-003
8.678239e+002,-1.695831e-003
8.697524e+002,-1.681705e-003
8.716809e+002,-1.474246e-003
8.736094e+002,-1.487454e-003
8.755378e+002,-1.829118e-003
8.774664e+002,-1.507564e-003
8.793949e+002,-1.369753e-003
8.813234e+002,-1.525724e-003
8.832518e+002,-1.352048e-003
8.851804e+002,-1.294141e-003
8.871089e+002,-1.360603e-003
8.890374e+002,-1.622191e-003
8.909658e+002,-1.571418e-003
8.928943e+002,-1.162276e-003
8.948229e+002,-8.791827e-004
8.967513e+002,-6.846058e-004
8.986798e+002,-8.279589e-004
9.006083e+002,-1.324797e-003
9.025369e+002,-1.542794e-003
9.044653e+002,-1.500795e-003
9.063938e+002,-1.544544e-003
9.083223e+002,-1.697119e-003
9.102509e+002,-2.187030e-003
9.121793e+002,-2.449339e-003
9.141078e+002,-2.658869e-003
9.160364e+002,-2.884920e-003
9.179648e+002,-2.986516e-003
9.198933e+002,-3.171677e-003
9.218218e+002,-3.394930e-003
9.237504e+002,-3.748630e-003
9.256788e+002,-4.109757e-003
9.276073e+002,-4.522526e-003
9.295358e+002,-4.838515e-003
9.314644e+002,-5.007232e-003
9.333928e+002,-4.918426e-003
9.353213e+002,-4.929892e-003
9.372498e+002,-5.179877e-003
9.391783e+002,-5.763097e-003
9.411068e+002,-6.023420e-003
9.430353e+002,-5.800338e-003
9.449637e+002,-5.651520e-003
9.468923e+002,-5.732296e-003
9.488208e+002,-5.907137e-003
9.507493e+002,-5.866604e-003
9.526777e+002,-5.692597e-003
9.546063e+002,-5.576847e-003
9.565348e+002,-5.767021e-003
9.584633e+002,-5.938516e-003
9.603917e+002,-5.778988e-003
9.623203e+002,-5.534810e-003
9.642488e+002,-5.510241e-003
9.661772e+002,-5.490447e-003
9.681057e+002,-5.416793e-003
9.700343e+002,-5.430243e-003
9.719628e+002,-5.137672e-003
9.738912e+002,-5.005594e-003
9.758197e+002,-4.939851e-003
9.777483e+002,-4.772517e-003
9.796768e+002,-4.646425e-003
9.816052e+002,-4.484815e-003
9.835337e+002,-4.362183e-003
9.854623e+002,-4.474518e-003
9.873907e+002,-4.423979e-003
9.893192e+002,-4.312811e-003
9.912477e+002,-4.419945e-003
9.931763e+002,-4.288829e-003
9.951047e+002,-4.242895e-003
9.970332e+002,-4.249457e-003
9.989617e+002,-4.046832e-003
1.000890e+003,-3.816721e-003
1.002819e+003,-3.647410e-003
1.004747e+003,-3.676159e-003
1.006676e+003,-3.610346e-003
1.008604e+003,-3.479643e-003
1.010533e+003,-3.191050e-003
1.012461e+003,-2.883999e-003
1.014390e+003,-2.691174e-003
1.016318e+003,-2.383868e-003
1.018247e+003,-2.125607e-003
1.020175e+003,-2.018599e-003
1.022104e+003,-2.157655e-003
1.024032e+003,-2.116407e-003
1.025961e+003,-1.781339e-003
1.027889e+003,-1.633217e-003
1.029818e+003,-1.421078e-003
1.031746e+003,-9.867365e-004
1.033675e+003,-6.424244e-004
1.035603e+003,-5.094021e-004
1.037532e+003,-2.842302e-004
1.039460e+003,3.025243e-005
1.041389e+003,1.133663e-004
1.043317e+003,4.181717e-005
1.045246e+003,2.669767e-004
1.047174e+003,5.604593e-004
1.049103e+003,4.156666e-004
1.051031e+003,-1.439435e-004
1.052960e+003,-2.548585e-004
1.054888e+003,-1.281104e-004
1.056817e+003,-2.043889e-004
1.058745e+003,-2.786010e-004
1.060674e+003,-1.530192e-004
1.062602e+003,-1.450366e-004
1.064531e+003,-3.312141e-004
1.066459e+003,-1.587493e-004
1.068388e+003,9.391202e-005
1.070316e+003,1.523439e-004
1.072245e+003,8.976939e-005
1.074173e+003,1.271871e-004
1.076102e+003,1.364343e-004
1.078030e+003,3.106433e-004
1.079959e+003,4.883389e-004
1.081887e+003,6.284439e-004
1.083816e+003,6.296053e-004
1.085744e+003,6.586074e-004
1.087673e+003,7.296609e-004
1.089601e+003,9.932010e-004
1.091530e+003,1.288670e-003
1.093458e+003,1.423615e-003
1.095387e+003,1.291462e-003
1.097315e+003,1.266073e-003
1.099244e+003,1.384789e-003
1.101172e+003,1.552949e-003
1.103101e+003,1.421554e-003
1.105029e+003,1.433056e-003
1.106958e+003,1.721706e-003
1.108886e+003,1.860480e-003
1.110815e+003,1.610547e-003
1.112743e+003,1.561562e-003
1.114672e+003,1.608618e-003
1.116600e+003,1.849099e-003
1.118529e+003,2.008851e-003
1.120457e+003,1.990210e-003
1.122386e+003,2.048798e-003
1.124314e+003,1.938919e-003
1.126243e+003,1.604062e-003
1.128171e+003,1.319677e-003
1.130100e+003,1.324762e-003
1.132028e+003,1.169648e-003
1.133957e+003,7.959127e-004
1.135885e+003,4.860832e-004
1.137814e+003,-8.633872e-005
1.139742e+003,-8.654927e-004
1.141671e+003,-1.148166e-003
1.143599e+003,-1.425074e-003
1.145528e+003,-2.005967e-003
1.147456e+003,-2.458960e-003
1.149385e+003,-2.701876e-003
1.151313e+003,-3.056438e-003
1.153242e+003,-3.467744e-003
1.155170e+003,-3.702343e-003
1.157099e+003,-3.955597e-003
1.159027e+003,-4.114122e-003
1.160956e+003,-4.235610e-003
1.162884e+003,-4.360182e-003
1.164813e+003,-4.537872e-003
1.166741e+003,-4.632755e-003
1.168670e+003,-4.638819e-003
1.170598e+003,-4.610593e-003
1.172526e+003,-4.512984e-003
1.174455e+003,-4.543315e-003
1.176384e+003,-4.494227e-003
1.178312e+003,-4.480650e-003
1.180240e+003,-4.524920e-003
1.182169e+003,-4.495309e-003
1.184098e+003,-4.589775e-003
1.186026e+003,-4.678091e-003
1.187954e+003,-4.580824e-003
1.189883e+003,-4.603774e-003
1.191812e+003,-4.704706e-003
1.193740e+003,-4.571906e-003
1.195668e+003,-4.663602e-003
1.197597e+003,-4.867184e-003
1.199526e+003,-4.893723e-003
1.201454e+003,-4.627543e-003
1.203382e+003,-4.487176e-003
1.205311e+003,-4.401216e-003
1.207240e+003,-4.244371e-003
1.209168e+003,-4.200730e-003
1.211096e+003,-4.147270e-003
1.213025e+003,-3.892585e-003
1.214953e+003,-3.758748e-003
1.216882e+003,-3.837840e-003
1.218810e+003,-3.891206e-003
1.220739e+003,-3.753656e-003
1.222667e+003,-3.552838e-003
1.224596e+003,-3.449698e-003
1.226524e+003,-3.527564e-003
1.228453e+003,-3.511854e-003
1.230381e+003,-3.508337e-003
1.232310e+003,-3.521845e-003
1.234238e+003,-3.503210e-003
1.236167e+003,-3.519512e-003
1.238095e+003,-3.601802e-003
1.240024e+003,-3.591550e-003
1.241952e+003,-3.736574e-003
1.243881e+003,-4.198596e-003
1.245809e+003,-4.497572e-003
1.247738e+003,-4.614527e-003
1.249666e+003,-4.635377e-003
1.251595e+003,-4.828095e-003
1.253523e+003,-5.199685e-003
1.255452e+003,-5.465712e-003
1.257380e+003,-5.684355e-003
1.259309e+003,-5.895043e-003
1.261237e+003,-6.082595e-003
1.263166e+003,-6.139508e-003
1.265094e+003,-6.001885e-003
1.267023e+003,-5.864447e-003
1.268951e+003,-5.829631e-003
1.270880e+003,-5.934234e-003
1.272808e+003,-6.111641e-003
1.274737e+003,-6.296748e-003
1.276665e+003,-6.374433e-003
1.278594e+003,-6.391215e-003
1.280522e+003,-6.426312e-003
1.282451e+003,-6.611024e-003
1.284379e+003,-6.689534e-003
1.286308e+003,-6.772628e-003
1.288236e+003,-6.742093e-003
1.290165e+003,-6.742909e-003
1.292093e+003,-6.833886e-003
1.294022e+003,-6.795984e-003
1.295950e+003,-6.687445e-003
1.297879e+003,-6.728424e-003
1.299807e+003,-6.888418e-003
1.301736e+003,-6.975289e-003
1.303664e+003,-7.065469e-003
1.305593e+003,-7.171501e-003
1.307521e+003,-7.064751e-003
1.309450e+003,-7.008449e-003
1.311378e+003,-7.146699e-003
1.313307e+003,-7.311524e-003
1.315235e+003,-7.324817e-003
1.317164e+003,-7.106607e-003
1.319092e+003,-7.080301e-003
1.321021e+003,-7.149404e-003
1.322949e+003,-7.108237e-003
1.324878e+003,-6.994136e-003
1.326806e+003,-6.918910e-003
1.328735e+003,-6.690871e-003
1.330663e+003,-6.415473e-003
1.332592e+003,-6.207748e-003
1.334520e+003,-6.263404e-003
1.336449e+003,-6.176586e-003
1.338377e+003,-5.814919e-003
1.340306e+003,-5.745898e-003
1.342234e+003,-5.836006e-003
1.344163e+003,-5.891873e-003
1.346091e+003,-6.006983e-003
1.348020e+003,-5.901123e-003
1.349948e+003,-5.895239e-003
1.351877e+003,-5.978846e-003
1.353805e+003,-5.936064e-003
1.355734e+003,-5.851828e-003
1.357662e+003,-5.894782e-003
1.359591e+003,-5.978584e-003
1.361519e+003,-5.941359e-003
1.363448e+003,-6.112915e-003
1.365376e+003,-6.593794e-003
1.367305e+003,-6.856163e-003
1.369233e+003,-7.059959e-003
1.371162e+003,-7.232867e-003
1.373090e+003,-7.116255e-003
1.375019e+003,-7.342963e-003
1.376947e+003,-7.712801e-003
1.378876e+003,-7.885741e-003
1.380804e+003,-8.038089e-003
1.382733e+003,-8.122487e-003
1.384661e+003,-8.123235e-003
1.386590e+003,-7.903116e-003
1.388518e+003,-8.100340e-003
1.390447e+003,-8.589387e-003
1.392375e+003,-8.676308e-003
1.394304e+003,-8.475382e-003
1.396232e+003,-8.699887e-003
1.398161e+003,-8.785683e-003
1.400089e+003,-8.867533e-003
1.402018e+003,-9.124672e-003
1.403946e+003,-9.210481e-003
1.405875e+003,-9.295332e-003
1.407803e+003,-9.470627e-003
1.409732e+003,-9.413630e-003
1.411660e+003,-9.286673e-003
1.413589e+003,-9.110169e-003
1.415517e+003,-8.706090e-003
1.417446e+003,-8.062158e-003
1.419374e+003,-7.628453e-003
1.421303e+003,-7.849135e-003
1.423231e+003,-7.626207e-003
1.425160e+003,-7.299111e-003
1.427088e+003,-7.011155e-003
1.429017e+003,-6.500677e-003
1.430945e+003,-6.145585e-003
1.432874e+003,-5.686121e-003
1.434802e+003,-4.860533e-003
1.436731e+003,-3.989808e-003
1.438659e+003,-4.098794e-003
1.440588e+003,-4.068169e-003
1.442516e+003,-3.638276e-003
1.444445e+003,-3.261761e-003
1.446373e+003,-2.809243e-003
1.448302e+003,-2.516482e-003
1.450230e+003,-2.524750e-003
1.452159e+003,-2.421860e-003
1.454087e+003,-1.966289e-003
1.456016e+003,-8.558368e-004
1.457944e+003,-7.830131e-004
1.459873e+003,-1.798465e-003
1.461801e+003,-2.423047e-003
1.463730e+003,-2.499582e-003
1.465658e+003,-2.772667e-003
1.467587e+003,-3.414885e-003
1.469515e+003,-3.594639e-003
1.471444e+003,-3.298165e-003
1.473372e+003,-3.474712e-003
1.475301e+003,-4.219762e-003
1.477229e+003,-5.013127e-003
1.479158e+003,-5.753811e-003
1.481086e+003,-6.065082e-003
1.483015e+003,-6.445476e-003
1.484943e+003,-6.734655e-003
1.486872e+003,-6.590726e-003
1.488800e+003,-6.470318e-003
1.490729e+003,-6.607565e-003
1.492657e+003,-7.153739e-003
1.494586e+003,-7.145982e-003
1.496514e+003,-6.837376e-003
1.498443e+003,-7.115180e-003
1.500371e+003,-7.570562e-003
1.502300e+003,-7.800906e-003
1.504228e+003,-7.182387e-003
1.506157e+003,-5.891513e-003
1.508085e+003,-6.340604e-003
1.510014e+003,-7.341335e-003
1.511942e+003,-7.636136e-003
1.513871e+003,-7.718757e-003
1.515799e+003,-7.356255e-003
1.517728e+003,-7.180399e-003
1.519656e+003,-6.948649e-003
1.521585e+003,-6.465063e-003
1.523513e+003,-6.847944e-003
1.525442e+003,-6.875340e-003
1.527370e+003,-6.970105e-003
1.529299e+003,-7.160811e-003
1.531227e+003,-7.074336e-003
1.533156e+003,-6.511481e-003
1.535084e+003,-6.754523e-003
1.537013e+003,-6.625057e-003
1.538941e+003,-5.374840e-003
1.540870e+003,-5.041622e-003
1.542798e+003,-5.581917e-003
1.544727e+003,-5.899325e-003
1.546655e+003,-6.293287e-003
1.548584e+003,-6.312717e-003
1.550512e+003,-6.151923e-003
1.552441e+003,-5.917565e-003
1.554369e+003,-5.331901e-003
1.556298e+003,-4.670256e-003
1.558226e+003,-3.018467e-003
1.560155e+003,-3.019027e-003
1.562083e+003,-4.304806e-003
1.564012e+003,-4.460515e-003
1.565940e+003,-4.573480e-003
1.567869e+003,-4.451299e-003
1.569797e+003,-4.020472e-003
1.571726e+003,-4.478027e-003
1.573654e+003,-4.539020e-003
1.575583e+003,-3.795438e-003
1.577511e+003,-3.950869e-003
1.579440e+003,-4.483209e-003
1.581368e+003,-4.415517e-003
1.583297e+003,-4.405480e-003
1.585225e+003,-4.293291e-003
1.587154e+003,-4.299853e-003
1.589082e+003,-4.269537e-003
1.591010e+003,-4.235283e-003
1.592939e+003,-4.232231e-003
1.594868e+003,-4.109264e-003
1.596796e+003,-4.025494e-003
1.598724e+003,-4.120325e-003
1.600653e+003,-4.242271e-003
1.602582e+003,-4.316912e-003
1.604510e+003,-4.431982e-003
1.606438e+003,-4.572923e-003
1.608367e+003,-4.635115e-003
1.610296e+003,-4.855586e-003
1.612224e+003,-5.229870e-003
1.614152e+003,-5.201224e-003
1.616081e+003,-4.720865e-003
1.618010e+003,-5.100211e-003
1.619938e+003,-5.729941e-003
1.621866e+003,-5.614921e-003
1.623795e+003,-5.653809e-003
1.625724e+003,-6.059626e-003
1.627652e+003,-6.320849e-003
1.629580e+003,-6.616735e-003
1.631509e+003,-6.824427e-003
1.633438e+003,-6.432972e-003
1.635366e+003,-5.697861e-003
1.637294e+003,-6.207520e-003
1.639223e+003,-6.920475e-003
1.641151e+003,-7.172870e-003
1.643080e+003,-7.164559e-003
1.645008e+003,-6.611187e-003
1.646937e+003,-6.296617e-003
1.648865e+003,-6.865295e-003
1.650794e+003,-6.415898e-003
1.652722e+003,-4.709984e-003
1.654651e+003,-5.567033e-003
1.656579e+003,-6.751065e-003
1.658508e+003,-6.898300e-003
1.660436e+003,-6.561908e-003
1.662365e+003,-6.058188e-003
1.664293e+003,-6.133792e-003
1.666222e+003,-6.115986e-003
1.668150e+003,-5.455994e-003
1.670079e+003,-5.078106e-003
1.672007e+003,-5.434987e-003
1.673936e+003,-5.303785e-003
1.675864e+003,-5.377753e-003
1.677793e+003,-6.016231e-003
1.679721e+003,-6.201836e-003
1.681650e+003,-6.017244e-003
1.683578e+003,-5.181023e-003
1.685507e+003,-5.657963e-003
1.687435e+003,-6.585994e-003
1.689364e+003,-6.947475e-003
1.691292e+003,-7.192783e-003
1.693221e+003,-7.042225e-003
1.695149e+003,-6.343413e-003
1.697078e+003,-6.415735e-003
1.699006e+003,-6.142677e-003
1.700935e+003,-6.031753e-003
1.702863e+003,-7.081083e-003
1.704792e+003,-7.147709e-003
1.706720e+003,-7.443033e-003
1.708649e+003,-7.817537e-003
1.710577e+003,-8.038317e-003
1.712506e+003,-7.952894e-003
1.714434e+003,-7.625849e-003
1.716363e+003,-7.194869e-003
1.718291e+003,-7.256426e-003
1.720220e+003,-8.047326e-003
1.722148e+003,-8.370576e-003
1.724077e+003,-8.509596e-003
1.726005e+003,-8.597378e-003
1.727934e+003,-8.515737e-003
1.729862e+003,-8.375647e-003
1.731791e+003,-7.957611e-003
1.733719e+003,-7.257339e-003
1.735648e+003,-7.880437e-003
1.737576e+003,-8.395310e-003
1.739505e+003,-8.111495e-003
1.741433e+003,-8.302676e-003
1.743362e+003,-8.428523e-003
1.745290e+003,-8.376329e-003
1.747219e+003,-8.078875e-003
1.749147e+003,-7.785773e-003
1.751076e+003,-7.537381e-003
1.753004e+003,-7.865665e-003
1.754933e+003,-8.070549e-003
1.756861e+003,-7.954618e-003
1.758790e+003,-8.043358e-003
1.760718e+003,-7.809758e-003
1.762647e+003,-7.795439e-003
1.764575e+003,-8.152665e-003
1.766504e+003,-8.005952e-003
1.768432e+003,-7.763837e-003
1.770361e+003,-7.536111e-003
1.772289e+003,-7.203375e-003
1.774218e+003,-7.568511e-003
1.776146e+003,-7.909460e-003
1.778075e+003,-8.034511e-003
1.780003e+003,-7.964833e-003
1.781932e+003,-8.020947e-003
1.783860e+003,-8.054384e-003
1.785789e+003,-7.994306e-003
1.787717e+003,-8.048530e-003
1.789646e+003,-7.836053e-003
1.791574e+003,-7.410005e-003
1.793503e+003,-7.519308e-003
1.795431e+003,-7.834231e-003
1.797360e+003,-7.830911e-003
1.799288e+003,-7.739752e-003
1.801217e+003,-7.776823e-003
1.803145e+003,-7.964930e-003
1.805074e+003,-8.009399e-003
1.807002e+003,-8.020849e-003
1.808931e+003,-7.987540e-003
1.810859e+003,-8.011188e-003
1.812788e+003,-8.083363e-003
1.814716e+003,-8.222572e-003
1.816645e+003,-8.275109e-003
1.818573e+003,-8.338952e-003
1.820502e+003,-8.305276e-003
1.822430e+003,-8.192887e-003
1.824359e+003,-8.008651e-003
1.826287e+003,-8.091949e-003
1.828216e+003,-8.007578e-003
1.830144e+003,-7.927680e-003
1.832073e+003,-8.329233e-003
1.834001e+003,-8.445974e-003
1.835930e+003,-8.369667e-003
1.837858e+003,-8.368757e-003
1.839787e+003,-8.400932e-003
1.841715e+003,-8.338334e-003
1.843644e+003,-7.886456e-003
1.845572e+003,-8.049570e-003
1.847501e+003,-8.413541e-003
1.849429e+003,-8.444414e-003
1.851358e+003,-8.404604e-003
1.853286e+003,-8.379774e-003
1.855215e+003,-8.419748e-003
1.857143e+003,-8.354780e-003
1.859072e+003,-8.315873e-003
1.861000e+003,-8.329233e-003
1.862929e+003,-8.309274e-003
1.864857e+003,-8.250564e-003
1.866786e+003,-8.129901e-003
1.868714e+003,-7.963825e-003
1.870643e+003,-8.196561e-003
1.872571e+003,-8.363102e-003
1.874500e+003,-8.269712e-003
1.876428e+003,-8.200073e-003
1.878357e+003,-8.140080e-003
1.880285e+003,-8.147527e-003
1.882214e+003,-8.233692e-003
1.884142e+003,-8.232944e-003
1.886071e+003,-8.196366e-003
1.887999e+003,-8.103007e-003
1.889928e+003,-8.098584e-003
1.891856e+003,-8.260578e-003
1.893785e+003,-8.149412e-003
1.895713e+003,-8.112177e-003
1.897642e+003,-8.222475e-003
1.899570e+003,-8.154745e-003
1.901499e+003,-8.071362e-003
1.903427e+003,-8.098486e-003
1.905356e+003,-8.115170e-003
1.907284e+003,-8.144795e-003
1.909213e+003,-8.175882e-003
1.911141e+003,-8.188530e-003
1.913070e+003,-8.168858e-003
1.914998e+003,-8.085185e-003
1.916927e+003,-7.860653e-003
1.918855e+003,-7.843342e-003
1.920784e+003,-7.978952e-003
1.922712e+003,-8.089542e-003
1.924641e+003,-8.280571e-003
1.926569e+003,-8.260611e-003
1.928498e+003,-8.238991e-003
1.930426e+003,-8.208754e-003
1.932355e+003,-8.294744e-003
1.934283e+003,-8.403857e-003
1.936212e+003,-8.415622e-003
1.938140e+003,-8.397033e-003
1.940069e+003,-8.298808e-003
1.941997e+003,-8.149153e-003
1.943926e+003,-8.259440e-003
1.945854e+003,-8.428458e-003
1.947783e+003,-8.471775e-003
1.949711e+003,-8.516159e-003
1.951640e+003,-8.585294e-003
1.953568e+003,-8.617128e-003
1.955497e+003,-8.598547e-003
1.957425e+003,-8.538577e-003
1.959354e+003,-8.491693e-003
1.961282e+003,-8.482855e-003
1.963211e+003,-8.544068e-003
1.965139e+003,-8.553360e-003
1.967068e+003,-8.560864e-003
1.968996e+003,-8.735448e-003
1.970925e+003,-8.678777e-003
1.972853e+003,-8.588802e-003
1.974782e+003,-8.603095e-003
1.976710e+003,-8.531137e-003
1.978639e+003,-8.493448e-003
1.980567e+003,-8.557388e-003
1.982496e+003,-8.642042e-003
1.984424e+003,-8.586041e-003
1.986353e+003,-8.443439e-003
1.988281e+003,-8.403597e-003
1.990210e+003,-8.374900e-003
1.992138e+003,-8.241884e-003
1.994067e+003,-8.267079e-003
1.995995e+003,-8.379677e-003
1.997924e+003,-8.452278e-003
1.999852e+003,-8.432780e-003
2.001781e+003,-8.445486e-003
2.003709e+003,-8.375452e-003
2.005638e+003,-8.312233e-003
2.007566e+003,-8.276117e-003
2.009495e+003,-8.289576e-003
2.011423e+003,-8.367944e-003
2.013352e+003,-8.348605e-003
2.015280e+003,-8.288112e-003
2.017208e+003,-8.287885e-003
2.019137e+003,-8.299620e-003
2.021066e+003,-8.381659e-003
2.022994e+003,-8.448541e-003
2.024922e+003,-8.395407e-003
2.026851e+003,-8.339309e-003
2.028780e+003,-8.341032e-003
2.030708e+003,-8.367294e-003
2.032636e+003,-8.326340e-003
2.034565e+003,-8.368334e-003
2.036494e+003,-8.464301e-003
2.038422e+003,-8.479898e-003
2.040350e+003,-8.467712e-003
2.042279e+003,-8.514535e-003
2.044208e+003,-8.573826e-003
2.046136e+003,-8.547999e-003
2.048064e+003,-8.541891e-003
2.049993e+003,-8.513885e-003
2.051921e+003,-8.467453e-003
2.053850e+003,-8.424851e-003
2.055778e+003,-8.458322e-003
2.057707e+003,-8.520382e-003
2.059635e+003,-8.537472e-003
2.061564e+003,-8.539617e-003
2.063492e+003,-8.632655e-003
2.065421e+003,-8.606928e-003
2.067349e+003,-8.505502e-003
2.069278e+003,-8.543775e-003
2.071206e+003,-8.501896e-003
2.073135e+003,-8.423584e-003
2.075063e+003,-8.347110e-003
2.076992e+003,-8.384909e-003
2.078920e+003,-8.452635e-003
2.080849e+003,-8.437265e-003
2.082777e+003,-8.451075e-003
2.084706e+003,-8.542996e-003
2.086634e+003,-8.600529e-003
2.088563e+003,-8.523567e-003
2.090491e+003,-8.437655e-003
2.092420e+003,-8.423649e-003
2.094348e+003,-8.384487e-003
2.096277e+003,-8.423843e-003
2.098205e+003,-8.448411e-003
2.100134e+003,-8.383544e-003
2.102062e+003,-8.322537e-003
2.103991e+003,-8.335928e-003
2.105919e+003,-8.258790e-003
2.107848e+003,-8.159916e-003
2.109776e+003,-8.137478e-003
2.111705e+003,-8.160631e-003
2.113633e+003,-8.213110e-003
2.115562e+003,-8.182189e-003
2.117490e+003,-8.084372e-003
2.119419e+003,-8.058645e-003
2.121347e+003,-8.135852e-003
2.123276e+003,-8.133315e-003
2.125204e+003,-8.100177e-003
2.127133e+003,-8.090941e-003
2.129061e+003,-7.985881e-003
2.130990e+003,-7.977748e-003
2.132918e+003,-8.063947e-003
2.134847e+003,-8.133803e-003
2.136775e+003,-8.087526e-003
2.138704e+003,-7.972218e-003
2.140632e+003,-7.939165e-003
2.142561e+003,-8.039455e-003
2.144489e+003,-8.123560e-003
2.146418e+003,-8.103266e-003
2.148346e+003,-8.087819e-003
2.150275e+003,-8.093120e-003
2.152203e+003,-8.107592e-003
2.154132e+003,-8.085640e-003
2.156060e+003,-8.091949e-003
2.157989e+003,-8.128015e-003
2.159917e+003,-8.186189e-003
2.161846e+003,-8.271858e-003
2.163774e+003,-8.289770e-003
2.165703e+003,-8.221824e-003
2.167631e+003,-8.166777e-003
2.169560e+003,-8.129999e-003
2.171488e+003,-8.123755e-003
2.173417e+003,-8.216720e-003
2.175345e+003,-8.280636e-003
2.177274e+003,-8.182092e-003
2.179202e+003,-8.095494e-003
2.181131e+003,-8.128990e-003
2.183059e+003,-8.165736e-003
2.184988e+003,-8.108925e-003
2.186916e+003,-8.068110e-003
2.188845e+003,-8.094941e-003
2.190773e+003,-8.158550e-003
2.192702e+003,-8.191327e-003
2.194630e+003,-8.173865e-003
2.196559e+003,-8.100373e-003
2.198487e+003,-8.133315e-003
2.200416e+003,-8.201991e-003
2.202344e+003,-8.153380e-003
2.204273e+003,-8.115983e-003
2.206201e+003,-8.147429e-003
2.208130e+003,-8.084729e-003
2.210058e+003,-8.005886e-003
2.211987e+003,-7.973324e-003
2.213915e+003,-7.951755e-003
2.215844e+003,-7.940238e-003
2.217772e+003,-7.925988e-003
2.219701e+003,-7.853136e-003
2.221629e+003,-7.870773e-003
2.223558e+003,-7.896901e-003
2.225486e+003,-7.818610e-003
2.227415e+003,-7.830456e-003
2.229343e+003,-7.845164e-003
2.231272e+003,-7.822287e-003
2.233200e+003,-7.801394e-003
2.235129e+003,-7.814608e-003
2.237057e+003,-7.919091e-003
2.238986e+003,-7.968249e-003
2.240914e+003,-7.882845e-003
2.242843e+003,-7.730247e-003
2.244771e+003,-7.695450e-003
2.246700e+003,-7.742323e-003
2.248628e+003,-7.803672e-003
2.250557e+003,-7.943036e-003
2.252485e+003,-7.948112e-003
2.254414e+003,-7.797099e-003
2.256342e+003,-7.683601e-003
2.258271e+003,-7.727448e-003
2.260199e+003,-7.785773e-003
2.262128e+003,-7.778353e-003
2.264056e+003,-7.787042e-003
2.265985e+003,-7.813469e-003
2.267913e+003,-7.821669e-003
2.269842e+003,-7.874482e-003
2.271770e+003,-7.878712e-003
2.273699e+003,-7.903571e-003
2.275627e+003,-7.958392e-003
2.277556e+003,-8.047521e-003
2.279484e+003,-8.091982e-003
2.281413e+003,-8.016621e-003
2.283341e+003,-8.121056e-003
2.285270e+003,-8.144697e-003
2.287198e+003,-8.049570e-003
2.289127e+003,-8.098389e-003
2.291055e+003,-8.195391e-003
2.292984e+003,-8.205308e-003
2.294912e+003,-8.243087e-003
2.296841e+003,-8.237007e-003
2.298769e+003,-8.098747e-003
2.300698e+003,-8.010018e-003
2.302626e+003,-8.015352e-003
2.304555e+003,-8.027648e-003
2.306483e+003,-7.925273e-003
2.308412e+003,-7.917204e-003
2.310340e+003,-7.933569e-003
2.312269e+003,-7.846987e-003
2.314197e+003,-7.740565e-003
2.316125e+003,-7.493776e-003
2.318054e+003,-7.343550e-003
2.319983e+003,-7.310546e-003
2.321911e+003,-7.195032e-003
2.323840e+003,-7.005319e-003
2.325768e+003,-6.860501e-003
2.327697e+003,-6.725749e-003
2.329625e+003,-6.407572e-003
2.331553e+003,-6.314578e-003
2.333482e+003,-6.387231e-003
2.335411e+003,-6.417922e-003
2.337339e+003,-6.366825e-003
2.339268e+003,-6.344425e-003
2.341196e+003,-6.345143e-003
2.343125e+003,-6.410380e-003
2.345053e+003,-6.627178e-003
2.346981e+003,-6.993060e-003
2.348910e+003,-7.320418e-003
2.350839e+003,-7.202267e-003
2.352767e+003,-6.638958e-003
2.354696e+003,-6.117587e-003
2.356624e+003,-5.868239e-003
2.358552e+003,-5.836202e-003
2.360481e+003,-5.840485e-003
2.362409e+003,-5.788274e-003
2.364338e+003,-5.874352e-003
2.366267e+003,-6.038223e-003
2.368195e+003,-6.300798e-003
2.370124e+003,-6.542195e-003
2.372052e+003,-6.801954e-003
2.373980e+003,-7.032086e-003
2.375909e+003,-7.359220e-003
2.377838e+003,-7.719506e-003
2.379766e+003,-8.001072e-003
2.381695e+003,-8.157542e-003
2.383623e+003,-8.091526e-003
2.385552e+003,-8.051489e-003
2.387480e+003,-8.096177e-003
2.389408e+003,-8.070907e-003
2.391337e+003,-8.047782e-003
2.393266e+003,-8.105315e-003
2.395194e+003,-8.122389e-003
2.397123e+003,-8.081379e-003
2.399051e+003,-8.052921e-003
2.400979e+003,-8.047131e-003
2.402908e+003,-8.104438e-003
2.404836e+003,-8.151201e-003
2.406765e+003,-8.180563e-003
2.408694e+003,-8.230602e-003
2.410622e+003,-8.163492e-003
2.412551e+003,-8.054482e-003
2.414479e+003,-8.012912e-003
2.416407e+003,-8.026477e-003
2.418336e+003,-8.009627e-003
2.420264e+003,-8.025664e-003
2.422193e+003,-8.106487e-003
2.424122e+003,-8.027452e-003
2.426050e+003,-7.932690e-003
2.427979e+003,-7.919221e-003
2.429907e+003,-7.896446e-003
2.431835e+003,-7.865795e-003
2.433764e+003,-7.800158e-003
2.435692e+003,-7.785871e-003
2.437621e+003,-7.790850e-003
2.439550e+003,-7.792380e-003
2.441478e+003,-7.761624e-003
2.443406e+003,-7.752673e-003
2.445335e+003,-7.700854e-003
2.447263e+003,-7.577694e-003
2.449192e+003,-7.555389e-003
2.451121e+003,-7.628649e-003
2.453049e+003,-7.614356e-003
2.454978e+003,-7.578410e-003
2.456906e+003,-7.574665e-003
2.458834e+003,-7.554347e-003
2.460763e+003,-7.600779e-003
2.462691e+003,-7.633141e-003
2.464620e+003,-7.539107e-003
2.466549e+003,-7.475668e-003
2.468477e+003,-7.475114e-003
2.470406e+003,-7.491236e-003
2.472334e+003,-7.541159e-003
2.474262e+003,-7.593713e-003
2.476191e+003,-7.565223e-003
2.478119e+003,-7.502471e-003
2.480048e+003,-7.487425e-003
2.481977e+003,-7.490715e-003
2.483905e+003,-7.481303e-003
2.485833e+003,-7.527677e-003
2.487762e+003,-7.551937e-003
2.489690e+003,-7.587234e-003
2.491619e+003,-7.515009e-003
2.493547e+003,-7.389385e-003
2.495476e+003,-7.328987e-003
2.497405e+003,-7.358503e-003
2.499333e+003,-7.422578e-003
2.501261e+003,-7.462576e-003
2.503190e+003,-7.518559e-003
2.505118e+003,-7.571116e-003
2.507047e+003,-7.611621e-003
2.508975e+003,-7.610188e-003
2.510904e+003,-7.586029e-003
2.512833e+003,-7.560436e-003
2.514761e+003,-7.563138e-003
2.516689e+003,-7.593355e-003
2.518618e+003,-7.538163e-003
2.520546e+003,-7.530315e-003
2.522475e+003,-7.665143e-003
2.524403e+003,-7.720059e-003
2.526332e+003,-7.639490e-003
2.528260e+003,-7.542819e-003
2.530189e+003,-7.515270e-003
2.532117e+003,-7.552556e-003
2.534046e+003,-7.642029e-003
2.535974e+003,-7.611621e-003
2.537903e+003,-7.554444e-003
2.539831e+003,-7.450687e-003
2.541760e+003,-7.432154e-003
2.543688e+003,-7.441763e-003
2.545617e+003,-7.412252e-003
2.547545e+003,-7.364725e-003
2.549474e+003,-7.348306e-003
2.551402e+003,-7.409744e-003
2.553331e+003,-7.436031e-003
2.555259e+003,-7.359969e-003
2.557188e+003,-7.340325e-003
2.559116e+003,-7.342866e-003
2.561045e+003,-7.239938e-003
2.562973e+003,-7.193402e-003
2.564902e+003,-7.169090e-003
2.566830e+003,-7.097285e-003
2.568759e+003,-7.169611e-003
2.570687e+003,-7.198584e-003
2.572616e+003,-7.058069e-003
2.574544e+003,-6.956541e-003
2.576473e+003,-6.998798e-003
2.578401e+003,-7.010046e-003
2.580330e+003,-7.135813e-003
2.582258e+003,-7.189980e-003
2.584187e+003,-7.037661e-003
2.586115e+003,-7.018132e-003
2.588044e+003,-7.047832e-003
2.589972e+003,-7.014676e-003
2.591901e+003,-6.998276e-003
2.593829e+003,-7.013666e-003
2.595758e+003,-7.058525e-003
2.597686e+003,-7.112475e-003
2.599615e+003,-7.062698e-003
2.601543e+003,-6.943856e-003
2.603472e+003,-6.869764e-003
2.605400e+003,-6.922660e-003
2.607329e+003,-6.974344e-003
2.609257e+003,-6.856718e-003
2.611186e+003,-6.859588e-003
2.613114e+003,-6.963682e-003
2.615043e+003,-6.842497e-003
2.616971e+003,-6.810206e-003
2.618900e+003,-6.836757e-003
2.620828e+003,-6.773411e-003
2.622757e+003,-6.653054e-003
2.624685e+003,-6.691622e-003
2.626614e+003,-6.773052e-003
2.628542e+003,-6.717723e-003
2.630471e+003,-6.612656e-003
2.632399e+003,-6.616474e-003
2.634328e+003,-6.533774e-003
2.636256e+003,-6.426769e-003
2.638185e+003,-6.420175e-003
2.640113e+003,-6.443648e-003
2.642042e+003,-6.488109e-003
2.643970e+003,-6.343870e-003
2.645899e+003,-6.138823e-003
2.647827e+003,-6.129773e-003
2.649756e+003,-6.106740e-003
2.651684e+003,-6.042928e-003
2.653613e+003,-5.985708e-003
2.655541e+003,-5.969401e-003
2.657470e+003,-6.057992e-003
2.659398e+003,-6.074525e-003
2.661327e+003,-5.902856e-003
2.663255e+003,-5.807236e-003
2.665184e+003,-5.849377e-003
2.667112e+003,-5.647530e-003
2.669041e+003,-5.531343e-003
2.670969e+003,-5.562290e-003
2.672898e+003,-5.538442e-003
2.674826e+003,-5.530034e-003
2.676755e+003,-5.543218e-003
2.678683e+003,-5.512041e-003
2.680612e+003,-5.364924e-003
2.682540e+003,-5.254684e-003
2.684469e+003,-5.237269e-003
2.686397e+003,-5.170972e-003
2.688326e+003,-5.020759e-003
2.690254e+003,-4.872689e-003
2.692183e+003,-4.921702e-003
2.694111e+003,-5.014765e-003
2.696040e+003,-5.026228e-003
2.697968e+003,-4.870526e-003
2.699897e+003,-4.712704e-003
2.701825e+003,-4.698413e-003
2.703754e+003,-4.664225e-003
2.705682e+003,-4.496883e-003
2.707611e+003,-4.406563e-003
2.709539e+003,-4.379600e-003
2.711468e+003,-4.425684e-003
2.713396e+003,-4.394722e-003
2.715325e+003,-4.309695e-003
2.717253e+003,-4.219499e-003
2.719182e+003,-4.115205e-003
2.721110e+003,-4.093345e-003
2.723039e+003,-4.006979e-003
2.724967e+003,-3.920333e-003
2.726896e+003,-3.854162e-003
2.728824e+003,-3.728165e-003
2.730753e+003,-3.613862e-003
2.732681e+003,-3.589578e-003
2.734610e+003,-3.483226e-003
2.736538e+003,-3.363203e-003
2.738467e+003,-3.316743e-003
2.740395e+003,-3.198418e-003
2.742324e+003,-3.126447e-003
2.744252e+003,-3.045744e-003
2.746181e+003,-2.963842e-003
2.748109e+003,-2.900094e-003
2.750038e+003,-2.732564e-003
2.751966e+003,-2.650077e-003
2.753895e+003,-2.497902e-003
2.755823e+003,-2.325834e-003
2.757752e+003,-2.254344e-003
2.759680e+003,-2.091314e-003
2.761609e+003,-1.811333e-003
2.763537e+003,-1.517998e-003
2.765466e+003,-1.263054e-003
2.767394e+003,-8.529267e-004
2.769323e+003,-4.522429e-004
2.771251e+003,-4.694840e-005
2.773180e+003,3.719894e-004
2.775108e+003,8.191829e-004
2.777037e+003,1.429200e-003
2.778965e+003,2.014909e-003
2.780894e+003,2.674548e-003
2.782822e+003,3.532300e-003
2.784750e+003,4.329096e-003
2.786679e+003,5.056519e-003
2.788608e+003,5.732615e-003
2.790536e+003,6.438551e-003
2.792465e+003,7.248047e-003
2.794393e+003,8.061991e-003
2.796322e+003,8.881353e-003
2.798250e+003,9.648223e-003
2.800178e+003,1.020720e-002
2.802107e+003,1.072302e-002
2.804036e+003,1.129985e-002
2.805964e+003,1.167287e-002
2.807893e+003,1.203582e-002
2.809821e+003,1.231439e-002
2.811750e+003,1.243176e-002
2.813678e+003,1.239893e-002
2.815606e+003,1.223879e-002
2.817535e+003,1.200819e-002
2.819464e+003,1.173250e-002
2.821392e+003,1.143464e-002
2.823321e+003,1.112356e-002
2.825249e+003,1.075515e-002
2.827177e+003,1.020737e-002
2.829106e+003,9.569802e-003
2.831034e+003,8.993848e-003
2.832963e+003,8.487004e-003
2.834892e+003,8.086666e-003
2.836820e+003,7.586645e-003
2.838749e+003,6.968227e-003
2.840677e+003,6.444772e-003
2.842605e+003,6.080013e-003
2.844534e+003,5.583974e-003
2.846462e+003,4.916486e-003
2.848391e+003,4.362094e-003
2.850320e+003,4.119515e-003
2.852248e+003,3.936282e-003
2.854177e+003,3.746643e-003
2.856105e+003,3.574859e-003
2.858033e+003,3.383340e-003
2.859962e+003,3.376027e-003
2.861890e+003,3.228490e-003
2.863819e+003,3.121450e-003
2.865748e+003,3.107267e-003
2.867676e+003,3.128025e-003
2.869604e+003,3.267448e-003
2.871533e+003,3.353287e-003
2.873461e+003,3.454841e-003
2.875390e+003,3.568411e-003
2.877319e+003,3.719539e-003
2.879247e+003,3.936918e-003
2.881176e+003,4.020983e-003
2.883104e+003,3.987944e-003
2.885032e+003,4.090348e-003
2.886961e+003,4.099847e-003
2.888889e+003,3.998678e-003
2.890818e+003,3.908799e-003
2.892747e+003,3.861426e-003
2.894675e+003,3.712254e-003
2.896604e+003,3.698018e-003
2.898532e+003,3.799285e-003
2.900460e+003,3.752792e-003
2.902389e+003,3.695345e-003
2.904317e+003,3.713557e-003
2.906246e+003,3.768000e-003
2.908175e+003,3.759477e-003
2.910103e+003,3.818705e-003
2.912031e+003,3.940596e-003
2.913960e+003,3.875166e-003
2.915888e+003,3.857783e-003
2.917817e+003,4.076836e-003
2.919745e+003,4.486749e-003
2.921674e+003,4.756834e-003
2.923603e+003,5.006138e-003
2.925531e+003,5.323101e-003
2.927459e+003,5.551553e-003
2.929388e+003,5.647479e-003
2.931316e+003,5.833484e-003
2.933245e+003,6.043759e-003
2.935173e+003,6.152698e-003
2.937102e+003,6.058576e-003
2.939031e+003,5.929438e-003
2.940959e+003,5.640732e-003
2.942887e+003,5.192573e-003
2.944816e+003,4.824641e-003
2.946744e+003,4.531713e-003
2.948673e+003,4.076501e-003
2.950601e+003,3.307544e-003
2.952530e+003,2.621476e-003
2.954458e+003,1.998765e-003
2.956387e+003,1.331476e-003
2.958315e+003,7.284328e-004
2.960244e+003,2.418792e-006
2.962172e+003,-8.152263e-004
2.964101e+003,-1.510965e-003
2.966029e+003,-2.011277e-003
2.967958e+003,-2.497375e-003
2.969886e+003,-3.038045e-003
2.971815e+003,-3.522207e-003
2.973743e+003,-3.966760e-003
2.975672e+003,-4.370875e-003
2.977600e+003,-4.594660e-003
2.979529e+003,-4.745348e-003
2.981457e+003,-4.968612e-003
2.983386e+003,-5.200995e-003
2.985314e+003,-5.442611e-003
2.987243e+003,-5.515672e-003
2.989171e+003,-5.567197e-003
2.991100e+003,-5.816685e-003
2.993028e+003,-5.907497e-003
2.994957e+003,-5.836006e-003
2.996885e+003,-5.856471e-003
2.998814e+003,-5.914982e-003
3.000742e+003,-5.957504e-003
3.002671e+003,-6.039955e-003
3.004599e+003,-6.108570e-003
3.006528e+003,-6.076877e-003
3.008456e+003,-6.130524e-003
3.010385e+003,-6.166460e-003
3.012313e+003,-6.085013e-003
3.014242e+003,-6.005055e-003
3.016170e+003,-6.111968e-003
3.018099e+003,-6.172633e-003
3.020027e+003,-6.164369e-003
3.021956e+003,-6.146565e-003
3.023884e+003,-6.161788e-003
3.025813e+003,-6.156006e-003
3.027741e+003,-6.221990e-003
3.029670e+003,-6.276696e-003
3.031598e+003,-6.237308e-003
3.033527e+003,-6.168256e-003
3.035455e+003,-6.038027e-003
3.037384e+003,-6.049627e-003
3.039312e+003,-6.144637e-003
3.041241e+003,-6.243644e-003
3.043169e+003,-6.317387e-003
3.045098e+003,-6.381648e-003
3.047026e+003,-6.316244e-003
3.048955e+003,-6.252724e-003
3.050883e+003,-6.246943e-003
3.052812e+003,-6.239007e-003
3.054740e+003,-6.322416e-003
3.056669e+003,-6.341813e-003
3.058597e+003,-6.334824e-003
3.060526e+003,-6.354711e-003
3.062454e+003,-6.202261e-003
3.064383e+003,-6.213595e-003
3.066311e+003,-6.286918e-003
3.068240e+003,-6.195859e-003
3.070168e+003,-6.114059e-003
3.072097e+003,-6.156986e-003
3.074025e+003,-6.195859e-003
3.075954e+003,-6.274018e-003
3.077882e+003,-6.312162e-003
3.079811e+003,-6.291294e-003
3.081739e+003,-6.276468e-003
3.083668e+003,-6.262098e-003
3.085596e+003,-6.351804e-003
3.087525e+003,-6.388962e-003
3.089453e+003,-6.304227e-003
3.091382e+003,-6.246551e-003
3.093310e+003,-6.123337e-003
3.095239e+003,-6.019237e-003
3.097167e+003,-6.174626e-003
3.099096e+003,-6.225517e-003
3.101024e+003,-6.123860e-003
3.102953e+003,-6.069690e-003
3.104881e+003,-6.037275e-003
3.106810e+003,-5.982996e-003
3.108738e+003,-5.999238e-003
3.110667e+003,-5.970479e-003
3.112595e+003,-5.900927e-003
3.114524e+003,-5.783598e-003
3.116452e+003,-5.817012e-003
3.118381e+003,-5.836039e-003
3.120309e+003,-5.857778e-003
3.122238e+003,-5.659468e-003
3.124166e+003,-5.494864e-003
3.126095e+003,-5.598207e-003
3.128023e+003,-5.712283e-003
3.129952e+003,-5.684519e-003
3.131880e+003,-5.632289e-003
3.133809e+003,-5.544854e-003
3.135737e+003,-5.401642e-003
3.137666e+003,-5.351735e-003
3.139594e+003,-5.385836e-003
3.141523e+003,-5.339920e-003
3.143451e+003,-5.153389e-003
3.145380e+003,-5.152210e-003
3.147308e+003,-5.339331e-003
3.149237e+003,-5.357331e-003
3.151165e+003,-5.132203e-003
3.153094e+003,-4.983091e-003
3.155022e+003,-4.942079e-003
3.156951e+003,-4.984205e-003
3.158879e+003,-4.937066e-003
3.160808e+003,-4.818460e-003
3.162736e+003,-4.726863e-003
3.164665e+003,-4.652031e-003
3.166593e+003,-4.738531e-003
3.168522e+003,-4.791524e-003
3.170450e+003,-4.688285e-003
3.172379e+003,-4.617543e-003
3.174307e+003,-4.645835e-003
3.176236e+003,-4.582660e-003
3.178164e+003,-4.416960e-003
3.180093e+003,-4.540102e-003
3.182021e+003,-4.608692e-003
3.183950e+003,-4.501113e-003
3.185878e+003,-4.445363e-003
3.187807e+003,-4.301230e-003
3.189735e+003,-4.282202e-003
3.191664e+003,-4.364019e-003
3.193592e+003,-4.381339e-003
3.195521e+003,-4.384685e-003
3.197449e+003,-4.353096e-003
3.199378e+003,-4.388916e-003
3.201306e+003,-4.477732e-003
3.203235e+003,-4.386915e-003
3.205163e+003,-4.292405e-003
3.207092e+003,-4.353982e-003
3.209020e+003,-4.253690e-003
3.210948e+003,-4.021719e-003
3.212877e+003,-3.971423e-003
3.214806e+003,-4.076080e-003
3.216734e+003,-4.213199e-003
3.218663e+003,-4.148846e-003
3.220591e+003,-3.991713e-003
3.222520e+003,-3.871798e-003
3.224448e+003,-3.916687e-003
3.226376e+003,-3.987707e-003
3.228305e+003,-3.908478e-003
3.230234e+003,-3.727343e-003
3.232162e+003,-3.720445e-003
3.234091e+003,-3.669259e-003
3.236019e+003,-3.691403e-003
3.237948e+003,-3.718507e-003
3.239876e+003,-3.578142e-003
3.241804e+003,-3.286031e-003
3.243733e+003,-3.166743e-003
3.245662e+003,-3.082100e-003
3.247590e+003,-2.881003e-003
3.249519e+003,-2.848186e-003
3.251447e+003,-2.897625e-003
3.253375e+003,-2.965916e-003
3.255304e+003,-2.871392e-003
3.257232e+003,-2.654950e-003
3.259161e+003,-2.524157e-003
3.261090e+003,-2.299303e-003
3.263018e+003,-2.325933e-003
3.264947e+003,-2.491247e-003
3.266875e+003,-2.555484e-003
3.268803e+003,-2.414809e-003
3.270732e+003,-2.389173e-003
3.272660e+003,-2.493883e-003
3.274589e+003,-2.470854e-003
3.276518e+003,-2.363898e-003
3.278446e+003,-2.310113e-003
3.280375e+003,-2.214722e-003
3.282303e+003,-2.154687e-003
3.284231e+003,-2.174238e-003
3.286160e+003,-2.232918e-003
3.288088e+003,-2.387756e-003
3.290017e+003,-2.566255e-003
3.291946e+003,-2.614014e-003
3.293874e+003,-2.495530e-003
3.295802e+003,-2.515461e-003
3.297731e+003,-2.592441e-003
3.299659e+003,-2.646124e-003
3.301588e+003,-2.826888e-003
3.303516e+003,-3.113288e-003
3.305445e+003,-3.170558e-003
3.307374e+003,-3.057359e-003
3.309302e+003,-3.133092e-003
3.311230e+003,-3.313159e-003
3.313159e+003,-3.408244e-003
3.315087e+003,-3.533053e-003
3.317016e+003,-3.522273e-003
3.318944e+003,-3.572851e-003
3.320873e+003,-3.744787e-003
3.322802e+003,-3.824078e-003
3.324730e+003,-3.873867e-003
3.326658e+003,-3.926867e-003
3.328587e+003,-3.949523e-003
3.330515e+003,-3.899087e-003
3.332444e+003,-3.924896e-003
3.334372e+003,-3.899776e-003
3.336301e+003,-3.785059e-003
3.338229e+003,-3.762657e-003
3.340158e+003,-3.830910e-003
3.342086e+003,-3.801843e-003
3.344015e+003,-3.893964e-003
3.345943e+003,-3.885196e-003
3.347872e+003,-3.861059e-003
3.349800e+003,-3.969847e-003
3.351729e+003,-3.986985e-003
3.353657e+003,-3.878793e-003
3.355586e+003,-3.823356e-003
3.357514e+003,-3.847233e-003
3.359443e+003,-3.898430e-003
3.361371e+003,-3.992304e-003
3.363300e+003,-3.990892e-003
3.365229e+003,-4.007406e-003
3.367157e+003,-4.304347e-003
3.369085e+003,-4.684187e-003
3.371014e+003,-4.868004e-003
3.372942e+003,-4.835959e-003
3.374871e+003,-4.971626e-003
3.376799e+003,-5.085114e-003
3.378728e+003,-5.236811e-003
3.380656e+003,-5.350262e-003
3.382585e+003,-5.403638e-003
3.384513e+003,-5.502357e-003
3.386442e+003,-5.684878e-003
3.388370e+003,-5.778171e-003
3.390299e+003,-5.934103e-003
3.392227e+003,-6.043190e-003
3.394156e+003,-6.142579e-003
3.396084e+003,-6.151106e-003
3.398013e+003,-6.331265e-003
3.399941e+003,-6.385175e-003
3.401870e+003,-6.349715e-003
3.403798e+003,-6.437934e-003
3.405727e+003,-6.441917e-003
3.407655e+003,-6.315068e-003
3.409584e+003,-6.327543e-003
3.411512e+003,-6.420958e-003
3.413441e+003,-6.463855e-003
3.415369e+003,-6.444627e-003
3.417298e+003,-6.385534e-003
3.419226e+003,-6.287082e-003
3.421155e+003,-6.244102e-003
3.423083e+003,-6.434246e-003
3.425012e+003,-6.414657e-003
3.426940e+003,-6.350531e-003
3.428869e+003,-6.441003e-003
3.430797e+003,-6.495225e-003
3.432726e+003,-6.379363e-003
3.434654e+003,-6.308243e-003
3.436583e+003,-6.557568e-003
3.438511e+003,-6.654522e-003
3.440440e+003,-6.439828e-003
3.442368e+003,-6.464345e-003
3.444297e+003,-6.576040e-003
3.446225e+003,-6.448218e-003
3.448154e+003,-6.354972e-003
3.450082e+003,-6.303410e-003
3.452011e+003,-6.288943e-003
3.453939e+003,-6.344229e-003
3.455868e+003,-6.391052e-003
3.457796e+003,-6.436694e-003
3.459725e+003,-6.454551e-003
3.461653e+003,-6.365290e-003
3.463582e+003,-6.310758e-003
3.465510e+003,-6.439501e-003
3.467439e+003,-6.481646e-003
3.469367e+003,-6.351217e-003
3.471296e+003,-6.360066e-003
3.473224e+003,-6.506422e-003
3.475153e+003,-6.612754e-003
3.477081e+003,-6.480634e-003
3.479010e+003,-6.408487e-003
3.480938e+003,-6.552117e-003
3.482867e+003,-6.594512e-003
3.484795e+003,-6.404667e-003
3.486724e+003,-6.335119e-003
3.488652e+003,-6.487358e-003
3.490581e+003,-6.486543e-003
3.492509e+003,-6.540465e-003
3.494438e+003,-6.599080e-003
3.496366e+003,-6.544741e-003
3.498295e+003,-6.472604e-003
3.500223e+003,-6.310889e-003
3.502152e+003,-6.227216e-003
3.504080e+003,-6.287833e-003
3.506009e+003,-6.547678e-003
3.507937e+003,-6.584982e-003
3.509866e+003,-6.468523e-003
3.511794e+003,-6.372996e-003
3.513723e+003,-6.412731e-003
3.515651e+003,-6.570166e-003
3.517580e+003,-6.485465e-003
3.519508e+003,-6.392586e-003
3.521437e+003,-6.520457e-003
3.523365e+003,-6.558971e-003
3.525294e+003,-6.537397e-003
3.527222e+003,-6.390627e-003
3.529151e+003,-6.387525e-003
3.531079e+003,-6.501884e-003
3.533008e+003,-6.491798e-003
3.534936e+003,-6.472865e-003
3.536865e+003,-6.478545e-003
3.538793e+003,-6.664866e-003
3.540722e+003,-6.765386e-003
3.542650e+003,-6.696940e-003
3.544579e+003,-6.433527e-003
3.546507e+003,-6.108896e-003
3.548436e+003,-6.155549e-003
3.550364e+003,-6.217319e-003
3.552293e+003,-6.209512e-003
3.554221e+003,-6.197492e-003
3.556150e+003,-6.222055e-003
3.558078e+003,-6.149472e-003
3.560007e+003,-6.298903e-003
3.561935e+003,-6.435878e-003
3.563864e+003,-6.210884e-003
3.565792e+003,-5.793341e-003
3.567721e+003,-5.832639e-003
3.569649e+003,-6.280321e-003
3.571578e+003,-6.425627e-003
3.573506e+003,-6.305729e-003
3.575435e+003,-6.248544e-003
3.577363e+003,-6.240542e-003
3.579292e+003,-6.340082e-003
3.581220e+003,-6.235479e-003
3.583149e+003,-6.066356e-003
3.585077e+003,-5.921617e-003
3.587006e+003,-5.810211e-003
3.588934e+003,-6.076747e-003
3.590863e+003,-6.350172e-003
3.592791e+003,-6.173417e-003
3.594720e+003,-6.094913e-003
3.596648e+003,-6.170347e-003
3.598577e+003,-6.266050e-003
3.600505e+003,-6.200726e-003
3.602434e+003,-6.129218e-003
3.604362e+003,-6.231952e-003
3.606291e+003,-6.185667e-003
3.608219e+003,-5.842021e-003
3.610148e+003,-5.967865e-003
3.612076e+003,-5.996918e-003
3.614005e+003,-5.988715e-003
3.615933e+003,-6.033550e-003
3.617862e+003,-5.764078e-003
3.619790e+003,-5.908216e-003
3.621719e+003,-6.287179e-003
3.623647e+003,-6.465977e-003
3.625576e+003,-6.276500e-003
3.627504e+003,-5.217266e-003
3.629433e+003,-4.761768e-003
3.631361e+003,-5.921389e-003
3.633290e+003,-6.299002e-003
3.635218e+003,-6.239660e-003
3.637146e+003,-6.147577e-003
3.639075e+003,-6.200040e-003
3.641004e+003,-6.318040e-003
3.642932e+003,-6.425953e-003
3.644861e+003,-6.357290e-003
3.646789e+003,-5.714768e-003
3.648718e+003,-5.102765e-003
3.650646e+003,-5.378342e-003
3.652574e+003,-6.208990e-003
3.654503e+003,-6.122259e-003
3.656432e+003,-5.826395e-003
3.658360e+003,-6.389778e-003
3.660289e+003,-6.617192e-003
3.662217e+003,-6.633345e-003
3.664146e+003,-6.643722e-003
3.666074e+003,-6.665519e-003
3.668002e+003,-6.201673e-003
3.669931e+003,-5.521267e-003
3.671860e+003,-5.783336e-003
3.673788e+003,-5.420655e-003
3.675717e+003,-4.936870e-003
3.677645e+003,-5.839569e-003
3.679573e+003,-6.463333e-003
3.681502e+003,-6.654099e-003
3.683430e+003,-6.544121e-003
3.685359e+003,-6.452919e-003
3.687288e+003,-5.937535e-003
3.689216e+003,-5.579660e-003
3.691145e+003,-5.942699e-003
3.693073e+003,-6.362939e-003
3.695001e+003,-6.424223e-003
3.696930e+003,-6.334792e-003
3.698858e+003,-6.258995e-003
3.700787e+003,-5.999630e-003
3.702716e+003,-6.024793e-003
3.704644e+003,-6.227934e-003
3.706573e+003,-6.019858e-003
3.708501e+003,-5.807661e-003
3.710429e+003,-5.379913e-003
3.712358e+003,-5.215957e-003
3.714286e+003,-5.989630e-003
3.716215e+003,-6.346221e-003
3.718144e+003,-6.152902e-003
3.720072e+003,-6.184295e-003
3.722000e+003,-6.152804e-003
3.723929e+003,-6.047568e-003
3.725857e+003,-6.034955e-003
3.727786e+003,-6.320587e-003
3.729714e+003,-6.212615e-003
3.731643e+003,-5.383447e-003
3.733572e+003,-4.929138e-003
3.735500e+003,-4.755836e-003
3.737428e+003,-5.394999e-003
3.739357e+003,-6.007800e-003
3.741285e+003,-5.767511e-003
3.743214e+003,-4.321669e-003
3.745142e+003,-3.918297e-003
3.747071e+003,-5.025049e-003
3.749000e+003,-4.448773e-003
3.750928e+003,-3.999100e-003
3.752856e+003,-4.492587e-003
3.754785e+003,-5.251346e-003
3.756713e+003,-5.427919e-003
3.758642e+003,-5.361749e-003
3.760570e+003,-5.311706e-003
3.762499e+003,-5.584403e-003
3.764427e+003,-5.361880e-003
3.766356e+003,-5.274358e-003
3.768284e+003,-5.327613e-003
3.770213e+003,-5.190715e-003
3.772141e+003,-5.490186e-003
3.774070e+003,-5.697240e-003
3.775998e+003,-5.648282e-003
3.777927e+003,-5.469344e-003
3.779855e+003,-5.390745e-003
3.781784e+003,-5.715847e-003
3.783712e+003,-5.579561e-003
3.785641e+003,-5.368066e-003
3.787569e+003,-5.390909e-003
3.789498e+003,-5.551756e-003
3.791426e+003,-5.788797e-003
3.793355e+003,-5.795042e-003
3.795283e+003,-5.407827e-003
3.797212e+003,-5.277926e-003
3.799140e+003,-5.055967e-003
3.801069e+003,-4.342500e-003
3.802997e+003,-4.951808e-003
3.804926e+003,-5.134398e-003
3.806854e+003,-4.543577e-003
3.808783e+003,-5.071327e-003
3.810711e+003,-5.609393e-003
3.812640e+003,-5.733015e-003
3.814568e+003,-5.172379e-003
3.816497e+003,-4.530363e-003
3.818425e+003,-4.797062e-003
3.820354e+003,-4.283645e-003
3.822282e+003,-4.410663e-003
3.824211e+003,-5.195036e-003
3.826139e+003,-5.289252e-003
3.828068e+003,-5.405373e-003
3.829996e+003,-5.180598e-003
3.831925e+003,-4.872329e-003
3.833853e+003,-4.816822e-003
3.835782e+003,-4.520559e-003
3.837710e+003,-3.863588e-003
3.839639e+003,-4.186291e-003
3.841567e+003,-4.861680e-003
3.843496e+003,-4.896312e-003
3.845424e+003,-5.206233e-003
3.847353e+003,-5.734944e-003
3.849281e+003,-5.514266e-003
3.851210e+003,-4.315206e-003
3.853138e+003,-2.843413e-003
3.855067e+003,-3.642416e-003
3.856995e+003,-4.916952e-003
3.858924e+003,-5.132203e-003
3.860852e+003,-4.906730e-003
3.862781e+003,-4.694480e-003
3.864709e+003,-4.594562e-003
3.866638e+003,-5.111672e-003
3.868566e+003,-4.690743e-003
3.870495e+003,-4.219302e-003
3.872423e+003,-4.521969e-003
3.874352e+003,-4.551709e-003
3.876280e+003,-5.002646e-003
3.878209e+003,-5.033598e-003
3.880137e+003,-4.826095e-003
3.882066e+003,-5.224174e-003
3.883994e+003,-5.080202e-003
3.885923e+003,-4.499703e-003
3.887851e+003,-4.911284e-003
3.889780e+003,-4.583185e-003
3.891708e+003,-4.319930e-003
3.893637e+003,-4.886188e-003
3.895565e+003,-5.191173e-003
3.897494e+003,-4.943716e-003
3.899422e+003,-4.688678e-003
3.901351e+003,-4.558234e-003
3.903279e+003,-4.247390e-003
3.905208e+003,-4.466811e-003
3.907136e+003,-5.177389e-003
3.909065e+003,-5.262541e-003
3.910993e+003,-5.217430e-003
3.912922e+003,-5.305913e-003
3.914850e+003,-5.084001e-003
3.916779e+003,-4.883894e-003
3.918707e+003,-4.929531e-003
3.920636e+003,-4.831306e-003
3.922564e+003,-4.655964e-003
3.924493e+003,-4.728010e-003
3.926421e+003,-5.029143e-003
3.928350e+003,-5.234781e-003
3.930278e+003,-5.225614e-003
3.932207e+003,-4.964714e-003
3.934135e+003,-5.008935e-003
3.936064e+003,-5.094087e-003
3.937992e+003,-4.974640e-003
3.939921e+003,-4.887269e-003
3.941849e+003,-4.793687e-003
3.943778e+003,-4.941161e-003
3.945706e+003,-5.036971e-003
3.947635e+003,-4.870560e-003
3.949563e+003,-4.742530e-003
3.951492e+003,-4.907222e-003
3.953420e+003,-5.099458e-003
3.955349e+003,-5.288728e-003
3.957277e+003,-5.260806e-003
3.959206e+003,-5.137279e-003
3.961134e+003,-5.192221e-003
3.963063e+003,-5.206855e-003
3.964991e+003,-5.259693e-003
3.966920e+003,-5.147201e-003
3.968848e+003,-4.794441e-003
3.970777e+003,-4.806271e-003
3.972705e+003,-4.922423e-003
3.974634e+003,-4.877473e-003
3.976562e+003,-4.979651e-003
3.978491e+003,-5.065628e-003
3.980419e+003,-4.923143e-003
3.982348e+003,-4.728076e-003
3.984276e+003,-4.762390e-003
3.986205e+003,-4.994228e-003
3.988133e+003,-4.980831e-003
3.990062e+003,-4.765045e-003
3.991990e+003,-4.998846e-003
3.993919e+003,-5.206233e-003
3.995847e+003,-5.316452e-003
3.997776e+003,-5.186229e-003
3.999704e+003,-5.132596e-003
4.001633e+003,0.000000e+000
