3.991989e+002,2.439649e-002
4.011274e+002,2.064366e-002
4.030559e+002,9.735910e-003
4.049844e+002,3.805454e-004
4.069129e+002,-1.812620e-003
4.088414e+002,3.092783e-003
4.107699e+002,8.196559e-003
4.126984e+002,1.170806e-002
4.146269e+002,1.083797e-002
4.165554e+002,9.501589e-003
4.184839e+002,7.922572e-003
4.204124e+002,9.147824e-003
4.223409e+002,1.070570e-002
4.242694e+002,1.142066e-002
4.261979e+002,8.198112e-003
4.281264e+002,7.917848e-003
4.300549e+002,6.613289e-003
4.319834e+002,2.243859e-003
4.339119e+002,1.873058e-003
4.358404e+002,6.425335e-003
4.377689e+002,7.742045e-003
4.396974e+002,5.602232e-003
4.416259e+002,4.806851e-003
4.435544e+002,6.602489e-003
4.454829e+002,9.100688e-003
4.474114e+002,1.167767e-002
4.493399e+002,8.203075e-003
4.512684e+002,3.604894e-003
4.531969e+002,2.869757e-003
4.551254e+002,4.877950e-003
4.570539e+002,6.629740e-003
4.589824e+002,5.566890e-003
4.609109e+002,6.748619e-003
4.628394e+002,6.569219e-003
4.647679e+002,3.690666e-003
4.666964e+002,2.654245e-003
4.686249e+002,1.383294e-003
4.705533e+002,2.095141e-003
4.724819e+002,3.228791e-003
4.744103e+002,2.135396e-003
4.763389e+002,1.876885e-003
4.782673e+002,1.813030e-003
4.801959e+002,8.897978e-004
4.821243e+002,1.779060e-003
4.840529e+002,2.640677e-003
4.859813e+002,2.961689e-003
4.879099e+002,2.000096e-003
4.898383e+002,7.193058e-004
4.917668e+002,4.558985e-004
4.936953e+002,7.728761e-004
4.956238e+002,5.295064e-004
4.975523e+002,1.335507e-004
4.994808e+002,1.306915e-003
5.014093e+002,1.670248e-003
5.033378e+002,2.128389e-004
5.052663e+002,-1.890253e-003
5.071948e+002,-2.766905e-003
5.091233e+002,-2.378002e-003
5.110518e+002,-2.983587e-003
5.129803e+002,-3.877906e-003
5.149088e+002,-3.291982e-003
5.168373e+002,-1.892595e-003
5.187658e+002,-2.345443e-003
5.206943e+002,-2.499318e-003
5.226228e+002,-3.392168e-003
5.245513e+002,-2.889857e-003
5.264798e+002,-1.463316e-003
5.284083e+002,-7.037267e-004
5.303368e+002,-8.491238e-004
5.322653e+002,-1.456744e-003
5.341938e+002,-2.458499e-003
5.361223e+002,-3.019060e-003
5.380508e+002,-3.618560e-003
5.399792e+002,-2.211392e-003
5.419078e+002,-1.089008e-003
5.438363e+002,-6.953573e-004
5.457648e+002,-1.058898e-003
5.476932e+002,-1.850465e-003
5.496218e+002,-1.383361e-003
5.515503e+002,-1.247724e-003
5.534788e+002,-2.348343e-003
5.554072e+002,-1.153916e-003
5.573358e+002,3.649259e-004
5.592643e+002,4.682375e-004
5.611927e+002,-9.708349e-004
5.631212e+002,-1.067888e-003
5.650497e+002,-7.868828e-004
5.669783e+002,1.196155e-005
5.689067e+002,6.581428e-004
5.708352e+002,-5.801869e-004
5.727637e+002,-1.780976e-003
5.746923e+002,-3.208088e-003
5.766207e+002,-3.025048e-003
5.785492e+002,-8.378800e-004
5.804777e+002,-1.743653e-003
5.824063e+002,-5.588295e-003
5.843347e+002,-4.189146e-003
5.862632e+002,-1.810310e-003
5.881917e+002,-1.942440e-003
5.901202e+002,-3.641101e-003
5.920487e+002,-5.292983e-003
5.939772e+002,-4.862598e-003
5.959057e+002,-4.906304e-003
5.978342e+002,-4.270915e-003
5.997627e+002,-3.028437e-003
6.016912e+002,-2.465187e-003
6.036197e+002,-2.282922e-003
6.055482e+002,-1.425932e-003
6.074767e+002,-4.521436e-004
6.094052e+002,2.057487e-003
6.113337e+002,3.443319e-003
6.132622e+002,2.069805e-003
6.151907e+002,1.772905e-003
6.171192e+002,2.481960e-003
6.190477e+002,9.736741e-004
6.209762e+002,3.715252e-004
6.229047e+002,-6.883771e-004
6.248332e+002,-3.466955e-003
6.267617e+002,-5.174770e-003
6.286902e+002,-4.621806e-003
6.306187e+002,-3.735228e-003
6.325472e+002,-3.165098e-003
6.344756e+002,-2.603079e-003
6.364042e+002,-2.703292e-003
6.383326e+002,-2.545602e-003
6.402612e+002,-2.390656e-003
6.421896e+002,-1.799388e-003
6.441182e+002,-1.695270e-003
6.460466e+002,-2.286449e-003
6.479752e+002,-1.952270e-003
6.499036e+002,-2.074958e-003
6.518322e+002,-2.133355e-003
6.537606e+002,-1.626978e-003
6.556891e+002,-1.249475e-003
6.576177e+002,-1.618725e-003
6.595461e+002,-1.971434e-003
6.614746e+002,-2.430098e-003
6.634031e+002,-2.327317e-003
6.653317e+002,-7.045537e-004
6.672601e+002,4.242528e-003
6.691886e+002,3.033187e-003
6.711171e+002,-1.014670e-003
6.730457e+002,-1.953655e-003
6.749741e+002,-2.219205e-003
6.769026e+002,-2.079344e-003
6.788311e+002,-2.075585e-003
6.807596e+002,-2.171765e-003
6.826881e+002,-2.114792e-003
6.846166e+002,-2.251312e-003
6.865451e+002,-2.958149e-003
6.884736e+002,-3.021528e-003
6.904021e+002,-2.763613e-003
6.923306e+002,-3.043968e-003
6.942591e+002,-3.051305e-003
6.961876e+002,-2.608810e-003
6.981161e+002,-2.941694e-003
7.000446e+002,-3.531508e-003
7.019731e+002,-4.098498e-003
7.039016e+002,-4.212379e-003
7.058301e+002,-4.322588e-003
7.077585e+002,-4.937034e-003
7.096871e+002,-5.155419e-003
7.116156e+002,-5.123035e-003
7.135441e+002,-5.531539e-003
7.154725e+002,-5.932599e-003
7.174011e+002,-6.025054e-003
7.193296e+002,-5.722878e-003
7.212581e+002,-5.389207e-003
7.231865e+002,-5.190976e-003
7.251151e+002,-5.435347e-003
7.270436e+002,-5.443430e-003
7.289720e+002,-5.182529e-003
7.309005e+002,-4.796472e-003
7.328290e+002,-4.868724e-003
7.347576e+002,-5.139014e-003
7.366860e+002,-5.098704e-003
7.386145e+002,-5.073063e-003
7.405430e+002,-4.573349e-003
7.424716e+002,-4.087306e-003
7.444000e+002,-3.683354e-003
7.463285e+002,-3.325852e-003
7.482570e+002,-3.492068e-003
7.501855e+002,-3.353175e-003
7.521140e+002,-2.223556e-003
7.540425e+002,-1.571022e-003
7.559710e+002,-1.453706e-003
7.578995e+002,-1.242041e-003
7.598280e+002,-1.007398e-003
7.617565e+002,-2.694949e-004
7.636850e+002,5.572743e-004
7.656135e+002,1.062416e-003
7.675420e+002,8.201124e-004
7.694705e+002,1.187355e-004
7.713990e+002,-1.176242e-005
7.733275e+002,5.511367e-004
7.752560e+002,7.700215e-004
7.771844e+002,7.223924e-004
7.791130e+002,5.013754e-004
7.810415e+002,4.814061e-004
7.829700e+002,2.080653e-004
7.848984e+002,-1.373189e-004
7.868270e+002,-1.339734e-004
7.887555e+002,-1.825633e-004
7.906840e+002,-4.628677e-004
7.926124e+002,-9.903068e-004
7.945410e+002,-1.656092e-003
7.964695e+002,-2.003856e-003
7.983979e+002,-2.269012e-003
8.003264e+002,-2.466604e-003
8.022549e+002,-2.391216e-003
8.041835e+002,-2.181986e-003
8.061119e+002,-2.386438e-003
8.080404e+002,-2.373916e-003
8.099689e+002,-2.000063e-003
8.118975e+002,-1.653022e-003
8.138259e+002,-1.612948e-003
8.157545e+002,-1.960516e-003
8.176830e+002,-2.257575e-003
8.196115e+002,-2.760090e-003
8.215399e+002,-3.312337e-003
8.234684e+002,-3.542058e-003
8.253970e+002,-3.328383e-003
8.273254e+002,-3.289845e-003
8.292539e+002,-3.875804e-003
8.311824e+002,-4.007340e-003
8.331110e+002,-3.726062e-003
8.350394e+002,-3.909004e-003
8.369679e+002,-3.881091e-003
8.388964e+002,-3.884572e-003
8.408250e+002,-3.668569e-003
8.427534e+002,-3.659206e-003
8.446819e+002,-4.145367e-003
8.466104e+002,-4.325507e-003
8.485389e+002,-4.038691e-003
8.504674e+002,-3.727639e-003
8.523959e+002,-3.599305e-003
8.543244e+002,-3.720280e-003
8.562529e+002,-3.923124e-003
8.581814e+002,-3.908216e-003
8.601099e+002,-3.808642e-003
8.620384e+002,-3.825097e-003
8.639669e+002,-3.299250e-003
8.658954e+002,-2.893412e-003
8.678239e+002,-3.094339e-003
8.697524e+002,-2.927839e-003
8.716809e+002,-2.848712e-003
8.736094e+002,-3.280177e-003
8.755378e+002,-3.295337e-003
8.774664e+002,-2.843413e-003
8.793949e+002,-2.713533e-003
8.813234e+002,-2.824847e-003
8.832518e+002,-2.772436e-003
8.851804e+002,-2.869681e-003
8.871089e+002,-3.143487e-003
8.890374e+002,-3.338544e-003
8.909658e+002,-2.759036e-003
8.928943e+002,-2.213798e-003
8.948229e+002,-2.300555e-003
8.967513e+002,-2.435666e-003
8.986798e+002,-2.659791e-003
9.006083e+002,-2.925963e-003
9.025369e+002,-2.931196e-003
9.044653e+002,-2.736878e-003
9.063938e+002,-2.940707e-003
9.083223e+002,-3.473036e-003
9.102509e+002,-3.802828e-003
9.121793e+002,-3.574067e-003
9.141078e+002,-3.936258e-003
9.160364e+002,-4.504786e-003
9.179648e+002,-4.574267e-003
9.198933e+002,-4.665503e-003
9.218218e+002,-4.890119e-003
9.237504e+002,-5.119040e-003
9.256788e+002,-5.386556e-003
9.276073e+002,-5.873273e-003
9.295358e+002,-6.101741e-003
9.314644e+002,-6.263273e-003
9.333928e+002,-6.268172e-003
9.353213e+002,-6.191286e-003
9.372498e+002,-6.232507e-003
9.391783e+002,-6.703563e-003
9.411068e+002,-6.739842e-003
9.430353e+002,-6.420272e-003
9.449637e+002,-6.237047e-003
9.468923e+002,-6.098180e-003
9.488208e+002,-6.223165e-003
9.507493e+002,-6.209284e-003
9.526777e+002,-5.987342e-003
9.546063e+002,-5.716959e-003
9.565348e+002,-5.585318e-003
9.584633e+002,-5.747991e-003
9.603917e+002,-5.697763e-003
9.623203e+002,-5.433515e-003
9.642488e+002,-5.305455e-003
9.661772e+002,-5.112949e-003
9.681057e+002,-4.912561e-003
9.700343e+002,-4.875605e-003
9.719628e+002,-4.595217e-003
9.738912e+002,-4.493112e-003
9.758197e+002,-4.362740e-003
9.777483e+002,-4.158133e-003
9.796768e+002,-4.145728e-003
9.816052e+002,-4.274918e-003
9.835337e+002,-4.257036e-003
9.854623e+002,-4.122393e-003
9.873907e+002,-3.931365e-003
9.893192e+002,-3.875344e-003
9.912477e+002,-3.906705e-003
9.931763e+002,-3.730629e-003
9.951047e+002,-3.623128e-003
9.970332e+002,-3.665678e-003
9.989617e+002,-3.561152e-003
1.000890e+003,-3.216705e-003
1.002819e+003,-2.896440e-003
1.004747e+003,-3.005964e-003
1.006676e+003,-3.132533e-003
1.008604e+003,-3.101017e-003
1.010533e+003,-2.841142e-003
1.012461e+003,-2.676982e-003
1.014390e+003,-2.463079e-003
1.016318e+003,-2.074563e-003
1.018247e+003,-1.826511e-003
1.020175e+003,-1.618362e-003
1.022104e+003,-1.455621e-003
1.024032e+003,-1.420880e-003
1.025961e+003,-1.226446e-003
1.027889e+003,-1.136500e-003
1.029818e+003,-9.034202e-004
1.031746e+003,-6.498354e-004
1.033675e+003,-4.063645e-004
1.035603e+003,-8.796197e-005
1.037532e+003,1.563877e-004
1.039460e+003,2.415149e-004
1.041389e+003,2.661810e-004
1.043317e+003,3.366729e-004
1.045246e+003,4.288999e-004
1.047174e+003,4.323493e-004
1.049103e+003,5.619191e-004
1.051031e+003,4.394471e-004
1.052960e+003,2.437361e-004
1.054888e+003,3.585257e-004
1.056817e+003,3.901628e-004
1.058745e+003,1.993801e-004
1.060674e+003,2.536820e-004
1.062602e+003,2.506319e-004
1.064531e+003,3.347828e-004
1.066459e+003,3.827342e-004
1.068388e+003,3.265261e-004
1.070316e+003,4.273411e-004
1.072245e+003,7.463224e-004
1.074173e+003,8.740271e-004
1.076102e+003,7.805438e-004
1.078030e+003,9.412307e-004
1.079959e+003,1.015452e-003
1.081887e+003,1.112541e-003
1.083816e+003,1.453302e-003
1.085744e+003,1.725233e-003
1.087673e+003,1.747022e-003
1.089601e+003,1.941415e-003
1.091530e+003,2.372904e-003
1.093458e+003,2.554145e-003
1.095387e+003,2.612576e-003
1.097315e+003,2.685750e-003
1.099244e+003,2.893839e-003
1.101172e+003,2.991214e-003
1.103101e+003,3.048736e-003
1.105029e+003,3.253227e-003
1.106958e+003,3.226488e-003
1.108886e+003,3.294924e-003
1.110815e+003,3.461320e-003
1.112743e+003,3.345608e-003
1.114672e+003,3.280268e-003
1.116600e+003,3.559926e-003
1.118529e+003,3.775019e-003
1.120457e+003,3.630086e-003
1.122386e+003,3.464560e-003
1.124314e+003,3.441849e-003
1.126243e+003,3.159363e-003
1.128171e+003,2.895506e-003
1.130100e+003,2.831935e-003
1.132028e+003,2.608176e-003
1.133957e+003,2.215516e-003
1.135885e+003,1.857751e-003
1.137814e+003,1.455530e-003
1.139742e+003,8.634362e-004
1.141671e+003,6.782862e-004
1.143599e+003,5.339518e-004
1.145528e+003,4.413678e-005
1.147456e+003,-4.404593e-004
1.149385e+003,-7.303556e-004
1.151313e+003,-1.112970e-003
1.153242e+003,-1.438548e-003
1.155170e+003,-1.494884e-003
1.157099e+003,-1.561217e-003
1.159027e+003,-1.911960e-003
1.160956e+003,-2.264529e-003
1.162884e+003,-2.403276e-003
1.164813e+003,-2.545865e-003
1.166741e+003,-2.582263e-003
1.168670e+003,-2.653007e-003
1.170598e+003,-2.756732e-003
1.172526e+003,-2.760024e-003
1.174455e+003,-2.751069e-003
1.176384e+003,-2.663150e-003
1.178312e+003,-2.636442e-003
1.180240e+003,-2.698353e-003
1.182169e+003,-2.796502e-003
1.184098e+003,-2.959992e-003
1.186026e+003,-3.075257e-003
1.187954e+003,-3.035874e-003
1.189883e+003,-3.118223e-003
1.191812e+003,-3.133026e-003
1.193740e+003,-2.946795e-003
1.195668e+003,-3.072691e-003
1.197597e+003,-3.274225e-003
1.199526e+003,-3.127861e-003
1.201454e+003,-2.884953e-003
1.203382e+003,-2.613586e-003
1.205311e+003,-2.528110e-003
1.207240e+003,-2.408417e-003
1.209168e+003,-2.313969e-003
1.211096e+003,-2.246565e-003
1.213025e+003,-2.079212e-003
1.214953e+003,-2.009067e-003
1.216882e+003,-2.048478e-003
1.218810e+003,-1.981791e-003
1.220739e+003,-1.909947e-003
1.222667e+003,-1.694181e-003
1.224596e+003,-1.538535e-003
1.226524e+003,-1.416487e-003
1.228453e+003,-1.270553e-003
1.230381e+003,-1.322352e-003
1.232310e+003,-1.185408e-003
1.234238e+003,-1.072945e-003
1.236167e+003,-1.133559e-003
1.238095e+003,-1.169447e-003
1.240024e+003,-1.103518e-003
1.241952e+003,-1.099915e-003
1.243881e+003,-1.406315e-003
1.245809e+003,-1.606346e-003
1.247738e+003,-1.583237e-003
1.249666e+003,-1.528993e-003
1.251595e+003,-1.699198e-003
1.253523e+003,-1.845945e-003
1.255452e+003,-1.741409e-003
1.257380e+003,-1.800972e-003
1.259309e+003,-1.837004e-003
1.261237e+003,-1.806549e-003
1.263166e+003,-1.652296e-003
1.265094e+003,-1.347457e-003
1.267023e+003,-1.125099e-003
1.268951e+003,-9.636938e-004
1.270880e+003,-6.760375e-004
1.272808e+003,-4.064307e-004
1.274737e+003,-1.796487e-004
1.276665e+003,1.294740e-004
1.278594e+003,4.460475e-004
1.280522e+003,6.943152e-004
1.282451e+003,9.514251e-004
1.284379e+003,1.329715e-003
1.286308e+003,1.616533e-003
1.288236e+003,2.114052e-003
1.290165e+003,2.624143e-003
1.292093e+003,2.964625e-003
1.294022e+003,3.251057e-003
1.295950e+003,3.549537e-003
1.297879e+003,3.844244e-003
1.299807e+003,3.986272e-003
1.301736e+003,4.033558e-003
1.303664e+003,3.947049e-003
1.305593e+003,3.798148e-003
1.307521e+003,3.838160e-003
1.309450e+003,3.832811e-003
1.311378e+003,3.541920e-003
1.313307e+003,3.179289e-003
1.315235e+003,2.995185e-003
1.317164e+003,2.905146e-003
1.319092e+003,2.403855e-003
1.321021e+003,1.842677e-003
1.322949e+003,1.557937e-003
1.324878e+003,1.334301e-003
1.326806e+003,1.034383e-003
1.328735e+003,8.499240e-004
1.330663e+003,8.359475e-004
1.332592e+003,8.002612e-004
1.334520e+003,6.526675e-004
1.336449e+003,6.544926e-004
1.338377e+003,8.739607e-004
1.340306e+003,8.901962e-004
1.342234e+003,6.184562e-004
1.344163e+003,3.764996e-004
1.346091e+003,3.168770e-004
1.348020e+003,4.551356e-004
1.349948e+003,3.943415e-004
1.351877e+003,2.472835e-004
1.353805e+003,3.019229e-004
1.355734e+003,2.216902e-004
1.357662e+003,8.599134e-005
1.359591e+003,1.443890e-004
1.361519e+003,2.006398e-004
1.363448e+003,4.241178e-006
1.365376e+003,-3.711083e-004
1.367305e+003,-5.764478e-004
1.369233e+003,-5.997095e-004
1.371162e+003,-5.926947e-004
1.373090e+003,-4.124885e-004
1.375019e+003,-4.768021e-004
1.376947e+003,-5.928932e-004
1.378876e+003,-6.036139e-004
1.380804e+003,-7.150070e-004
1.382733e+003,-7.748437e-004
1.384661e+003,-7.620766e-004
1.386590e+003,-6.002058e-004
1.388518e+003,-8.884745e-004
1.390447e+003,-1.435179e-003
1.392375e+003,-1.634504e-003
1.394304e+003,-1.521564e-003
1.396232e+003,-1.713786e-003
1.398161e+003,-1.739264e-003
1.400089e+003,-1.759427e-003
1.402018e+003,-1.945178e-003
1.403946e+003,-2.030208e-003
1.405875e+003,-2.159171e-003
1.407803e+003,-2.370423e-003
1.409732e+003,-2.423804e-003
1.411660e+003,-2.383538e-003
1.413589e+003,-2.334897e-003
1.415517e+003,-2.006989e-003
1.417446e+003,-1.265928e-003
1.419374e+003,-4.849440e-004
1.421303e+003,-3.004218e-004
1.423231e+003,3.233097e-004
1.425160e+003,1.040893e-003
1.427088e+003,1.462877e-003
1.429017e+003,1.936689e-003
1.430945e+003,2.214151e-003
1.432874e+003,2.470230e-003
1.434802e+003,3.184095e-003
1.436731e+003,3.915519e-003
1.438659e+003,3.773916e-003
1.440588e+003,3.959086e-003
1.442516e+003,4.486381e-003
1.444445e+003,5.003658e-003
1.446373e+003,5.745105e-003
1.448302e+003,6.293500e-003
1.450230e+003,6.528686e-003
1.452159e+003,7.045910e-003
1.454087e+003,7.933809e-003
1.456016e+003,9.423668e-003
1.457944e+003,9.776100e-003
1.459873e+003,9.090775e-003
1.461801e+003,8.936311e-003
1.463730e+003,9.315293e-003
1.465658e+003,9.339295e-003
1.467587e+003,8.878985e-003
1.469515e+003,8.935770e-003
1.471444e+003,9.383037e-003
1.473372e+003,9.251791e-003
1.475301e+003,8.502277e-003
1.477229e+003,7.653952e-003
1.479158e+003,6.900084e-003
1.481086e+003,6.501139e-003
1.483015e+003,5.890913e-003
1.484943e+003,5.391433e-003
1.486872e+003,5.263802e-003
1.488800e+003,5.192170e-003
1.490729e+003,4.675808e-003
1.492657e+003,3.729966e-003
1.494586e+003,3.352119e-003
1.496514e+003,3.261105e-003
1.498443e+003,2.718991e-003
1.500371e+003,1.957358e-003
1.502300e+003,1.503040e-003
1.504228e+003,1.874057e-003
1.506157e+003,2.734895e-003
1.508085e+003,2.007286e-003
1.510014e+003,9.580000e-004
1.511942e+003,5.919121e-004
1.513871e+003,3.939767e-004
1.515799e+003,6.658417e-004
1.517728e+003,9.147332e-004
1.519656e+003,1.274746e-003
1.521585e+003,1.712226e-003
1.523513e+003,1.346466e-003
1.525442e+003,1.322802e-003
1.527370e+003,1.175661e-003
1.529299e+003,1.151342e-003
1.531227e+003,1.508393e-003
1.533156e+003,2.274068e-003
1.535084e+003,2.357312e-003
1.537013e+003,2.621876e-003
1.538941e+003,3.895827e-003
1.540870e+003,4.560206e-003
1.542798e+003,4.411764e-003
1.544727e+003,4.291984e-003
1.546655e+003,4.126239e-003
1.548584e+003,4.400183e-003
1.550512e+003,4.845481e-003
1.552441e+003,5.313843e-003
1.554369e+003,5.992256e-003
1.556298e+003,6.867397e-003
1.558226e+003,8.627281e-003
1.560155e+003,8.796780e-003
1.562083e+003,8.020643e-003
1.564012e+003,8.162288e-003
1.565940e+003,8.223200e-003
1.567869e+003,8.565264e-003
1.569797e+003,9.156452e-003
1.571726e+003,8.702928e-003
1.573654e+003,8.605515e-003
1.575583e+003,9.292816e-003
1.577511e+003,9.027474e-003
1.579440e+003,8.432711e-003
1.581368e+003,8.332114e-003
1.583297e+003,8.134807e-003
1.585225e+003,7.963776e-003
1.587154e+003,7.664102e-003
1.589082e+003,7.161603e-003
1.591010e+003,6.648850e-003
1.592939e+003,6.277599e-003
1.594868e+003,5.973544e-003
1.596796e+003,5.519873e-003
1.598724e+003,4.922485e-003
1.600653e+003,4.428233e-003
1.602582e+003,4.057270e-003
1.604510e+003,3.480692e-003
1.606438e+003,2.917222e-003
1.608367e+003,2.474262e-003
1.610296e+003,1.965213e-003
1.612224e+003,1.446653e-003
1.614152e+003,1.332938e-003
1.616081e+003,1.690471e-003
1.618010e+003,1.224769e-003
1.619938e+003,5.629475e-004
1.621866e+003,6.616936e-004
1.623795e+003,5.524969e-004
1.625724e+003,1.167801e-004
1.627652e+003,-1.348015e-004
1.629580e+003,-4.423129e-004
1.631509e+003,-6.623411e-004
1.633438e+003,-3.252545e-004
1.635366e+003,1.582770e-004
1.637294e+003,-5.564609e-004
1.639223e+003,-1.315911e-003
1.641151e+003,-1.559533e-003
1.643080e+003,-1.788598e-003
1.645008e+003,-1.551279e-003
1.646937e+003,-1.410047e-003
1.648865e+003,-2.115220e-003
1.650794e+003,-1.950522e-003
1.652722e+003,-8.043125e-004
1.654651e+003,-1.857426e-003
1.656579e+003,-2.980165e-003
1.658508e+003,-3.279618e-003
1.660436e+003,-3.247193e-003
1.662365e+003,-3.131249e-003
1.664293e+003,-3.453412e-003
1.666222e+003,-3.651188e-003
1.668150e+003,-3.266300e-003
1.670079e+003,-3.273337e-003
1.672007e+003,-3.805587e-003
1.673936e+003,-3.800825e-003
1.675864e+003,-4.093575e-003
1.677793e+003,-4.964420e-003
1.679721e+003,-5.265880e-003
1.681650e+003,-5.158399e-003
1.683578e+003,-4.487209e-003
1.685507e+003,-5.065006e-003
1.687435e+003,-6.031753e-003
1.689364e+003,-6.413710e-003
1.691292e+003,-6.692861e-003
1.693221e+003,-6.630310e-003
1.695149e+003,-6.023486e-003
1.697078e+003,-6.098115e-003
1.699006e+003,-5.806746e-003
1.700935e+003,-5.787129e-003
1.702863e+003,-6.757459e-003
1.704792e+003,-6.817904e-003
1.706720e+003,-7.116027e-003
1.708649e+003,-7.514781e-003
1.710577e+003,-7.710392e-003
1.712506e+003,-7.676765e-003
1.714434e+003,-7.334982e-003
1.716363e+003,-6.914149e-003
1.718291e+003,-7.097709e-003
1.720220e+003,-7.862085e-003
1.722148e+003,-8.143917e-003
1.724077e+003,-8.223190e-003
1.726005e+003,-8.296077e-003
1.727934e+003,-8.266657e-003
1.729862e+003,-8.180499e-003
1.731791e+003,-7.777018e-003
1.733719e+003,-7.154651e-003
1.735648e+003,-7.797099e-003
1.737576e+003,-8.155916e-003
1.739505e+003,-7.911217e-003
1.741433e+003,-8.153997e-003
1.743362e+003,-8.160045e-003
1.745290e+003,-8.102096e-003
1.747219e+003,-7.904255e-003
1.749147e+003,-7.591890e-003
1.751076e+003,-7.418572e-003
1.753004e+003,-7.752934e-003
1.754933e+003,-7.836834e-003
1.756861e+003,-7.657200e-003
1.758790e+003,-7.804649e-003
1.760718e+003,-7.667129e-003
1.762647e+003,-7.640922e-003
1.764575e+003,-7.935846e-003
1.766504e+003,-7.776270e-003
1.768432e+003,-7.573526e-003
1.770361e+003,-7.401275e-003
1.772289e+003,-7.150871e-003
1.774218e+003,-7.494102e-003
1.776146e+003,-7.796285e-003
1.778075e+003,-7.923776e-003
1.780003e+003,-7.887661e-003
1.781932e+003,-7.910046e-003
1.783860e+003,-7.917302e-003
1.785789e+003,-7.915154e-003
1.787717e+003,-7.936561e-003
1.789646e+003,-7.834588e-003
1.791574e+003,-7.462901e-003
1.793503e+003,-7.462478e-003
1.795431e+003,-7.760908e-003
1.797360e+003,-7.795699e-003
1.799288e+003,-7.716869e-003
1.801217e+003,-7.747563e-003
1.803145e+003,-7.955171e-003
1.805074e+003,-8.050384e-003
1.807002e+003,-7.951071e-003
1.808931e+003,-7.971697e-003
1.810859e+003,-8.053311e-003
1.812788e+003,-8.146908e-003
1.814716e+003,-8.186709e-003
1.816645e+003,-8.194480e-003
1.818573e+003,-8.246955e-003
1.820502e+003,-8.216167e-003
1.822430e+003,-8.106064e-003
1.824359e+003,-7.939620e-003
1.826287e+003,-7.984743e-003
1.828216e+003,-7.915024e-003
1.830144e+003,-7.821409e-003
1.832073e+003,-8.211387e-003
1.834001e+003,-8.281709e-003
1.835930e+003,-8.220426e-003
1.837858e+003,-8.338854e-003
1.839787e+003,-8.410486e-003
1.841715e+003,-8.242371e-003
1.843644e+003,-7.802859e-003
1.845572e+003,-7.943329e-003
1.847501e+003,-8.265291e-003
1.849429e+003,-8.313695e-003
1.851358e+003,-8.268185e-003
1.853286e+003,-8.193863e-003
1.855215e+003,-8.181117e-003
1.857143e+003,-8.143559e-003
1.859072e+003,-8.102714e-003
1.861000e+003,-8.126357e-003
1.862929e+003,-8.195683e-003
1.864857e+003,-8.091982e-003
1.866786e+003,-7.896055e-003
1.868714e+003,-7.713452e-003
1.870643e+003,-7.881218e-003
1.872571e+003,-8.106877e-003
1.874500e+003,-8.113706e-003
1.876428e+003,-8.063328e-003
1.878357e+003,-8.006960e-003
1.880285e+003,-7.991215e-003
1.882214e+003,-8.007057e-003
1.884142e+003,-7.970787e-003
1.886071e+003,-8.010375e-003
1.887999e+003,-7.928428e-003
1.889928e+003,-7.867877e-003
1.891856e+003,-7.988255e-003
1.893785e+003,-7.891337e-003
1.895713e+003,-7.850891e-003
1.897642e+003,-7.946583e-003
1.899570e+003,-7.935846e-003
1.901499e+003,-7.872400e-003
1.903427e+003,-7.886554e-003
1.905356e+003,-7.847637e-003
1.907284e+003,-7.798694e-003
1.909213e+003,-7.840999e-003
1.911141e+003,-7.859612e-003
1.913070e+003,-7.876728e-003
1.914998e+003,-7.802533e-003
1.916927e+003,-7.616407e-003
1.918855e+003,-7.591206e-003
1.920784e+003,-7.710912e-003
1.922712e+003,-7.776563e-003
1.924641e+003,-7.850599e-003
1.926569e+003,-7.777539e-003
1.928498e+003,-7.825835e-003
1.930426e+003,-7.905198e-003
1.932355e+003,-7.959075e-003
1.934283e+003,-8.050742e-003
1.936212e+003,-8.083851e-003
1.938140e+003,-8.070159e-003
1.940069e+003,-7.962653e-003
1.941997e+003,-7.791827e-003
1.943926e+003,-7.846628e-003
1.945854e+003,-7.996388e-003
1.947783e+003,-8.038934e-003
1.949711e+003,-8.038317e-003
1.951640e+003,-8.081835e-003
1.953568e+003,-8.150388e-003
1.955497e+003,-8.214996e-003
1.957425e+003,-8.240714e-003
1.959354e+003,-8.116438e-003
1.961282e+003,-8.052562e-003
1.963211e+003,-8.078973e-003
1.965139e+003,-8.088535e-003
1.967068e+003,-8.117803e-003
1.968996e+003,-8.229335e-003
1.970925e+003,-8.174515e-003
1.972853e+003,-8.083623e-003
1.974782e+003,-8.073801e-003
1.976710e+003,-8.037861e-003
1.978639e+003,-7.948014e-003
1.980567e+003,-7.989785e-003
1.982496e+003,-8.048595e-003
1.984424e+003,-7.974690e-003
1.986353e+003,-7.860556e-003
1.988281e+003,-7.809368e-003
1.990210e+003,-7.816169e-003
1.992138e+003,-7.738124e-003
1.994067e+003,-7.730345e-003
1.995995e+003,-7.787433e-003
1.997924e+003,-7.832441e-003
1.999852e+003,-7.748344e-003
2.001781e+003,-7.722696e-003
2.003709e+003,-7.667520e-003
2.005638e+003,-7.590294e-003
2.007566e+003,-7.551840e-003
2.009495e+003,-7.526537e-003
2.011423e+003,-7.552295e-003
2.013352e+003,-7.527807e-003
2.015280e+003,-7.494427e-003
2.017208e+003,-7.525332e-003
2.019137e+003,-7.549137e-003
2.021066e+003,-7.553175e-003
2.022994e+003,-7.587755e-003
2.024922e+003,-7.617123e-003
2.026851e+003,-7.547769e-003
2.028780e+003,-7.487881e-003
2.030708e+003,-7.511069e-003
2.032636e+003,-7.458602e-003
2.034565e+003,-7.396943e-003
2.036494e+003,-7.447333e-003
2.038422e+003,-7.456387e-003
2.040350e+003,-7.460393e-003
2.042279e+003,-7.489607e-003
2.044208e+003,-7.532301e-003
2.046136e+003,-7.560892e-003
2.048064e+003,-7.499280e-003
2.049993e+003,-7.448831e-003
2.051921e+003,-7.409712e-003
2.053850e+003,-7.316672e-003
2.055778e+003,-7.315271e-003
2.057707e+003,-7.365474e-003
2.059635e+003,-7.371078e-003
2.061564e+003,-7.347362e-003
2.063492e+003,-7.364009e-003
2.065421e+003,-7.329378e-003
2.067349e+003,-7.257860e-003
2.069278e+003,-7.257208e-003
2.071206e+003,-7.218203e-003
2.073135e+003,-7.155401e-003
2.075063e+003,-7.054874e-003
2.076992e+003,-6.994136e-003
2.078920e+003,-7.023446e-003
2.080849e+003,-7.037432e-003
2.082777e+003,-7.019925e-003
2.084706e+003,-7.000656e-003
2.086634e+003,-7.035966e-003
2.088563e+003,-7.033357e-003
2.090491e+003,-6.997755e-003
2.092420e+003,-6.913236e-003
2.094348e+003,-6.802964e-003
2.096277e+003,-6.839594e-003
2.098205e+003,-6.815556e-003
2.100134e+003,-6.747411e-003
2.102062e+003,-6.656774e-003
2.103991e+003,-6.609491e-003
2.105919e+003,-6.497804e-003
2.107848e+003,-6.388962e-003
2.109776e+003,-6.428173e-003
2.111705e+003,-6.540955e-003
2.113633e+003,-6.434408e-003
2.115562e+003,-6.224439e-003
2.117490e+003,-6.277513e-003
2.119419e+003,-6.256056e-003
2.121347e+003,-6.179689e-003
2.123276e+003,-6.194454e-003
2.125204e+003,-6.167864e-003
2.127133e+003,-6.116705e-003
2.129061e+003,-5.970119e-003
2.130990e+003,-5.892755e-003
2.132918e+003,-6.047013e-003
2.134847e+003,-6.130851e-003
2.136775e+003,-5.995807e-003
2.138704e+003,-5.908445e-003
2.140632e+003,-5.904490e-003
2.142561e+003,-5.922827e-003
2.144489e+003,-5.934822e-003
2.146418e+003,-5.927991e-003
2.148346e+003,-5.873241e-003
2.150275e+003,-5.852613e-003
2.152203e+003,-5.899195e-003
2.154132e+003,-5.893605e-003
2.156060e+003,-5.884780e-003
2.157989e+003,-5.818418e-003
2.159917e+003,-5.775326e-003
2.161846e+003,-5.889748e-003
2.163774e+003,-5.959400e-003
2.165703e+003,-5.895501e-003
2.167631e+003,-5.812794e-003
2.169560e+003,-5.796218e-003
2.171488e+003,-5.760089e-003
2.173417e+003,-5.777092e-003
2.175345e+003,-5.802071e-003
2.177274e+003,-5.782977e-003
2.179202e+003,-5.740111e-003
2.181131e+003,-5.798442e-003
2.183059e+003,-5.845814e-003
2.184988e+003,-5.779086e-003
2.186916e+003,-5.710419e-003
2.188845e+003,-5.747925e-003
2.190773e+003,-5.808380e-003
2.192702e+003,-5.804981e-003
2.194630e+003,-5.780786e-003
2.196559e+003,-5.717057e-003
2.198487e+003,-5.707410e-003
2.200416e+003,-5.770716e-003
2.202344e+003,-5.753942e-003
2.204273e+003,-5.687789e-003
2.206201e+003,-5.676507e-003
2.208130e+003,-5.705612e-003
2.210058e+003,-5.737658e-003
2.211987e+003,-5.719477e-003
2.213915e+003,-5.687756e-003
2.215844e+003,-5.619304e-003
2.217772e+003,-5.603277e-003
2.219701e+003,-5.669802e-003
2.221629e+003,-5.696684e-003
2.223558e+003,-5.679221e-003
2.225486e+003,-5.619402e-003
2.227415e+003,-5.615804e-003
2.229343e+003,-5.625093e-003
2.231272e+003,-5.669704e-003
2.233200e+003,-5.640564e-003
2.235129e+003,-5.568309e-003
2.237057e+003,-5.665976e-003
2.238986e+003,-5.739031e-003
2.240914e+003,-5.746454e-003
2.242843e+003,-5.724938e-003
2.244771e+003,-5.664079e-003
2.246700e+003,-5.626892e-003
2.248628e+003,-5.681804e-003
2.250557e+003,-5.876248e-003
2.252485e+003,-5.823125e-003
2.254414e+003,-5.694035e-003
2.256342e+003,-5.692041e-003
2.258271e+003,-5.754727e-003
2.260199e+003,-5.792785e-003
2.262128e+003,-5.737854e-003
2.264056e+003,-5.768656e-003
2.265985e+003,-5.859903e-003
2.267913e+003,-5.901025e-003
2.269842e+003,-5.885139e-003
2.271770e+003,-5.894651e-003
2.273699e+003,-5.942764e-003
2.275627e+003,-5.990022e-003
2.277556e+003,-5.999696e-003
2.279484e+003,-6.040935e-003
2.281413e+003,-6.017440e-003
2.283341e+003,-6.006232e-003
2.285270e+003,-5.991525e-003
2.287198e+003,-6.010414e-003
2.289127e+003,-5.976721e-003
2.291055e+003,-5.917270e-003
2.292984e+003,-5.864545e-003
2.294912e+003,-5.802528e-003
2.296841e+003,-5.639746e-003
2.298769e+003,-5.444705e-003
2.300698e+003,-5.240641e-003
2.302626e+003,-4.971168e-003
2.304555e+003,-4.759932e-003
2.306483e+003,-4.462056e-003
2.308412e+003,-4.180679e-003
2.310340e+003,-3.716503e-003
2.312269e+003,-3.019882e-003
2.314197e+003,-2.346695e-003
2.316125e+003,-1.621663e-003
2.318054e+003,-8.597389e-004
2.319983e+003,-8.014384e-005
2.321911e+003,7.772908e-004
2.323840e+003,1.598342e-003
2.325768e+003,2.254516e-003
2.327697e+003,2.897775e-003
2.329625e+003,3.724653e-003
2.331553e+003,4.207698e-003
2.333482e+003,4.349544e-003
2.335411e+003,4.550396e-003
2.337339e+003,4.878385e-003
2.339268e+003,5.005870e-003
2.341196e+003,4.729801e-003
2.343125e+003,4.077270e-003
2.345053e+003,2.678915e-003
2.346981e+003,2.689660e-004
2.348910e+003,-1.137128e-003
2.350839e+003,5.097017e-004
2.352767e+003,3.544593e-003
2.354696e+003,5.908211e-003
2.356624e+003,7.534285e-003
2.358552e+003,8.432981e-003
2.360481e+003,8.672033e-003
2.362409e+003,8.660269e-003
2.364338e+003,8.285304e-003
2.366267e+003,7.363928e-003
2.368195e+003,6.103602e-003
2.370124e+003,4.587597e-003
2.372052e+003,2.920057e-003
2.373980e+003,1.163103e-003
2.375909e+003,-6.505963e-004
2.377838e+003,-2.212612e-003
2.379766e+003,-3.402294e-003
2.381695e+003,-4.221665e-003
2.383623e+003,-4.593972e-003
2.385552e+003,-4.808663e-003
2.387480e+003,-4.947418e-003
2.389408e+003,-4.927697e-003
2.391337e+003,-4.882158e-003
2.393266e+003,-4.843298e-003
2.395194e+003,-4.858240e-003
2.397123e+003,-4.866071e-003
2.399051e+003,-4.744987e-003
2.400979e+003,-4.647966e-003
2.402908e+003,-4.649932e-003
2.404836e+003,-4.611511e-003
2.406765e+003,-4.620527e-003
2.408694e+003,-4.706608e-003
2.410622e+003,-4.639934e-003
2.412551e+003,-4.535774e-003
2.414479e+003,-4.427554e-003
2.416407e+003,-4.376222e-003
2.418336e+003,-4.397805e-003
2.420264e+003,-4.441460e-003
2.422193e+003,-4.439000e-003
2.424122e+003,-4.343682e-003
2.426050e+003,-4.265403e-003
2.427979e+003,-4.261597e-003
2.429907e+003,-4.207293e-003
2.431835e+003,-4.116452e-003
2.433764e+003,-4.008719e-003
2.435692e+003,-3.894161e-003
2.437621e+003,-3.873275e-003
2.439550e+003,-3.920037e-003
2.441478e+003,-3.891567e-003
2.443406e+003,-3.800431e-003
2.445335e+003,-3.773267e-003
2.447263e+003,-3.724551e-003
2.449192e+003,-3.664430e-003
2.451121e+003,-3.709965e-003
2.453049e+003,-3.655755e-003
2.454978e+003,-3.530424e-003
2.456906e+003,-3.401768e-003
2.458834e+003,-3.335091e-003
2.460763e+003,-3.347980e-003
2.462691e+003,-3.452426e-003
2.464620e+003,-3.427410e-003
2.466549e+003,-3.232492e-003
2.468477e+003,-3.152270e-003
2.470406e+003,-3.157927e-003
2.472334e+003,-3.174835e-003
2.474262e+003,-3.195951e-003
2.476191e+003,-3.213021e-003
2.478119e+003,-3.131612e-003
2.480048e+003,-3.027286e-003
2.481977e+003,-2.946532e-003
2.483905e+003,-2.953509e-003
2.485833e+003,-3.013532e-003
2.487762e+003,-3.010998e-003
2.489690e+003,-2.981218e-003
2.491619e+003,-2.950942e-003
2.493547e+003,-2.897757e-003
2.495476e+003,-2.741389e-003
2.497405e+003,-2.700658e-003
2.499333e+003,-2.805490e-003
2.501261e+003,-2.869318e-003
2.503190e+003,-2.802527e-003
2.505118e+003,-2.695751e-003
2.507047e+003,-2.690977e-003
2.508975e+003,-2.700098e-003
2.510904e+003,-2.732103e-003
2.512833e+003,-2.692590e-003
2.514761e+003,-2.674841e-003
2.516689e+003,-2.736153e-003
2.518618e+003,-2.657289e-003
2.520546e+003,-2.549094e-003
2.522475e+003,-2.531866e-003
2.524403e+003,-2.571394e-003
2.526332e+003,-2.578541e-003
2.528260e+003,-2.517141e-003
2.530189e+003,-2.519051e-003
2.532117e+003,-2.587500e-003
2.534046e+003,-2.538454e-003
2.535974e+003,-2.465714e-003
2.537903e+003,-2.458861e-003
2.539831e+003,-2.397345e-003
2.541760e+003,-2.354242e-003
2.543688e+003,-2.335523e-003
2.545617e+003,-2.273495e-003
2.547545e+003,-2.224743e-003
2.549474e+003,-2.256882e-003
2.551402e+003,-2.224018e-003
2.553331e+003,-2.194645e-003
2.555259e+003,-2.133355e-003
2.557188e+003,-2.088841e-003
2.559116e+003,-2.140081e-003
2.561045e+003,-2.088577e-003
2.562973e+003,-1.989377e-003
2.564902e+003,-1.921032e-003
2.566830e+003,-1.858713e-003
2.568759e+003,-1.914500e-003
2.570687e+003,-1.969026e-003
2.572616e+003,-1.854094e-003
2.574544e+003,-1.719000e-003
2.576473e+003,-1.749362e-003
2.578401e+003,-1.764179e-003
2.580330e+003,-1.806186e-003
2.582258e+003,-1.900678e-003
2.584187e+003,-1.873889e-003
2.586115e+003,-1.778303e-003
2.588044e+003,-1.759691e-003
2.589972e+003,-1.761110e-003
2.591901e+003,-1.714677e-003
2.593829e+003,-1.726459e-003
2.595758e+003,-1.817009e-003
2.597686e+003,-1.814072e-003
2.599615e+003,-1.764212e-003
2.601543e+003,-1.683256e-003
2.603472e+003,-1.670252e-003
2.605400e+003,-1.725403e-003
2.607329e+003,-1.713060e-003
2.609257e+003,-1.635197e-003
2.611186e+003,-1.580200e-003
2.613114e+003,-1.536190e-003
2.615043e+003,-1.491054e-003
2.616971e+003,-1.537445e-003
2.618900e+003,-1.561514e-003
2.620828e+003,-1.503271e-003
2.622757e+003,-1.396539e-003
2.624685e+003,-1.439605e-003
2.626614e+003,-1.475336e-003
2.628542e+003,-1.409981e-003
2.630471e+003,-1.407867e-003
2.632399e+003,-1.409221e-003
2.634328e+003,-1.331502e-003
2.636256e+003,-1.295793e-003
2.638185e+003,-1.191025e-003
2.640113e+003,-1.139243e-003
2.642042e+003,-1.198063e-003
2.643970e+003,-1.119381e-003
2.645899e+003,-1.051494e-003
2.647827e+003,-1.031364e-003
2.649756e+003,-8.887390e-004
2.651684e+003,-8.421791e-004
2.653613e+003,-9.566188e-004
2.655541e+003,-9.514943e-004
2.657470e+003,-9.300699e-004
2.659398e+003,-8.620206e-004
2.661327e+003,-7.035944e-004
2.663255e+003,-5.687708e-004
2.665184e+003,-5.891873e-004
2.667112e+003,-5.766132e-004
2.669041e+003,-4.750479e-004
2.670969e+003,-4.102044e-004
2.672898e+003,-4.544275e-004
2.674826e+003,-4.888495e-004
2.676755e+003,-3.841187e-004
2.678683e+003,-2.957862e-004
2.680612e+003,-2.428377e-004
2.682540e+003,-1.339071e-004
2.684469e+003,-5.238176e-005
2.686397e+003,3.157789e-005
2.688326e+003,9.450856e-005
2.690254e+003,2.052476e-004
2.692183e+003,1.549956e-004
2.694111e+003,6.547780e-005
2.696040e+003,1.549293e-004
2.697968e+003,2.527537e-004
2.699897e+003,3.539826e-004
2.701825e+003,3.605486e-004
2.703754e+003,4.106586e-004
2.705682e+003,5.616868e-004
2.707611e+003,6.149058e-004
2.709539e+003,5.998419e-004
2.711468e+003,6.582092e-004
2.713396e+003,7.639804e-004
2.715325e+003,8.205440e-004
2.717253e+003,7.628519e-004
2.719182e+003,7.436008e-004
2.721110e+003,7.721790e-004
2.723039e+003,8.682834e-004
2.724967e+003,9.221045e-004
2.726896e+003,8.980652e-004
2.728824e+003,9.894152e-004
2.730753e+003,1.117656e-003
2.732681e+003,1.141509e-003
2.734610e+003,1.176725e-003
2.736538e+003,1.210448e-003
2.738467e+003,1.363915e-003
2.740395e+003,1.430630e-003
2.742324e+003,1.449546e-003
2.744252e+003,1.563457e-003
2.746181e+003,1.685947e-003
2.748109e+003,1.716850e-003
2.750038e+003,1.832928e-003
2.751966e+003,2.015109e-003
2.753895e+003,2.095141e-003
2.755823e+003,2.164765e-003
2.757752e+003,2.285260e-003
2.759680e+003,2.374903e-003
2.761609e+003,2.553345e-003
2.763537e+003,2.868322e-003
2.765466e+003,3.091082e-003
2.767394e+003,3.283506e-003
2.769323e+003,3.570616e-003
2.771251e+003,3.950393e-003
2.773180e+003,4.303294e-003
2.775108e+003,4.581971e-003
2.777037e+003,5.014250e-003
2.778965e+003,5.517188e-003
2.780894e+003,6.052830e-003
2.782822e+003,6.703191e-003
2.784750e+003,7.324096e-003
2.786679e+003,7.888222e-003
2.788608e+003,8.368796e-003
2.790536e+003,8.871951e-003
2.792465e+003,9.538505e-003
2.794393e+003,1.025226e-002
2.796322e+003,1.086970e-002
2.798250e+003,1.143240e-002
2.800178e+003,1.197157e-002
2.802107e+003,1.252516e-002
2.804036e+003,1.305057e-002
2.805964e+003,1.340606e-002
2.807893e+003,1.377731e-002
2.809821e+003,1.401867e-002
2.811750e+003,1.409382e-002
2.813678e+003,1.413921e-002
2.815606e+003,1.422918e-002
2.817535e+003,1.415287e-002
2.819464e+003,1.407096e-002
2.821392e+003,1.400857e-002
2.823321e+003,1.385249e-002
2.825249e+003,1.354367e-002
2.827177e+003,1.321921e-002
2.829106e+003,1.282702e-002
2.831034e+003,1.237558e-002
2.832963e+003,1.210041e-002
2.834892e+003,1.178163e-002
2.836820e+003,1.120817e-002
2.838749e+003,1.067130e-002
2.840677e+003,1.017183e-002
2.842605e+003,9.843238e-003
2.844534e+003,9.393669e-003
2.846462e+003,8.747147e-003
2.848391e+003,8.381734e-003
2.850320e+003,8.120965e-003
2.852248e+003,7.798817e-003
2.854177e+003,7.525688e-003
2.856105e+003,7.330229e-003
2.858033e+003,7.147118e-003
2.859962e+003,7.018027e-003
2.861890e+003,6.888840e-003
2.863819e+003,6.759119e-003
2.865748e+003,6.632263e-003
2.867676e+003,6.557344e-003
2.869604e+003,6.622002e-003
2.871533e+003,6.721058e-003
2.873461e+003,6.819902e-003
2.875390e+003,6.793649e-003
2.877319e+003,6.896078e-003
2.879247e+003,7.182892e-003
2.881176e+003,7.352268e-003
2.883104e+003,7.365242e-003
2.885032e+003,7.349437e-003
2.886961e+003,7.283290e-003
2.888889e+003,7.209708e-003
2.890818e+003,7.140011e-003
2.892747e+003,7.170192e-003
2.894675e+003,7.098516e-003
2.896604e+003,7.069114e-003
2.898532e+003,7.089624e-003
2.900460e+003,7.079251e-003
2.902389e+003,7.015064e-003
2.904317e+003,6.964085e-003
2.906246e+003,7.020014e-003
2.908175e+003,7.020822e-003
2.910103e+003,7.038737e-003
2.912031e+003,6.942840e-003
2.913960e+003,6.822225e-003
2.915888e+003,6.860967e-003
2.917817e+003,7.042980e-003
2.919745e+003,7.277292e-003
2.921674e+003,7.438177e-003
2.923603e+003,7.656110e-003
2.925531e+003,7.739347e-003
2.927459e+003,7.771121e-003
2.929388e+003,7.923753e-003
2.931316e+003,8.071510e-003
2.933245e+003,8.116070e-003
2.935173e+003,8.146488e-003
2.937102e+003,8.109960e-003
2.939031e+003,8.030161e-003
2.940959e+003,7.794870e-003
2.942887e+003,7.629638e-003
2.944816e+003,7.641373e-003
2.946744e+003,7.552288e-003
2.948673e+003,7.288479e-003
2.950601e+003,6.772783e-003
2.952530e+003,6.306914e-003
2.954458e+003,5.852693e-003
2.956387e+003,5.345542e-003
2.958315e+003,4.907438e-003
2.960244e+003,4.375014e-003
2.962172e+003,3.850695e-003
2.964101e+003,3.415933e-003
2.966029e+003,3.011700e-003
2.967958e+003,2.567344e-003
2.969886e+003,2.110856e-003
2.971815e+003,1.764621e-003
2.973743e+003,1.453036e-003
2.975672e+003,1.033188e-003
2.977600e+003,5.820911e-004
2.979529e+003,4.063802e-004
2.981457e+003,2.533173e-004
2.983386e+003,-5.874268e-005
2.985314e+003,-2.893625e-004
2.987243e+003,-5.051658e-004
2.989171e+003,-6.584042e-004
2.991100e+003,-9.097686e-004
2.993028e+003,-1.092776e-003
2.994957e+003,-1.112705e-003
2.996885e+003,-1.148992e-003
2.998814e+003,-1.319049e-003
3.000742e+003,-1.491384e-003
3.002671e+003,-1.514266e-003
3.004599e+003,-1.547383e-003
3.006528e+003,-1.528861e-003
3.008456e+003,-1.573597e-003
3.010385e+003,-1.630741e-003
3.012313e+003,-1.732135e-003
3.014242e+003,-1.802127e-003
3.016170e+003,-1.858317e-003
3.018099e+003,-1.864817e-003
3.020027e+003,-1.893453e-003
3.021956e+003,-1.895333e-003
3.023884e+003,-1.981956e-003
3.025813e+003,-2.022688e-003
3.027741e+003,-2.096096e-003
3.029670e+003,-2.186865e-003
3.031598e+003,-2.114330e-003
3.033527e+003,-2.111956e-003
3.035455e+003,-2.167413e-003
3.037384e+003,-2.109450e-003
3.039312e+003,-2.118550e-003
3.041241e+003,-2.352397e-003
3.043169e+003,-2.564707e-003
3.045098e+003,-2.615331e-003
3.047026e+003,-2.584766e-003
3.048955e+003,-2.564378e-003
3.050883e+003,-2.578640e-003
3.052812e+003,-2.605253e-003
3.054740e+003,-2.731116e-003
3.056669e+003,-2.791959e-003
3.058597e+003,-2.849832e-003
3.060526e+003,-3.007707e-003
3.062454e+003,-2.967561e-003
3.064383e+003,-2.965027e-003
3.066311e+003,-3.003792e-003
3.068240e+003,-2.899106e-003
3.070168e+003,-2.980560e-003
3.072097e+003,-3.212495e-003
3.074025e+003,-3.313981e-003
3.075954e+003,-3.351433e-003
3.077882e+003,-3.371423e-003
3.079811e+003,-3.392727e-003
3.081739e+003,-3.489931e-003
3.083668e+003,-3.614585e-003
3.085596e+003,-3.684208e-003
3.087525e+003,-3.679576e-003
3.089453e+003,-3.637487e-003
3.091382e+003,-3.609163e-003
3.093310e+003,-3.537687e-003
3.095239e+003,-3.568382e-003
3.097167e+003,-3.651451e-003
3.099096e+003,-3.586620e-003
3.101024e+003,-3.638210e-003
3.102953e+003,-3.785223e-003
3.104881e+003,-3.814521e-003
3.106810e+003,-3.766139e-003
3.108738e+003,-3.816886e-003
3.110667e+003,-3.827560e-003
3.112595e+003,-3.811926e-003
3.114524e+003,-3.850353e-003
3.116452e+003,-3.874064e-003
3.118381e+003,-3.768799e-003
3.120309e+003,-3.809824e-003
3.122238e+003,-3.884507e-003
3.124166e+003,-3.815047e-003
3.126095e+003,-3.764858e-003
3.128023e+003,-3.811861e-003
3.129952e+003,-3.973130e-003
3.131880e+003,-4.069351e-003
3.133809e+003,-3.964200e-003
3.135737e+003,-3.978416e-003
3.137666e+003,-3.994273e-003
3.139594e+003,-4.007504e-003
3.141523e+003,-4.104013e-003
3.143451e+003,-4.033964e-003
3.145380e+003,-4.089111e-003
3.147308e+003,-4.308875e-003
3.149237e+003,-4.250310e-003
3.151165e+003,-4.053036e-003
3.153094e+003,-4.029105e-003
3.155022e+003,-4.092229e-003
3.156951e+003,-4.099253e-003
3.158879e+003,-4.027201e-003
3.160808e+003,-3.980517e-003
3.162736e+003,-3.965447e-003
3.164665e+003,-4.022901e-003
3.166593e+003,-4.131419e-003
3.168522e+003,-4.204897e-003
3.170450e+003,-4.106967e-003
3.172379e+003,-4.018666e-003
3.174307e+003,-4.098860e-003
3.176236e+003,-4.044009e-003
3.178164e+003,-3.982815e-003
3.180093e+003,-4.017714e-003
3.182021e+003,-4.088323e-003
3.183950e+003,-4.095249e-003
3.185878e+003,-4.100533e-003
3.187807e+003,-3.918592e-003
3.189735e+003,-3.855673e-003
3.191664e+003,-4.072502e-003
3.193592e+003,-4.177824e-003
3.195521e+003,-4.127578e-003
3.197449e+003,-4.048933e-003
3.199378e+003,-4.028646e-003
3.201306e+003,-4.070368e-003
3.203235e+003,-3.998738e-003
3.205163e+003,-4.046996e-003
3.207092e+003,-4.166797e-003
3.209020e+003,-3.935535e-003
3.210948e+003,-3.711608e-003
3.212877e+003,-3.715484e-003
3.214806e+003,-3.838037e-003
3.216734e+003,-3.884375e-003
3.218663e+003,-3.680660e-003
3.220591e+003,-3.592995e-003
3.222520e+003,-3.637027e-003
3.224448e+003,-3.742422e-003
3.226376e+003,-3.736049e-003
3.228305e+003,-3.494796e-003
3.230234e+003,-3.256894e-003
3.232162e+003,-3.239826e-003
3.234091e+003,-3.199701e-003
3.236019e+003,-3.181249e-003
3.237948e+003,-3.281394e-003
3.239876e+003,-3.183683e-003
3.241804e+003,-2.859345e-003
3.243733e+003,-2.740072e-003
3.245662e+003,-2.829225e-003
3.247590e+003,-2.697628e-003
3.249519e+003,-2.586216e-003
3.251447e+003,-2.578245e-003
3.253375e+003,-2.547348e-003
3.255304e+003,-2.329064e-003
3.257232e+003,-2.190788e-003
3.259161e+003,-2.199689e-003
3.261090e+003,-2.184821e-003
3.263018e+003,-2.197546e-003
3.264947e+003,-2.150302e-003
3.266875e+003,-2.129860e-003
3.268803e+003,-1.952798e-003
3.270732e+003,-1.784276e-003
3.272660e+003,-1.888009e-003
3.274589e+003,-1.756160e-003
3.276518e+003,-1.676358e-003
3.278446e+003,-1.893717e-003
3.280375e+003,-1.895333e-003
3.282303e+003,-1.874912e-003
3.284231e+003,-1.806285e-003
3.286160e+003,-1.822024e-003
3.288088e+003,-1.943463e-003
3.290017e+003,-2.118781e-003
3.291946e+003,-2.120529e-003
3.293874e+003,-2.042805e-003
3.295802e+003,-2.201766e-003
3.297731e+003,-2.294359e-003
3.299659e+003,-2.399190e-003
3.301588e+003,-2.509794e-003
3.303516e+003,-2.626595e-003
3.305445e+003,-2.631897e-003
3.307374e+003,-2.620436e-003
3.309302e+003,-2.817473e-003
3.311230e+003,-2.929649e-003
3.313159e+003,-3.010998e-003
3.315087e+003,-3.211673e-003
3.317016e+003,-3.361559e-003
3.318944e+003,-3.439277e-003
3.320873e+003,-3.561809e-003
3.322802e+003,-3.664922e-003
3.324730e+003,-3.745608e-003
3.326658e+003,-3.813963e-003
3.328587e+003,-3.878004e-003
3.330515e+003,-4.038822e-003
3.332444e+003,-4.181860e-003
3.334372e+003,-4.132140e-003
3.336301e+003,-4.146220e-003
3.338229e+003,-4.308186e-003
3.340158e+003,-4.403906e-003
3.342086e+003,-4.384357e-003
3.344015e+003,-4.499343e-003
3.345943e+003,-4.578857e-003
3.347872e+003,-4.573021e-003
3.349800e+003,-4.651047e-003
3.351729e+003,-4.799291e-003
3.353657e+003,-4.924978e-003
3.355586e+003,-4.998093e-003
3.357514e+003,-4.912955e-003
3.359443e+003,-4.940080e-003
3.361371e+003,-5.213763e-003
3.363300e+003,-5.312917e-003
3.365229e+003,-5.374251e-003
3.367157e+003,-5.592482e-003
3.369085e+003,-5.800044e-003
3.371014e+003,-5.819235e-003
3.372942e+003,-5.755708e-003
3.374871e+003,-5.904327e-003
3.376799e+003,-5.951033e-003
3.378728e+003,-6.046457e-003
3.380656e+003,-6.197361e-003
3.382585e+003,-6.351576e-003
3.384513e+003,-6.428401e-003
3.386442e+003,-6.581131e-003
3.388370e+003,-6.696254e-003
3.390299e+003,-6.727152e-003
3.392227e+003,-6.743235e-003
3.394156e+003,-6.767343e-003
3.396084e+003,-6.735568e-003
3.398013e+003,-6.832353e-003
3.399941e+003,-6.977442e-003
3.401870e+003,-7.081931e-003
3.403798e+003,-7.045648e-003
3.405727e+003,-6.938052e-003
3.407655e+003,-6.861773e-003
3.409584e+003,-6.956736e-003
3.411512e+003,-7.108856e-003
3.413441e+003,-7.265746e-003
3.415369e+003,-7.275879e-003
3.417298e+003,-7.248378e-003
3.419226e+003,-7.265941e-003
3.421155e+003,-7.238016e-003
3.423083e+003,-7.317030e-003
3.425012e+003,-7.318887e-003
3.426940e+003,-7.247987e-003
3.428869e+003,-7.259880e-003
3.430797e+003,-7.297612e-003
3.432726e+003,-7.259880e-003
3.434654e+003,-7.257208e-003
3.436583e+003,-7.482572e-003
3.438511e+003,-7.478925e-003
3.440440e+003,-7.375085e-003
3.442368e+003,-7.557115e-003
3.444297e+003,-7.641085e-003
3.446225e+003,-7.527058e-003
3.448154e+003,-7.416226e-003
3.450082e+003,-7.494753e-003
3.452011e+003,-7.635225e-003
3.453939e+003,-7.651405e-003
3.455868e+003,-7.734902e-003
3.457796e+003,-7.827559e-003
3.459725e+003,-7.874027e-003
3.461653e+003,-7.791273e-003
3.463582e+003,-7.667943e-003
3.465510e+003,-7.761624e-003
3.467439e+003,-7.849980e-003
3.469367e+003,-7.848679e-003
3.471296e+003,-7.769337e-003
3.473224e+003,-7.869113e-003
3.475153e+003,-7.979309e-003
3.477081e+003,-8.023452e-003
3.479010e+003,-8.085575e-003
3.480938e+003,-8.127820e-003
3.482867e+003,-8.137413e-003
3.484795e+003,-7.862704e-003
3.486724e+003,-7.814900e-003
3.488652e+003,-8.028428e-003
3.490581e+003,-7.974300e-003
3.492509e+003,-8.057832e-003
3.494438e+003,-8.225921e-003
3.496366e+003,-8.177247e-003
3.498295e+003,-8.129836e-003
3.500223e+003,-8.086876e-003
3.502152e+003,-8.020882e-003
3.504080e+003,-8.018410e-003
3.506009e+003,-8.210087e-003
3.507937e+003,-8.327022e-003
3.509866e+003,-8.283334e-003
3.511794e+003,-8.161249e-003
3.513723e+003,-8.216069e-003
3.515651e+003,-8.320716e-003
3.517580e+003,-8.360729e-003
3.519508e+003,-8.262788e-003
3.521437e+003,-8.265747e-003
3.523365e+003,-8.264218e-003
3.525294e+003,-8.334661e-003
3.527222e+003,-8.265454e-003
3.529151e+003,-8.223287e-003
3.531079e+003,-8.308429e-003
3.533008e+003,-8.285349e-003
3.534936e+003,-8.094128e-003
3.536865e+003,-8.160858e-003
3.538793e+003,-8.459199e-003
3.540722e+003,-8.506412e-003
3.542650e+003,-8.415068e-003
3.544579e+003,-8.219126e-003
3.546507e+003,-7.889451e-003
3.548436e+003,-7.946289e-003
3.550364e+003,-8.050871e-003
3.552293e+003,-8.045082e-003
3.554221e+003,-8.046220e-003
3.556150e+003,-8.109641e-003
3.558078e+003,-8.164761e-003
3.560007e+003,-8.251572e-003
3.561935e+003,-8.370480e-003
3.563864e+003,-8.210087e-003
3.565792e+003,-7.723477e-003
3.567721e+003,-7.725039e-003
3.569649e+003,-8.129023e-003
3.571578e+003,-8.126747e-003
3.573506e+003,-8.055555e-003
3.575435e+003,-8.137153e-003
3.577363e+003,-8.206673e-003
3.579292e+003,-8.260675e-003
3.581220e+003,-8.236682e-003
3.583149e+003,-8.269420e-003
3.585077e+003,-8.033242e-003
3.587006e+003,-7.655475e-003
3.588934e+003,-7.710359e-003
3.590863e+003,-7.970070e-003
3.592791e+003,-7.861369e-003
3.594720e+003,-7.814412e-003
3.596648e+003,-7.959791e-003
3.598577e+003,-7.980904e-003
3.600505e+003,-7.897129e-003
3.602434e+003,-7.962458e-003
3.604362e+003,-7.994762e-003
3.606291e+003,-8.029892e-003
3.608219e+003,-7.842626e-003
3.610148e+003,-7.880893e-003
3.612076e+003,-7.940271e-003
3.614005e+003,-7.957708e-003
3.615933e+003,-7.965451e-003
3.617862e+003,-7.590034e-003
3.619790e+003,-7.630179e-003
3.621719e+003,-8.187522e-003
3.623647e+003,-8.413379e-003
3.625576e+003,-8.079948e-003
3.627504e+003,-7.388376e-003
3.629433e+003,-7.051516e-003
3.631361e+003,-7.779655e-003
3.633290e+003,-8.057605e-003
3.635218e+003,-8.165020e-003
3.637146e+003,-8.196854e-003
3.639075e+003,-8.180921e-003
3.641004e+003,-8.313078e-003
3.642932e+003,-8.468330e-003
3.644861e+003,-8.425013e-003
3.646789e+003,-7.857464e-003
3.648718e+003,-7.401112e-003
3.650646e+003,-7.652870e-003
3.652574e+003,-8.349645e-003
3.654503e+003,-8.325624e-003
3.656432e+003,-8.061865e-003
3.658360e+003,-8.320294e-003
3.660289e+003,-8.461279e-003
3.662217e+003,-8.648798e-003
3.664146e+003,-8.800002e-003
3.666074e+003,-8.698881e-003
3.668002e+003,-8.350360e-003
3.669931e+003,-7.905914e-003
3.671860e+003,-8.242144e-003
3.673788e+003,-7.946192e-003
3.675717e+003,-7.318431e-003
3.677645e+003,-7.986791e-003
3.679573e+003,-8.418579e-003
3.681502e+003,-8.589289e-003
3.683430e+003,-8.644575e-003
3.685359e+003,-8.605531e-003
3.687288e+003,-8.141706e-003
3.689216e+003,-7.889906e-003
3.691145e+003,-8.083038e-003
3.693073e+003,-8.253360e-003
3.695001e+003,-8.441620e-003
3.696930e+003,-8.529188e-003
3.698858e+003,-8.355496e-003
3.700787e+003,-7.949282e-003
3.702716e+003,-8.027257e-003
3.704644e+003,-8.280083e-003
3.706573e+003,-8.072923e-003
3.708501e+003,-7.775749e-003
3.710429e+003,-7.570204e-003
3.712358e+003,-7.609993e-003
3.714286e+003,-8.141478e-003
3.716215e+003,-8.259602e-003
3.718144e+003,-7.993005e-003
3.720072e+003,-7.892150e-003
3.722000e+003,-7.830781e-003
3.723929e+003,-7.888669e-003
3.725857e+003,-7.869602e-003
3.727786e+003,-7.948014e-003
3.729714e+003,-7.888930e-003
3.731643e+003,-7.574177e-003
3.733572e+003,-7.294451e-003
3.735500e+003,-7.020447e-003
3.737428e+003,-7.481726e-003
3.739357e+003,-8.024395e-003
3.741285e+003,-7.831953e-003
3.743214e+003,-6.809064e-003
3.745142e+003,-6.597579e-003
3.747071e+003,-7.307452e-003
3.749000e+003,-6.795071e-003
3.750928e+003,-6.675275e-003
3.752856e+003,-7.187699e-003
3.754785e+003,-7.784862e-003
3.756713e+003,-7.654303e-003
3.758642e+003,-7.410103e-003
3.760570e+003,-7.204189e-003
3.762499e+003,-7.470001e-003
3.764427e+003,-7.525039e-003
3.766356e+003,-7.446356e-003
3.768284e+003,-7.456322e-003
3.770213e+003,-7.315694e-003
3.772141e+003,-7.548225e-003
3.774070e+003,-7.698966e-003
3.775998e+003,-7.635257e-003
3.777927e+003,-7.493971e-003
3.779855e+003,-7.411178e-003
3.781784e+003,-7.593355e-003
3.783712e+003,-7.536893e-003
3.785641e+003,-7.471988e-003
3.787569e+003,-7.425542e-003
3.789498e+003,-7.617579e-003
3.791426e+003,-7.961840e-003
3.793355e+003,-8.025989e-003
3.795283e+003,-7.680151e-003
3.797212e+003,-7.374954e-003
3.799140e+003,-7.213412e-003
3.801069e+003,-6.887962e-003
3.802997e+003,-7.360686e-003
3.804926e+003,-7.532301e-003
3.806854e+003,-7.095654e-003
3.808783e+003,-7.348893e-003
3.810711e+003,-7.574665e-003
3.812640e+003,-7.595146e-003
3.814568e+003,-7.418767e-003
3.816497e+003,-7.015785e-003
3.818425e+003,-6.997005e-003
3.820354e+003,-6.338449e-003
3.822282e+003,-6.608381e-003
3.824211e+003,-7.386356e-003
3.826139e+003,-7.376681e-003
3.828068e+003,-7.343289e-003
3.829996e+003,-7.246814e-003
3.831925e+003,-7.227816e-003
3.833853e+003,-7.217518e-003
3.835782e+003,-6.960128e-003
3.837710e+003,-6.663496e-003
3.839639e+003,-7.074727e-003
3.841567e+003,-7.214031e-003
3.843496e+003,-7.066838e-003
3.845424e+003,-7.285296e-003
3.847353e+003,-7.697925e-003
3.849281e+003,-7.720482e-003
3.851210e+003,-6.707119e-003
3.853138e+003,-5.312655e-003
3.855067e+003,-5.909458e-003
3.856995e+003,-7.021914e-003
3.858924e+003,-7.389288e-003
3.860852e+003,-7.168079e-003
3.862781e+003,-6.804889e-003
3.864709e+003,-6.740821e-003
3.866638e+003,-7.172512e-003
3.868566e+003,-6.822209e-003
3.870495e+003,-6.732730e-003
3.872423e+003,-7.072901e-003
3.874352e+003,-6.928171e-003
3.876280e+003,-7.198747e-003
3.878209e+003,-7.110193e-003
3.880137e+003,-6.929965e-003
3.882066e+003,-7.228989e-003
3.883994e+003,-7.076520e-003
3.885923e+003,-6.815686e-003
3.887851e+003,-7.171599e-003
3.889780e+003,-6.877786e-003
3.891708e+003,-6.646920e-003
3.893637e+003,-7.112279e-003
3.895565e+003,-7.443001e-003
3.897494e+003,-7.349186e-003
3.899422e+003,-6.942585e-003
3.901351e+003,-6.705259e-003
3.903279e+003,-6.766267e-003
3.905208e+003,-6.835680e-003
3.907136e+003,-7.217583e-003
3.909065e+003,-7.414598e-003
3.910993e+003,-7.494883e-003
3.912922e+003,-7.454042e-003
3.914850e+003,-7.133107e-003
3.916779e+003,-6.992766e-003
3.918707e+003,-7.214227e-003
3.920636e+003,-7.490584e-003
3.922564e+003,-7.434076e-003
3.924493e+003,-7.273957e-003
3.926421e+003,-7.234789e-003
3.928350e+003,-7.371078e-003
3.930278e+003,-7.502015e-003
3.932207e+003,-7.337849e-003
3.934135e+003,-7.504197e-003
3.936064e+003,-7.497033e-003
3.937992e+003,-7.312795e-003
3.939921e+003,-7.349544e-003
3.941849e+003,-7.337588e-003
3.943778e+003,-7.430167e-003
3.945706e+003,-7.416487e-003
3.947635e+003,-7.209078e-003
3.949563e+003,-7.199496e-003
3.951492e+003,-7.255058e-003
3.953420e+003,-7.266821e-003
3.955349e+003,-7.485536e-003
3.957277e+003,-7.474333e-003
3.959206e+003,-7.372349e-003
3.961134e+003,-7.416845e-003
3.963063e+003,-7.236843e-003
3.964991e+003,-7.193794e-003
3.966920e+003,-7.293800e-003
3.968848e+003,-7.303053e-003
3.970777e+003,-7.263269e-003
3.972705e+003,-7.194412e-003
3.974634e+003,-7.285100e-003
3.976562e+003,-7.451176e-003
3.978491e+003,-7.495860e-003
3.980419e+003,-7.150610e-003
3.982348e+003,-7.061133e-003
3.984276e+003,-7.276857e-003
3.986205e+003,-7.433425e-003
3.988133e+003,-7.330355e-003
3.990062e+003,-7.261477e-003
3.991990e+003,-7.343029e-003
3.993919e+003,-7.483094e-003
3.995847e+003,-7.612435e-003
3.997776e+003,-7.501071e-003
3.999704e+003,-7.300772e-003
4.001633e+003,0.000000e+000
