3.991989e+002,1.949065e-002
4.011274e+002,1.785535e-002
4.030559e+002,1.286203e-002
4.049844e+002,1.197971e-002
4.069129e+002,1.586319e-002
4.088414e+002,2.104517e-002
4.107699e+002,2.332882e-002
4.126984e+002,2.226642e-002
4.146269e+002,1.596940e-002
4.165554e+002,1.523827e-002
4.184839e+002,2.165667e-002
4.204124e+002,2.064925e-002
4.223409e+002,2.255010e-002
4.242694e+002,2.431841e-002
4.261979e+002,1.805146e-002
4.281264e+002,1.541137e-002
4.300549e+002,1.747164e-002
4.319834e+002,1.236849e-002
4.339119e+002,1.098604e-002
4.358404e+002,1.860325e-002
4.377689e+002,2.106663e-002
4.396974e+002,1.575385e-002
4.416259e+002,1.344950e-002
4.435544e+002,1.705980e-002
4.454829e+002,2.050997e-002
4.474114e+002,2.400945e-002
4.493399e+002,2.021294e-002
4.512684e+002,1.386104e-002
4.531969e+002,1.381548e-002
4.551254e+002,1.880077e-002
4.570539e+002,1.986193e-002
4.589824e+002,1.452889e-002
4.609109e+002,1.293057e-002
4.628394e+002,1.539115e-002
4.647679e+002,1.667301e-002
4.666964e+002,1.626523e-002
4.686249e+002,1.435697e-002
4.705533e+002,1.215264e-002
4.724819e+002,9.696706e-003
4.744103e+002,8.201016e-003
4.763389e+002,1.238137e-002
4.782673e+002,1.800062e-002
4.801959e+002,1.360441e-002
4.821243e+002,1.159602e-002
4.840529e+002,1.734238e-002
4.859813e+002,2.106044e-002
4.879099e+002,2.103449e-002
4.898383e+002,2.172226e-002
4.917668e+002,1.979825e-002
4.936953e+002,1.752331e-002
4.956238e+002,1.713783e-002
4.975523e+002,1.692294e-002
4.994808e+002,1.650422e-002
5.014093e+002,1.809060e-002
5.033378e+002,1.961061e-002
5.052663e+002,1.984736e-002
5.071948e+002,1.831608e-002
5.091233e+002,1.695684e-002
5.110518e+002,1.588189e-002
5.129803e+002,1.619544e-002
5.149088e+002,1.533173e-002
5.168373e+002,1.583989e-002
5.187658e+002,1.717040e-002
5.206943e+002,1.828001e-002
5.226228e+002,1.763752e-002
5.245513e+002,1.742132e-002
5.264798e+002,1.711429e-002
5.284083e+002,1.737745e-002
5.303368e+002,1.758497e-002
5.322653e+002,1.685994e-002
5.341938e+002,1.662763e-002
5.361223e+002,1.756510e-002
5.380508e+002,1.703199e-002
5.399792e+002,1.774737e-002
5.419078e+002,1.732489e-002
5.438363e+002,1.680769e-002
5.457648e+002,1.682167e-002
5.476932e+002,1.700033e-002
5.496218e+002,1.829120e-002
5.515503e+002,1.923823e-002
5.534788e+002,1.810079e-002
5.554072e+002,1.847147e-002
5.573358e+002,1.894459e-002
5.592643e+002,1.964153e-002
5.611927e+002,1.895283e-002
5.631212e+002,1.888797e-002
5.650497e+002,1.899222e-002
5.669783e+002,1.886752e-002
5.689067e+002,1.943274e-002
5.708352e+002,1.984531e-002
5.727637e+002,1.857603e-002
5.746923e+002,1.743066e-002
5.766207e+002,1.871992e-002
5.785492e+002,1.811913e-002
5.804777e+002,5.724121e-003
5.824063e+002,5.736778e-003
5.843347e+002,1.715982e-002
5.862632e+002,1.995940e-002
5.881917e+002,1.980453e-002
5.901202e+002,1.851469e-002
5.920487e+002,1.717954e-002
5.939772e+002,1.610905e-002
5.959057e+002,1.699381e-002
5.978342e+002,1.985041e-002
5.997627e+002,2.208862e-002
6.016912e+002,2.351066e-002
6.036197e+002,2.592263e-002
6.055482e+002,2.722474e-002
6.074767e+002,2.810005e-002
6.094052e+002,2.879344e-002
6.113337e+002,2.970424e-002
6.132622e+002,2.969108e-002
6.151907e+002,2.823376e-002
6.171192e+002,2.678033e-002
6.190477e+002,2.640264e-002
6.209762e+002,2.656576e-002
6.229047e+002,2.505731e-002
6.248332e+002,2.231462e-002
6.267617e+002,1.927321e-002
6.286902e+002,1.631999e-002
6.306187e+002,1.589735e-002
6.325472e+002,1.560768e-002
6.344756e+002,1.547427e-002
6.364042e+002,1.493134e-002
6.383326e+002,1.414222e-002
6.402612e+002,1.370911e-002
6.421896e+002,1.414554e-002
6.441182e+002,1.401367e-002
6.460466e+002,1.370097e-002
6.479752e+002,1.373066e-002
6.499036e+002,1.393213e-002
6.518322e+002,1.377553e-002
6.537606e+002,1.393312e-002
6.556891e+002,1.379201e-002
6.576177e+002,1.360896e-002
6.595461e+002,1.331722e-002
6.614746e+002,1.208436e-002
6.634031e+002,1.184254e-002
6.653317e+002,1.302411e-002
6.672601e+002,1.493158e-002
6.691886e+002,1.429095e-002
6.711171e+002,1.309845e-002
6.730457e+002,1.346078e-002
6.749741e+002,1.345678e-002
6.769026e+002,1.323544e-002
6.788311e+002,1.292965e-002
6.807596e+002,1.297925e-002
6.826881e+002,1.331726e-002
6.846166e+002,1.378620e-002
6.865451e+002,1.384209e-002
6.884736e+002,1.350955e-002
6.904021e+002,1.347575e-002
6.923306e+002,1.379461e-002
6.942591e+002,1.434331e-002
6.961876e+002,1.488920e-002
6.981161e+002,1.464094e-002
7.000446e+002,1.418118e-002
7.019731e+002,1.402349e-002
7.039016e+002,1.406329e-002
7.058301e+002,1.425301e-002
7.077585e+002,1.453681e-002
7.096871e+002,1.474236e-002
7.116156e+002,1.497195e-002
7.135441e+002,1.471107e-002
7.154725e+002,1.497905e-002
7.174011e+002,1.583326e-002
7.193296e+002,1.666846e-002
7.212581e+002,1.720257e-002
7.231865e+002,1.757420e-002
7.251151e+002,1.779255e-002
7.270436e+002,1.803616e-002
7.289720e+002,1.796861e-002
7.309005e+002,1.804960e-002
7.328290e+002,1.860695e-002
7.347576e+002,1.883104e-002
7.366860e+002,1.859142e-002
7.386145e+002,1.831073e-002
7.405430e+002,1.882129e-002
7.424716e+002,1.947921e-002
7.444000e+002,1.931706e-002
7.463285e+002,1.941982e-002
7.482570e+002,1.925710e-002
7.501855e+002,1.901807e-002
7.521140e+002,1.940031e-002
7.540425e+002,1.980238e-002
7.559710e+002,1.976413e-002
7.578995e+002,1.997491e-002
7.598280e+002,2.035275e-002
7.617565e+002,2.045467e-002
7.636850e+002,2.053939e-002
7.656135e+002,2.103898e-002
7.675420e+002,2.115349e-002
7.694705e+002,2.047232e-002
7.713990e+002,2.013345e-002
7.733275e+002,2.015917e-002
7.752560e+002,1.992648e-002
7.771844e+002,1.941882e-002
7.791130e+002,1.899457e-002
7.810415e+002,1.910078e-002
7.829700e+002,1.873607e-002
7.848984e+002,1.849487e-002
7.868270e+002,1.863932e-002
7.887555e+002,1.836351e-002
7.906840e+002,1.791491e-002
7.926124e+002,1.777602e-002
7.945410e+002,1.746236e-002
7.964695e+002,1.704436e-002
7.983979e+002,1.661482e-002
8.003264e+002,1.648736e-002
8.022549e+002,1.682997e-002
8.041835e+002,1.703778e-002
8.061119e+002,1.708320e-002
8.080404e+002,1.711557e-002
8.099689e+002,1.722077e-002
8.118975e+002,1.791353e-002
8.138259e+002,1.846234e-002
8.157545e+002,1.841193e-002
8.176830e+002,1.824662e-002
8.196115e+002,1.805036e-002
8.215399e+002,1.783564e-002
8.234684e+002,1.810659e-002
8.253970e+002,1.852478e-002
8.273254e+002,1.876233e-002
8.292539e+002,1.832479e-002
8.311824e+002,1.806096e-002
8.331110e+002,1.812673e-002
8.350394e+002,1.836810e-002
8.369679e+002,1.887364e-002
8.388964e+002,1.895629e-002
8.408250e+002,1.866066e-002
8.427534e+002,1.851258e-002
8.446819e+002,1.825295e-002
8.466104e+002,1.821542e-002
8.485389e+002,1.815136e-002
8.504674e+002,1.807288e-002
8.523959e+002,1.811205e-002
8.543244e+002,1.833064e-002
8.562529e+002,1.830973e-002
8.581814e+002,1.846338e-002
8.601099e+002,1.837021e-002
8.620384e+002,1.801015e-002
8.639669e+002,1.835158e-002
8.658954e+002,1.865879e-002
8.678239e+002,1.821110e-002
8.697524e+002,1.816435e-002
8.716809e+002,1.813626e-002
8.736094e+002,1.814521e-002
8.755378e+002,1.835327e-002
8.774664e+002,1.854221e-002
8.793949e+002,1.827613e-002
8.813234e+002,1.809854e-002
8.832518e+002,1.848512e-002
8.851804e+002,1.885461e-002
8.871089e+002,1.861124e-002
8.890374e+002,1.807647e-002
8.909658e+002,1.828325e-002
8.928943e+002,1.883056e-002
8.948229e+002,1.869605e-002
8.967513e+002,1.860207e-002
8.986798e+002,1.852838e-002
9.006083e+002,1.848561e-002
9.025369e+002,1.859259e-002
9.044653e+002,1.882796e-002
9.063938e+002,1.867757e-002
9.083223e+002,1.812397e-002
9.102509e+002,1.774696e-002
9.121793e+002,1.798998e-002
9.141078e+002,1.786333e-002
9.160364e+002,1.749679e-002
9.179648e+002,1.719091e-002
9.198933e+002,1.692219e-002
9.218218e+002,1.686011e-002
9.237504e+002,1.669587e-002
9.256788e+002,1.635381e-002
9.276073e+002,1.595967e-002
9.295358e+002,1.569122e-002
9.314644e+002,1.571702e-002
9.333928e+002,1.573128e-002
9.353213e+002,1.581907e-002
9.372498e+002,1.564158e-002
9.391783e+002,1.509203e-002
9.411068e+002,1.489986e-002
9.430353e+002,1.524918e-002
9.449637e+002,1.557165e-002
9.468923e+002,1.542369e-002
9.488208e+002,1.515520e-002
9.507493e+002,1.532599e-002
9.526777e+002,1.533866e-002
9.546063e+002,1.547852e-002
9.565348e+002,1.562451e-002
9.584633e+002,1.531673e-002
9.603917e+002,1.502453e-002
9.623203e+002,1.529092e-002
9.642488e+002,1.529974e-002
9.661772e+002,1.527269e-002
9.681057e+002,1.530729e-002
9.700343e+002,1.498327e-002
9.719628e+002,1.477071e-002
9.738912e+002,1.462515e-002
9.758197e+002,1.449861e-002
9.777483e+002,1.440057e-002
9.796768e+002,1.411350e-002
9.816052e+002,1.384086e-002
9.835337e+002,1.369906e-002
9.854623e+002,1.364527e-002
9.873907e+002,1.352370e-002
9.893192e+002,1.325693e-002
9.912477e+002,1.283214e-002
9.931763e+002,1.274113e-002
9.951047e+002,1.257165e-002
9.970332e+002,1.235771e-002
9.989617e+002,1.226411e-002
1.000890e+003,1.232683e-002
1.002819e+003,1.265904e-002
1.004747e+003,1.257486e-002
1.006676e+003,1.245222e-002
1.008604e+003,1.258727e-002
1.010533e+003,1.256827e-002
1.012461e+003,1.244885e-002
1.014390e+003,1.245911e-002
1.016318e+003,1.269534e-002
1.018247e+003,1.295518e-002
1.020175e+003,1.314698e-002
1.022104e+003,1.332682e-002
1.024032e+003,1.351772e-002
1.025961e+003,1.403616e-002
1.027889e+003,1.429704e-002
1.029818e+003,1.435403e-002
1.031746e+003,1.465403e-002
1.033675e+003,1.493066e-002
1.035603e+003,1.524095e-002
1.037532e+003,1.558120e-002
1.039460e+003,1.578450e-002
1.041389e+003,1.574639e-002
1.043317e+003,1.596661e-002
1.045246e+003,1.631160e-002
1.047174e+003,1.637163e-002
1.049103e+003,1.628057e-002
1.051031e+003,1.613752e-002
1.052960e+003,1.615063e-002
1.054888e+003,1.613501e-002
1.056817e+003,1.606480e-002
1.058745e+003,1.593351e-002
1.060674e+003,1.589165e-002
1.062602e+003,1.580395e-002
1.064531e+003,1.587556e-002
1.066459e+003,1.587288e-002
1.068388e+003,1.578879e-002
1.070316e+003,1.594874e-002
1.072245e+003,1.610884e-002
1.074173e+003,1.593413e-002
1.076102e+003,1.573784e-002
1.078030e+003,1.580099e-002
1.079959e+003,1.566714e-002
1.081887e+003,1.563221e-002
1.083816e+003,1.583927e-002
1.085744e+003,1.595799e-002
1.087673e+003,1.599556e-002
1.089601e+003,1.622244e-002
1.091530e+003,1.647332e-002
1.093458e+003,1.656776e-002
1.095387e+003,1.653183e-002
1.097315e+003,1.679959e-002
1.099244e+003,1.704640e-002
1.101172e+003,1.700188e-002
1.103101e+003,1.688412e-002
1.105029e+003,1.702837e-002
1.106958e+003,1.718047e-002
1.108886e+003,1.727583e-002
1.110815e+003,1.713200e-002
1.112743e+003,1.702917e-002
1.114672e+003,1.718626e-002
1.116600e+003,1.757438e-002
1.118529e+003,1.774647e-002
1.120457e+003,1.753022e-002
1.122386e+003,1.757348e-002
1.124314e+003,1.773429e-002
1.126243e+003,1.751738e-002
1.128171e+003,1.724073e-002
1.130100e+003,1.720236e-002
1.132028e+003,1.711815e-002
1.133957e+003,1.696763e-002
1.135885e+003,1.674263e-002
1.137814e+003,1.619458e-002
1.139742e+003,1.560359e-002
1.141671e+003,1.539104e-002
1.143599e+003,1.527087e-002
1.145528e+003,1.487171e-002
1.147456e+003,1.433132e-002
1.149385e+003,1.410324e-002
1.151313e+003,1.392864e-002
1.153242e+003,1.361724e-002
1.155170e+003,1.347479e-002
1.157099e+003,1.342435e-002
1.159027e+003,1.337907e-002
1.160956e+003,1.324220e-002
1.162884e+003,1.329403e-002
1.164813e+003,1.313127e-002
1.166741e+003,1.291716e-002
1.168670e+003,1.285684e-002
1.170598e+003,1.301414e-002
1.172526e+003,1.311160e-002
1.174455e+003,1.306283e-002
1.176384e+003,1.313670e-002
1.178312e+003,1.313714e-002
1.180240e+003,1.295286e-002
1.182169e+003,1.285149e-002
1.184098e+003,1.279808e-002
1.186026e+003,1.267494e-002
1.187954e+003,1.253308e-002
1.189883e+003,1.228835e-002
1.191812e+003,1.214470e-002
1.193740e+003,1.212756e-002
1.195668e+003,1.185469e-002
1.197597e+003,1.163951e-002
1.199526e+003,1.156454e-002
1.201454e+003,1.163866e-002
1.203382e+003,1.170796e-002
1.205311e+003,1.156311e-002
1.207240e+003,1.149343e-002
1.209168e+003,1.148023e-002
1.211096e+003,1.147495e-002
1.213025e+003,1.161623e-002
1.214953e+003,1.163611e-002
1.216882e+003,1.150656e-002
1.218810e+003,1.133702e-002
1.220739e+003,1.133852e-002
1.222667e+003,1.146808e-002
1.224596e+003,1.162641e-002
1.226524e+003,1.169571e-002
1.228453e+003,1.178391e-002
1.230381e+003,1.166126e-002
1.232310e+003,1.162733e-002
1.234238e+003,1.165176e-002
1.236167e+003,1.174925e-002
1.238095e+003,1.194198e-002
1.240024e+003,1.205261e-002
1.241952e+003,1.207850e-002
1.243881e+003,1.191957e-002
1.245809e+003,1.182630e-002
1.247738e+003,1.191003e-002
1.249666e+003,1.210838e-002
1.251595e+003,1.204385e-002
1.253523e+003,1.187230e-002
1.255452e+003,1.174149e-002
1.257380e+003,1.146094e-002
1.259309e+003,1.150653e-002
1.261237e+003,1.165527e-002
1.263166e+003,1.167927e-002
1.265094e+003,1.181898e-002
1.267023e+003,1.205053e-002
1.268951e+003,1.211087e-002
1.270880e+003,1.222165e-002
1.272808e+003,1.212112e-002
1.274737e+003,1.204413e-002
1.276665e+003,1.204542e-002
1.278594e+003,1.201221e-002
1.280522e+003,1.196888e-002
1.282451e+003,1.197706e-002
1.284379e+003,1.203074e-002
1.286308e+003,1.208470e-002
1.288236e+003,1.208020e-002
1.290165e+003,1.202972e-002
1.292093e+003,1.192777e-002
1.294022e+003,1.199763e-002
1.295950e+003,1.204069e-002
1.297879e+003,1.206317e-002
1.299807e+003,1.200209e-002
1.301736e+003,1.179324e-002
1.303664e+003,1.151925e-002
1.305593e+003,1.144631e-002
1.307521e+003,1.139001e-002
1.309450e+003,1.120885e-002
1.311378e+003,1.105302e-002
1.313307e+003,1.095036e-002
1.315235e+003,1.090772e-002
1.317164e+003,1.104891e-002
1.319092e+003,1.097656e-002
1.321021e+003,1.084055e-002
1.322949e+003,1.078270e-002
1.324878e+003,1.079201e-002
1.326806e+003,1.080977e-002
1.328735e+003,1.098685e-002
1.330663e+003,1.117482e-002
1.332592e+003,1.131825e-002
1.334520e+003,1.129278e-002
1.336449e+003,1.141804e-002
1.338377e+003,1.165105e-002
1.340306e+003,1.154896e-002
1.342234e+003,1.133182e-002
1.344163e+003,1.126523e-002
1.346091e+003,1.118488e-002
1.348020e+003,1.130203e-002
1.349948e+003,1.127985e-002
1.351877e+003,1.122232e-002
1.353805e+003,1.130696e-002
1.355734e+003,1.131502e-002
1.357662e+003,1.122820e-002
1.359591e+003,1.138450e-002
1.361519e+003,1.176535e-002
1.363448e+003,1.163781e-002
1.365376e+003,1.091023e-002
1.367305e+003,1.071175e-002
1.369233e+003,1.059266e-002
1.371162e+003,1.047541e-002
1.373090e+003,1.086307e-002
1.375019e+003,1.081765e-002
1.376947e+003,1.036280e-002
1.378876e+003,1.025117e-002
1.380804e+003,1.008575e-002
1.382733e+003,1.004305e-002
1.384661e+003,1.022298e-002
1.386590e+003,1.082173e-002
1.388518e+003,1.056635e-002
1.390447e+003,9.866117e-003
1.392375e+003,9.988835e-003
1.394304e+003,1.057657e-002
1.396232e+003,1.029076e-002
1.398161e+003,1.015446e-002
1.400089e+003,9.907098e-003
1.402018e+003,9.401456e-003
1.403946e+003,9.361572e-003
1.405875e+003,9.243938e-003
1.407803e+003,8.973383e-003
1.409732e+003,9.063031e-003
1.411660e+003,9.141665e-003
1.413589e+003,9.160344e-003
1.415517e+003,9.508430e-003
1.417446e+003,1.053736e-002
1.419374e+003,1.126108e-002
1.421303e+003,1.060166e-002
1.423231e+003,1.053026e-002
1.425160e+003,1.065592e-002
1.427088e+003,1.088940e-002
1.429017e+003,1.148261e-002
1.430945e+003,1.168934e-002
1.432874e+003,1.199978e-002
1.434802e+003,1.337077e-002
1.436731e+003,1.468409e-002
1.438659e+003,1.391674e-002
1.440588e+003,1.361840e-002
1.442516e+003,1.392868e-002
1.444445e+003,1.416026e-002
1.446373e+003,1.470301e-002
1.448302e+003,1.519507e-002
1.450230e+003,1.497884e-002
1.452159e+003,1.506648e-002
1.454087e+003,1.581202e-002
1.456016e+003,1.796809e-002
1.457944e+003,1.802483e-002
1.459873e+003,1.593784e-002
1.461801e+003,1.486094e-002
1.463730e+003,1.519671e-002
1.465658e+003,1.485244e-002
1.467587e+003,1.367139e-002
1.469515e+003,1.354226e-002
1.471444e+003,1.461552e-002
1.473372e+003,1.469088e-002
1.475301e+003,1.351242e-002
1.477229e+003,1.235495e-002
1.479158e+003,1.128145e-002
1.481086e+003,1.086154e-002
1.483015e+003,1.024350e-002
1.484943e+003,1.013394e-002
1.486872e+003,1.063133e-002
1.488800e+003,1.098159e-002
1.490729e+003,1.075760e-002
1.492657e+003,9.845678e-003
1.494586e+003,1.005295e-002
1.496514e+003,1.080077e-002
1.498443e+003,1.038438e-002
1.500371e+003,9.490108e-003
1.502300e+003,9.220348e-003
1.504228e+003,1.078219e-002
1.506157e+003,1.326390e-002
1.508085e+003,1.210133e-002
1.510014e+003,1.010898e-002
1.511942e+003,9.592328e-003
1.513871e+003,9.565805e-003
1.515799e+003,1.030237e-002
1.517728e+003,1.050341e-002
1.519656e+003,1.091883e-002
1.521585e+003,1.179719e-002
1.523513e+003,1.079744e-002
1.525442e+003,1.043668e-002
1.527370e+003,9.896386e-003
1.529299e+003,9.289701e-003
1.531227e+003,9.508125e-003
1.533156e+003,1.053444e-002
1.535084e+003,9.883132e-003
1.537013e+003,1.008622e-002
1.538941e+003,1.250365e-002
1.540870e+003,1.303552e-002
1.542798e+003,1.163761e-002
1.544727e+003,1.061442e-002
1.546655e+003,9.415372e-003
1.548584e+003,9.150294e-003
1.550512e+003,9.179092e-003
1.552441e+003,9.267936e-003
1.554369e+003,9.799111e-003
1.556298e+003,1.074347e-002
1.558226e+003,1.351184e-002
1.560155e+003,1.248717e-002
1.562083e+003,9.542977e-003
1.564012e+003,9.123426e-003
1.565940e+003,9.157772e-003
1.567869e+003,9.808193e-003
1.569797e+003,1.051020e-002
1.571726e+003,9.547380e-003
1.573654e+003,9.697825e-003
1.575583e+003,1.119821e-002
1.577511e+003,1.065884e-002
1.579440e+003,9.534780e-003
1.581368e+003,9.488821e-003
1.583297e+003,9.424414e-003
1.585225e+003,9.562249e-003
1.587154e+003,9.583047e-003
1.589082e+003,9.553104e-003
1.591010e+003,9.538608e-003
1.592939e+003,9.612687e-003
1.594868e+003,9.747567e-003
1.596796e+003,9.794671e-003
1.598724e+003,9.760037e-003
1.600653e+003,9.884353e-003
1.602582e+003,9.922353e-003
1.604510e+003,9.840018e-003
1.606438e+003,9.797179e-003
1.608367e+003,9.881674e-003
1.610296e+003,9.703720e-003
1.612224e+003,9.422043e-003
1.614152e+003,9.936659e-003
1.616081e+003,1.123412e-002
1.618010e+003,1.050643e-002
1.619938e+003,9.484216e-003
1.621866e+003,1.006927e-002
1.623795e+003,1.016501e-002
1.625724e+003,9.461188e-003
1.627652e+003,9.364687e-003
1.629580e+003,8.963201e-003
1.631509e+003,8.574286e-003
1.633438e+003,9.620377e-003
1.635366e+003,1.119607e-002
1.637294e+003,9.953406e-003
1.639223e+003,8.544312e-003
1.641151e+003,8.119885e-003
1.643080e+003,8.080320e-003
1.645008e+003,9.231246e-003
1.646937e+003,9.875133e-003
1.648865e+003,8.578309e-003
1.650794e+003,9.345897e-003
1.652722e+003,1.254508e-002
1.654651e+003,1.037111e-002
1.656579e+003,7.710441e-003
1.658508e+003,7.282110e-003
1.660436e+003,7.730948e-003
1.662365e+003,8.578376e-003
1.664293e+003,8.200813e-003
1.666222e+003,7.982911e-003
1.668150e+003,9.260862e-003
1.670079e+003,9.866049e-003
1.672007e+003,9.153272e-003
1.673936e+003,9.528108e-003
1.675864e+003,9.664317e-003
1.677793e+003,8.551544e-003
1.679721e+003,8.555160e-003
1.681650e+003,9.361673e-003
1.683578e+003,1.148652e-002
1.685507e+003,1.071929e-002
1.687435e+003,8.948522e-003
1.689364e+003,8.573003e-003
1.691292e+003,8.385550e-003
1.693221e+003,8.892546e-003
1.695149e+003,1.060241e-002
1.697078e+003,1.055009e-002
1.699006e+003,1.146097e-002
1.700935e+003,1.187295e-002
1.702863e+003,9.799415e-003
1.704792e+003,9.891810e-003
1.706720e+003,9.644768e-003
1.708649e+003,9.115441e-003
1.710577e+003,8.868603e-003
1.712506e+003,9.219704e-003
1.714434e+003,1.019184e-002
1.716363e+003,1.135471e-002
1.718291e+003,1.130458e-002
1.720220e+003,9.765628e-003
1.722148e+003,9.163052e-003
1.724077e+003,9.063132e-003
1.726005e+003,8.921633e-003
1.727934e+003,9.169346e-003
1.729862e+003,9.579456e-003
1.731791e+003,1.056608e-002
1.733719e+003,1.208160e-002
1.735648e+003,1.077927e-002
1.737576e+003,9.716596e-003
1.739505e+003,1.030885e-002
1.741433e+003,1.008144e-002
1.743362e+003,9.955576e-003
1.745290e+003,9.796094e-003
1.747219e+003,1.013580e-002
1.749147e+003,1.069776e-002
1.751076e+003,1.094754e-002
1.753004e+003,1.000894e-002
1.754933e+003,9.719679e-003
1.756861e+003,1.008161e-002
1.758790e+003,9.841137e-003
1.760718e+003,1.017013e-002
1.762647e+003,1.021969e-002
1.764575e+003,9.549547e-003
1.766504e+003,9.834222e-003
1.768432e+003,1.018407e-002
1.770361e+003,1.065534e-002
1.772289e+003,1.129121e-002
1.774218e+003,1.041136e-002
1.776146e+003,9.675802e-003
1.778075e+003,9.596325e-003
1.780003e+003,9.772135e-003
1.781932e+003,9.615261e-003
1.783860e+003,9.629997e-003
1.785789e+003,9.591549e-003
1.787717e+003,9.389876e-003
1.789646e+003,9.941744e-003
1.791574e+003,1.082835e-002
1.793503e+003,1.056699e-002
1.795431e+003,9.787655e-003
1.797360e+003,9.831680e-003
1.799288e+003,1.011478e-002
1.801217e+003,1.007127e-002
1.803145e+003,9.597206e-003
1.805074e+003,9.529598e-003
1.807002e+003,9.584266e-003
1.808931e+003,9.656456e-003
1.810859e+003,9.753361e-003
1.812788e+003,9.641821e-003
1.814716e+003,9.435892e-003
1.816645e+003,9.461323e-003
1.818573e+003,9.470873e-003
1.820502e+003,9.529530e-003
1.822430e+003,9.668789e-003
1.824359e+003,1.014445e-002
1.826287e+003,1.005146e-002
1.828216e+003,1.019079e-002
1.830144e+003,1.042429e-002
1.832073e+003,9.715918e-003
1.834001e+003,9.475715e-003
1.835930e+003,9.570920e-003
1.837858e+003,9.467724e-003
1.839787e+003,9.400237e-003
1.841715e+003,9.688982e-003
1.843644e+003,1.051835e-002
1.845572e+003,1.016212e-002
1.847501e+003,9.524213e-003
1.849429e+003,9.415948e-003
1.851358e+003,9.473548e-003
1.853286e+003,9.541757e-003
1.855215e+003,9.501318e-003
1.857143e+003,9.565941e-003
1.859072e+003,9.590567e-003
1.861000e+003,9.588704e-003
1.862929e+003,9.573190e-003
1.864857e+003,9.686339e-003
1.866786e+003,9.996226e-003
1.868714e+003,1.030189e-002
1.870643e+003,9.866082e-003
1.872571e+003,9.434470e-003
1.874500e+003,9.514764e-003
1.876428e+003,9.531258e-003
1.878357e+003,9.507380e-003
1.880285e+003,9.491666e-003
1.882214e+003,9.480422e-003
1.884142e+003,9.537286e-003
1.886071e+003,9.524653e-003
1.887999e+003,9.697113e-003
1.889928e+003,9.851169e-003
1.891856e+003,9.586197e-003
1.893785e+003,9.563062e-003
1.895713e+003,9.624238e-003
1.897642e+003,9.564993e-003
1.899570e+003,9.521740e-003
1.901499e+003,9.490108e-003
1.903427e+003,9.390079e-003
1.905356e+003,9.466606e-003
1.907284e+003,9.596698e-003
1.909213e+003,9.651713e-003
1.911141e+003,9.490176e-003
1.913070e+003,9.422991e-003
1.914998e+003,9.596224e-003
1.916927e+003,9.983987e-003
1.918855e+003,9.990598e-003
1.920784e+003,9.746855e-003
1.922712e+003,9.727100e-003
1.924641e+003,9.544975e-003
1.926569e+003,9.475817e-003
1.928498e+003,9.435757e-003
1.930426e+003,9.428341e-003
1.932355e+003,9.378635e-003
1.934283e+003,9.331272e-003
1.936212e+003,9.286452e-003
1.938140e+003,9.277753e-003
1.940069e+003,9.466640e-003
1.941997e+003,9.830697e-003
1.943926e+003,9.715613e-003
1.945854e+003,9.436298e-003
1.947783e+003,9.380870e-003
1.949711e+003,9.347996e-003
1.951640e+003,9.273758e-003
1.953568e+003,9.323350e-003
1.955497e+003,9.320472e-003
1.957425e+003,9.223461e-003
1.959354e+003,9.269223e-003
1.961282e+003,9.327548e-003
1.963211e+003,9.299958e-003
1.965139e+003,9.304156e-003
1.967068e+003,9.381615e-003
1.968996e+003,9.229283e-003
1.970925e+003,9.192663e-003
1.972853e+003,9.248507e-003
1.974782e+003,9.253821e-003
1.976710e+003,9.265702e-003
1.978639e+003,9.276669e-003
1.980567e+003,9.272167e-003
1.982496e+003,9.233649e-003
1.984424e+003,9.226609e-003
1.986353e+003,9.277651e-003
1.988281e+003,9.239132e-003
1.990210e+003,9.284082e-003
1.992138e+003,9.416997e-003
1.994067e+003,9.251554e-003
1.995995e+003,9.074027e-003
1.997924e+003,9.130329e-003
1.999852e+003,9.165116e-003
2.001781e+003,9.069459e-003
2.003709e+003,9.030485e-003
2.005638e+003,9.036540e-003
2.007566e+003,9.122580e-003
2.009495e+003,9.121599e-003
2.011423e+003,9.113139e-003
2.013352e+003,9.210330e-003
2.015280e+003,9.242449e-003
2.017208e+003,9.247662e-003
2.019137e+003,9.287434e-003
2.021066e+003,9.281171e-003
2.022994e+003,9.166571e-003
2.024922e+003,9.147012e-003
2.026851e+003,9.135202e-003
2.028780e+003,9.148365e-003
2.030708e+003,9.204102e-003
2.032636e+003,9.269020e-003
2.034565e+003,9.136521e-003
2.036494e+003,9.026052e-003
2.038422e+003,9.075684e-003
2.040350e+003,9.081876e-003
2.042279e+003,9.016513e-003
2.044208e+003,9.039551e-003
2.046136e+003,9.048753e-003
2.048064e+003,9.010525e-003
2.049993e+003,9.067328e-003
2.051921e+003,9.087290e-003
2.053850e+003,9.080082e-003
2.055778e+003,9.097372e-003
2.057707e+003,9.149245e-003
2.059635e+003,9.150869e-003
2.061564e+003,9.065128e-003
2.063492e+003,8.937360e-003
2.065421e+003,8.911419e-003
2.067349e+003,8.996960e-003
2.069278e+003,8.996893e-003
2.071206e+003,9.076294e-003
2.073135e+003,9.155302e-003
2.075063e+003,9.098049e-003
2.076992e+003,9.028319e-003
2.078920e+003,9.017697e-003
2.080849e+003,9.050513e-003
2.082777e+003,9.034409e-003
2.084706e+003,8.966144e-003
2.086634e+003,8.901509e-003
2.088563e+003,8.879798e-003
2.090491e+003,8.937631e-003
2.092420e+003,8.955049e-003
2.094348e+003,8.952953e-003
2.096277e+003,8.919603e-003
2.098205e+003,8.925961e-003
2.100134e+003,8.951871e-003
2.102062e+003,8.938713e-003
2.103991e+003,8.884025e-003
2.105919e+003,8.807330e-003
2.107848e+003,8.888184e-003
2.109776e+003,8.937969e-003
2.111705e+003,8.853724e-003
2.113633e+003,8.902760e-003
2.115562e+003,9.037149e-003
2.117490e+003,9.041716e-003
2.119419e+003,9.067125e-003
2.121347e+003,8.998787e-003
2.123276e+003,8.876889e-003
2.125204e+003,8.947203e-003
2.127133e+003,8.938713e-003
2.129061e+003,9.007345e-003
2.130990e+003,9.025275e-003
2.132918e+003,8.921633e-003
2.134847e+003,8.910742e-003
2.136775e+003,8.952615e-003
2.138704e+003,8.898398e-003
2.140632e+003,8.885377e-003
2.142561e+003,8.853926e-003
2.144489e+003,8.844864e-003
2.146418e+003,8.842666e-003
2.148346e+003,8.956471e-003
2.150275e+003,9.044998e-003
2.152203e+003,9.037284e-003
2.154132e+003,8.946086e-003
2.156060e+003,8.849395e-003
2.157989e+003,8.869482e-003
2.159917e+003,8.945376e-003
2.161846e+003,8.858763e-003
2.163774e+003,8.850884e-003
2.165703e+003,8.984580e-003
2.167631e+003,9.031601e-003
2.169560e+003,9.040566e-003
2.171488e+003,9.014585e-003
2.173417e+003,9.027339e-003
2.175345e+003,9.071354e-003
2.177274e+003,9.068308e-003
2.179202e+003,9.044017e-003
2.181131e+003,8.984004e-003
2.183059e+003,9.006702e-003
2.184988e+003,9.019219e-003
2.186916e+003,9.046081e-003
2.188845e+003,9.020742e-003
2.190773e+003,8.939727e-003
2.192702e+003,8.805741e-003
2.194630e+003,8.797085e-003
2.196559e+003,8.932185e-003
2.198487e+003,9.033496e-003
2.200416e+003,8.989890e-003
2.202344e+003,8.893528e-003
2.204273e+003,8.866980e-003
2.206201e+003,8.888116e-003
2.208130e+003,8.898398e-003
2.210058e+003,8.887711e-003
2.211987e+003,8.894001e-003
2.213915e+003,8.939153e-003
2.215844e+003,8.992630e-003
2.217772e+003,9.010187e-003
2.219701e+003,8.978118e-003
2.221629e+003,8.988571e-003
2.223558e+003,9.001019e-003
2.225486e+003,9.016073e-003
2.227415e+003,8.962254e-003
2.229343e+003,8.926841e-003
2.231272e+003,8.902795e-003
2.233200e+003,8.966009e-003
2.235129e+003,9.046825e-003
2.237057e+003,9.028725e-003
2.238986e+003,8.989417e-003
2.240914e+003,8.979641e-003
2.242843e+003,9.014009e-003
2.244771e+003,8.997738e-003
2.246700e+003,9.004335e-003
2.248628e+003,9.024396e-003
2.250557e+003,8.890991e-003
2.252485e+003,8.836883e-003
2.254414e+003,8.910167e-003
2.256342e+003,8.941588e-003
2.258271e+003,8.922377e-003
2.260199e+003,8.916289e-003
2.262128e+003,8.958263e-003
2.264056e+003,8.976596e-003
2.265985e+003,8.940201e-003
2.267913e+003,8.950483e-003
2.269842e+003,8.967464e-003
2.271770e+003,8.934180e-003
2.273699e+003,8.890620e-003
2.275627e+003,8.896639e-003
2.277556e+003,8.907631e-003
2.279484e+003,8.911284e-003
2.281413e+003,8.928633e-003
2.283341e+003,8.915173e-003
2.285270e+003,8.960800e-003
2.287198e+003,8.938848e-003
2.289127e+003,9.008631e-003
2.291055e+003,9.040397e-003
2.292984e+003,9.021553e-003
2.294912e+003,8.941250e-003
2.296841e+003,8.968884e-003
2.298769e+003,9.134694e-003
2.300698e+003,9.219603e-003
2.302626e+003,9.339532e-003
2.304555e+003,9.313533e-003
2.306483e+003,9.327616e-003
2.308412e+003,9.511919e-003
2.310340e+003,9.647174e-003
2.312269e+003,9.829273e-003
2.314197e+003,1.006669e-002
2.316125e+003,1.033382e-002
2.318054e+003,1.056635e-002
2.319983e+003,1.081517e-002
2.321911e+003,1.108613e-002
2.323840e+003,1.131168e-002
2.325768e+003,1.150629e-002
2.327697e+003,1.171426e-002
2.329625e+003,1.208150e-002
2.331553e+003,1.219973e-002
2.333482e+003,1.217230e-002
2.335411e+003,1.225048e-002
2.337339e+003,1.245434e-002
2.339268e+003,1.240640e-002
2.341196e+003,1.227921e-002
2.343125e+003,1.207315e-002
2.345053e+003,1.151619e-002
2.346981e+003,1.076551e-002
2.348910e+003,1.029181e-002
2.350839e+003,1.069789e-002
2.352767e+003,1.176192e-002
2.354696e+003,1.263083e-002
2.356624e+003,1.307099e-002
2.358552e+003,1.334473e-002
2.360481e+003,1.350337e-002
2.362409e+003,1.352979e-002
2.364338e+003,1.338136e-002
2.366267e+003,1.310435e-002
2.368195e+003,1.276651e-002
2.370124e+003,1.220283e-002
2.372052e+003,1.150479e-002
2.373980e+003,1.089735e-002
2.375909e+003,1.030125e-002
2.377838e+003,9.744450e-003
2.379766e+003,9.287569e-003
2.381695e+003,8.955185e-003
2.383623e+003,8.910032e-003
2.385552e+003,8.838743e-003
2.387480e+003,8.718716e-003
2.389408e+003,8.733252e-003
2.391337e+003,8.720811e-003
2.393266e+003,8.614437e-003
2.395194e+003,8.616397e-003
2.397123e+003,8.701847e-003
2.399051e+003,8.719256e-003
2.400979e+003,8.699852e-003
2.402908e+003,8.668111e-003
2.404836e+003,8.583547e-003
2.406765e+003,8.509676e-003
2.408694e+003,8.486058e-003
2.410622e+003,8.561006e-003
2.412551e+003,8.591083e-003
2.414479e+003,8.624374e-003
2.416407e+003,8.708134e-003
2.418336e+003,8.733083e-003
2.420264e+003,8.598417e-003
2.422193e+003,8.501702e-003
2.424122e+003,8.561749e-003
2.426050e+003,8.635933e-003
2.427979e+003,8.610347e-003
2.429907e+003,8.599127e-003
2.431835e+003,8.626030e-003
2.433764e+003,8.666353e-003
2.435692e+003,8.632283e-003
2.437621e+003,8.590272e-003
2.439550e+003,8.597471e-003
2.441478e+003,8.602270e-003
2.443406e+003,8.603013e-003
2.445335e+003,8.657903e-003
2.447263e+003,8.672303e-003
2.449192e+003,8.624171e-003
2.451121e+003,8.546576e-003
2.453049e+003,8.560938e-003
2.454978e+003,8.582770e-003
2.456906e+003,8.595578e-003
2.458834e+003,8.606528e-003
2.460763e+003,8.575504e-003
2.462691e+003,8.480753e-003
2.464620e+003,8.499607e-003
2.466549e+003,8.539717e-003
2.468477e+003,8.528599e-003
2.470406e+003,8.519880e-003
2.472334e+003,8.527179e-003
2.474262e+003,8.560938e-003
2.476191e+003,8.528768e-003
2.478119e+003,8.501905e-003
2.480048e+003,8.514238e-003
2.481977e+003,8.617546e-003
2.483905e+003,8.592469e-003
2.485833e+003,8.417406e-003
2.487762e+003,8.349982e-003
2.489690e+003,8.407441e-003
2.491619e+003,8.521165e-003
2.493547e+003,8.596153e-003
2.495476e+003,8.539885e-003
2.497405e+003,8.491261e-003
2.499333e+003,8.479537e-003
2.501261e+003,8.508190e-003
2.503190e+003,8.565467e-003
2.505118e+003,8.600851e-003
2.507047e+003,8.522213e-003
2.508975e+003,8.413860e-003
2.510904e+003,8.439028e-003
2.512833e+003,8.561986e-003
2.514761e+003,8.563980e-003
2.516689e+003,8.474435e-003
2.518618e+003,8.484065e-003
2.520546e+003,8.508426e-003
2.522475e+003,8.472037e-003
2.524403e+003,8.428014e-003
2.526332e+003,8.438116e-003
2.528260e+003,8.490214e-003
2.530189e+003,8.598045e-003
2.532117e+003,8.564284e-003
2.534046e+003,8.380754e-003
2.535974e+003,8.345861e-003
2.537903e+003,8.459704e-003
2.539831e+003,8.584729e-003
2.541760e+003,8.542149e-003
2.543688e+003,8.573713e-003
2.545617e+003,8.674635e-003
2.547545e+003,8.707898e-003
2.549474e+003,8.633669e-003
2.551402e+003,8.528532e-003
2.553331e+003,8.546644e-003
2.555259e+003,8.622717e-003
2.557188e+003,8.609604e-003
2.559116e+003,8.531809e-003
2.561045e+003,8.520861e-003
2.562973e+003,8.514609e-003
2.564902e+003,8.615045e-003
2.566830e+003,8.654557e-003
2.568759e+003,8.629578e-003
2.570687e+003,8.657126e-003
2.572616e+003,8.675277e-003
2.574544e+003,8.712191e-003
2.576473e+003,8.694207e-003
2.578401e+003,8.639853e-003
2.580330e+003,8.605379e-003
2.582258e+003,8.570502e-003
2.584187e+003,8.613897e-003
2.586115e+003,8.591151e-003
2.588044e+003,8.552422e-003
2.589972e+003,8.619372e-003
2.591901e+003,8.703436e-003
2.593829e+003,8.635967e-003
2.595758e+003,8.581418e-003
2.597686e+003,8.562290e-003
2.599615e+003,8.537858e-003
2.601543e+003,8.632688e-003
2.603472e+003,8.665171e-003
2.605400e+003,8.611463e-003
2.607329e+003,8.603926e-003
2.609257e+003,8.635696e-003
2.611186e+003,8.743057e-003
2.613114e+003,8.799519e-003
2.615043e+003,8.807533e-003
2.616971e+003,8.721285e-003
2.618900e+003,8.732036e-003
2.620828e+003,8.779503e-003
2.622757e+003,8.870361e-003
2.624685e+003,8.875469e-003
2.626614e+003,8.781903e-003
2.628542e+003,8.803441e-003
2.630471e+003,8.900156e-003
2.632399e+003,8.903065e-003
2.634328e+003,8.931982e-003
2.636256e+003,9.011168e-003
2.638185e+003,9.063369e-003
2.640113e+003,9.076902e-003
2.642042e+003,9.108403e-003
2.643970e+003,9.221634e-003
2.645899e+003,9.239369e-003
2.647827e+003,9.257714e-003
2.649756e+003,9.371221e-003
2.651684e+003,9.404978e-003
2.653613e+003,9.374268e-003
2.655541e+003,9.375622e-003
2.657470e+003,9.387574e-003
2.659398e+003,9.428578e-003
2.661327e+003,9.507888e-003
2.663255e+003,9.506703e-003
2.665184e+003,9.393195e-003
2.667112e+003,9.512935e-003
2.669041e+003,9.714529e-003
2.670969e+003,9.720899e-003
2.672898e+003,9.635248e-003
2.674826e+003,9.585045e-003
2.676755e+003,9.625255e-003
2.678683e+003,9.698231e-003
2.680612e+003,9.829918e-003
2.682540e+003,9.845136e-003
2.684469e+003,9.810803e-003
2.686397e+003,9.850898e-003
2.688326e+003,9.965848e-003
2.690254e+003,1.012546e-002
2.692183e+003,1.010097e-002
2.694111e+003,9.962864e-003
2.696040e+003,9.958864e-003
2.697968e+003,1.003580e-002
2.699897e+003,1.012882e-002
2.701825e+003,1.014923e-002
2.703754e+003,1.021538e-002
2.705682e+003,1.035920e-002
2.707611e+003,1.037722e-002
2.709539e+003,1.038411e-002
2.711468e+003,1.051852e-002
2.713396e+003,1.061089e-002
2.715325e+003,1.066397e-002
2.717253e+003,1.066780e-002
2.719182e+003,1.065324e-002
2.721110e+003,1.073732e-002
2.723039e+003,1.096480e-002
2.724967e+003,1.110132e-002
2.726896e+003,1.112454e-002
2.728824e+003,1.117785e-002
2.730753e+003,1.129223e-002
2.732681e+003,1.143566e-002
2.734610e+003,1.155273e-002
2.736538e+003,1.154004e-002
2.738467e+003,1.156502e-002
2.740395e+003,1.167409e-002
2.742324e+003,1.181057e-002
2.744252e+003,1.192951e-002
2.746181e+003,1.197481e-002
2.748109e+003,1.197862e-002
2.750038e+003,1.210824e-002
2.751966e+003,1.223259e-002
2.753895e+003,1.235884e-002
2.755823e+003,1.245672e-002
2.757752e+003,1.255081e-002
2.759680e+003,1.277467e-002
2.761609e+003,1.304054e-002
2.763537e+003,1.330038e-002
2.765466e+003,1.348710e-002
2.767394e+003,1.375087e-002
2.769323e+003,1.410573e-002
2.771251e+003,1.451975e-002
2.773180e+003,1.498001e-002
2.775108e+003,1.550119e-002
2.777037e+003,1.598284e-002
2.778965e+003,1.646599e-002
2.780894e+003,1.715014e-002
2.782822e+003,1.797240e-002
2.784750e+003,1.866159e-002
2.786679e+003,1.933355e-002
2.788608e+003,2.001554e-002
2.790536e+003,2.075771e-002
2.792465e+003,2.164208e-002
2.794393e+003,2.241401e-002
2.796322e+003,2.314600e-002
2.798250e+003,2.391998e-002
2.800178e+003,2.458183e-002
2.802107e+003,2.517966e-002
2.804036e+003,2.574234e-002
2.805964e+003,2.613082e-002
2.807893e+003,2.644961e-002
2.809821e+003,2.666525e-002
2.811750e+003,2.673438e-002
2.813678e+003,2.664570e-002
2.815606e+003,2.645602e-002
2.817535e+003,2.622880e-002
2.819464e+003,2.595910e-002
2.821392e+003,2.544582e-002
2.823321e+003,2.492906e-002
2.825249e+003,2.446484e-002
2.827177e+003,2.382431e-002
2.829106e+003,2.309939e-002
2.831034e+003,2.240107e-002
2.832963e+003,2.179228e-002
2.834892e+003,2.137556e-002
2.836820e+003,2.084225e-002
2.838749e+003,2.019492e-002
2.840677e+003,1.945003e-002
2.842605e+003,1.884225e-002
2.844534e+003,1.822084e-002
2.846462e+003,1.742649e-002
2.848391e+003,1.675186e-002
2.850320e+003,1.627775e-002
2.852248e+003,1.607078e-002
2.854177e+003,1.595922e-002
2.856105e+003,1.586061e-002
2.858033e+003,1.573427e-002
2.859962e+003,1.581432e-002
2.861890e+003,1.580700e-002
2.863819e+003,1.571042e-002
2.865748e+003,1.579003e-002
2.867676e+003,1.580604e-002
2.869604e+003,1.598067e-002
2.871533e+003,1.617425e-002
2.873461e+003,1.638354e-002
2.875390e+003,1.649524e-002
2.877319e+003,1.661351e-002
2.879247e+003,1.684836e-002
2.881176e+003,1.694906e-002
2.883104e+003,1.696508e-002
2.885032e+003,1.700456e-002
2.886961e+003,1.701645e-002
2.888889e+003,1.691850e-002
2.890818e+003,1.670616e-002
2.892747e+003,1.652611e-002
2.894675e+003,1.634604e-002
2.896604e+003,1.628102e-002
2.898532e+003,1.627534e-002
2.900460e+003,1.625315e-002
2.902389e+003,1.625305e-002
2.904317e+003,1.612996e-002
2.906246e+003,1.599343e-002
2.908175e+003,1.597658e-002
2.910103e+003,1.597455e-002
2.912031e+003,1.586199e-002
2.913960e+003,1.569119e-002
2.915888e+003,1.562101e-002
2.917817e+003,1.568236e-002
2.919745e+003,1.598937e-002
2.921674e+003,1.632619e-002
2.923603e+003,1.669976e-002
2.925531e+003,1.710454e-002
2.927459e+003,1.741580e-002
2.929388e+003,1.767137e-002
2.931316e+003,1.795179e-002
2.933245e+003,1.817482e-002
2.935173e+003,1.821024e-002
2.937102e+003,1.816435e-002
2.939031e+003,1.825930e-002
2.940959e+003,1.820661e-002
2.942887e+003,1.802673e-002
2.944816e+003,1.791936e-002
2.946744e+003,1.768835e-002
2.948673e+003,1.723625e-002
2.950601e+003,1.659496e-002
2.952530e+003,1.600866e-002
2.954458e+003,1.546558e-002
2.956387e+003,1.483064e-002
2.958315e+003,1.424592e-002
2.960244e+003,1.347079e-002
2.962172e+003,1.276136e-002
2.964101e+003,1.222873e-002
2.966029e+003,1.173135e-002
2.967958e+003,1.122531e-002
2.969886e+003,1.072268e-002
2.971815e+003,1.035978e-002
2.973743e+003,1.003556e-002
2.975672e+003,9.711784e-003
2.977600e+003,9.461086e-003
2.979529e+003,9.248406e-003
2.981457e+003,9.084920e-003
2.983386e+003,8.861468e-003
2.985314e+003,8.602473e-003
2.987243e+003,8.514981e-003
2.989171e+003,8.443791e-003
2.991100e+003,8.184133e-003
2.993028e+003,8.164078e-003
2.994957e+003,8.259603e-003
2.996885e+003,8.167387e-003
2.998814e+003,8.085215e-003
3.000742e+003,8.051358e-003
3.002671e+003,8.006400e-003
3.004599e+003,8.084742e-003
3.006528e+003,8.178798e-003
3.008456e+003,8.100912e-003
3.010385e+003,8.035798e-003
3.012313e+003,7.963371e-003
3.014242e+003,7.910357e-003
3.016170e+003,7.955777e-003
3.018099e+003,7.943325e-003
3.020027e+003,7.800571e-003
3.021956e+003,7.730274e-003
3.023884e+003,7.786267e-003
3.025813e+003,7.936103e-003
3.027741e+003,7.860757e-003
3.029670e+003,7.765758e-003
3.031598e+003,7.803472e-003
3.033527e+003,7.748521e-003
3.035455e+003,7.755706e-003
3.037384e+003,7.822432e-003
3.039312e+003,7.836601e-003
3.041241e+003,7.736075e-003
3.043169e+003,7.629199e-003
3.045098e+003,7.690576e-003
3.047026e+003,7.786301e-003
3.048955e+003,7.806508e-003
3.050883e+003,7.849894e-003
3.052812e+003,7.839098e-003
3.054740e+003,7.695399e-003
3.056669e+003,7.771662e-003
3.058597e+003,7.832889e-003
3.060526e+003,7.727677e-003
3.062454e+003,7.770278e-003
3.064383e+003,7.862275e-003
3.066311e+003,7.916329e-003
3.068240e+003,7.961953e-003
3.070168e+003,7.900909e-003
3.072097e+003,7.789675e-003
3.074025e+003,7.738942e-003
3.075954e+003,7.718469e-003
3.077882e+003,7.728486e-003
3.079811e+003,7.774697e-003
3.081739e+003,7.862208e-003
3.083668e+003,7.832080e-003
3.085596e+003,7.758304e-003
3.087525e+003,7.693005e-003
3.089453e+003,7.662180e-003
3.091382e+003,7.702077e-003
3.093310e+003,7.834846e-003
3.095239e+003,7.916296e-003
3.097167e+003,7.885792e-003
3.099096e+003,7.927701e-003
3.101024e+003,7.992091e-003
3.102953e+003,7.861871e-003
3.104881e+003,7.712971e-003
3.106810e+003,7.777868e-003
3.108738e+003,7.855325e-003
3.110667e+003,8.024795e-003
3.112595e+003,8.122788e-003
3.114524e+003,8.119210e-003
3.116452e+003,7.938770e-003
3.118381e+003,7.874490e-003
3.120309e+003,7.989964e-003
3.122238e+003,8.076911e-003
3.124166e+003,8.098211e-003
3.126095e+003,8.103106e-003
3.128023e+003,7.956790e-003
3.129952e+003,7.997017e-003
3.131880e+003,8.044236e-003
3.133809e+003,8.037520e-003
3.135737e+003,8.064522e-003
3.137666e+003,8.124340e-003
3.139594e+003,8.222153e-003
3.141523e+003,8.271930e-003
3.143451e+003,8.406258e-003
3.145380e+003,8.378964e-003
3.147308e+003,8.232216e-003
3.149237e+003,8.259941e-003
3.151165e+003,8.370722e-003
3.153094e+003,8.452069e-003
3.155022e+003,8.538669e-003
3.156951e+003,8.546238e-003
3.158879e+003,8.562560e-003
3.160808e+003,8.616566e-003
3.162736e+003,8.673384e-003
3.164665e+003,8.723415e-003
3.166593e+003,8.713780e-003
3.168522e+003,8.644924e-003
3.170450e+003,8.597639e-003
3.172379e+003,8.636237e-003
3.174307e+003,8.687277e-003
3.176236e+003,8.772369e-003
3.178164e+003,8.849903e-003
3.180093e+003,8.839183e-003
3.182021e+003,8.890958e-003
3.183950e+003,8.968106e-003
3.185878e+003,8.867081e-003
3.187807e+003,8.892175e-003
3.189735e+003,9.023448e-003
3.191664e+003,8.981637e-003
3.193592e+003,8.880507e-003
3.195521e+003,8.924033e-003
3.197449e+003,8.959244e-003
3.199378e+003,8.819604e-003
3.201306e+003,8.736769e-003
3.203235e+003,8.782513e-003
3.205163e+003,8.892885e-003
3.207092e+003,9.018915e-003
3.209020e+003,9.057550e-003
3.210948e+003,9.054031e-003
3.212877e+003,9.117437e-003
3.214806e+003,9.027507e-003
3.216734e+003,8.933369e-003
3.218663e+003,9.043408e-003
3.220591e+003,9.131920e-003
3.222520e+003,9.161732e-003
3.224448e+003,9.179126e-003
3.226376e+003,9.159600e-003
3.228305e+003,9.254092e-003
3.230234e+003,9.437755e-003
3.232162e+003,9.377112e-003
3.234091e+003,9.479948e-003
3.236019e+003,9.502131e-003
3.237948e+003,9.522993e-003
3.239876e+003,9.645412e-003
3.241804e+003,9.862320e-003
3.243733e+003,9.867540e-003
3.245662e+003,9.823376e-003
3.247590e+003,9.999041e-003
3.249519e+003,1.007364e-002
3.251447e+003,1.003807e-002
3.253375e+003,1.001898e-002
3.255304e+003,1.015914e-002
3.257232e+003,1.026101e-002
3.259161e+003,1.030111e-002
3.261090e+003,1.036378e-002
3.263018e+003,1.031322e-002
3.264947e+003,1.033782e-002
3.266875e+003,1.028510e-002
3.268803e+003,1.034984e-002
3.270732e+003,1.046325e-002
3.272660e+003,1.045650e-002
3.274589e+003,1.046180e-002
3.276518e+003,1.044364e-002
3.278446e+003,1.056917e-002
3.280375e+003,1.072295e-002
3.282303e+003,1.069466e-002
3.284231e+003,1.071236e-002
3.286160e+003,1.067327e-002
3.288088e+003,1.063510e-002
3.290017e+003,1.065619e-002
3.291946e+003,1.063215e-002
3.293874e+003,1.051522e-002
3.295802e+003,1.038058e-002
3.297731e+003,1.038262e-002
3.299659e+003,1.046546e-002
3.301588e+003,1.038000e-002
3.303516e+003,1.012387e-002
3.305445e+003,1.005716e-002
3.307374e+003,1.022671e-002
3.309302e+003,1.010630e-002
3.311230e+003,9.900827e-003
3.313159e+003,9.895640e-003
3.315087e+003,9.821242e-003
3.317016e+003,9.766916e-003
3.318944e+003,9.699959e-003
3.320873e+003,9.539691e-003
3.322802e+003,9.486078e-003
3.324730e+003,9.489872e-003
3.326658e+003,9.453840e-003
3.328587e+003,9.410768e-003
3.330515e+003,9.347691e-003
3.332444e+003,9.254904e-003
3.334372e+003,9.168873e-003
3.336301e+003,9.259914e-003
3.338229e+003,9.361911e-003
3.340158e+003,9.223461e-003
3.342086e+003,9.233987e-003
3.344015e+003,9.246544e-003
3.345943e+003,9.286148e-003
3.347872e+003,9.364923e-003
3.349800e+003,9.461662e-003
3.351729e+003,9.379821e-003
3.353657e+003,9.230128e-003
3.355586e+003,9.204542e-003
3.357514e+003,9.300364e-003
3.359443e+003,9.251858e-003
3.361371e+003,9.183661e-003
3.363300e+003,9.178584e-003
3.365229e+003,9.151952e-003
3.367157e+003,8.999260e-003
3.369085e+003,8.749041e-003
3.371014e+003,8.622007e-003
3.372942e+003,8.676900e-003
3.374871e+003,8.590678e-003
3.376799e+003,8.501634e-003
3.378728e+003,8.460920e-003
3.380656e+003,8.367580e-003
3.382585e+003,8.271828e-003
3.384513e+003,8.227421e-003
3.386442e+003,8.118635e-003
3.388370e+003,7.941402e-003
3.390299e+003,7.887817e-003
3.392227e+003,8.025774e-003
3.394156e+003,8.007683e-003
3.396084e+003,7.933775e-003
3.398013e+003,7.910762e-003
3.399941e+003,7.783029e-003
3.401870e+003,7.695838e-003
3.403798e+003,7.733208e-003
3.405727e+003,7.787010e-003
3.407655e+003,7.812615e-003
3.409584e+003,7.754795e-003
3.411512e+003,7.783501e-003
3.413441e+003,7.586375e-003
3.415369e+003,7.551749e-003
3.417298e+003,7.662112e-003
3.419226e+003,7.735367e-003
3.421155e+003,7.743428e-003
3.423083e+003,7.554749e-003
3.425012e+003,7.611024e-003
3.426940e+003,7.638338e-003
3.428869e+003,7.521001e-003
3.430797e+003,7.577980e-003
3.432726e+003,7.758809e-003
3.434654e+003,7.865211e-003
3.436583e+003,7.674456e-003
3.438511e+003,7.581149e-003
3.440440e+003,7.767343e-003
3.442368e+003,7.769536e-003
3.444297e+003,7.721673e-003
3.446225e+003,7.919366e-003
3.448154e+003,8.116846e-003
3.450082e+003,7.982911e-003
3.452011e+003,7.840042e-003
3.453939e+003,7.796017e-003
3.455868e+003,7.749803e-003
3.457796e+003,7.757595e-003
3.459725e+003,7.731960e-003
3.461653e+003,7.855021e-003
3.463582e+003,7.942245e-003
3.465510e+003,7.776047e-003
3.467439e+003,7.679515e-003
3.469367e+003,7.817135e-003
3.471296e+003,7.912044e-003
3.473224e+003,7.883769e-003
3.475153e+003,7.759855e-003
3.477081e+003,7.769469e-003
3.479010e+003,7.831540e-003
3.480938e+003,7.977848e-003
3.482867e+003,7.968500e-003
3.484795e+003,8.114382e-003
3.486724e+003,8.212057e-003
3.488652e+003,8.011328e-003
3.490581e+003,7.905228e-003
3.492509e+003,8.047882e-003
3.494438e+003,8.116104e-003
3.496366e+003,8.152531e-003
3.498295e+003,8.151788e-003
3.500223e+003,8.271693e-003
3.502152e+003,8.404333e-003
3.504080e+003,8.337417e-003
3.506009e+003,8.105098e-003
3.507937e+003,8.166407e-003
3.509866e+003,8.301278e-003
3.511794e+003,8.244069e-003
3.513723e+003,8.110027e-003
3.515651e+003,8.149864e-003
3.517580e+003,8.214050e-003
3.519508e+003,8.160803e-003
3.521437e+003,8.196762e-003
3.523365e+003,8.361230e-003
3.525294e+003,8.322792e-003
3.527222e+003,8.364033e-003
3.529151e+003,8.429568e-003
3.531079e+003,8.314990e-003
3.533008e+003,8.302088e-003
3.534936e+003,8.438859e-003
3.536865e+003,8.325662e-003
3.538793e+003,8.099461e-003
3.540722e+003,8.034145e-003
3.542650e+003,8.128763e-003
3.544579e+003,8.490045e-003
3.546507e+003,8.878816e-003
3.548436e+003,8.720170e-003
3.550364e+003,8.691773e-003
3.552293e+003,8.821532e-003
3.554221e+003,8.522043e-003
3.556150e+003,8.327487e-003
3.558078e+003,8.547049e-003
3.560007e+003,8.634378e-003
3.561935e+003,8.523564e-003
3.563864e+003,8.833976e-003
3.565792e+003,9.588432e-003
3.567721e+003,9.440158e-003
3.569649e+003,8.626300e-003
3.571578e+003,8.490315e-003
3.573506e+003,8.687717e-003
3.575435e+003,8.646546e-003
3.577363e+003,8.574388e-003
3.579292e+003,8.517921e-003
3.581220e+003,8.532282e-003
3.583149e+003,8.566650e-003
3.585077e+003,9.018983e-003
3.587006e+003,9.624577e-003
3.588934e+003,9.219366e-003
3.590863e+003,8.715369e-003
3.592791e+003,8.862820e-003
3.594720e+003,9.005316e-003
3.596648e+003,8.831744e-003
3.598577e+003,8.597403e-003
3.600505e+003,8.770340e-003
3.602434e+003,8.718445e-003
3.604362e+003,8.620352e-003
3.606291e+003,9.048956e-003
3.608219e+003,9.726998e-003
3.610148e+003,9.546635e-003
3.612076e+003,9.397935e-003
3.614005e+003,9.230400e-003
3.615933e+003,9.285504e-003
3.617862e+003,9.748109e-003
3.619790e+003,9.447033e-003
3.621719e+003,8.658715e-003
3.623647e+003,8.408150e-003
3.625576e+003,8.969595e-003
3.627504e+003,1.068584e-002
3.629433e+003,1.115674e-002
3.631361e+003,9.414120e-003
3.633290e+003,8.788767e-003
3.635218e+003,8.612679e-003
3.637146e+003,8.629308e-003
3.639075e+003,8.714456e-003
3.641004e+003,8.538432e-003
3.642932e+003,8.498560e-003
3.644861e+003,9.051257e-003
3.646789e+003,1.028951e-002
3.648718e+003,1.122565e-002
3.650646e+003,1.053148e-002
3.652574e+003,8.903809e-003
3.654503e+003,9.147045e-003
3.656432e+003,9.631895e-003
3.658360e+003,8.719121e-003
3.660289e+003,8.265918e-003
3.662217e+003,8.209390e-003
3.664146e+003,8.245251e-003
3.666074e+003,8.407981e-003
3.668002e+003,9.225221e-003
3.669931e+003,1.006136e-002
3.671860e+003,9.420485e-003
3.673788e+003,1.028306e-002
3.675717e+003,1.134835e-002
3.677645e+003,9.745432e-003
3.679573e+003,8.927180e-003
3.681502e+003,8.576990e-003
3.683430e+003,8.463286e-003
3.685359e+003,8.667942e-003
3.687288e+003,9.917030e-003
3.689216e+003,1.042405e-002
3.691145e+003,9.548632e-003
3.693073e+003,8.641814e-003
3.695001e+003,8.415718e-003
3.696930e+003,8.495721e-003
3.698858e+003,8.741332e-003
3.700787e+003,9.330222e-003
3.702716e+003,9.248304e-003
3.704644e+003,8.789917e-003
3.706573e+003,8.976731e-003
3.708501e+003,9.504976e-003
3.710429e+003,1.015836e-002
3.712358e+003,1.007717e-002
3.714286e+003,8.954610e-003
3.716215e+003,8.647290e-003
3.718144e+003,8.898837e-003
3.720072e+003,9.078120e-003
3.722000e+003,9.222005e-003
3.723929e+003,9.170564e-003
3.725857e+003,9.220280e-003
3.727786e+003,8.773857e-003
3.729714e+003,9.021926e-003
3.731643e+003,1.012773e-002
3.733572e+003,1.079044e-002
3.735500e+003,1.108678e-002
3.737428e+003,9.962864e-003
3.739357e+003,9.166300e-003
3.741285e+003,9.427122e-003
3.743214e+003,1.145029e-002
3.745142e+003,1.159670e-002
3.747071e+003,1.027129e-002
3.749000e+003,1.125765e-002
3.750928e+003,1.146002e-002
3.752856e+003,1.035730e-002
3.754785e+003,9.292308e-003
3.756713e+003,9.309233e-003
3.758642e+003,9.360793e-003
3.760570e+003,9.104106e-003
3.762499e+003,8.655740e-003
3.764427e+003,8.928059e-003
3.766356e+003,8.988503e-003
3.768284e+003,9.142612e-003
3.770213e+003,9.364585e-003
3.772141e+003,8.748094e-003
3.774070e+003,8.323400e-003
3.775998e+003,8.441392e-003
3.777927e+003,8.954914e-003
3.779855e+003,9.148466e-003
3.781784e+003,8.614944e-003
3.783712e+003,8.674973e-003
3.785641e+003,8.661858e-003
3.787569e+003,8.448352e-003
3.789498e+003,8.262879e-003
3.791426e+003,8.252005e-003
3.793355e+003,8.359203e-003
3.795283e+003,8.899514e-003
3.797212e+003,9.033867e-003
3.799140e+003,9.358762e-003
3.801069e+003,1.035153e-002
3.802997e+003,9.479509e-003
3.804926e+003,9.330392e-003
3.806854e+003,1.017244e-002
3.808783e+003,9.205354e-003
3.810711e+003,8.705329e-003
3.812640e+003,8.775344e-003
3.814568e+003,9.669432e-003
3.816497e+003,1.019516e-002
3.818425e+003,9.921234e-003
3.820354e+003,1.101744e-002
3.822282e+003,1.045199e-002
3.824211e+003,9.064079e-003
3.826139e+003,8.931678e-003
3.828068e+003,8.876516e-003
3.829996e+003,9.129821e-003
3.831925e+003,9.333574e-003
3.833853e+003,9.367124e-003
3.835782e+003,1.001386e-002
3.837710e+003,1.069388e-002
3.839639e+003,1.015487e-002
3.841567e+003,9.637281e-003
3.843496e+003,9.384222e-003
3.845424e+003,8.807229e-003
3.847353e+003,8.393523e-003
3.849281e+003,8.823222e-003
3.851210e+003,1.079421e-002
3.853138e+003,1.285944e-002
3.855067e+003,1.113464e-002
3.856995e+003,9.171647e-003
3.858924e+003,8.659120e-003
3.860852e+003,8.861332e-003
3.862781e+003,9.270577e-003
3.864709e+003,9.545280e-003
3.866638e+003,9.086613e-003
3.868566e+003,9.833036e-003
3.870495e+003,1.006465e-002
3.872423e+003,9.432540e-003
3.874352e+003,9.406129e-003
3.876280e+003,8.814566e-003
3.878209e+003,9.091654e-003
3.880137e+003,9.710022e-003
3.882066e+003,9.223867e-003
3.883994e+003,9.346574e-003
3.885923e+003,9.664757e-003
3.887851e+003,8.912366e-003
3.889780e+003,9.519268e-003
3.891708e+003,9.732420e-003
3.893637e+003,8.918690e-003
3.895565e+003,8.549854e-003
3.897494e+003,8.913448e-003
3.899422e+003,9.432540e-003
3.901351e+003,9.600221e-003
3.903279e+003,9.801890e-003
3.905208e+003,9.440362e-003
3.907136e+003,8.628767e-003
3.909065e+003,8.324109e-003
3.910993e+003,8.288613e-003
3.912922e+003,8.370789e-003
3.914850e+003,8.690793e-003
3.916779e+003,8.915308e-003
3.918707e+003,8.760536e-003
3.920636e+003,8.588244e-003
3.922564e+003,8.790796e-003
3.924493e+003,8.996182e-003
3.926421e+003,8.783019e-003
3.928350e+003,8.653408e-003
3.930278e+003,8.570231e-003
3.932207e+003,8.701880e-003
3.934135e+003,8.553876e-003
3.936064e+003,8.408353e-003
3.937992e+003,8.380720e-003
3.939921e+003,8.490924e-003
3.941849e+003,8.772030e-003
3.943778e+003,8.607204e-003
3.945706e+003,8.507548e-003
3.947635e+003,8.911284e-003
3.949563e+003,8.865120e-003
3.951492e+003,8.515555e-003
3.953420e+003,8.403522e-003
3.955349e+003,8.212158e-003
3.957277e+003,8.078328e-003
3.959206e+003,8.312727e-003
3.961134e+003,8.260921e-003
3.963063e+003,8.217764e-003
3.964991e+003,8.330020e-003
3.966920e+003,8.373153e-003
3.968848e+003,8.434095e-003
3.970777e+003,8.452812e-003
3.972705e+003,8.357683e-003
3.974634e+003,8.324684e-003
3.976562e+003,8.386158e-003
3.978491e+003,8.556781e-003
3.980419e+003,8.627821e-003
3.982348e+003,8.463860e-003
3.984276e+003,8.377106e-003
3.986205e+003,8.551780e-003
3.988133e+003,8.637048e-003
3.990062e+003,8.666590e-003
3.991990e+003,8.531978e-003
3.993919e+003,8.361871e-003
3.995847e+003,8.261798e-003
3.997776e+003,8.302189e-003
3.999704e+003,8.417508e-003
4.001633e+003,0.000000e+000
