3.991989e+002,3.406983e-003
4.011274e+002,-3.303393e-003
4.030559e+002,2.637910e-003
4.049844e+002,3.995836e-003
4.069129e+002,5.533737e-005
4.088414e+002,-2.382780e-003
4.107699e+002,3.044532e-003
4.126984e+002,4.977682e-003
4.146269e+002,5.012339e-003
4.165554e+002,6.138584e-003
4.184839e+002,5.474774e-003
4.204124e+002,6.115565e-003
4.223409e+002,5.286541e-003
4.242694e+002,4.779581e-003
4.261979e+002,8.089839e-003
4.281264e+002,8.208579e-003
4.300549e+002,8.261967e-003
4.319834e+002,7.350886e-003
4.339119e+002,5.256524e-003
4.358404e+002,3.075131e-003
4.377689e+002,2.831568e-003
4.396974e+002,4.458327e-003
4.416259e+002,1.971637e-003
4.435544e+002,9.620846e-004
4.454829e+002,2.744465e-003
4.474114e+002,4.676913e-003
4.493399e+002,4.584516e-003
4.512684e+002,3.365475e-003
4.531969e+002,3.130561e-003
4.551254e+002,3.928191e-003
4.570539e+002,6.419349e-003
4.589824e+002,6.262304e-003
4.609109e+002,6.405293e-003
4.628394e+002,8.806518e-003
4.647679e+002,6.916210e-003
4.666964e+002,3.176419e-003
4.686249e+002,3.397232e-003
4.705533e+002,7.631506e-004
4.724819e+002,-4.320186e-004
4.744103e+002,1.407094e-003
4.763389e+002,3.698486e-003
4.782673e+002,8.501533e-003
4.801959e+002,1.379950e-002
4.821243e+002,6.695754e-003
4.840529e+002,3.537878e-003
4.859813e+002,8.331506e-003
4.879099e+002,4.947384e-003
4.898383e+002,-1.498063e-004
4.917668e+002,2.390628e-003
4.936953e+002,3.482930e-003
4.956238e+002,-1.722936e-005
4.975523e+002,2.153584e-004
4.994808e+002,3.334823e-003
5.014093e+002,5.208467e-003
5.033378e+002,3.382439e-003
5.052663e+002,2.964892e-003
5.071948e+002,5.188683e-003
5.091233e+002,4.621419e-003
5.110518e+002,3.023344e-003
5.129803e+002,2.392694e-003
5.149088e+002,8.015558e-004
5.168373e+002,-4.364210e-004
5.187658e+002,4.030306e-004
5.206943e+002,2.100102e-003
5.226228e+002,1.696758e-003
5.245513e+002,1.321107e-003
5.264798e+002,1.107458e-003
5.284083e+002,7.208989e-004
5.303368e+002,5.978180e-004
5.322653e+002,1.402673e-003
5.341938e+002,1.027508e-003
5.361223e+002,-4.818329e-004
5.380508e+002,-4.126871e-004
5.399792e+002,1.031461e-003
5.419078e+002,1.066933e-003
5.438363e+002,1.241710e-004
5.457648e+002,2.836869e-004
5.476932e+002,1.299770e-003
5.496218e+002,8.797045e-004
5.515503e+002,-3.449116e-005
5.534788e+002,-3.010178e-004
5.554072e+002,-2.153698e-003
5.573358e+002,-2.705334e-003
5.592643e+002,-9.971168e-004
5.611927e+002,-6.031506e-004
5.631212e+002,-1.412821e-003
5.650497e+002,-1.750253e-003
5.669783e+002,-7.025027e-004
5.689067e+002,-1.652411e-004
5.708352e+002,-2.428648e-003
5.727637e+002,-1.845252e-003
5.746923e+002,-6.116542e-004
5.766207e+002,2.397525e-003
5.785492e+002,5.010428e-003
5.804777e+002,3.448634e-004
5.824063e+002,-1.630246e-003
5.843347e+002,-2.840845e-003
5.862632e+002,-5.052495e-003
5.881917e+002,-3.765055e-003
5.901202e+002,-3.357831e-004
5.920487e+002,2.590198e-004
5.939772e+002,-1.875374e-003
5.959057e+002,-4.061309e-003
5.978342e+002,-1.640908e-003
5.997627e+002,4.280376e-004
6.016912e+002,7.694572e-004
6.036197e+002,-1.142878e-003
6.055482e+002,-1.055427e-003
6.074767e+002,-4.525874e-005
6.094052e+002,1.435604e-004
6.113337e+002,1.488636e-004
6.132622e+002,2.203641e-004
6.151907e+002,6.099287e-004
6.171192e+002,1.219054e-003
6.190477e+002,2.915449e-004
6.209762e+002,-1.599417e-004
6.229047e+002,-1.027893e-003
6.248332e+002,-1.894245e-003
6.267617e+002,-1.148695e-003
6.286902e+002,-3.244267e-004
6.306187e+002,-5.795251e-004
6.325472e+002,-9.909261e-005
6.344756e+002,-1.354640e-004
6.364042e+002,-2.198218e-004
6.383326e+002,7.114461e-005
6.402612e+002,2.875661e-004
6.421896e+002,3.583599e-004
6.441182e+002,4.710569e-004
6.460466e+002,4.884384e-004
6.479752e+002,4.005101e-004
6.499036e+002,-1.255267e-004
6.518322e+002,-4.726317e-004
6.537606e+002,-4.804409e-006
6.556891e+002,7.273530e-005
6.576177e+002,-1.420887e-004
6.595461e+002,-2.525074e-004
6.614746e+002,-5.681420e-004
6.634031e+002,-5.009627e-004
6.653317e+002,3.063328e-004
6.672601e+002,1.754508e-003
6.691886e+002,1.733350e-003
6.711171e+002,1.321638e-003
6.730457e+002,1.116693e-003
6.749741e+002,1.473549e-003
6.769026e+002,1.996967e-003
6.788311e+002,1.779459e-003
6.807596e+002,1.679827e-003
6.826881e+002,1.889897e-003
6.846166e+002,1.720076e-003
6.865451e+002,1.969040e-003
6.884736e+002,1.947206e-003
6.904021e+002,1.453302e-003
6.923306e+002,1.006651e-003
6.942591e+002,9.506281e-004
6.961876e+002,1.144100e-003
6.981161e+002,1.309906e-003
7.000446e+002,1.191078e-003
7.019731e+002,1.322768e-003
7.039016e+002,1.568612e-003
7.058301e+002,1.524519e-003
7.077585e+002,1.454965e-003
7.096871e+002,1.243975e-003
7.116156e+002,1.293722e-003
7.135441e+002,1.972735e-003
7.154725e+002,2.382532e-003
7.174011e+002,2.266674e-003
7.193296e+002,2.334792e-003
7.212581e+002,2.868623e-003
7.231865e+002,3.242010e-003
7.251151e+002,3.434168e-003
7.270436e+002,3.429392e-003
7.289720e+002,3.791630e-003
7.309005e+002,3.979183e-003
7.328290e+002,3.763889e-003
7.347576e+002,3.299331e-003
7.366860e+002,3.764758e-003
7.386145e+002,3.753929e-003
7.405430e+002,4.145340e-003
7.424716e+002,5.108179e-003
7.444000e+002,4.985089e-003
7.463285e+002,4.875135e-003
7.482570e+002,5.326824e-003
7.501855e+002,5.182647e-003
7.521140e+002,5.307940e-003
7.540425e+002,5.476821e-003
7.559710e+002,5.760046e-003
7.578995e+002,5.946435e-003
7.598280e+002,6.259850e-003
7.617565e+002,5.829051e-003
7.636850e+002,5.729963e-003
7.656135e+002,5.509034e-003
7.675420e+002,5.578537e-003
7.694705e+002,5.635160e-003
7.713990e+002,5.449407e-003
7.733275e+002,6.391641e-003
7.752560e+002,6.663049e-003
7.771844e+002,6.516644e-003
7.791130e+002,6.053200e-003
7.810415e+002,5.786371e-003
7.829700e+002,6.134181e-003
7.848984e+002,5.991113e-003
7.868270e+002,6.556470e-003
7.887555e+002,6.049202e-003
7.906840e+002,4.820453e-003
7.926124e+002,6.066539e-003
7.945410e+002,6.404083e-003
7.964695e+002,5.078007e-003
7.983979e+002,5.162528e-003
8.003264e+002,6.273632e-003
8.022549e+002,6.828081e-003
8.041835e+002,6.433204e-003
8.061119e+002,5.914525e-003
8.080404e+002,5.755648e-003
8.099689e+002,5.621633e-003
8.118975e+002,5.300829e-003
8.138259e+002,5.203739e-003
8.157545e+002,5.447931e-003
8.176830e+002,5.887118e-003
8.196115e+002,6.449279e-003
8.215399e+002,6.498818e-003
8.234684e+002,6.183618e-003
8.253970e+002,6.123159e-003
8.273254e+002,6.360270e-003
8.292539e+002,6.312225e-003
8.311824e+002,6.066069e-003
8.331110e+002,6.208657e-003
8.350394e+002,6.283179e-003
8.369679e+002,5.958024e-003
8.388964e+002,6.057198e-003
8.408250e+002,6.539954e-003
8.427534e+002,6.654031e-003
8.446819e+002,6.127158e-003
8.466104e+002,5.744265e-003
8.485389e+002,6.010531e-003
8.504674e+002,6.106996e-003
8.523959e+002,5.823947e-003
8.543244e+002,5.832409e-003
8.562529e+002,6.095268e-003
8.581814e+002,6.549608e-003
8.601099e+002,6.796375e-003
8.620384e+002,6.464513e-003
8.639669e+002,6.190978e-003
8.658954e+002,5.977407e-003
8.678239e+002,5.635529e-003
8.697524e+002,5.480612e-003
8.716809e+002,5.447461e-003
8.736094e+002,5.329944e-003
8.755378e+002,5.574509e-003
8.774664e+002,5.617873e-003
8.793949e+002,5.346112e-003
8.813234e+002,5.159142e-003
8.832518e+002,5.200821e-003
8.851804e+002,5.005401e-003
8.871089e+002,4.650555e-003
8.890374e+002,4.667970e-003
8.909658e+002,4.792378e-003
8.928943e+002,4.656851e-003
8.948229e+002,4.635920e-003
8.967513e+002,4.783768e-003
8.986798e+002,5.001345e-003
9.006083e+002,4.830203e-003
9.025369e+002,4.674066e-003
9.044653e+002,4.723169e-003
9.063938e+002,4.337228e-003
9.083223e+002,4.314873e-003
9.102509e+002,4.647742e-003
9.121793e+002,4.603704e-003
9.141078e+002,4.093459e-003
9.160364e+002,4.098309e-003
9.179648e+002,4.366044e-003
9.198933e+002,4.145205e-003
9.218218e+002,3.923544e-003
9.237504e+002,3.704802e-003
9.256788e+002,3.633193e-003
9.276073e+002,4.037370e-003
9.295358e+002,4.331472e-003
9.314644e+002,4.189063e-003
9.333928e+002,4.011453e-003
9.353213e+002,3.985971e-003
9.372498e+002,3.848790e-003
9.391783e+002,3.574491e-003
9.411068e+002,3.769236e-003
9.430353e+002,3.794237e-003
9.449637e+002,3.915553e-003
9.468923e+002,3.867578e-003
9.488208e+002,3.601720e-003
9.507493e+002,3.484934e-003
9.526777e+002,3.325874e-003
9.546063e+002,3.399970e-003
9.565348e+002,3.349014e-003
9.584633e+002,2.898275e-003
9.603917e+002,2.493556e-003
9.623203e+002,2.631043e-003
9.642488e+002,2.944208e-003
9.661772e+002,2.601742e-003
9.681057e+002,2.441639e-003
9.700343e+002,2.580776e-003
9.719628e+002,2.296984e-003
9.738912e+002,2.025228e-003
9.758197e+002,2.634643e-003
9.777483e+002,2.406487e-003
9.796768e+002,1.887933e-003
9.816052e+002,1.705972e-003
9.835337e+002,1.738872e-003
9.854623e+002,1.654914e-003
9.873907e+002,1.688010e-003
9.893192e+002,1.696924e-003
9.912477e+002,1.807008e-003
9.931763e+002,2.179051e-003
9.951047e+002,2.529982e-003
9.970332e+002,2.532248e-003
9.989617e+002,2.437074e-003
1.000890e+003,2.393627e-003
1.002819e+003,2.759770e-003
1.004747e+003,2.897775e-003
1.006676e+003,2.882798e-003
1.008604e+003,3.300767e-003
1.010533e+003,3.646258e-003
1.012461e+003,3.814426e-003
1.014390e+003,4.218672e-003
1.016318e+003,4.587764e-003
1.018247e+003,4.481326e-003
1.020175e+003,4.447448e-003
1.022104e+003,4.876274e-003
1.024032e+003,5.333097e-003
1.025961e+003,5.439610e-003
1.027889e+003,5.607938e-003
1.029818e+003,5.710054e-003
1.031746e+003,5.970554e-003
1.033675e+003,6.232555e-003
1.035603e+003,6.333675e-003
1.037532e+003,6.610193e-003
1.039460e+003,7.088513e-003
1.041389e+003,7.440570e-003
1.043317e+003,7.323590e-003
1.045246e+003,7.277292e-003
1.047174e+003,7.557042e-003
1.049103e+003,7.635910e-003
1.051031e+003,7.399180e-003
1.052960e+003,7.281369e-003
1.054888e+003,7.208393e-003
1.056817e+003,7.271767e-003
1.058745e+003,7.384924e-003
1.060674e+003,7.527104e-003
1.062602e+003,7.532093e-003
1.064531e+003,7.611462e-003
1.066459e+003,7.669094e-003
1.068388e+003,7.806947e-003
1.070316e+003,7.813457e-003
1.072245e+003,7.576361e-003
1.074173e+003,7.512202e-003
1.076102e+003,7.690711e-003
1.078030e+003,7.782726e-003
1.079959e+003,7.849421e-003
1.081887e+003,7.857687e-003
1.083816e+003,7.791024e-003
1.085744e+003,7.585870e-003
1.087673e+003,7.661742e-003
1.089601e+003,7.874287e-003
1.091530e+003,7.803708e-003
1.093458e+003,7.653783e-003
1.095387e+003,7.576665e-003
1.097315e+003,7.530643e-003
1.099244e+003,7.348291e-003
1.101172e+003,7.255729e-003
1.103101e+003,7.374476e-003
1.105029e+003,7.439862e-003
1.106958e+003,7.466491e-003
1.108886e+003,7.492279e-003
1.110815e+003,7.309168e-003
1.112743e+003,7.201049e-003
1.114672e+003,7.190539e-003
1.116600e+003,7.259704e-003
1.118529e+003,7.427661e-003
1.120457e+003,7.514731e-003
1.122386e+003,7.621140e-003
1.124314e+003,7.741135e-003
1.126243e+003,7.757325e-003
1.128171e+003,7.693038e-003
1.130100e+003,7.718368e-003
1.132028e+003,7.531385e-003
1.133957e+003,7.280998e-003
1.135885e+003,7.087771e-003
1.137814e+003,6.767465e-003
1.139742e+003,6.672941e-003
1.141671e+003,6.356975e-003
1.143599e+003,5.701459e-003
1.145528e+003,5.285166e-003
1.147456e+003,4.824574e-003
1.149385e+003,4.423480e-003
1.151313e+003,4.157616e-003
1.153242e+003,3.873863e-003
1.155170e+003,3.594203e-003
1.157099e+003,3.342269e-003
1.159027e+003,3.050271e-003
1.160956e+003,2.927062e-003
1.162884e+003,3.062684e-003
1.164813e+003,2.999956e-003
1.166741e+003,2.892971e-003
1.168670e+003,2.809691e-003
1.170598e+003,2.795284e-003
1.172526e+003,2.858750e-003
1.174455e+003,2.979938e-003
1.176384e+003,3.050171e-003
1.178312e+003,2.867822e-003
1.180240e+003,2.680549e-003
1.182169e+003,2.786080e-003
1.184098e+003,2.790249e-003
1.186026e+003,2.594942e-003
1.187954e+003,2.676448e-003
1.189883e+003,2.547013e-003
1.191812e+003,2.193803e-003
1.193740e+003,1.976530e-003
1.195668e+003,2.141389e-003
1.197597e+003,2.261311e-003
1.199526e+003,2.082356e-003
1.201454e+003,1.965013e-003
1.203382e+003,1.936489e-003
1.205311e+003,1.891694e-003
1.207240e+003,2.022000e-003
1.209168e+003,2.249987e-003
1.211096e+003,2.438807e-003
1.213025e+003,2.378001e-003
1.214953e+003,2.174655e-003
1.216882e+003,2.095873e-003
1.218810e+003,2.098004e-003
1.220739e+003,2.027293e-003
1.222667e+003,2.120945e-003
1.224596e+003,2.116882e-003
1.226524e+003,1.993039e-003
1.228453e+003,1.949236e-003
1.230381e+003,1.964014e-003
1.232310e+003,1.813796e-003
1.234238e+003,1.631000e-003
1.236167e+003,1.682754e-003
1.238095e+003,1.692467e-003
1.240024e+003,1.579286e-003
1.241952e+003,1.532832e-003
1.243881e+003,1.395991e-003
1.245809e+003,1.295350e-003
1.247738e+003,1.436314e-003
1.249666e+003,1.529374e-003
1.251595e+003,1.522325e-003
1.253523e+003,1.626577e-003
1.255452e+003,1.778461e-003
1.257380e+003,1.930565e-003
1.259309e+003,2.098037e-003
1.261237e+003,2.186976e-003
1.263166e+003,2.198632e-003
1.265094e+003,2.301115e-003
1.267023e+003,2.405554e-003
1.268951e+003,2.492257e-003
1.270880e+003,2.453868e-003
1.272808e+003,2.296118e-003
1.274737e+003,2.098237e-003
1.276665e+003,1.901212e-003
1.278594e+003,1.832961e-003
1.280522e+003,1.712625e-003
1.282451e+003,1.713789e-003
1.284379e+003,1.649127e-003
1.286308e+003,1.681124e-003
1.288236e+003,1.810435e-003
1.290165e+003,1.857784e-003
1.292093e+003,1.784982e-003
1.294022e+003,1.620823e-003
1.295950e+003,1.583443e-003
1.297879e+003,1.501876e-003
1.299807e+003,1.272952e-003
1.301736e+003,1.249391e-003
1.303664e+003,1.134831e-003
1.305593e+003,9.182528e-004
1.307521e+003,7.259105e-004
1.309450e+003,5.279140e-004
1.311378e+003,4.103933e-004
1.313307e+003,4.178887e-004
1.315235e+003,3.757037e-004
1.317164e+003,2.586551e-004
1.319092e+003,1.339153e-004
1.321021e+003,2.103858e-004
1.322949e+003,4.575569e-004
1.324878e+003,7.272380e-004
1.326806e+003,7.095815e-004
1.328735e+003,8.152989e-004
1.330663e+003,1.183934e-003
1.332592e+003,1.264013e-003
1.334520e+003,1.233940e-003
1.336449e+003,1.296214e-003
1.338377e+003,1.439140e-003
1.340306e+003,1.560764e-003
1.342234e+003,1.623584e-003
1.344163e+003,1.681091e-003
1.346091e+003,1.642807e-003
1.348020e+003,1.566284e-003
1.349948e+003,1.651788e-003
1.351877e+003,1.730222e-003
1.353805e+003,1.737075e-003
1.355734e+003,1.692999e-003
1.357662e+003,1.649992e-003
1.359591e+003,1.628107e-003
1.361519e+003,1.514710e-003
1.363448e+003,1.350454e-003
1.365376e+003,1.133536e-003
1.367305e+003,7.890082e-004
1.369233e+003,5.917794e-004
1.371162e+003,5.734316e-004
1.373090e+003,3.637321e-004
1.375019e+003,1.454165e-004
1.376947e+003,-6.626757e-006
1.378876e+003,-1.546753e-004
1.380804e+003,-2.242595e-004
1.382733e+003,-2.125360e-004
1.384661e+003,-2.907201e-004
1.386590e+003,-2.268426e-004
1.388518e+003,-3.539923e-004
1.390447e+003,-6.586027e-004
1.392375e+003,-7.106735e-004
1.394304e+003,-5.742969e-004
1.396232e+003,-7.423959e-004
1.398161e+003,-8.925085e-004
1.400089e+003,-1.002340e-003
1.402018e+003,-1.279506e-003
1.403946e+003,-1.329058e-003
1.405875e+003,-1.384384e-003
1.407803e+003,-1.502974e-003
1.409732e+003,-1.480949e-003
1.411660e+003,-1.478110e-003
1.413589e+003,-1.470944e-003
1.415517e+003,-1.253704e-003
1.417446e+003,-9.117195e-004
1.419374e+003,-5.834297e-004
1.421303e+003,-5.580493e-004
1.423231e+003,-3.239301e-004
1.425160e+003,-6.155868e-005
1.427088e+003,2.348844e-004
1.429017e+003,7.421736e-004
1.430945e+003,1.308777e-003
1.432874e+003,1.885737e-003
1.434802e+003,2.566144e-003
1.436731e+003,3.154123e-003
1.438659e+003,3.226020e-003
1.440588e+003,3.402141e-003
1.442516e+003,3.895426e-003
1.444445e+003,4.345059e-003
1.446373e+003,4.630696e-003
1.448302e+003,4.958210e-003
1.450230e+003,5.150726e-003
1.452159e+003,5.261890e-003
1.454087e+003,5.536887e-003
1.456016e+003,6.441746e-003
1.457944e+003,6.570968e-003
1.459873e+003,5.718010e-003
1.461801e+003,5.248810e-003
1.463730e+003,5.213061e-003
1.465658e+003,4.892057e-003
1.467587e+003,4.255945e-003
1.469515e+003,3.862964e-003
1.471444e+003,3.950927e-003
1.473372e+003,3.766730e-003
1.475301e+003,3.290985e-003
1.477229e+003,2.615076e-003
1.479158e+003,1.901012e-003
1.481086e+003,1.399349e-003
1.483015e+003,8.900966e-004
1.484943e+003,6.751335e-004
1.486872e+003,6.806756e-004
1.488800e+003,6.271498e-004
1.490729e+003,4.464123e-004
1.492657e+003,5.248749e-005
1.494586e+003,7.250333e-005
1.496514e+003,2.956562e-004
1.498443e+003,1.388870e-004
1.500371e+003,-2.039253e-004
1.502300e+003,-3.619379e-004
1.504228e+003,5.235494e-005
1.506157e+003,9.229346e-004
1.508085e+003,5.886605e-004
1.510014e+003,-1.018090e-004
1.511942e+003,-2.115424e-004
1.513871e+003,-2.839653e-004
1.515799e+003,-1.828283e-004
1.517728e+003,-2.143719e-005
1.519656e+003,8.254474e-005
1.521585e+003,3.200270e-004
1.523513e+003,2.750212e-005
1.525442e+003,-9.813194e-005
1.527370e+003,-1.590805e-004
1.529299e+003,-3.222746e-004
1.531227e+003,-2.643292e-004
1.533156e+003,7.734173e-005
1.535084e+003,-1.822368e-006
1.537013e+003,3.545487e-005
1.538941e+003,7.861867e-004
1.540870e+003,1.028604e-003
1.542798e+003,6.396596e-004
1.544727e+003,4.322166e-004
1.546655e+003,1.064396e-004
1.548584e+003,2.051046e-005
1.550512e+003,1.033574e-004
1.552441e+003,1.828058e-004
1.554369e+003,4.536430e-004
1.556298e+003,8.188509e-004
1.558226e+003,1.802816e-003
1.560155e+003,1.712425e-003
1.562083e+003,9.376445e-004
1.564012e+003,9.987472e-004
1.565940e+003,1.270758e-003
1.567869e+003,1.640446e-003
1.569797e+003,1.950834e-003
1.571726e+003,1.828369e-003
1.573654e+003,1.917985e-003
1.575583e+003,2.381833e-003
1.577511e+003,2.400957e-003
1.579440e+003,2.203361e-003
1.581368e+003,2.274801e-003
1.583297e+003,2.389429e-003
1.585225e+003,2.572943e-003
1.587154e+003,2.623543e-003
1.589082e+003,2.675048e-003
1.591010e+003,2.701053e-003
1.592939e+003,2.703520e-003
1.594868e+003,2.782512e-003
1.596796e+003,2.920090e-003
1.598724e+003,2.933400e-003
1.600653e+003,2.782879e-003
1.602582e+003,2.573943e-003
1.604510e+003,2.510885e-003
1.606438e+003,2.428344e-003
1.608367e+003,2.333693e-003
1.610296e+003,2.202428e-003
1.612224e+003,2.018837e-003
1.614152e+003,1.858283e-003
1.616081e+003,1.999530e-003
1.618010e+003,1.751813e-003
1.619938e+003,1.220582e-003
1.621866e+003,1.131077e-003
1.623795e+003,1.001969e-003
1.625724e+003,7.460901e-004
1.627652e+003,6.261875e-004
1.629580e+003,4.797476e-004
1.631509e+003,2.842505e-004
1.633438e+003,3.442002e-004
1.635366e+003,5.516344e-004
1.637294e+003,-3.213990e-006
1.639223e+003,-5.259493e-004
1.641151e+003,-6.594298e-004
1.643080e+003,-7.141138e-004
1.645008e+003,-5.622519e-004
1.646937e+003,-4.009024e-004
1.648865e+003,-7.259230e-004
1.650794e+003,-6.062940e-004
1.652722e+003,3.818720e-004
1.654651e+003,-2.410826e-004
1.656579e+003,-1.116209e-003
1.658508e+003,-1.259452e-003
1.660436e+003,-1.048321e-003
1.662365e+003,-6.605877e-004
1.664293e+003,-6.517874e-004
1.666222e+003,-7.365081e-004
1.668150e+003,-1.854116e-004
1.670079e+003,1.240716e-004
1.672007e+003,-2.331348e-004
1.673936e+003,-1.768666e-004
1.675864e+003,-2.335887e-005
1.677793e+003,-3.654472e-004
1.679721e+003,-3.983204e-004
1.681650e+003,-2.100853e-004
1.683578e+003,1.895681e-004
1.685507e+003,3.015208e-006
1.687435e+003,-4.387050e-004
1.689364e+003,-6.050367e-004
1.691292e+003,-7.054799e-004
1.693221e+003,-6.078822e-004
1.695149e+003,-3.111175e-005
1.697078e+003,5.155963e-005
1.699006e+003,3.189328e-004
1.700935e+003,5.738629e-004
1.702863e+003,-7.129860e-005
1.704792e+003,-1.144961e-004
1.706720e+003,-1.224130e-004
1.708649e+003,-3.267112e-004
1.710577e+003,-4.435707e-004
1.712506e+003,-3.731278e-004
1.714434e+003,-1.041609e-004
1.716363e+003,1.567192e-004
1.718291e+003,7.485625e-005
1.720220e+003,-5.146311e-004
1.722148e+003,-6.561214e-004
1.724077e+003,-4.739226e-004
1.726005e+003,-5.913380e-004
1.727934e+003,-6.459314e-004
1.729862e+003,-5.186024e-004
1.731791e+003,-3.537275e-004
1.733719e+003,1.754470e-004
1.735648e+003,-2.097334e-005
1.737576e+003,-3.597198e-004
1.739505e+003,-1.741176e-004
1.741433e+003,-2.312140e-004
1.743362e+003,-2.425397e-004
1.745290e+003,-2.398904e-004
1.747219e+003,-2.592627e-004
1.749147e+003,-1.508000e-004
1.751076e+003,1.776021e-005
1.753004e+003,-2.333666e-004
1.754933e+003,-3.980887e-004
1.756861e+003,-3.878595e-004
1.758790e+003,-4.861686e-004
1.760718e+003,-2.814487e-004
1.762647e+003,-2.097210e-004
1.764575e+003,-4.933175e-004
1.766504e+003,-5.162196e-004
1.768432e+003,-4.358583e-004
1.770361e+003,-3.385642e-004
1.772289e+003,-3.810247e-005
1.774218e+003,-1.879287e-004
1.776146e+003,-4.022928e-004
1.778075e+003,-4.582008e-004
1.780003e+003,-4.033852e-004
1.781932e+003,-4.662769e-004
1.783860e+003,-5.286961e-004
1.785789e+003,-5.172124e-004
1.787717e+003,-5.962021e-004
1.789646e+003,-4.879227e-004
1.791574e+003,-2.002160e-004
1.793503e+003,-2.370425e-004
1.795431e+003,-4.193076e-004
1.797360e+003,-4.429418e-004
1.799288e+003,-4.086486e-004
1.801217e+003,-4.420150e-004
1.803145e+003,-6.089741e-004
1.805074e+003,-6.653186e-004
1.807002e+003,-5.994778e-004
1.808931e+003,-5.320055e-004
1.810859e+003,-5.106266e-004
1.812788e+003,-5.914042e-004
1.814716e+003,-7.211597e-004
1.816645e+003,-7.523191e-004
1.818573e+003,-8.257100e-004
1.820502e+003,-8.143334e-004
1.822430e+003,-7.503675e-004
1.824359e+003,-6.522505e-004
1.826287e+003,-6.054668e-004
1.828216e+003,-5.770434e-004
1.830144e+003,-6.152276e-004
1.832073e+003,-7.572805e-004
1.834001e+003,-7.833108e-004
1.835930e+003,-8.249164e-004
1.837858e+003,-8.749501e-004
1.839787e+003,-8.194596e-004
1.841715e+003,-6.726300e-004
1.843644e+003,-3.846484e-004
1.845572e+003,-4.636952e-004
1.847501e+003,-6.322010e-004
1.849429e+003,-6.453689e-004
1.851358e+003,-7.245007e-004
1.853286e+003,-7.122614e-004
1.855215e+003,-6.386527e-004
1.857143e+003,-6.764014e-004
1.859072e+003,-7.174879e-004
1.861000e+003,-7.004186e-004
1.862929e+003,-6.190657e-004
1.864857e+003,-6.027205e-004
1.866786e+003,-5.649322e-004
1.868714e+003,-5.194298e-004
1.870643e+003,-6.646570e-004
1.872571e+003,-7.607535e-004
1.874500e+003,-7.399151e-004
1.876428e+003,-6.501331e-004
1.878357e+003,-7.063731e-004
1.880285e+003,-8.093726e-004
1.882214e+003,-8.533566e-004
1.884142e+003,-7.716354e-004
1.886071e+003,-6.511587e-004
1.887999e+003,-5.996102e-004
1.889928e+003,-6.739202e-004
1.891856e+003,-8.030558e-004
1.893785e+003,-8.225021e-004
1.895713e+003,-7.658142e-004
1.897642e+003,-6.638299e-004
1.899570e+003,-6.934055e-004
1.901499e+003,-6.753428e-004
1.903427e+003,-6.154592e-004
1.905356e+003,-5.893858e-004
1.907284e+003,-6.381233e-004
1.909213e+003,-6.549304e-004
1.911141e+003,-6.869215e-004
1.913070e+003,-7.403120e-004
1.914998e+003,-7.585705e-004
1.916927e+003,-5.628475e-004
1.918855e+003,-5.285307e-004
1.920784e+003,-6.369653e-004
1.922712e+003,-5.800877e-004
1.924641e+003,-6.136725e-004
1.926569e+003,-6.711744e-004
1.928498e+003,-7.139815e-004
1.930426e+003,-7.795403e-004
1.932355e+003,-6.937032e-004
1.934283e+003,-7.118644e-004
1.936212e+003,-7.928361e-004
1.938140e+003,-8.011706e-004
1.940069e+003,-8.189966e-004
1.941997e+003,-6.780886e-004
1.943926e+003,-6.964490e-004
1.945854e+003,-8.382438e-004
1.947783e+003,-8.040479e-004
1.949711e+003,-7.334980e-004
1.951640e+003,-7.833770e-004
1.953568e+003,-8.765373e-004
1.955497e+003,-8.483962e-004
1.957425e+003,-8.367556e-004
1.959354e+003,-8.508764e-004
1.961282e+003,-8.310344e-004
1.963211e+003,-8.348376e-004
1.965139e+003,-8.314974e-004
1.967068e+003,-9.493453e-004
1.968996e+003,-9.849843e-004
1.970925e+003,-9.034532e-004
1.972853e+003,-8.761736e-004
1.974782e+003,-9.153566e-004
1.976710e+003,-8.680059e-004
1.978639e+003,-7.528483e-004
1.980567e+003,-7.982602e-004
1.982496e+003,-7.841708e-004
1.984424e+003,-7.599597e-004
1.986353e+003,-8.052386e-004
1.988281e+003,-8.352014e-004
1.990210e+003,-8.015013e-004
1.992138e+003,-8.581516e-004
1.994067e+003,-9.062638e-004
1.995995e+003,-8.150610e-004
1.997924e+003,-7.511944e-004
1.999852e+003,-8.132090e-004
2.001781e+003,-8.512402e-004
2.003709e+003,-8.404925e-004
2.005638e+003,-8.350029e-004
2.007566e+003,-9.287804e-004
2.009495e+003,-1.039925e-003
2.011423e+003,-1.017612e-003
2.013352e+003,-9.451134e-004
2.015280e+003,-8.877470e-004
2.017208e+003,-8.521000e-004
2.019137e+003,-9.112565e-004
2.021066e+003,-9.499735e-004
2.022994e+003,-9.824388e-004
2.024922e+003,-1.093404e-003
2.026851e+003,-1.018868e-003
2.028780e+003,-8.823902e-004
2.030708e+003,-8.713127e-004
2.032636e+003,-9.424023e-004
2.034565e+003,-9.586355e-004
2.036494e+003,-9.208121e-004
2.038422e+003,-8.673115e-004
2.040350e+003,-8.601026e-004
2.042279e+003,-8.665840e-004
2.044208e+003,-8.360943e-004
2.046136e+003,-7.817232e-004
2.048064e+003,-8.473049e-004
2.049993e+003,-8.654927e-004
2.051921e+003,-7.851299e-004
2.053850e+003,-8.068922e-004
2.055778e+003,-8.563328e-004
2.057707e+003,-8.233289e-004
2.059635e+003,-8.460152e-004
2.061564e+003,-8.331510e-004
2.063492e+003,-8.217084e-004
2.065421e+003,-7.752737e-004
2.067349e+003,-7.503013e-004
2.069278e+003,-7.201673e-004
2.071206e+003,-6.481150e-004
2.073135e+003,-6.979376e-004
2.075063e+003,-7.825170e-004
2.076992e+003,-7.834431e-004
2.078920e+003,-7.528813e-004
2.080849e+003,-7.359789e-004
2.082777e+003,-6.191650e-004
2.084706e+003,-5.324688e-004
2.086634e+003,-6.012315e-004
2.088563e+003,-6.347817e-004
2.090491e+003,-6.253853e-004
2.092420e+003,-6.500339e-004
2.094348e+003,-6.416965e-004
2.096277e+003,-6.089741e-004
2.098205e+003,-5.687046e-004
2.100134e+003,-5.745616e-004
2.102062e+003,-6.658480e-004
2.103991e+003,-7.215235e-004
2.105919e+003,-6.979045e-004
2.107848e+003,-6.391159e-004
2.109776e+003,-6.410348e-004
2.111705e+003,-5.503058e-004
2.113633e+003,-4.962631e-004
2.115562e+003,-4.954687e-004
2.117490e+003,-5.815767e-004
2.119419e+003,-6.642931e-004
2.121347e+003,-5.714842e-004
2.123276e+003,-4.941780e-004
2.125204e+003,-5.143001e-004
2.127133e+003,-4.887502e-004
2.129061e+003,-4.553543e-004
2.130990e+003,-4.614445e-004
2.132918e+003,-5.156901e-004
2.134847e+003,-5.904777e-004
2.136775e+003,-6.431523e-004
2.138704e+003,-6.051028e-004
2.140632e+003,-5.230040e-004
2.142561e+003,-4.597564e-004
2.144489e+003,-3.998431e-004
2.146418e+003,-4.121575e-004
2.148346e+003,-4.239088e-004
2.150275e+003,-4.477082e-004
2.152203e+003,-4.307276e-004
2.154132e+003,-4.833885e-004
2.156060e+003,-4.759746e-004
2.157989e+003,-4.347329e-004
2.159917e+003,-4.287085e-004
2.161846e+003,-3.963010e-004
2.163774e+003,-3.475695e-004
2.165703e+003,-3.958707e-004
2.167631e+003,-5.036435e-004
2.169560e+003,-4.750479e-004
2.171488e+003,-4.442327e-004
2.173417e+003,-4.527063e-004
2.175345e+003,-4.151698e-004
2.177274e+003,-3.911037e-004
2.179202e+003,-3.276383e-004
2.181131e+003,-3.507147e-004
2.183059e+003,-3.893161e-004
2.184988e+003,-4.182152e-004
2.186916e+003,-3.821655e-004
2.188845e+003,-3.389615e-004
2.190773e+003,-3.795171e-004
2.192702e+003,-3.063818e-004
2.194630e+003,-3.195596e-004
2.196559e+003,-3.575016e-004
2.198487e+003,-3.790205e-004
2.200416e+003,-4.564465e-004
2.202344e+003,-4.356928e-004
2.204273e+003,-3.487614e-004
2.206201e+003,-4.300656e-004
2.208130e+003,-4.238425e-004
2.210058e+003,-4.407241e-004
2.211987e+003,-4.161960e-004
2.213915e+003,-3.910044e-004
2.215844e+003,-3.356175e-004
2.217772e+003,-2.687664e-004
2.219701e+003,-3.626001e-004
2.221629e+003,-3.606468e-004
2.223558e+003,-3.090637e-004
2.225486e+003,-2.954220e-004
2.227415e+003,-3.597529e-004
2.229343e+003,-3.722339e-004
2.231272e+003,-3.772659e-004
2.233200e+003,-3.337634e-004
2.235129e+003,-2.874089e-004
2.237057e+003,-3.205198e-004
2.238986e+003,-3.724988e-004
2.240914e+003,-3.579982e-004
2.242843e+003,-3.713069e-004
2.244771e+003,-4.249349e-004
2.246700e+003,-3.787557e-004
2.248628e+003,-3.734257e-004
2.250557e+003,-4.626029e-004
2.252485e+003,-4.546260e-004
2.254414e+003,-3.426364e-004
2.256342e+003,-3.869326e-004
2.258271e+003,-4.237102e-004
2.260199e+003,-4.850433e-004
2.262128e+003,-5.538797e-004
2.264056e+003,-6.296203e-004
2.265985e+003,-5.198931e-004
2.267913e+003,-4.536000e-004
2.269842e+003,-4.794499e-004
2.271770e+003,-4.139781e-004
2.273699e+003,-4.796154e-004
2.275627e+003,-5.268760e-004
2.277556e+003,-5.527877e-004
2.279484e+003,-5.802200e-004
2.281413e+003,-5.186355e-004
2.283341e+003,-4.403931e-004
2.285270e+003,-5.198270e-004
2.287198e+003,-6.412002e-004
2.289127e+003,-6.636314e-004
2.291055e+003,-6.451043e-004
2.292984e+003,-6.422258e-004
2.294912e+003,-6.632674e-004
2.296841e+003,-6.635321e-004
2.298769e+003,-6.168489e-004
2.300698e+003,-5.583471e-004
2.302626e+003,-5.792935e-004
2.304555e+003,-6.479496e-004
2.306483e+003,-6.259808e-004
2.308412e+003,-5.703591e-004
2.310340e+003,-5.310789e-004
2.312269e+003,-5.198931e-004
2.314197e+003,-5.614577e-004
2.316125e+003,-4.710761e-004
2.318054e+003,-3.729622e-004
2.319983e+003,-4.279471e-004
2.321911e+003,-3.760741e-004
2.323840e+003,-2.433014e-004
2.325768e+003,-1.587493e-004
2.327697e+003,9.973461e-006
2.329625e+003,1.142281e-004
2.331553e+003,1.213869e-004
2.333482e+003,1.475709e-004
2.335411e+003,1.391190e-004
2.337339e+003,1.255630e-004
2.339268e+003,2.402219e-004
2.341196e+003,2.347850e-004
2.343125e+003,5.096314e-005
2.345053e+003,-1.273486e-004
2.346981e+003,-3.124741e-004
2.348910e+003,-4.675677e-004
2.350839e+003,-3.632953e-004
2.352767e+003,-1.611341e-004
2.354696e+003,-3.479060e-006
2.356624e+003,1.432621e-004
2.358552e+003,3.180044e-004
2.360481e+003,4.707252e-004
2.362409e+003,5.470892e-004
2.364338e+003,4.682043e-004
2.366267e+003,4.203098e-004
2.368195e+003,5.131517e-004
2.370124e+003,3.263603e-004
2.372052e+003,1.424766e-006
2.373980e+003,-3.124741e-004
2.375909e+003,-3.682943e-004
2.377838e+003,-5.009627e-004
2.379766e+003,-6.445087e-004
2.381695e+003,-6.813637e-004
2.383623e+003,-7.238391e-004
2.385552e+003,-7.411721e-004
2.387480e+003,-7.144446e-004
2.389408e+003,-6.540702e-004
2.391337e+003,-6.272711e-004
2.393266e+003,-6.648224e-004
2.395194e+003,-5.953418e-004
2.397123e+003,-4.804759e-004
2.399051e+003,-4.486350e-004
2.400979e+003,-4.157326e-004
2.402908e+003,-5.128771e-004
2.404836e+003,-5.667523e-004
2.406765e+003,-5.606966e-004
2.408694e+003,-5.220111e-004
2.410622e+003,-4.877242e-004
2.412551e+003,-5.264457e-004
2.414479e+003,-4.552880e-004
2.416407e+003,-4.111313e-004
2.418336e+003,-4.705135e-004
2.420264e+003,-3.882567e-004
2.422193e+003,-2.459506e-004
2.424122e+003,-2.305848e-004
2.426050e+003,-3.506154e-004
2.427979e+003,-4.253652e-004
2.429907e+003,-3.996114e-004
2.431835e+003,-3.029051e-004
2.433764e+003,-2.280349e-004
2.435692e+003,-2.911175e-004
2.437621e+003,-3.518403e-004
2.439550e+003,-2.762169e-004
2.441478e+003,-2.068728e-004
2.443406e+003,-3.324722e-004
2.445335e+003,-4.523091e-004
2.447263e+003,-4.533352e-004
2.449192e+003,-3.442587e-004
2.451121e+003,-2.730049e-004
2.453049e+003,-3.166129e-004
2.454978e+003,-3.364783e-004
2.456906e+003,-3.435304e-004
2.458834e+003,-3.669701e-004
2.460763e+003,-3.017794e-004
2.462691e+003,-2.490634e-004
2.464620e+003,-2.769454e-004
2.466549e+003,-3.037991e-004
2.468477e+003,-2.491959e-004
2.470406e+003,-1.842524e-004
2.472334e+003,-1.638169e-004
2.474262e+003,-1.808079e-004
2.476191e+003,-2.014414e-004
2.478119e+003,-2.320751e-004
2.480048e+003,-2.885679e-004
2.481977e+003,-3.204536e-004
2.483905e+003,-3.037991e-004
2.485833e+003,-2.858858e-004
2.487762e+003,-2.129003e-004
2.489690e+003,-1.361927e-004
2.491619e+003,-1.435792e-004
2.493547e+003,-1.296673e-004
2.495476e+003,-6.212188e-005
2.497405e+003,-1.072748e-004
2.499333e+003,-1.329797e-004
2.501261e+003,-7.719545e-005
2.503190e+003,-8.935331e-005
2.505118e+003,-6.434154e-005
2.507047e+003,2.084181e-005
2.508975e+003,-3.571702e-005
2.510904e+003,8.117916e-006
2.512833e+003,1.703123e-005
2.514761e+003,-7.590345e-005
2.516689e+003,-8.266156e-005
2.518618e+003,-6.725689e-005
2.520546e+003,3.976103e-006
2.522475e+003,1.110464e-004
2.524403e+003,2.786662e-005
2.526332e+003,-3.376227e-005
2.528260e+003,-4.671875e-006
2.530189e+003,5.709370e-005
2.532117e+003,5.981106e-005
2.534046e+003,-3.028346e-005
2.535974e+003,-8.448358e-005
2.537903e+003,-1.981370e-005
2.539831e+003,1.185366e-004
2.541760e+003,1.311643e-004
2.543688e+003,2.677313e-005
2.545617e+003,5.722626e-005
2.547545e+003,1.388538e-004
2.549474e+003,8.960369e-005
2.551402e+003,7.793825e-005
2.553331e+003,8.357209e-005
2.555259e+003,1.002089e-004
2.557188e+003,1.275516e-004
2.559116e+003,2.509634e-004
2.561045e+003,2.717510e-004
2.562973e+003,1.666299e-004
2.564902e+003,2.425758e-004
2.566830e+003,3.242713e-004
2.568759e+003,2.877651e-004
2.570687e+003,2.317682e-004
2.572616e+003,1.495265e-004
2.574544e+003,1.661990e-004
2.576473e+003,3.291457e-004
2.578401e+003,3.356781e-004
2.580330e+003,2.331937e-004
2.582258e+003,2.710216e-004
2.584187e+003,2.936337e-004
2.586115e+003,2.770226e-004
2.588044e+003,1.666299e-004
2.589972e+003,1.141949e-004
2.591901e+003,1.458143e-004
2.593829e+003,1.941757e-004
2.595758e+003,3.194965e-004
2.597686e+003,3.526894e-004
2.599615e+003,2.877319e-004
2.601543e+003,2.867040e-004
2.603472e+003,2.901854e-004
2.605400e+003,3.165122e-004
2.607329e+003,4.322166e-004
2.609257e+003,5.564781e-004
2.611186e+003,5.783088e-004
2.613114e+003,5.314969e-004
2.615043e+003,6.024300e-004
2.616971e+003,6.629878e-004
2.618900e+003,6.460308e-004
2.620828e+003,6.795804e-004
2.622757e+003,7.182769e-004
2.624685e+003,7.492101e-004
2.626614e+003,8.370762e-004
2.628542e+003,7.980040e-004
2.630471e+003,8.025849e-004
2.632399e+003,9.405334e-004
2.634328e+003,9.790539e-004
2.636256e+003,9.694899e-004
2.638185e+003,1.018574e-003
2.640113e+003,1.132373e-003
2.642042e+003,1.113504e-003
2.643970e+003,1.051123e-003
2.645899e+003,1.144100e-003
2.647827e+003,1.296347e-003
2.649756e+003,1.342677e-003
2.651684e+003,1.324031e-003
2.653613e+003,1.465104e-003
2.655541e+003,1.598042e-003
2.657470e+003,1.470756e-003
2.659398e+003,1.464373e-003
2.661327e+003,1.543373e-003
2.663255e+003,1.625712e-003
2.665184e+003,1.697722e-003
2.667112e+003,1.744993e-003
2.669041e+003,1.723303e-003
2.670969e+003,1.664427e-003
2.672898e+003,1.756870e-003
2.674826e+003,1.856320e-003
2.676755e+003,1.896752e-003
2.678683e+003,1.946541e-003
2.680612e+003,1.982721e-003
2.682540e+003,1.999330e-003
2.684469e+003,2.015475e-003
2.686397e+003,2.034317e-003
2.688326e+003,2.172690e-003
2.690254e+003,2.273202e-003
2.692183e+003,2.219779e-003
2.694111e+003,2.300582e-003
2.696040e+003,2.347185e-003
2.697968e+003,2.358812e-003
2.699897e+003,2.420281e-003
2.701825e+003,2.474562e-003
2.703754e+003,2.542280e-003
2.705682e+003,2.615809e-003
2.707611e+003,2.742231e-003
2.709539e+003,2.844642e-003
2.711468e+003,2.920090e-003
2.713396e+003,2.957786e-003
2.715325e+003,3.019641e-003
2.717253e+003,3.049670e-003
2.719182e+003,3.128125e-003
2.721110e+003,3.197280e-003
2.723039e+003,3.253260e-003
2.724967e+003,3.459316e-003
2.726896e+003,3.573924e-003
2.728824e+003,3.607199e-003
2.730753e+003,3.715262e-003
2.732681e+003,3.811217e-003
2.734610e+003,3.887703e-003
2.736538e+003,3.988011e-003
2.738467e+003,4.159356e-003
2.740395e+003,4.325347e-003
2.742324e+003,4.453908e-003
2.744252e+003,4.468504e-003
2.746181e+003,4.525184e-003
2.748109e+003,4.701229e-003
2.750038e+003,4.865083e-003
2.751966e+003,4.920340e-003
2.753895e+003,5.118539e-003
2.755823e+003,5.293651e-003
2.757752e+003,5.361811e-003
2.759680e+003,5.517121e-003
2.761609e+003,5.762128e-003
2.763537e+003,6.069697e-003
2.765466e+003,6.401796e-003
2.767394e+003,6.698749e-003
2.769323e+003,7.030655e-003
2.771251e+003,7.431975e-003
2.773180e+003,7.916870e-003
2.775108e+003,8.484031e-003
2.777037e+003,9.098692e-003
2.778965e+003,9.784470e-003
2.780894e+003,1.054486e-002
2.782822e+003,1.130114e-002
2.784750e+003,1.206406e-002
2.786679e+003,1.284685e-002
2.788608e+003,1.354924e-002
2.790536e+003,1.445873e-002
2.792465e+003,1.547564e-002
2.794393e+003,1.636527e-002
2.796322e+003,1.704230e-002
2.798250e+003,1.770126e-002
2.800178e+003,1.840333e-002
2.802107e+003,1.905408e-002
2.804036e+003,1.962357e-002
2.805964e+003,2.019839e-002
2.807893e+003,2.046773e-002
2.809821e+003,2.052564e-002
2.811750e+003,2.059491e-002
2.813678e+003,2.054103e-002
2.815606e+003,2.041546e-002
2.817535e+003,2.027914e-002
2.819464e+003,1.999958e-002
2.821392e+003,1.962243e-002
2.823321e+003,1.923005e-002
2.825249e+003,1.874500e-002
2.827177e+003,1.813709e-002
2.829106e+003,1.758504e-002
2.831034e+003,1.697352e-002
2.832963e+003,1.637993e-002
2.834892e+003,1.583907e-002
2.836820e+003,1.530039e-002
2.838749e+003,1.467395e-002
2.840677e+003,1.402223e-002
2.842605e+003,1.346830e-002
2.844534e+003,1.295395e-002
2.846462e+003,1.237490e-002
2.848391e+003,1.184257e-002
2.850320e+003,1.140981e-002
2.852248e+003,1.117033e-002
2.854177e+003,1.109680e-002
2.856105e+003,1.086762e-002
2.858033e+003,1.066977e-002
2.859962e+003,1.055800e-002
2.861890e+003,1.065133e-002
2.863819e+003,1.068954e-002
2.865748e+003,1.051750e-002
2.867676e+003,1.055470e-002
2.869604e+003,1.079669e-002
2.871533e+003,1.097343e-002
2.873461e+003,1.112991e-002
2.875390e+003,1.125006e-002
2.877319e+003,1.139641e-002
2.879247e+003,1.148707e-002
2.881176e+003,1.146502e-002
2.883104e+003,1.151531e-002
2.885032e+003,1.160412e-002
2.886961e+003,1.144236e-002
2.888889e+003,1.142199e-002
2.890818e+003,1.138579e-002
2.892747e+003,1.113243e-002
2.894675e+003,1.092752e-002
2.896604e+003,1.085669e-002
2.898532e+003,1.095046e-002
2.900460e+003,1.102743e-002
2.902389e+003,1.102488e-002
2.904317e+003,1.095811e-002
2.906246e+003,1.083321e-002
2.908175e+003,1.079785e-002
2.910103e+003,1.088709e-002
2.912031e+003,1.096310e-002
2.913960e+003,1.100048e-002
2.915888e+003,1.099987e-002
2.917817e+003,1.110663e-002
2.919745e+003,1.124445e-002
2.921674e+003,1.143331e-002
2.923603e+003,1.173516e-002
2.925531e+003,1.197920e-002
2.927459e+003,1.224213e-002
2.929388e+003,1.246330e-002
2.931316e+003,1.262882e-002
2.933245e+003,1.272571e-002
2.935173e+003,1.279978e-002
2.937102e+003,1.283961e-002
2.939031e+003,1.280695e-002
2.940959e+003,1.263847e-002
2.942887e+003,1.247060e-002
2.944816e+003,1.216027e-002
2.946744e+003,1.163723e-002
2.948673e+003,1.108613e-002
2.950601e+003,1.043515e-002
2.952530e+003,9.753090e-003
2.954458e+003,9.033902e-003
2.956387e+003,8.258455e-003
2.958315e+003,7.386744e-003
2.960244e+003,6.658237e-003
2.962172e+003,6.015470e-003
2.964101e+003,5.447663e-003
2.966029e+003,4.824775e-003
2.967958e+003,4.065029e-003
2.969886e+003,3.530362e-003
2.971815e+003,3.085108e-003
2.973743e+003,2.524716e-003
2.975672e+003,2.070071e-003
2.977600e+003,1.831796e-003
2.979529e+003,1.513247e-003
2.981457e+003,1.217758e-003
2.983386e+003,1.145794e-003
2.985314e+003,1.031859e-003
2.987243e+003,7.679635e-004
2.989171e+003,6.023637e-004
2.991100e+003,5.708106e-004
2.993028e+003,4.427970e-004
2.994957e+003,3.708288e-004
2.996885e+003,3.046418e-004
2.998814e+003,3.035807e-004
3.000742e+003,3.146222e-004
3.002671e+003,3.460904e-004
3.004599e+003,4.332116e-004
3.006528e+003,3.380325e-004
3.008456e+003,1.528079e-004
3.010385e+003,1.546310e-004
3.012313e+003,1.012031e-004
3.014242e+003,4.493208e-005
3.016170e+003,3.615074e-005
3.018099e+003,1.264579e-004
3.020027e+003,1.088921e-004
3.021956e+003,4.373914e-005
3.023884e+003,4.675465e-005
3.025813e+003,1.249333e-004
3.027741e+003,4.996901e-005
3.029670e+003,-5.364070e-005
3.031598e+003,7.667894e-005
3.033527e+003,5.855180e-005
3.035455e+003,2.094122e-005
3.037384e+003,1.423340e-004
3.039312e+003,1.819771e-004
3.041241e+003,7.747429e-005
3.043169e+003,3.625015e-005
3.045098e+003,-7.659914e-005
3.047026e+003,-8.597432e-005
3.048955e+003,-3.353035e-005
3.050883e+003,-5.708620e-005
3.052812e+003,-7.189492e-005
3.054740e+003,-5.032769e-005
3.056669e+003,-1.141318e-004
3.058597e+003,-1.285411e-004
3.060526e+003,-1.051216e-004
3.062454e+003,-1.504687e-004
3.064383e+003,-1.005170e-004
3.066311e+003,-1.231418e-004
3.068240e+003,-4.959882e-005
3.070168e+003,-3.856631e-005
3.072097e+003,-1.148274e-004
3.074025e+003,-7.325318e-005
3.075954e+003,1.557328e-005
3.077882e+003,8.128541e-005
3.079811e+003,3.999463e-005
3.081739e+003,-8.726629e-005
3.083668e+003,-1.965729e-004
3.085596e+003,-1.641481e-004
3.087525e+003,-9.322918e-005
3.089453e+003,-1.625914e-004
3.091382e+003,-8.961833e-005
3.093310e+003,1.021311e-004
3.095239e+003,7.532020e-005
3.097167e+003,2.349267e-005
3.099096e+003,1.128361e-004
3.101024e+003,1.774690e-004
3.102953e+003,1.127366e-004
3.104881e+003,-2.660582e-005
3.106810e+003,-3.478935e-005
3.108738e+003,5.003528e-005
3.110667e+003,1.620225e-004
3.112595e+003,2.692644e-004
3.114524e+003,3.258961e-004
3.116452e+003,2.665789e-004
3.118381e+003,2.051150e-004
3.120309e+003,8.453316e-005
3.122238e+003,7.648009e-005
3.124166e+003,1.257619e-004
3.126095e+003,1.366000e-004
3.128023e+003,1.682541e-004
3.129952e+003,2.311383e-004
3.131880e+003,3.625714e-004
3.133809e+003,2.946616e-004
3.135737e+003,2.888592e-004
3.137666e+003,4.645888e-004
3.139594e+003,4.625323e-004
3.141523e+003,4.704599e-004
3.143451e+003,5.978180e-004
3.145380e+003,5.761522e-004
3.147308e+003,5.374020e-004
3.149237e+003,6.139436e-004
3.151165e+003,7.677312e-004
3.153094e+003,8.931180e-004
3.155022e+003,8.108174e-004
3.156951e+003,8.867432e-004
3.158879e+003,1.040793e-003
3.160808e+003,1.034118e-003
3.162736e+003,1.023490e-003
3.164665e+003,1.000441e-003
3.166593e+003,8.205771e-004
3.168522e+003,9.008210e-004
3.170450e+003,1.082645e-003
3.172379e+003,1.150910e-003
3.174307e+003,1.284450e-003
3.176236e+003,1.400413e-003
3.178164e+003,1.358664e-003
3.180093e+003,1.325959e-003
3.182021e+003,1.322070e-003
3.183950e+003,1.319677e-003
3.185878e+003,1.337026e-003
3.187807e+003,1.371028e-003
3.189735e+003,1.397587e-003
3.191664e+003,1.408823e-003
3.193592e+003,1.381931e-003
3.195521e+003,1.404335e-003
3.197449e+003,1.562692e-003
3.199378e+003,1.539249e-003
3.201306e+003,1.318913e-003
3.203235e+003,1.283420e-003
3.205163e+003,1.285081e-003
3.207092e+003,1.242712e-003
3.209020e+003,1.433056e-003
3.210948e+003,1.527478e-003
3.212877e+003,1.544204e-003
3.214806e+003,1.486416e-003
3.216734e+003,1.549557e-003
3.218663e+003,1.577125e-003
3.220591e+003,1.555044e-003
3.222520e+003,1.550056e-003
3.224448e+003,1.572037e-003
3.226376e+003,1.654282e-003
3.228305e+003,1.711827e-003
3.230234e+003,1.854989e-003
3.232162e+003,1.948604e-003
3.234091e+003,2.096406e-003
3.236019e+003,2.171824e-003
3.237948e+003,1.973101e-003
3.239876e+003,1.968674e-003
3.241804e+003,2.098703e-003
3.243733e+003,2.297484e-003
3.245662e+003,2.487025e-003
3.247590e+003,2.596609e-003
3.249519e+003,2.672448e-003
3.251447e+003,2.673948e-003
3.253375e+003,2.770841e-003
3.255304e+003,2.977002e-003
3.257232e+003,3.019407e-003
3.259161e+003,2.966827e-003
3.261090e+003,3.094485e-003
3.263018e+003,3.243178e-003
3.264947e+003,3.103329e-003
3.266875e+003,3.074096e-003
3.268803e+003,3.392190e-003
3.270732e+003,3.463926e-003
3.272660e+003,3.435403e-003
3.274589e+003,3.465796e-003
3.276518e+003,3.423481e-003
3.278446e+003,3.396898e-003
3.280375e+003,3.335824e-003
3.282303e+003,3.434301e-003
3.284231e+003,3.557354e-003
3.286160e+003,3.442751e-003
3.288088e+003,3.535406e-003
3.290017e+003,3.540049e-003
3.291946e+003,3.335424e-003
3.293874e+003,3.254028e-003
3.295802e+003,3.179189e-003
3.297731e+003,3.052840e-003
3.299659e+003,3.038693e-003
3.301588e+003,2.947645e-003
3.303516e+003,2.803154e-003
3.305445e+003,2.667247e-003
3.307374e+003,2.440240e-003
3.309302e+003,2.347385e-003
3.311230e+003,2.273502e-003
3.313159e+003,2.212153e-003
3.315087e+003,2.101600e-003
3.317016e+003,1.883807e-003
3.318944e+003,1.630801e-003
3.320873e+003,1.524419e-003
3.322802e+003,1.439273e-003
3.324730e+003,1.451374e-003
3.326658e+003,1.516107e-003
3.328587e+003,1.396424e-003
3.330515e+003,1.353445e-003
3.332444e+003,1.455895e-003
3.334372e+003,1.605292e-003
3.336301e+003,1.690205e-003
3.338229e+003,1.620823e-003
3.340158e+003,1.460417e-003
3.342086e+003,1.500779e-003
3.344015e+003,1.781289e-003
3.345943e+003,1.720309e-003
3.347872e+003,1.534627e-003
3.349800e+003,1.467764e-003
3.351729e+003,1.574132e-003
3.353657e+003,1.510920e-003
3.355586e+003,1.514444e-003
3.357514e+003,1.697357e-003
3.359443e+003,1.747555e-003
3.361371e+003,1.528210e-003
3.363300e+003,1.526315e-003
3.365229e+003,1.479301e-003
3.367157e+003,1.151708e-003
3.369085e+003,8.244943e-004
3.371014e+003,8.829250e-004
3.372942e+003,8.795385e-004
3.374871e+003,7.026120e-004
3.376799e+003,4.840266e-004
3.378728e+003,1.965625e-004
3.380656e+003,5.391243e-005
3.382585e+003,-4.370160e-005
3.384513e+003,-2.941638e-004
3.386442e+003,-5.247580e-004
3.388370e+003,-7.370043e-004
3.390299e+003,-7.975987e-004
3.392227e+003,-7.142792e-004
3.394156e+003,-8.546793e-004
3.396084e+003,-1.064682e-003
3.398013e+003,-9.225314e-004
3.399941e+003,-9.523208e-004
3.401870e+003,-1.170174e-003
3.403798e+003,-1.259551e-003
3.405727e+003,-1.284230e-003
3.407655e+003,-1.324466e-003
3.409584e+003,-1.333253e-003
3.411512e+003,-1.372956e-003
3.413441e+003,-1.220036e-003
3.415369e+003,-1.156328e-003
3.417298e+003,-1.291234e-003
3.419226e+003,-1.252779e-003
3.421155e+003,-1.287071e-003
3.423083e+003,-1.372791e-003
3.425012e+003,-1.314424e-003
3.426940e+003,-1.260212e-003
3.428869e+003,-1.169976e-003
3.430797e+003,-1.226050e-003
3.432726e+003,-1.364996e-003
3.434654e+003,-1.341776e-003
3.436583e+003,-1.313169e-003
3.438511e+003,-1.345013e-003
3.440440e+003,-1.338208e-003
3.442368e+003,-1.195156e-003
3.444297e+003,-1.188811e-003
3.446225e+003,-1.036322e-003
3.448154e+003,-1.107682e-003
3.450082e+003,-1.209463e-003
3.452011e+003,-1.182996e-003
3.453939e+003,-1.295628e-003
3.455868e+003,-1.369389e-003
3.457796e+003,-1.349241e-003
3.459725e+003,-1.339794e-003
3.461653e+003,-1.184978e-003
3.463582e+003,-1.135575e-003
3.465510e+003,-1.265168e-003
3.467439e+003,-1.213296e-003
3.469367e+003,-1.097899e-003
3.471296e+003,-1.201103e-003
3.473224e+003,-1.296255e-003
3.475153e+003,-1.199055e-003
3.477081e+003,-1.098197e-003
3.479010e+003,-1.155370e-003
3.480938e+003,-1.232955e-003
3.482867e+003,-1.213197e-003
3.484795e+003,-1.316737e-003
3.486724e+003,-1.276929e-003
3.488652e+003,-1.140433e-003
3.490581e+003,-1.120208e-003
3.492509e+003,-1.266357e-003
3.494438e+003,-1.249673e-003
3.496366e+003,-1.127280e-003
3.498295e+003,-1.191719e-003
3.500223e+003,-1.222679e-003
3.502152e+003,-1.148860e-003
3.504080e+003,-1.123248e-003
3.506009e+003,-1.129428e-003
3.507937e+003,-1.020158e-003
3.509866e+003,-9.097686e-004
3.511794e+003,-9.299046e-004
3.513723e+003,-1.066632e-003
3.515651e+003,-1.250763e-003
3.517580e+003,-1.155205e-003
3.519508e+003,-1.039363e-003
3.521437e+003,-9.409806e-004
3.523365e+003,-8.244202e-004
3.525294e+003,-9.884555e-004
3.527222e+003,-1.098461e-003
3.529151e+003,-9.459399e-004
3.531079e+003,-8.519015e-004
3.533008e+003,-8.927069e-004
3.534936e+003,-9.161832e-004
3.536865e+003,-1.100841e-003
3.538793e+003,-1.263516e-003
3.540722e+003,-1.258560e-003
3.542650e+003,-1.191653e-003
3.544579e+003,-1.146976e-003
3.546507e+003,-1.060815e-003
3.548436e+003,-1.074895e-003
3.550364e+003,-1.059361e-003
3.552293e+003,-1.091950e-003
3.554221e+003,-1.150281e-003
3.556150e+003,-9.703059e-004
3.558078e+003,-8.748840e-004
3.560007e+003,-8.284880e-004
3.561935e+003,-9.611151e-004
3.563864e+003,-1.083158e-003
3.565792e+003,-8.939965e-004
3.567721e+003,-6.367999e-004
3.569649e+003,-7.961435e-004
3.571578e+003,-9.988358e-004
3.573506e+003,-1.095189e-003
3.575435e+003,-1.124471e-003
3.577363e+003,-1.143011e-003
3.579292e+003,-1.113466e-003
3.581220e+003,-9.099339e-004
3.583149e+003,-1.073507e-003
3.585077e+003,-1.084249e-003
3.587006e+003,-7.927369e-004
3.588934e+003,-9.258378e-004
3.590863e+003,-1.247757e-003
3.592791e+003,-1.128932e-003
3.594720e+003,-9.396250e-004
3.596648e+003,-9.597265e-004
3.598577e+003,-1.041214e-003
3.600505e+003,-1.119315e-003
3.602434e+003,-1.242305e-003
3.604362e+003,-1.300021e-003
3.606291e+003,-1.173380e-003
3.608219e+003,-9.465020e-004
3.610148e+003,-9.144638e-004
3.612076e+003,-8.827539e-004
3.614005e+003,-7.700478e-004
3.615933e+003,-8.765043e-004
3.617862e+003,-8.136720e-004
3.619790e+003,-7.719992e-004
3.621719e+003,-1.133162e-003
3.623647e+003,-1.210256e-003
3.625576e+003,-1.128205e-003
3.627504e+003,-8.106293e-004
3.629433e+003,-5.303508e-004
3.631361e+003,-1.061013e-003
3.633290e+003,-1.218715e-003
3.635218e+003,-1.258560e-003
3.637146e+003,-1.285618e-003
3.639075e+003,-1.385540e-003
3.641004e+003,-1.388843e-003
3.642932e+003,-1.468962e-003
3.644861e+003,-1.610835e-003
3.646789e+003,-1.092875e-003
3.648718e+003,-3.945134e-004
3.650646e+003,-5.206212e-004
3.652574e+003,-1.428112e-003
3.654503e+003,-1.620013e-003
3.656432e+003,-1.174867e-003
3.658360e+003,-1.400040e-003
3.660289e+003,-1.590533e-003
3.662217e+003,-1.648203e-003
3.664146e+003,-1.938680e-003
3.666074e+003,-1.951082e-003
3.668002e+003,-1.725502e-003
3.669931e+003,-1.117564e-003
3.671860e+003,-1.143176e-003
3.673788e+003,-1.032818e-003
3.675717e+003,-3.835559e-004
3.677645e+003,-1.025777e-003
3.679573e+003,-1.498285e-003
3.681502e+003,-1.552930e-003
3.683430e+003,-1.483261e-003
3.685359e+003,-1.535794e-003
3.687288e+003,-1.184284e-003
3.689216e+003,-7.307525e-004
3.691145e+003,-1.024819e-003
3.693073e+003,-1.323872e-003
3.695001e+003,-1.449611e-003
3.696930e+003,-1.530941e-003
3.698858e+003,-1.558905e-003
3.700787e+003,-1.425734e-003
3.702716e+003,-1.449149e-003
3.704644e+003,-1.489502e-003
3.706573e+003,-1.264705e-003
3.708501e+003,-9.366163e-004
3.710429e+003,-8.560682e-004
3.712358e+003,-7.418667e-004
3.714286e+003,-1.236193e-003
3.716215e+003,-1.469293e-003
3.718144e+003,-1.245774e-003
3.720072e+003,-1.230114e-003
3.722000e+003,-1.178270e-003
3.723929e+003,-1.077341e-003
3.725857e+003,-9.126452e-004
3.727786e+003,-9.340044e-004
3.729714e+003,-9.399887e-004
3.731643e+003,-5.575860e-004
3.733572e+003,-4.594254e-004
3.735500e+003,-1.335428e-004
3.737428e+003,-3.152885e-004
3.739357e+003,-8.579532e-004
3.741285e+003,-9.287804e-004
3.743214e+003,-1.116142e-004
3.745142e+003,7.630843e-004
3.747071e+003,1.041196e-004
3.749000e+003,3.907598e-004
3.750928e+003,6.430442e-004
3.752856e+003,4.673087e-004
3.754785e+003,-1.364908e-004
3.756713e+003,-1.149599e-004
3.758642e+003,-4.797544e-005
3.760570e+003,-3.094609e-005
3.762499e+003,-2.327043e-004
3.764427e+003,3.383117e-005
3.766356e+003,-8.813565e-006
3.768284e+003,-4.575570e-005
3.770213e+003,4.761622e-005
3.772141e+003,-3.893075e-005
3.774070e+003,-3.160500e-004
3.775998e+003,-5.491476e-004
3.777927e+003,-3.092955e-004
3.779855e+003,-2.733692e-004
3.781784e+003,-6.890387e-004
3.783712e+003,-6.507618e-004
3.785641e+003,-6.676014e-004
3.787569e+003,-7.769274e-004
3.789498e+003,-6.682631e-004
3.791426e+003,-5.047025e-004
3.793355e+003,-5.582478e-004
3.795283e+003,-4.702487e-004
3.797212e+003,-4.001080e-004
3.799140e+003,-5.247911e-004
3.801069e+003,1.519130e-004
3.802997e+003,3.707625e-004
3.804926e+003,1.413728e-004
3.806854e+003,2.715189e-004
3.808783e+003,-2.117080e-004
3.810711e+003,-2.857864e-004
3.812640e+003,-4.370499e-004
3.814568e+003,-3.199238e-004
3.816497e+003,3.529546e-004
3.818425e+003,9.443303e-006
3.820354e+003,1.647406e-004
3.822282e+003,3.438023e-004
3.824211e+003,-6.927775e-005
3.826139e+003,-2.102508e-004
3.828068e+003,-3.620372e-004
3.829996e+003,-2.401554e-004
3.831925e+003,-1.258911e-004
3.833853e+003,-2.605873e-004
3.835782e+003,-1.307604e-004
3.837710e+003,3.351807e-004
3.839639e+003,3.294110e-004
3.841567e+003,-8.110455e-005
3.843496e+003,-2.850249e-004
3.845424e+003,-3.094279e-004
3.847353e+003,-3.678970e-004
3.849281e+003,-2.496264e-004
3.851210e+003,1.776016e-004
3.853138e+003,1.189549e-003
3.855067e+003,9.158953e-004
3.856995e+003,-1.039622e-004
3.858924e+003,-3.648844e-004
3.860852e+003,-5.476712e-005
3.862781e+003,3.236413e-004
3.864709e+003,4.371917e-004
3.866638e+003,8.930542e-005
3.868566e+003,1.600669e-004
3.870495e+003,5.946328e-004
3.872423e+003,5.381302e-005
3.874352e+003,-2.419105e-004
3.876280e+003,-3.132687e-004
3.878209e+003,-2.043889e-004
3.880137e+003,1.076327e-004
3.882066e+003,-2.183647e-004
3.883994e+003,-3.435635e-004
3.885923e+003,2.213587e-004
3.887851e+003,-1.428505e-004
3.889780e+003,-2.443611e-004
3.891708e+003,1.005403e-004
3.893637e+003,-1.658042e-004
3.895565e+003,-3.793185e-004
3.897494e+003,-7.905062e-005
3.899422e+003,2.733756e-004
3.901351e+003,3.654565e-004
3.903279e+003,5.357433e-004
3.905208e+003,3.798490e-004
3.907136e+003,-9.021462e-005
3.909065e+003,-2.433014e-004
3.910993e+003,-1.885580e-004
3.912922e+003,-6.265195e-005
3.914850e+003,-5.897819e-006
3.916779e+003,-4.181315e-005
3.918707e+003,-2.432682e-004
3.920636e+003,-4.689909e-004
3.922564e+003,-4.797147e-004
3.924493e+003,-6.844953e-005
3.926421e+003,4.513091e-005
3.928350e+003,-1.512968e-004
3.930278e+003,-7.355134e-005
3.932207e+003,1.197629e-004
3.934135e+003,8.614859e-007
3.936064e+003,-2.249881e-004
3.937992e+003,-1.229430e-004
3.939921e+003,-1.108192e-004
3.941849e+003,-1.861403e-004
3.943778e+003,-1.950825e-004
3.945706e+003,-6.295012e-005
3.947635e+003,-6.218814e-005
3.949563e+003,-1.268186e-004
3.951492e+003,-1.094942e-004
3.953420e+003,-1.675928e-004
3.955349e+003,-2.546598e-004
3.957277e+003,-2.880712e-004
3.959206e+003,-2.875083e-004
3.961134e+003,-2.237628e-004
3.963063e+003,-9.892698e-005
3.964991e+003,-1.119124e-004
3.966920e+003,-2.734685e-004
3.968848e+003,-1.192662e-004
3.970777e+003,6.024186e-005
3.972705e+003,-3.681036e-005
3.974634e+003,-9.306354e-005
3.976562e+003,-1.201605e-004
3.978491e+003,-1.074073e-004
3.980419e+003,-1.831264e-004
3.982348e+003,-1.898166e-004
3.984276e+003,-1.700437e-004
3.986205e+003,-2.262465e-004
3.988133e+003,-1.702425e-004
3.990062e+003,-1.660029e-004
3.991990e+003,-5.615857e-005
3.993919e+003,4.798074e-005
3.995847e+003,-4.409917e-005
3.997776e+003,-1.480839e-004
3.999704e+003,-7.600283e-005
4.001633e+003,0.000000e+000
