3.991989e+002,-1.665400e-003
4.011274e+002,7.251045e-003
4.030559e+002,6.085893e-003
4.049844e+002,6.644173e-003
4.069129e+002,7.265297e-003
4.088414e+002,8.995776e-003
4.107699e+002,8.771321e-003
4.126984e+002,4.600857e-003
4.146269e+002,-2.720678e-003
4.165554e+002,-7.611504e-004
4.184839e+002,6.574164e-003
4.204124e+002,6.801929e-003
4.223409e+002,7.563987e-003
4.242694e+002,9.306729e-003
4.261979e+002,7.977713e-003
4.281264e+002,6.687745e-003
4.300549e+002,4.112625e-003
4.319834e+002,-2.853321e-003
4.339119e+002,-1.524073e-003
4.358404e+002,6.661131e-003
4.377689e+002,7.893992e-003
4.396974e+002,3.749918e-003
4.416259e+002,2.874059e-003
4.435544e+002,4.604474e-003
4.454829e+002,6.822359e-003
4.474114e+002,9.594395e-003
4.493399e+002,6.078635e-003
4.512684e+002,1.997833e-003
4.531969e+002,3.328078e-003
4.551254e+002,6.157807e-003
4.570539e+002,5.657784e-003
4.589824e+002,2.941073e-003
4.609109e+002,5.694577e-003
4.628394e+002,7.983856e-003
4.647679e+002,6.399711e-003
4.666964e+002,5.540579e-003
4.686249e+002,4.335120e-003
4.705533e+002,4.054226e-003
4.724819e+002,6.188222e-003
4.744103e+002,4.902311e-003
4.763389e+002,4.365776e-003
4.782673e+002,5.257765e-003
4.801959e+002,4.310690e-003
4.821243e+002,3.900441e-003
4.840529e+002,2.659112e-003
4.859813e+002,3.212535e-003
4.879099e+002,6.470970e-003
4.898383e+002,7.298520e-003
4.917668e+002,5.393781e-003
4.936953e+002,5.229292e-003
4.956238e+002,4.504727e-003
4.975523e+002,3.258101e-003
4.994808e+002,5.953120e-003
5.014093e+002,5.999646e-003
5.033378e+002,4.261935e-003
5.052663e+002,3.893052e-003
5.071948e+002,3.345274e-003
5.091233e+002,3.002858e-003
5.110518e+002,2.672914e-003
5.129803e+002,2.274035e-003
5.149088e+002,1.784783e-003
5.168373e+002,2.592276e-003
5.187658e+002,3.119815e-003
5.206943e+002,3.999180e-003
5.226228e+002,2.741531e-003
5.245513e+002,2.151245e-003
5.264798e+002,2.440173e-003
5.284083e+002,2.666213e-003
5.303368e+002,8.527791e-004
5.322653e+002,2.292936e-005
5.341938e+002,-8.630560e-005
5.361223e+002,-1.030015e-004
5.380508e+002,1.167469e-004
5.399792e+002,1.786679e-003
5.419078e+002,1.731320e-003
5.438363e+002,1.131742e-003
5.457648e+002,5.236677e-004
5.476932e+002,-3.468742e-004
5.496218e+002,2.407855e-004
5.515503e+002,1.683320e-003
5.534788e+002,5.918789e-004
5.554072e+002,9.318999e-004
5.573358e+002,2.050962e-003
5.592643e+002,2.429910e-003
5.611927e+002,8.394665e-004
5.631212e+002,7.294617e-004
5.650497e+002,6.884743e-004
5.669783e+002,1.283140e-004
5.689067e+002,9.375781e-004
5.708352e+002,9.225029e-004
5.727637e+002,-1.395050e-004
5.746923e+002,-8.643811e-005
5.766207e+002,1.735978e-003
5.785492e+002,1.667121e-003
5.804777e+002,-9.742507e-003
5.824063e+002,-1.046997e-002
5.843347e+002,-7.792427e-005
5.862632e+002,3.136768e-003
5.881917e+002,2.622843e-003
5.901202e+002,7.939874e-004
5.920487e+002,-1.161979e-003
5.939772e+002,-1.926804e-003
5.959057e+002,-1.491780e-003
5.978342e+002,-1.015728e-003
5.997627e+002,-4.263914e-004
6.016912e+002,-9.371454e-004
6.036197e+002,-8.729661e-004
6.055482e+002,-4.564796e-004
6.074767e+002,-2.307835e-004
6.094052e+002,-1.114160e-003
6.113337e+002,-3.426364e-004
6.132622e+002,8.326277e-004
6.151907e+002,2.529858e-004
6.171192e+002,-4.288078e-004
6.190477e+002,-4.498266e-004
6.209762e+002,-3.537275e-004
6.229047e+002,-1.012621e-003
6.248332e+002,-1.981230e-003
6.267617e+002,-1.920834e-003
6.286902e+002,-8.931368e-004
6.306187e+002,2.085626e-004
6.325472e+002,7.282337e-004
6.344756e+002,1.245404e-003
6.364042e+002,8.815306e-004
6.383326e+002,6.487186e-004
6.402612e+002,4.158521e-005
6.421896e+002,4.657829e-004
6.441182e+002,7.190735e-004
6.460466e+002,6.326913e-004
6.479752e+002,7.293290e-004
6.499036e+002,6.103269e-004
6.518322e+002,4.498950e-004
6.537606e+002,7.130663e-004
6.556891e+002,5.542553e-004
6.576177e+002,5.492457e-004
6.595461e+002,6.061130e-004
6.614746e+002,8.267730e-005
6.634031e+002,-3.522707e-004
6.653317e+002,8.612391e-005
6.672601e+002,1.125596e-003
6.691886e+002,1.518833e-003
6.711171e+002,1.302296e-003
6.730457e+002,1.567348e-003
6.749741e+002,1.334567e-003
6.769026e+002,1.049329e-003
6.788311e+002,1.268499e-003
6.807596e+002,1.281858e-003
6.826881e+002,1.111145e-003
6.846166e+002,1.090019e-003
6.865451e+002,1.348127e-003
6.884736e+002,1.086531e-003
6.904021e+002,9.201455e-004
6.923306e+002,1.069591e-003
6.942591e+002,1.329947e-003
6.961876e+002,1.346000e-003
6.981161e+002,1.465171e-003
7.000446e+002,1.449479e-003
7.019731e+002,1.306550e-003
7.039016e+002,1.505101e-003
7.058301e+002,1.535924e-003
7.077585e+002,1.601834e-003
7.096871e+002,1.942880e-003
7.116156e+002,1.800254e-003
7.135441e+002,1.191808e-003
7.154725e+002,1.090484e-003
7.174011e+002,1.500912e-003
7.193296e+002,2.024130e-003
7.212581e+002,2.296984e-003
7.231865e+002,2.522383e-003
7.251151e+002,2.780745e-003
7.270436e+002,3.244914e-003
7.289720e+002,3.632224e-003
7.309005e+002,3.595238e-003
7.328290e+002,3.307745e-003
7.347576e+002,3.532400e-003
7.366860e+002,3.422779e-003
7.386145e+002,3.339698e-003
7.405430e+002,3.686122e-003
7.424716e+002,3.994665e-003
7.444000e+002,3.923610e-003
7.463285e+002,4.025465e-003
7.482570e+002,4.046801e-003
7.501855e+002,4.130387e-003
7.521140e+002,4.882942e-003
7.540425e+002,5.636234e-003
7.559710e+002,5.652212e-003
7.578995e+002,5.890947e-003
7.598280e+002,5.684472e-003
7.617565e+002,5.158907e-003
7.636850e+002,5.272186e-003
7.656135e+002,5.980632e-003
7.675420e+002,6.268657e-003
7.694705e+002,5.759677e-003
7.713990e+002,5.246496e-003
7.733275e+002,5.497155e-003
7.752560e+002,5.750510e-003
7.771844e+002,5.587934e-003
7.791130e+002,4.946848e-003
7.810415e+002,4.641111e-003
7.829700e+002,4.462980e-003
7.848984e+002,4.495889e-003
7.868270e+002,4.980631e-003
7.887555e+002,5.504873e-003
7.906840e+002,5.608576e-003
7.926124e+002,5.717440e-003
7.945410e+002,5.589243e-003
7.964695e+002,5.586088e-003
7.983979e+002,5.813570e-003
8.003264e+002,5.926785e-003
8.022549e+002,6.151657e-003
8.041835e+002,6.277196e-003
8.061119e+002,5.731037e-003
8.080404e+002,5.183552e-003
8.099689e+002,5.194953e-003
8.118975e+002,5.511014e-003
8.138259e+002,5.622169e-003
8.157545e+002,5.589612e-003
8.176830e+002,5.607334e-003
8.196115e+002,5.446690e-003
8.215399e+002,5.446824e-003
8.234684e+002,5.722073e-003
8.253970e+002,5.844835e-003
8.273254e+002,6.129678e-003
8.292539e+002,5.939784e-003
8.311824e+002,5.532390e-003
8.331110e+002,5.677020e-003
8.350394e+002,5.699982e-003
8.369679e+002,5.893533e-003
8.388964e+002,6.027699e-003
8.408250e+002,6.044297e-003
8.427534e+002,5.732649e-003
8.446819e+002,5.312099e-003
8.466104e+002,5.591458e-003
8.485389e+002,5.563836e-003
8.504674e+002,5.362985e-003
8.523959e+002,5.382140e-003
8.543244e+002,5.600856e-003
8.562529e+002,5.681854e-003
8.581814e+002,5.572529e-003
8.601099e+002,5.526585e-003
8.620384e+002,5.568199e-003
8.639669e+002,5.629520e-003
8.658954e+002,5.623143e-003
8.678239e+002,5.294221e-003
8.697524e+002,5.273629e-003
8.716809e+002,5.366071e-003
8.736094e+002,5.583705e-003
8.755378e+002,5.431659e-003
8.774664e+002,5.320250e-003
8.793949e+002,5.009691e-003
8.813234e+002,4.906567e-003
8.832518e+002,4.915179e-003
8.851804e+002,4.569415e-003
8.871089e+002,4.544804e-003
8.890374e+002,4.385422e-003
8.909658e+002,4.434593e-003
8.928943e+002,4.712953e-003
8.948229e+002,4.692722e-003
8.967513e+002,4.622256e-003
8.986798e+002,4.516981e-003
9.006083e+002,4.426761e-003
9.025369e+002,4.355167e-003
9.044653e+002,4.261299e-003
9.063938e+002,4.015833e-003
9.083223e+002,3.838260e-003
9.102509e+002,3.754363e-003
9.121793e+002,4.019211e-003
9.141078e+002,3.962096e-003
9.160364e+002,3.783675e-003
9.179648e+002,3.991923e-003
9.198933e+002,4.066133e-003
9.218218e+002,4.125503e-003
9.237504e+002,4.119248e-003
9.256788e+002,3.870118e-003
9.276073e+002,3.554581e-003
9.295358e+002,3.585182e-003
9.314644e+002,3.726056e-003
9.333928e+002,3.738789e-003
9.353213e+002,3.187967e-003
9.372498e+002,2.836938e-003
9.391783e+002,3.045566e-003
9.411068e+002,3.551942e-003
9.430353e+002,3.360200e-003
9.449637e+002,3.255764e-003
9.468923e+002,3.718570e-003
9.488208e+002,3.742866e-003
9.507493e+002,3.771543e-003
9.526777e+002,3.312586e-003
9.546063e+002,3.095086e-003
9.565348e+002,2.954517e-003
9.584633e+002,2.577743e-003
9.603917e+002,2.316338e-003
9.623203e+002,2.192438e-003
9.642488e+002,2.234100e-003
9.661772e+002,2.362543e-003
9.681057e+002,2.269138e-003
9.700343e+002,2.018571e-003
9.719628e+002,2.248754e-003
9.738912e+002,2.218247e-003
9.758197e+002,1.944577e-003
9.777483e+002,1.725033e-003
9.796768e+002,1.525018e-003
9.816052e+002,1.530637e-003
9.835337e+002,1.574863e-003
9.854623e+002,1.583909e-003
9.873907e+002,1.589695e-003
9.893192e+002,1.526049e-003
9.912477e+002,1.384324e-003
9.931763e+002,1.550123e-003
9.951047e+002,1.716484e-003
9.970332e+002,1.700184e-003
9.989617e+002,1.946407e-003
1.000890e+003,2.252618e-003
1.002819e+003,2.405321e-003
1.004747e+003,2.710822e-003
1.006676e+003,2.824398e-003
1.008604e+003,3.125221e-003
1.010533e+003,3.498395e-003
1.012461e+003,3.620296e-003
1.014390e+003,3.720676e-003
1.016318e+003,4.187725e-003
1.018247e+003,4.473492e-003
1.020175e+003,4.520329e-003
1.022104e+003,4.699856e-003
1.024032e+003,4.901507e-003
1.025961e+003,5.161791e-003
1.027889e+003,5.300628e-003
1.029818e+003,5.357483e-003
1.031746e+003,5.713042e-003
1.033675e+003,5.998740e-003
1.035603e+003,6.075510e-003
1.037532e+003,6.352301e-003
1.039460e+003,6.732635e-003
1.041389e+003,6.831582e-003
1.043317e+003,6.876923e-003
1.045246e+003,7.129839e-003
1.047174e+003,7.235783e-003
1.049103e+003,7.068305e-003
1.051031e+003,6.858847e-003
1.052960e+003,6.844070e-003
1.054888e+003,6.866185e-003
1.056817e+003,6.798361e-003
1.058745e+003,6.692288e-003
1.060674e+003,6.738894e-003
1.062602e+003,6.970954e-003
1.064531e+003,6.964523e-003
1.066459e+003,6.936039e-003
1.068388e+003,7.098448e-003
1.070316e+003,7.262771e-003
1.072245e+003,7.287165e-003
1.074173e+003,7.093497e-003
1.076102e+003,7.032609e-003
1.078030e+003,6.967756e-003
1.079959e+003,6.870427e-003
1.081887e+003,7.034292e-003
1.083816e+003,7.267083e-003
1.085744e+003,7.310381e-003
1.087673e+003,7.308224e-003
1.089601e+003,7.370432e-003
1.091530e+003,7.362142e-003
1.093458e+003,7.192695e-003
1.095387e+003,7.050928e-003
1.097315e+003,6.906413e-003
1.099244e+003,6.830235e-003
1.101172e+003,6.863728e-003
1.103101e+003,6.808458e-003
1.105029e+003,6.940484e-003
1.106958e+003,6.854572e-003
1.108886e+003,6.904797e-003
1.110815e+003,6.853596e-003
1.112743e+003,6.682227e-003
1.114672e+003,6.628192e-003
1.116600e+003,6.993783e-003
1.118529e+003,7.290298e-003
1.120457e+003,7.159851e-003
1.122386e+003,7.155169e-003
1.124314e+003,7.219882e-003
1.126243e+003,7.086189e-003
1.128171e+003,6.911497e-003
1.130100e+003,7.045203e-003
1.132028e+003,7.070461e-003
1.133957e+003,6.709887e-003
1.135885e+003,6.427655e-003
1.137814e+003,6.128032e-003
1.139742e+003,5.689340e-003
1.141671e+003,5.473834e-003
1.143599e+003,5.191432e-003
1.145528e+003,4.838512e-003
1.147456e+003,4.449925e-003
1.149385e+003,4.175180e-003
1.151313e+003,3.900675e-003
1.153242e+003,3.596207e-003
1.155170e+003,3.387581e-003
1.157099e+003,3.100893e-003
1.159027e+003,2.788781e-003
1.160956e+003,2.678148e-003
1.162884e+003,2.743098e-003
1.164813e+003,2.668313e-003
1.166741e+003,2.518017e-003
1.168670e+003,2.502454e-003
1.170598e+003,2.519150e-003
1.172526e+003,2.448270e-003
1.174455e+003,2.247156e-003
1.176384e+003,2.340522e-003
1.178312e+003,2.456234e-003
1.180240e+003,2.363076e-003
1.182169e+003,2.376169e-003
1.184098e+003,2.283294e-003
1.186026e+003,2.106794e-003
1.187954e+003,2.083821e-003
1.189883e+003,2.181948e-003
1.191812e+003,2.085519e-003
1.193740e+003,1.979026e-003
1.195668e+003,1.696725e-003
1.197597e+003,1.356802e-003
1.199526e+003,1.340516e-003
1.201454e+003,1.486183e-003
1.203382e+003,1.608718e-003
1.205311e+003,1.559434e-003
1.207240e+003,1.542408e-003
1.209168e+003,1.496689e-003
1.211096e+003,1.528110e-003
1.213025e+003,1.740868e-003
1.214953e+003,1.798823e-003
1.216882e+003,1.675503e-003
1.218810e+003,1.510089e-003
1.220739e+003,1.467166e-003
1.222667e+003,1.542574e-003
1.224596e+003,1.566949e-003
1.226524e+003,1.407027e-003
1.228453e+003,1.251252e-003
1.230381e+003,1.162040e-003
1.232310e+003,1.156924e-003
1.234238e+003,1.134266e-003
1.236167e+003,1.052186e-003
1.238095e+003,1.000707e-003
1.240024e+003,1.087992e-003
1.241952e+003,1.053448e-003
1.243881e+003,8.317978e-004
1.245809e+003,7.973069e-004
1.247738e+003,8.536755e-004
1.249666e+003,1.069325e-003
1.251595e+003,1.146459e-003
1.253523e+003,1.159183e-003
1.255452e+003,1.240386e-003
1.257380e+003,1.344438e-003
1.259309e+003,1.419693e-003
1.261237e+003,1.463542e-003
1.263166e+003,1.515841e-003
1.265094e+003,1.719178e-003
1.267023e+003,1.878083e-003
1.268951e+003,1.826972e-003
1.270880e+003,1.714521e-003
1.272808e+003,1.571571e-003
1.274737e+003,1.493198e-003
1.276665e+003,1.481661e-003
1.278594e+003,1.462212e-003
1.280522e+003,1.410285e-003
1.282451e+003,1.265508e-003
1.284379e+003,1.235003e-003
1.286308e+003,1.250455e-003
1.288236e+003,1.281260e-003
1.290165e+003,1.240685e-003
1.292093e+003,1.110880e-003
1.294022e+003,1.109219e-003
1.295950e+003,1.049396e-003
1.297879e+003,8.815970e-004
1.299807e+003,7.487786e-004
1.301736e+003,6.029941e-004
1.303664e+003,3.771628e-004
1.305593e+003,2.173143e-004
1.307521e+003,2.277900e-004
1.309450e+003,2.564669e-004
1.311378e+003,-6.693024e-006
1.313307e+003,-2.668127e-004
1.315235e+003,-1.829607e-004
1.317164e+003,-8.219777e-005
1.319092e+003,-2.212790e-004
1.321021e+003,-2.421092e-004
1.322949e+003,-2.144899e-004
1.324878e+003,-1.315222e-004
1.326806e+003,-4.705008e-006
1.328735e+003,2.310057e-004
1.330663e+003,4.764637e-004
1.332592e+003,6.751667e-004
1.334520e+003,7.640136e-004
1.336449e+003,8.711719e-004
1.338377e+003,1.079522e-003
1.340306e+003,1.086930e-003
1.342234e+003,1.000208e-003
1.344163e+003,1.100549e-003
1.346091e+003,1.183170e-003
1.348020e+003,1.197058e-003
1.349948e+003,1.111112e-003
1.351877e+003,1.028173e-003
1.353805e+003,1.084970e-003
1.355734e+003,1.072812e-003
1.357662e+003,1.009939e-003
1.359591e+003,1.050459e-003
1.361519e+003,9.999428e-004
1.363448e+003,8.041451e-004
1.365376e+003,4.755681e-004
1.367305e+003,1.354068e-004
1.369233e+003,-1.645125e-004
1.371162e+003,-3.176061e-004
1.373090e+003,-2.637994e-004
1.375019e+003,-3.731609e-004
1.376947e+003,-6.515888e-004
1.378876e+003,-8.189304e-004
1.380804e+003,-8.788851e-004
1.382733e+003,-9.129759e-004
1.384661e+003,-9.002459e-004
1.386590e+003,-7.262869e-004
1.388518e+003,-8.071898e-004
1.390447e+003,-1.223571e-003
1.392375e+003,-1.353733e-003
1.394304e+003,-1.132237e-003
1.396232e+003,-1.375004e-003
1.398161e+003,-1.645034e-003
1.400089e+003,-1.698868e-003
1.402018e+003,-1.897445e-003
1.403946e+003,-2.063417e-003
1.405875e+003,-2.151984e-003
1.407803e+003,-2.210733e-003
1.409732e+003,-2.217820e-003
1.411660e+003,-2.067868e-003
1.413589e+003,-1.952567e-003
1.415517e+003,-1.820209e-003
1.417446e+003,-1.330148e-003
1.419374e+003,-9.223330e-004
1.421303e+003,-1.055394e-003
1.423231e+003,-9.170428e-004
1.425160e+003,-4.888164e-004
1.427088e+003,-1.815366e-004
1.429017e+003,2.124411e-004
1.430945e+003,5.880964e-004
1.432874e+003,1.108853e-003
1.434802e+003,1.919316e-003
1.436731e+003,2.607676e-003
1.438659e+003,2.661613e-003
1.440588e+003,2.872825e-003
1.442516e+003,3.298263e-003
1.444445e+003,3.654945e-003
1.446373e+003,4.111153e-003
1.448302e+003,4.419363e-003
1.450230e+003,4.544067e-003
1.452159e+003,4.702971e-003
1.454087e+003,5.000373e-003
1.456016e+003,5.700217e-003
1.457944e+003,5.855044e-003
1.459873e+003,5.182614e-003
1.461801e+003,4.716872e-003
1.463730e+003,4.593658e-003
1.465658e+003,4.381707e-003
1.467587e+003,3.796276e-003
1.469515e+003,3.426086e-003
1.471444e+003,3.434335e-003
1.473372e+003,3.197514e-003
1.475301e+003,2.586543e-003
1.477229e+003,1.942147e-003
1.479158e+003,1.321738e-003
1.481086e+003,9.184852e-004
1.483015e+003,4.272416e-004
1.484943e+003,1.734251e-004
1.486872e+003,2.857094e-004
1.488800e+003,2.371388e-004
1.490729e+003,7.465741e-005
1.492657e+003,-2.673094e-004
1.494586e+003,-3.616400e-004
1.496514e+003,-2.437650e-004
1.498443e+003,-3.637919e-004
1.500371e+003,-7.793088e-004
1.502300e+003,-9.771823e-004
1.504228e+003,-5.234673e-004
1.506157e+003,2.808355e-004
1.508085e+003,1.746199e-005
1.510014e+003,-5.843562e-004
1.511942e+003,-8.313982e-004
1.513871e+003,-9.713969e-004
1.515799e+003,-7.370043e-004
1.517728e+003,-6.140365e-004
1.519656e+003,-4.937808e-004
1.521585e+003,-1.998517e-004
1.523513e+003,-4.224523e-004
1.525442e+003,-5.189003e-004
1.527370e+003,-7.265185e-004
1.529299e+003,-8.918472e-004
1.531227e+003,-8.496198e-004
1.533156e+003,-3.904416e-004
1.535084e+003,-5.071847e-004
1.537013e+003,-5.456067e-004
1.538941e+003,2.600143e-004
1.540870e+003,7.080881e-004
1.542798e+003,4.263793e-004
1.544727e+003,1.298386e-004
1.546655e+003,-2.643623e-004
1.548584e+003,-3.719691e-004
1.550512e+003,-3.041965e-004
1.552441e+003,-2.069722e-004
1.554369e+003,4.383855e-005
1.556298e+003,3.397236e-004
1.558226e+003,1.260989e-003
1.560155e+003,1.269762e-003
1.562083e+003,5.826551e-004
1.564012e+003,5.709765e-004
1.565940e+003,6.744698e-004
1.567869e+003,9.864595e-004
1.569797e+003,1.493497e-003
1.571726e+003,1.327687e-003
1.573654e+003,1.315756e-003
1.575583e+003,1.946541e-003
1.577511e+003,2.093043e-003
1.579440e+003,1.868033e-003
1.581368e+003,1.995602e-003
1.583297e+003,1.992507e-003
1.585225e+003,2.051494e-003
1.587154e+003,2.148482e-003
1.589082e+003,2.209988e-003
1.591010e+003,2.165963e-003
1.592939e+003,2.190506e-003
1.594868e+003,2.289723e-003
1.596796e+003,2.372271e-003
1.598724e+003,2.316604e-003
1.600653e+003,2.190539e-003
1.602582e+003,2.156140e-003
1.604510e+003,2.095640e-003
1.606438e+003,1.991641e-003
1.608367e+003,1.881777e-003
1.610296e+003,1.579286e-003
1.612224e+003,1.262418e-003
1.614152e+003,1.303459e-003
1.616081e+003,1.604893e-003
1.618010e+003,1.268166e-003
1.619938e+003,7.085859e-004
1.621866e+003,7.525624e-004
1.623795e+003,6.148395e-004
1.625724e+003,2.537815e-004
1.627652e+003,5.805472e-005
1.629580e+003,-2.016070e-004
1.631509e+003,-4.983812e-004
1.633438e+003,-3.498870e-004
1.635366e+003,1.760437e-004
1.637294e+003,-8.408605e-005
1.639223e+003,-6.604223e-004
1.641151e+003,-9.644873e-004
1.643080e+003,-1.190562e-003
1.645008e+003,-9.894803e-004
1.646937e+003,-7.024365e-004
1.648865e+003,-1.192743e-003
1.650794e+003,-1.169712e-003
1.652722e+003,-1.621277e-004
1.654651e+003,-7.428260e-004
1.656579e+003,-1.551774e-003
1.658508e+003,-1.650612e-003
1.660436e+003,-1.489733e-003
1.662365e+003,-1.114259e-003
1.664293e+003,-1.125198e-003
1.666222e+003,-1.207976e-003
1.668150e+003,-7.578428e-004
1.670079e+003,-4.385395e-004
1.672007e+003,-6.077499e-004
1.673936e+003,-4.832892e-004
1.675864e+003,-4.130843e-004
1.677793e+003,-8.667163e-004
1.679721e+003,-1.063955e-003
1.681650e+003,-9.185968e-004
1.683578e+003,-2.021700e-004
1.685507e+003,-4.087479e-004
1.687435e+003,-1.027331e-003
1.689364e+003,-1.122323e-003
1.691292e+003,-1.138020e-003
1.693221e+003,-1.019728e-003
1.695149e+003,-5.286299e-004
1.697078e+003,-4.746838e-004
1.699006e+003,-1.837888e-004
1.700935e+003,5.493971e-005
1.702863e+003,-5.884924e-004
1.704792e+003,-5.891211e-004
1.706720e+003,-6.929424e-004
1.708649e+003,-9.379719e-004
1.710577e+003,-1.168720e-003
1.712506e+003,-1.136599e-003
1.714434e+003,-8.537534e-004
1.716363e+003,-5.036435e-004
1.718291e+003,-5.015254e-004
1.720220e+003,-9.411790e-004
1.722148e+003,-1.109830e-003
1.724077e+003,-1.107682e-003
1.726005e+003,-1.167134e-003
1.727934e+003,-1.140995e-003
1.729862e+003,-1.157254e-003
1.731791e+003,-9.296731e-004
1.733719e+003,-3.773652e-004
1.735648e+003,-6.801066e-004
1.737576e+003,-1.029612e-003
1.739505e+003,-8.590444e-004
1.741433e+003,-9.972160e-004
1.743362e+003,-1.035859e-003
1.745290e+003,-1.103154e-003
1.747219e+003,-1.038702e-003
1.749147e+003,-8.973692e-004
1.751076e+003,-7.116990e-004
1.753004e+003,-8.825886e-004
1.754933e+003,-9.883894e-004
1.756861e+003,-9.064621e-004
1.758790e+003,-1.110061e-003
1.760718e+003,-1.011530e-003
1.762647e+003,-9.152904e-004
1.764575e+003,-1.183755e-003
1.766504e+003,-1.172025e-003
1.768432e+003,-9.994970e-004
1.770361e+003,-9.094049e-004
1.772289e+003,-6.765007e-004
1.774218e+003,-8.021959e-004
1.776146e+003,-1.065310e-003
1.778075e+003,-1.249111e-003
1.780003e+003,-1.287005e-003
1.781932e+003,-1.315151e-003
1.783860e+003,-1.217988e-003
1.785789e+003,-1.029347e-003
1.787717e+003,-1.088678e-003
1.789646e+003,-1.134484e-003
1.791574e+003,-8.547786e-004
1.793503e+003,-8.598712e-004
1.795431e+003,-1.169084e-003
1.797360e+003,-1.144002e-003
1.799288e+003,-1.053576e-003
1.801217e+003,-1.108012e-003
1.803145e+003,-1.306463e-003
1.805074e+003,-1.322584e-003
1.807002e+003,-1.282149e-003
1.808931e+003,-1.327175e-003
1.810859e+003,-1.364468e-003
1.812788e+003,-1.400304e-003
1.814716e+003,-1.460575e-003
1.816645e+003,-1.492540e-003
1.818573e+003,-1.496073e-003
1.820502e+003,-1.424644e-003
1.822430e+003,-1.392410e-003
1.824359e+003,-1.285915e-003
1.826287e+003,-1.236920e-003
1.828216e+003,-1.162376e-003
1.830144e+003,-1.125859e-003
1.832073e+003,-1.400601e-003
1.834001e+003,-1.488775e-003
1.835930e+003,-1.464901e-003
1.837858e+003,-1.516941e-003
1.839787e+003,-1.584591e-003
1.841715e+003,-1.504823e-003
1.843644e+003,-1.147505e-003
1.845572e+003,-1.225785e-003
1.847501e+003,-1.478869e-003
1.849429e+003,-1.403243e-003
1.851358e+003,-1.343824e-003
1.853286e+003,-1.431051e-003
1.855215e+003,-1.501884e-003
1.857143e+003,-1.463084e-003
1.859072e+003,-1.449875e-003
1.861000e+003,-1.507762e-003
1.862929e+003,-1.507894e-003
1.864857e+003,-1.377184e-003
1.866786e+003,-1.317728e-003
1.868714e+003,-1.216038e-003
1.870643e+003,-1.330115e-003
1.872571e+003,-1.527177e-003
1.874500e+003,-1.538072e-003
1.876428e+003,-1.503271e-003
1.878357e+003,-1.474873e-003
1.880285e+003,-1.495544e-003
1.882214e+003,-1.534044e-003
1.884142e+003,-1.507729e-003
1.886071e+003,-1.504064e-003
1.887999e+003,-1.451857e-003
1.889928e+003,-1.439770e-003
1.891856e+003,-1.630279e-003
1.893785e+003,-1.576172e-003
1.895713e+003,-1.476557e-003
1.897642e+003,-1.409122e-003
1.899570e+003,-1.343526e-003
1.901499e+003,-1.399379e-003
1.903427e+003,-1.520408e-003
1.905356e+003,-1.532525e-003
1.907284e+003,-1.429796e-003
1.909213e+003,-1.407207e-003
1.911141e+003,-1.487719e-003
1.913070e+003,-1.506573e-003
1.914998e+003,-1.437920e-003
1.916927e+003,-1.293084e-003
1.918855e+003,-1.231138e-003
1.920784e+003,-1.302961e-003
1.922712e+003,-1.364237e-003
1.924641e+003,-1.453706e-003
1.926569e+003,-1.409981e-003
1.928498e+003,-1.399247e-003
1.930426e+003,-1.374245e-003
1.932355e+003,-1.442412e-003
1.934283e+003,-1.565674e-003
1.936212e+003,-1.626780e-003
1.938140e+003,-1.615952e-003
1.940069e+003,-1.500762e-003
1.941997e+003,-1.315746e-003
1.943926e+003,-1.302598e-003
1.945854e+003,-1.372593e-003
1.947783e+003,-1.462226e-003
1.949711e+003,-1.543124e-003
1.951640e+003,-1.593306e-003
1.953568e+003,-1.634735e-003
1.955497e+003,-1.607699e-003
1.957425e+003,-1.570659e-003
1.959354e+003,-1.530643e-003
1.961282e+003,-1.513639e-003
1.963211e+003,-1.548638e-003
1.965139e+003,-1.607732e-003
1.967068e+003,-1.602913e-003
1.968996e+003,-1.693356e-003
1.970925e+003,-1.697020e-003
1.972853e+003,-1.625855e-003
1.974782e+003,-1.615886e-003
1.976710e+003,-1.649523e-003
1.978639e+003,-1.613872e-003
1.980567e+003,-1.647477e-003
1.982496e+003,-1.719561e-003
1.984424e+003,-1.667644e-003
1.986353e+003,-1.617438e-003
1.988281e+003,-1.661175e-003
1.990210e+003,-1.661901e-003
1.992138e+003,-1.524139e-003
1.994067e+003,-1.557915e-003
1.995995e+003,-1.691772e-003
1.997924e+003,-1.748504e-003
1.999852e+003,-1.736063e-003
2.001781e+003,-1.733653e-003
2.003709e+003,-1.686458e-003
2.005638e+003,-1.644539e-003
2.007566e+003,-1.562702e-003
2.009495e+003,-1.505186e-003
2.011423e+003,-1.629685e-003
2.013352e+003,-1.640182e-003
2.015280e+003,-1.573861e-003
2.017208e+003,-1.579738e-003
2.019137e+003,-1.580629e-003
2.021066e+003,-1.600107e-003
2.022994e+003,-1.644638e-003
2.024922e+003,-1.691508e-003
2.026851e+003,-1.679692e-003
2.028780e+003,-1.650546e-003
2.030708e+003,-1.618989e-003
2.032636e+003,-1.569173e-003
2.034565e+003,-1.618692e-003
2.036494e+003,-1.655101e-003
2.038422e+003,-1.658765e-003
2.040350e+003,-1.631797e-003
2.042279e+003,-1.619649e-003
2.044208e+003,-1.651173e-003
2.046136e+003,-1.705535e-003
2.048064e+003,-1.678503e-003
2.049993e+003,-1.563957e-003
2.051921e+003,-1.550024e-003
2.053850e+003,-1.505384e-003
2.055778e+003,-1.499771e-003
2.057707e+003,-1.445450e-003
2.059635e+003,-1.462886e-003
2.061564e+003,-1.521497e-003
2.063492e+003,-1.649325e-003
2.065421e+003,-1.632259e-003
2.067349e+003,-1.487752e-003
2.069278e+003,-1.454201e-003
2.071206e+003,-1.435080e-003
2.073135e+003,-1.473784e-003
2.075063e+003,-1.478176e-003
2.076992e+003,-1.436831e-003
2.078920e+003,-1.471802e-003
2.080849e+003,-1.494455e-003
2.082777e+003,-1.445450e-003
2.084706e+003,-1.491384e-003
2.086634e+003,-1.566169e-003
2.088563e+003,-1.583666e-003
2.090491e+003,-1.507299e-003
2.092420e+003,-1.412458e-003
2.094348e+003,-1.380223e-003
2.096277e+003,-1.431150e-003
2.098205e+003,-1.445648e-003
2.100134e+003,-1.413713e-003
2.102062e+003,-1.343890e-003
2.103991e+003,-1.352081e-003
2.105919e+003,-1.370050e-003
2.107848e+003,-1.303127e-003
2.109776e+003,-1.308313e-003
2.111705e+003,-1.360240e-003
2.113633e+003,-1.342866e-003
2.115562e+003,-1.232790e-003
2.117490e+003,-1.212007e-003
2.119419e+003,-1.263714e-003
2.121347e+003,-1.335532e-003
2.123276e+003,-1.396109e-003
2.125204e+003,-1.349472e-003
2.127133e+003,-1.335532e-003
2.129061e+003,-1.251854e-003
2.130990e+003,-1.136038e-003
2.132918e+003,-1.262492e-003
2.134847e+003,-1.361891e-003
2.136775e+003,-1.300286e-003
2.138704e+003,-1.244222e-003
2.140632e+003,-1.244783e-003
2.142561e+003,-1.311715e-003
2.144489e+003,-1.329686e-003
2.146418e+003,-1.299955e-003
2.148346e+003,-1.247162e-003
2.150275e+003,-1.225158e-003
2.152203e+003,-1.243528e-003
2.154132e+003,-1.281686e-003
2.156060e+003,-1.298303e-003
2.157989e+003,-1.259684e-003
2.159917e+003,-1.235070e-003
2.161846e+003,-1.264342e-003
2.163774e+003,-1.235532e-003
2.165703e+003,-1.190100e-003
2.167631e+003,-1.152726e-003
2.169560e+003,-1.091487e-003
2.171488e+003,-1.125462e-003
2.173417e+003,-1.218748e-003
2.175345e+003,-1.262855e-003
2.177274e+003,-1.233583e-003
2.179202e+003,-1.176684e-003
2.181131e+003,-1.177874e-003
2.183059e+003,-1.170538e-003
2.184988e+003,-1.118687e-003
2.186916e+003,-1.113366e-003
2.188845e+003,-1.104641e-003
2.190773e+003,-1.143738e-003
2.192702e+003,-1.205300e-003
2.194630e+003,-1.202689e-003
2.196559e+003,-1.201830e-003
2.198487e+003,-1.144564e-003
2.200416e+003,-1.143077e-003
2.202344e+003,-1.149356e-003
2.204273e+003,-1.147769e-003
2.206201e+003,-1.243957e-003
2.208130e+003,-1.226446e-003
2.210058e+003,-1.165945e-003
2.211987e+003,-1.156791e-003
2.213915e+003,-1.141160e-003
2.215844e+003,-1.107186e-003
2.217772e+003,-1.098758e-003
2.219701e+003,-1.103782e-003
2.221629e+003,-1.217261e-003
2.223558e+003,-1.215807e-003
2.225486e+003,-1.144927e-003
2.227415e+003,-1.200079e-003
2.229343e+003,-1.215906e-003
2.231272e+003,-1.167167e-003
2.233200e+003,-1.107285e-003
2.235129e+003,-1.095420e-003
2.237057e+003,-1.197535e-003
2.238986e+003,-1.239299e-003
2.240914e+003,-1.206985e-003
2.242843e+003,-1.163863e-003
2.244771e+003,-1.116076e-003
2.246700e+003,-1.167894e-003
2.248628e+003,-1.210718e-003
2.250557e+003,-1.300286e-003
2.252485e+003,-1.312442e-003
2.254414e+003,-1.213560e-003
2.256342e+003,-1.179526e-003
2.258271e+003,-1.253241e-003
2.260199e+003,-1.213957e-003
2.262128e+003,-1.150644e-003
2.264056e+003,-1.183095e-003
2.265985e+003,-1.171265e-003
2.267913e+003,-1.169051e-003
2.269842e+003,-1.204474e-003
2.271770e+003,-1.161616e-003
2.273699e+003,-1.177709e-003
2.275627e+003,-1.298865e-003
2.277556e+003,-1.319214e-003
2.279484e+003,-1.244155e-003
2.281413e+003,-1.198790e-003
2.283341e+003,-1.286245e-003
2.285270e+003,-1.275244e-003
2.287198e+003,-1.278911e-003
2.289127e+003,-1.264805e-003
2.291055e+003,-1.290606e-003
2.292984e+003,-1.380157e-003
2.294912e+003,-1.472166e-003
2.296841e+003,-1.450040e-003
2.298769e+003,-1.346400e-003
2.300698e+003,-1.339100e-003
2.302626e+003,-1.338472e-003
2.304555e+003,-1.383427e-003
2.306483e+003,-1.373353e-003
2.308412e+003,-1.394458e-003
2.310340e+003,-1.431316e-003
2.312269e+003,-1.376358e-003
2.314197e+003,-1.280662e-003
2.316125e+003,-1.091752e-003
2.318054e+003,-1.042173e-003
2.319983e+003,-1.009348e-003
2.321911e+003,-8.889043e-004
2.323840e+003,-8.334486e-004
2.325768e+003,-8.114231e-004
2.327697e+003,-7.126252e-004
2.329625e+003,-5.216471e-004
2.331553e+003,-4.801118e-004
2.333482e+003,-4.678325e-004
2.335411e+003,-4.718374e-004
2.337339e+003,-4.944428e-004
2.339268e+003,-4.206648e-004
2.341196e+003,-4.337729e-004
2.343125e+003,-5.193305e-004
2.345053e+003,-7.021719e-004
2.346981e+003,-9.046105e-004
2.348910e+003,-1.129891e-003
2.350839e+003,-1.085538e-003
2.352767e+003,-7.172895e-004
2.354696e+003,-4.186787e-004
2.356624e+003,-1.264211e-004
2.358552e+003,-1.124424e-004
2.360481e+003,-2.143243e-004
2.362409e+003,-1.924992e-004
2.364338e+003,-1.586168e-004
2.366267e+003,-2.486329e-004
2.368195e+003,-3.610110e-004
2.370124e+003,-4.511175e-004
2.372052e+003,-6.300835e-004
2.373980e+003,-7.386251e-004
2.375909e+003,-9.545690e-004
2.377838e+003,-1.128866e-003
2.379766e+003,-1.267183e-003
2.381695e+003,-1.397133e-003
2.383623e+003,-1.338043e-003
2.385552e+003,-1.309667e-003
2.387480e+003,-1.399974e-003
2.389408e+003,-1.383427e-003
2.391337e+003,-1.349769e-003
2.393266e+003,-1.315647e-003
2.395194e+003,-1.275509e-003
2.397123e+003,-1.237746e-003
2.399051e+003,-1.214122e-003
2.400979e+003,-1.227008e-003
2.402908e+003,-1.291234e-003
2.404836e+003,-1.282314e-003
2.406765e+003,-1.349670e-003
2.408694e+003,-1.365029e-003
2.410622e+003,-1.281984e-003
2.412551e+003,-1.207051e-003
2.414479e+003,-1.133427e-003
2.416407e+003,-1.116275e-003
2.418336e+003,-1.112441e-003
2.420264e+003,-1.228462e-003
2.422193e+003,-1.305472e-003
2.424122e+003,-1.169976e-003
2.426050e+003,-1.063030e-003
2.427979e+003,-1.148529e-003
2.429907e+003,-1.204044e-003
2.431835e+003,-1.123843e-003
2.433764e+003,-1.049246e-003
2.435692e+003,-1.084712e-003
2.437621e+003,-1.117729e-003
2.439550e+003,-1.171760e-003
2.441478e+003,-1.168357e-003
2.443406e+003,-1.159699e-003
2.445335e+003,-1.127016e-003
2.447263e+003,-1.093074e-003
2.449192e+003,-1.084348e-003
2.451121e+003,-1.088281e-003
2.453049e+003,-1.127941e-003
2.454978e+003,-1.105170e-003
2.456906e+003,-1.036950e-003
2.458834e+003,-1.020984e-003
2.460763e+003,-1.118886e-003
2.462691e+003,-1.160195e-003
2.464620e+003,-1.154180e-003
2.466549e+003,-1.063129e-003
2.468477e+003,-1.004290e-003
2.470406e+003,-1.052486e-003
2.472334e+003,-1.050800e-003
2.474262e+003,-1.019496e-003
2.476191e+003,-1.010175e-003
2.478119e+003,-9.898440e-004
2.480048e+003,-9.802238e-004
2.481977e+003,-9.249120e-004
2.483905e+003,-9.543376e-004
2.485833e+003,-9.877613e-004
2.487762e+003,-9.926870e-004
2.489690e+003,-1.049841e-003
2.491619e+003,-1.039528e-003
2.493547e+003,-9.587347e-004
2.495476e+003,-8.547786e-004
2.497405e+003,-8.382107e-004
2.499333e+003,-9.421047e-004
2.501261e+003,-1.043032e-003
2.503190e+003,-1.040090e-003
2.505118e+003,-9.203161e-004
2.507047e+003,-9.177702e-004
2.508975e+003,-1.003993e-003
2.510904e+003,-1.024852e-003
2.512833e+003,-8.804723e-004
2.514761e+003,-8.936989e-004
2.516689e+003,-9.758269e-004
2.518618e+003,-9.214072e-004
2.520546e+003,-8.591767e-004
2.522475e+003,-8.690641e-004
2.524403e+003,-9.191259e-004
2.526332e+003,-9.166791e-004
2.528260e+003,-9.363188e-004
2.530189e+003,-9.552633e-004
2.532117e+003,-9.729507e-004
2.534046e+003,-1.006307e-003
2.535974e+003,-8.745202e-004
2.537903e+003,-7.954158e-004
2.539831e+003,-7.381620e-004
2.541760e+003,-8.186658e-004
2.543688e+003,-8.136058e-004
2.545617e+003,-6.873846e-004
2.547545e+003,-6.563861e-004
2.549474e+003,-6.816615e-004
2.551402e+003,-7.483498e-004
2.553331e+003,-7.753068e-004
2.555259e+003,-7.485483e-004
2.557188e+003,-6.925123e-004
2.559116e+003,-6.768976e-004
2.561045e+003,-6.476849e-004
2.562973e+003,-6.815622e-004
2.564902e+003,-6.525152e-004
2.566830e+003,-5.497432e-004
2.568759e+003,-6.064594e-004
2.570687e+003,-6.058307e-004
2.572616e+003,-6.030183e-004
2.574544e+003,-6.251205e-004
2.576473e+003,-6.929754e-004
2.578401e+003,-6.800074e-004
2.580330e+003,-6.243926e-004
2.582258e+003,-6.027867e-004
2.584187e+003,-6.040771e-004
2.586115e+003,-6.867230e-004
2.588044e+003,-7.894626e-004
2.589972e+003,-7.196050e-004
2.591901e+003,-5.194298e-004
2.593829e+003,-5.059933e-004
2.595758e+003,-6.216465e-004
2.597686e+003,-7.357804e-004
2.599615e+003,-7.040906e-004
2.601543e+003,-5.659581e-004
2.603472e+003,-5.337925e-004
2.605400e+003,-5.634432e-004
2.607329e+003,-4.633311e-004
2.609257e+003,-3.150236e-004
2.611186e+003,-3.535619e-004
2.613114e+003,-3.284329e-004
2.615043e+003,-1.934928e-004
2.616971e+003,-2.234978e-004
2.618900e+003,-2.212790e-004
2.620828e+003,-1.939896e-004
2.622757e+003,-1.433473e-004
2.624685e+003,-1.655392e-004
2.626614e+003,-1.213199e-004
2.628542e+003,-1.269015e-005
2.630471e+003,7.687778e-005
2.632399e+003,6.501385e-005
2.634328e+003,8.171623e-005
2.636256e+003,1.225470e-004
2.638185e+003,1.921205e-004
2.640113e+003,2.240107e-004
2.642042e+003,2.111483e-004
2.643970e+003,2.788130e-004
2.645899e+003,3.638647e-004
2.647827e+003,4.224324e-004
2.649756e+003,4.658161e-004
2.651684e+003,5.094695e-004
2.653613e+003,5.606915e-004
2.655541e+003,6.741380e-004
2.657470e+003,7.139292e-004
2.659398e+003,7.386554e-004
2.661327e+003,8.250255e-004
2.663255e+003,8.051409e-004
2.665184e+003,7.236536e-004
2.667112e+003,7.732412e-004
2.669041e+003,8.990280e-004
2.670969e+003,9.118113e-004
2.672898e+003,8.989284e-004
2.674826e+003,8.866436e-004
2.676755e+003,8.942801e-004
2.678683e+003,9.802495e-004
2.680612e+003,1.071085e-003
2.682540e+003,1.115530e-003
2.684469e+003,1.163801e-003
2.686397e+003,1.270592e-003
2.688326e+003,1.386219e-003
2.690254e+003,1.444692e-003
2.692183e+003,1.336262e-003
2.694111e+003,1.310106e-003
2.696040e+003,1.365910e-003
2.697968e+003,1.478769e-003
2.699897e+003,1.646034e-003
2.701825e+003,1.659803e-003
2.703754e+003,1.675603e-003
2.705682e+003,1.777696e-003
2.707611e+003,1.779692e-003
2.709539e+003,1.765420e-003
2.711468e+003,1.856187e-003
2.713396e+003,1.943445e-003
2.715325e+003,2.038911e-003
2.717253e+003,2.089314e-003
2.719182e+003,2.169726e-003
2.721110e+003,2.285726e-003
2.723039e+003,2.485159e-003
2.724967e+003,2.638743e-003
2.726896e+003,2.723292e-003
2.728824e+003,2.816194e-003
2.730753e+003,2.917522e-003
2.732681e+003,2.977703e-003
2.734610e+003,3.000289e-003
2.736538e+003,3.004059e-003
2.738467e+003,3.156259e-003
2.740395e+003,3.322436e-003
2.742324e+003,3.395563e-003
2.744252e+003,3.558055e-003
2.746181e+003,3.748582e-003
2.748109e+003,3.842472e-003
2.750038e+003,3.890110e-003
2.751966e+003,3.982259e-003
2.753895e+003,4.230483e-003
2.755823e+003,4.414108e-003
2.757752e+003,4.447916e-003
2.759680e+003,4.597140e-003
2.761609e+003,4.882875e-003
2.763537e+003,5.223290e-003
2.765466e+003,5.474874e-003
2.767394e+003,5.753801e-003
2.769323e+003,6.157706e-003
2.771251e+003,6.623112e-003
2.773180e+003,7.104275e-003
2.775108e+003,7.660123e-003
2.777037e+003,8.262373e-003
2.778965e+003,8.785014e-003
2.780894e+003,9.452282e-003
2.782822e+003,1.031977e-002
2.784750e+003,1.110102e-002
2.786679e+003,1.184509e-002
2.788608e+003,1.264396e-002
2.790536e+003,1.346515e-002
2.792465e+003,1.428146e-002
2.794393e+003,1.513619e-002
2.796322e+003,1.593633e-002
2.798250e+003,1.669725e-002
2.800178e+003,1.730082e-002
2.802107e+003,1.791936e-002
2.804036e+003,1.849041e-002
2.805964e+003,1.893355e-002
2.807893e+003,1.927594e-002
2.809821e+003,1.944193e-002
2.811750e+003,1.960080e-002
2.813678e+003,1.958873e-002
2.815606e+003,1.945866e-002
2.817535e+003,1.923075e-002
2.819464e+003,1.896698e-002
2.821392e+003,1.861061e-002
2.823321e+003,1.826532e-002
2.825249e+003,1.784651e-002
2.827177e+003,1.726121e-002
2.829106e+003,1.665679e-002
2.831034e+003,1.597259e-002
2.832963e+003,1.539530e-002
2.834892e+003,1.502353e-002
2.836820e+003,1.444274e-002
2.838749e+003,1.378818e-002
2.840677e+003,1.309541e-002
2.842605e+003,1.262220e-002
2.844534e+003,1.217946e-002
2.846462e+003,1.159612e-002
2.848391e+003,1.104986e-002
2.850320e+003,1.070091e-002
2.852248e+003,1.043115e-002
2.854177e+003,1.025276e-002
2.856105e+003,1.018960e-002
2.858033e+003,1.007550e-002
2.859962e+003,9.907709e-003
2.861890e+003,9.762104e-003
2.863819e+003,9.659098e-003
2.865748e+003,9.739501e-003
2.867676e+003,9.829002e-003
2.869604e+003,9.935404e-003
2.871533e+003,1.001152e-002
2.873461e+003,1.012465e-002
2.875390e+003,1.024751e-002
2.877319e+003,1.043318e-002
2.879247e+003,1.066791e-002
2.881176e+003,1.070580e-002
2.883104e+003,1.066414e-002
2.885032e+003,1.079204e-002
2.886961e+003,1.071185e-002
2.888889e+003,1.054143e-002
2.890818e+003,1.045793e-002
2.892747e+003,1.042707e-002
2.894675e+003,1.021535e-002
2.896604e+003,1.011997e-002
2.898532e+003,1.019235e-002
2.900460e+003,1.018322e-002
2.902389e+003,1.015212e-002
2.904317e+003,9.973917e-003
2.906246e+003,9.959881e-003
2.908175e+003,1.004359e-002
2.910103e+003,1.002576e-002
2.912031e+003,9.998803e-003
2.913960e+003,1.008117e-002
2.915888e+003,1.009972e-002
2.917817e+003,1.022369e-002
2.919745e+003,1.060682e-002
2.921674e+003,1.088726e-002
2.923603e+003,1.109748e-002
2.925531e+003,1.134933e-002
2.927459e+003,1.156570e-002
2.929388e+003,1.173468e-002
2.931316e+003,1.190557e-002
2.933245e+003,1.211952e-002
2.935173e+003,1.216528e-002
2.937102e+003,1.205544e-002
2.939031e+003,1.197113e-002
2.940959e+003,1.173594e-002
2.942887e+003,1.148064e-002
2.944816e+003,1.118526e-002
2.946744e+003,1.081860e-002
2.948673e+003,1.030430e-002
2.950601e+003,9.581590e-003
2.952530e+003,8.885648e-003
2.954458e+003,8.183256e-003
2.956387e+003,7.398000e-003
2.958315e+003,6.685996e-003
2.960244e+003,6.001058e-003
2.962172e+003,5.290197e-003
2.964101e+003,4.611875e-003
2.966029e+003,3.954673e-003
2.967958e+003,3.353789e-003
2.969886e+003,2.829267e-003
2.971815e+003,2.363376e-003
2.973743e+003,1.811433e-003
2.975672e+003,1.306450e-003
2.977600e+003,1.051721e-003
2.979529e+003,9.111472e-004
2.981457e+003,7.526620e-004
2.983386e+003,4.358318e-004
2.985314e+003,1.539349e-004
2.987243e+003,1.289105e-004
2.989171e+003,1.014020e-004
2.991100e+003,-1.215518e-004
2.993028e+003,-1.697125e-004
2.994957e+003,-1.841531e-004
2.996885e+003,-3.501850e-004
2.998814e+003,-4.004721e-004
3.000742e+003,-4.350308e-004
3.002671e+003,-5.173117e-004
3.004599e+003,-5.151937e-004
3.006528e+003,-4.376126e-004
3.008456e+003,-4.425777e-004
3.010385e+003,-5.276040e-004
3.012313e+003,-5.468973e-004
3.014242e+003,-5.517288e-004
3.016170e+003,-5.250227e-004
3.018099e+003,-5.411061e-004
3.020027e+003,-6.769969e-004
3.021956e+003,-7.172895e-004
3.023884e+003,-7.232106e-004
3.025813e+003,-6.608855e-004
3.027741e+003,-6.240618e-004
3.029670e+003,-7.117982e-004
3.031598e+003,-6.941333e-004
3.033527e+003,-7.348542e-004
3.035455e+003,-7.136507e-004
3.037384e+003,-6.136394e-004
3.039312e+003,-5.367047e-004
3.041241e+003,-6.760375e-004
3.043169e+003,-8.467428e-004
3.045098e+003,-8.210470e-004
3.047026e+003,-6.785518e-004
3.048955e+003,-6.450712e-004
3.050883e+003,-6.450712e-004
3.052812e+003,-6.422590e-004
3.054740e+003,-7.560898e-004
3.056669e+003,-8.284549e-004
3.058597e+003,-8.332502e-004
3.060526e+003,-8.609955e-004
3.062454e+003,-8.845065e-004
3.064383e+003,-8.352014e-004
3.066311e+003,-6.782540e-004
3.068240e+003,-5.713518e-004
3.070168e+003,-6.436154e-004
3.072097e+003,-7.424952e-004
3.074025e+003,-7.286024e-004
3.075954e+003,-7.256584e-004
3.077882e+003,-7.365081e-004
3.079811e+003,-7.135184e-004
3.081739e+003,-7.511283e-004
3.083668e+003,-7.571151e-004
3.085596e+003,-8.115884e-004
3.087525e+003,-8.550431e-004
3.089453e+003,-7.980617e-004
3.091382e+003,-7.258569e-004
3.093310e+003,-6.289255e-004
3.095239e+003,-6.215472e-004
3.097167e+003,-6.361051e-004
3.099096e+003,-6.191650e-004
3.101024e+003,-6.335244e-004
3.102953e+003,-6.365352e-004
3.104881e+003,-6.690570e-004
3.106810e+003,-6.515888e-004
3.108738e+003,-6.114226e-004
3.110667e+003,-5.921322e-004
3.112595e+003,-5.243277e-004
3.114524e+003,-4.786224e-004
3.116452e+003,-5.476254e-004
3.118381e+003,-5.216140e-004
3.120309e+003,-5.041068e-004
3.122238e+003,-5.138368e-004
3.124166e+003,-3.803116e-004
3.126095e+003,-3.379020e-004
3.128023e+003,-4.298008e-004
3.129952e+003,-4.822963e-004
3.131880e+003,-4.295029e-004
3.133809e+003,-2.580044e-004
3.135737e+003,-1.985932e-004
3.137666e+003,-2.378373e-004
3.139594e+003,-1.998848e-004
3.141523e+003,-9.945700e-005
3.143451e+003,5.046607e-005
3.145380e+003,6.746614e-005
3.147308e+003,-1.066903e-005
3.149237e+003,-5.135746e-006
3.151165e+003,8.652159e-005
3.153094e+003,2.854441e-004
3.155022e+003,4.401436e-004
3.156951e+003,3.830327e-004
3.158879e+003,3.604159e-004
3.160808e+003,4.402431e-004
3.162736e+003,5.522647e-004
3.164665e+003,6.010364e-004
3.166593e+003,4.859505e-004
3.168522e+003,4.292648e-004
3.170450e+003,5.202840e-004
3.172379e+003,5.518666e-004
3.174307e+003,5.151421e-004
3.176236e+003,7.120375e-004
3.178164e+003,8.698771e-004
3.180093e+003,7.890414e-004
3.182021e+003,6.719477e-004
3.183950e+003,6.887731e-004
3.185878e+003,7.312208e-004
3.187807e+003,8.724003e-004
3.189735e+003,1.049662e-003
3.191664e+003,8.765172e-004
3.193592e+003,7.265742e-004
3.195521e+003,7.636485e-004
3.197449e+003,7.641132e-004
3.199378e+003,6.657089e-004
3.201306e+003,5.657345e-004
3.203235e+003,6.536298e-004
3.205163e+003,7.361993e-004
3.207092e+003,6.624237e-004
3.209020e+003,7.998961e-004
3.210948e+003,9.758659e-004
3.212877e+003,1.012995e-003
3.214806e+003,9.703533e-004
3.216734e+003,9.388731e-004
3.218663e+003,9.562733e-004
3.220591e+003,1.011135e-003
3.222520e+003,1.167090e-003
3.224448e+003,1.136758e-003
3.226376e+003,1.089753e-003
3.228305e+003,1.278668e-003
3.230234e+003,1.405764e-003
3.232162e+003,1.320608e-003
3.234091e+003,1.312997e-003
3.236019e+003,1.411415e-003
3.237948e+003,1.470989e-003
3.239876e+003,1.544603e-003
3.241804e+003,1.776365e-003
3.243733e+003,1.982221e-003
3.245662e+003,2.061848e-003
3.247590e+003,2.208523e-003
3.249519e+003,2.137826e-003
3.251447e+003,2.141123e-003
3.253375e+003,2.142821e-003
3.255304e+003,2.279997e-003
3.257232e+003,2.554278e-003
3.259161e+003,2.639444e-003
3.261090e+003,2.640544e-003
3.263018e+003,2.617676e-003
3.264947e+003,2.622309e-003
3.266875e+003,2.657946e-003
3.268803e+003,2.689884e-003
3.270732e+003,2.685750e-003
3.272660e+003,2.743765e-003
3.274589e+003,2.940272e-003
3.276518e+003,2.957853e-003
3.278446e+003,2.843108e-003
3.280375e+003,2.917188e-003
3.282303e+003,2.920457e-003
3.284231e+003,2.996219e-003
3.286160e+003,2.997754e-003
3.288088e+003,2.859083e-003
3.290017e+003,2.769173e-003
3.291946e+003,2.802287e-003
3.293874e+003,2.791749e-003
3.295802e+003,2.713556e-003
3.297731e+003,2.640610e-003
3.299659e+003,2.516584e-003
3.301588e+003,2.373137e-003
3.303516e+003,2.239562e-003
3.305445e+003,2.235266e-003
3.307374e+003,2.315638e-003
3.309302e+003,2.114519e-003
3.311230e+003,1.833427e-003
3.313159e+003,1.658140e-003
3.315087e+003,1.535459e-003
3.317016e+003,1.494129e-003
3.318944e+003,1.384224e-003
3.320873e+003,1.226862e-003
3.322802e+003,1.273517e-003
3.324730e+003,1.172472e-003
3.326658e+003,1.014223e-003
3.328587e+003,1.040162e-003
3.330515e+003,9.975516e-004
3.332444e+003,9.343239e-004
3.334372e+003,1.009541e-003
3.336301e+003,1.080618e-003
3.338229e+003,1.037539e-003
3.340158e+003,1.036941e-003
3.342086e+003,1.262318e-003
3.344015e+003,1.175163e-003
3.345943e+003,1.064575e-003
3.347872e+003,1.056936e-003
3.349800e+003,1.018541e-003
3.351729e+003,1.021464e-003
3.353657e+003,1.146558e-003
3.355586e+003,1.255805e-003
3.357514e+003,1.316155e-003
3.359443e+003,1.163568e-003
3.361371e+003,8.777124e-004
3.363300e+003,7.580058e-004
3.365229e+003,7.715815e-004
3.367157e+003,5.779106e-004
3.369085e+003,2.165186e-004
3.371014e+003,-4.208003e-006
3.372942e+003,-2.726846e-005
3.374871e+003,-1.024052e-004
3.376799e+003,-1.480839e-004
3.378728e+003,-3.520059e-004
3.380656e+003,-6.363697e-004
3.382585e+003,-7.631681e-004
3.384513e+003,-8.423445e-004
3.386442e+003,-9.908688e-004
3.388370e+003,-1.133162e-003
3.390299e+003,-1.198988e-003
3.392227e+003,-1.229354e-003
3.394156e+003,-1.443006e-003
3.396084e+003,-1.517833e-003
3.398013e+003,-1.750154e-003
3.399941e+003,-1.964639e-003
3.401870e+003,-1.842909e-003
3.403798e+003,-1.821397e-003
3.405727e+003,-1.771604e-003
3.407655e+003,-1.723060e-003
3.409584e+003,-1.813973e-003
3.411512e+003,-1.883556e-003
3.413441e+003,-2.114891e-003
3.415369e+003,-2.231006e-003
3.417298e+003,-2.121815e-003
3.419226e+003,-1.974271e-003
3.421155e+003,-1.902030e-003
3.423083e+003,-1.943364e-003
3.425012e+003,-1.872801e-003
3.426940e+003,-1.754411e-003
3.428869e+003,-1.825455e-003
3.430797e+003,-1.872372e-003
3.432726e+003,-1.837729e-003
3.434654e+003,-1.825983e-003
3.436583e+003,-2.020083e-003
3.438511e+003,-2.144631e-003
3.440440e+003,-2.030933e-003
3.442368e+003,-2.113868e-003
3.444297e+003,-2.206381e-003
3.446225e+003,-2.057810e-003
3.448154e+003,-1.847792e-003
3.450082e+003,-1.869996e-003
3.452011e+003,-1.934919e-003
3.453939e+003,-2.021699e-003
3.455868e+003,-2.084093e-003
3.457796e+003,-2.034924e-003
3.459725e+003,-2.058107e-003
3.461653e+003,-2.054117e-003
3.463582e+003,-1.948509e-003
3.465510e+003,-2.048181e-003
3.467439e+003,-2.200777e-003
3.469367e+003,-2.170480e-003
3.471296e+003,-2.055337e-003
3.473224e+003,-1.990663e-003
3.475153e+003,-2.045279e-003
3.477081e+003,-2.050292e-003
3.479010e+003,-1.965827e-003
3.480938e+003,-1.835222e-003
3.482867e+003,-1.969554e-003
3.484795e+003,-1.908760e-003
3.486724e+003,-1.822486e-003
3.488652e+003,-2.082246e-003
3.490581e+003,-2.110637e-003
3.492509e+003,-1.959955e-003
3.494438e+003,-1.960351e-003
3.496366e+003,-2.081916e-003
3.498295e+003,-2.002900e-003
3.500223e+003,-1.872108e-003
3.502152e+003,-1.877057e-003
3.504080e+003,-1.867291e-003
3.506009e+003,-1.949235e-003
3.507937e+003,-1.913873e-003
3.509866e+003,-1.898269e-003
3.511794e+003,-1.988981e-003
3.513723e+003,-2.059888e-003
3.515651e+003,-2.017378e-003
3.517580e+003,-1.913675e-003
3.519508e+003,-1.901139e-003
3.521437e+003,-2.054974e-003
3.523365e+003,-1.992477e-003
3.525294e+003,-2.041486e-003
3.527222e+003,-2.048906e-003
3.529151e+003,-1.994588e-003
3.531079e+003,-1.974007e-003
3.533008e+003,-1.873823e-003
3.534936e+003,-1.801698e-003
3.536865e+003,-1.861056e-003
3.538793e+003,-2.137608e-003
3.540722e+003,-2.165040e-003
3.542650e+003,-2.164809e-003
3.544579e+003,-2.017114e-003
3.546507e+003,-1.621795e-003
3.548436e+003,-1.641700e-003
3.550364e+003,-1.752200e-003
3.552293e+003,-1.771538e-003
3.554221e+003,-1.901040e-003
3.556150e+003,-1.872438e-003
3.558078e+003,-1.819186e-003
3.560007e+003,-1.928619e-003
3.561935e+003,-2.110274e-003
3.563864e+003,-2.181293e-003
3.565792e+003,-1.876826e-003
3.567721e+003,-1.815524e-003
3.569649e+003,-2.073376e-003
3.571578e+003,-2.136949e-003
3.573506e+003,-2.087291e-003
3.575435e+003,-2.032219e-003
3.577363e+003,-1.991686e-003
3.579292e+003,-2.003097e-003
3.581220e+003,-1.991026e-003
3.583149e+003,-1.989179e-003
3.585077e+003,-1.937855e-003
3.587006e+003,-1.788466e-003
3.588934e+003,-1.904966e-003
3.590863e+003,-2.181260e-003
3.592791e+003,-2.082609e-003
3.594720e+003,-1.926672e-003
3.596648e+003,-1.961704e-003
3.598577e+003,-2.155643e-003
3.600505e+003,-2.141037e-003
3.602434e+003,-2.175952e-003
3.604362e+003,-2.234303e-003
3.606291e+003,-2.062097e-003
3.608219e+003,-1.735865e-003
3.610148e+003,-1.818757e-003
3.612076e+003,-1.886294e-003
3.614005e+003,-1.939141e-003
3.615933e+003,-1.985881e-003
3.617862e+003,-1.830042e-003
3.619790e+003,-1.832021e-003
3.621719e+003,-2.162567e-003
3.623647e+003,-2.493059e-003
3.625576e+003,-2.534435e-003
3.627504e+003,-1.972885e-003
3.629433e+003,-1.326581e-003
3.631361e+003,-1.910739e-003
3.633290e+003,-2.296468e-003
3.635218e+003,-2.327152e-003
3.637146e+003,-2.353286e-003
3.639075e+003,-2.517767e-003
3.641004e+003,-2.683469e-003
3.642932e+003,-2.601432e-003
3.644861e+003,-2.610259e-003
3.646789e+003,-2.384593e-003
3.648718e+003,-1.717515e-003
3.650646e+003,-1.658798e-003
3.652574e+003,-2.514736e-003
3.654503e+003,-2.682118e-003
3.656432e+003,-2.222172e-003
3.658360e+003,-2.500570e-003
3.660289e+003,-2.845816e-003
3.662217e+003,-2.850490e-003
3.664146e+003,-2.921059e-003
3.666074e+003,-3.174473e-003
3.668002e+003,-2.898283e-003
3.669931e+003,-2.336479e-003
3.671860e+003,-2.611313e-003
3.673788e+003,-2.603540e-003
3.675717e+003,-1.987431e-003
3.677645e+003,-2.252136e-003
3.679573e+003,-2.665159e-003
3.681502e+003,-2.829093e-003
3.683430e+003,-2.895288e-003
3.685359e+003,-2.993459e-003
3.687288e+003,-2.624290e-003
3.689216e+003,-2.105130e-003
3.691145e+003,-2.233116e-003
3.693073e+003,-2.625311e-003
3.695001e+003,-2.795581e-003
3.696930e+003,-2.791136e-003
3.698858e+003,-2.810790e-003
3.700787e+003,-2.508015e-003
3.702716e+003,-2.277846e-003
3.704644e+003,-2.457115e-003
3.706573e+003,-2.589575e-003
3.708501e+003,-2.516152e-003
3.710429e+003,-2.283087e-003
3.712358e+003,-2.139883e-003
3.714286e+003,-2.465978e-003
3.716215e+003,-2.680735e-003
3.718144e+003,-2.538717e-003
3.720072e+003,-2.500372e-003
3.722000e+003,-2.560853e-003
3.723929e+003,-2.412272e-003
3.725857e+003,-2.240401e-003
3.727786e+003,-2.499944e-003
3.729714e+003,-2.570109e-003
3.731643e+003,-2.016653e-003
3.733572e+003,-1.642822e-003
3.735500e+003,-1.615061e-003
3.737428e+003,-2.019588e-003
3.739357e+003,-2.356977e-003
3.741285e+003,-2.226754e-003
3.743214e+003,-1.499837e-003
3.745142e+003,-7.966727e-004
3.747071e+003,-1.538535e-003
3.749000e+003,-1.131774e-003
3.750928e+003,-4.567444e-004
3.752856e+003,-7.823516e-004
3.754785e+003,-1.679560e-003
3.756713e+003,-1.924132e-003
3.758642e+003,-1.745864e-003
3.760570e+003,-1.491879e-003
3.762499e+003,-1.567060e-003
3.764427e+003,-1.508917e-003
3.766356e+003,-1.502314e-003
3.768284e+003,-1.617438e-003
3.770213e+003,-1.347457e-003
3.772141e+003,-1.483327e-003
3.774070e+003,-1.758173e-003
3.775998e+003,-1.754477e-003
3.777927e+003,-1.602682e-003
3.779855e+003,-1.361528e-003
3.781784e+003,-1.506705e-003
3.783712e+003,-1.649226e-003
3.785641e+003,-1.664806e-003
3.787569e+003,-1.668139e-003
3.789498e+003,-1.751012e-003
3.791426e+003,-1.923110e-003
3.793355e+003,-2.095535e-003
3.795283e+003,-1.770416e-003
3.797212e+003,-1.514531e-003
3.799140e+003,-1.575710e-003
3.801069e+003,-1.130155e-003
3.802997e+003,-1.318289e-003
3.804926e+003,-1.475897e-003
3.806854e+003,-9.151251e-004
3.808783e+003,-1.272403e-003
3.810711e+003,-1.746029e-003
3.812640e+003,-1.828392e-003
3.814568e+003,-1.691244e-003
3.816497e+003,-1.209430e-003
3.818425e+003,-1.239100e-003
3.820354e+003,-6.006028e-004
3.822282e+003,-5.907424e-004
3.824211e+003,-1.471505e-003
3.826139e+003,-1.568183e-003
3.828068e+003,-1.628859e-003
3.829996e+003,-1.591953e-003
3.831925e+003,-1.444426e-003
3.833853e+003,-1.455919e-003
3.835782e+003,-1.393632e-003
3.837710e+003,-1.061212e-003
3.839639e+003,-1.056221e-003
3.841567e+003,-1.224034e-003
3.843496e+003,-1.139045e-003
3.845424e+003,-1.441355e-003
3.847353e+003,-2.051116e-003
3.849281e+003,-1.957679e-003
3.851210e+003,-1.213329e-003
3.853138e+003,-2.319377e-006
3.855067e+003,-7.398201e-005
3.856995e+003,-1.181376e-003
3.858924e+003,-1.701508e-003
3.860852e+003,-1.590104e-003
3.862781e+003,-1.193933e-003
3.864709e+003,-9.550649e-004
3.866638e+003,-1.364468e-003
3.868566e+003,-1.357366e-003
3.870495e+003,-1.083324e-003
3.872423e+003,-1.307025e-003
3.874352e+003,-1.169613e-003
3.876280e+003,-1.396935e-003
3.878209e+003,-1.386102e-003
3.880137e+003,-1.200277e-003
3.882066e+003,-1.572310e-003
3.883994e+003,-1.721476e-003
3.885923e+003,-1.352313e-003
3.887851e+003,-1.662264e-003
3.889780e+003,-1.671242e-003
3.891708e+003,-1.308775e-003
3.893637e+003,-1.522686e-003
3.895565e+003,-1.906088e-003
3.897494e+003,-1.799388e-003
3.899422e+003,-1.383427e-003
3.901351e+003,-1.408330e-003
3.903279e+003,-1.312806e-003
3.905208e+003,-1.341676e-003
3.907136e+003,-1.720320e-003
3.909065e+003,-1.645925e-003
3.910993e+003,-1.611925e-003
3.912922e+003,-1.728175e-003
3.914850e+003,-1.673751e-003
3.916779e+003,-1.462226e-003
3.918707e+003,-1.458461e-003
3.920636e+003,-1.547515e-003
3.922564e+003,-1.538898e-003
3.924493e+003,-1.508818e-003
3.926421e+003,-1.641370e-003
3.928350e+003,-1.875374e-003
3.930278e+003,-1.985551e-003
3.932207e+003,-1.920570e-003
3.934135e+003,-1.845582e-003
3.936064e+003,-1.879498e-003
3.937992e+003,-1.754114e-003
3.939921e+003,-1.541704e-003
3.941849e+003,-1.515059e-003
3.943778e+003,-1.722664e-003
3.945706e+003,-1.715172e-003
3.947635e+003,-1.497988e-003
3.949563e+003,-1.670714e-003
3.951492e+003,-1.841194e-003
3.953420e+003,-1.882731e-003
3.955349e+003,-2.053128e-003
3.957277e+003,-1.996237e-003
3.959206e+003,-1.918920e-003
3.961134e+003,-1.945871e-003
3.963063e+003,-1.833473e-003
3.964991e+003,-1.769690e-003
3.966920e+003,-1.751276e-003
3.968848e+003,-1.522323e-003
3.970777e+003,-1.600569e-003
3.972705e+003,-1.711244e-003
3.974634e+003,-1.682134e-003
3.976562e+003,-1.729099e-003
3.978491e+003,-1.594891e-003
3.980419e+003,-1.417082e-003
3.982348e+003,-1.497625e-003
3.984276e+003,-1.669031e-003
3.986205e+003,-1.746788e-003
3.988133e+003,-1.603969e-003
3.990062e+003,-1.550850e-003
3.991990e+003,-1.718373e-003
3.993919e+003,-1.978822e-003
3.995847e+003,-1.968037e-003
3.997776e+003,-1.635692e-003
3.999704e+003,-1.592580e-003
4.001633e+003,0.000000e+000
