3.991989e+002,7.138933e-003
4.011274e+002,2.542713e-003
4.030559e+002,-5.059504e-003
4.049844e+002,-1.134221e-002
4.069129e+002,-7.401047e-003
4.088414e+002,-1.382502e-003
4.107699e+002,-3.893209e-003
4.126984e+002,-5.223355e-003
4.146269e+002,1.946774e-003
4.165554e+002,7.115288e-003
4.184839e+002,2.525749e-003
4.204124e+002,4.402359e-003
4.223409e+002,6.897458e-003
4.242694e+002,4.651359e-003
4.261979e+002,-1.040255e-003
4.281264e+002,6.289197e-003
4.300549e+002,1.293412e-002
4.319834e+002,1.009416e-002
4.339119e+002,8.704112e-003
4.358404e+002,8.992326e-003
4.377689e+002,1.110724e-002
4.396974e+002,4.890918e-003
4.416259e+002,-4.109100e-003
4.435544e+002,1.466429e-004
4.454829e+002,4.224159e-003
4.474114e+002,5.504403e-003
4.493399e+002,5.053435e-003
4.512684e+002,5.556520e-003
4.531969e+002,5.518162e-003
4.551254e+002,4.801088e-003
4.570539e+002,4.636288e-003
4.589824e+002,3.558089e-003
4.609109e+002,1.526448e-003
4.628394e+002,2.759870e-003
4.647679e+002,3.055877e-003
4.666964e+002,2.354681e-003
4.686249e+002,2.670414e-003
4.705533e+002,3.291686e-003
4.724819e+002,2.349417e-003
4.744103e+002,3.929863e-003
4.763389e+002,5.613711e-003
4.782673e+002,4.699387e-003
4.801959e+002,3.225686e-003
4.821243e+002,3.821914e-003
4.840529e+002,3.451635e-003
4.859813e+002,3.155992e-003
4.879099e+002,4.109715e-003
4.898383e+002,4.406108e-003
4.917668e+002,4.008878e-003
4.936953e+002,3.988646e-003
4.956238e+002,3.928024e-003
4.975523e+002,3.438877e-003
4.994808e+002,1.886636e-003
5.014093e+002,2.365808e-003
5.033378e+002,3.776556e-003
5.052663e+002,6.654368e-003
5.071948e+002,5.561655e-003
5.091233e+002,2.104197e-003
5.110518e+002,1.371494e-003
5.129803e+002,1.544204e-003
5.149088e+002,1.399980e-003
5.168373e+002,1.706039e-003
5.187658e+002,2.538580e-003
5.206943e+002,2.083122e-003
5.226228e+002,1.790006e-003
5.245513e+002,3.711753e-003
5.264798e+002,3.054776e-003
5.284083e+002,1.330346e-003
5.303368e+002,1.983153e-003
5.322653e+002,3.170878e-003
5.341938e+002,3.933440e-003
5.361223e+002,3.599214e-003
5.380508e+002,3.060014e-003
5.399792e+002,2.499555e-003
5.419078e+002,3.381136e-003
5.438363e+002,4.042186e-003
5.457648e+002,3.816900e-003
5.476932e+002,4.480355e-003
5.496218e+002,4.938939e-003
5.515503e+002,4.751307e-003
5.534788e+002,4.186989e-003
5.554072e+002,3.946079e-003
5.573358e+002,4.338332e-003
5.592643e+002,5.022696e-003
5.611927e+002,5.480176e-003
5.631212e+002,6.149774e-003
5.650497e+002,6.809502e-003
5.669783e+002,6.660357e-003
5.689067e+002,6.160697e-003
5.708352e+002,5.672689e-003
5.727637e+002,5.789594e-003
5.746923e+002,5.047300e-003
5.766207e+002,2.678949e-003
5.785492e+002,1.456926e-003
5.804777e+002,8.425207e-004
5.824063e+002,2.223409e-003
5.843347e+002,4.080649e-003
5.862632e+002,4.737171e-003
5.881917e+002,5.489370e-003
5.901202e+002,6.407748e-003
5.920487e+002,7.463154e-003
5.939772e+002,7.317120e-003
5.959057e+002,7.535026e-003
5.978342e+002,8.813180e-003
5.997627e+002,1.020659e-002
6.016912e+002,1.165057e-002
6.036197e+002,1.179324e-002
6.055482e+002,1.301179e-002
6.074767e+002,1.552869e-002
6.094052e+002,1.622258e-002
6.113337e+002,1.415496e-002
6.132622e+002,1.282026e-002
6.151907e+002,1.351557e-002
6.171192e+002,1.311716e-002
6.190477e+002,1.246743e-002
6.209762e+002,1.249318e-002
6.229047e+002,1.175037e-002
6.248332e+002,9.363366e-003
6.267617e+002,6.664596e-003
6.286902e+002,4.603403e-003
6.306187e+002,3.901210e-003
6.325472e+002,3.968950e-003
6.344756e+002,3.900909e-003
6.364042e+002,3.545762e-003
6.383326e+002,2.835370e-003
6.402612e+002,2.767706e-003
6.421896e+002,3.184563e-003
6.441182e+002,3.228257e-003
6.460466e+002,2.390362e-003
6.479752e+002,1.873990e-003
6.499036e+002,1.743496e-003
6.518322e+002,1.746390e-003
6.537606e+002,1.974266e-003
6.556891e+002,1.816391e-003
6.576177e+002,1.261819e-003
6.595461e+002,8.135395e-004
6.614746e+002,6.574128e-004
6.634031e+002,6.219403e-004
6.653317e+002,8.246604e-004
6.672601e+002,3.012266e-004
6.691886e+002,6.139768e-004
6.711171e+002,1.295217e-003
6.730457e+002,1.421588e-003
6.749741e+002,1.227062e-003
6.769026e+002,1.727295e-003
6.788311e+002,1.936190e-003
6.807596e+002,1.911761e-003
6.826881e+002,1.865538e-003
6.846166e+002,2.061881e-003
6.865451e+002,2.460832e-003
6.884736e+002,2.631743e-003
6.904021e+002,2.542946e-003
6.923306e+002,2.816994e-003
6.942591e+002,3.143643e-003
6.961876e+002,2.408486e-003
6.981161e+002,1.997799e-003
7.000446e+002,2.276832e-003
7.019731e+002,3.077600e-003
7.039016e+002,3.777057e-003
7.058301e+002,3.762552e-003
7.077585e+002,3.473010e-003
7.096871e+002,3.656182e-003
7.116156e+002,4.565631e-003
7.135441e+002,5.026048e-003
7.154725e+002,4.478849e-003
7.174011e+002,4.014061e-003
7.193296e+002,4.485812e-003
7.212581e+002,4.587329e-003
7.231865e+002,4.932672e-003
7.251151e+002,5.156627e-003
7.270436e+002,4.907505e-003
7.289720e+002,5.077705e-003
7.309005e+002,5.521853e-003
7.328290e+002,5.881610e-003
7.347576e+002,6.134081e-003
7.366860e+002,6.747038e-003
7.386145e+002,7.086997e-003
7.405430e+002,6.553846e-003
7.424716e+002,6.305266e-003
7.444000e+002,6.196255e-003
7.463285e+002,6.104341e-003
7.482570e+002,6.080080e-003
7.501855e+002,6.798260e-003
7.521140e+002,7.266914e-003
7.540425e+002,7.203677e-003
7.559710e+002,7.157325e-003
7.578995e+002,7.443368e-003
7.598280e+002,7.553839e-003
7.617565e+002,7.568438e-003
7.636850e+002,7.545006e-003
7.656135e+002,7.850602e-003
7.675420e+002,7.995094e-003
7.694705e+002,8.197876e-003
7.713990e+002,8.313504e-003
7.733275e+002,8.004611e-003
7.752560e+002,7.679548e-003
7.771844e+002,7.525519e-003
7.791130e+002,7.384250e-003
7.810415e+002,7.077567e-003
7.829700e+002,6.804958e-003
7.848984e+002,7.124079e-003
7.868270e+002,7.209674e-003
7.887555e+002,6.784630e-003
7.906840e+002,6.544697e-003
7.926124e+002,6.238606e-003
7.945410e+002,5.870123e-003
7.964695e+002,5.327629e-003
7.983979e+002,4.893799e-003
8.003264e+002,4.769798e-003
8.022549e+002,4.854193e-003
8.041835e+002,5.080722e-003
8.061119e+002,5.523363e-003
8.080404e+002,6.161739e-003
8.099689e+002,5.961955e-003
8.118975e+002,5.596090e-003
8.138259e+002,6.419887e-003
8.157545e+002,7.258997e-003
8.176830e+002,6.895405e-003
8.196115e+002,6.253631e-003
8.215399e+002,6.266002e-003
8.234684e+002,6.352671e-003
8.253970e+002,6.226438e-003
8.273254e+002,5.789023e-003
8.292539e+002,5.534639e-003
8.311824e+002,5.549808e-003
8.331110e+002,5.693436e-003
8.350394e+002,5.768407e-003
8.369679e+002,5.944588e-003
8.388964e+002,5.689105e-003
8.408250e+002,5.369694e-003
8.427534e+002,5.463164e-003
8.446819e+002,5.781300e-003
8.466104e+002,5.747522e-003
8.485389e+002,5.695181e-003
8.504674e+002,5.470210e-003
8.523959e+002,5.210714e-003
8.543244e+002,5.420889e-003
8.562529e+002,5.631199e-003
8.581814e+002,5.466419e-003
8.601099e+002,5.705052e-003
8.620384e+002,5.745944e-003
8.639669e+002,5.093864e-003
8.658954e+002,5.034931e-003
8.678239e+002,5.421225e-003
8.697524e+002,5.303445e-003
8.716809e+002,5.067748e-003
8.736094e+002,4.814624e-003
8.755378e+002,5.087863e-003
8.774664e+002,5.402068e-003
8.793949e+002,5.399652e-003
8.813234e+002,5.234658e-003
8.832518e+002,5.212961e-003
8.851804e+002,5.227549e-003
8.871089e+002,5.074587e-003
8.890374e+002,5.254042e-003
8.909658e+002,5.318305e-003
8.928943e+002,5.470613e-003
8.948229e+002,5.604548e-003
8.967513e+002,5.859746e-003
8.986798e+002,5.844432e-003
9.006083e+002,5.628346e-003
9.025369e+002,5.610690e-003
9.044653e+002,5.734294e-003
9.063938e+002,5.610422e-003
9.083223e+002,5.617773e-003
9.102509e+002,5.429847e-003
9.121793e+002,4.742865e-003
9.141078e+002,4.323909e-003
9.160364e+002,4.532114e-003
9.179648e+002,4.500576e-003
9.198933e+002,4.217702e-003
9.218218e+002,4.041183e-003
9.237504e+002,3.799385e-003
9.256788e+002,3.409922e-003
9.276073e+002,3.016638e-003
9.295358e+002,3.070826e-003
9.314644e+002,3.213269e-003
9.333928e+002,3.092550e-003
9.353213e+002,3.282405e-003
9.372498e+002,3.449865e-003
9.391783e+002,3.163302e-003
9.411068e+002,3.037325e-003
9.430353e+002,3.112372e-003
9.449637e+002,3.138504e-003
9.468923e+002,3.126523e-003
9.488208e+002,3.278098e-003
9.507493e+002,3.499464e-003
9.526777e+002,3.431964e-003
9.546063e+002,3.412226e-003
9.565348e+002,3.787619e-003
9.584633e+002,3.938958e-003
9.603917e+002,3.900608e-003
9.623203e+002,3.724719e-003
9.642488e+002,3.742332e-003
9.661772e+002,3.980119e-003
9.681057e+002,4.122827e-003
9.700343e+002,3.969485e-003
9.719628e+002,3.822783e-003
9.738912e+002,3.611442e-003
9.758197e+002,3.177353e-003
9.777483e+002,2.811058e-003
9.796768e+002,3.066054e-003
9.816052e+002,3.370618e-003
9.835337e+002,3.049003e-003
9.854623e+002,2.813492e-003
9.873907e+002,2.770841e-003
9.893192e+002,2.503454e-003
9.912477e+002,2.073966e-003
9.931763e+002,2.108392e-003
9.951047e+002,2.275067e-003
9.970332e+002,2.230237e-003
9.989617e+002,1.818886e-003
1.000890e+003,1.670248e-003
1.002819e+003,1.879980e-003
1.004747e+003,1.915622e-003
1.006676e+003,1.916121e-003
1.008604e+003,2.100901e-003
1.010533e+003,2.143320e-003
1.012461e+003,2.318003e-003
1.014390e+003,2.393860e-003
1.016318e+003,2.437508e-003
1.018247e+003,2.819896e-003
1.020175e+003,3.008664e-003
1.022104e+003,3.282772e-003
1.024032e+003,3.644186e-003
1.025961e+003,3.841335e-003
1.027889e+003,4.070815e-003
1.029818e+003,4.399748e-003
1.031746e+003,4.807286e-003
1.033675e+003,5.105263e-003
1.035603e+003,5.568703e-003
1.037532e+003,5.842484e-003
1.039460e+003,6.033646e-003
1.041389e+003,6.348233e-003
1.043317e+003,6.516173e-003
1.045246e+003,6.556335e-003
1.047174e+003,6.667490e-003
1.049103e+003,6.697604e-003
1.051031e+003,6.827711e-003
1.052960e+003,7.031767e-003
1.054888e+003,7.057731e-003
1.056817e+003,6.983109e-003
1.058745e+003,7.107946e-003
1.060674e+003,7.090466e-003
1.062602e+003,7.275844e-003
1.064531e+003,7.463862e-003
1.066459e+003,7.242959e-003
1.068388e+003,6.883959e-003
1.070316e+003,6.925771e-003
1.072245e+003,7.250810e-003
1.074173e+003,7.307011e-003
1.076102e+003,6.990517e-003
1.078030e+003,6.773793e-003
1.079959e+003,6.914055e-003
1.081887e+003,7.386980e-003
1.083816e+003,7.581857e-003
1.085744e+003,7.683359e-003
1.087673e+003,7.704135e-003
1.089601e+003,7.570697e-003
1.091530e+003,7.692533e-003
1.093458e+003,8.160127e-003
1.095387e+003,8.316239e-003
1.097315e+003,8.423318e-003
1.099244e+003,8.394705e-003
1.101172e+003,8.650906e-003
1.103101e+003,8.739642e-003
1.105029e+003,8.487545e-003
1.106958e+003,8.524679e-003
1.108886e+003,8.703942e-003
1.110815e+003,8.865695e-003
1.112743e+003,8.937596e-003
1.114672e+003,8.905264e-003
1.116600e+003,8.893054e-003
1.118529e+003,8.840806e-003
1.120457e+003,8.771016e-003
1.122386e+003,8.802089e-003
1.124314e+003,8.778218e-003
1.126243e+003,8.512346e-003
1.128171e+003,8.367918e-003
1.130100e+003,8.457576e-003
1.132028e+003,8.306884e-003
1.133957e+003,8.122079e-003
1.135885e+003,7.887210e-003
1.137814e+003,7.632133e-003
1.139742e+003,7.438817e-003
1.141671e+003,7.187810e-003
1.143599e+003,6.990247e-003
1.145528e+003,6.600572e-003
1.147456e+003,6.118118e-003
1.149385e+003,5.692294e-003
1.151313e+003,5.378450e-003
1.153242e+003,5.116226e-003
1.155170e+003,4.924261e-003
1.157099e+003,4.870444e-003
1.159027e+003,4.769095e-003
1.160956e+003,4.471852e-003
1.162884e+003,4.274014e-003
1.164813e+003,4.278665e-003
1.166741e+003,4.358279e-003
1.168670e+003,4.507272e-003
1.170598e+003,4.511222e-003
1.172526e+003,4.442895e-003
1.174455e+003,4.450695e-003
1.176384e+003,4.394125e-003
1.178312e+003,4.361559e-003
1.180240e+003,4.374043e-003
1.182169e+003,4.232323e-003
1.184098e+003,4.097573e-003
1.186026e+003,3.969251e-003
1.187954e+003,3.746676e-003
1.189883e+003,3.398702e-003
1.191812e+003,3.262340e-003
1.193740e+003,3.355792e-003
1.195668e+003,3.302570e-003
1.197597e+003,3.115276e-003
1.199526e+003,2.991748e-003
1.201454e+003,2.862752e-003
1.203382e+003,2.726126e-003
1.205311e+003,2.614409e-003
1.207240e+003,2.465864e-003
1.209168e+003,2.539014e-003
1.211096e+003,2.650978e-003
1.213025e+003,2.695485e-003
1.214953e+003,2.722225e-003
1.216882e+003,2.661046e-003
1.218810e+003,2.658446e-003
1.220739e+003,2.713989e-003
1.222667e+003,2.788981e-003
1.224596e+003,2.795251e-003
1.226524e+003,2.961489e-003
1.228453e+003,3.166406e-003
1.230381e+003,3.393826e-003
1.232310e+003,3.565772e-003
1.234238e+003,3.660459e-003
1.236167e+003,3.881552e-003
1.238095e+003,3.956946e-003
1.240024e+003,4.084395e-003
1.241952e+003,4.115736e-003
1.243881e+003,4.036869e-003
1.245809e+003,4.096737e-003
1.247738e+003,4.134234e-003
1.249666e+003,4.228676e-003
1.251595e+003,4.387699e-003
1.253523e+003,4.495252e-003
1.255452e+003,4.460302e-003
1.257380e+003,4.439949e-003
1.259309e+003,4.522907e-003
1.261237e+003,4.681133e-003
1.263166e+003,4.927847e-003
1.265094e+003,5.126384e-003
1.267023e+003,5.342891e-003
1.268951e+003,5.640933e-003
1.270880e+003,5.892357e-003
1.272808e+003,6.129880e-003
1.274737e+003,6.396651e-003
1.276665e+003,6.858207e-003
1.278594e+003,7.211122e-003
1.280522e+003,7.336092e-003
1.282451e+003,7.416639e-003
1.284379e+003,7.537150e-003
1.286308e+003,8.013724e-003
1.288236e+003,8.283479e-003
1.290165e+003,8.354069e-003
1.292093e+003,8.534716e-003
1.294022e+003,8.531066e-003
1.295950e+003,8.773958e-003
1.297879e+003,9.039551e-003
1.299807e+003,9.110433e-003
1.301736e+003,9.057448e-003
1.303664e+003,9.004402e-003
1.305593e+003,8.970034e-003
1.307521e+003,8.811084e-003
1.309450e+003,8.542116e-003
1.311378e+003,8.247075e-003
1.313307e+003,8.074920e-003
1.315235e+003,8.069688e-003
1.317164e+003,7.891225e-003
1.319092e+003,7.556098e-003
1.321021e+003,7.191145e-003
1.322949e+003,6.913887e-003
1.324878e+003,6.751783e-003
1.326806e+003,6.674387e-003
1.328735e+003,6.717390e-003
1.330663e+003,6.736336e-003
1.332592e+003,6.786952e-003
1.334520e+003,6.782105e-003
1.336449e+003,6.674926e-003
1.338377e+003,6.678291e-003
1.340306e+003,6.807987e-003
1.342234e+003,6.956543e-003
1.344163e+003,7.126875e-003
1.346091e+003,7.207147e-003
1.348020e+003,7.306405e-003
1.349948e+003,7.370129e-003
1.351877e+003,7.302530e-003
1.353805e+003,7.302665e-003
1.355734e+003,7.280359e-003
1.357662e+003,6.991830e-003
1.359591e+003,6.685592e-003
1.361519e+003,6.466632e-003
1.363448e+003,6.309502e-003
1.365376e+003,6.129645e-003
1.367305e+003,5.963399e-003
1.369233e+003,5.920806e-003
1.371162e+003,5.782878e-003
1.373090e+003,5.687259e-003
1.375019e+003,5.727512e-003
1.376947e+003,5.828715e-003
1.378876e+003,5.898201e-003
1.380804e+003,6.110490e-003
1.382733e+003,6.148598e-003
1.384661e+003,5.950937e-003
1.386590e+003,5.745441e-003
1.388518e+003,5.728452e-003
1.390447e+003,5.760315e-003
1.392375e+003,5.554741e-003
1.394304e+003,5.267893e-003
1.396232e+003,5.186202e-003
1.398161e+003,5.155319e-003
1.400089e+003,5.128228e-003
1.402018e+003,5.008417e-003
1.403946e+003,4.705316e-003
1.405875e+003,4.506703e-003
1.407803e+003,4.565430e-003
1.409732e+003,4.446744e-003
1.411660e+003,4.193981e-003
1.413589e+003,4.118913e-003
1.415517e+003,4.207330e-003
1.417446e+003,4.148417e-003
1.419374e+003,4.300718e-003
1.421303e+003,4.933577e-003
1.423231e+003,5.489068e-003
1.425160e+003,6.147658e-003
1.427088e+003,6.716011e-003
1.429017e+003,6.982099e-003
1.430945e+003,7.267285e-003
1.432874e+003,7.622792e-003
1.434802e+003,7.876244e-003
1.436731e+003,8.124510e-003
1.438659e+003,8.672607e-003
1.440588e+003,9.130126e-003
1.442516e+003,9.575798e-003
1.444445e+003,9.991073e-003
1.446373e+003,1.042694e-002
1.448302e+003,1.085577e-002
1.450230e+003,1.123449e-002
1.452159e+003,1.165309e-002
1.454087e+003,1.203394e-002
1.456016e+003,1.181019e-002
1.457944e+003,1.203520e-002
1.459873e+003,1.260579e-002
1.461801e+003,1.268722e-002
1.463730e+003,1.239596e-002
1.465658e+003,1.226248e-002
1.467587e+003,1.212446e-002
1.469515e+003,1.168859e-002
1.471444e+003,1.118964e-002
1.473372e+003,1.084812e-002
1.475301e+003,1.059816e-002
1.477229e+003,1.017542e-002
1.479158e+003,9.750718e-003
1.481086e+003,9.057110e-003
1.483015e+003,8.489436e-003
1.484943e+003,8.099326e-003
1.486872e+003,7.669363e-003
1.488800e+003,7.166622e-003
1.490729e+003,6.699859e-003
1.492657e+003,6.486509e-003
1.494586e+003,6.229228e-003
1.496514e+003,5.812093e-003
1.498443e+003,5.665136e-003
1.500371e+003,5.597567e-003
1.502300e+003,5.376739e-003
1.504228e+003,4.867227e-003
1.506157e+003,4.344189e-003
1.508085e+003,4.613884e-003
1.510014e+003,4.762697e-003
1.511942e+003,4.673497e-003
1.513871e+003,4.670214e-003
1.515799e+003,4.466730e-003
1.517728e+003,4.603436e-003
1.519656e+003,4.569113e-003
1.521585e+003,4.329497e-003
1.523513e+003,4.719485e-003
1.525442e+003,4.956098e-003
1.527370e+003,5.187777e-003
1.529299e+003,5.528162e-003
1.531227e+003,5.669701e-003
1.533156e+003,5.703373e-003
1.535084e+003,6.139793e-003
1.537013e+003,6.296190e-003
1.538941e+003,5.992390e-003
1.540870e+003,6.082466e-003
1.542798e+003,6.571977e-003
1.544727e+003,7.008464e-003
1.546655e+003,7.304080e-003
1.548584e+003,7.547129e-003
1.550512e+003,7.812412e-003
1.552441e+003,7.878403e-003
1.554369e+003,7.825029e-003
1.556298e+003,7.793014e-003
1.558226e+003,7.383239e-003
1.560155e+003,7.904081e-003
1.562083e+003,8.910776e-003
1.564012e+003,9.360658e-003
1.565940e+003,9.661843e-003
1.567869e+003,9.691150e-003
1.569797e+003,9.701348e-003
1.571726e+003,1.003885e-002
1.573654e+003,1.006255e-002
1.575583e+003,9.825884e-003
1.577511e+003,9.783318e-003
1.579440e+003,9.819140e-003
1.581368e+003,9.754242e-003
1.583297e+003,9.634673e-003
1.585225e+003,9.466132e-003
1.587154e+003,9.415474e-003
1.589082e+003,9.240722e-003
1.591010e+003,9.038570e-003
1.592939e+003,8.840468e-003
1.594868e+003,8.622684e-003
1.596796e+003,8.422271e-003
1.598724e+003,8.264028e-003
1.600653e+003,7.994723e-003
1.602582e+003,7.748420e-003
1.604510e+003,7.516686e-003
1.606438e+003,7.304080e-003
1.608367e+003,7.103904e-003
1.610296e+003,6.970988e-003
1.612224e+003,6.699859e-003
1.614152e+003,6.243345e-003
1.616081e+003,5.702937e-003
1.618010e+003,5.746246e-003
1.619938e+003,5.850544e-003
1.621866e+003,5.586558e-003
1.623795e+003,5.330346e-003
1.625724e+003,5.482357e-003
1.627652e+003,5.449642e-003
1.629580e+003,5.358322e-003
1.631509e+003,5.310959e-003
1.633438e+003,5.053166e-003
1.635366e+003,4.547784e-003
1.637294e+003,4.479719e-003
1.639223e+003,4.517081e-003
1.641151e+003,4.306607e-003
1.643080e+003,3.816031e-003
1.645008e+003,3.245448e-003
1.646937e+003,2.976635e-003
1.648865e+003,3.046534e-003
1.650794e+003,2.686083e-003
1.652722e+003,1.982654e-003
1.654651e+003,2.218947e-003
1.656579e+003,2.584209e-003
1.658508e+003,2.446837e-003
1.660436e+003,2.281995e-003
1.662365e+003,2.139724e-003
1.664293e+003,2.153276e-003
1.666222e+003,2.243992e-003
1.668150e+003,1.930099e-003
1.670079e+003,1.614272e-003
1.672007e+003,1.668252e-003
1.673936e+003,1.351584e-003
1.675864e+003,1.184100e-003
1.677793e+003,1.247531e-003
1.679721e+003,9.546461e-004
1.681650e+003,4.453509e-004
1.683578e+003,-1.659036e-004
1.685507e+003,-1.383788e-004
1.687435e+003,-1.023830e-005
1.689364e+003,-8.991647e-005
1.691292e+003,-2.286641e-004
1.693221e+003,-5.187679e-004
1.695149e+003,-8.992870e-004
1.697078e+003,-7.753729e-004
1.699006e+003,-1.047891e-003
1.700935e+003,-1.177081e-003
1.702863e+003,-7.167602e-004
1.704792e+003,-6.128122e-004
1.706720e+003,-4.647212e-004
1.708649e+003,-3.926265e-004
1.710577e+003,-3.451195e-004
1.712506e+003,-4.011342e-004
1.714434e+003,-6.635652e-004
1.716363e+003,-9.373437e-004
1.718291e+003,-8.963773e-004
1.720220e+003,-6.119189e-004
1.722148e+003,-5.862423e-004
1.724077e+003,-6.650209e-004
1.726005e+003,-6.789818e-004
1.727934e+003,-7.471591e-004
1.729862e+003,-7.678317e-004
1.731791e+003,-8.638724e-004
1.733719e+003,-1.261402e-003
1.735648e+003,-1.189373e-003
1.737576e+003,-1.154279e-003
1.739505e+003,-1.239761e-003
1.741433e+003,-1.086563e-003
1.743362e+003,-1.026471e-003
1.745290e+003,-8.857961e-004
1.747219e+003,-8.163839e-004
1.749147e+003,-8.993201e-004
1.751076e+003,-9.979102e-004
1.753004e+003,-8.297447e-004
1.754933e+003,-7.295286e-004
1.756861e+003,-7.133530e-004
1.758790e+003,-7.079279e-004
1.760718e+003,-8.337793e-004
1.762647e+003,-8.220722e-004
1.764575e+003,-6.416965e-004
1.766504e+003,-6.887410e-004
1.768432e+003,-7.635319e-004
1.770361e+003,-8.171115e-004
1.772289e+003,-9.575114e-004
1.774218e+003,-9.224653e-004
1.776146e+003,-7.727269e-004
1.778075e+003,-7.314802e-004
1.780003e+003,-8.631780e-004
1.781932e+003,-8.851678e-004
1.783860e+003,-8.165162e-004
1.785789e+003,-6.617787e-004
1.787717e+003,-5.621857e-004
1.789646e+003,-6.779563e-004
1.791574e+003,-9.240854e-004
1.793503e+003,-9.833314e-004
1.795431e+003,-8.510087e-004
1.797360e+003,-7.777874e-004
1.799288e+003,-7.977310e-004
1.801217e+003,-8.077190e-004
1.803145e+003,-5.870695e-004
1.805074e+003,-4.355604e-004
1.807002e+003,-4.722677e-004
1.808931e+003,-6.639953e-004
1.810859e+003,-6.147313e-004
1.812788e+003,-4.401614e-004
1.814716e+003,-4.768021e-004
1.816645e+003,-5.024189e-004
1.818573e+003,-5.327336e-004
1.820502e+003,-5.503389e-004
1.822430e+003,-5.120828e-004
1.824359e+003,-5.374328e-004
1.826287e+003,-5.745616e-004
1.828216e+003,-6.755082e-004
1.830144e+003,-6.922476e-004
1.832073e+003,-5.149951e-004
1.834001e+003,-4.302311e-004
1.835930e+003,-5.426615e-004
1.837858e+003,-6.185363e-004
1.839787e+003,-5.708224e-004
1.841715e+003,-6.409686e-004
1.843644e+003,-8.578870e-004
1.845572e+003,-8.584161e-004
1.847501e+003,-7.860560e-004
1.849429e+003,-7.163963e-004
1.851358e+003,-6.268080e-004
1.853286e+003,-6.168819e-004
1.855215e+003,-6.062940e-004
1.857143e+003,-5.986507e-004
1.859072e+003,-6.241280e-004
1.861000e+003,-6.138380e-004
1.862929e+003,-5.975587e-004
1.864857e+003,-5.625166e-004
1.866786e+003,-6.584703e-004
1.868714e+003,-7.751083e-004
1.870643e+003,-6.265432e-004
1.872571e+003,-4.534014e-004
1.874500e+003,-4.216909e-004
1.876428e+003,-4.566120e-004
1.878357e+003,-4.543613e-004
1.880285e+003,-3.957714e-004
1.882214e+003,-4.001080e-004
1.884142e+003,-4.741212e-004
1.886071e+003,-4.636952e-004
1.887999e+003,-4.897100e-004
1.889928e+003,-4.812040e-004
1.891856e+003,-3.707772e-004
1.893785e+003,-3.402527e-004
1.895713e+003,-3.368094e-004
1.897642e+003,-2.928724e-004
1.899570e+003,-3.821324e-004
1.901499e+003,-4.385395e-004
1.903427e+003,-3.793185e-004
1.905356e+003,-3.959369e-004
1.907284e+003,-4.636952e-004
1.909213e+003,-4.243722e-004
1.911141e+003,-3.396898e-004
1.913070e+003,-3.833573e-004
1.914998e+003,-4.906698e-004
1.916927e+003,-5.889887e-004
1.918855e+003,-6.266756e-004
1.920784e+003,-5.646345e-004
1.922712e+003,-5.446470e-004
1.924641e+003,-4.811710e-004
1.926569e+003,-5.116856e-004
1.928498e+003,-5.614246e-004
1.930426e+003,-4.725324e-004
1.932355e+003,-4.330778e-004
1.934283e+003,-4.709106e-004
1.936212e+003,-5.116856e-004
1.938140e+003,-5.117187e-004
1.940069e+003,-5.003008e-004
1.941997e+003,-4.939463e-004
1.943926e+003,-4.842159e-004
1.945854e+003,-4.437031e-004
1.947783e+003,-4.470793e-004
1.949711e+003,-4.584656e-004
1.951640e+003,-4.827265e-004
1.953568e+003,-4.329454e-004
1.955497e+003,-4.485688e-004
1.957425e+003,-4.739226e-004
1.959354e+003,-5.234011e-004
1.961282e+003,-4.883861e-004
1.963211e+003,-4.653832e-004
1.965139e+003,-4.512168e-004
1.967068e+003,-4.962631e-004
1.968996e+003,-5.039744e-004
1.970925e+003,-4.617093e-004
1.972853e+003,-5.439852e-004
1.974782e+003,-5.996102e-004
1.976710e+003,-5.784332e-004
1.978639e+003,-5.306487e-004
1.980567e+003,-5.316745e-004
1.982496e+003,-5.410399e-004
1.984424e+003,-5.798560e-004
1.986353e+003,-5.605973e-004
1.988281e+003,-4.822963e-004
1.990210e+003,-4.677663e-004
1.992138e+003,-5.037427e-004
1.994067e+003,-5.003339e-004
1.995995e+003,-5.428600e-004
1.997924e+003,-5.229378e-004
1.999852e+003,-4.597895e-004
2.001781e+003,-5.117849e-004
2.003709e+003,-5.291594e-004
2.005638e+003,-4.534345e-004
2.007566e+003,-4.105023e-004
2.009495e+003,-4.808400e-004
2.011423e+003,-5.277033e-004
2.013352e+003,-4.574064e-004
2.015280e+003,-4.526070e-004
2.017208e+003,-4.786224e-004
2.019137e+003,-4.689578e-004
2.021066e+003,-4.620402e-004
2.022994e+003,-4.618748e-004
2.024922e+003,-4.149712e-004
2.026851e+003,-3.740878e-004
2.028780e+003,-3.679964e-004
2.030708e+003,-3.305519e-004
2.032636e+003,-3.065473e-004
2.034565e+003,-3.640236e-004
2.036494e+003,-4.589621e-004
2.038422e+003,-4.269541e-004
2.040350e+003,-3.712076e-004
2.042279e+003,-3.624014e-004
2.044208e+003,-3.667383e-004
2.046136e+003,-3.275390e-004
2.048064e+003,-3.225395e-004
2.049993e+003,-3.103550e-004
2.051921e+003,-3.138978e-004
2.053850e+003,-3.662748e-004
2.055778e+003,-3.317438e-004
2.057707e+003,-2.865811e-004
2.059635e+003,-2.099859e-004
2.061564e+003,-1.586168e-004
2.063492e+003,-2.514808e-004
2.065421e+003,-2.882699e-004
2.067349e+003,-2.036603e-004
2.069278e+003,-1.919362e-004
2.071206e+003,-2.195569e-004
2.073135e+003,-1.654399e-004
2.075063e+003,-1.372858e-004
2.076992e+003,-1.218499e-004
2.078920e+003,-9.385859e-005
2.080849e+003,-6.361269e-005
2.082777e+003,-4.648457e-005
2.084706e+003,-4.370160e-005
2.086634e+003,-8.908829e-005
2.088563e+003,-4.512622e-005
2.090491e+003,4.648955e-005
2.092420e+003,9.036592e-005
2.094348e+003,2.505006e-005
2.096277e+003,1.756140e-005
2.098205e+003,5.394557e-005
2.100134e+003,-3.343096e-005
2.102062e+003,6.593724e-006
2.103991e+003,1.813473e-004
2.105919e+003,2.201984e-004
2.107848e+003,1.858223e-004
2.109776e+003,1.994796e-004
2.111705e+003,2.602464e-004
2.113633e+003,3.350812e-004
2.115562e+003,3.165786e-004
2.117490e+003,2.928711e-004
2.119419e+003,3.103449e-004
2.121347e+003,3.068965e-004
2.123276e+003,2.763595e-004
2.125204e+003,2.420122e-004
2.127133e+003,2.605780e-004
2.129061e+003,3.038460e-004
2.130990e+003,3.112401e-004
2.132918e+003,3.888363e-004
2.134847e+003,3.538831e-004
2.136775e+003,2.501678e-004
2.138704e+003,2.571631e-004
2.140632e+003,3.594211e-004
2.142561e+003,3.315000e-004
2.144489e+003,2.331274e-004
2.146418e+003,2.681371e-004
2.148346e+003,3.629031e-004
2.150275e+003,3.957012e-004
2.152203e+003,4.323161e-004
2.154132e+003,4.465450e-004
2.156060e+003,4.064798e-004
2.157989e+003,3.561381e-004
2.159917e+003,3.830327e-004
2.161846e+003,4.936131e-004
2.163774e+003,5.331556e-004
2.165703e+003,5.535254e-004
2.167631e+003,5.969885e-004
2.169560e+003,6.887398e-004
2.171488e+003,6.849898e-004
2.173417e+003,5.151753e-004
2.175345e+003,4.881067e-004
2.177274e+003,5.789392e-004
2.179202e+003,5.721709e-004
2.181131e+003,5.991452e-004
2.183059e+003,6.536630e-004
2.184988e+003,5.367053e-004
2.186916e+003,4.494306e-004
2.188845e+003,4.800129e-004
2.190773e+003,5.702134e-004
2.192702e+003,5.830865e-004
2.194630e+003,4.666453e-004
2.196559e+003,3.741782e-004
2.198487e+003,4.030638e-004
2.200416e+003,4.621011e-004
2.202344e+003,4.242898e-004
2.204273e+003,3.867138e-004
2.206201e+003,4.504589e-004
2.208130e+003,4.746393e-004
2.210058e+003,3.853541e-004
2.211987e+003,3.071286e-004
2.213915e+003,4.207078e-004
2.215844e+003,4.498287e-004
2.217772e+003,3.961987e-004
2.219701e+003,4.439247e-004
2.221629e+003,3.361423e-004
2.223558e+003,2.874667e-004
2.225486e+003,3.429070e-004
2.227415e+003,3.582936e-004
2.229343e+003,3.584262e-004
2.231272e+003,4.048215e-004
2.233200e+003,3.553422e-004
2.235129e+003,3.419453e-004
2.237057e+003,3.338875e-004
2.238986e+003,3.064654e-004
2.240914e+003,3.151528e-004
2.242843e+003,3.779587e-004
2.244771e+003,3.937446e-004
2.246700e+003,2.918764e-004
2.248628e+003,2.396252e-004
2.250557e+003,2.808023e-004
2.252485e+003,3.372035e-004
2.254414e+003,3.436365e-004
2.256342e+003,3.360429e-004
2.258271e+003,3.023871e-004
2.260199e+003,2.855436e-004
2.262128e+003,2.900528e-004
2.264056e+003,2.875661e-004
2.265985e+003,2.918433e-004
2.267913e+003,2.012034e-004
2.269842e+003,2.032918e-004
2.271770e+003,2.074023e-004
2.273699e+003,1.522776e-004
2.275627e+003,2.047504e-004
2.277556e+003,1.589068e-004
2.279484e+003,9.281837e-005
2.281413e+003,1.260270e-004
2.283341e+003,1.422014e-004
2.285270e+003,1.321255e-004
2.287198e+003,1.848279e-004
2.289127e+003,1.417706e-004
2.291055e+003,1.923857e-004
2.292984e+003,2.076344e-004
2.294912e+003,9.368004e-005
2.296841e+003,6.282669e-005
2.298769e+003,1.115435e-004
2.300698e+003,2.085294e-004
2.302626e+003,2.427415e-004
2.304555e+003,2.402219e-004
2.306483e+003,1.958000e-004
2.308412e+003,2.520907e-004
2.310340e+003,2.496705e-004
2.312269e+003,1.026614e-004
2.314197e+003,1.127035e-004
2.316125e+003,1.027277e-004
2.318054e+003,-1.040947e-004
2.319983e+003,-2.646934e-004
2.321911e+003,-2.906539e-004
2.323840e+003,-2.259816e-004
2.325768e+003,-2.868791e-004
2.327697e+003,-3.864691e-004
2.329625e+003,-4.347329e-004
2.331553e+003,-4.772323e-004
2.333482e+003,-4.288740e-004
2.335411e+003,-3.736906e-004
2.337339e+003,-4.721684e-004
2.339268e+003,-5.970955e-004
2.341196e+003,-6.124814e-004
2.343125e+003,-5.592406e-004
2.345053e+003,-4.229819e-004
2.346981e+003,-2.224712e-004
2.348910e+003,-1.409956e-004
2.350839e+003,-2.185634e-004
2.352767e+003,-4.798140e-004
2.354696e+003,-6.684946e-004
2.356624e+003,-7.055461e-004
2.358552e+003,-6.867230e-004
2.360481e+003,-6.970113e-004
2.362409e+003,-7.974333e-004
2.364338e+003,-8.572587e-004
2.366267e+003,-7.136507e-004
2.368195e+003,-6.153930e-004
2.370124e+003,-5.261479e-004
2.372052e+003,-3.162486e-004
2.373980e+003,-1.314891e-004
2.375909e+003,-4.833987e-005
2.377838e+003,1.890709e-004
2.379766e+003,4.954044e-004
2.381695e+003,5.734316e-004
2.383623e+003,5.660662e-004
2.385552e+003,6.791158e-004
2.387480e+003,7.331126e-004
2.389408e+003,7.552177e-004
2.391337e+003,7.630510e-004
2.393266e+003,7.080881e-004
2.395194e+003,7.194717e-004
2.397123e+003,7.985683e-004
2.399051e+003,7.731748e-004
2.400979e+003,7.158210e-004
2.402908e+003,7.373610e-004
2.404836e+003,7.768261e-004
2.406765e+003,8.132407e-004
2.408694e+003,8.072323e-004
2.410622e+003,7.997965e-004
2.412551e+003,8.849503e-004
2.414479e+003,8.842531e-004
2.416407e+003,8.898974e-004
2.418336e+003,9.068307e-004
2.420264e+003,8.476997e-004
2.422193e+003,8.502228e-004
2.424122e+003,1.017179e-003
2.426050e+003,1.108255e-003
2.427979e+003,1.095300e-003
2.429907e+003,1.122374e-003
2.431835e+003,1.188785e-003
2.433764e+003,1.250521e-003
2.435692e+003,1.298242e-003
2.437621e+003,1.319179e-003
2.439550e+003,1.357800e-003
2.441478e+003,1.281027e-003
2.443406e+003,1.207458e-003
2.445335e+003,1.255240e-003
2.447263e+003,1.324762e-003
2.449192e+003,1.282356e-003
2.451121e+003,1.390972e-003
2.453049e+003,1.457325e-003
2.454978e+003,1.485318e-003
2.456906e+003,1.511186e-003
2.458834e+003,1.522491e-003
2.460763e+003,1.522524e-003
2.462691e+003,1.553116e-003
2.464620e+003,1.585704e-003
2.466549e+003,1.697057e-003
2.468477e+003,1.653817e-003
2.470406e+003,1.628140e-003
2.472334e+003,1.550788e-003
2.474262e+003,1.559899e-003
2.476191e+003,1.712425e-003
2.478119e+003,1.706504e-003
2.480048e+003,1.640479e-003
2.481977e+003,1.609217e-003
2.483905e+003,1.663296e-003
2.485833e+003,1.702845e-003
2.487762e+003,1.739537e-003
2.489690e+003,1.800553e-003
2.491619e+003,1.805843e-003
2.493547e+003,1.883408e-003
2.495476e+003,1.914856e-003
2.497405e+003,1.860513e-003
2.499333e+003,1.908533e-003
2.501261e+003,2.116117e-003
2.503190e+003,2.119280e-003
2.505118e+003,1.975797e-003
2.507047e+003,1.942680e-003
2.508975e+003,2.013245e-003
2.510904e+003,2.017206e-003
2.512833e+003,2.041873e-003
2.514761e+003,2.136627e-003
2.516689e+003,2.127970e-003
2.518618e+003,2.042705e-003
2.520546e+003,2.055289e-003
2.522475e+003,2.079693e-003
2.524403e+003,2.105895e-003
2.526332e+003,2.148548e-003
2.528260e+003,2.256182e-003
2.530189e+003,2.309509e-003
2.532117e+003,2.218214e-003
2.534046e+003,2.146417e-003
2.535974e+003,2.251253e-003
2.537903e+003,2.316604e-003
2.539831e+003,2.226340e-003
2.541760e+003,2.185811e-003
2.543688e+003,2.144885e-003
2.545617e+003,2.125639e-003
2.547545e+003,2.234067e-003
2.549474e+003,2.363676e-003
2.551402e+003,2.313506e-003
2.553331e+003,2.248821e-003
2.555259e+003,2.244458e-003
2.557188e+003,2.323400e-003
2.559116e+003,2.308843e-003
2.561045e+003,2.223276e-003
2.562973e+003,2.302281e-003
2.564902e+003,2.312907e-003
2.566830e+003,2.241294e-003
2.568759e+003,2.320069e-003
2.570687e+003,2.325831e-003
2.572616e+003,2.283827e-003
2.574544e+003,2.370172e-003
2.576473e+003,2.337324e-003
2.578401e+003,2.361977e-003
2.580330e+003,2.400590e-003
2.582258e+003,2.400757e-003
2.584187e+003,2.449070e-003
2.586115e+003,2.471529e-003
2.588044e+003,2.599942e-003
2.589972e+003,2.680315e-003
2.591901e+003,2.603709e-003
2.593829e+003,2.620876e-003
2.595758e+003,2.643144e-003
2.597686e+003,2.625309e-003
2.599615e+003,2.680649e-003
2.601543e+003,2.714156e-003
2.603472e+003,2.534315e-003
2.605400e+003,2.541347e-003
2.607329e+003,2.574977e-003
2.609257e+003,2.587809e-003
2.611186e+003,2.661646e-003
2.613114e+003,2.660312e-003
2.615043e+003,2.685250e-003
2.616971e+003,2.783712e-003
2.618900e+003,2.699986e-003
2.620828e+003,2.633343e-003
2.622757e+003,2.778810e-003
2.624685e+003,2.930798e-003
2.626614e+003,2.875193e-003
2.628542e+003,2.749366e-003
2.630471e+003,2.720624e-003
2.632399e+003,2.838005e-003
2.634328e+003,2.818929e-003
2.636256e+003,2.800453e-003
2.638185e+003,2.925094e-003
2.640113e+003,3.048736e-003
2.642042e+003,3.055510e-003
2.643970e+003,3.047802e-003
2.645899e+003,3.158529e-003
2.647827e+003,3.294323e-003
2.649756e+003,3.287680e-003
2.651684e+003,3.234933e-003
2.653613e+003,3.314022e-003
2.655541e+003,3.431496e-003
2.657470e+003,3.441983e-003
2.659398e+003,3.458482e-003
2.661327e+003,3.510787e-003
2.663255e+003,3.534437e-003
2.665184e+003,3.488943e-003
2.667112e+003,3.492316e-003
2.669041e+003,3.522178e-003
2.670969e+003,3.458482e-003
2.672898e+003,3.412360e-003
2.674826e+003,3.512224e-003
2.676755e+003,3.628783e-003
2.678683e+003,3.686489e-003
2.680612e+003,3.740928e-003
2.682540e+003,3.758742e-003
2.684469e+003,3.729498e-003
2.686397e+003,3.794104e-003
2.688326e+003,3.839664e-003
2.690254e+003,3.905857e-003
2.692183e+003,4.023926e-003
2.694111e+003,4.076601e-003
2.696040e+003,4.184748e-003
2.697968e+003,4.233862e-003
2.699897e+003,4.205891e-003
2.701825e+003,4.223824e-003
2.703754e+003,4.261299e-003
2.705682e+003,4.276256e-003
2.707611e+003,4.349410e-003
2.709539e+003,4.503522e-003
2.711468e+003,4.589505e-003
2.713396e+003,4.591615e-003
2.715325e+003,4.575810e-003
2.717253e+003,4.636087e-003
2.719182e+003,4.695971e-003
2.721110e+003,4.822765e-003
2.723039e+003,4.920809e-003
2.724967e+003,4.992865e-003
2.726896e+003,5.032719e-003
2.728824e+003,5.087159e-003
2.730753e+003,5.191935e-003
2.732681e+003,5.284260e-003
2.734610e+003,5.290801e-003
2.736538e+003,5.323101e-003
2.738467e+003,5.393211e-003
2.740395e+003,5.483464e-003
2.742324e+003,5.526316e-003
2.744252e+003,5.565212e-003
2.746181e+003,5.645666e-003
2.748109e+003,5.802086e-003
2.750038e+003,5.934847e-003
2.751966e+003,5.964306e-003
2.753895e+003,6.018964e-003
2.755823e+003,6.041407e-003
2.757752e+003,6.070537e-003
2.759680e+003,6.269733e-003
2.761609e+003,6.558488e-003
2.763537e+003,6.848547e-003
2.765466e+003,7.064028e-003
2.767394e+003,7.322411e-003
2.769323e+003,7.699851e-003
2.771251e+003,7.996714e-003
2.773180e+003,8.416258e-003
2.775108e+003,8.913786e-003
2.777037e+003,9.295050e-003
2.778965e+003,9.795010e-003
2.780894e+003,1.043162e-002
2.782822e+003,1.101894e-002
2.784750e+003,1.157975e-002
2.786679e+003,1.229721e-002
2.788608e+003,1.303091e-002
2.790536e+003,1.373900e-002
2.792465e+003,1.445462e-002
2.794393e+003,1.515677e-002
2.796322e+003,1.577632e-002
2.798250e+003,1.638564e-002
2.800178e+003,1.709664e-002
2.802107e+003,1.784199e-002
2.804036e+003,1.839033e-002
2.805964e+003,1.886703e-002
2.807893e+003,1.917672e-002
2.809821e+003,1.924810e-002
2.811750e+003,1.937748e-002
2.813678e+003,1.944882e-002
2.815606e+003,1.935988e-002
2.817535e+003,1.923892e-002
2.819464e+003,1.906675e-002
2.821392e+003,1.873282e-002
2.823321e+003,1.826691e-002
2.825249e+003,1.783968e-002
2.827177e+003,1.749524e-002
2.829106e+003,1.708420e-002
2.831034e+003,1.647590e-002
2.832963e+003,1.582553e-002
2.834892e+003,1.530605e-002
2.836820e+003,1.469904e-002
2.838749e+003,1.408417e-002
2.840677e+003,1.338942e-002
2.842605e+003,1.267156e-002
2.844534e+003,1.188820e-002
2.846462e+003,1.114756e-002
2.848391e+003,1.057755e-002
2.850320e+003,1.018115e-002
2.852248e+003,9.960898e-003
2.854177e+003,9.766916e-003
2.856105e+003,9.528683e-003
2.858033e+003,9.438669e-003
2.859962e+003,9.478865e-003
2.861890e+003,9.462237e-003
2.863819e+003,9.484148e-003
2.865748e+003,9.593311e-003
2.867676e+003,9.633826e-003
2.869604e+003,9.621664e-003
2.871533e+003,9.749871e-003
2.873461e+003,1.002651e-002
2.875390e+003,1.017559e-002
2.877319e+003,1.013879e-002
2.879247e+003,1.032459e-002
2.881176e+003,1.050816e-002
2.883104e+003,1.044781e-002
2.885032e+003,1.027373e-002
2.886961e+003,1.027095e-002
2.888889e+003,1.030148e-002
2.890818e+003,1.010972e-002
2.892747e+003,9.899369e-003
2.894675e+003,9.827545e-003
2.896604e+003,9.820835e-003
2.898532e+003,9.816158e-003
2.900460e+003,9.749532e-003
2.902389e+003,9.625932e-003
2.904317e+003,9.561775e-003
2.906246e+003,9.502809e-003
2.908175e+003,9.388928e-003
2.910103e+003,9.198721e-003
2.912031e+003,8.995946e-003
2.913960e+003,8.793062e-003
2.915888e+003,8.542656e-003
2.917817e+003,8.590238e-003
2.919745e+003,8.775412e-003
2.921674e+003,8.996960e-003
2.923603e+003,9.103665e-003
2.925531e+003,9.291665e-003
2.927459e+003,9.663571e-003
2.929388e+003,1.005163e-002
2.931316e+003,1.041391e-002
2.933245e+003,1.059371e-002
2.935173e+003,1.078715e-002
2.937102e+003,1.099372e-002
2.939031e+003,1.113103e-002
2.940959e+003,1.131179e-002
2.942887e+003,1.126611e-002
2.944816e+003,1.109177e-002
2.946744e+003,1.090693e-002
2.948673e+003,1.066115e-002
2.950601e+003,1.028886e-002
2.952530e+003,9.886217e-003
2.954458e+003,9.388793e-003
2.956387e+003,8.830898e-003
2.958315e+003,8.256868e-003
2.960244e+003,7.711791e-003
2.962172e+003,7.221330e-003
2.964101e+003,6.704435e-003
2.966029e+003,6.157135e-003
2.967958e+003,5.705857e-003
2.969886e+003,5.312938e-003
2.971815e+003,4.931064e-003
2.973743e+003,4.627012e-003
2.975672e+003,4.186387e-003
2.977600e+003,3.816298e-003
2.979529e+003,3.702429e-003
2.981457e+003,3.487172e-003
2.983386e+003,3.204557e-003
2.985314e+003,2.921491e-003
2.987243e+003,2.742097e-003
2.989171e+003,2.661179e-003
2.991100e+003,2.513552e-003
2.993028e+003,2.356713e-003
2.994957e+003,2.323366e-003
2.996885e+003,2.171125e-003
2.998814e+003,1.999097e-003
3.000742e+003,1.942314e-003
3.002671e+003,1.875754e-003
3.004599e+003,1.763956e-003
3.006528e+003,1.659304e-003
3.008456e+003,1.558636e-003
3.010385e+003,1.553016e-003
3.012313e+003,1.607953e-003
3.014242e+003,1.561495e-003
3.016170e+003,1.455895e-003
3.018099e+003,1.439672e-003
3.020027e+003,1.520529e-003
3.021956e+003,1.504237e-003
3.023884e+003,1.402174e-003
3.025813e+003,1.285979e-003
3.027741e+003,1.207624e-003
3.029670e+003,1.315656e-003
3.031598e+003,1.413742e-003
3.033527e+003,1.282257e-003
3.035455e+003,1.244141e-003
3.037384e+003,1.269363e-003
3.039312e+003,1.061785e-003
3.041241e+003,9.271516e-004
3.043169e+003,8.241956e-004
3.045098e+003,9.047057e-004
3.047026e+003,1.002434e-003
3.048955e+003,9.219717e-004
3.050883e+003,7.870498e-004
3.052812e+003,7.703866e-004
3.054740e+003,7.770584e-004
3.056669e+003,6.953772e-004
3.058597e+003,6.481545e-004
3.060526e+003,6.599016e-004
3.062454e+003,6.482541e-004
3.064383e+003,6.540944e-004
3.066311e+003,5.892577e-004
3.068240e+003,4.905945e-004
3.070168e+003,4.656503e-004
3.072097e+003,4.385184e-004
3.074025e+003,4.606417e-004
3.075954e+003,4.863818e-004
3.077882e+003,4.541737e-004
3.079811e+003,3.397236e-004
3.081739e+003,2.072366e-004
3.083668e+003,1.660664e-004
3.085596e+003,2.608432e-004
3.087525e+003,2.137009e-004
3.089453e+003,1.727952e-004
3.091382e+003,9.278522e-005
3.093310e+003,4.880918e-005
3.095239e+003,6.352260e-005
3.097167e+003,-3.048321e-006
3.099096e+003,-1.395382e-004
3.101024e+003,-1.503694e-004
3.102953e+003,-1.676550e-005
3.104881e+003,7.289550e-006
3.106810e+003,-6.523602e-005
3.108738e+003,-1.536485e-004
3.110667e+003,-1.874319e-004
3.112595e+003,-1.498063e-004
3.114524e+003,-6.666057e-005
3.116452e+003,-1.168480e-004
3.118381e+003,-2.623092e-004
3.120309e+003,-3.889519e-004
3.122238e+003,-4.649198e-004
3.124166e+003,-4.465497e-004
3.126095e+003,-3.679302e-004
3.128023e+003,-3.495228e-004
3.129952e+003,-3.110504e-004
3.131880e+003,-3.366439e-004
3.133809e+003,-3.443912e-004
3.135737e+003,-3.426364e-004
3.137666e+003,-3.115139e-004
3.139594e+003,-2.931373e-004
3.141523e+003,-3.671687e-004
3.143451e+003,-4.501907e-004
3.145380e+003,-4.620402e-004
3.147308e+003,-2.983689e-004
3.149237e+003,-3.530984e-004
3.151165e+003,-5.701937e-004
3.153094e+003,-5.804847e-004
3.155022e+003,-4.872608e-004
3.156951e+003,-3.331344e-004
3.158879e+003,-3.023423e-004
3.160808e+003,-3.023091e-004
3.162736e+003,-3.155533e-004
3.164665e+003,-4.013990e-004
3.166593e+003,-5.550049e-004
3.168522e+003,-5.713518e-004
3.170450e+003,-4.370499e-004
3.172379e+003,-3.203542e-004
3.174307e+003,-3.135667e-004
3.176236e+003,-3.136329e-004
3.178164e+003,-3.351540e-004
3.180093e+003,-3.845490e-004
3.182021e+003,-4.233791e-004
3.183950e+003,-4.557514e-004
3.185878e+003,-4.706128e-004
3.187807e+003,-4.360238e-004
3.189735e+003,-3.687247e-004
3.191664e+003,-4.298670e-004
3.193592e+003,-4.441665e-004
3.195521e+003,-3.986183e-004
3.197449e+003,-3.544558e-004
3.199378e+003,-3.268768e-004
3.201306e+003,-2.361815e-004
3.203235e+003,-2.998258e-004
3.205163e+003,-2.356516e-004
3.207092e+003,-7.812304e-005
3.209020e+003,-2.561186e-005
3.210948e+003,-6.367896e-005
3.212877e+003,-9.939075e-005
3.214806e+003,-8.879015e-005
3.216734e+003,-1.471233e-004
3.218663e+003,-2.511166e-004
3.220591e+003,-2.559513e-004
3.222520e+003,-1.054860e-004
3.224448e+003,-3.578329e-005
3.226376e+003,1.098532e-004
3.228305e+003,2.927385e-004
3.230234e+003,3.425422e-004
3.232162e+003,1.846953e-004
3.234091e+003,1.282808e-004
3.236019e+003,2.280552e-004
3.237948e+003,3.154180e-004
3.239876e+003,4.327141e-004
3.241804e+003,5.900208e-004
3.243733e+003,5.767826e-004
3.245662e+003,5.619191e-004
3.247590e+003,5.259236e-004
3.249519e+003,5.176301e-004
3.251447e+003,5.349802e-004
3.253375e+003,4.763973e-004
3.255304e+003,5.247625e-004
3.257232e+003,7.555829e-004
3.259161e+003,8.525135e-004
3.261090e+003,8.143694e-004
3.263018e+003,8.929852e-004
3.264947e+003,8.458406e-004
3.266875e+003,8.330925e-004
3.268803e+003,9.465105e-004
3.270732e+003,9.500968e-004
3.272660e+003,9.889171e-004
3.274589e+003,1.058098e-003
3.276518e+003,1.023523e-003
3.278446e+003,1.161774e-003
3.280375e+003,1.172140e-003
3.282303e+003,1.139150e-003
3.284231e+003,1.135329e-003
3.286160e+003,1.197955e-003
3.288088e+003,1.125197e-003
3.290017e+003,1.040661e-003
3.291946e+003,1.013725e-003
3.293874e+003,8.389021e-004
3.295802e+003,7.287316e-004
3.297731e+003,9.280813e-004
3.299659e+003,1.015984e-003
3.301588e+003,7.980703e-004
3.303516e+003,5.755218e-004
3.305445e+003,5.397242e-004
3.307374e+003,3.326937e-004
3.309302e+003,1.914575e-004
3.311230e+003,2.083968e-004
3.313159e+003,1.237070e-004
3.315087e+003,1.742885e-005
3.317016e+003,-1.683177e-005
3.318944e+003,-1.423868e-004
3.320873e+003,-1.562320e-004
3.322802e+003,-2.636007e-004
3.324730e+003,-4.008031e-004
3.326658e+003,-5.113216e-004
3.328587e+003,-4.058679e-004
3.330515e+003,-2.965478e-004
3.332444e+003,-5.263465e-004
3.334372e+003,-7.461667e-004
3.336301e+003,-7.856591e-004
3.338229e+003,-7.213582e-004
3.340158e+003,-6.856975e-004
3.342086e+003,-6.873846e-004
3.344015e+003,-6.959196e-004
3.345943e+003,-7.790773e-004
3.347872e+003,-9.122816e-004
3.349800e+003,-9.232588e-004
3.351729e+003,-8.946909e-004
3.353657e+003,-9.937779e-004
3.355586e+003,-1.175032e-003
3.357514e+003,-1.359051e-003
3.359443e+003,-1.413878e-003
3.361371e+003,-1.251953e-003
3.363300e+003,-1.217988e-003
3.365229e+003,-1.408825e-003
3.367157e+003,-1.593009e-003
3.369085e+003,-1.812686e-003
3.371014e+003,-1.888933e-003
3.372942e+003,-1.811861e-003
3.374871e+003,-1.903086e-003
3.376799e+003,-1.948246e-003
3.378728e+003,-1.950159e-003
3.380656e+003,-1.974436e-003
3.382585e+003,-2.147862e-003
3.384513e+003,-2.310278e-003
3.386442e+003,-2.352133e-003
3.388370e+003,-2.222369e-003
3.390299e+003,-2.226853e-003
3.392227e+003,-2.265123e-003
3.394156e+003,-2.288393e-003
3.396084e+003,-2.462057e-003
3.398013e+003,-2.603079e-003
3.399941e+003,-2.596261e-003
3.401870e+003,-2.568166e-003
3.403798e+003,-2.455303e-003
3.405727e+003,-2.608909e-003
3.407655e+003,-2.714652e-003
3.409584e+003,-2.653831e-003
3.411512e+003,-2.711425e-003
3.413441e+003,-2.790083e-003
3.415369e+003,-2.824221e-003
3.417298e+003,-2.814971e-003
3.419226e+003,-2.913720e-003
3.421155e+003,-2.861879e-003
3.423083e+003,-2.817242e-003
3.425012e+003,-2.861550e-003
3.426940e+003,-2.946071e-003
3.428869e+003,-2.998757e-003
3.430797e+003,-2.916550e-003
3.432726e+003,-2.890351e-003
3.434654e+003,-3.049857e-003
3.436583e+003,-3.230518e-003
3.438511e+003,-3.100589e-003
3.440440e+003,-2.902694e-003
3.442368e+003,-2.812963e-003
3.444297e+003,-2.852465e-003
3.446225e+003,-3.015670e-003
3.448154e+003,-3.113749e-003
3.450082e+003,-3.122828e-003
3.452011e+003,-3.162302e-003
3.453939e+003,-3.291325e-003
3.455868e+003,-3.440493e-003
3.457796e+003,-3.428495e-003
3.459725e+003,-3.282841e-003
3.461653e+003,-3.152434e-003
3.463582e+003,-3.263011e-003
3.465510e+003,-3.465213e-003
3.467439e+003,-3.482371e-003
3.469367e+003,-3.438521e-003
3.471296e+003,-3.292706e-003
3.473224e+003,-3.359093e-003
3.475153e+003,-3.488781e-003
3.477081e+003,-3.404760e-003
3.479010e+003,-3.433820e-003
3.480938e+003,-3.367970e-003
3.482867e+003,-3.465838e-003
3.484795e+003,-3.434445e-003
3.486724e+003,-3.289385e-003
3.488652e+003,-3.367872e-003
3.490581e+003,-3.608999e-003
3.492509e+003,-3.681448e-003
3.494438e+003,-3.418896e-003
3.496366e+003,-3.204733e-003
3.498295e+003,-3.359554e-003
3.500223e+003,-3.595592e-003
3.502152e+003,-3.608111e-003
3.504080e+003,-3.545377e-003
3.506009e+003,-3.477605e-003
3.507937e+003,-3.443846e-003
3.509866e+003,-3.518427e-003
3.511794e+003,-3.534334e-003
3.513723e+003,-3.552870e-003
3.515651e+003,-3.696890e-003
3.517580e+003,-3.632723e-003
3.519508e+003,-3.551293e-003
3.521437e+003,-3.582710e-003
3.523365e+003,-3.615373e-003
3.525294e+003,-3.663674e-003
3.527222e+003,-3.724978e-003
3.529151e+003,-3.690385e-003
3.531079e+003,-3.688939e-003
3.533008e+003,-3.690253e-003
3.534936e+003,-3.633281e-003
3.536865e+003,-3.618692e-003
3.538793e+003,-3.507055e-003
3.540722e+003,-3.367214e-003
3.542650e+003,-3.478460e-003
3.544579e+003,-3.545443e-003
3.546507e+003,-3.504459e-003
3.548436e+003,-3.545279e-003
3.550364e+003,-3.676356e-003
3.552293e+003,-3.783581e-003
3.554221e+003,-3.794978e-003
3.556150e+003,-3.765777e-003
3.558078e+003,-3.734866e-003
3.560007e+003,-3.673235e-003
3.561935e+003,-3.512708e-003
3.563864e+003,-3.810218e-003
3.565792e+003,-4.029828e-003
3.567721e+003,-3.905359e-003
3.569649e+003,-3.867594e-003
3.571578e+003,-3.835409e-003
3.573506e+003,-3.774285e-003
3.575435e+003,-3.694130e-003
3.577363e+003,-3.695050e-003
3.579292e+003,-3.748466e-003
3.581220e+003,-3.971751e-003
3.583149e+003,-4.118093e-003
3.585077e+003,-4.046438e-003
3.587006e+003,-4.063114e-003
3.588934e+003,-3.956352e-003
3.590863e+003,-3.864409e-003
3.592791e+003,-4.022999e-003
3.594720e+003,-4.179924e-003
3.596648e+003,-4.039085e-003
3.598577e+003,-3.802204e-003
3.600505e+003,-3.811236e-003
3.602434e+003,-4.000839e-003
3.604362e+003,-3.902929e-003
3.606291e+003,-4.099155e-003
3.608219e+003,-4.289649e-003
3.610148e+003,-4.166174e-003
3.612076e+003,-4.333774e-003
3.614005e+003,-4.421256e-003
3.615933e+003,-4.339450e-003
3.617862e+003,-4.301033e-003
3.619790e+003,-4.064033e-003
3.621719e+003,-3.950607e-003
3.623647e+003,-3.810021e-003
3.625576e+003,-3.888841e-003
3.627504e+003,-4.094166e-003
3.629433e+003,-4.040136e-003
3.631361e+003,-3.986361e-003
3.633290e+003,-4.052117e-003
3.635218e+003,-4.013085e-003
3.637146e+003,-3.949392e-003
3.639075e+003,-4.044337e-003
3.641004e+003,-3.875968e-003
3.642932e+003,-3.932810e-003
3.644861e+003,-4.250015e-003
3.646789e+003,-4.360083e-003
3.648718e+003,-4.411942e-003
3.650646e+003,-4.422634e-003
3.652574e+003,-4.312090e-003
3.654503e+003,-4.403939e-003
3.656432e+003,-4.403545e-003
3.658360e+003,-4.423356e-003
3.660289e+003,-4.538692e-003
3.662217e+003,-4.515607e-003
3.664146e+003,-4.350472e-003
3.666074e+003,-4.357918e-003
3.668002e+003,-4.586562e-003
3.669931e+003,-4.789230e-003
3.671860e+003,-4.783626e-003
3.673788e+003,-4.877014e-003
3.675717e+003,-4.799192e-003
3.677645e+003,-4.323277e-003
3.679573e+003,-4.340499e-003
3.681502e+003,-4.309071e-003
3.683430e+003,-4.235413e-003
3.685359e+003,-4.287746e-003
3.687288e+003,-4.419453e-003
3.689216e+003,-4.425356e-003
3.691145e+003,-4.233904e-003
3.693073e+003,-4.081003e-003
3.695001e+003,-4.239154e-003
3.696930e+003,-4.396100e-003
3.698858e+003,-4.387702e-003
3.700787e+003,-4.357262e-003
3.702716e+003,-4.183501e-003
3.704644e+003,-4.029204e-003
3.706573e+003,-4.077655e-003
3.708501e+003,-4.273278e-003
3.710429e+003,-4.310876e-003
3.712358e+003,-4.207817e-003
3.714286e+003,-4.326688e-003
3.716215e+003,-4.611511e-003
3.718144e+003,-4.487766e-003
3.720072e+003,-4.352210e-003
3.722000e+003,-4.301230e-003
3.723929e+003,-4.275902e-003
3.725857e+003,-4.173656e-003
3.727786e+003,-3.991483e-003
3.729714e+003,-4.227801e-003
3.731643e+003,-4.583939e-003
3.733572e+003,-4.797521e-003
3.735500e+003,-4.714146e-003
3.737428e+003,-4.510000e-003
3.739357e+003,-4.350800e-003
3.741285e+003,-4.281906e-003
3.743214e+003,-4.626657e-003
3.745142e+003,-4.353719e-003
3.747071e+003,-4.174444e-003
3.749000e+003,-4.503146e-003
3.750928e+003,-4.538462e-003
3.752856e+003,-4.094986e-003
3.754785e+003,-3.882930e-003
3.756713e+003,-3.928180e-003
3.758642e+003,-3.979992e-003
3.760570e+003,-4.073520e-003
3.762499e+003,-3.933434e-003
3.764427e+003,-3.787424e-003
3.766356e+003,-3.737396e-003
3.768284e+003,-3.830844e-003
3.770213e+003,-3.995225e-003
3.772141e+003,-3.968665e-003
3.774070e+003,-3.785124e-003
3.775998e+003,-3.779179e-003
3.777927e+003,-3.968205e-003
3.779855e+003,-4.010360e-003
3.781784e+003,-3.874885e-003
3.783712e+003,-3.873144e-003
3.785641e+003,-3.729676e-003
3.787569e+003,-3.732304e-003
3.789498e+003,-3.913568e-003
3.791426e+003,-3.929198e-003
3.793355e+003,-3.916490e-003
3.795283e+003,-3.967023e-003
3.797212e+003,-3.924798e-003
3.799140e+003,-4.027136e-003
3.801069e+003,-4.151274e-003
3.802997e+003,-3.853571e-003
3.804926e+003,-3.965939e-003
3.806854e+003,-4.129613e-003
3.808783e+003,-4.149732e-003
3.810711e+003,-4.034128e-003
3.812640e+003,-3.907001e-003
3.814568e+003,-4.195906e-003
3.816497e+003,-3.969420e-003
3.818425e+003,-3.791497e-003
3.820354e+003,-3.803452e-003
3.822282e+003,-3.787686e-003
3.824211e+003,-3.861749e-003
3.826139e+003,-4.024477e-003
3.828068e+003,-3.909267e-003
3.829996e+003,-3.726358e-003
3.831925e+003,-3.654343e-003
3.833853e+003,-3.794091e-003
3.835782e+003,-3.810612e-003
3.837710e+003,-3.887692e-003
3.839639e+003,-4.098400e-003
3.841567e+003,-4.076999e-003
3.843496e+003,-3.996408e-003
3.845424e+003,-3.908084e-003
3.847353e+003,-3.918592e-003
3.849281e+003,-4.028777e-003
3.851210e+003,-4.207096e-003
3.853138e+003,-4.378223e-003
3.855067e+003,-4.006585e-003
3.856995e+003,-3.858662e-003
3.858924e+003,-4.005600e-003
3.860852e+003,-4.100698e-003
3.862781e+003,-3.925422e-003
3.864709e+003,-3.804011e-003
3.866638e+003,-3.873538e-003
3.868566e+003,-4.132863e-003
3.870495e+003,-3.936914e-003
3.872423e+003,-3.851666e-003
3.874352e+003,-3.973885e-003
3.876280e+003,-4.057107e-003
3.878209e+003,-4.274360e-003
3.880137e+003,-4.377435e-003
3.882066e+003,-4.276755e-003
3.883994e+003,-4.304150e-003
3.885923e+003,-4.126495e-003
3.887851e+003,-3.936717e-003
3.889780e+003,-4.083498e-003
3.891708e+003,-4.289846e-003
3.893637e+003,-4.177857e-003
3.895565e+003,-3.893045e-003
3.897494e+003,-3.924404e-003
3.899422e+003,-4.052675e-003
3.901351e+003,-4.246209e-003
3.903279e+003,-4.244437e-003
3.905208e+003,-3.956090e-003
3.907136e+003,-3.786767e-003
3.909065e+003,-3.674089e-003
3.910993e+003,-3.972112e-003
3.912922e+003,-4.328853e-003
3.914850e+003,-4.207161e-003
3.916779e+003,-4.217826e-003
3.918707e+003,-4.174706e-003
3.920636e+003,-3.998312e-003
3.922564e+003,-4.089472e-003
3.924493e+003,-4.101879e-003
3.926421e+003,-3.965283e-003
3.928350e+003,-3.988791e-003
3.930278e+003,-4.030747e-003
3.932207e+003,-3.809233e-003
3.934135e+003,-3.479906e-003
3.936064e+003,-3.295074e-003
3.937992e+003,-3.534598e-003
3.939921e+003,-3.939869e-003
3.941849e+003,-3.914685e-003
3.943778e+003,-3.586818e-003
3.945706e+003,-3.707501e-003
3.947635e+003,-3.849827e-003
3.949563e+003,-3.834326e-003
3.951492e+003,-3.961277e-003
3.953420e+003,-4.000872e-003
3.955349e+003,-3.879449e-003
3.957277e+003,-3.791431e-003
3.959206e+003,-3.952347e-003
3.961134e+003,-4.091671e-003
3.963063e+003,-3.881091e-003
3.964991e+003,-4.054382e-003
3.966920e+003,-4.138344e-003
3.968848e+003,-3.824341e-003
3.970777e+003,-3.662228e-003
3.972705e+003,-3.797836e-003
3.974634e+003,-3.812879e-003
3.976562e+003,-3.684865e-003
3.978491e+003,-3.788048e-003
3.980419e+003,-3.848875e-003
3.982348e+003,-3.883653e-003
3.984276e+003,-3.923583e-003
3.986205e+003,-3.877840e-003
3.988133e+003,-3.725077e-003
3.990062e+003,-3.670606e-003
3.991990e+003,-3.732205e-003
3.993919e+003,-3.604727e-003
3.995847e+003,-3.537588e-003
3.997776e+003,-3.631244e-003
3.999704e+003,-3.703986e-003
4.001633e+003,0.000000e+000
