3.991989e+002,1.508480e-002
4.011274e+002,1.973642e-002
4.030559e+002,1.244683e-002
4.049844e+002,7.095181e-003
4.069129e+002,1.123310e-002
4.088414e+002,1.833762e-002
4.107699e+002,1.558505e-002
4.126984e+002,1.543846e-002
4.146269e+002,7.968905e-003
4.165554e+002,5.321122e-003
4.184839e+002,1.002515e-002
4.204124e+002,1.416389e-002
4.223409e+002,1.560871e-002
4.242694e+002,1.675038e-002
4.261979e+002,1.372775e-002
4.281264e+002,1.255756e-002
4.300549e+002,1.310142e-002
4.319834e+002,7.631088e-003
4.339119e+002,6.100443e-003
4.358404e+002,9.360725e-003
4.377689e+002,1.154429e-002
4.396974e+002,9.913098e-003
4.416259e+002,8.022499e-003
4.435544e+002,1.043824e-002
4.454829e+002,1.369902e-002
4.474114e+002,1.555754e-002
4.493399e+002,9.899471e-003
4.512684e+002,4.958980e-003
4.531969e+002,5.777842e-003
4.551254e+002,9.672075e-003
4.570539e+002,8.408826e-003
4.589824e+002,4.392719e-003
4.609109e+002,6.693769e-003
4.628394e+002,8.002046e-003
4.647679e+002,6.987655e-003
4.666964e+002,7.922774e-003
4.686249e+002,6.321303e-003
4.705533e+002,6.212993e-003
4.724819e+002,7.191179e-003
4.744103e+002,7.352166e-003
4.763389e+002,5.705891e-003
4.782673e+002,5.519974e-003
4.801959e+002,6.406672e-003
4.821243e+002,6.896213e-003
4.840529e+002,6.577763e-003
4.859813e+002,6.150077e-003
4.879099e+002,5.239554e-003
4.898383e+002,3.399804e-003
4.917668e+002,2.338857e-003
4.936953e+002,3.096221e-003
4.956238e+002,4.092155e-003
4.975523e+002,4.350381e-003
4.994808e+002,3.980988e-003
5.014093e+002,3.657819e-003
5.033378e+002,2.675981e-003
5.052663e+002,5.711424e-004
5.071948e+002,2.506319e-004
5.091233e+002,1.251784e-003
5.110518e+002,7.697719e-005
5.129803e+002,-1.877782e-003
5.149088e+002,-1.725040e-003
5.168373e+002,5.476201e-004
5.187658e+002,9.538159e-004
5.206943e+002,1.610580e-003
5.226228e+002,1.185529e-003
5.245513e+002,5.042282e-004
5.264798e+002,3.443992e-004
5.284083e+002,6.373700e-004
5.303368e+002,1.202269e-004
5.322653e+002,-9.945700e-005
5.341938e+002,-5.032463e-004
5.361223e+002,2.417138e-004
5.380508e+002,1.014356e-003
5.399792e+002,2.025129e-003
5.419078e+002,1.070620e-003
5.438363e+002,9.425590e-004
5.457648e+002,1.544636e-003
5.476932e+002,1.181841e-003
5.496218e+002,1.696525e-003
5.515503e+002,2.615809e-003
5.534788e+002,2.344886e-003
5.554072e+002,3.184396e-003
5.573358e+002,3.263442e-003
5.592643e+002,3.606498e-003
5.611927e+002,2.559444e-003
5.631212e+002,1.748519e-003
5.650497e+002,1.964447e-003
5.669783e+002,3.412193e-003
5.689067e+002,4.805075e-003
5.708352e+002,4.544503e-003
5.727637e+002,2.862519e-003
5.746923e+002,1.639814e-003
5.766207e+002,3.047268e-003
5.785492e+002,2.939505e-003
5.804777e+002,-8.682674e-003
5.824063e+002,-9.209638e-003
5.843347e+002,8.231665e-004
5.862632e+002,3.801357e-003
5.881917e+002,3.388950e-003
5.901202e+002,1.013592e-003
5.920487e+002,-9.317892e-004
5.939772e+002,-6.643592e-004
5.959057e+002,4.052482e-005
5.978342e+002,9.336266e-004
5.997627e+002,1.517470e-003
6.016912e+002,1.107458e-003
6.036197e+002,2.025994e-003
6.055482e+002,3.048102e-003
6.074767e+002,3.699321e-003
6.094052e+002,5.193277e-003
6.113337e+002,6.318479e-003
6.132622e+002,5.039725e-003
6.151907e+002,4.306172e-003
6.171192e+002,4.454745e-003
6.190477e+002,3.779898e-003
6.209762e+002,4.398911e-003
6.229047e+002,3.529159e-003
6.248332e+002,5.198196e-004
6.267617e+002,-1.017612e-003
6.286902e+002,-1.520111e-003
6.306187e+002,-9.763559e-004
6.325472e+002,-5.142670e-004
6.344756e+002,2.609427e-004
6.364042e+002,6.528666e-004
6.383326e+002,3.783235e-004
6.402612e+002,5.540365e-005
6.421896e+002,9.073952e-004
6.441182e+002,9.338259e-004
6.460466e+002,6.272825e-004
6.479752e+002,8.877725e-004
6.499036e+002,1.243543e-003
6.518322e+002,1.203770e-003
6.537606e+002,1.174665e-003
6.556891e+002,1.026279e-003
6.576177e+002,9.711503e-004
6.595461e+002,1.181775e-003
6.614746e+002,8.693459e-004
6.634031e+002,4.245551e-004
6.653317e+002,1.508393e-003
6.672601e+002,6.416558e-003
6.691886e+002,5.974921e-003
6.711171e+002,2.464998e-003
6.730457e+002,2.380733e-003
6.749741e+002,2.814793e-003
6.769026e+002,2.986343e-003
6.788311e+002,2.482426e-003
6.807596e+002,2.445938e-003
6.826881e+002,2.887568e-003
6.846166e+002,2.744998e-003
6.865451e+002,2.428844e-003
6.884736e+002,2.470863e-003
6.904021e+002,2.584776e-003
6.923306e+002,3.415633e-003
6.942591e+002,3.618926e-003
6.961876e+002,3.297495e-003
6.981161e+002,2.959287e-003
7.000446e+002,2.673514e-003
7.019731e+002,2.294353e-003
7.039016e+002,1.789574e-003
7.058301e+002,1.157920e-003
7.077585e+002,8.475005e-004
7.096871e+002,8.877061e-004
7.116156e+002,9.619849e-004
7.135441e+002,4.985557e-004
7.154725e+002,2.686676e-004
7.174011e+002,4.281129e-005
7.193296e+002,-2.165763e-004
7.212581e+002,-1.853123e-004
7.231865e+002,-2.162452e-004
7.251151e+002,-2.272069e-004
7.270436e+002,-5.460146e-005
7.289720e+002,1.560894e-004
7.309005e+002,2.419127e-004
7.328290e+002,6.186566e-005
7.347576e+002,-2.361152e-004
7.366860e+002,-3.240294e-004
7.386145e+002,-3.964335e-004
7.405430e+002,-1.401675e-004
7.424716e+002,3.151528e-004
7.444000e+002,3.498375e-004
7.463285e+002,8.002612e-004
7.482570e+002,7.712165e-004
7.501855e+002,6.890717e-004
7.521140e+002,1.667753e-003
7.540425e+002,2.629943e-003
7.559710e+002,2.663113e-003
7.578995e+002,2.755702e-003
7.598280e+002,2.754335e-003
7.617565e+002,2.877928e-003
7.636850e+002,3.301401e-003
7.656135e+002,3.754698e-003
7.675420e+002,3.958016e-003
7.694705e+002,3.753461e-003
7.713990e+002,3.545762e-003
7.733275e+002,3.653074e-003
7.752560e+002,3.885263e-003
7.771844e+002,4.005132e-003
7.791130e+002,3.812153e-003
7.810415e+002,3.850328e-003
7.829700e+002,3.607333e-003
7.848984e+002,3.800020e-003
7.868270e+002,3.954840e-003
7.887555e+002,3.770540e-003
7.906840e+002,3.189369e-003
7.926124e+002,2.630643e-003
7.945410e+002,2.394726e-003
7.964695e+002,2.394293e-003
7.983979e+002,2.383132e-003
8.003264e+002,2.664946e-003
8.022549e+002,2.987878e-003
8.041835e+002,3.195578e-003
8.061119e+002,2.983574e-003
8.080404e+002,2.893338e-003
8.099689e+002,3.254762e-003
8.118975e+002,3.511623e-003
8.138259e+002,3.580739e-003
8.157545e+002,3.353755e-003
8.176830e+002,3.190504e-003
8.196115e+002,2.591009e-003
8.215399e+002,2.092710e-003
8.234684e+002,1.897551e-003
8.253970e+002,1.716251e-003
8.273254e+002,1.763424e-003
8.292539e+002,1.508060e-003
8.311824e+002,1.311668e-003
8.331110e+002,1.749451e-003
8.350394e+002,1.843675e-003
8.369679e+002,1.952265e-003
8.388964e+002,1.719910e-003
8.408250e+002,1.485086e-003
8.427534e+002,1.399781e-003
8.446819e+002,1.129848e-003
8.466104e+002,1.163203e-003
8.485389e+002,9.925037e-004
8.504674e+002,8.530115e-004
8.523959e+002,9.802827e-004
8.543244e+002,8.609130e-004
8.562529e+002,8.000289e-004
8.581814e+002,9.411311e-004
8.601099e+002,7.812408e-004
8.620384e+002,5.753228e-004
8.639669e+002,9.122429e-004
8.658954e+002,1.076134e-003
8.678239e+002,6.064780e-004
8.697524e+002,6.266189e-004
8.716809e+002,9.539488e-004
8.736094e+002,1.020633e-003
8.755378e+002,9.694899e-004
8.774664e+002,1.431328e-003
8.793949e+002,1.581814e-003
8.813234e+002,1.199849e-003
8.832518e+002,1.040627e-003
8.851804e+002,1.157621e-003
8.871089e+002,1.144100e-003
8.890374e+002,9.545465e-004
8.909658e+002,1.121610e-003
8.928943e+002,1.551586e-003
8.948229e+002,1.660535e-003
8.967513e+002,1.542841e-003
8.986798e+002,1.637918e-003
9.006083e+002,1.734547e-003
9.025369e+002,1.809038e-003
9.044653e+002,1.808771e-003
9.063938e+002,1.630202e-003
9.083223e+002,1.336860e-003
9.102509e+002,1.078692e-003
9.121793e+002,1.331277e-003
9.141078e+002,1.169050e-003
9.160364e+002,9.472410e-004
9.179648e+002,9.305718e-004
9.198933e+002,8.131744e-004
9.218218e+002,5.942678e-004
9.237504e+002,1.577798e-004
9.256788e+002,-1.471126e-005
9.276073e+002,1.334844e-004
9.295358e+002,-9.415673e-005
9.314644e+002,-4.466159e-004
9.333928e+002,-4.888164e-004
9.353213e+002,-5.147303e-004
9.372498e+002,-6.652194e-004
9.391783e+002,-1.092975e-003
9.411068e+002,-1.197535e-003
9.430353e+002,-8.389383e-004
9.449637e+002,-8.093065e-004
9.468923e+002,-8.328203e-004
9.488208e+002,-1.054039e-003
9.507493e+002,-1.076515e-003
9.526777e+002,-9.486179e-004
9.546063e+002,-9.051065e-004
9.565348e+002,-7.726277e-004
9.584633e+002,-6.677007e-004
9.603917e+002,-9.354261e-004
9.623203e+002,-1.141623e-003
9.642488e+002,-8.042133e-004
9.661772e+002,-5.252543e-004
9.681057e+002,-6.538386e-004
9.700343e+002,-9.527506e-004
9.719628e+002,-7.045537e-004
9.738912e+002,-5.926285e-004
9.758197e+002,-8.458499e-004
9.777483e+002,-8.912851e-004
9.796768e+002,-6.781879e-004
9.816052e+002,-5.613584e-004
9.835337e+002,-5.821061e-004
9.854623e+002,-5.298875e-004
9.873907e+002,-6.446080e-004
9.893192e+002,-6.892703e-004
9.912477e+002,-6.606208e-004
9.931763e+002,-6.634660e-004
9.951047e+002,-7.072001e-004
9.970332e+002,-6.347817e-004
9.989617e+002,-4.097410e-004
1.000890e+003,-2.435332e-004
1.002819e+003,-7.455095e-006
1.004747e+003,4.552856e-005
1.006676e+003,1.475047e-004
1.008604e+003,2.946284e-004
1.010533e+003,3.634336e-004
1.012461e+003,6.240639e-004
1.014390e+003,8.757868e-004
1.016318e+003,1.295284e-003
1.018247e+003,1.439107e-003
1.020175e+003,1.596779e-003
1.022104e+003,1.833394e-003
1.024032e+003,1.921413e-003
1.025961e+003,2.165564e-003
1.027889e+003,2.489391e-003
1.029818e+003,2.673448e-003
1.031746e+003,2.875527e-003
1.033675e+003,3.169109e-003
1.035603e+003,3.243479e-003
1.037532e+003,3.539415e-003
1.039460e+003,3.799519e-003
1.041389e+003,3.756636e-003
1.043317e+003,3.858418e-003
1.045246e+003,4.024662e-003
1.047174e+003,4.063022e-003
1.049103e+003,4.066467e-003
1.051031e+003,3.886867e-003
1.052960e+003,3.730234e-003
1.054888e+003,3.697885e-003
1.056817e+003,3.609872e-003
1.058745e+003,3.572120e-003
1.060674e+003,3.836121e-003
1.062602e+003,3.870185e-003
1.064531e+003,3.628415e-003
1.066459e+003,3.587120e-003
1.068388e+003,3.752659e-003
1.070316e+003,3.944675e-003
1.072245e+003,3.994097e-003
1.074173e+003,3.847219e-003
1.076102e+003,3.634363e-003
1.078030e+003,3.743234e-003
1.079959e+003,3.716665e-003
1.081887e+003,3.506478e-003
1.083816e+003,3.716532e-003
1.085744e+003,3.941164e-003
1.087673e+003,4.094596e-003
1.089601e+003,4.398978e-003
1.091530e+003,4.583344e-003
1.093458e+003,4.464018e-003
1.095387e+003,4.250993e-003
1.097315e+003,4.346934e-003
1.099244e+003,4.587731e-003
1.101172e+003,4.580297e-003
1.103101e+003,4.357208e-003
1.105029e+003,4.330501e-003
1.106958e+003,4.400819e-003
1.108886e+003,4.580331e-003
1.110815e+003,4.562517e-003
1.112743e+003,4.453339e-003
1.114672e+003,4.395196e-003
1.116600e+003,4.653502e-003
1.118529e+003,4.852149e-003
1.120457e+003,4.756600e-003
1.122386e+003,4.812078e-003
1.124314e+003,4.726385e-003
1.126243e+003,4.357074e-003
1.128171e+003,4.101587e-003
1.130100e+003,4.175681e-003
1.132028e+003,4.101453e-003
1.133957e+003,3.850762e-003
1.135885e+003,3.669881e-003
1.137814e+003,3.281436e-003
1.139742e+003,2.726159e-003
1.141671e+003,2.510152e-003
1.143599e+003,2.441339e-003
1.145528e+003,2.176520e-003
1.147456e+003,1.719444e-003
1.149385e+003,1.457325e-003
1.151313e+003,1.209750e-003
1.153242e+003,8.993600e-004
1.155170e+003,8.414916e-004
1.157099e+003,6.839278e-004
1.159027e+003,5.696494e-004
1.160956e+003,5.062186e-004
1.162884e+003,4.742413e-004
1.164813e+003,2.571631e-004
1.166741e+003,2.282541e-004
1.168670e+003,2.545440e-004
1.170598e+003,2.759948e-004
1.172526e+003,2.916112e-004
1.174455e+003,2.787467e-004
1.176384e+003,3.800812e-004
1.178312e+003,4.006427e-004
1.180240e+003,3.221492e-004
1.182169e+003,4.336096e-004
1.184098e+003,4.513876e-004
1.186026e+003,3.787547e-004
1.187954e+003,4.767954e-004
1.189883e+003,3.328595e-004
1.191812e+003,2.734750e-004
1.193740e+003,5.428427e-004
1.195668e+003,4.188505e-004
1.197597e+003,1.433615e-004
1.199526e+003,1.912586e-004
1.201454e+003,3.560386e-004
1.203382e+003,5.356437e-004
1.205311e+003,6.465617e-004
1.207240e+003,6.680319e-004
1.209168e+003,7.070925e-004
1.211096e+003,8.279469e-004
1.213025e+003,1.205796e-003
1.214953e+003,1.292791e-003
1.216882e+003,1.203437e-003
1.218810e+003,1.280196e-003
1.220739e+003,1.353811e-003
1.222667e+003,1.399748e-003
1.224596e+003,1.622786e-003
1.226524e+003,1.869531e-003
1.228453e+003,2.013245e-003
1.230381e+003,2.067141e-003
1.232310e+003,2.174821e-003
1.234238e+003,2.302647e-003
1.236167e+003,2.338157e-003
1.238095e+003,2.461899e-003
1.240024e+003,2.615209e-003
1.241952e+003,2.608709e-003
1.243881e+003,2.397791e-003
1.245809e+003,2.188308e-003
1.247738e+003,2.105029e-003
1.249666e+003,2.080891e-003
1.251595e+003,1.988978e-003
1.253523e+003,1.886270e-003
1.255452e+003,1.691003e-003
1.257380e+003,1.491137e-003
1.259309e+003,1.412446e-003
1.261237e+003,1.478104e-003
1.263166e+003,1.620956e-003
1.265094e+003,1.874888e-003
1.267023e+003,2.122643e-003
1.268951e+003,2.351915e-003
1.270880e+003,2.610509e-003
1.272808e+003,2.664246e-003
1.274737e+003,2.837271e-003
1.276665e+003,3.121116e-003
1.278594e+003,3.399470e-003
1.280522e+003,3.600383e-003
1.282451e+003,3.744571e-003
1.284379e+003,4.096068e-003
1.286308e+003,4.360923e-003
1.288236e+003,4.649182e-003
1.290165e+003,5.027724e-003
1.292093e+003,5.230768e-003
1.294022e+003,5.432162e-003
1.295950e+003,5.686285e-003
1.297879e+003,5.845372e-003
1.299807e+003,5.848462e-003
1.301736e+003,5.836607e-003
1.303664e+003,5.707301e-003
1.305593e+003,5.541082e-003
1.307521e+003,5.504806e-003
1.309450e+003,5.357953e-003
1.311378e+003,4.979324e-003
1.313307e+003,4.714896e-003
1.315235e+003,4.594462e-003
1.317164e+003,4.531947e-003
1.319092e+003,4.264009e-003
1.321021e+003,3.909301e-003
1.322949e+003,3.684083e-003
1.324878e+003,3.593468e-003
1.326806e+003,3.419540e-003
1.328735e+003,3.244247e-003
1.330663e+003,3.216674e-003
1.332592e+003,3.259603e-003
1.334520e+003,3.059881e-003
1.336449e+003,2.894839e-003
1.338377e+003,2.952148e-003
1.340306e+003,2.953316e-003
1.342234e+003,2.867455e-003
1.344163e+003,2.767840e-003
1.346091e+003,2.612476e-003
1.348020e+003,2.567710e-003
1.349948e+003,2.337391e-003
1.351877e+003,2.142122e-003
1.353805e+003,2.211087e-003
1.355734e+003,2.187542e-003
1.357662e+003,2.051528e-003
1.359591e+003,1.994537e-003
1.361519e+003,1.902077e-003
1.363448e+003,1.694529e-003
1.365376e+003,1.346333e-003
1.367305e+003,1.075270e-003
1.369233e+003,1.084073e-003
1.371162e+003,1.148020e-003
1.373090e+003,1.189616e-003
1.375019e+003,1.125928e-003
1.376947e+003,1.006552e-003
1.378876e+003,1.007183e-003
1.380804e+003,9.977177e-004
1.382733e+003,9.249269e-004
1.384661e+003,9.118445e-004
1.386590e+003,9.147664e-004
1.388518e+003,7.413107e-004
1.390447e+003,4.940443e-004
1.392375e+003,3.331248e-004
1.394304e+003,1.573821e-004
1.396232e+003,-1.266530e-004
1.398161e+003,-9.495178e-005
1.400089e+003,8.602448e-005
1.402018e+003,1.361028e-004
1.403946e+003,-2.209984e-005
1.405875e+003,-5.483337e-005
1.407803e+003,8.705185e-005
1.409732e+003,4.549542e-005
1.411660e+003,1.103835e-004
1.413589e+003,2.924401e-004
1.415517e+003,6.749676e-004
1.417446e+003,1.210581e-003
1.419374e+003,1.747355e-003
1.421303e+003,2.223942e-003
1.423231e+003,2.702353e-003
1.425160e+003,3.270152e-003
1.427088e+003,3.665838e-003
1.429017e+003,3.855142e-003
1.430945e+003,4.102021e-003
1.432874e+003,4.469608e-003
1.434802e+003,4.899965e-003
1.436731e+003,5.172923e-003
1.438659e+003,5.222049e-003
1.440588e+003,5.476821e-003
1.442516e+003,5.977071e-003
1.444445e+003,6.457384e-003
1.446373e+003,6.872278e-003
1.448302e+003,7.185081e-003
1.450230e+003,7.399214e-003
1.452159e+003,7.635337e-003
1.454087e+003,7.958174e-003
1.456016e+003,8.463928e-003
1.457944e+003,8.746133e-003
1.459873e+003,8.568779e-003
1.461801e+003,8.473624e-003
1.463730e+003,8.496194e-003
1.465658e+003,8.491633e-003
1.467587e+003,8.269262e-003
1.469515e+003,8.137339e-003
1.471444e+003,8.041739e-003
1.473372e+003,7.706495e-003
1.475301e+003,7.362007e-003
1.477229e+003,7.000484e-003
1.479158e+003,6.579008e-003
1.481086e+003,6.267481e-003
1.483015e+003,5.832678e-003
1.484943e+003,5.448904e-003
1.486872e+003,5.182915e-003
1.488800e+003,4.883009e-003
1.490729e+003,4.590142e-003
1.492657e+003,4.150090e-003
1.494586e+003,3.746175e-003
1.496514e+003,3.458983e-003
1.498443e+003,3.193508e-003
1.500371e+003,2.792850e-003
1.502300e+003,2.479360e-003
1.504228e+003,2.483192e-003
1.506157e+003,2.505353e-003
1.508085e+003,2.163699e-003
1.510014e+003,1.863608e-003
1.511942e+003,1.669349e-003
1.513871e+003,1.667487e-003
1.515799e+003,1.832162e-003
1.517728e+003,1.837619e-003
1.519656e+003,1.892825e-003
1.521585e+003,2.030355e-003
1.523513e+003,2.042373e-003
1.525442e+003,2.138126e-003
1.527370e+003,2.278498e-003
1.529299e+003,2.529615e-003
1.531227e+003,2.756202e-003
1.533156e+003,3.093217e-003
1.535084e+003,3.259803e-003
1.537013e+003,3.436472e-003
1.538941e+003,3.887101e-003
1.540870e+003,4.280271e-003
1.542798e+003,4.574203e-003
1.544727e+003,4.662813e-003
1.546655e+003,4.675071e-003
1.548584e+003,4.884417e-003
1.550512e+003,5.088869e-003
1.552441e+003,5.208232e-003
1.554369e+003,5.343127e-003
1.556298e+003,5.553063e-003
1.558226e+003,6.023533e-003
1.560155e+003,6.366692e-003
1.562083e+003,6.502551e-003
1.564012e+003,6.780120e-003
1.565940e+003,6.997116e-003
1.567869e+003,7.264657e-003
1.569797e+003,7.639215e-003
1.571726e+003,7.598076e-003
1.573654e+003,7.597738e-003
1.575583e+003,7.822432e-003
1.577511e+003,7.720223e-003
1.579440e+003,7.561256e-003
1.581368e+003,7.532194e-003
1.583297e+003,7.336935e-003
1.585225e+003,7.115457e-003
1.587154e+003,6.845484e-003
1.589082e+003,6.420022e-003
1.591010e+003,5.936392e-003
1.592939e+003,5.547157e-003
1.594868e+003,5.362582e-003
1.596796e+003,5.011568e-003
1.598724e+003,4.485611e-003
1.600653e+003,4.040548e-003
1.602582e+003,3.648062e-003
1.604510e+003,3.128558e-003
1.606438e+003,2.717757e-003
1.608367e+003,2.443372e-003
1.610296e+003,2.017073e-003
1.612224e+003,1.588232e-003
1.614152e+003,1.446022e-003
1.616081e+003,1.347895e-003
1.618010e+003,1.078758e-003
1.619938e+003,7.667686e-004
1.621866e+003,6.297049e-004
1.623795e+003,3.397899e-004
1.625724e+003,9.026651e-005
1.627652e+003,-1.749442e-005
1.629580e+003,-1.531185e-004
1.631509e+003,-4.633642e-004
1.633438e+003,-6.164187e-004
1.635366e+003,-5.953748e-004
1.637294e+003,-8.878462e-004
1.639223e+003,-1.282810e-003
1.641151e+003,-1.554911e-003
1.643080e+003,-1.838620e-003
1.645008e+003,-2.087753e-003
1.646937e+003,-2.335622e-003
1.648865e+003,-2.756106e-003
1.650794e+003,-3.003529e-003
1.652722e+003,-3.065551e-003
1.654651e+003,-3.663674e-003
1.656579e+003,-4.141822e-003
1.658508e+003,-4.368054e-003
1.660436e+003,-4.582562e-003
1.662365e+003,-4.850606e-003
1.664293e+003,-5.121365e-003
1.666222e+003,-5.314259e-003
1.668150e+003,-5.322834e-003
1.670079e+003,-5.358542e-003
1.672007e+003,-5.500819e-003
1.673936e+003,-5.538671e-003
1.675864e+003,-5.528169e-003
1.677793e+003,-5.565299e-003
1.679721e+003,-5.474252e-003
1.681650e+003,-5.231704e-003
1.683578e+003,-4.855946e-003
1.685507e+003,-4.749937e-003
1.687435e+003,-4.804534e-003
1.689364e+003,-4.713982e-003
1.691292e+003,-4.577808e-003
1.693221e+003,-4.430801e-003
1.695149e+003,-4.149502e-003
1.697078e+003,-4.029926e-003
1.699006e+003,-3.951230e-003
1.700935e+003,-3.869335e-003
1.702863e+003,-3.978318e-003
1.704792e+003,-3.978941e-003
1.706720e+003,-4.007307e-003
1.708649e+003,-4.063409e-003
1.710577e+003,-4.249654e-003
1.712506e+003,-4.270423e-003
1.714434e+003,-4.153572e-003
1.716363e+003,-4.082283e-003
1.718291e+003,-4.177201e-003
1.720220e+003,-4.335218e-003
1.722148e+003,-4.373303e-003
1.724077e+003,-4.449856e-003
1.726005e+003,-4.450938e-003
1.727934e+003,-4.404496e-003
1.729862e+003,-4.479437e-003
1.731791e+003,-4.411384e-003
1.733719e+003,-4.276362e-003
1.735648e+003,-4.364118e-003
1.737576e+003,-4.385177e-003
1.739505e+003,-4.272457e-003
1.741433e+003,-4.291520e-003
1.743362e+003,-4.198137e-003
1.745290e+003,-4.142840e-003
1.747219e+003,-4.058650e-003
1.749147e+003,-3.910481e-003
1.751076e+003,-3.857019e-003
1.753004e+003,-3.913962e-003
1.754933e+003,-3.884408e-003
1.756861e+003,-3.785880e-003
1.758790e+003,-3.744360e-003
1.760718e+003,-3.648954e-003
1.762647e+003,-3.581165e-003
1.764575e+003,-3.679576e-003
1.766504e+003,-3.626611e-003
1.768432e+003,-3.605154e-003
1.770361e+003,-3.596052e-003
1.772289e+003,-3.435365e-003
1.774218e+003,-3.395094e-003
1.776146e+003,-3.470900e-003
1.778075e+003,-3.558884e-003
1.780003e+003,-3.592667e-003
1.781932e+003,-3.495683e-003
1.783860e+003,-3.451078e-003
1.785789e+003,-3.413636e-003
1.787717e+003,-3.350972e-003
1.789646e+003,-3.322859e-003
1.791574e+003,-3.234761e-003
1.793503e+003,-3.214797e-003
1.795431e+003,-3.270608e-003
1.797360e+003,-3.282676e-003
1.799288e+003,-3.297277e-003
1.801217e+003,-3.402392e-003
1.803145e+003,-3.449435e-003
1.805074e+003,-3.354260e-003
1.807002e+003,-3.355247e-003
1.808931e+003,-3.435069e-003
1.810859e+003,-3.412682e-003
1.812788e+003,-3.450519e-003
1.814716e+003,-3.486118e-003
1.816645e+003,-3.463208e-003
1.818573e+003,-3.502552e-003
1.820502e+003,-3.519742e-003
1.822430e+003,-3.469420e-003
1.824359e+003,-3.431256e-003
1.826287e+003,-3.443781e-003
1.828216e+003,-3.452229e-003
1.830144e+003,-3.524015e-003
1.832073e+003,-3.755266e-003
1.834001e+003,-3.713480e-003
1.835930e+003,-3.603807e-003
1.837858e+003,-3.655066e-003
1.839787e+003,-3.682927e-003
1.841715e+003,-3.721233e-003
1.843644e+003,-3.635121e-003
1.845572e+003,-3.681843e-003
1.847501e+003,-3.785847e-003
1.849429e+003,-3.734209e-003
1.851358e+003,-3.582808e-003
1.853286e+003,-3.495059e-003
1.855215e+003,-3.458244e-003
1.857143e+003,-3.429054e-003
1.859072e+003,-3.457883e-003
1.861000e+003,-3.473694e-003
1.862929e+003,-3.490490e-003
1.864857e+003,-3.474614e-003
1.866786e+003,-3.554513e-003
1.868714e+003,-3.555434e-003
1.870643e+003,-3.513957e-003
1.872571e+003,-3.547086e-003
1.874500e+003,-3.476257e-003
1.876428e+003,-3.348769e-003
1.878357e+003,-3.245680e-003
1.880285e+003,-3.251139e-003
1.882214e+003,-3.311581e-003
1.884142e+003,-3.305004e-003
1.886071e+003,-3.264096e-003
1.887999e+003,-3.205457e-003
1.889928e+003,-3.190294e-003
1.891856e+003,-3.264655e-003
1.893785e+003,-3.261992e-003
1.895713e+003,-3.231505e-003
1.897642e+003,-3.235583e-003
1.899570e+003,-3.143783e-003
1.901499e+003,-3.022317e-003
1.903427e+003,-3.017744e-003
1.905356e+003,-3.060090e-003
1.907284e+003,-3.072757e-003
1.909213e+003,-3.061373e-003
1.911141e+003,-3.062623e-003
1.913070e+003,-3.032814e-003
1.914998e+003,-2.966409e-003
1.916927e+003,-2.939950e-003
1.918855e+003,-2.933565e-003
1.920784e+003,-2.946664e-003
1.922712e+003,-2.990498e-003
1.924641e+003,-3.041500e-003
1.926569e+003,-3.003759e-003
1.928498e+003,-3.025048e-003
1.930426e+003,-2.988688e-003
1.932355e+003,-3.126578e-003
1.934283e+003,-3.247390e-003
1.936212e+003,-3.208186e-003
1.938140e+003,-3.248377e-003
1.940069e+003,-3.204898e-003
1.941997e+003,-3.047488e-003
1.943926e+003,-3.010241e-003
1.945854e+003,-3.140066e-003
1.947783e+003,-3.230025e-003
1.949711e+003,-3.272515e-003
1.951640e+003,-3.273173e-003
1.953568e+003,-3.273699e-003
1.955497e+003,-3.318519e-003
1.957425e+003,-3.342489e-003
1.959354e+003,-3.298888e-003
1.961282e+003,-3.263175e-003
1.963211e+003,-3.318092e-003
1.965139e+003,-3.355148e-003
1.967068e+003,-3.298198e-003
1.968996e+003,-3.377275e-003
1.970925e+003,-3.408244e-003
1.972853e+003,-3.285307e-003
1.974782e+003,-3.217856e-003
1.976710e+003,-3.201246e-003
1.978639e+003,-3.126611e-003
1.980567e+003,-3.126611e-003
1.982496e+003,-3.250383e-003
1.984424e+003,-3.193287e-003
1.986353e+003,-3.087660e-003
1.988281e+003,-3.095161e-003
1.990210e+003,-3.070124e-003
1.992138e+003,-2.943537e-003
1.994067e+003,-2.923132e-003
1.995995e+003,-2.962888e-003
1.997924e+003,-2.958445e-003
1.999852e+003,-2.994512e-003
2.001781e+003,-3.057820e-003
2.003709e+003,-3.037321e-003
2.005638e+003,-2.966278e-003
2.007566e+003,-2.843347e-003
2.009495e+003,-2.811152e-003
2.011423e+003,-2.873959e-003
2.013352e+003,-2.827678e-003
2.015280e+003,-2.768453e-003
2.017208e+003,-2.741718e-003
2.019137e+003,-2.695060e-003
2.021066e+003,-2.700098e-003
2.022994e+003,-2.824320e-003
2.024922e+003,-2.874420e-003
2.026851e+003,-2.794297e-003
2.028780e+003,-2.657322e-003
2.030708e+003,-2.607328e-003
2.032636e+003,-2.554628e-003
2.034565e+003,-2.637726e-003
2.036494e+003,-2.759300e-003
2.038422e+003,-2.752715e-003
2.040350e+003,-2.752978e-003
2.042279e+003,-2.771449e-003
2.044208e+003,-2.749982e-003
2.046136e+003,-2.793506e-003
2.048064e+003,-2.789457e-003
2.049993e+003,-2.718505e-003
2.051921e+003,-2.681888e-003
2.053850e+003,-2.622281e-003
2.055778e+003,-2.587599e-003
2.057707e+003,-2.575313e-003
2.059635e+003,-2.594615e-003
2.061564e+003,-2.606175e-003
2.063492e+003,-2.729667e-003
2.065421e+003,-2.743825e-003
2.067349e+003,-2.595471e-003
2.069278e+003,-2.572612e-003
2.071206e+003,-2.518228e-003
2.073135e+003,-2.424958e-003
2.075063e+003,-2.378101e-003
2.076992e+003,-2.417017e-003
2.078920e+003,-2.411250e-003
2.080849e+003,-2.325043e-003
2.082777e+003,-2.356055e-003
2.084706e+003,-2.472831e-003
2.086634e+003,-2.524487e-003
2.088563e+003,-2.471216e-003
2.090491e+003,-2.364194e-003
2.092420e+003,-2.281834e-003
2.094348e+003,-2.210865e-003
2.096277e+003,-2.169919e-003
2.098205e+003,-2.086632e-003
2.100134e+003,-2.011376e-003
2.102062e+003,-1.991455e-003
2.103991e+003,-2.010057e-003
2.105919e+003,-1.935843e-003
2.107848e+003,-1.841128e-003
2.109776e+003,-1.826181e-003
2.111705e+003,-1.883292e-003
2.113633e+003,-1.846770e-003
2.115562e+003,-1.741211e-003
2.117490e+003,-1.687184e-003
2.119419e+003,-1.577691e-003
2.121347e+003,-1.515818e-003
2.123276e+003,-1.604200e-003
2.125204e+003,-1.554151e-003
2.127133e+003,-1.509016e-003
2.129061e+003,-1.411698e-003
2.130990e+003,-1.324466e-003
2.132918e+003,-1.439704e-003
2.134847e+003,-1.462787e-003
2.136775e+003,-1.389801e-003
2.138704e+003,-1.347820e-003
2.140632e+003,-1.325193e-003
2.142561e+003,-1.404994e-003
2.144489e+003,-1.488214e-003
2.146418e+003,-1.416553e-003
2.148346e+003,-1.258759e-003
2.150275e+003,-1.192842e-003
2.152203e+003,-1.225785e-003
2.154132e+003,-1.287732e-003
2.156060e+003,-1.329554e-003
2.157989e+003,-1.340388e-003
2.159917e+003,-1.342040e-003
2.161846e+003,-1.368596e-003
2.163774e+003,-1.351619e-003
2.165703e+003,-1.279737e-003
2.167631e+003,-1.250862e-003
2.169560e+003,-1.218087e-003
2.171488e+003,-1.269033e-003
2.173417e+003,-1.332262e-003
2.175345e+003,-1.301607e-003
2.177274e+003,-1.281389e-003
2.179202e+003,-1.289549e-003
2.181131e+003,-1.303886e-003
2.183059e+003,-1.279407e-003
2.184988e+003,-1.228098e-003
2.186916e+003,-1.169546e-003
2.188845e+003,-1.180649e-003
2.190773e+003,-1.299030e-003
2.192702e+003,-1.438845e-003
2.194630e+003,-1.404069e-003
2.196559e+003,-1.259551e-003
2.198487e+003,-1.191455e-003
2.200416e+003,-1.231303e-003
2.202344e+003,-1.243131e-003
2.204273e+003,-1.244816e-003
2.206201e+003,-1.223704e-003
2.208130e+003,-1.216038e-003
2.210058e+003,-1.203383e-003
2.211987e+003,-1.194495e-003
2.213915e+003,-1.156229e-003
2.215844e+003,-1.073673e-003
2.217772e+003,-1.071194e-003
2.219701e+003,-1.072615e-003
2.221629e+003,-1.098130e-003
2.223558e+003,-1.077837e-003
2.225486e+003,-1.082299e-003
2.227415e+003,-1.083852e-003
2.229343e+003,-1.107186e-003
2.231272e+003,-1.155304e-003
2.233200e+003,-1.111152e-003
2.235129e+003,-1.088447e-003
2.237057e+003,-1.133989e-003
2.238986e+003,-1.163863e-003
2.240914e+003,-1.162904e-003
2.242843e+003,-1.172454e-003
2.244771e+003,-1.178700e-003
2.246700e+003,-1.190067e-003
2.248628e+003,-1.169414e-003
2.250557e+003,-1.294603e-003
2.252485e+003,-1.343923e-003
2.254414e+003,-1.334079e-003
2.256342e+003,-1.315977e-003
2.258271e+003,-1.291961e-003
2.260199e+003,-1.271049e-003
2.262128e+003,-1.275509e-003
2.264056e+003,-1.279473e-003
2.265985e+003,-1.271841e-003
2.267913e+003,-1.307917e-003
2.269842e+003,-1.326944e-003
2.271770e+003,-1.324632e-003
2.273699e+003,-1.368332e-003
2.275627e+003,-1.402352e-003
2.277556e+003,-1.461863e-003
2.279484e+003,-1.497129e-003
2.281413e+003,-1.457173e-003
2.283341e+003,-1.526813e-003
2.285270e+003,-1.548836e-003
2.287198e+003,-1.529752e-003
2.289127e+003,-1.434882e-003
2.291055e+003,-1.336623e-003
2.292984e+003,-1.337283e-003
2.294912e+003,-1.404432e-003
2.296841e+003,-1.318917e-003
2.298769e+003,-1.017513e-003
2.300698e+003,-8.617230e-004
2.302626e+003,-7.471591e-004
2.304555e+003,-5.555343e-004
2.306483e+003,-2.850249e-004
2.308412e+003,-4.694840e-005
2.310340e+003,3.282836e-004
2.312269e+003,8.527127e-004
2.314197e+003,1.347031e-003
2.316125e+003,1.999797e-003
2.318054e+003,2.684616e-003
2.319983e+003,3.331083e-003
2.321911e+003,4.040447e-003
2.323840e+003,4.732515e-003
2.325768e+003,5.236569e-003
2.327697e+003,5.773276e-003
2.329625e+003,6.560607e-003
2.331553e+003,6.945298e-003
2.333482e+003,6.966880e-003
2.335411e+003,7.091813e-003
2.337339e+003,7.363894e-003
2.339268e+003,7.502831e-003
2.341196e+003,7.355941e-003
2.343125e+003,6.804924e-003
2.345053e+003,5.519336e-003
2.346981e+003,3.545027e-003
2.348910e+003,2.433642e-003
2.350839e+003,3.831006e-003
2.352767e+003,6.377519e-003
2.354696e+003,8.408286e-003
2.356624e+003,9.634232e-003
2.358552e+003,1.019024e-002
2.360481e+003,1.044357e-002
2.362409e+003,1.051067e-002
2.364338e+003,1.024245e-002
2.366267e+003,9.526956e-003
2.368195e+003,8.476159e-003
2.370124e+003,7.239995e-003
2.372052e+003,5.821260e-003
2.373980e+003,4.403932e-003
2.375909e+003,2.958587e-003
2.377838e+003,1.682754e-003
2.379766e+003,5.908503e-004
2.381695e+003,-1.483489e-004
2.383623e+003,-4.035176e-004
2.385552e+003,-4.886178e-004
2.387480e+003,-6.212825e-004
2.389408e+003,-6.289916e-004
2.391337e+003,-6.171467e-004
2.393266e+003,-6.201576e-004
2.395194e+003,-5.290933e-004
2.397123e+003,-5.659250e-004
2.399051e+003,-5.816760e-004
2.400979e+003,-5.042392e-004
2.402908e+003,-5.330314e-004
2.404836e+003,-5.355134e-004
2.406765e+003,-5.440845e-004
2.408694e+003,-5.769110e-004
2.410622e+003,-5.291594e-004
2.412551e+003,-4.531697e-004
2.414479e+003,-3.718366e-004
2.416407e+003,-3.052891e-004
2.418336e+003,-2.588985e-004
2.420264e+003,-3.199900e-004
2.422193e+003,-3.861049e-004
2.424122e+003,-2.428046e-004
2.426050e+003,-9.763504e-005
2.427979e+003,-1.413268e-004
2.429907e+003,-9.737002e-005
2.431835e+003,-2.872626e-005
2.433764e+003,-2.428657e-005
2.435692e+003,1.663361e-005
2.437621e+003,9.550280e-005
2.439550e+003,8.986882e-005
2.441478e+003,8.827805e-005
2.443406e+003,1.660996e-004
2.445335e+003,1.800546e-004
2.447263e+003,2.532510e-004
2.449192e+003,3.347828e-004
2.451121e+003,2.750665e-004
2.453049e+003,2.910144e-004
2.454978e+003,3.942752e-004
2.456906e+003,4.827661e-004
2.458834e+003,4.947078e-004
2.460763e+003,4.471420e-004
2.462691e+003,3.784562e-004
2.464620e+003,4.138756e-004
2.466549e+003,5.573407e-004
2.468477e+003,5.990125e-004
2.470406e+003,5.789392e-004
2.472334e+003,6.275812e-004
2.474262e+003,6.589061e-004
2.476191e+003,6.239312e-004
2.478119e+003,6.289748e-004
2.480048e+003,6.436416e-004
2.481977e+003,7.424391e-004
2.483905e+003,8.206103e-004
2.485833e+003,7.709509e-004
2.487762e+003,7.298268e-004
2.489690e+003,7.065614e-004
2.491619e+003,7.162192e-004
2.493547e+003,8.536755e-004
2.495476e+003,9.243625e-004
2.497405e+003,9.082253e-004
2.499333e+003,8.917235e-004
2.501261e+003,8.581906e-004
2.503190e+003,8.754880e-004
2.505118e+003,9.012526e-004
2.507047e+003,8.890009e-004
2.508975e+003,9.092214e-004
2.510904e+003,8.642330e-004
2.512833e+003,8.714042e-004
2.514761e+003,8.941804e-004
2.516689e+003,9.554763e-004
2.518618e+003,1.034649e-003
2.520546e+003,1.018342e-003
2.522475e+003,9.962897e-004
2.524403e+003,1.023855e-003
2.526332e+003,1.053681e-003
2.528260e+003,1.097227e-003
2.530189e+003,1.103372e-003
2.532117e+003,1.101446e-003
2.534046e+003,1.072281e-003
2.535974e+003,1.049230e-003
2.537903e+003,1.084970e-003
2.539831e+003,1.208255e-003
2.541760e+003,1.243709e-003
2.543688e+003,1.304523e-003
2.545617e+003,1.322270e-003
2.547545e+003,1.335032e-003
2.549474e+003,1.305719e-003
2.551402e+003,1.253977e-003
2.553331e+003,1.266771e-003
2.555259e+003,1.355805e-003
2.557188e+003,1.374917e-003
2.559116e+003,1.325859e-003
2.561045e+003,1.340051e-003
2.562973e+003,1.337691e-003
2.564902e+003,1.408224e-003
2.566830e+003,1.554678e-003
2.568759e+003,1.536523e-003
2.570687e+003,1.559035e-003
2.572616e+003,1.626045e-003
2.574544e+003,1.606656e-003
2.576473e+003,1.582013e-003
2.578401e+003,1.561163e-003
2.580330e+003,1.514544e-003
2.582258e+003,1.535292e-003
2.584187e+003,1.649559e-003
2.586115e+003,1.572469e-003
2.588044e+003,1.439339e-003
2.589972e+003,1.570407e-003
2.591901e+003,1.719078e-003
2.593829e+003,1.667287e-003
2.595758e+003,1.589861e-003
2.597686e+003,1.516938e-003
2.599615e+003,1.472984e-003
2.601543e+003,1.518900e-003
2.603472e+003,1.504669e-003
2.605400e+003,1.530504e-003
2.607329e+003,1.711361e-003
2.609257e+003,1.819385e-003
2.611186e+003,1.870329e-003
2.613114e+003,1.876020e-003
2.615043e+003,1.855921e-003
2.616971e+003,1.847103e-003
2.618900e+003,1.864073e-003
2.620828e+003,1.846837e-003
2.622757e+003,1.866137e-003
2.624685e+003,1.851528e-003
2.626614e+003,1.886769e-003
2.628542e+003,2.009550e-003
2.630471e+003,1.998498e-003
2.632399e+003,1.954995e-003
2.634328e+003,1.964547e-003
2.636256e+003,1.988013e-003
2.638185e+003,2.117748e-003
2.640113e+003,2.189008e-003
2.642042e+003,2.153776e-003
2.643970e+003,2.224975e-003
2.645899e+003,2.217881e-003
2.647827e+003,2.222643e-003
2.649756e+003,2.309842e-003
2.651684e+003,2.293753e-003
2.653613e+003,2.324832e-003
2.655541e+003,2.391528e-003
2.657470e+003,2.343620e-003
2.659398e+003,2.461366e-003
2.661327e+003,2.558178e-003
2.663255e+003,2.508919e-003
2.665184e+003,2.427145e-003
2.667112e+003,2.553212e-003
2.669041e+003,2.659979e-003
2.670969e+003,2.614976e-003
2.672898e+003,2.592842e-003
2.674826e+003,2.615442e-003
2.676755e+003,2.637110e-003
2.678683e+003,2.676381e-003
2.680612e+003,2.753101e-003
2.682540e+003,2.800787e-003
2.684469e+003,2.844642e-003
2.686397e+003,2.939338e-003
2.688326e+003,3.007429e-003
2.690254e+003,3.045733e-003
2.692183e+003,2.956318e-003
2.694111e+003,2.938404e-003
2.696040e+003,2.952815e-003
2.697968e+003,2.977002e-003
2.699897e+003,3.138871e-003
2.701825e+003,3.216574e-003
2.703754e+003,3.264978e-003
2.705682e+003,3.355358e-003
2.707611e+003,3.315090e-003
2.709539e+003,3.248987e-003
2.711468e+003,3.274659e-003
2.713396e+003,3.374725e-003
2.715325e+003,3.489076e-003
2.717253e+003,3.473311e-003
2.719182e+003,3.474113e-003
2.721110e+003,3.511088e-003
2.723039e+003,3.555483e-003
2.724967e+003,3.632859e-003
2.726896e+003,3.709480e-003
2.728824e+003,3.797613e-003
2.730753e+003,3.821145e-003
2.732681e+003,3.744738e-003
2.734610e+003,3.709848e-003
2.736538e+003,3.786951e-003
2.738467e+003,3.979484e-003
2.740395e+003,4.127443e-003
2.742324e+003,4.134936e-003
2.744252e+003,4.115836e-003
2.746181e+003,4.194851e-003
2.748109e+003,4.190100e-003
2.750038e+003,4.295129e-003
2.751966e+003,4.447414e-003
2.753895e+003,4.610200e-003
2.755823e+003,4.763802e-003
2.757752e+003,4.798174e-003
2.759680e+003,4.915782e-003
2.761609e+003,5.104760e-003
2.763537e+003,5.320284e-003
2.765466e+003,5.405523e-003
2.767394e+003,5.591357e-003
2.769323e+003,5.809608e-003
2.771251e+003,6.067312e-003
2.773180e+003,6.388716e-003
2.775108e+003,6.650869e-003
2.777037e+003,6.933043e-003
2.778965e+003,7.253741e-003
2.780894e+003,7.619791e-003
2.782822e+003,8.137946e-003
2.784750e+003,8.580336e-003
2.786679e+003,8.962221e-003
2.788608e+003,9.312483e-003
2.790536e+003,9.679800e-003
2.792465e+003,1.009639e-002
2.794393e+003,1.045755e-002
2.796322e+003,1.075634e-002
2.798250e+003,1.102553e-002
2.800178e+003,1.125353e-002
2.802107e+003,1.154542e-002
2.804036e+003,1.177798e-002
2.805964e+003,1.191422e-002
2.807893e+003,1.208552e-002
2.809821e+003,1.221507e-002
2.811750e+003,1.224768e-002
2.813678e+003,1.209642e-002
2.815606e+003,1.197597e-002
2.817535e+003,1.184227e-002
2.819464e+003,1.160640e-002
2.821392e+003,1.143889e-002
2.823321e+003,1.125146e-002
2.825249e+003,1.098787e-002
2.827177e+003,1.058281e-002
2.829106e+003,1.024018e-002
2.831034e+003,9.913166e-003
2.832963e+003,9.620952e-003
2.834892e+003,9.379245e-003
2.836820e+003,9.042393e-003
2.838749e+003,8.537723e-003
2.840677e+003,8.003092e-003
2.842605e+003,7.668925e-003
2.844534e+003,7.328880e-003
2.846462e+003,6.756158e-003
2.848391e+003,6.205464e-003
2.850320e+003,5.844533e-003
2.852248e+003,5.704850e-003
2.854177e+003,5.664297e-003
2.856105e+003,5.675610e-003
2.858033e+003,5.714552e-003
2.859962e+003,5.804201e-003
2.861890e+003,5.793691e-003
2.863819e+003,5.673025e-003
2.865748e+003,5.678060e-003
2.867676e+003,5.717205e-003
2.869604e+003,5.839898e-003
2.871533e+003,5.865153e-003
2.873461e+003,5.906800e-003
2.875390e+003,5.957789e-003
2.877319e+003,6.051486e-003
2.879247e+003,6.190575e-003
2.881176e+003,6.250606e-003
2.883104e+003,6.218842e-003
2.885032e+003,6.282810e-003
2.886961e+003,6.257766e-003
2.888889e+003,6.160798e-003
2.890818e+003,6.115800e-003
2.892747e+003,5.944319e-003
2.894675e+003,5.689777e-003
2.896604e+003,5.632709e-003
2.898532e+003,5.691153e-003
2.900460e+003,5.615759e-003
2.902389e+003,5.522893e-003
2.904317e+003,5.399082e-003
2.906246e+003,5.331151e-003
2.908175e+003,5.273830e-003
2.910103e+003,5.182949e-003
2.912031e+003,4.958947e-003
2.913960e+003,4.636121e-003
2.915888e+003,4.368520e-003
2.917817e+003,4.319625e-003
2.919745e+003,4.481225e-003
2.921674e+003,4.652095e-003
2.923603e+003,4.779045e-003
2.925531e+003,4.930896e-003
2.927459e+003,4.939107e-003
2.929388e+003,5.027222e-003
2.931316e+003,5.138119e-003
2.933245e+003,5.192372e-003
2.935173e+003,5.212659e-003
2.937102e+003,5.274198e-003
2.939031e+003,5.419748e-003
2.940959e+003,5.312703e-003
2.942887e+003,5.124238e-003
2.944816e+003,5.027121e-003
2.946744e+003,4.842232e-003
2.948673e+003,4.649182e-003
2.950601e+003,4.334182e-003
2.952530e+003,3.990753e-003
2.954458e+003,3.652974e-003
2.956387e+003,3.317127e-003
2.958315e+003,3.055210e-003
2.960244e+003,2.668547e-003
2.962172e+003,2.274268e-003
2.964101e+003,2.061581e-003
2.966029e+003,1.787478e-003
2.967958e+003,1.481761e-003
2.969886e+003,1.279498e-003
2.971815e+003,1.108554e-003
2.973743e+003,8.459070e-004
2.975672e+003,6.465285e-004
2.977600e+003,5.882623e-004
2.979529e+003,5.307670e-004
2.981457e+003,4.031301e-004
2.983386e+003,2.893234e-004
2.985314e+003,1.614922e-004
2.987243e+003,1.196635e-004
2.989171e+003,1.570582e-005
2.991100e+003,-1.280111e-004
2.993028e+003,-1.477196e-004
2.994957e+003,-1.141980e-004
2.996885e+003,-2.068397e-004
2.998814e+003,-2.450233e-004
3.000742e+003,-3.011503e-004
3.002671e+003,-4.048749e-004
3.004599e+003,-4.881544e-004
3.006528e+003,-3.855422e-004
3.008456e+003,-3.875947e-004
3.010385e+003,-3.973273e-004
3.012313e+003,-4.229157e-004
3.014242e+003,-4.435045e-004
3.016170e+003,-4.652839e-004
3.018099e+003,-4.861686e-004
3.020027e+003,-5.651308e-004
3.021956e+003,-5.842238e-004
3.023884e+003,-5.840584e-004
3.025813e+003,-6.104962e-004
3.027741e+003,-6.781548e-004
3.029670e+003,-7.330349e-004
3.031598e+003,-6.406047e-004
3.033527e+003,-5.669508e-004
3.035455e+003,-6.114226e-004
3.037384e+003,-5.941837e-004
3.039312e+003,-6.440787e-004
3.041241e+003,-7.637965e-004
3.043169e+003,-8.755123e-004
3.045098e+003,-8.485285e-004
3.047026e+003,-8.174422e-004
3.048955e+003,-7.699816e-004
3.050883e+003,-7.469937e-004
3.052812e+003,-7.946882e-004
3.054740e+003,-8.878462e-004
3.056669e+003,-9.417410e-004
3.058597e+003,-1.028124e-003
3.060526e+003,-1.079457e-003
3.062454e+003,-9.144638e-004
3.064383e+003,-8.529267e-004
3.066311e+003,-9.241846e-004
3.068240e+003,-8.664848e-004
3.070168e+003,-9.383356e-004
3.072097e+003,-1.138483e-003
3.074025e+003,-1.176387e-003
3.075954e+003,-1.174272e-003
3.077882e+003,-1.200641e-003
3.079811e+003,-1.222283e-003
3.081739e+003,-1.274815e-003
3.083668e+003,-1.228660e-003
3.085596e+003,-1.123711e-003
3.087525e+003,-1.204606e-003
3.089453e+003,-1.214386e-003
3.091382e+003,-1.217062e-003
3.093310e+003,-1.218880e-003
3.095239e+003,-1.158972e-003
3.097167e+003,-1.208339e-003
3.099096e+003,-1.216732e-003
3.101024e+003,-1.189439e-003
3.102953e+003,-1.269925e-003
3.104881e+003,-1.384913e-003
3.106810e+003,-1.243164e-003
3.108738e+003,-1.099419e-003
3.110667e+003,-1.095090e-003
3.112595e+003,-1.170538e-003
3.114524e+003,-1.243396e-003
3.116452e+003,-1.372494e-003
3.118381e+003,-1.295099e-003
3.120309e+003,-1.240686e-003
3.122238e+003,-1.306628e-003
3.124166e+003,-1.300484e-003
3.126095e+003,-1.298171e-003
3.128023e+003,-1.364930e-003
3.129952e+003,-1.360438e-003
3.131880e+003,-1.347556e-003
3.133809e+003,-1.310956e-003
3.135737e+003,-1.289945e-003
3.137666e+003,-1.228528e-003
3.139594e+003,-1.219012e-003
3.141523e+003,-1.241876e-003
3.143451e+003,-1.225884e-003
3.145380e+003,-1.235070e-003
3.147308e+003,-1.360801e-003
3.149237e+003,-1.348778e-003
3.151165e+003,-1.211842e-003
3.153094e+003,-1.162442e-003
3.155022e+003,-1.230576e-003
3.156951e+003,-1.290970e-003
3.158879e+003,-1.186961e-003
3.160808e+003,-1.094264e-003
3.162736e+003,-1.108211e-003
3.164665e+003,-1.146646e-003
3.166593e+003,-1.166804e-003
3.168522e+003,-1.158509e-003
3.170450e+003,-1.109863e-003
3.172379e+003,-1.076350e-003
3.174307e+003,-1.091686e-003
3.176236e+003,-1.031099e-003
3.178164e+003,-1.071293e-003
3.180093e+003,-1.156791e-003
3.182021e+003,-1.094330e-003
3.183950e+003,-9.963565e-004
3.185878e+003,-1.025546e-003
3.187807e+003,-1.019133e-003
3.189735e+003,-9.700084e-004
3.191664e+003,-1.098593e-003
3.193592e+003,-1.097635e-003
3.195521e+003,-1.089471e-003
3.197449e+003,-1.175329e-003
3.199378e+003,-1.252118e-003
3.201306e+003,-1.335466e-003
3.203235e+003,-1.272535e-003
3.205163e+003,-1.164292e-003
3.207092e+003,-1.216798e-003
3.209020e+003,-1.107120e-003
3.210948e+003,-9.667354e-004
3.212877e+003,-8.979975e-004
3.214806e+003,-9.111243e-004
3.216734e+003,-9.973152e-004
3.218663e+003,-9.801907e-004
3.220591e+003,-9.228952e-004
3.222520e+003,-7.967718e-004
3.224448e+003,-7.502352e-004
3.226376e+003,-7.795403e-004
3.228305e+003,-6.907590e-004
3.230234e+003,-5.050666e-004
3.232162e+003,-5.030808e-004
3.234091e+003,-5.279019e-004
3.236019e+003,-5.804516e-004
3.237948e+003,-5.688039e-004
3.239876e+003,-3.499863e-004
3.241804e+003,-6.679309e-005
3.243733e+003,-6.689248e-005
3.245662e+003,-1.234068e-004
3.247590e+003,1.607031e-005
3.249519e+003,3.605133e-005
3.251447e+003,4.045855e-005
3.253375e+003,6.580919e-005
3.255304e+003,1.770050e-004
3.257232e+003,3.019892e-004
3.259161e+003,4.605422e-004
3.261090e+003,5.188907e-004
3.263018e+003,4.905945e-004
3.264947e+003,3.851883e-004
3.266875e+003,3.166781e-004
3.268803e+003,5.072469e-004
3.270732e+003,6.434093e-004
3.272660e+003,6.926559e-004
3.274589e+003,6.554218e-004
3.276518e+003,6.165981e-004
3.278446e+003,6.473581e-004
3.280375e+003,7.514339e-004
3.282303e+003,7.512016e-004
3.284231e+003,6.595366e-004
3.286160e+003,5.981830e-004
3.288088e+003,4.614377e-004
3.290017e+003,3.960661e-004
3.291946e+003,4.478386e-004
3.293874e+003,3.478810e-004
3.295802e+003,2.279226e-004
3.297731e+003,2.448302e-004
3.299659e+003,1.537029e-004
3.301588e+003,-6.228753e-005
3.303516e+003,-2.204842e-004
3.305445e+003,-2.967133e-004
3.307374e+003,-2.599250e-004
3.309302e+003,-3.649837e-004
3.311230e+003,-4.223199e-004
3.313159e+003,-4.696860e-004
3.315087e+003,-5.129763e-004
3.317016e+003,-5.115201e-004
3.318944e+003,-6.554597e-004
3.320873e+003,-8.406910e-004
3.322802e+003,-9.556270e-004
3.324730e+003,-1.078762e-003
3.326658e+003,-1.119051e-003
3.328587e+003,-1.173082e-003
3.330515e+003,-1.278680e-003
3.332444e+003,-1.397662e-003
3.334372e+003,-1.444459e-003
3.336301e+003,-1.423786e-003
3.338229e+003,-1.406678e-003
3.340158e+003,-1.416850e-003
3.342086e+003,-1.458858e-003
3.344015e+003,-1.593471e-003
3.345943e+003,-1.524601e-003
3.347872e+003,-1.616943e-003
3.349800e+003,-1.764476e-003
3.351729e+003,-1.802688e-003
3.353657e+003,-1.872933e-003
3.355586e+003,-1.930829e-003
3.357514e+003,-1.908892e-003
3.359443e+003,-2.062130e-003
3.361371e+003,-2.121188e-003
3.363300e+003,-2.008341e-003
3.365229e+003,-2.087687e-003
3.367157e+003,-2.368050e-003
3.369085e+003,-2.507455e-003
3.371014e+003,-2.526035e-003
3.372942e+003,-2.498001e-003
3.374871e+003,-2.550543e-003
3.376799e+003,-2.590860e-003
3.378728e+003,-2.801441e-003
3.380656e+003,-2.918229e-003
3.382585e+003,-2.917472e-003
3.384513e+003,-3.108814e-003
3.386442e+003,-3.220915e-003
3.388370e+003,-3.131151e-003
3.390299e+003,-3.059136e-003
3.392227e+003,-3.119473e-003
3.394156e+003,-3.290503e-003
3.396084e+003,-3.314968e-003
3.398013e+003,-3.398645e-003
3.399941e+003,-3.523489e-003
3.401870e+003,-3.425010e-003
3.403798e+003,-3.306583e-003
3.405727e+003,-3.246107e-003
3.407655e+003,-3.319275e-003
3.409584e+003,-3.458277e-003
3.411512e+003,-3.422577e-003
3.413441e+003,-3.563617e-003
3.415369e+003,-3.617871e-003
3.417298e+003,-3.518066e-003
3.419226e+003,-3.507187e-003
3.421155e+003,-3.550307e-003
3.423083e+003,-3.575217e-003
3.425012e+003,-3.441282e-003
3.426940e+003,-3.550307e-003
3.428869e+003,-3.717685e-003
3.430797e+003,-3.626348e-003
3.432726e+003,-3.562729e-003
3.434654e+003,-3.546199e-003
3.436583e+003,-3.761113e-003
3.438511e+003,-3.844441e-003
3.440440e+003,-3.759569e-003
3.442368e+003,-3.950410e-003
3.444297e+003,-4.024739e-003
3.446225e+003,-3.858465e-003
3.448154e+003,-3.692619e-003
3.450082e+003,-3.682861e-003
3.452011e+003,-3.636468e-003
3.453939e+003,-3.612909e-003
3.455868e+003,-3.667485e-003
3.457796e+003,-3.793796e-003
3.459725e+003,-3.951132e-003
3.461653e+003,-3.862208e-003
3.463582e+003,-3.748926e-003
3.465510e+003,-4.020997e-003
3.467439e+003,-4.146909e-003
3.469367e+003,-4.085862e-003
3.471296e+003,-4.042696e-003
3.473224e+003,-4.076178e-003
3.475153e+003,-4.101157e-003
3.477081e+003,-4.074340e-003
3.479010e+003,-4.132173e-003
3.480938e+003,-4.255298e-003
3.482867e+003,-4.349160e-003
3.484795e+003,-4.168012e-003
3.486724e+003,-4.160693e-003
3.488652e+003,-4.141921e-003
3.490581e+003,-3.955171e-003
3.492509e+003,-3.990268e-003
3.494438e+003,-3.986558e-003
3.496366e+003,-3.910547e-003
3.498295e+003,-4.127349e-003
3.500223e+003,-4.130336e-003
3.502152e+003,-4.038822e-003
3.504080e+003,-4.001430e-003
3.506009e+003,-4.135160e-003
3.507937e+003,-4.208736e-003
3.509866e+003,-4.174280e-003
3.511794e+003,-4.138901e-003
3.513723e+003,-4.238432e-003
3.515651e+003,-4.183501e-003
3.517580e+003,-4.057862e-003
3.519508e+003,-3.962460e-003
3.521437e+003,-4.022770e-003
3.523365e+003,-4.236332e-003
3.525294e+003,-4.257135e-003
3.527222e+003,-4.204241e-003
3.529151e+003,-4.217137e-003
3.531079e+003,-4.303789e-003
3.533008e+003,-4.246570e-003
3.534936e+003,-4.106737e-003
3.536865e+003,-4.085829e-003
3.538793e+003,-4.312254e-003
3.540722e+003,-4.438213e-003
3.542650e+003,-4.395640e-003
3.544579e+003,-4.301132e-003
3.546507e+003,-4.080839e-003
3.548436e+003,-4.108017e-003
3.550364e+003,-4.006355e-003
3.552293e+003,-3.927983e-003
3.554221e+003,-3.995652e-003
3.556150e+003,-4.051756e-003
3.558078e+003,-4.040168e-003
3.560007e+003,-4.134438e-003
3.561935e+003,-4.278986e-003
3.563864e+003,-4.169357e-003
3.565792e+003,-4.033045e-003
3.567721e+003,-4.031929e-003
3.569649e+003,-4.068596e-003
3.571578e+003,-4.090424e-003
3.573506e+003,-3.955696e-003
3.575435e+003,-3.953167e-003
3.577363e+003,-4.075161e-003
3.579292e+003,-4.079362e-003
3.581220e+003,-4.012002e-003
3.583149e+003,-4.067513e-003
3.585077e+003,-4.063968e-003
3.587006e+003,-3.910941e-003
3.588934e+003,-3.866576e-003
3.590863e+003,-3.962032e-003
3.592791e+003,-3.922500e-003
3.594720e+003,-3.785847e-003
3.596648e+003,-3.689432e-003
3.598577e+003,-3.843981e-003
3.600505e+003,-3.880566e-003
3.602434e+003,-3.844638e-003
3.604362e+003,-3.823159e-003
3.606291e+003,-3.880369e-003
3.608219e+003,-3.866412e-003
3.610148e+003,-3.941741e-003
3.612076e+003,-3.912780e-003
3.614005e+003,-3.827199e-003
3.615933e+003,-3.856593e-003
3.617862e+003,-3.912682e-003
3.619790e+003,-3.926735e-003
3.621719e+003,-3.982782e-003
3.623647e+003,-4.022999e-003
3.625576e+003,-3.956615e-003
3.627504e+003,-3.652733e-003
3.629433e+003,-3.381911e-003
3.631361e+003,-3.685391e-003
3.633290e+003,-3.911401e-003
3.635218e+003,-3.962722e-003
3.637146e+003,-3.951591e-003
3.639075e+003,-3.929165e-003
3.641004e+003,-4.079461e-003
3.642932e+003,-4.113203e-003
3.644861e+003,-4.044830e-003
3.646789e+003,-4.026840e-003
3.648718e+003,-3.865131e-003
3.650646e+003,-4.017615e-003
3.652574e+003,-4.318618e-003
3.654503e+003,-4.216415e-003
3.656432e+003,-3.948669e-003
3.658360e+003,-4.026545e-003
3.660289e+003,-4.218548e-003
3.662217e+003,-4.362740e-003
3.664146e+003,-4.436934e-003
3.666074e+003,-4.537052e-003
3.668002e+003,-4.509541e-003
3.669931e+003,-4.325967e-003
3.671860e+003,-4.268356e-003
3.673788e+003,-4.237973e-003
3.675717e+003,-4.114942e-003
3.677645e+003,-4.344502e-003
3.679573e+003,-4.404857e-003
3.681502e+003,-4.240565e-003
3.683430e+003,-4.208178e-003
3.685359e+003,-4.285679e-003
3.687288e+003,-4.203420e-003
3.689216e+003,-3.994996e-003
3.691145e+003,-3.949786e-003
3.693073e+003,-4.090227e-003
3.695001e+003,-4.137293e-003
3.696930e+003,-4.013643e-003
3.698858e+003,-4.046733e-003
3.700787e+003,-4.051034e-003
3.702716e+003,-3.897872e-003
3.704644e+003,-3.801712e-003
3.706573e+003,-3.741141e-003
3.708501e+003,-3.983800e-003
3.710429e+003,-4.051001e-003
3.712358e+003,-3.863391e-003
3.714286e+003,-4.105424e-003
3.716215e+003,-4.218745e-003
3.718144e+003,-4.013971e-003
3.720072e+003,-4.016433e-003
3.722000e+003,-3.982159e-003
3.723929e+003,-3.820696e-003
3.725857e+003,-3.930544e-003
3.727786e+003,-4.060028e-003
3.729714e+003,-4.000511e-003
3.731643e+003,-3.905654e-003
3.733572e+003,-3.703066e-003
3.735500e+003,-3.644781e-003
3.737428e+003,-3.819710e-003
3.739357e+003,-4.023459e-003
3.741285e+003,-3.846444e-003
3.743214e+003,-3.459723e-003
3.745142e+003,-3.440855e-003
3.747071e+003,-3.734571e-003
3.749000e+003,-3.583433e-003
3.750928e+003,-3.530292e-003
3.752856e+003,-3.626414e-003
3.754785e+003,-3.677933e-003
3.756713e+003,-3.671362e-003
3.758642e+003,-3.675535e-003
3.760570e+003,-3.281394e-003
3.762499e+003,-3.185886e-003
3.764427e+003,-3.438817e-003
3.766356e+003,-3.458113e-003
3.768284e+003,-3.520465e-003
3.770213e+003,-3.358206e-003
3.772141e+003,-3.254526e-003
3.774070e+003,-3.326378e-003
3.775998e+003,-3.216310e-003
3.777927e+003,-3.157500e-003
3.779855e+003,-3.163717e-003
3.781784e+003,-3.295172e-003
3.783712e+003,-3.475896e-003
3.785641e+003,-3.425372e-003
3.787569e+003,-3.437173e-003
3.789498e+003,-3.658220e-003
3.791426e+003,-3.796325e-003
3.793355e+003,-3.613927e-003
3.795283e+003,-3.352879e-003
3.797212e+003,-3.310233e-003
3.799140e+003,-3.242161e-003
3.801069e+003,-3.160756e-003
3.802997e+003,-3.439212e-003
3.804926e+003,-3.408869e-003
3.806854e+003,-3.096707e-003
3.808783e+003,-3.190590e-003
3.810711e+003,-3.369976e-003
3.812640e+003,-3.436253e-003
3.814568e+003,-3.525296e-003
3.816497e+003,-3.216245e-003
3.818425e+003,-3.160296e-003
3.820354e+003,-3.074763e-003
3.822282e+003,-3.061603e-003
3.824211e+003,-3.413175e-003
3.826139e+003,-3.471721e-003
3.828068e+003,-3.305004e-003
3.829996e+003,-3.157138e-003
3.831925e+003,-3.066111e-003
3.833853e+003,-3.163454e-003
3.835782e+003,-3.247028e-003
3.837710e+003,-2.997276e-003
3.839639e+003,-3.030280e-003
3.841567e+003,-3.293134e-003
3.843496e+003,-3.209634e-003
3.845424e+003,-3.170361e-003
3.847353e+003,-3.416299e-003
3.849281e+003,-3.362315e-003
3.851210e+003,-2.958248e-003
3.853138e+003,-2.701744e-003
3.855067e+003,-2.744945e-003
3.856995e+003,-3.161875e-003
3.858924e+003,-3.475436e-003
3.860852e+003,-3.373625e-003
3.862781e+003,-2.984311e-003
3.864709e+003,-2.895650e-003
3.866638e+003,-3.072066e-003
3.868566e+003,-3.075783e-003
3.870495e+003,-3.109669e-003
3.872423e+003,-3.126874e-003
3.874352e+003,-3.062886e-003
3.876280e+003,-3.067295e-003
3.878209e+003,-3.024588e-003
3.880137e+003,-2.926358e-003
3.882066e+003,-3.021528e-003
3.883994e+003,-3.207759e-003
3.885923e+003,-3.147138e-003
3.887851e+003,-3.137500e-003
3.889780e+003,-3.066538e-003
3.891708e+003,-2.968581e-003
3.893637e+003,-3.064400e-003
3.895565e+003,-3.151118e-003
3.897494e+003,-3.120032e-003
3.899422e+003,-3.245022e-003
3.901351e+003,-3.410611e-003
3.903279e+003,-3.288563e-003
3.905208e+003,-3.067690e-003
3.907136e+003,-3.196872e-003
3.909065e+003,-3.224171e-003
3.910993e+003,-3.053049e-003
3.912922e+003,-3.034492e-003
3.914850e+003,-3.011558e-003
3.916779e+003,-3.092595e-003
3.918707e+003,-3.133092e-003
3.920636e+003,-3.093615e-003
3.922564e+003,-3.050844e-003
3.924493e+003,-3.137862e-003
3.926421e+003,-3.223809e-003
3.928350e+003,-3.178321e-003
3.930278e+003,-3.145592e-003
3.932207e+003,-3.196872e-003
3.934135e+003,-3.377472e-003
3.936064e+003,-3.408343e-003
3.937992e+003,-3.194307e-003
3.939921e+003,-3.002377e-003
3.941849e+003,-3.046073e-003
3.943778e+003,-3.209765e-003
3.945706e+003,-3.227756e-003
3.947635e+003,-3.103550e-003
3.949563e+003,-3.093549e-003
3.951492e+003,-3.087200e-003
3.953420e+003,-3.107334e-003
3.955349e+003,-3.282742e-003
3.957277e+003,-3.344561e-003
3.959206e+003,-3.259656e-003
3.961134e+003,-3.437896e-003
3.963063e+003,-3.440658e-003
3.964991e+003,-3.137928e-003
3.966920e+003,-2.864282e-003
3.968848e+003,-2.741553e-003
3.970777e+003,-2.964994e-003
3.972705e+003,-3.126907e-003
3.974634e+003,-2.984114e-003
3.976562e+003,-3.001850e-003
3.978491e+003,-3.218316e-003
3.980419e+003,-3.334631e-003
3.982348e+003,-3.153026e-003
3.984276e+003,-3.000962e-003
3.986205e+003,-3.105853e-003
3.988133e+003,-3.088121e-003
3.990062e+003,-2.873203e-003
3.991990e+003,-2.967660e-003
3.993919e+003,-3.244265e-003
3.995847e+003,-3.309871e-003
3.997776e+003,-2.928332e-003
3.999704e+003,-2.766345e-003
4.001633e+003,0.000000e+000
