3.991989e+002,-3.247014e-005
4.011274e+002,4.195855e-003
4.030559e+002,1.262391e-002
4.049844e+002,1.208116e-002
4.069129e+002,9.430711e-003
4.088414e+002,8.185450e-003
4.107699e+002,3.884427e-003
4.126984e+002,2.709222e-003
4.146269e+002,5.809373e-003
4.165554e+002,7.514158e-003
4.184839e+002,7.489144e-003
4.204124e+002,8.468556e-003
4.223409e+002,9.480254e-003
4.242694e+002,1.076157e-002
4.261979e+002,1.193973e-002
4.281264e+002,1.451827e-002
4.300549e+002,1.664212e-002
4.319834e+002,1.500059e-002
4.339119e+002,1.117870e-002
4.358404e+002,1.098060e-002
4.377689e+002,1.100439e-002
4.396974e+002,8.465414e-003
4.416259e+002,4.333179e-003
4.435544e+002,7.269677e-003
4.454829e+002,9.473040e-003
4.474114e+002,9.303513e-003
4.493399e+002,9.925505e-003
4.512684e+002,1.275177e-002
4.531969e+002,1.400584e-002
4.551254e+002,1.296754e-002
4.570539e+002,1.364616e-002
4.589824e+002,1.537124e-002
4.609109e+002,1.474904e-002
4.628394e+002,1.406857e-002
4.647679e+002,1.128084e-002
4.666964e+002,8.607171e-003
4.686249e+002,8.878038e-003
4.705533e+002,7.511393e-003
4.724819e+002,5.630024e-003
4.744103e+002,7.941840e-003
4.763389e+002,1.028961e-002
4.782673e+002,8.932760e-003
4.801959e+002,5.369707e-004
4.821243e+002,-1.981230e-003
4.840529e+002,6.262136e-003
4.859813e+002,2.344533e-002
4.879099e+002,2.232680e-002
4.898383e+002,1.165190e-002
4.917668e+002,1.034800e-002
4.936953e+002,1.323154e-002
4.956238e+002,1.032727e-002
4.975523e+002,1.085308e-002
4.994808e+002,1.262438e-002
5.014093e+002,7.834442e-003
5.033378e+002,7.253336e-003
5.052663e+002,2.174894e-002
5.071948e+002,2.421554e-002
5.091233e+002,1.617532e-002
5.110518e+002,1.718043e-002
5.129803e+002,1.636575e-002
5.149088e+002,1.227222e-002
5.168373e+002,1.154678e-002
5.187658e+002,1.193108e-002
5.206943e+002,1.152354e-002
5.226228e+002,1.126458e-002
5.245513e+002,1.106774e-002
5.264798e+002,1.214351e-002
5.284083e+002,1.209724e-002
5.303368e+002,1.262360e-002
5.322653e+002,1.279924e-002
5.341938e+002,1.207560e-002
5.361223e+002,1.118937e-002
5.380508e+002,1.142365e-002
5.399792e+002,1.277951e-002
5.419078e+002,1.294276e-002
5.438363e+002,1.268852e-002
5.457648e+002,1.315705e-002
5.476932e+002,1.419371e-002
5.496218e+002,1.433755e-002
5.515503e+002,1.362886e-002
5.534788e+002,1.312163e-002
5.554072e+002,1.279893e-002
5.573358e+002,1.370008e-002
5.592643e+002,1.549353e-002
5.611927e+002,1.538236e-002
5.631212e+002,1.335163e-002
5.650497e+002,1.283371e-002
5.669783e+002,1.395903e-002
5.689067e+002,1.447960e-002
5.708352e+002,1.223034e-002
5.727637e+002,1.296187e-002
5.746923e+002,1.425294e-002
5.766207e+002,1.708537e-002
5.785492e+002,1.877347e-002
5.804777e+002,1.199991e-002
5.824063e+002,1.106363e-002
5.843347e+002,1.217322e-002
5.862632e+002,1.015649e-002
5.881917e+002,1.147597e-002
5.901202e+002,1.461819e-002
5.920487e+002,1.500693e-002
5.939772e+002,1.710609e-002
5.959057e+002,1.883291e-002
5.978342e+002,1.902005e-002
5.997627e+002,1.967530e-002
6.016912e+002,2.111856e-002
6.036197e+002,2.225557e-002
6.055482e+002,2.418260e-002
6.074767e+002,2.455701e-002
6.094052e+002,2.471958e-002
6.113337e+002,2.485671e-002
6.132622e+002,2.516249e-002
6.151907e+002,2.541455e-002
6.171192e+002,2.624591e-002
6.190477e+002,2.572574e-002
6.209762e+002,2.364822e-002
6.229047e+002,2.137459e-002
6.248332e+002,1.929950e-002
6.267617e+002,1.705598e-002
6.286902e+002,1.521449e-002
6.306187e+002,1.398903e-002
6.325472e+002,1.354062e-002
6.344756e+002,1.272727e-002
6.364042e+002,1.271230e-002
6.383326e+002,1.290316e-002
6.402612e+002,1.315705e-002
6.421896e+002,1.255207e-002
6.441182e+002,1.222492e-002
6.460466e+002,1.224383e-002
6.479752e+002,1.214446e-002
6.499036e+002,1.138930e-002
6.518322e+002,1.083654e-002
6.537606e+002,1.099151e-002
6.556891e+002,1.074714e-002
6.576177e+002,1.019645e-002
6.595461e+002,1.022698e-002
6.614746e+002,1.024805e-002
6.634031e+002,1.022752e-002
6.653317e+002,1.030535e-002
6.672601e+002,1.150544e-002
6.691886e+002,1.151963e-002
6.711171e+002,1.071440e-002
6.730457e+002,1.046916e-002
6.749741e+002,1.074928e-002
6.769026e+002,1.144240e-002
6.788311e+002,1.148135e-002
6.807596e+002,1.152037e-002
6.826881e+002,1.194215e-002
6.846166e+002,1.219704e-002
6.865451e+002,1.232986e-002
6.884736e+002,1.212163e-002
6.904021e+002,1.218147e-002
6.923306e+002,1.228920e-002
6.942591e+002,1.199576e-002
6.961876e+002,1.187880e-002
6.981161e+002,1.240231e-002
7.000446e+002,1.251664e-002
7.019731e+002,1.264655e-002
7.039016e+002,1.284538e-002
7.058301e+002,1.300561e-002
7.077585e+002,1.306594e-002
7.096871e+002,1.323800e-002
7.116156e+002,1.354972e-002
7.135441e+002,1.417611e-002
7.154725e+002,1.454068e-002
7.174011e+002,1.433985e-002
7.193296e+002,1.458845e-002
7.212581e+002,1.543870e-002
7.231865e+002,1.590601e-002
7.251151e+002,1.566511e-002
7.270436e+002,1.573200e-002
7.289720e+002,1.637470e-002
7.309005e+002,1.682632e-002
7.328290e+002,1.737796e-002
7.347576e+002,1.702541e-002
7.366860e+002,1.689776e-002
7.386145e+002,1.705181e-002
7.405430e+002,1.696938e-002
7.424716e+002,1.769670e-002
7.444000e+002,1.821936e-002
7.463285e+002,1.813575e-002
7.482570e+002,1.814128e-002
7.501855e+002,1.768069e-002
7.521140e+002,1.753477e-002
7.540425e+002,1.801109e-002
7.559710e+002,1.846462e-002
7.578995e+002,1.833845e-002
7.598280e+002,1.834712e-002
7.617565e+002,1.830112e-002
7.636850e+002,1.847441e-002
7.656135e+002,1.883004e-002
7.675420e+002,1.882751e-002
7.694705e+002,1.845214e-002
7.713990e+002,1.825768e-002
7.733275e+002,1.863129e-002
7.752560e+002,1.910002e-002
7.771844e+002,1.870179e-002
7.791130e+002,1.808980e-002
7.810415e+002,1.785442e-002
7.829700e+002,1.794564e-002
7.848984e+002,1.813696e-002
7.868270e+002,1.811063e-002
7.887555e+002,1.715510e-002
7.906840e+002,1.631759e-002
7.926124e+002,1.604709e-002
7.945410e+002,1.601694e-002
7.964695e+002,1.591502e-002
7.983979e+002,1.614746e-002
8.003264e+002,1.613890e-002
8.022549e+002,1.597366e-002
8.041835e+002,1.537031e-002
8.061119e+002,1.527448e-002
8.080404e+002,1.586560e-002
8.099689e+002,1.631095e-002
8.118975e+002,1.625728e-002
8.138259e+002,1.641891e-002
8.157545e+002,1.701659e-002
8.176830e+002,1.734779e-002
8.196115e+002,1.746209e-002
8.215399e+002,1.730406e-002
8.234684e+002,1.698720e-002
8.253970e+002,1.693879e-002
8.273254e+002,1.713483e-002
8.292539e+002,1.722670e-002
8.311824e+002,1.702737e-002
8.331110e+002,1.696801e-002
8.350394e+002,1.708492e-002
8.369679e+002,1.715620e-002
8.388964e+002,1.730007e-002
8.408250e+002,1.743115e-002
8.427534e+002,1.736158e-002
8.446819e+002,1.698086e-002
8.466104e+002,1.688298e-002
8.485389e+002,1.716382e-002
8.504674e+002,1.699795e-002
8.523959e+002,1.673065e-002
8.543244e+002,1.655782e-002
8.562529e+002,1.666536e-002
8.581814e+002,1.712680e-002
8.601099e+002,1.747409e-002
8.620384e+002,1.719202e-002
8.639669e+002,1.697159e-002
8.658954e+002,1.700804e-002
8.678239e+002,1.679133e-002
8.697524e+002,1.668853e-002
8.716809e+002,1.675461e-002
8.736094e+002,1.632956e-002
8.755378e+002,1.668902e-002
8.774664e+002,1.702551e-002
8.793949e+002,1.715575e-002
8.813234e+002,1.722066e-002
8.832518e+002,1.729658e-002
8.851804e+002,1.709761e-002
8.871089e+002,1.670045e-002
8.890374e+002,1.670489e-002
8.909658e+002,1.720063e-002
8.928943e+002,1.725024e-002
8.948229e+002,1.729324e-002
8.967513e+002,1.729807e-002
8.986798e+002,1.742266e-002
9.006083e+002,1.755754e-002
9.025369e+002,1.766903e-002
9.044653e+002,1.756472e-002
9.063938e+002,1.706918e-002
9.083223e+002,1.689797e-002
9.102509e+002,1.714727e-002
9.121793e+002,1.695808e-002
9.141078e+002,1.637539e-002
9.160364e+002,1.604510e-002
9.179648e+002,1.604365e-002
9.198933e+002,1.581945e-002
9.218218e+002,1.555733e-002
9.237504e+002,1.540907e-002
9.256788e+002,1.515201e-002
9.276073e+002,1.494352e-002
9.295358e+002,1.502446e-002
9.314644e+002,1.471484e-002
9.333928e+002,1.447285e-002
9.353213e+002,1.442390e-002
9.372498e+002,1.428554e-002
9.391783e+002,1.388711e-002
9.411068e+002,1.412501e-002
9.430353e+002,1.400484e-002
9.449637e+002,1.415985e-002
9.468923e+002,1.431632e-002
9.488208e+002,1.424808e-002
9.507493e+002,1.422120e-002
9.526777e+002,1.411457e-002
9.546063e+002,1.409865e-002
9.565348e+002,1.427814e-002
9.584633e+002,1.408431e-002
9.603917e+002,1.393056e-002
9.623203e+002,1.398178e-002
9.642488e+002,1.393350e-002
9.661772e+002,1.402134e-002
9.681057e+002,1.418659e-002
9.700343e+002,1.414161e-002
9.719628e+002,1.396549e-002
9.738912e+002,1.348898e-002
9.758197e+002,1.326519e-002
9.777483e+002,1.337804e-002
9.796768e+002,1.331661e-002
9.816052e+002,1.311661e-002
9.835337e+002,1.288804e-002
9.854623e+002,1.254580e-002
9.873907e+002,1.227335e-002
9.893192e+002,1.191003e-002
9.912477e+002,1.190186e-002
9.931763e+002,1.202250e-002
9.951047e+002,1.209332e-002
9.970332e+002,1.182923e-002
9.989617e+002,1.135549e-002
1.000890e+003,1.113267e-002
1.002819e+003,1.129111e-002
1.004747e+003,1.160949e-002
1.006676e+003,1.160439e-002
1.008604e+003,1.161201e-002
1.010533e+003,1.155260e-002
1.012461e+003,1.167236e-002
1.014390e+003,1.198734e-002
1.016318e+003,1.215094e-002
1.018247e+003,1.225849e-002
1.020175e+003,1.242737e-002
1.022104e+003,1.249198e-002
1.024032e+003,1.261763e-002
1.025961e+003,1.316935e-002
1.027889e+003,1.365372e-002
1.029818e+003,1.360882e-002
1.031746e+003,1.371770e-002
1.033675e+003,1.409458e-002
1.035603e+003,1.412182e-002
1.037532e+003,1.449306e-002
1.039460e+003,1.505680e-002
1.041389e+003,1.526154e-002
1.043317e+003,1.525337e-002
1.045246e+003,1.516570e-002
1.047174e+003,1.528937e-002
1.049103e+003,1.549957e-002
1.051031e+003,1.544007e-002
1.052960e+003,1.548553e-002
1.054888e+003,1.534093e-002
1.056817e+003,1.523896e-002
1.058745e+003,1.533890e-002
1.060674e+003,1.527609e-002
1.062602e+003,1.530684e-002
1.064531e+003,1.525588e-002
1.066459e+003,1.511413e-002
1.068388e+003,1.520725e-002
1.070316e+003,1.520742e-002
1.072245e+003,1.498906e-002
1.074173e+003,1.497034e-002
1.076102e+003,1.497500e-002
1.078030e+003,1.509025e-002
1.079959e+003,1.543289e-002
1.081887e+003,1.545342e-002
1.083816e+003,1.530458e-002
1.085744e+003,1.525769e-002
1.087673e+003,1.553425e-002
1.089601e+003,1.568332e-002
1.091530e+003,1.567528e-002
1.093458e+003,1.593575e-002
1.095387e+003,1.623888e-002
1.097315e+003,1.623035e-002
1.099244e+003,1.639063e-002
1.101172e+003,1.644544e-002
1.103101e+003,1.643454e-002
1.105029e+003,1.644087e-002
1.106958e+003,1.646034e-002
1.108886e+003,1.644128e-002
1.110815e+003,1.645284e-002
1.112743e+003,1.650030e-002
1.114672e+003,1.659623e-002
1.116600e+003,1.678929e-002
1.118529e+003,1.680879e-002
1.120457e+003,1.677724e-002
1.122386e+003,1.677779e-002
1.124314e+003,1.675382e-002
1.126243e+003,1.694992e-002
1.128171e+003,1.689142e-002
1.130100e+003,1.680238e-002
1.132028e+003,1.675892e-002
1.133957e+003,1.658628e-002
1.135885e+003,1.638540e-002
1.137814e+003,1.599157e-002
1.139742e+003,1.573217e-002
1.141671e+003,1.534862e-002
1.143599e+003,1.463522e-002
1.145528e+003,1.433135e-002
1.147456e+003,1.409204e-002
1.149385e+003,1.372912e-002
1.151313e+003,1.346389e-002
1.153242e+003,1.332327e-002
1.155170e+003,1.304057e-002
1.157099e+003,1.278678e-002
1.159027e+003,1.261091e-002
1.160956e+003,1.252029e-002
1.162884e+003,1.242897e-002
1.164813e+003,1.243183e-002
1.166741e+003,1.247306e-002
1.168670e+003,1.253911e-002
1.170598e+003,1.249952e-002
1.172526e+003,1.242368e-002
1.174455e+003,1.245959e-002
1.176384e+003,1.251841e-002
1.178312e+003,1.243790e-002
1.180240e+003,1.236102e-002
1.182169e+003,1.241765e-002
1.184098e+003,1.237882e-002
1.186026e+003,1.223235e-002
1.187954e+003,1.206794e-002
1.189883e+003,1.193523e-002
1.191812e+003,1.183767e-002
1.193740e+003,1.152973e-002
1.195668e+003,1.137930e-002
1.197597e+003,1.134712e-002
1.199526e+003,1.122534e-002
1.201454e+003,1.097041e-002
1.203382e+003,1.087187e-002
1.205311e+003,1.097866e-002
1.207240e+003,1.095644e-002
1.209168e+003,1.089260e-002
1.211096e+003,1.109313e-002
1.213025e+003,1.123140e-002
1.214953e+003,1.118441e-002
1.216882e+003,1.102012e-002
1.218810e+003,1.095631e-002
1.220739e+003,1.101265e-002
1.222667e+003,1.118818e-002
1.224596e+003,1.132702e-002
1.226524e+003,1.130692e-002
1.228453e+003,1.131971e-002
1.230381e+003,1.143818e-002
1.232310e+003,1.147873e-002
1.234238e+003,1.151425e-002
1.236167e+003,1.153283e-002
1.238095e+003,1.159068e-002
1.240024e+003,1.157672e-002
1.241952e+003,1.153620e-002
1.243881e+003,1.134314e-002
1.245809e+003,1.124367e-002
1.247738e+003,1.135552e-002
1.249666e+003,1.147737e-002
1.251595e+003,1.141624e-002
1.253523e+003,1.135090e-002
1.255452e+003,1.125642e-002
1.257380e+003,1.128196e-002
1.259309e+003,1.127492e-002
1.261237e+003,1.117407e-002
1.263166e+003,1.120042e-002
1.265094e+003,1.140909e-002
1.267023e+003,1.154719e-002
1.268951e+003,1.173832e-002
1.270880e+003,1.188728e-002
1.272808e+003,1.178479e-002
1.274737e+003,1.158282e-002
1.276665e+003,1.156631e-002
1.278594e+003,1.156158e-002
1.280522e+003,1.144634e-002
1.282451e+003,1.151827e-002
1.284379e+003,1.167365e-002
1.286308e+003,1.177458e-002
1.288236e+003,1.170490e-002
1.290165e+003,1.156876e-002
1.292093e+003,1.151990e-002
1.294022e+003,1.146084e-002
1.295950e+003,1.148652e-002
1.297879e+003,1.150455e-002
1.299807e+003,1.134892e-002
1.301736e+003,1.134083e-002
1.303664e+003,1.116299e-002
1.305593e+003,1.099379e-002
1.307521e+003,1.085753e-002
1.309450e+003,1.064400e-002
1.311378e+003,1.049873e-002
1.313307e+003,1.039636e-002
1.315235e+003,1.033626e-002
1.317164e+003,1.040437e-002
1.319092e+003,1.035085e-002
1.321021e+003,1.029324e-002
1.322949e+003,1.036656e-002
1.324878e+003,1.037359e-002
1.326806e+003,1.040708e-002
1.328735e+003,1.058512e-002
1.330663e+003,1.077957e-002
1.332592e+003,1.074279e-002
1.334520e+003,1.073814e-002
1.336449e+003,1.064957e-002
1.338377e+003,1.057844e-002
1.340306e+003,1.063728e-002
1.342234e+003,1.069439e-002
1.344163e+003,1.068207e-002
1.346091e+003,1.062247e-002
1.348020e+003,1.063901e-002
1.349948e+003,1.062437e-002
1.351877e+003,1.067551e-002
1.353805e+003,1.089803e-002
1.355734e+003,1.101312e-002
1.357662e+003,1.094356e-002
1.359591e+003,1.084323e-002
1.361519e+003,1.084106e-002
1.363448e+003,1.077084e-002
1.365376e+003,1.047761e-002
1.367305e+003,1.016674e-002
1.369233e+003,1.008300e-002
1.371162e+003,1.015046e-002
1.373090e+003,1.005011e-002
1.375019e+003,9.849575e-003
1.376947e+003,9.718798e-003
1.378876e+003,9.651307e-003
1.380804e+003,9.560691e-003
1.382733e+003,9.522960e-003
1.384661e+003,9.548971e-003
1.386590e+003,9.779150e-003
1.388518e+003,9.638535e-003
1.390447e+003,9.336181e-003
1.392375e+003,9.323215e-003
1.394304e+003,9.435079e-003
1.396232e+003,9.379618e-003
1.398161e+003,9.275079e-003
1.400089e+003,9.056197e-003
1.402018e+003,8.845912e-003
1.403946e+003,8.900088e-003
1.405875e+003,8.780348e-003
1.407803e+003,8.668449e-003
1.409732e+003,8.720000e-003
1.411660e+003,8.750765e-003
1.413589e+003,8.762565e-003
1.415517e+003,8.886223e-003
1.417446e+003,9.341598e-003
1.419374e+003,9.833883e-003
1.421303e+003,9.598832e-003
1.423231e+003,9.662623e-003
1.425160e+003,9.886352e-003
1.427088e+003,1.020334e-002
1.429017e+003,1.078742e-002
1.430945e+003,1.123347e-002
1.432874e+003,1.161419e-002
1.434802e+003,1.235362e-002
1.436731e+003,1.314202e-002
1.438659e+003,1.299366e-002
1.440588e+003,1.299905e-002
1.442516e+003,1.332693e-002
1.444445e+003,1.355949e-002
1.446373e+003,1.392847e-002
1.448302e+003,1.435050e-002
1.450230e+003,1.428071e-002
1.452159e+003,1.433906e-002
1.454087e+003,1.468903e-002
1.456016e+003,1.588897e-002
1.457944e+003,1.606851e-002
1.459873e+003,1.501269e-002
1.461801e+003,1.443006e-002
1.463730e+003,1.437831e-002
1.465658e+003,1.392536e-002
1.467587e+003,1.315623e-002
1.469515e+003,1.285398e-002
1.471444e+003,1.321187e-002
1.473372e+003,1.306754e-002
1.475301e+003,1.233579e-002
1.477229e+003,1.157645e-002
1.479158e+003,1.086966e-002
1.481086e+003,1.040973e-002
1.483015e+003,9.882726e-003
1.484943e+003,9.565094e-003
1.486872e+003,9.534441e-003
1.488800e+003,9.679258e-003
1.490729e+003,9.510293e-003
1.492657e+003,8.949299e-003
1.494586e+003,9.119162e-003
1.496514e+003,9.570683e-003
1.498443e+003,9.256021e-003
1.500371e+003,8.696472e-003
1.502300e+003,8.472340e-003
1.504228e+003,9.144338e-003
1.506157e+003,1.032025e-002
1.508085e+003,9.812294e-003
1.510014e+003,8.945545e-003
1.511942e+003,8.735078e-003
1.513871e+003,8.665474e-003
1.515799e+003,8.967835e-003
1.517728e+003,9.197198e-003
1.519656e+003,9.516491e-003
1.521585e+003,9.788300e-003
1.523513e+003,9.177807e-003
1.525442e+003,9.045032e-003
1.527370e+003,8.803103e-003
1.529299e+003,8.467475e-003
1.531227e+003,8.613727e-003
1.533156e+003,9.057718e-003
1.535084e+003,8.742786e-003
1.537013e+003,8.839927e-003
1.538941e+003,9.929370e-003
1.540870e+003,1.021714e-002
1.542798e+003,9.563129e-003
1.544727e+003,9.091045e-003
1.546655e+003,8.535627e-003
1.548584e+003,8.316172e-003
1.550512e+003,8.266020e-003
1.552441e+003,8.266121e-003
1.554369e+003,8.484233e-003
1.556298e+003,8.968208e-003
1.558226e+003,1.024513e-002
1.560155e+003,9.854694e-003
1.562083e+003,8.530153e-003
1.564012e+003,8.345321e-003
1.565940e+003,8.520016e-003
1.567869e+003,8.972808e-003
1.569797e+003,9.273893e-003
1.571726e+003,8.834077e-003
1.573654e+003,8.898871e-003
1.575583e+003,9.620275e-003
1.577511e+003,9.421671e-003
1.579440e+003,8.940438e-003
1.581368e+003,8.906920e-003
1.583297e+003,8.972233e-003
1.585225e+003,9.117370e-003
1.587154e+003,9.179363e-003
1.589082e+003,9.197672e-003
1.591010e+003,9.209314e-003
1.592939e+003,9.258729e-003
1.594868e+003,9.345422e-003
1.596796e+003,9.392890e-003
1.598724e+003,9.331712e-003
1.600653e+003,9.426952e-003
1.602582e+003,9.378500e-003
1.604510e+003,9.309809e-003
1.606438e+003,9.276500e-003
1.608367e+003,9.376198e-003
1.610296e+003,9.364923e-003
1.612224e+003,9.165387e-003
1.614152e+003,9.143221e-003
1.616081e+003,9.690573e-003
1.618010e+003,9.424718e-003
1.619938e+003,8.946459e-003
1.621866e+003,9.079169e-003
1.623795e+003,8.960935e-003
1.625724e+003,8.692382e-003
1.627652e+003,8.635291e-003
1.629580e+003,8.348631e-003
1.631509e+003,8.248966e-003
1.633438e+003,8.617140e-003
1.635366e+003,9.052780e-003
1.637294e+003,8.373390e-003
1.639223e+003,7.727845e-003
1.641151e+003,7.462345e-003
1.643080e+003,7.466356e-003
1.645008e+003,7.921965e-003
1.646937e+003,8.102060e-003
1.648865e+003,7.535700e-003
1.650794e+003,7.813255e-003
1.652722e+003,9.104647e-003
1.654651e+003,8.203075e-003
1.656579e+003,7.049918e-003
1.658508e+003,6.794154e-003
1.660436e+003,6.997723e-003
1.662365e+003,7.471750e-003
1.664293e+003,7.452401e-003
1.666222e+003,7.349572e-003
1.668150e+003,8.074953e-003
1.670079e+003,8.447170e-003
1.672007e+003,8.032996e-003
1.673936e+003,8.190346e-003
1.675864e+003,8.334748e-003
1.677793e+003,7.895983e-003
1.679721e+003,7.954225e-003
1.681650e+003,8.358663e-003
1.683578e+003,9.231787e-003
1.685507e+003,8.883889e-003
1.687435e+003,8.104254e-003
1.689364e+003,7.839368e-003
1.691292e+003,7.773753e-003
1.693221e+003,8.074041e-003
1.695149e+003,8.918623e-003
1.697078e+003,8.937732e-003
1.699006e+003,9.417065e-003
1.700935e+003,9.563536e-003
1.702863e+003,8.563777e-003
1.704792e+003,8.725511e-003
1.706720e+003,8.781430e-003
1.708649e+003,8.591894e-003
1.710577e+003,8.489910e-003
1.712506e+003,8.590441e-003
1.714434e+003,9.054539e-003
1.716363e+003,9.701010e-003
1.718291e+003,9.657879e-003
1.720220e+003,8.800331e-003
1.722148e+003,8.533600e-003
1.724077e+003,8.659965e-003
1.726005e+003,8.651515e-003
1.727934e+003,8.747756e-003
1.729862e+003,8.898837e-003
1.731791e+003,9.191715e-003
1.733719e+003,9.918421e-003
1.735648e+003,9.503655e-003
1.737576e+003,9.032615e-003
1.739505e+003,9.241873e-003
1.741433e+003,9.206573e-003
1.743362e+003,9.172291e-003
1.745290e+003,9.189888e-003
1.747219e+003,9.311738e-003
1.749147e+003,9.635113e-003
1.751076e+003,9.822394e-003
1.753004e+003,9.321319e-003
1.754933e+003,9.187587e-003
1.756861e+003,9.224206e-003
1.758790e+003,9.100282e-003
1.760718e+003,9.391637e-003
1.762647e+003,9.471957e-003
1.764575e+003,9.184135e-003
1.766504e+003,9.288043e-003
1.768432e+003,9.332829e-003
1.770361e+003,9.492411e-003
1.772289e+003,9.965780e-003
1.774218e+003,9.692437e-003
1.776146e+003,9.327142e-003
1.778075e+003,9.215170e-003
1.780003e+003,9.297148e-003
1.781932e+003,9.239200e-003
1.783860e+003,9.256327e-003
1.785789e+003,9.242584e-003
1.787717e+003,9.099368e-003
1.789646e+003,9.250199e-003
1.791574e+003,9.669263e-003
1.793503e+003,9.599204e-003
1.795431e+003,9.292545e-003
1.797360e+003,9.304528e-003
1.799288e+003,9.412325e-003
1.801217e+003,9.462305e-003
1.803145e+003,9.352025e-003
1.805074e+003,9.164879e-003
1.807002e+003,9.126539e-003
1.808931e+003,9.297148e-003
1.810859e+003,9.381987e-003
1.812788e+003,9.274131e-003
1.814716e+003,9.145048e-003
1.816645e+003,9.214797e-003
1.818573e+003,9.231652e-003
1.820502e+003,9.200311e-003
1.822430e+003,9.237981e-003
1.824359e+003,9.440294e-003
1.826287e+003,9.492987e-003
1.828216e+003,9.592294e-003
1.830144e+003,9.667095e-003
1.832073e+003,9.405993e-003
1.834001e+003,9.264822e-003
1.835930e+003,9.228064e-003
1.837858e+003,9.153644e-003
1.839787e+003,9.156690e-003
1.841715e+003,9.321522e-003
1.843644e+003,9.760511e-003
1.845572e+003,9.667535e-003
1.847501e+003,9.417065e-003
1.849429e+003,9.281611e-003
1.851358e+003,9.153577e-003
1.853286e+003,9.133510e-003
1.855215e+003,9.147248e-003
1.857143e+003,9.135879e-003
1.859072e+003,9.155066e-003
1.861000e+003,9.244920e-003
1.862929e+003,9.237236e-003
1.864857e+003,9.205354e-003
1.866786e+003,9.376062e-003
1.868714e+003,9.574342e-003
1.870643e+003,9.360455e-003
1.872571e+003,9.135270e-003
1.874500e+003,9.190328e-003
1.876428e+003,9.323485e-003
1.878357e+003,9.317528e-003
1.880285e+003,9.237338e-003
1.882214e+003,9.208502e-003
1.884142e+003,9.291394e-003
1.886071e+003,9.301718e-003
1.887999e+003,9.403082e-003
1.889928e+003,9.496069e-003
1.891856e+003,9.311096e-003
1.893785e+003,9.270881e-003
1.895713e+003,9.289735e-003
1.897642e+003,9.327954e-003
1.899570e+003,9.318611e-003
1.901499e+003,9.347522e-003
1.903427e+003,9.338347e-003
1.905356e+003,9.323350e-003
1.907284e+003,9.299925e-003
1.909213e+003,9.292004e-003
1.911141e+003,9.209348e-003
1.913070e+003,9.227962e-003
1.914998e+003,9.210296e-003
1.916927e+003,9.382461e-003
1.918855e+003,9.398070e-003
1.920784e+003,9.255514e-003
1.922712e+003,9.235511e-003
1.924641e+003,9.258729e-003
1.926569e+003,9.374167e-003
1.928498e+003,9.386964e-003
1.930426e+003,9.211785e-003
1.932355e+003,9.223258e-003
1.934283e+003,9.241061e-003
1.936212e+003,9.103124e-003
1.938140e+003,9.044321e-003
1.940069e+003,9.026154e-003
1.941997e+003,9.222954e-003
1.943926e+003,9.270103e-003
1.945854e+003,9.234156e-003
1.947783e+003,9.229587e-003
1.949711e+003,9.203121e-003
1.951640e+003,9.178111e-003
1.953568e+003,9.148872e-003
1.955497e+003,9.153441e-003
1.957425e+003,9.166097e-003
1.959354e+003,9.203662e-003
1.961282e+003,9.191106e-003
1.963211e+003,9.081774e-003
1.965139e+003,9.074229e-003
1.967068e+003,9.084752e-003
1.968996e+003,9.057516e-003
1.970925e+003,9.019727e-003
1.972853e+003,8.971624e-003
1.974782e+003,9.007075e-003
1.976710e+003,9.082044e-003
1.978639e+003,9.111076e-003
1.980567e+003,9.040566e-003
1.982496e+003,9.010457e-003
1.984424e+003,8.962965e-003
1.986353e+003,8.948961e-003
1.988281e+003,8.988470e-003
1.990210e+003,9.054301e-003
1.992138e+003,9.047299e-003
1.994067e+003,8.993848e-003
1.995995e+003,9.063978e-003
1.997924e+003,9.132055e-003
1.999852e+003,9.036913e-003
2.001781e+003,8.970745e-003
2.003709e+003,9.003083e-003
2.005638e+003,9.023990e-003
2.007566e+003,8.936278e-003
2.009495e+003,8.822951e-003
2.011423e+003,8.878614e-003
2.013352e+003,8.935601e-003
2.015280e+003,8.926469e-003
2.017208e+003,8.955996e-003
2.019137e+003,8.904113e-003
2.021066e+003,8.857342e-003
2.022994e+003,8.842226e-003
2.024922e+003,8.780991e-003
2.026851e+003,8.805809e-003
2.028780e+003,8.844965e-003
2.030708e+003,8.916728e-003
2.032636e+003,8.961984e-003
2.034565e+003,8.944936e-003
2.036494e+003,8.894812e-003
2.038422e+003,8.928363e-003
2.040350e+003,8.992563e-003
2.042279e+003,8.922783e-003
2.044208e+003,8.850038e-003
2.046136e+003,8.889639e-003
2.048064e+003,8.867589e-003
2.049993e+003,8.849598e-003
2.051921e+003,8.878411e-003
2.053850e+003,8.864680e-003
2.055778e+003,8.894745e-003
2.057707e+003,8.959582e-003
2.059635e+003,8.948454e-003
2.061564e+003,8.926164e-003
2.063492e+003,8.848077e-003
2.065421e+003,8.831845e-003
2.067349e+003,8.836105e-003
2.069278e+003,8.825014e-003
2.071206e+003,8.836748e-003
2.073135e+003,8.809460e-003
2.075063e+003,8.811793e-003
2.076992e+003,8.811895e-003
2.078920e+003,8.814262e-003
2.080849e+003,8.755735e-003
2.082777e+003,8.785420e-003
2.084706e+003,8.889774e-003
2.086634e+003,8.915984e-003
2.088563e+003,8.811387e-003
2.090491e+003,8.785522e-003
2.092420e+003,8.844391e-003
2.094348e+003,8.884430e-003
2.096277e+003,8.832623e-003
2.098205e+003,8.733422e-003
2.100134e+003,8.701712e-003
2.102062e+003,8.758845e-003
2.103991e+003,8.791506e-003
2.105919e+003,8.786063e-003
2.107848e+003,8.759454e-003
2.109776e+003,8.718445e-003
2.111705e+003,8.828836e-003
2.113633e+003,8.859878e-003
2.115562e+003,8.866372e-003
2.117490e+003,8.798472e-003
2.119419e+003,8.708607e-003
2.121347e+003,8.760570e-003
2.123276e+003,8.761990e-003
2.125204e+003,8.614978e-003
2.127133e+003,8.561580e-003
2.129061e+003,8.661351e-003
2.130990e+003,8.749615e-003
2.132918e+003,8.747249e-003
2.134847e+003,8.683288e-003
2.136775e+003,8.697080e-003
2.138704e+003,8.803103e-003
2.140632e+003,8.813823e-003
2.142561e+003,8.792689e-003
2.144489e+003,8.878782e-003
2.146418e+003,8.849632e-003
2.148346e+003,8.832184e-003
2.150275e+003,8.822613e-003
2.152203e+003,8.696912e-003
2.154132e+003,8.659728e-003
2.156060e+003,8.715302e-003
2.157989e+003,8.721454e-003
2.159917e+003,8.740859e-003
2.161846e+003,8.807905e-003
2.163774e+003,8.730649e-003
2.165703e+003,8.718040e-003
2.167631e+003,8.724936e-003
2.169560e+003,8.694714e-003
2.171488e+003,8.728114e-003
2.173417e+003,8.694173e-003
2.175345e+003,8.711346e-003
2.177274e+003,8.732509e-003
2.179202e+003,8.829140e-003
2.181131e+003,8.832184e-003
2.183059e+003,8.710231e-003
2.184988e+003,8.717600e-003
2.186916e+003,8.783324e-003
2.188845e+003,8.825894e-003
2.190773e+003,8.771659e-003
2.192702e+003,8.788429e-003
2.194630e+003,8.805166e-003
2.196559e+003,8.720068e-003
2.198487e+003,8.677846e-003
2.200416e+003,8.799959e-003
2.202344e+003,8.851357e-003
2.204273e+003,8.857139e-003
2.206201e+003,8.760671e-003
2.208130e+003,8.692754e-003
2.210058e+003,8.692821e-003
2.211987e+003,8.698365e-003
2.213915e+003,8.738053e-003
2.215844e+003,8.786806e-003
2.217772e+003,8.878411e-003
2.219701e+003,8.826638e-003
2.221629e+003,8.718750e-003
2.223558e+003,8.748230e-003
2.225486e+003,8.792656e-003
2.227415e+003,8.788869e-003
2.229343e+003,8.769224e-003
2.231272e+003,8.757425e-003
2.233200e+003,8.739777e-003
2.235129e+003,8.711210e-003
2.237057e+003,8.779131e-003
2.238986e+003,8.773451e-003
2.240914e+003,8.686128e-003
2.242843e+003,8.674162e-003
2.244771e+003,8.783324e-003
2.246700e+003,8.826942e-003
2.248628e+003,8.791810e-003
2.250557e+003,8.764187e-003
2.252485e+003,8.690150e-003
2.254414e+003,8.705295e-003
2.256342e+003,8.685993e-003
2.258271e+003,8.670714e-003
2.260199e+003,8.742110e-003
2.262128e+003,8.739439e-003
2.264056e+003,8.724294e-003
2.265985e+003,8.798099e-003
2.267913e+003,8.745525e-003
2.269842e+003,8.716113e-003
2.271770e+003,8.823764e-003
2.273699e+003,8.786299e-003
2.275627e+003,8.700427e-003
2.277556e+003,8.696979e-003
2.279484e+003,8.689779e-003
2.281413e+003,8.684506e-003
2.283341e+003,8.680855e-003
2.285270e+003,8.617513e-003
2.287198e+003,8.600411e-003
2.289127e+003,8.613355e-003
2.291055e+003,8.603318e-003
2.292984e+003,8.630660e-003
2.294912e+003,8.670477e-003
2.296841e+003,8.746302e-003
2.298769e+003,8.761752e-003
2.300698e+003,8.824068e-003
2.302626e+003,8.905432e-003
2.304555e+003,8.830965e-003
2.306483e+003,8.805538e-003
2.308412e+003,8.824135e-003
2.310340e+003,8.907631e-003
2.312269e+003,9.036575e-003
2.314197e+003,9.030383e-003
2.316125e+003,9.135912e-003
2.318054e+003,9.286384e-003
2.319983e+003,9.358153e-003
2.321911e+003,9.443985e-003
2.323840e+003,9.552494e-003
2.325768e+003,9.684306e-003
2.327697e+003,9.868761e-003
2.329625e+003,9.918692e-003
2.331553e+003,9.911267e-003
2.333482e+003,9.921776e-003
2.335411e+003,9.983071e-003
2.337339e+003,1.002396e-002
2.339268e+003,1.002844e-002
2.341196e+003,9.937472e-003
2.343125e+003,9.749871e-003
2.345053e+003,9.596427e-003
2.346981e+003,9.311738e-003
2.348910e+003,9.013570e-003
2.350839e+003,9.110670e-003
2.352767e+003,9.452553e-003
2.354696e+003,9.827782e-003
2.356624e+003,1.014438e-002
2.358552e+003,1.027994e-002
2.360481e+003,1.049686e-002
2.362409e+003,1.058305e-002
2.364338e+003,1.052806e-002
2.366267e+003,1.051230e-002
2.368195e+003,1.039079e-002
2.370124e+003,1.003359e-002
2.372052e+003,9.654694e-003
2.373980e+003,9.409311e-003
2.375909e+003,9.268207e-003
2.377838e+003,9.086511e-003
2.379766e+003,8.893257e-003
2.381695e+003,8.781836e-003
2.383623e+003,8.685317e-003
2.385552e+003,8.585034e-003
2.387480e+003,8.521671e-003
2.389408e+003,8.543872e-003
2.391337e+003,8.548130e-003
2.393266e+003,8.521570e-003
2.395194e+003,8.512346e-003
2.397123e+003,8.518766e-003
2.399051e+003,8.500824e-003
2.400979e+003,8.456866e-003
2.402908e+003,8.348056e-003
2.404836e+003,8.367580e-003
2.406765e+003,8.406833e-003
2.408694e+003,8.315193e-003
2.410622e+003,8.238767e-003
2.412551e+003,8.280440e-003
2.414479e+003,8.373423e-003
2.416407e+003,8.342450e-003
2.418336e+003,8.301109e-003
2.420264e+003,8.364506e-003
2.422193e+003,8.457677e-003
2.424122e+003,8.514103e-003
2.426050e+003,8.482172e-003
2.427979e+003,8.409164e-003
2.429907e+003,8.395550e-003
2.431835e+003,8.496532e-003
2.433764e+003,8.508156e-003
2.435692e+003,8.418589e-003
2.437621e+003,8.441865e-003
2.439550e+003,8.481598e-003
2.441478e+003,8.537588e-003
2.443406e+003,8.408994e-003
2.445335e+003,8.364911e-003
2.447263e+003,8.380349e-003
2.449192e+003,8.469266e-003
2.451121e+003,8.476902e-003
2.453049e+003,8.453251e-003
2.454978e+003,8.471969e-003
2.456906e+003,8.436933e-003
2.458834e+003,8.370857e-003
2.460763e+003,8.336673e-003
2.462691e+003,8.330324e-003
2.464620e+003,8.384977e-003
2.466549e+003,8.434974e-003
2.468477e+003,8.510960e-003
2.470406e+003,8.425244e-003
2.472334e+003,8.373018e-003
2.474262e+003,8.400854e-003
2.476191e+003,8.401969e-003
2.478119e+003,8.346604e-003
2.480048e+003,8.273348e-003
2.481977e+003,8.258996e-003
2.483905e+003,8.234985e-003
2.485833e+003,8.221445e-003
2.487762e+003,8.304723e-003
2.489690e+003,8.309890e-003
2.491619e+003,8.259671e-003
2.493547e+003,8.344780e-003
2.495476e+003,8.411089e-003
2.497405e+003,8.320631e-003
2.499333e+003,8.296448e-003
2.501261e+003,8.229853e-003
2.503190e+003,8.185687e-003
2.505118e+003,8.374133e-003
2.507047e+003,8.479401e-003
2.508975e+003,8.369370e-003
2.510904e+003,8.372512e-003
2.512833e+003,8.343666e-003
2.514761e+003,8.262474e-003
2.516689e+003,8.307256e-003
2.518618e+003,8.360622e-003
2.520546e+003,8.416359e-003
2.522475e+003,8.512988e-003
2.524403e+003,8.487342e-003
2.526332e+003,8.429095e-003
2.528260e+003,8.413792e-003
2.530189e+003,8.371430e-003
2.532117e+003,8.382510e-003
2.534046e+003,8.426089e-003
2.535974e+003,8.365317e-003
2.537903e+003,8.422710e-003
2.539831e+003,8.558708e-003
2.541760e+003,8.519137e-003
2.543688e+003,8.409569e-003
2.545617e+003,8.411089e-003
2.547545e+003,8.424771e-003
2.549474e+003,8.419332e-003
2.551402e+003,8.441933e-003
2.553331e+003,8.426494e-003
2.555259e+003,8.410144e-003
2.557188e+003,8.480584e-003
2.559116e+003,8.530221e-003
2.561045e+003,8.446123e-003
2.562973e+003,8.377781e-003
2.564902e+003,8.454772e-003
2.566830e+003,8.507040e-003
2.568759e+003,8.532992e-003
2.570687e+003,8.515387e-003
2.572616e+003,8.443521e-003
2.574544e+003,8.506939e-003
2.576473e+003,8.644281e-003
2.578401e+003,8.578646e-003
2.580330e+003,8.416258e-003
2.582258e+003,8.401698e-003
2.584187e+003,8.468286e-003
2.586115e+003,8.541338e-003
2.588044e+003,8.497749e-003
2.589972e+003,8.446359e-003
2.591901e+003,8.524645e-003
2.593829e+003,8.532755e-003
2.595758e+003,8.533803e-003
2.597686e+003,8.503560e-003
2.599615e+003,8.437778e-003
2.601543e+003,8.421832e-003
2.603472e+003,8.456495e-003
2.605400e+003,8.462070e-003
2.607329e+003,8.524409e-003
2.609257e+003,8.596490e-003
2.611186e+003,8.564386e-003
2.613114e+003,8.484065e-003
2.615043e+003,8.518259e-003
2.616971e+003,8.629105e-003
2.618900e+003,8.649926e-003
2.620828e+003,8.712799e-003
2.622757e+003,8.681565e-003
2.624685e+003,8.570299e-003
2.626614e+003,8.616499e-003
2.628542e+003,8.718107e-003
2.630471e+003,8.768886e-003
2.632399e+003,8.809663e-003
2.634328e+003,8.891329e-003
2.636256e+003,8.948894e-003
2.638185e+003,8.965874e-003
2.640113e+003,9.015464e-003
2.642042e+003,9.093007e-003
2.643970e+003,9.076564e-003
2.645899e+003,9.038570e-003
2.647827e+003,9.133273e-003
2.649756e+003,9.200413e-003
2.651684e+003,9.147790e-003
2.653613e+003,9.210025e-003
2.655541e+003,9.319626e-003
2.657470e+003,9.282559e-003
2.659398e+003,9.209111e-003
2.661327e+003,9.215373e-003
2.663255e+003,9.251148e-003
2.665184e+003,9.298977e-003
2.667112e+003,9.314989e-003
2.669041e+003,9.403047e-003
2.670969e+003,9.396242e-003
2.672898e+003,9.385339e-003
2.674826e+003,9.446491e-003
2.676755e+003,9.523061e-003
2.678683e+003,9.559675e-003
2.680612e+003,9.560793e-003
2.682540e+003,9.637451e-003
2.684469e+003,9.652832e-003
2.686397e+003,9.723745e-003
2.688326e+003,9.840153e-003
2.690254e+003,9.927064e-003
2.692183e+003,9.989649e-003
2.694111e+003,9.993413e-003
2.696040e+003,9.908047e-003
2.697968e+003,9.946456e-003
2.699897e+003,1.004912e-002
2.701825e+003,1.003691e-002
2.703754e+003,1.005139e-002
2.705682e+003,1.005909e-002
2.707611e+003,1.017545e-002
2.709539e+003,1.024472e-002
2.711468e+003,1.030365e-002
2.713396e+003,1.038065e-002
2.715325e+003,1.038340e-002
2.717253e+003,1.044401e-002
2.719182e+003,1.063493e-002
2.721110e+003,1.074687e-002
2.723039e+003,1.083178e-002
2.724967e+003,1.103583e-002
2.726896e+003,1.108161e-002
2.728824e+003,1.098264e-002
2.730753e+003,1.109306e-002
2.732681e+003,1.122922e-002
2.734610e+003,1.126819e-002
2.736538e+003,1.128332e-002
2.738467e+003,1.143706e-002
2.740395e+003,1.151966e-002
2.742324e+003,1.162675e-002
2.744252e+003,1.172229e-002
2.746181e+003,1.182674e-002
2.748109e+003,1.185616e-002
2.750038e+003,1.192154e-002
2.751966e+003,1.200526e-002
2.753895e+003,1.219633e-002
2.755823e+003,1.235444e-002
2.757752e+003,1.238591e-002
2.759680e+003,1.252254e-002
2.761609e+003,1.278299e-002
2.763537e+003,1.315989e-002
2.765466e+003,1.345059e-002
2.767394e+003,1.357734e-002
2.769323e+003,1.387192e-002
2.771251e+003,1.432677e-002
2.773180e+003,1.475662e-002
2.775108e+003,1.523388e-002
2.777037e+003,1.579261e-002
2.778965e+003,1.634703e-002
2.780894e+003,1.703420e-002
2.782822e+003,1.779642e-002
2.784750e+003,1.848917e-002
2.786679e+003,1.914410e-002
2.788608e+003,1.984126e-002
2.790536e+003,2.072598e-002
2.792465e+003,2.164034e-002
2.794393e+003,2.238568e-002
2.796322e+003,2.310624e-002
2.798250e+003,2.393935e-002
2.800178e+003,2.465463e-002
2.802107e+003,2.519184e-002
2.804036e+003,2.573791e-002
2.805964e+003,2.620272e-002
2.807893e+003,2.648074e-002
2.809821e+003,2.663189e-002
2.811750e+003,2.671627e-002
2.813678e+003,2.660258e-002
2.815606e+003,2.636454e-002
2.817535e+003,2.607540e-002
2.819464e+003,2.569786e-002
2.821392e+003,2.528525e-002
2.823321e+003,2.485296e-002
2.825249e+003,2.425481e-002
2.827177e+003,2.351524e-002
2.829106e+003,2.284992e-002
2.831034e+003,2.227162e-002
2.832963e+003,2.167200e-002
2.834892e+003,2.103001e-002
2.836820e+003,2.037073e-002
2.838749e+003,1.976749e-002
2.840677e+003,1.910279e-002
2.842605e+003,1.849197e-002
2.844534e+003,1.782121e-002
2.846462e+003,1.713135e-002
2.848391e+003,1.645697e-002
2.850320e+003,1.596359e-002
2.852248e+003,1.570417e-002
2.854177e+003,1.570798e-002
2.856105e+003,1.564921e-002
2.858033e+003,1.546190e-002
2.859962e+003,1.533825e-002
2.861890e+003,1.548120e-002
2.863819e+003,1.557784e-002
2.865748e+003,1.546575e-002
2.867676e+003,1.556269e-002
2.869604e+003,1.589103e-002
2.871533e+003,1.616775e-002
2.873461e+003,1.628253e-002
2.875390e+003,1.633640e-002
2.877319e+003,1.637721e-002
2.879247e+003,1.647325e-002
2.881176e+003,1.656415e-002
2.883104e+003,1.664092e-002
2.885032e+003,1.660140e-002
2.886961e+003,1.645023e-002
2.888889e+003,1.639655e-002
2.890818e+003,1.629715e-002
2.892747e+003,1.617442e-002
2.894675e+003,1.599800e-002
2.896604e+003,1.595084e-002
2.898532e+003,1.603365e-002
2.900460e+003,1.599611e-002
2.902389e+003,1.590416e-002
2.904317e+003,1.585652e-002
2.906246e+003,1.575612e-002
2.908175e+003,1.567885e-002
2.910103e+003,1.562094e-002
2.912031e+003,1.544618e-002
2.913960e+003,1.538548e-002
2.915888e+003,1.533859e-002
2.917817e+003,1.544309e-002
2.919745e+003,1.564292e-002
2.921674e+003,1.587546e-002
2.923603e+003,1.631163e-002
2.925531e+003,1.668991e-002
2.927459e+003,1.705505e-002
2.929388e+003,1.729600e-002
2.931316e+003,1.742611e-002
2.933245e+003,1.761792e-002
2.935173e+003,1.773608e-002
2.937102e+003,1.786771e-002
2.939031e+003,1.794160e-002
2.940959e+003,1.793186e-002
2.942887e+003,1.791477e-002
2.944816e+003,1.768739e-002
2.946744e+003,1.723273e-002
2.948673e+003,1.675678e-002
2.950601e+003,1.626898e-002
2.952530e+003,1.564072e-002
2.954458e+003,1.508620e-002
2.956387e+003,1.448621e-002
2.958315e+003,1.366558e-002
2.960244e+003,1.297082e-002
2.962172e+003,1.233644e-002
2.964101e+003,1.185636e-002
2.966029e+003,1.132454e-002
2.967958e+003,1.065436e-002
2.969886e+003,1.019448e-002
2.971815e+003,9.957949e-003
2.973743e+003,9.623053e-003
2.975672e+003,9.228910e-003
2.977600e+003,8.983700e-003
2.979529e+003,8.655503e-003
2.981457e+003,8.402644e-003
2.983386e+003,8.347786e-003
2.985314e+003,8.180487e-003
2.987243e+003,7.915284e-003
2.989171e+003,7.764206e-003
2.991100e+003,7.799087e-003
2.993028e+003,7.849320e-003
2.994957e+003,7.804788e-003
2.996885e+003,7.704539e-003
2.998814e+003,7.654086e-003
3.000742e+003,7.677221e-003
3.002671e+003,7.627581e-003
3.004599e+003,7.661506e-003
3.006528e+003,7.632909e-003
3.008456e+003,7.552929e-003
3.010385e+003,7.571641e-003
3.012313e+003,7.508494e-003
3.014242e+003,7.418830e-003
3.016170e+003,7.404472e-003
3.018099e+003,7.463154e-003
3.020027e+003,7.553772e-003
3.021956e+003,7.535835e-003
3.023884e+003,7.369725e-003
3.025813e+003,7.301317e-003
3.027741e+003,7.288580e-003
3.029670e+003,7.403730e-003
3.031598e+003,7.451491e-003
3.033527e+003,7.350414e-003
3.035455e+003,7.290534e-003
3.037384e+003,7.349504e-003
3.039312e+003,7.449165e-003
3.041241e+003,7.407640e-003
3.043169e+003,7.383306e-003
3.045098e+003,7.305360e-003
3.047026e+003,7.300676e-003
3.048955e+003,7.284739e-003
3.050883e+003,7.353447e-003
3.052812e+003,7.319951e-003
3.054740e+003,7.247441e-003
3.056669e+003,7.198287e-003
3.058597e+003,7.248013e-003
3.060526e+003,7.256302e-003
3.062454e+003,7.247575e-003
3.064383e+003,7.267319e-003
3.066311e+003,7.183263e-003
3.068240e+003,7.242926e-003
3.070168e+003,7.292455e-003
3.072097e+003,7.294139e-003
3.074025e+003,7.217187e-003
3.075954e+003,7.271193e-003
3.077882e+003,7.343101e-003
3.079811e+003,7.248013e-003
3.081739e+003,7.061806e-003
3.083668e+003,7.071033e-003
3.085596e+003,7.179928e-003
3.087525e+003,7.136272e-003
3.089453e+003,7.141662e-003
3.091382e+003,7.264084e-003
3.093310e+003,7.307416e-003
3.095239e+003,7.233021e-003
3.097167e+003,7.201286e-003
3.099096e+003,7.336092e-003
3.101024e+003,7.446031e-003
3.102953e+003,7.409865e-003
3.104881e+003,7.264860e-003
3.106810e+003,7.258525e-003
3.108738e+003,7.372084e-003
3.110667e+003,7.380711e-003
3.112595e+003,7.421020e-003
3.114524e+003,7.543657e-003
3.116452e+003,7.549287e-003
3.118381e+003,7.527609e-003
3.120309e+003,7.383441e-003
3.122238e+003,7.381352e-003
3.124166e+003,7.441514e-003
3.126095e+003,7.478053e-003
3.128023e+003,7.519484e-003
3.129952e+003,7.447749e-003
3.131880e+003,7.427223e-003
3.133809e+003,7.487998e-003
3.135737e+003,7.532936e-003
3.137666e+003,7.551681e-003
3.139594e+003,7.501684e-003
3.141523e+003,7.570697e-003
3.143451e+003,7.661101e-003
3.145380e+003,7.653985e-003
3.147308e+003,7.611395e-003
3.149237e+003,7.606168e-003
3.151165e+003,7.679751e-003
3.153094e+003,7.720897e-003
3.155022e+003,7.710441e-003
3.156951e+003,7.769435e-003
3.158879e+003,7.865987e-003
3.160808e+003,7.774090e-003
3.162736e+003,7.772572e-003
3.164665e+003,7.789641e-003
3.166593e+003,7.781545e-003
3.168522e+003,7.874692e-003
3.170450e+003,7.884038e-003
3.172379e+003,7.966374e-003
3.174307e+003,8.094768e-003
3.176236e+003,8.098616e-003
3.178164e+003,7.953213e-003
3.180093e+003,7.996613e-003
3.182021e+003,8.075595e-003
3.183950e+003,8.100170e-003
3.185878e+003,8.052371e-003
3.187807e+003,8.044371e-003
3.189735e+003,8.074885e-003
3.191664e+003,8.275745e-003
3.193592e+003,8.270173e-003
3.195521e+003,8.166036e-003
3.197449e+003,8.255112e-003
3.199378e+003,8.246568e-003
3.201306e+003,8.143888e-003
3.203235e+003,8.238970e-003
3.205163e+003,8.367952e-003
3.207092e+003,8.280947e-003
3.209020e+003,8.259198e-003
3.210948e+003,8.319111e-003
3.212877e+003,8.325224e-003
3.214806e+003,8.255044e-003
3.216734e+003,8.169480e-003
3.218663e+003,8.208647e-003
3.220591e+003,8.389131e-003
3.222520e+003,8.552050e-003
3.224448e+003,8.510555e-003
3.226376e+003,8.401360e-003
3.228305e+003,8.307864e-003
3.230234e+003,8.401597e-003
3.232162e+003,8.605988e-003
3.234091e+003,8.758845e-003
3.236019e+003,8.804084e-003
3.237948e+003,8.634513e-003
3.239876e+003,8.671153e-003
3.241804e+003,8.792148e-003
3.243733e+003,8.917642e-003
3.245662e+003,9.032447e-003
3.247590e+003,9.094868e-003
3.249519e+003,9.147722e-003
3.251447e+003,9.196657e-003
3.253375e+003,9.327277e-003
3.255304e+003,9.384527e-003
3.257232e+003,9.279107e-003
3.259161e+003,9.302463e-003
3.261090e+003,9.452621e-003
3.263018e+003,9.531427e-003
3.264947e+003,9.438364e-003
3.266875e+003,9.486552e-003
3.268803e+003,9.758004e-003
3.270732e+003,9.806295e-003
3.272660e+003,9.739807e-003
3.274589e+003,9.605404e-003
3.276518e+003,9.604624e-003
3.278446e+003,9.620377e-003
3.280375e+003,9.582742e-003
3.282303e+003,9.735402e-003
3.284231e+003,9.815785e-003
3.286160e+003,9.613500e-003
3.288088e+003,9.612178e-003
3.290017e+003,9.673092e-003
3.291946e+003,9.453027e-003
3.293874e+003,9.342443e-003
3.295802e+003,9.380430e-003
3.297731e+003,9.246917e-003
3.299659e+003,9.268105e-003
3.301588e+003,9.336722e-003
3.303516e+003,9.260964e-003
3.305445e+003,9.231483e-003
3.307374e+003,9.139026e-003
3.309302e+003,9.109147e-003
3.311230e+003,9.061779e-003
3.313159e+003,8.930088e-003
3.315087e+003,8.810069e-003
3.317016e+003,8.705971e-003
3.318944e+003,8.539142e-003
3.320873e+003,8.395888e-003
3.322802e+003,8.368830e-003
3.324730e+003,8.454400e-003
3.326658e+003,8.457204e-003
3.328587e+003,8.323772e-003
3.330515e+003,8.288917e-003
3.332444e+003,8.282872e-003
3.334372e+003,8.339646e-003
3.336301e+003,8.396395e-003
3.338229e+003,8.328129e-003
3.340158e+003,8.229448e-003
3.342086e+003,8.275307e-003
3.344015e+003,8.446764e-003
3.345943e+003,8.376430e-003
3.347872e+003,8.333532e-003
3.349800e+003,8.242381e-003
3.351729e+003,8.224146e-003
3.353657e+003,8.255754e-003
3.355586e+003,8.368526e-003
3.357514e+003,8.451190e-003
3.359443e+003,8.368053e-003
3.361371e+003,8.225463e-003
3.363300e+003,8.167117e-003
3.365229e+003,8.182986e-003
3.367157e+003,8.124307e-003
3.369085e+003,7.876176e-003
3.371014e+003,7.863153e-003
3.372942e+003,7.909109e-003
3.374871e+003,7.737559e-003
3.376799e+003,7.614767e-003
3.378728e+003,7.522923e-003
3.380656e+003,7.400292e-003
3.382585e+003,7.230864e-003
3.384513e+003,7.059684e-003
3.386442e+003,6.935299e-003
3.388370e+003,6.856827e-003
3.390299e+003,6.865344e-003
3.392227e+003,6.858645e-003
3.394156e+003,6.773187e-003
3.396084e+003,6.780692e-003
3.398013e+003,6.906110e-003
3.399941e+003,6.868945e-003
3.401870e+003,6.796679e-003
3.403798e+003,6.630446e-003
3.405727e+003,6.460343e-003
3.407655e+003,6.457821e-003
3.409584e+003,6.616316e-003
3.411512e+003,6.709314e-003
3.413441e+003,6.700263e-003
3.415369e+003,6.690370e-003
3.417298e+003,6.627351e-003
3.419226e+003,6.523842e-003
3.421155e+003,6.578840e-003
3.423083e+003,6.738355e-003
3.425012e+003,6.749696e-003
3.426940e+003,6.761812e-003
3.428869e+003,6.841646e-003
3.430797e+003,6.779952e-003
3.432726e+003,6.751985e-003
3.434654e+003,6.674118e-003
3.436583e+003,6.614768e-003
3.438511e+003,6.686131e-003
3.440440e+003,6.733812e-003
3.442368e+003,6.718400e-003
3.444297e+003,6.657833e-003
3.446225e+003,6.835823e-003
3.448154e+003,6.827913e-003
3.450082e+003,6.777259e-003
3.452011e+003,6.786077e-003
3.453939e+003,6.846561e-003
3.455868e+003,6.995837e-003
3.457796e+003,7.082989e-003
3.459725e+003,6.921024e-003
3.461653e+003,6.930619e-003
3.463582e+003,6.995803e-003
3.465510e+003,6.959304e-003
3.467439e+003,7.016479e-003
3.469367e+003,7.010350e-003
3.471296e+003,6.935737e-003
3.473224e+003,6.796005e-003
3.475153e+003,6.699085e-003
3.477081e+003,6.782812e-003
3.479010e+003,7.117309e-003
3.480938e+003,7.209505e-003
3.482867e+003,7.071639e-003
3.484795e+003,6.902239e-003
3.486724e+003,6.936545e-003
3.488652e+003,7.080665e-003
3.490581e+003,7.203341e-003
3.492509e+003,6.991897e-003
3.494438e+003,6.929878e-003
3.496366e+003,7.027726e-003
3.498295e+003,7.102961e-003
3.500223e+003,7.234806e-003
3.502152e+003,7.361468e-003
3.504080e+003,7.413032e-003
3.506009e+003,7.278202e-003
3.507937e+003,7.207349e-003
3.509866e+003,7.337171e-003
3.511794e+003,7.390047e-003
3.513723e+003,7.260210e-003
3.515651e+003,7.135666e-003
3.517580e+003,7.383913e-003
3.519508e+003,7.471885e-003
3.521437e+003,7.573462e-003
3.523365e+003,7.684067e-003
3.525294e+003,7.612339e-003
3.527222e+003,7.606877e-003
3.529151e+003,7.755200e-003
3.531079e+003,7.741303e-003
3.533008e+003,7.589848e-003
3.534936e+003,7.445053e-003
3.536865e+003,7.245992e-003
3.538793e+003,7.281875e-003
3.540722e+003,7.325713e-003
3.542650e+003,7.325544e-003
3.544579e+003,7.353818e-003
3.546507e+003,7.506977e-003
3.548436e+003,7.550231e-003
3.550364e+003,7.511865e-003
3.552293e+003,7.506809e-003
3.554221e+003,7.552726e-003
3.556150e+003,7.576766e-003
3.558078e+003,7.539106e-003
3.560007e+003,7.562504e-003
3.561935e+003,7.568539e-003
3.563864e+003,7.630987e-003
3.565792e+003,7.838018e-003
3.567721e+003,8.019394e-003
3.569649e+003,7.892676e-003
3.571578e+003,7.599290e-003
3.573506e+003,7.330498e-003
3.575435e+003,7.470873e-003
3.577363e+003,7.608832e-003
3.579292e+003,7.570393e-003
3.581220e+003,7.558121e-003
3.583149e+003,7.526969e-003
3.585077e+003,7.776654e-003
3.587006e+003,8.196187e-003
3.588934e+003,8.104963e-003
3.590863e+003,7.795308e-003
3.592791e+003,7.905330e-003
3.594720e+003,7.959692e-003
3.596648e+003,7.769975e-003
3.598577e+003,7.696984e-003
3.600505e+003,7.606775e-003
3.602434e+003,7.516551e-003
3.604362e+003,7.602796e-003
3.606291e+003,7.833565e-003
3.608219e+003,8.029081e-003
3.610148e+003,7.910593e-003
3.612076e+003,7.927432e-003
3.614005e+003,7.877155e-003
3.615933e+003,7.952639e-003
3.617862e+003,8.202028e-003
3.619790e+003,8.222728e-003
3.621719e+003,7.946598e-003
3.623647e+003,7.807318e-003
3.625576e+003,7.815144e-003
3.627504e+003,8.328027e-003
3.629433e+003,8.513900e-003
3.631361e+003,8.001810e-003
3.633290e+003,7.892406e-003
3.635218e+003,7.918691e-003
3.637146e+003,7.796219e-003
3.639075e+003,7.567427e-003
3.641004e+003,7.652130e-003
3.642932e+003,7.786875e-003
3.644861e+003,7.691285e-003
3.646789e+003,8.115462e-003
3.648718e+003,8.972300e-003
3.650646e+003,8.899176e-003
3.652574e+003,7.865987e-003
3.654503e+003,7.652535e-003
3.656432e+003,7.924327e-003
3.658360e+003,7.792778e-003
3.660289e+003,7.758472e-003
3.662217e+003,7.617127e-003
3.664146e+003,7.303844e-003
3.666074e+003,7.398338e-003
3.668002e+003,7.841763e-003
3.669931e+003,8.376565e-003
3.671860e+003,8.283649e-003
3.673788e+003,8.644518e-003
3.675717e+003,9.039551e-003
3.677645e+003,8.298812e-003
3.679573e+003,8.003295e-003
3.681502e+003,7.868113e-003
3.683430e+003,7.717727e-003
3.685359e+003,7.637293e-003
3.687288e+003,7.957735e-003
3.689216e+003,8.217731e-003
3.691145e+003,8.084776e-003
3.693073e+003,7.865616e-003
3.695001e+003,7.775642e-003
3.696930e+003,7.683326e-003
3.698858e+003,7.783232e-003
3.700787e+003,7.845069e-003
3.702716e+003,7.767917e-003
3.704644e+003,7.686630e-003
3.706573e+003,7.802392e-003
3.708501e+003,8.177110e-003
3.710429e+003,8.609638e-003
3.712358e+003,8.535560e-003
3.714286e+003,7.778779e-003
3.716215e+003,7.597098e-003
3.718144e+003,7.828774e-003
3.720072e+003,7.873477e-003
3.722000e+003,7.884881e-003
3.723929e+003,7.736244e-003
3.725857e+003,7.918556e-003
3.727786e+003,7.890956e-003
3.729714e+003,8.052642e-003
3.731643e+003,8.432372e-003
3.733572e+003,8.458286e-003
3.735500e+003,8.866913e-003
3.737428e+003,8.521671e-003
3.739357e+003,8.012138e-003
3.741285e+003,8.046734e-003
3.743214e+003,8.986643e-003
3.745142e+003,9.294914e-003
3.747071e+003,8.711887e-003
3.749000e+003,9.039822e-003
3.750928e+003,9.190497e-003
3.752856e+003,8.802867e-003
3.754785e+003,8.273955e-003
3.756713e+003,8.206317e-003
3.758642e+003,8.109183e-003
3.760570e+003,8.165800e-003
3.762499e+003,8.123193e-003
3.764427e+003,8.343091e-003
3.766356e+003,8.276860e-003
3.768284e+003,8.341774e-003
3.770213e+003,8.395617e-003
3.772141e+003,8.233432e-003
3.774070e+003,7.886366e-003
3.775998e+003,7.857923e-003
3.777927e+003,8.124442e-003
3.779855e+003,8.028372e-003
3.781784e+003,7.779386e-003
3.783712e+003,7.711723e-003
3.785641e+003,7.532093e-003
3.787569e+003,7.539578e-003
3.789498e+003,7.692026e-003
3.791426e+003,7.869159e-003
3.793355e+003,7.983484e-003
3.795283e+003,8.088759e-003
3.797212e+003,7.998334e-003
3.799140e+003,8.274327e-003
3.801069e+003,9.081503e-003
3.802997e+003,8.874420e-003
3.804926e+003,8.654523e-003
3.806854e+003,8.674771e-003
3.808783e+003,8.017808e-003
3.810711e+003,7.885894e-003
3.812640e+003,7.972516e-003
3.814568e+003,8.435413e-003
3.816497e+003,8.841516e-003
3.818425e+003,8.637623e-003
3.820354e+003,8.787347e-003
3.822282e+003,8.632823e-003
3.824211e+003,8.286215e-003
3.826139e+003,8.105605e-003
3.828068e+003,7.892440e-003
3.829996e+003,8.185348e-003
3.831925e+003,8.355994e-003
3.833853e+003,8.279055e-003
3.835782e+003,8.365013e-003
3.837710e+003,8.583682e-003
3.839639e+003,8.624339e-003
3.841567e+003,8.290774e-003
3.843496e+003,7.949265e-003
3.845424e+003,7.766433e-003
3.847353e+003,7.824692e-003
3.849281e+003,8.080894e-003
3.851210e+003,8.624982e-003
3.853138e+003,9.615770e-003
3.855067e+003,9.085970e-003
3.856995e+003,8.097267e-003
3.858924e+003,7.926588e-003
3.860852e+003,8.388051e-003
3.862781e+003,8.583310e-003
3.864709e+003,8.482409e-003
3.866638e+003,8.290166e-003
3.868566e+003,8.395550e-003
3.870495e+003,8.371667e-003
3.872423e+003,8.230663e-003
3.874352e+003,8.203785e-003
3.876280e+003,7.872263e-003
3.878209e+003,7.791867e-003
3.880137e+003,8.112086e-003
3.882066e+003,8.022129e-003
3.883994e+003,8.090616e-003
3.885923e+003,8.316544e-003
3.887851e+003,7.909918e-003
3.889780e+003,8.062126e-003
3.891708e+003,8.275915e-003
3.893637e+003,8.027158e-003
3.895565e+003,7.922100e-003
3.897494e+003,8.274564e-003
3.899422e+003,8.403860e-003
3.901351e+003,8.375856e-003
3.903279e+003,8.516198e-003
3.905208e+003,8.287532e-003
3.907136e+003,7.937994e-003
3.909065e+003,7.746835e-003
3.910993e+003,7.753547e-003
3.912922e+003,8.037925e-003
3.914850e+003,8.368762e-003
3.916779e+003,8.311714e-003
3.918707e+003,7.914203e-003
3.920636e+003,7.699986e-003
3.922564e+003,7.824523e-003
3.924493e+003,8.052844e-003
3.926421e+003,7.923382e-003
3.928350e+003,7.889943e-003
3.930278e+003,8.092000e-003
3.932207e+003,8.134468e-003
3.934135e+003,8.006772e-003
3.936064e+003,7.930131e-003
3.937992e+003,7.999043e-003
3.939921e+003,8.041807e-003
3.941849e+003,8.019159e-003
3.943778e+003,7.994656e-003
3.945706e+003,8.137609e-003
3.947635e+003,8.383187e-003
3.949563e+003,8.334917e-003
3.951492e+003,8.134198e-003
3.953420e+003,7.931750e-003
3.955349e+003,7.680998e-003
3.957277e+003,7.776957e-003
3.959206e+003,8.002688e-003
3.961134e+003,8.115901e-003
3.963063e+003,7.969546e-003
3.964991e+003,7.838659e-003
3.966920e+003,7.803978e-003
3.968848e+003,8.025976e-003
3.970777e+003,8.067290e-003
3.972705e+003,7.840818e-003
3.974634e+003,7.847700e-003
3.976562e+003,8.103613e-003
3.978491e+003,8.393489e-003
3.980419e+003,8.298103e-003
3.982348e+003,8.096253e-003
3.984276e+003,8.060168e-003
3.986205e+003,8.034043e-003
3.988133e+003,8.142335e-003
3.990062e+003,8.207871e-003
3.991990e+003,8.219689e-003
3.993919e+003,8.033031e-003
3.995847e+003,7.870103e-003
3.997776e+003,7.933944e-003
3.999704e+003,7.938365e-003
4.001633e+003,0.000000e+000
