3.991989e+002,-5.435707e-003
4.011274e+002,4.616368e-004
4.030559e+002,-3.962755e-003
4.049844e+002,-4.729419e-003
4.069129e+002,6.471922e-004
4.088414e+002,2.192205e-003
4.107699e+002,-3.264853e-003
4.126984e+002,-2.523103e-003
4.146269e+002,5.780461e-003
4.165554e+002,1.366999e-002
4.184839e+002,1.132869e-002
4.204124e+002,8.531302e-003
4.223409e+002,5.122126e-003
4.242694e+002,1.021065e-003
4.261979e+002,2.864987e-003
4.281264e+002,1.915570e-004
4.300549e+002,-1.274341e-002
4.319834e+002,-7.973421e-003
4.339119e+002,-1.068384e-003
4.358404e+002,-5.725134e-003
4.377689e+002,-1.612651e-003
4.396974e+002,5.963249e-004
4.416259e+002,-2.259025e-003
4.435544e+002,4.525153e-004
4.454829e+002,3.099725e-003
4.474114e+002,5.804235e-003
4.493399e+002,6.437441e-003
4.512684e+002,-5.566162e-005
4.531969e+002,-1.670252e-003
4.551254e+002,-2.701241e-004
4.570539e+002,-1.798399e-003
4.589824e+002,-2.698452e-003
4.609109e+002,-1.673553e-003
4.628394e+002,1.040960e-003
4.647679e+002,3.792666e-003
4.666964e+002,3.284341e-003
4.686249e+002,1.095566e-003
4.705533e+002,2.376169e-003
4.724819e+002,7.487122e-004
4.744103e+002,-1.953475e-004
4.763389e+002,3.948854e-003
4.782673e+002,3.298396e-003
4.801959e+002,3.806237e-003
4.821243e+002,4.377758e-003
4.840529e+002,9.667336e-004
4.859813e+002,9.834043e-004
4.879099e+002,5.931397e-004
4.898383e+002,5.189101e-005
4.917668e+002,8.539481e-005
4.936953e+002,1.510055e-003
4.956238e+002,4.450130e-005
4.975523e+002,-2.123704e-004
4.994808e+002,1.023300e-004
5.014093e+002,-5.841577e-004
5.033378e+002,-1.234970e-003
5.052663e+002,-4.954357e-004
5.071948e+002,2.390028e-003
5.091233e+002,3.109870e-003
5.110518e+002,2.148415e-003
5.129803e+002,1.992807e-004
5.149088e+002,-1.200211e-003
5.168373e+002,-3.172419e-004
5.187658e+002,7.925600e-004
5.206943e+002,1.898449e-003
5.226228e+002,1.272453e-003
5.245513e+002,-4.182152e-004
5.264798e+002,-1.103220e-003
5.284083e+002,-8.478671e-004
5.303368e+002,4.383526e-004
5.322653e+002,9.859282e-004
5.341938e+002,7.631175e-004
5.361223e+002,6.287757e-004
5.380508e+002,-1.500696e-003
5.399792e+002,-1.491846e-003
5.419078e+002,1.166160e-003
5.438363e+002,1.399914e-003
5.457648e+002,1.047802e-003
5.476932e+002,8.452430e-004
5.496218e+002,1.227693e-003
5.515503e+002,1.985617e-003
5.534788e+002,1.843509e-003
5.554072e+002,3.988518e-004
5.573358e+002,-1.239497e-003
5.592643e+002,-2.058173e-003
5.611927e+002,1.619626e-003
5.631212e+002,4.422108e-003
5.650497e+002,3.363138e-003
5.669783e+002,1.378441e-003
5.689067e+002,2.295652e-003
5.708352e+002,4.885020e-003
5.727637e+002,2.565577e-003
5.746923e+002,-3.820006e-003
5.766207e+002,-7.365670e-003
5.785492e+002,-6.229110e-003
5.804777e+002,4.671755e-003
5.824063e+002,8.702117e-003
5.843347e+002,3.880649e-003
5.862632e+002,3.666774e-003
5.881917e+002,1.360027e-003
5.901202e+002,1.283686e-003
5.920487e+002,1.890529e-003
5.939772e+002,5.993443e-004
5.959057e+002,9.904779e-004
5.978342e+002,1.384657e-003
5.997627e+002,3.966326e-005
6.016912e+002,-6.011323e-004
6.036197e+002,-7.579090e-004
6.055482e+002,5.702742e-005
6.074767e+002,1.233475e-003
6.094052e+002,7.259437e-004
6.113337e+002,1.295018e-003
6.132622e+002,2.810124e-003
6.151907e+002,2.513285e-003
6.171192e+002,1.153236e-003
6.190477e+002,5.692181e-004
6.209762e+002,1.003496e-003
6.229047e+002,7.543548e-004
6.248332e+002,1.336362e-003
6.267617e+002,1.276840e-003
6.286902e+002,4.346046e-004
6.306187e+002,-4.747848e-005
6.325472e+002,-2.879056e-004
6.344756e+002,-9.554806e-005
6.364042e+002,3.779256e-004
6.383326e+002,3.276204e-004
6.402612e+002,-1.335281e-005
6.421896e+002,-3.961355e-004
6.441182e+002,-2.204511e-004
6.460466e+002,-3.799806e-004
6.479752e+002,-4.004390e-004
6.499036e+002,2.944295e-004
6.518322e+002,1.967614e-004
6.537606e+002,2.392937e-004
6.556891e+002,3.086207e-004
6.576177e+002,-7.987882e-005
6.595461e+002,-3.467418e-004
6.614746e+002,-1.575238e-004
6.634031e+002,-5.244802e-005
6.653317e+002,-5.970293e-004
6.672601e+002,-1.317496e-003
6.691886e+002,-1.228660e-003
6.711171e+002,-3.044282e-004
6.730457e+002,1.871482e-004
6.749741e+002,-2.431970e-005
6.769026e+002,-8.743193e-005
6.788311e+002,9.140691e-004
6.807596e+002,6.767265e-004
6.826881e+002,-2.330023e-004
6.846166e+002,-1.828614e-004
6.865451e+002,-2.300218e-004
6.884736e+002,-1.223799e-004
6.904021e+002,-1.756069e-005
6.923306e+002,-7.129860e-005
6.942591e+002,1.077321e-004
6.961876e+002,1.515484e-004
6.981161e+002,2.383654e-004
7.000446e+002,2.174800e-004
7.019731e+002,3.672804e-004
7.039016e+002,4.397456e-004
7.058301e+002,-2.315783e-004
7.077585e+002,-4.512830e-004
7.096871e+002,1.177412e-004
7.116156e+002,5.212297e-005
7.135441e+002,-1.364577e-004
7.154725e+002,-1.163512e-004
7.174011e+002,2.206625e-004
7.193296e+002,3.962650e-004
7.212581e+002,-1.685533e-004
7.231865e+002,1.751156e-004
7.251151e+002,8.011907e-004
7.270436e+002,-2.056474e-004
7.289720e+002,-6.578417e-004
7.309005e+002,-8.149949e-004
7.328290e+002,-6.416634e-004
7.347576e+002,-5.678803e-005
7.366860e+002,2.115129e-004
7.386145e+002,1.982531e-004
7.405430e+002,-1.584512e-004
7.424716e+002,-3.611103e-004
7.444000e+002,-5.400513e-005
7.463285e+002,-4.151497e-005
7.482570e+002,-2.502887e-004
7.501855e+002,-1.575569e-004
7.521140e+002,2.876130e-005
7.540425e+002,1.017666e-004
7.559710e+002,4.940566e-005
7.578995e+002,-2.778725e-004
7.598280e+002,-2.463149e-004
7.617565e+002,-3.368425e-004
7.636850e+002,-1.913732e-004
7.656135e+002,3.879409e-004
7.675420e+002,4.437589e-004
7.694705e+002,4.201600e-005
7.713990e+002,-3.533633e-004
7.733275e+002,-1.702093e-004
7.752560e+002,1.792589e-005
7.771844e+002,-8.127019e-005
7.791130e+002,-1.786220e-004
7.810415e+002,-1.431817e-004
7.829700e+002,-1.884255e-004
7.848984e+002,-3.813379e-004
7.868270e+002,-9.312980e-005
7.887555e+002,1.918553e-004
7.906840e+002,4.149038e-004
7.926124e+002,3.189660e-004
7.945410e+002,2.346524e-004
7.964695e+002,2.184414e-004
7.983979e+002,1.033794e-005
8.003264e+002,5.510540e-005
8.022549e+002,-3.585279e-004
8.041835e+002,-4.737571e-004
8.061119e+002,-1.226780e-004
8.080404e+002,-2.841970e-004
8.099689e+002,-2.896606e-004
8.118975e+002,-7.759299e-005
8.138259e+002,1.781983e-004
8.157545e+002,9.608882e-007
8.176830e+002,-1.258249e-004
8.196115e+002,1.144269e-004
8.215399e+002,3.340201e-004
8.234684e+002,3.526230e-004
8.253970e+002,1.079310e-004
8.273254e+002,-4.333716e-005
8.292539e+002,2.446644e-004
8.311824e+002,6.720103e-005
8.331110e+002,-1.172455e-004
8.350394e+002,1.351890e-005
8.369679e+002,-1.722628e-004
8.388964e+002,-4.529187e-005
8.408250e+002,2.824933e-004
8.427534e+002,1.513827e-004
8.446819e+002,4.774878e-005
8.466104e+002,2.703253e-004
8.485389e+002,3.457588e-004
8.504674e+002,1.295071e-004
8.523959e+002,-1.021734e-004
8.543244e+002,-1.111836e-004
8.562529e+002,-2.017816e-005
8.581814e+002,9.868438e-005
8.601099e+002,6.993929e-004
8.620384e+002,7.007868e-004
8.639669e+002,3.992830e-004
8.658954e+002,1.290431e-004
8.678239e+002,-2.604880e-004
8.697524e+002,-1.581200e-004
8.716809e+002,2.666452e-004
8.736094e+002,3.632015e-004
8.755378e+002,2.775863e-004
8.774664e+002,-8.597432e-005
8.793949e+002,-4.777666e-005
8.813234e+002,-1.860740e-004
8.832518e+002,-4.154677e-004
8.851804e+002,-1.346359e-004
8.871089e+002,3.186675e-004
8.890374e+002,5.100335e-004
8.909658e+002,2.130047e-004
8.928943e+002,-1.434467e-004
8.948229e+002,-3.758424e-004
8.967513e+002,-4.177518e-004
8.986798e+002,-3.516086e-004
9.006083e+002,-1.742170e-004
9.025369e+002,-4.390038e-005
9.044653e+002,4.831211e-005
9.063938e+002,9.838611e-005
9.083223e+002,4.811329e-005
9.102509e+002,5.772333e-005
9.121793e+002,-1.521249e-004
9.141078e+002,-1.821990e-004
9.160364e+002,6.624000e-005
9.179648e+002,3.175070e-004
9.198933e+002,3.946400e-004
9.218218e+002,3.629362e-004
9.237504e+002,2.671425e-004
9.256788e+002,2.517591e-004
9.276073e+002,3.820710e-004
9.295358e+002,4.683038e-004
9.314644e+002,1.786623e-004
9.333928e+002,-1.266198e-004
9.353213e+002,-6.527357e-006
9.372498e+002,3.311021e-004
9.391783e+002,1.828721e-004
9.411068e+002,1.285791e-004
9.430353e+002,1.481676e-004
9.449637e+002,1.608624e-004
9.468923e+002,1.517804e-004
9.488208e+002,2.031592e-004
9.507493e+002,1.730936e-004
9.526777e+002,-1.365570e-004
9.546063e+002,-3.398885e-004
9.565348e+002,-1.220155e-004
9.584633e+002,-2.097334e-005
9.603917e+002,-4.549065e-005
9.623203e+002,-4.870677e-006
9.642488e+002,-1.527542e-004
9.661772e+002,-8.946182e-007
9.681057e+002,1.834025e-004
9.700343e+002,-1.042934e-004
9.719628e+002,-3.506154e-004
9.738912e+002,-1.825633e-004
9.758197e+002,-2.577064e-004
9.777483e+002,-1.847492e-004
9.796768e+002,-1.210880e-004
9.816052e+002,-2.013089e-004
9.835337e+002,1.695137e-004
9.854623e+002,1.457148e-004
9.873907e+002,-1.580869e-004
9.893192e+002,1.895018e-004
9.912477e+002,2.845489e-004
9.931763e+002,2.318013e-004
9.951047e+002,2.948273e-004
9.970332e+002,1.876786e-004
9.989617e+002,3.396573e-004
1.000890e+003,2.837200e-004
1.002819e+003,-5.152038e-005
1.004747e+003,-1.547332e-005
1.006676e+003,1.207904e-004
1.008604e+003,7.687778e-005
1.010533e+003,1.269551e-004
1.012461e+003,-3.826813e-005
1.014390e+003,-2.540638e-004
1.016318e+003,-1.232411e-004
1.018247e+003,-4.022286e-005
1.020175e+003,-2.611171e-004
1.022104e+003,-3.893161e-004
1.024032e+003,-2.109794e-004
1.025961e+003,-1.121774e-004
1.027889e+003,1.590437e-006
1.029818e+003,1.249333e-004
1.031746e+003,1.705081e-004
1.033675e+003,1.291426e-004
1.035603e+003,-2.630763e-005
1.037532e+003,-2.107274e-005
1.039460e+003,2.016674e-004
1.041389e+003,1.278831e-004
1.043317e+003,-1.866371e-004
1.045246e+003,-3.946458e-004
1.047174e+003,-3.586935e-004
1.049103e+003,-3.881243e-004
1.051031e+003,-3.721346e-004
1.052960e+003,-1.225124e-004
1.054888e+003,-1.078710e-004
1.056817e+003,-2.856209e-004
1.058745e+003,-2.739321e-004
1.060674e+003,-2.054487e-004
1.062602e+003,-2.937002e-004
1.064531e+003,-2.180997e-004
1.066459e+003,-1.593786e-004
1.068388e+003,-1.478852e-004
1.070316e+003,-1.904790e-004
1.072245e+003,-2.817136e-004
1.074173e+003,-3.736244e-004
1.076102e+003,-3.838869e-004
1.078030e+003,-3.491587e-004
1.079959e+003,-1.661686e-004
1.081887e+003,-1.692157e-004
1.083816e+003,-4.943317e-005
1.085744e+003,9.649705e-005
1.087673e+003,1.817451e-004
1.089601e+003,2.091593e-004
1.091530e+003,1.314295e-004
1.093458e+003,-1.109849e-004
1.095387e+003,-3.245923e-004
1.097315e+003,-4.244384e-004
1.099244e+003,-5.107921e-004
1.101172e+003,-2.309491e-004
1.103101e+003,-3.939458e-005
1.105029e+003,-1.313897e-004
1.106958e+003,-4.151497e-005
1.108886e+003,1.100521e-004
1.110815e+003,-4.373473e-005
1.112743e+003,-7.613535e-005
1.114672e+003,7.618184e-005
1.116600e+003,-6.477222e-005
1.118529e+003,-2.495601e-004
1.120457e+003,-1.524892e-004
1.122386e+003,3.833778e-005
1.124314e+003,-1.785226e-004
1.126243e+003,-4.183145e-004
1.128171e+003,-3.628649e-004
1.130100e+003,-2.937995e-004
1.132028e+003,-2.277368e-004
1.133957e+003,-2.750911e-004
1.135885e+003,-3.316776e-004
1.137814e+003,-2.061442e-004
1.139742e+003,-4.128857e-004
1.141671e+003,-4.079203e-004
1.143599e+003,-9.849633e-005
1.145528e+003,4.678778e-005
1.147456e+003,-5.460146e-005
1.149385e+003,-8.219777e-005
1.151313e+003,-3.965963e-005
1.153242e+003,-4.741222e-005
1.155170e+003,-8.749819e-005
1.157099e+003,-2.266309e-005
1.159027e+003,9.785585e-005
1.160956e+003,-1.684208e-004
1.162884e+003,-2.031635e-004
1.164813e+003,2.087495e-005
1.166741e+003,5.619897e-005
1.168670e+003,1.189012e-004
1.170598e+003,1.282477e-004
1.172526e+003,3.094830e-005
1.174455e+003,-2.212128e-004
1.176384e+003,-3.324060e-004
1.178312e+003,-1.130386e-004
1.180240e+003,1.487744e-005
1.182169e+003,-1.383126e-004
1.184098e+003,-3.119112e-004
1.186026e+003,-4.816674e-004
1.187954e+003,-4.868968e-004
1.189883e+003,-4.109658e-004
1.191812e+003,-1.560995e-004
1.193740e+003,-6.053167e-005
1.195668e+003,-2.660582e-005
1.197597e+003,8.665416e-005
1.199526e+003,-4.655083e-005
1.201454e+003,-2.151192e-004
1.203382e+003,-2.101515e-004
1.205311e+003,-1.293029e-004
1.207240e+003,-6.262288e-006
1.209168e+003,-9.163909e-005
1.211096e+003,-1.052541e-004
1.213025e+003,-1.388426e-004
1.214953e+003,-2.104496e-004
1.216882e+003,-2.023356e-004
1.218810e+003,-6.543480e-005
1.220739e+003,6.690278e-005
1.222667e+003,7.313299e-005
1.224596e+003,-8.888953e-005
1.226524e+003,-1.253280e-004
1.228453e+003,-1.332778e-004
1.230381e+003,-1.499719e-004
1.232310e+003,-1.382132e-004
1.234238e+003,-6.229155e-006
1.236167e+003,5.699429e-005
1.238095e+003,-2.478355e-005
1.240024e+003,5.036403e-006
1.241952e+003,4.407051e-005
1.243881e+003,1.033242e-004
1.245809e+003,1.153218e-004
1.247738e+003,1.935459e-004
1.249666e+003,1.105492e-004
1.251595e+003,-7.931565e-005
1.253523e+003,-8.494737e-005
1.255452e+003,-3.479060e-006
1.257380e+003,-1.038297e-004
1.259309e+003,-2.189939e-004
1.261237e+003,-1.122436e-004
1.263166e+003,3.760876e-005
1.265094e+003,2.000763e-004
1.267023e+003,2.559365e-004
1.268951e+003,1.248007e-004
1.270880e+003,-1.703056e-005
1.272808e+003,-1.057510e-004
1.274737e+003,-2.915786e-006
1.276665e+003,1.677900e-004
1.278594e+003,2.716847e-004
1.280522e+003,2.544777e-004
1.282451e+003,1.184041e-004
1.284379e+003,2.064300e-005
1.286308e+003,-6.450719e-005
1.288236e+003,5.875063e-005
1.290165e+003,1.556253e-004
1.292093e+003,2.155904e-004
1.294022e+003,3.019892e-004
1.295950e+003,2.168170e-004
1.297879e+003,1.517804e-004
1.299807e+003,1.132006e-004
1.301736e+003,-5.519780e-005
1.303664e+003,7.160856e-005
1.305593e+003,1.492945e-004
1.307521e+003,9.116131e-005
1.309450e+003,1.236076e-004
1.311378e+003,5.994361e-005
1.313307e+003,-8.681031e-006
1.315235e+003,9.407772e-005
1.317164e+003,4.784819e-005
1.319092e+003,-2.349140e-005
1.321021e+003,5.126138e-005
1.322949e+003,3.535546e-005
1.324878e+003,4.271188e-005
1.326806e+003,9.924779e-005
1.328735e+003,7.359694e-005
1.330663e+003,1.646411e-004
1.332592e+003,1.204258e-004
1.334520e+003,-3.425925e-005
1.336449e+003,-1.823977e-004
1.338377e+003,-3.708766e-004
1.340306e+003,-2.511166e-004
1.342234e+003,9.741517e-006
1.344163e+003,-2.180165e-005
1.346091e+003,-9.607809e-005
1.348020e+003,-7.269000e-005
1.349948e+003,-4.970077e-006
1.351877e+003,9.308349e-005
1.353805e+003,1.104498e-004
1.355734e+003,6.150113e-005
1.357662e+003,6.680336e-005
1.359591e+003,5.732227e-006
1.361519e+003,-2.573421e-004
1.363448e+003,-3.041965e-004
1.365376e+003,4.625758e-005
1.367305e+003,1.332193e-004
1.369233e+003,8.108656e-005
1.371162e+003,-5.542971e-005
1.373090e+003,-3.108186e-004
1.375019e+003,-3.114477e-004
1.376947e+003,-8.514614e-005
1.378876e+003,3.280282e-006
1.380804e+003,1.023300e-004
1.382733e+003,7.190682e-005
1.384661e+003,-4.406805e-006
1.386590e+003,-3.725981e-004
1.388518e+003,-3.368425e-004
1.390447e+003,-2.080768e-005
1.392375e+003,-1.168812e-004
1.394304e+003,-5.275048e-004
1.396232e+003,-4.524084e-004
1.398161e+003,-4.855398e-004
1.400089e+003,-4.171891e-004
1.402018e+003,-4.399977e-005
1.403946e+003,-5.993534e-005
1.405875e+003,-4.197880e-005
1.407803e+003,1.540343e-004
1.409732e+003,4.682092e-005
1.411660e+003,-2.899132e-005
1.413589e+003,-1.225942e-005
1.415517e+003,-2.289290e-004
1.417446e+003,-7.700478e-004
1.419374e+003,-9.364180e-004
1.421303e+003,-2.846606e-004
1.423231e+003,-1.828283e-004
1.425160e+003,-1.838550e-004
1.427088e+003,-2.919011e-005
1.429017e+003,-1.470240e-004
1.430945e+003,-1.820003e-004
1.432874e+003,-1.089642e-004
1.434802e+003,-5.616231e-004
1.436731e+003,-1.070367e-003
1.438659e+003,-2.276706e-004
1.440588e+003,7.366321e-005
1.442516e+003,-6.053167e-005
1.444445e+003,-1.784233e-004
1.446373e+003,-3.712076e-004
1.448302e+003,-3.794840e-004
1.450230e+003,-1.454010e-004
1.452159e+003,-1.879950e-004
1.454087e+003,-6.458983e-004
1.456016e+003,-1.915523e-003
1.457944e+003,-1.839643e-003
1.459873e+003,-6.021580e-004
1.461801e+003,-1.845174e-004
1.463730e+003,-4.964616e-004
1.465658e+003,-4.417171e-004
1.467587e+003,-7.365072e-005
1.469515e+003,-3.718366e-004
1.471444e+003,-1.358489e-003
1.473372e+003,-1.571418e-003
1.475301e+003,-1.048883e-003
1.477229e+003,-5.977242e-004
1.479158e+003,-2.084956e-004
1.481086e+003,-8.869077e-005
1.483015e+003,-1.139796e-005
1.484943e+003,-1.516612e-004
1.486872e+003,-4.940787e-004
1.488800e+003,-8.297777e-004
1.490729e+003,-6.493391e-004
1.492657e+003,-2.110788e-004
1.494586e+003,-5.050666e-004
1.496514e+003,-1.023662e-003
1.498443e+003,-7.588351e-004
1.500371e+003,-3.738892e-004
1.502300e+003,-2.157153e-004
1.504228e+003,-1.144299e-003
1.506157e+003,-2.771284e-003
1.508085e+003,-2.076772e-003
1.510014e+003,-9.206137e-004
1.511942e+003,-6.786510e-004
1.513871e+003,-6.394137e-004
1.515799e+003,-1.036124e-003
1.517728e+003,-1.141887e-003
1.519656e+003,-1.478836e-003
1.521585e+003,-2.103152e-003
1.523513e+003,-1.366945e-003
1.525442e+003,-1.016488e-003
1.527370e+003,-7.681294e-004
1.529299e+003,-4.421805e-004
1.531227e+003,-6.637637e-004
1.533156e+003,-1.253241e-003
1.535084e+003,-7.811610e-004
1.537013e+003,-9.940093e-004
1.538941e+003,-2.506895e-003
1.540870e+003,-2.828237e-003
1.542798e+003,-1.862078e-003
1.544727e+003,-1.117200e-003
1.546655e+003,-4.398304e-004
1.548584e+003,-3.334986e-004
1.550512e+003,-3.727967e-004
1.552441e+003,-5.691679e-004
1.554369e+003,-1.059559e-003
1.556298e+003,-1.639092e-003
1.558226e+003,-3.398940e-003
1.560155e+003,-2.655379e-003
1.562083e+003,-6.382557e-004
1.564012e+003,-3.293600e-004
1.565940e+003,-4.519450e-004
1.567869e+003,-7.240045e-004
1.569797e+003,-1.036983e-003
1.571726e+003,-4.265900e-004
1.573654e+003,-4.917620e-004
1.575583e+003,-1.404928e-003
1.577511e+003,-9.914968e-004
1.579440e+003,-1.951819e-004
1.581368e+003,-7.242497e-005
1.583297e+003,4.208043e-006
1.585225e+003,1.888644e-006
1.587154e+003,6.431793e-005
1.589082e+003,5.258690e-005
1.591010e+003,-4.409917e-005
1.592939e+003,-1.810067e-004
1.594868e+003,-1.695138e-004
1.596796e+003,-4.777666e-005
1.598724e+003,5.590072e-005
1.600653e+003,-4.668335e-005
1.602582e+003,-1.245992e-004
1.604510e+003,-1.080367e-004
1.606438e+003,-1.187362e-004
1.608367e+003,-9.899322e-005
1.610296e+003,-6.719063e-005
1.612224e+003,-1.050885e-004
1.614152e+003,-5.329321e-004
1.616081e+003,-1.322451e-003
1.618010e+003,-8.506450e-004
1.619938e+003,-2.151192e-004
1.621866e+003,-5.737675e-004
1.623795e+003,-7.847661e-004
1.625724e+003,-4.927549e-004
1.627652e+003,-3.754451e-004
1.629580e+003,-1.392400e-004
1.631509e+003,-1.663673e-004
1.633438e+003,-9.413443e-004
1.635366e+003,-1.955568e-003
1.637294e+003,-1.142911e-003
1.639223e+003,-2.911175e-004
1.641151e+003,-1.654399e-004
1.643080e+003,-2.978391e-004
1.645008e+003,-1.059658e-003
1.646937e+003,-1.599248e-003
1.648865e+003,-9.678925e-004
1.650794e+003,-1.424281e-003
1.652722e+003,-3.149704e-003
1.654651e+003,-1.894179e-003
1.656579e+003,-3.536612e-004
1.658508e+003,-3.167499e-005
1.660436e+003,-3.395905e-004
1.662365e+003,-8.551423e-004
1.664293e+003,-5.477577e-004
1.666222e+003,-3.127390e-004
1.668150e+003,-9.072226e-004
1.670079e+003,-1.190166e-003
1.672007e+003,-7.820870e-004
1.673936e+003,-9.537425e-004
1.675864e+003,-1.016753e-003
1.677793e+003,-4.771331e-004
1.679721e+003,-5.105935e-004
1.681650e+003,-1.022835e-003
1.683578e+003,-2.308729e-003
1.685507e+003,-1.705535e-003
1.687435e+003,-6.026212e-004
1.689364e+003,-3.820662e-004
1.691292e+003,-1.718985e-004
1.693221e+003,-5.261479e-004
1.695149e+003,-1.663452e-003
1.697078e+003,-1.660548e-003
1.699006e+003,-2.285723e-003
1.700935e+003,-2.477311e-003
1.702863e+003,-1.051758e-003
1.704792e+003,-9.589992e-004
1.706720e+003,-7.547998e-004
1.708649e+003,-4.232798e-004
1.710577e+003,-3.064480e-004
1.712506e+003,-5.163189e-004
1.714434e+003,-1.087984e-003
1.716363e+003,-1.857624e-003
1.718291e+003,-1.681144e-003
1.720220e+003,-4.481054e-004
1.722148e+003,-7.050351e-005
1.724077e+003,-1.614322e-004
1.726005e+003,-1.787876e-004
1.727934e+003,-2.837335e-004
1.729862e+003,-4.753789e-004
1.731791e+003,-9.992986e-004
1.733719e+003,-1.961803e-003
1.735648e+003,-1.211313e-003
1.737576e+003,-5.658588e-004
1.739505e+003,-8.881107e-004
1.741433e+003,-6.495707e-004
1.743362e+003,-5.314098e-004
1.745290e+003,-4.418495e-004
1.747219e+003,-6.313077e-004
1.749147e+003,-9.504694e-004
1.751076e+003,-1.034669e-003
1.753004e+003,-4.813033e-004
1.754933e+003,-3.686254e-004
1.756861e+003,-4.963293e-004
1.758790e+003,-3.401533e-004
1.760718e+003,-6.639292e-004
1.762647e+003,-5.942829e-004
1.764575e+003,-1.408962e-004
1.766504e+003,-4.035838e-004
1.768432e+003,-6.484789e-004
1.770361e+003,-9.233580e-004
1.772289e+003,-1.305736e-003
1.774218e+003,-7.334650e-004
1.776146e+003,-2.868129e-004
1.778075e+003,-1.994211e-004
1.780003e+003,-3.163149e-004
1.781932e+003,-3.062162e-004
1.783860e+003,-2.836010e-004
1.785789e+003,-1.889223e-004
1.787717e+003,-1.364908e-004
1.789646e+003,-5.288947e-004
1.791574e+003,-1.037578e-003
1.793503e+003,-7.827486e-004
1.795431e+003,-3.111828e-004
1.797360e+003,-3.065473e-004
1.799288e+003,-5.750580e-004
1.801217e+003,-6.652194e-004
1.803145e+003,-3.488607e-004
1.805074e+003,-1.849480e-004
1.807002e+003,-1.189018e-004
1.808931e+003,-2.069722e-004
1.810859e+003,-2.376055e-004
1.812788e+003,-1.255267e-004
1.814716e+003,-1.276467e-004
1.816645e+003,-1.980964e-004
1.818573e+003,-2.003485e-004
1.820502e+003,-1.613328e-004
1.822430e+003,-1.159537e-004
1.824359e+003,-3.627656e-004
1.826287e+003,-3.978238e-004
1.828216e+003,-5.358774e-004
1.830144e+003,-6.365352e-004
1.832073e+003,-2.825745e-004
1.834001e+003,-1.832257e-004
1.835930e+003,-1.920356e-004
1.837858e+003,-9.028088e-005
1.839787e+003,-9.675032e-006
1.841715e+003,-2.839653e-004
1.843644e+003,-9.573461e-004
1.845572e+003,-7.844022e-004
1.847501e+003,-3.438945e-004
1.849429e+003,-1.779596e-004
1.851358e+003,-1.286735e-004
1.853286e+003,-1.767673e-004
1.855215e+003,-1.636844e-004
1.857143e+003,-1.368551e-004
1.859072e+003,-1.512968e-004
1.861000e+003,-1.276467e-004
1.862929e+003,-1.223136e-004
1.864857e+003,-2.198218e-004
1.866786e+003,-5.191320e-004
1.868714e+003,-7.975326e-004
1.870643e+003,-5.281005e-004
1.872571e+003,-2.329692e-004
1.874500e+003,-1.337747e-004
1.876428e+003,-1.079704e-004
1.878357e+003,-8.607371e-005
1.880285e+003,-2.372332e-005
1.882214e+003,-4.949943e-005
1.884142e+003,-1.807086e-004
1.886071e+003,-2.106152e-004
1.887999e+003,-3.082360e-004
1.889928e+003,-4.199696e-004
1.891856e+003,-1.880612e-004
1.893785e+003,-1.271498e-004
1.895713e+003,-1.222805e-004
1.897642e+003,-1.070429e-004
1.899570e+003,-1.122436e-004
1.901499e+003,-7.345196e-005
1.903427e+003,-7.129860e-005
1.905356e+003,-1.826627e-004
1.907284e+003,-2.220407e-004
1.909213e+003,-1.621608e-004
1.911141e+003,-1.118792e-004
1.913070e+003,-1.285411e-004
1.914998e+003,-2.188946e-004
1.916927e+003,-5.207867e-004
1.918855e+003,-5.274386e-004
1.920784e+003,-2.980047e-004
1.922712e+003,-2.864487e-004
1.924641e+003,-2.256173e-004
1.926569e+003,-1.930291e-004
1.928498e+003,-1.031009e-004
1.930426e+003,-8.928706e-005
1.932355e+003,-2.554546e-004
1.934283e+003,-2.775745e-004
1.936212e+003,-2.014083e-004
1.938140e+003,-2.247232e-004
1.940069e+003,-2.984020e-004
1.941997e+003,-4.692226e-004
1.943926e+003,-3.578658e-004
1.945854e+003,-1.511974e-004
1.947783e+003,-1.432811e-004
1.949711e+003,-1.661686e-004
1.951640e+003,-1.380145e-004
1.953568e+003,-1.186037e-004
1.955497e+003,-1.354308e-004
1.957425e+003,-1.806423e-004
1.959354e+003,-2.507523e-004
1.961282e+003,-2.543287e-004
1.963211e+003,-2.909519e-004
1.965139e+003,-3.349222e-004
1.967068e+003,-3.015145e-004
1.968996e+003,-1.645125e-004
1.970925e+003,-1.654730e-004
1.972853e+003,-1.873326e-004
1.974782e+003,-1.540460e-004
1.976710e+003,-1.520255e-004
1.978639e+003,-1.048234e-004
1.980567e+003,-1.348346e-004
1.982496e+003,-2.433676e-004
1.984424e+003,-2.488978e-004
1.986353e+003,-2.186959e-004
1.988281e+003,-2.327705e-004
1.990210e+003,-2.464804e-004
1.992138e+003,-2.077008e-004
1.994067e+003,-1.597430e-004
1.995995e+003,-1.666322e-004
1.997924e+003,-1.433473e-004
1.999852e+003,-2.361815e-004
2.001781e+003,-2.614151e-004
2.003709e+003,-1.725278e-004
2.005638e+003,-1.244999e-004
2.007566e+003,-1.534166e-004
2.009495e+003,-1.383126e-004
2.011423e+003,-8.184031e-006
2.013352e+003,-3.770490e-005
2.015280e+003,-8.014384e-005
2.017208e+003,-1.240693e-004
2.019137e+003,-1.187362e-004
2.021066e+003,-8.123706e-005
2.022994e+003,-1.078379e-004
2.024922e+003,-1.584843e-004
2.026851e+003,-1.669303e-004
2.028780e+003,-2.791639e-004
2.030708e+003,-2.848593e-004
2.032636e+003,-3.140303e-004
2.034565e+003,-3.623021e-004
2.036494e+003,-3.072095e-004
2.038422e+003,-2.760182e-004
2.040350e+003,-2.694287e-004
2.042279e+003,-2.806209e-004
2.044208e+003,-2.084956e-004
2.046136e+003,-1.818015e-004
2.048064e+003,-2.652564e-004
2.049993e+003,-3.452851e-004
2.051921e+003,-2.932035e-004
2.053850e+003,-2.378373e-004
2.055778e+003,-2.523749e-004
2.057707e+003,-2.803560e-004
2.059635e+003,-2.595608e-004
2.061564e+003,-2.465135e-004
2.063492e+003,-2.668127e-004
2.065421e+003,-2.273725e-004
2.067349e+003,-1.246324e-004
2.069278e+003,-1.021734e-004
2.071206e+003,-1.135355e-004
2.073135e+003,-1.963411e-004
2.075063e+003,-2.185303e-004
2.076992e+003,-1.451029e-004
2.078920e+003,-2.301212e-004
2.080849e+003,-3.232348e-004
2.082777e+003,-3.023091e-004
2.084706e+003,-3.310485e-004
2.086634e+003,-3.807751e-004
2.088563e+003,-3.066467e-004
2.090491e+003,-1.837556e-004
2.092420e+003,-1.715011e-004
2.094348e+003,-2.457850e-004
2.096277e+003,-2.995940e-004
2.098205e+003,-3.131032e-004
2.100134e+003,-1.985600e-004
2.102062e+003,-1.082354e-004
2.103991e+003,-1.281104e-004
2.105919e+003,-1.542116e-004
2.107848e+003,-2.396918e-004
2.109776e+003,-2.894619e-004
2.111705e+003,-2.680048e-004
2.113633e+003,-2.481693e-004
2.115562e+003,-2.123042e-004
2.117490e+003,-2.130327e-004
2.119419e+003,-2.769785e-004
2.121347e+003,-2.685015e-004
2.123276e+003,-2.620443e-004
2.125204e+003,-3.668045e-004
2.127133e+003,-3.786895e-004
2.129061e+003,-3.091631e-004
2.130990e+003,-2.698592e-004
2.132918e+003,-3.044282e-004
2.134847e+003,-3.333992e-004
2.136775e+003,-3.301877e-004
2.138704e+003,-2.923095e-004
2.140632e+003,-2.590309e-004
2.142561e+003,-2.230342e-004
2.144489e+003,-2.351218e-004
2.146418e+003,-3.166129e-004
2.148346e+003,-2.981703e-004
2.150275e+003,-1.947182e-004
2.152203e+003,-2.223056e-004
2.154132e+003,-3.350878e-004
2.156060e+003,-3.974928e-004
2.157989e+003,-3.277376e-004
2.159917e+003,-3.738561e-004
2.161846e+003,-3.712407e-004
2.163774e+003,-2.082969e-004
2.165703e+003,-2.490965e-004
2.167631e+003,-3.034349e-004
2.169560e+003,-2.972762e-004
2.171488e+003,-3.327702e-004
2.173417e+003,-3.456493e-004
2.175345e+003,-3.604481e-004
2.177274e+003,-4.253983e-004
2.179202e+003,-4.852088e-004
2.181131e+003,-4.553543e-004
2.183059e+003,-3.943810e-004
2.184988e+003,-3.180366e-004
2.186916e+003,-3.443580e-004
2.188845e+003,-4.011342e-004
2.190773e+003,-3.244929e-004
2.192702e+003,-2.144899e-004
2.194630e+003,-2.044552e-004
2.196559e+003,-3.342601e-004
2.198487e+003,-3.287971e-004
2.200416e+003,-3.073089e-004
2.202344e+003,-3.438283e-004
2.204273e+003,-3.435635e-004
2.206201e+003,-4.488336e-004
2.208130e+003,-4.705135e-004
2.210058e+003,-4.539972e-004
2.211987e+003,-4.236439e-004
2.213915e+003,-3.631960e-004
2.215844e+003,-3.685592e-004
2.217772e+003,-4.263914e-004
2.219701e+003,-3.936527e-004
2.221629e+003,-4.119258e-004
2.223558e+003,-4.227833e-004
2.225486e+003,-3.673342e-004
2.227415e+003,-3.696517e-004
2.229343e+003,-3.932224e-004
2.231272e+003,-4.250011e-004
2.233200e+003,-4.619741e-004
2.235129e+003,-4.877242e-004
2.237057e+003,-5.103618e-004
2.238986e+003,-4.299663e-004
2.240914e+003,-4.041135e-004
2.242843e+003,-3.793185e-004
2.244771e+003,-3.107192e-004
2.246700e+003,-3.925603e-004
2.248628e+003,-4.397311e-004
2.250557e+003,-3.890844e-004
2.252485e+003,-3.722008e-004
2.254414e+003,-4.336736e-004
2.256342e+003,-4.626360e-004
2.258271e+003,-5.010620e-004
2.260199e+003,-4.609811e-004
2.262128e+003,-4.067948e-004
2.264056e+003,-4.647544e-004
2.265985e+003,-5.014922e-004
2.267913e+003,-3.583293e-004
2.269842e+003,-3.018787e-004
2.271770e+003,-3.369419e-004
2.273699e+003,-3.420736e-004
2.275627e+003,-3.968638e-004
2.277556e+003,-4.284106e-004
2.279484e+003,-4.911000e-004
2.281413e+003,-4.808069e-004
2.283341e+003,-3.971618e-004
2.285270e+003,-4.684283e-004
2.287198e+003,-5.143663e-004
2.289127e+003,-4.192414e-004
2.291055e+003,-2.854884e-004
2.292984e+003,-3.190961e-004
2.294912e+003,-4.334750e-004
2.296841e+003,-4.131506e-004
2.298769e+003,-4.116941e-004
2.300698e+003,-5.353479e-004
2.302626e+003,-6.544672e-004
2.304555e+003,-5.753227e-004
2.306483e+003,-5.253868e-004
2.308412e+003,-6.218450e-004
2.310340e+003,-6.095035e-004
2.312269e+003,-7.343250e-004
2.314197e+003,-9.372446e-004
2.316125e+003,-9.889184e-004
2.318054e+003,-1.166242e-003
2.319983e+003,-1.381544e-003
2.321911e+003,-1.483228e-003
2.323840e+003,-1.640182e-003
2.325768e+003,-1.712433e-003
2.327697e+003,-1.705700e-003
2.329625e+003,-1.808958e-003
2.331553e+003,-1.954909e-003
2.333482e+003,-2.028295e-003
2.335411e+003,-1.944815e-003
2.337339e+003,-1.898104e-003
2.339268e+003,-2.010452e-003
2.341196e+003,-2.002108e-003
2.343125e+003,-1.856668e-003
2.345053e+003,-1.631203e-003
2.346981e+003,-1.232757e-003
2.348910e+003,-1.048453e-003
2.350839e+003,-1.357003e-003
2.352767e+003,-1.823872e-003
2.354696e+003,-2.253421e-003
2.356624e+003,-2.427725e-003
2.358552e+003,-2.523103e-003
2.360481e+003,-2.598468e-003
2.362409e+003,-2.651097e-003
2.364338e+003,-2.588521e-003
2.366267e+003,-2.424892e-003
2.368195e+003,-2.225798e-003
2.370124e+003,-1.936865e-003
2.372052e+003,-1.625558e-003
2.373980e+003,-1.338836e-003
2.375909e+003,-1.070863e-003
2.377838e+003,-7.806318e-004
2.379766e+003,-5.920660e-004
2.381695e+003,-4.703149e-004
2.383623e+003,-3.973273e-004
2.385552e+003,-3.891505e-004
2.387480e+003,-3.739554e-004
2.389408e+003,-4.184138e-004
2.391337e+003,-5.049011e-004
2.393266e+003,-5.151275e-004
2.395194e+003,-4.352956e-004
2.397123e+003,-4.278478e-004
2.399051e+003,-4.663762e-004
2.400979e+003,-3.900444e-004
2.402908e+003,-3.395905e-004
2.404836e+003,-3.965328e-004
2.406765e+003,-4.141767e-004
2.408694e+003,-4.037493e-004
2.410622e+003,-3.766700e-004
2.412551e+003,-4.003728e-004
2.414479e+003,-4.729296e-004
2.416407e+003,-4.397973e-004
2.418336e+003,-3.909051e-004
2.420264e+003,-4.080196e-004
2.422193e+003,-3.931893e-004
2.424122e+003,-3.937189e-004
2.426050e+003,-4.091120e-004
2.427979e+003,-3.925603e-004
2.429907e+003,-4.364210e-004
2.431835e+003,-4.468145e-004
2.433764e+003,-4.671374e-004
2.435692e+003,-4.771661e-004
2.437621e+003,-4.936816e-004
2.439550e+003,-4.165270e-004
2.441478e+003,-2.916804e-004
2.443406e+003,-3.433317e-004
2.445335e+003,-4.722015e-004
2.447263e+003,-4.493963e-004
2.449192e+003,-4.081852e-004
2.451121e+003,-4.220882e-004
2.453049e+003,-4.381754e-004
2.454978e+003,-4.816343e-004
2.456906e+003,-5.053975e-004
2.458834e+003,-4.551556e-004
2.460763e+003,-4.287085e-004
2.462691e+003,-4.083507e-004
2.464620e+003,-3.745182e-004
2.466549e+003,-4.383409e-004
2.468477e+003,-5.680759e-004
2.470406e+003,-5.049011e-004
2.472334e+003,-4.671374e-004
2.474262e+003,-5.192643e-004
2.476191e+003,-5.189003e-004
2.478119e+003,-5.399148e-004
2.480048e+003,-5.660243e-004
2.481977e+003,-5.385579e-004
2.483905e+003,-5.395507e-004
2.485833e+003,-5.056292e-004
2.487762e+003,-4.292712e-004
2.489690e+003,-3.849463e-004
2.491619e+003,-4.617755e-004
2.493547e+003,-5.543761e-004
2.495476e+003,-6.227714e-004
2.497405e+003,-6.529122e-004
2.499333e+003,-5.276371e-004
2.501261e+003,-4.591937e-004
2.503190e+003,-5.436873e-004
2.505118e+003,-5.719144e-004
2.507047e+003,-5.805509e-004
2.508975e+003,-5.387234e-004
2.510904e+003,-4.665748e-004
2.512833e+003,-4.603853e-004
2.514761e+003,-5.126454e-004
2.516689e+003,-5.292918e-004
2.518618e+003,-5.032794e-004
2.520546e+003,-4.973552e-004
2.522475e+003,-5.028161e-004
2.524403e+003,-5.110568e-004
2.526332e+003,-5.110568e-004
2.528260e+003,-5.297551e-004
2.530189e+003,-4.559169e-004
2.532117e+003,-4.656480e-004
2.534046e+003,-5.541114e-004
2.535974e+003,-5.766794e-004
2.537903e+003,-6.234000e-004
2.539831e+003,-6.029190e-004
2.541760e+003,-5.925954e-004
2.543688e+003,-5.447132e-004
2.545617e+003,-5.423967e-004
2.547545e+003,-5.392198e-004
2.549474e+003,-5.245594e-004
2.551402e+003,-5.289278e-004
2.553331e+003,-6.045403e-004
2.555259e+003,-6.161210e-004
2.557188e+003,-5.398155e-004
2.559116e+003,-5.472613e-004
2.561045e+003,-5.605312e-004
2.562973e+003,-5.310127e-004
2.564902e+003,-6.190988e-004
2.566830e+003,-6.201576e-004
2.568759e+003,-6.145990e-004
2.570687e+003,-5.619872e-004
2.572616e+003,-5.436873e-004
2.574544e+003,-6.405716e-004
2.576473e+003,-6.677668e-004
2.578401e+003,-6.394798e-004
2.580330e+003,-6.754751e-004
2.582258e+003,-5.994778e-004
2.584187e+003,-5.835290e-004
2.586115e+003,-6.180400e-004
2.588044e+003,-6.026212e-004
2.589972e+003,-6.300835e-004
2.591901e+003,-6.068234e-004
2.593829e+003,-5.351494e-004
2.595758e+003,-5.505044e-004
2.597686e+003,-5.483203e-004
2.599615e+003,-5.208859e-004
2.601543e+003,-5.564940e-004
2.603472e+003,-5.723115e-004
2.605400e+003,-5.828341e-004
2.607329e+003,-6.018933e-004
2.609257e+003,-5.752234e-004
2.611186e+003,-5.574867e-004
2.613114e+003,-5.412054e-004
2.615043e+003,-5.969962e-004
2.616971e+003,-6.953242e-004
2.618900e+003,-6.890057e-004
2.620828e+003,-6.512249e-004
2.622757e+003,-7.708085e-004
2.624685e+003,-7.644250e-004
2.626614e+003,-6.645577e-004
2.628542e+003,-7.073655e-004
2.630471e+003,-6.782540e-004
2.632399e+003,-5.611930e-004
2.634328e+003,-4.747500e-004
2.636256e+003,-5.378961e-004
2.638185e+003,-7.047852e-004
2.640113e+003,-6.624404e-004
2.642042e+003,-5.165837e-004
2.643970e+003,-4.254645e-004
2.645899e+003,-3.756438e-004
2.647827e+003,-4.679649e-004
2.649756e+003,-6.595952e-004
2.651684e+003,-7.232768e-004
2.653613e+003,-6.269734e-004
2.655541e+003,-5.757859e-004
2.657470e+003,-5.529200e-004
2.659398e+003,-5.545416e-004
2.661327e+003,-6.474533e-004
2.663255e+003,-6.101322e-004
2.665184e+003,-5.630791e-004
2.667112e+003,-5.614577e-004
2.669041e+003,-6.313738e-004
2.670969e+003,-6.695202e-004
2.672898e+003,-6.296203e-004
2.674826e+003,-6.218119e-004
2.676755e+003,-5.970955e-004
2.678683e+003,-5.551041e-004
2.680612e+003,-5.994778e-004
2.682540e+003,-6.830178e-004
2.684469e+003,-7.082256e-004
2.686397e+003,-6.562868e-004
2.688326e+003,-6.087094e-004
2.690254e+003,-5.487505e-004
2.692183e+003,-5.605973e-004
2.694111e+003,-5.859776e-004
2.696040e+003,-6.231023e-004
2.697968e+003,-5.917682e-004
2.699897e+003,-5.086078e-004
2.701825e+003,-5.707231e-004
2.703754e+003,-5.913380e-004
2.705682e+003,-5.695319e-004
2.707611e+003,-5.864408e-004
2.709539e+003,-6.117204e-004
2.711468e+003,-5.648661e-004
2.713396e+003,-5.479563e-004
2.715325e+003,-5.458053e-004
2.717253e+003,-5.630791e-004
2.719182e+003,-6.665096e-004
2.721110e+003,-6.333921e-004
2.723039e+003,-5.538135e-004
2.724967e+003,-4.697191e-004
2.726896e+003,-4.598557e-004
2.728824e+003,-5.770765e-004
2.730753e+003,-6.537393e-004
2.732681e+003,-5.634432e-004
2.734610e+003,-5.647668e-004
2.736538e+003,-7.264192e-004
2.738467e+003,-7.670379e-004
2.740395e+003,-7.656157e-004
2.742324e+003,-6.809998e-004
2.744252e+003,-5.529862e-004
2.746181e+003,-5.511331e-004
2.748109e+003,-5.945477e-004
2.750038e+003,-6.142019e-004
2.751966e+003,-6.525483e-004
2.753895e+003,-7.266177e-004
2.755823e+003,-5.874666e-004
2.757752e+003,-4.344019e-004
2.759680e+003,-5.347853e-004
2.761609e+003,-6.152276e-004
2.763537e+003,-5.585126e-004
2.765466e+003,-6.134409e-004
2.767394e+003,-7.203658e-004
2.769323e+003,-6.723653e-004
2.771251e+003,-6.849366e-004
2.773180e+003,-7.654834e-004
2.775108e+003,-7.274116e-004
2.777037e+003,-7.064723e-004
2.778965e+003,-6.684285e-004
2.780894e+003,-6.020918e-004
2.782822e+003,-5.274386e-004
2.784750e+003,-4.606170e-004
2.786679e+003,-5.362415e-004
2.788608e+003,-5.639064e-004
2.790536e+003,-5.520928e-004
2.792465e+003,-6.044742e-004
2.794393e+003,-6.925123e-004
2.796322e+003,-7.347550e-004
2.798250e+003,-6.362705e-004
2.800178e+003,-5.731388e-004
2.802107e+003,-5.758521e-004
2.804036e+003,-5.606304e-004
2.805964e+003,-5.857129e-004
2.807893e+003,-6.364690e-004
2.809821e+003,-5.813120e-004
2.811750e+003,-6.193304e-004
2.813678e+003,-6.683292e-004
2.815606e+003,-6.368991e-004
2.817535e+003,-6.707112e-004
2.819464e+003,-6.852674e-004
2.821392e+003,-6.012646e-004
2.823321e+003,-5.633108e-004
2.825249e+003,-5.541776e-004
2.827177e+003,-5.348515e-004
2.829106e+003,-5.570565e-004
2.831034e+003,-5.896505e-004
2.832963e+003,-5.387565e-004
2.834892e+003,-4.647544e-004
2.836820e+003,-4.647544e-004
2.838749e+003,-4.756105e-004
2.840677e+003,-5.447794e-004
2.842605e+003,-7.158670e-004
2.844534e+003,-8.196580e-004
2.846462e+003,-7.945890e-004
2.848391e+003,-7.178849e-004
2.850320e+003,-6.920160e-004
2.852248e+003,-7.143454e-004
2.854177e+003,-7.424621e-004
2.856105e+003,-6.975406e-004
2.858033e+003,-5.826686e-004
2.859962e+003,-5.780692e-004
2.861890e+003,-6.129115e-004
2.863819e+003,-6.231354e-004
2.865748e+003,-5.993786e-004
2.867676e+003,-5.768779e-004
2.869604e+003,-6.086763e-004
2.871533e+003,-7.221190e-004
2.873461e+003,-7.256915e-004
2.875390e+003,-6.201906e-004
2.877319e+003,-5.927940e-004
2.879247e+003,-5.329652e-004
2.881176e+003,-5.761500e-004
2.883104e+003,-6.074851e-004
2.885032e+003,-7.061085e-004
2.886961e+003,-7.972679e-004
2.888889e+003,-6.814630e-004
2.890818e+003,-5.339580e-004
2.892747e+003,-4.477413e-004
2.894675e+003,-5.503058e-004
2.896604e+003,-5.963675e-004
2.898532e+003,-6.376601e-004
2.900460e+003,-7.037928e-004
2.902389e+003,-6.913213e-004
2.904317e+003,-7.310171e-004
2.906246e+003,-7.302563e-004
2.908175e+003,-6.238632e-004
2.910103e+003,-5.689032e-004
2.912031e+003,-6.486774e-004
2.913960e+003,-6.547980e-004
2.915888e+003,-6.736887e-004
2.917817e+003,-6.879140e-004
2.919745e+003,-5.878968e-004
2.921674e+003,-6.032499e-004
2.923603e+003,-6.430530e-004
2.925531e+003,-6.763352e-004
2.927459e+003,-6.954565e-004
2.929388e+003,-7.646565e-004
2.931316e+003,-8.692956e-004
2.933245e+003,-8.370202e-004
2.935173e+003,-7.676333e-004
2.937102e+003,-6.153930e-004
2.939031e+003,-6.057646e-004
2.940959e+003,-7.616797e-004
2.942887e+003,-7.430575e-004
2.944816e+003,-6.727623e-004
2.946744e+003,-5.727417e-004
2.948673e+003,-5.829334e-004
2.950601e+003,-6.199260e-004
2.952530e+003,-7.115336e-004
2.954458e+003,-6.951918e-004
2.956387e+003,-6.092388e-004
2.958315e+003,-6.795442e-004
2.960244e+003,-7.873459e-004
2.962172e+003,-7.140146e-004
2.964101e+003,-5.921653e-004
2.966029e+003,-6.084778e-004
2.967958e+003,-6.271388e-004
2.969886e+003,-6.618780e-004
2.971815e+003,-7.387243e-004
2.973743e+003,-6.205215e-004
2.975672e+003,-5.906763e-004
2.977600e+003,-6.926115e-004
2.979529e+003,-6.160217e-004
2.981457e+003,-5.638071e-004
2.983386e+003,-6.201576e-004
2.985314e+003,-7.647888e-004
2.987243e+003,-8.560352e-004
2.989171e+003,-6.658480e-004
2.991100e+003,-5.727417e-004
2.993028e+003,-6.518535e-004
2.994957e+003,-7.351188e-004
2.996885e+003,-7.216228e-004
2.998814e+003,-6.991946e-004
3.000742e+003,-7.530468e-004
3.002671e+003,-8.252801e-004
3.004599e+003,-7.967057e-004
3.006528e+003,-7.404443e-004
3.008456e+003,-7.341927e-004
3.010385e+003,-8.935005e-004
3.012313e+003,-9.484196e-004
3.014242e+003,-8.044117e-004
3.016170e+003,-7.912486e-004
3.018099e+003,-7.424952e-004
3.020027e+003,-6.670721e-004
3.021956e+003,-7.125260e-004
3.023884e+003,-6.264440e-004
3.025813e+003,-6.050036e-004
3.027741e+003,-7.247653e-004
3.029670e+003,-6.902958e-004
3.031598e+003,-6.543018e-004
3.033527e+003,-6.545665e-004
3.035455e+003,-7.522529e-004
3.037384e+003,-7.388236e-004
3.039312e+003,-6.812976e-004
3.041241e+003,-7.097473e-004
3.043169e+003,-7.294294e-004
3.045098e+003,-7.594966e-004
3.047026e+003,-7.169587e-004
3.048955e+003,-5.935881e-004
3.050883e+003,-6.337560e-004
3.052812e+003,-7.879743e-004
3.054740e+003,-8.357635e-004
3.056669e+003,-7.420983e-004
3.058597e+003,-6.699834e-004
3.060526e+003,-7.467291e-004
3.062454e+003,-7.841046e-004
3.064383e+003,-7.070016e-004
3.066311e+003,-7.703455e-004
3.068240e+003,-7.150400e-004
3.070168e+003,-7.145769e-004
3.072097e+003,-6.353111e-004
3.074025e+003,-6.017279e-004
3.075954e+003,-7.249638e-004
3.077882e+003,-7.354165e-004
3.079811e+003,-5.534496e-004
3.081739e+003,-5.061918e-004
3.083668e+003,-6.908251e-004
3.085596e+003,-8.508103e-004
3.087525e+003,-7.413705e-004
3.089453e+003,-6.667412e-004
3.091382e+003,-6.405055e-004
3.093310e+003,-7.086887e-004
3.095239e+003,-8.719410e-004
3.097167e+003,-8.092734e-004
3.099096e+003,-6.399430e-004
3.101024e+003,-6.722992e-004
3.102953e+003,-7.529806e-004
3.104881e+003,-6.830178e-004
3.106810e+003,-6.527137e-004
3.108738e+003,-6.955226e-004
3.110667e+003,-7.547998e-004
3.112595e+003,-8.229651e-004
3.114524e+003,-6.916852e-004
3.116452e+003,-6.128454e-004
3.118381e+003,-7.237729e-004
3.120309e+003,-7.421313e-004
3.122238e+003,-6.641938e-004
3.124166e+003,-6.636314e-004
3.126095e+003,-5.923969e-004
3.128023e+003,-5.913380e-004
3.129952e+003,-7.212589e-004
3.131880e+003,-7.664426e-004
3.133809e+003,-8.150941e-004
3.135737e+003,-8.081820e-004
3.137666e+003,-6.554928e-004
3.139594e+003,-6.574116e-004
3.141523e+003,-7.127906e-004
3.143451e+003,-5.851834e-004
3.145380e+003,-5.806502e-004
3.147308e+003,-6.822901e-004
3.149237e+003,-7.494414e-004
3.151165e+003,-7.663103e-004
3.153094e+003,-7.290986e-004
3.155022e+003,-7.616797e-004
3.156951e+003,-9.261023e-004
3.158879e+003,-9.075864e-004
3.160808e+003,-7.048183e-004
3.162736e+003,-6.572132e-004
3.164665e+003,-8.401288e-004
3.166593e+003,-9.313594e-004
3.168522e+003,-8.246187e-004
3.170450e+003,-7.525175e-004
3.172379e+003,-5.728409e-004
3.174307e+003,-5.197276e-004
3.176236e+003,-5.738667e-004
3.178164e+003,-5.823047e-004
3.180093e+003,-5.588765e-004
3.182021e+003,-6.747803e-004
3.183950e+003,-8.343415e-004
3.185878e+003,-7.975987e-004
3.187807e+003,-7.323072e-004
3.189735e+003,-7.653511e-004
3.191664e+003,-8.297777e-004
3.193592e+003,-8.674107e-004
3.195521e+003,-7.824509e-004
3.197449e+003,-6.184371e-004
3.199378e+003,-6.136394e-004
3.201306e+003,-7.378974e-004
3.203235e+003,-7.465306e-004
3.205163e+003,-7.087549e-004
3.207092e+003,-6.592313e-004
3.209020e+003,-6.287931e-004
3.210948e+003,-5.713518e-004
3.212877e+003,-6.468247e-004
3.214806e+003,-6.662450e-004
3.216734e+003,-6.229369e-004
3.218663e+003,-7.285032e-004
3.220591e+003,-7.226152e-004
3.222520e+003,-6.822239e-004
3.224448e+003,-6.627050e-004
3.226376e+003,-6.562207e-004
3.228305e+003,-6.264440e-004
3.230234e+003,-5.532841e-004
3.232162e+003,-5.817421e-004
3.234091e+003,-5.609944e-004
3.236019e+003,-5.075818e-004
3.237948e+003,-4.903057e-004
3.239876e+003,-5.300861e-004
3.241804e+003,-6.597606e-004
3.243733e+003,-7.606543e-004
3.245662e+003,-7.661780e-004
3.247590e+003,-7.591990e-004
3.249519e+003,-7.846669e-004
3.251447e+003,-7.558913e-004
3.253375e+003,-6.458322e-004
3.255304e+003,-5.824701e-004
3.257232e+003,-6.089741e-004
3.259161e+003,-7.223506e-004
3.261090e+003,-6.502985e-004
3.263018e+003,-6.954565e-004
3.264947e+003,-7.472583e-004
3.266875e+003,-6.798089e-004
3.268803e+003,-7.316456e-004
3.270732e+003,-6.982684e-004
3.272660e+003,-6.986653e-004
3.274589e+003,-8.352014e-004
3.276518e+003,-7.557921e-004
3.278446e+003,-6.826870e-004
3.280375e+003,-7.307525e-004
3.282303e+003,-7.577436e-004
3.284231e+003,-7.913809e-004
3.286160e+003,-6.891711e-004
3.288088e+003,-7.489452e-004
3.290017e+003,-7.535098e-004
3.291946e+003,-7.997485e-004
3.293874e+003,-7.908848e-004
3.295802e+003,-6.767653e-004
3.297731e+003,-6.294549e-004
3.299659e+003,-6.298519e-004
3.301588e+003,-5.287954e-004
3.303516e+003,-5.240299e-004
3.305445e+003,-7.249307e-004
3.307374e+003,-8.248832e-004
3.309302e+003,-7.653842e-004
3.311230e+003,-7.996492e-004
3.313159e+003,-7.941260e-004
3.315087e+003,-6.643592e-004
3.317016e+003,-6.591320e-004
3.318944e+003,-6.960850e-004
3.320873e+003,-6.227383e-004
3.322802e+003,-5.150282e-004
3.324730e+003,-4.957997e-004
3.326658e+003,-6.320355e-004
3.328587e+003,-7.970365e-004
3.330515e+003,-7.576444e-004
3.332444e+003,-7.497721e-004
3.334372e+003,-8.116546e-004
3.336301e+003,-7.844022e-004
3.338229e+003,-7.343250e-004
3.340158e+003,-6.929754e-004
3.342086e+003,-7.143784e-004
3.344015e+003,-7.198034e-004
3.345943e+003,-6.288262e-004
3.347872e+003,-6.168819e-004
3.349800e+003,-5.982867e-004
3.351729e+003,-5.654617e-004
3.353657e+003,-6.203561e-004
3.355586e+003,-6.757067e-004
3.357514e+003,-7.419660e-004
3.359443e+003,-5.311120e-004
3.361371e+003,-4.427763e-004
3.363300e+003,-5.614577e-004
3.365229e+003,-5.171132e-004
3.367157e+003,-5.745616e-004
3.369085e+003,-6.880132e-004
3.371014e+003,-6.403069e-004
3.372942e+003,-5.693333e-004
3.374871e+003,-6.702480e-004
3.376799e+003,-7.335641e-004
3.378728e+003,-6.820916e-004
3.380656e+003,-7.357142e-004
3.382585e+003,-7.941921e-004
3.384513e+003,-7.512275e-004
3.386442e+003,-5.969962e-004
3.388370e+003,-5.044378e-004
3.390299e+003,-7.389889e-004
3.392227e+003,-9.805544e-004
3.394156e+003,-8.686011e-004
3.396084e+003,-8.854324e-004
3.398013e+003,-9.221677e-004
3.399941e+003,-8.609293e-004
3.401870e+003,-9.590653e-004
3.403798e+003,-1.003828e-003
3.405727e+003,-9.109920e-004
3.407655e+003,-8.183682e-004
3.409584e+003,-6.932070e-004
3.411512e+003,-7.264192e-004
3.413441e+003,-7.873459e-004
3.415369e+003,-7.542706e-004
3.417298e+003,-6.317378e-004
3.419226e+003,-7.559244e-004
3.421155e+003,-8.821257e-004
3.423083e+003,-6.887410e-004
3.425012e+003,-6.084116e-004
3.426940e+003,-7.714039e-004
3.428869e+003,-8.410878e-004
3.430797e+003,-5.921322e-004
3.432726e+003,-6.051028e-004
3.434654e+003,-8.015675e-004
3.436583e+003,-7.305540e-004
3.438511e+003,-6.216465e-004
3.440440e+003,-6.868223e-004
3.442368e+003,-8.303069e-004
3.444297e+003,-9.122816e-004
3.446225e+003,-8.846718e-004
3.448154e+003,-7.553621e-004
3.450082e+003,-7.388236e-004
3.452011e+003,-8.244533e-004
3.453939e+003,-7.602243e-004
3.455868e+003,-7.903556e-004
3.457796e+003,-9.216056e-004
3.459725e+003,-9.206137e-004
3.461653e+003,-8.824233e-004
3.463582e+003,-7.617789e-004
3.465510e+003,-6.972098e-004
3.467439e+003,-6.520851e-004
3.469367e+003,-6.028859e-004
3.471296e+003,-7.148085e-004
3.473224e+003,-7.907855e-004
3.475153e+003,-8.437334e-004
3.477081e+003,-8.310344e-004
3.479010e+003,-9.520233e-004
3.480938e+003,-1.023364e-003
3.482867e+003,-8.650298e-004
3.484795e+003,-6.989631e-004
3.486724e+003,-5.730395e-004
3.488652e+003,-5.367047e-004
3.490581e+003,-5.959374e-004
3.492509e+003,-7.699816e-004
3.494438e+003,-8.429067e-004
3.496366e+003,-8.448247e-004
3.498295e+003,-7.504668e-004
3.500223e+003,-7.740830e-004
3.502152e+003,-8.247179e-004
3.504080e+003,-6.972760e-004
3.506009e+003,-5.575529e-004
3.507937e+003,-6.331274e-004
3.509866e+003,-6.343516e-004
3.511794e+003,-6.791803e-004
3.513723e+003,-7.174218e-004
3.515651e+003,-7.279409e-004
3.517580e+003,-7.028004e-004
3.519508e+003,-6.457329e-004
3.521437e+003,-7.919100e-004
3.523365e+003,-7.028004e-004
3.525294e+003,-5.855474e-004
3.527222e+003,-8.423775e-004
3.529151e+003,-9.639583e-004
3.531079e+003,-7.347550e-004
3.533008e+003,-6.292894e-004
3.534936e+003,-5.997756e-004
3.536865e+003,-4.675015e-004
3.538793e+003,-4.720691e-004
3.540722e+003,-7.762329e-004
3.542650e+003,-8.784552e-004
3.544579e+003,-9.798602e-004
3.546507e+003,-1.119315e-003
3.548436e+003,-7.810618e-004
3.550364e+003,-6.599922e-004
3.552293e+003,-8.110924e-004
3.554221e+003,-7.417344e-004
3.556150e+003,-5.846871e-004
3.558078e+003,-5.705577e-004
3.560007e+003,-6.771293e-004
3.561935e+003,-8.380123e-004
3.563864e+003,-1.022075e-003
3.565792e+003,-1.454003e-003
3.567721e+003,-1.340223e-003
3.569649e+003,-8.798441e-004
3.571578e+003,-7.252284e-004
3.573506e+003,-7.770266e-004
3.575435e+003,-6.796435e-004
3.577363e+003,-7.357142e-004
3.579292e+003,-1.019265e-003
3.581220e+003,-9.048751e-004
3.583149e+003,-7.554283e-004
3.585077e+003,-1.063195e-003
3.587006e+003,-1.493431e-003
3.588934e+003,-1.399776e-003
3.590863e+003,-1.034834e-003
3.592791e+003,-1.003993e-003
3.594720e+003,-9.832322e-004
3.596648e+003,-9.441215e-004
3.598577e+003,-8.808691e-004
3.600505e+003,-7.131876e-004
3.602434e+003,-5.948786e-004
3.604362e+003,-6.721007e-004
3.606291e+003,-1.112441e-003
3.608219e+003,-1.398124e-003
3.610148e+003,-1.128205e-003
3.612076e+003,-1.206820e-003
3.614005e+003,-1.299757e-003
3.615933e+003,-1.298733e-003
3.617862e+003,-1.512219e-003
3.619790e+003,-1.427683e-003
3.621719e+003,-1.049279e-003
3.623647e+003,-8.189966e-004
3.625576e+003,-1.077011e-003
3.627504e+003,-2.185216e-003
3.629433e+003,-2.417676e-003
3.631361e+003,-1.517436e-003
3.633290e+003,-1.320668e-003
3.635218e+003,-1.046503e-003
3.637146e+003,-7.360450e-004
3.639075e+003,-7.839392e-004
3.641004e+003,-8.772318e-004
3.642932e+003,-8.869864e-004
3.644861e+003,-1.152297e-003
3.646789e+003,-2.011475e-003
3.648718e+003,-2.508279e-003
3.650646e+003,-1.949862e-003
3.652574e+003,-1.112772e-003
3.654503e+003,-1.135905e-003
3.656432e+003,-1.093338e-003
3.658360e+003,-6.651201e-004
3.660289e+003,-7.029658e-004
3.662217e+003,-7.220859e-004
3.664146e+003,-7.243684e-004
3.666074e+003,-9.166460e-004
3.668002e+003,-1.510106e-003
3.669931e+003,-2.057876e-003
3.671860e+003,-1.640875e-003
3.673788e+003,-2.013651e-003
3.675717e+003,-2.232094e-003
3.677645e+003,-1.224398e-003
3.679573e+003,-8.599042e-004
3.681502e+003,-6.317378e-004
3.683430e+003,-7.169255e-004
3.685359e+003,-8.532904e-004
3.687288e+003,-1.487553e-003
3.689216e+003,-1.757711e-003
3.691145e+003,-1.455919e-003
3.693073e+003,-1.036950e-003
3.695001e+003,-6.988308e-004
3.696930e+003,-8.395997e-004
3.698858e+003,-1.001447e-003
3.700787e+003,-1.360934e-003
3.702716e+003,-1.198195e-003
3.704644e+003,-7.975987e-004
3.706573e+003,-8.837129e-004
3.708501e+003,-1.384715e-003
3.710429e+003,-2.038221e-003
3.712358e+003,-1.996138e-003
3.714286e+003,-1.138153e-003
3.716215e+003,-6.819592e-004
3.718144e+003,-7.054469e-004
3.720072e+003,-8.813982e-004
3.722000e+003,-1.059063e-003
3.723929e+003,-1.258098e-003
3.725857e+003,-1.334343e-003
3.727786e+003,-9.746037e-004
3.729714e+003,-8.954183e-004
3.731643e+003,-1.498021e-003
3.733572e+003,-1.800015e-003
3.735500e+003,-2.132102e-003
3.737428e+003,-1.544709e-003
3.739357e+003,-1.008026e-003
3.741285e+003,-1.413977e-003
3.743214e+003,-2.830048e-003
3.745142e+003,-2.678595e-003
3.747071e+003,-1.660878e-003
3.749000e+003,-2.226029e-003
3.750928e+003,-2.493092e-003
3.752856e+003,-1.973710e-003
3.754785e+003,-1.030008e-003
3.756713e+003,-9.966540e-004
3.758642e+003,-1.223109e-003
3.760570e+003,-1.204771e-003
3.762499e+003,-8.229982e-004
3.764427e+003,-1.021910e-003
3.766356e+003,-1.125628e-003
3.768284e+003,-1.196312e-003
3.770213e+003,-1.090231e-003
3.772141e+003,-6.135732e-004
3.774070e+003,-5.324026e-004
3.775998e+003,-7.170578e-004
3.777927e+003,-1.049180e-003
3.779855e+003,-9.376744e-004
3.781784e+003,-4.875587e-004
3.783712e+003,-7.168263e-004
3.785641e+003,-7.644250e-004
3.787569e+003,-5.400141e-004
3.789498e+003,-4.638938e-004
3.791426e+003,-4.609480e-004
3.793355e+003,-5.537473e-004
3.795283e+003,-8.272644e-004
3.797212e+003,-8.987579e-004
3.799140e+003,-1.143738e-003
3.801069e+003,-1.797640e-003
3.802997e+003,-1.350859e-003
3.804926e+003,-1.091950e-003
3.806854e+003,-1.469689e-003
3.808783e+003,-1.011166e-003
3.810711e+003,-6.569154e-004
3.812640e+003,-6.765999e-004
3.814568e+003,-1.574521e-003
3.816497e+003,-1.951346e-003
3.818425e+003,-1.538733e-003
3.820354e+003,-2.053655e-003
3.822282e+003,-1.583831e-003
3.824211e+003,-9.132735e-004
3.826139e+003,-1.008026e-003
3.828068e+003,-9.392283e-004
3.829996e+003,-1.004654e-003
3.831925e+003,-1.173380e-003
3.833853e+003,-1.404201e-003
3.835782e+003,-1.820968e-003
3.837710e+003,-2.191447e-003
3.839639e+003,-1.670450e-003
3.841567e+003,-1.203581e-003
3.843496e+003,-1.044784e-003
3.845424e+003,-7.813594e-004
3.847353e+003,-6.455344e-004
3.849281e+003,-1.021976e-003
3.851210e+003,-2.032450e-003
3.853138e+003,-3.252981e-003
3.855067e+003,-2.225040e-003
3.856995e+003,-9.637930e-004
3.858924e+003,-7.363427e-004
3.860852e+003,-1.008290e-003
3.862781e+003,-1.495082e-003
3.864709e+003,-1.622455e-003
3.866638e+003,-1.290375e-003
3.868566e+003,-1.576733e-003
3.870495e+003,-1.775564e-003
3.872423e+003,-1.534771e-003
3.874352e+003,-1.457306e-003
3.876280e+003,-9.976458e-004
3.878209e+003,-1.197865e-003
3.880137e+003,-1.504823e-003
3.882066e+003,-1.250135e-003
3.883994e+003,-1.500233e-003
3.885923e+003,-1.539096e-003
3.887851e+003,-9.687521e-004
3.889780e+003,-1.002803e-003
3.891708e+003,-1.150281e-003
3.893637e+003,-8.792158e-004
3.895565e+003,-8.224360e-004
3.897494e+003,-1.220466e-003
3.899422e+003,-1.547152e-003
3.901351e+003,-1.481808e-003
3.903279e+003,-1.408230e-003
3.905208e+003,-9.875629e-004
3.907136e+003,-6.007021e-004
3.909065e+003,-6.031506e-004
3.910993e+003,-7.450421e-004
3.912922e+003,-8.766365e-004
3.914850e+003,-9.505686e-004
3.916779e+003,-1.125363e-003
3.918707e+003,-1.042173e-003
3.920636e+003,-8.563328e-004
3.922564e+003,-7.239052e-004
3.924493e+003,-7.265846e-004
3.926421e+003,-5.339580e-004
3.928350e+003,-4.201351e-004
3.930278e+003,-7.363427e-004
3.932207e+003,-7.590997e-004
3.934135e+003,-5.208197e-004
3.936064e+003,-3.832910e-004
3.937992e+003,-4.093107e-004
3.939921e+003,-5.063904e-004
3.941849e+003,-6.876493e-004
3.943778e+003,-6.750120e-004
3.945706e+003,-5.795582e-004
3.947635e+003,-6.519859e-004
3.949563e+003,-6.459976e-004
3.951492e+003,-4.936153e-004
3.953420e+003,-3.977907e-004
3.955349e+003,-6.385534e-004
3.957277e+003,-8.183682e-004
3.959206e+003,-5.342228e-004
3.961134e+003,-1.271830e-004
3.963063e+003,-1.846830e-004
3.964991e+003,-4.939794e-004
3.966920e+003,-4.722015e-004
3.968848e+003,-2.421754e-004
3.970777e+003,-3.687247e-004
3.972705e+003,-4.049742e-004
3.974634e+003,-4.312904e-004
3.976562e+003,-5.074163e-004
3.978491e+003,-3.473708e-004
3.980419e+003,-2.347244e-004
3.982348e+003,-5.199924e-004
3.984276e+003,-6.987315e-004
3.986205e+003,-5.995109e-004
3.988133e+003,-3.934541e-004
3.990062e+003,-4.704473e-004
3.991990e+003,-6.562207e-004
3.993919e+003,-6.800736e-004
3.995847e+003,-5.878306e-004
3.997776e+003,-4.356928e-004
3.999704e+003,-4.377119e-004
4.001633e+003,0.000000e+000
