3.991989e+002,-2.032184e-002
4.011274e+002,-2.035614e-002
4.030559e+002,-2.698956e-002
4.049844e+002,-2.934092e-002
4.069129e+002,-2.263249e-002
4.088414e+002,-1.536691e-002
4.107699e+002,-1.815628e-002
4.126984e+002,-2.466879e-002
4.146269e+002,-2.300632e-002
4.165554e+002,-1.455086e-002
4.184839e+002,-1.189172e-002
4.204124e+002,-6.251744e-003
4.223409e+002,-2.005835e-003
4.242694e+002,-5.305520e-003
4.261979e+002,-1.272732e-002
4.281264e+002,-4.388621e-003
4.300549e+002,3.028950e-003
4.319834e+002,-9.117195e-004
4.339119e+002,-3.613040e-003
4.358404e+002,-8.268345e-004
4.377689e+002,-6.813637e-004
4.396974e+002,-7.498856e-003
4.416259e+002,-1.419152e-002
4.435544e+002,-1.030679e-002
4.454829e+002,-6.575877e-003
4.474114e+002,-2.220721e-003
4.493399e+002,-1.563032e-003
4.512684e+002,-3.479281e-003
4.531969e+002,-4.386620e-003
4.551254e+002,-4.177922e-003
4.570539e+002,-4.841300e-003
4.589824e+002,-6.896734e-003
4.609109e+002,-8.227091e-003
4.628394e+002,-5.839995e-003
4.647679e+002,-5.922794e-003
4.666964e+002,-7.134411e-003
4.686249e+002,-6.021329e-003
4.705533e+002,-6.210427e-003
4.724819e+002,-6.981648e-003
4.744103e+002,-6.763494e-003
4.763389e+002,-6.789036e-003
4.782673e+002,-6.393501e-003
4.801959e+002,-6.379526e-003
4.821243e+002,-6.242861e-003
4.840529e+002,-7.532041e-003
4.859813e+002,-8.299880e-003
4.879099e+002,-7.703328e-003
4.898383e+002,-7.494199e-003
4.917668e+002,-1.009804e-002
4.936953e+002,-1.176480e-002
4.956238e+002,-9.886464e-003
4.975523e+002,-8.436647e-003
4.994808e+002,-9.291214e-003
5.014093e+002,-1.024531e-002
5.033378e+002,-9.120519e-003
5.052663e+002,-7.313544e-003
5.071948e+002,-7.412904e-003
5.091233e+002,-9.261569e-003
5.110518e+002,-1.026353e-002
5.129803e+002,-8.830587e-003
5.149088e+002,-8.321301e-003
5.168373e+002,-8.268380e-003
5.187658e+002,-8.099429e-003
5.206943e+002,-1.009273e-002
5.226228e+002,-1.113657e-002
5.245513e+002,-9.987407e-003
5.264798e+002,-1.037571e-002
5.284083e+002,-9.770564e-003
5.303368e+002,-8.452733e-003
5.322653e+002,-8.051587e-003
5.341938e+002,-8.123495e-003
5.361223e+002,-8.824191e-003
5.380508e+002,-9.203441e-003
5.399792e+002,-8.659549e-003
5.419078e+002,-8.030510e-003
5.438363e+002,-7.806862e-003
5.457648e+002,-7.371599e-003
5.476932e+002,-6.849281e-003
5.496218e+002,-7.051092e-003
5.515503e+002,-6.239497e-003
5.534788e+002,-6.747313e-003
5.554072e+002,-6.997853e-003
5.573358e+002,-7.367723e-003
5.592643e+002,-7.860718e-003
5.611927e+002,-7.522793e-003
5.631212e+002,-6.596339e-003
5.650497e+002,-6.408127e-003
5.669783e+002,-6.388505e-003
5.689067e+002,-6.289106e-003
5.708352e+002,-7.144352e-003
5.727637e+002,-7.902205e-003
5.746923e+002,-7.857725e-003
5.766207e+002,-9.411717e-003
5.785492e+002,-1.102901e-002
5.804777e+002,-1.399521e-002
5.824063e+002,-1.238882e-002
5.843347e+002,-8.784839e-003
5.862632e+002,-8.851430e-003
5.881917e+002,-8.933301e-003
5.901202e+002,-8.461929e-003
5.920487e+002,-8.606766e-003
5.939772e+002,-9.446312e-003
5.959057e+002,-8.801821e-003
5.978342e+002,-8.105966e-003
5.997627e+002,-7.834947e-003
6.016912e+002,-8.093055e-003
6.036197e+002,-7.707364e-003
6.055482e+002,-6.100827e-003
6.074767e+002,-4.832125e-003
6.094052e+002,-5.475626e-003
6.113337e+002,-6.929606e-003
6.132622e+002,-7.831595e-003
6.151907e+002,-8.039553e-003
6.171192e+002,-7.516474e-003
6.190477e+002,-7.337751e-003
6.209762e+002,-5.985251e-003
6.229047e+002,-5.929625e-003
6.248332e+002,-7.903767e-003
6.267617e+002,-9.427118e-003
6.286902e+002,-9.396834e-003
6.306187e+002,-8.233951e-003
6.325472e+002,-7.309015e-003
6.344756e+002,-6.475019e-003
6.364042e+002,-5.801842e-003
6.383326e+002,-5.988454e-003
6.402612e+002,-6.444823e-003
6.421896e+002,-6.239660e-003
6.441182e+002,-5.885858e-003
6.460466e+002,-5.806125e-003
6.479752e+002,-5.344174e-003
6.499036e+002,-5.247155e-003
6.518322e+002,-5.220606e-003
6.537606e+002,-4.918229e-003
6.556891e+002,-5.494864e-003
6.576177e+002,-5.945412e-003
6.595461e+002,-5.752798e-003
6.614746e+002,-5.581589e-003
6.634031e+002,-5.464599e-003
6.653317e+002,-5.217037e-003
6.672601e+002,-4.875441e-003
6.691886e+002,-4.924257e-003
6.711171e+002,-5.213894e-003
6.730457e+002,-5.206332e-003
6.749741e+002,-5.131287e-003
6.769026e+002,-4.899194e-003
6.788311e+002,-4.957868e-003
6.807596e+002,-4.921047e-003
6.826881e+002,-5.549499e-003
6.846166e+002,-6.280909e-003
6.865451e+002,-6.176063e-003
6.884736e+002,-5.701589e-003
6.904021e+002,-5.690667e-003
6.923306e+002,-5.762639e-003
6.942591e+002,-5.616098e-003
6.961876e+002,-6.219703e-003
6.981161e+002,-6.764081e-003
7.000446e+002,-6.839660e-003
7.019731e+002,-6.573135e-003
7.039016e+002,-6.551301e-003
7.058301e+002,-7.183560e-003
7.077585e+002,-7.602309e-003
7.096871e+002,-7.638578e-003
7.116156e+002,-7.176488e-003
7.135441e+002,-7.176293e-003
7.154725e+002,-7.950031e-003
7.174011e+002,-8.586301e-003
7.193296e+002,-8.406392e-003
7.212581e+002,-8.123039e-003
7.231865e+002,-8.462806e-003
7.251151e+002,-8.470053e-003
7.270436e+002,-8.468395e-003
7.289720e+002,-8.577822e-003
7.309005e+002,-8.335636e-003
7.328290e+002,-8.177312e-003
7.347576e+002,-7.705476e-003
7.366860e+002,-7.000656e-003
7.386145e+002,-6.861316e-003
7.405430e+002,-7.057612e-003
7.424716e+002,-6.798626e-003
7.444000e+002,-6.551660e-003
7.463285e+002,-6.153752e-003
7.482570e+002,-6.072793e-003
7.501855e+002,-5.694624e-003
7.521140e+002,-4.874262e-003
7.540425e+002,-4.334168e-003
7.559710e+002,-4.209031e-003
7.578995e+002,-3.859942e-003
7.598280e+002,-3.366326e-003
7.617565e+002,-3.419750e-003
7.636850e+002,-3.069006e-003
7.656135e+002,-2.574786e-003
7.675420e+002,-2.200019e-003
7.694705e+002,-2.029878e-003
7.713990e+002,-2.232358e-003
7.733275e+002,-2.374080e-003
7.752560e+002,-2.373817e-003
7.771844e+002,-2.057151e-003
7.791130e+002,-1.873823e-003
7.810415e+002,-2.289613e-003
7.829700e+002,-2.491313e-003
7.848984e+002,-2.203678e-003
7.868270e+002,-2.133652e-003
7.887555e+002,-2.750344e-003
7.906840e+002,-3.370404e-003
7.926124e+002,-3.635351e-003
7.945410e+002,-3.417285e-003
7.964695e+002,-3.647081e-003
7.983979e+002,-4.186126e-003
8.003264e+002,-4.657800e-003
8.022549e+002,-4.804730e-003
8.041835e+002,-4.703559e-003
8.061119e+002,-4.447822e-003
8.080404e+002,-3.961901e-003
8.099689e+002,-4.001069e-003
8.118975e+002,-4.132370e-003
8.138259e+002,-3.905359e-003
8.157545e+002,-3.689301e-003
8.176830e+002,-4.095348e-003
8.196115e+002,-4.707853e-003
8.215399e+002,-5.267091e-003
8.234684e+002,-5.559018e-003
8.253970e+002,-5.621103e-003
8.273254e+002,-6.038288e-003
8.292539e+002,-6.255729e-003
8.311824e+002,-6.366106e-003
8.331110e+002,-6.392717e-003
8.350394e+002,-6.231755e-003
8.369679e+002,-5.668527e-003
8.388964e+002,-5.737135e-003
8.408250e+002,-6.137418e-003
8.427534e+002,-6.132975e-003
8.446819e+002,-5.612566e-003
8.466104e+002,-5.491135e-003
8.485389e+002,-5.606776e-003
8.504674e+002,-5.637620e-003
8.523959e+002,-5.506250e-003
8.543244e+002,-5.521528e-003
8.562529e+002,-5.437638e-003
8.581814e+002,-5.503502e-003
8.601099e+002,-5.319790e-003
8.620384e+002,-5.339789e-003
8.639669e+002,-5.546784e-003
8.658954e+002,-5.405569e-003
8.678239e+002,-5.114717e-003
8.697524e+002,-5.199849e-003
8.716809e+002,-5.419280e-003
8.736094e+002,-5.562420e-003
8.755378e+002,-5.377164e-003
8.774664e+002,-5.182693e-003
8.793949e+002,-5.055869e-003
8.813234e+002,-4.836057e-003
8.832518e+002,-4.728502e-003
8.851804e+002,-4.912201e-003
8.871089e+002,-5.199424e-003
8.890374e+002,-5.193399e-003
8.909658e+002,-4.898638e-003
8.928943e+002,-4.360641e-003
8.948229e+002,-4.125215e-003
8.967513e+002,-4.409580e-003
8.986798e+002,-4.609610e-003
9.006083e+002,-4.723717e-003
9.025369e+002,-4.781529e-003
9.044653e+002,-4.604496e-003
9.063938e+002,-4.783135e-003
9.083223e+002,-5.001041e-003
9.102509e+002,-5.252524e-003
9.121793e+002,-5.460051e-003
9.141078e+002,-5.836660e-003
9.160364e+002,-6.146467e-003
9.179648e+002,-6.119906e-003
9.198933e+002,-6.221630e-003
9.218218e+002,-6.757785e-003
9.237504e+002,-7.098067e-003
9.256788e+002,-7.375769e-003
9.276073e+002,-7.592020e-003
9.295358e+002,-7.235571e-003
9.314644e+002,-7.287837e-003
9.333928e+002,-7.669571e-003
9.353213e+002,-7.731061e-003
9.372498e+002,-7.576000e-003
9.391783e+002,-7.779915e-003
9.411068e+002,-7.901846e-003
9.430353e+002,-7.778483e-003
9.449637e+002,-7.661302e-003
9.468923e+002,-7.874970e-003
9.488208e+002,-7.834165e-003
9.507493e+002,-7.638122e-003
9.526777e+002,-7.478958e-003
9.546063e+002,-7.368211e-003
9.565348e+002,-7.112638e-003
9.584633e+002,-6.787862e-003
9.603917e+002,-6.747313e-003
9.623203e+002,-6.854532e-003
9.642488e+002,-6.561778e-003
9.661772e+002,-6.044562e-003
9.681057e+002,-5.730661e-003
9.700343e+002,-5.914394e-003
9.719628e+002,-6.050084e-003
9.738912e+002,-6.076780e-003
9.758197e+002,-5.874678e-003
9.777483e+002,-5.470554e-003
9.796768e+002,-5.248072e-003
9.816052e+002,-5.234781e-003
9.835337e+002,-5.239822e-003
9.854623e+002,-5.124934e-003
9.873907e+002,-4.906468e-003
9.893192e+002,-4.852670e-003
9.912477e+002,-4.663405e-003
9.931763e+002,-4.547709e-003
9.951047e+002,-4.583415e-003
9.970332e+002,-4.500294e-003
9.989617e+002,-4.381175e-003
1.000890e+003,-4.417058e-003
1.002819e+003,-4.217235e-003
1.004747e+003,-4.089768e-003
1.006676e+003,-4.008719e-003
1.008604e+003,-3.732764e-003
1.010533e+003,-3.692980e-003
1.012461e+003,-3.605417e-003
1.014390e+003,-3.494697e-003
1.016318e+003,-3.254789e-003
1.018247e+003,-2.889989e-003
1.020175e+003,-2.881925e-003
1.022104e+003,-2.697068e-003
1.024032e+003,-2.378134e-003
1.025961e+003,-2.345048e-003
1.027889e+003,-2.192502e-003
1.029818e+003,-1.728637e-003
1.031746e+003,-1.541605e-003
1.033675e+003,-1.468203e-003
1.035603e+003,-1.137029e-003
1.037532e+003,-8.972039e-004
1.039460e+003,-7.769274e-004
1.041389e+003,-6.648224e-004
1.043317e+003,-7.026019e-004
1.045246e+003,-6.127461e-004
1.047174e+003,-4.693550e-004
1.049103e+003,-5.963013e-004
1.051031e+003,-5.720137e-004
1.052960e+003,-3.143945e-004
1.054888e+003,-2.944286e-004
1.056817e+003,-6.880794e-004
1.058745e+003,-8.353005e-004
1.060674e+003,-7.768613e-004
1.062602e+003,-6.030183e-004
1.064531e+003,-3.744189e-004
1.066459e+003,-3.208178e-004
1.068388e+003,-3.570713e-004
1.070316e+003,-3.584617e-004
1.072245e+003,-1.779927e-004
1.074173e+003,1.650106e-005
1.076102e+003,7.916443e-005
1.078030e+003,-4.555691e-005
1.079959e+003,-8.660374e-005
1.081887e+003,2.782162e-004
1.083816e+003,6.666049e-004
1.085744e+003,9.970866e-004
1.087673e+003,1.195962e-003
1.089601e+003,1.248162e-003
1.091530e+003,1.556441e-003
1.093458e+003,1.909099e-003
1.095387e+003,1.952598e-003
1.097315e+003,2.132432e-003
1.099244e+003,2.285126e-003
1.101172e+003,2.578376e-003
1.103101e+003,2.698319e-003
1.105029e+003,2.334060e-003
1.106958e+003,2.283427e-003
1.108886e+003,2.487958e-003
1.110815e+003,2.828533e-003
1.112743e+003,2.942807e-003
1.114672e+003,2.729860e-003
1.116600e+003,2.804388e-003
1.118529e+003,3.072595e-003
1.120457e+003,2.934268e-003
1.122386e+003,2.922092e-003
1.124314e+003,2.940906e-003
1.126243e+003,2.586076e-003
1.128171e+003,2.338990e-003
1.130100e+003,2.097072e-003
1.132028e+003,1.850730e-003
1.133957e+003,1.770776e-003
1.135885e+003,1.511818e-003
1.137814e+003,1.224736e-003
1.139742e+003,8.089253e-004
1.141671e+003,3.853541e-004
1.143599e+003,-5.890833e-005
1.145528e+003,-4.491315e-004
1.147456e+003,-8.987249e-004
1.149385e+003,-1.191719e-003
1.151313e+003,-1.427452e-003
1.153242e+003,-1.683983e-003
1.155170e+003,-1.964738e-003
1.157099e+003,-2.254179e-003
1.159027e+003,-2.663513e-003
1.160956e+003,-2.697530e-003
1.162884e+003,-2.795416e-003
1.164813e+003,-3.008695e-003
1.166741e+003,-3.107597e-003
1.168670e+003,-3.080850e-003
1.170598e+003,-3.121117e-003
1.172526e+003,-3.213153e-003
1.174455e+003,-3.047389e-003
1.176384e+003,-2.956866e-003
1.178312e+003,-3.057129e-003
1.180240e+003,-3.067196e-003
1.182169e+003,-3.121052e-003
1.184098e+003,-3.089667e-003
1.186026e+003,-3.085127e-003
1.187954e+003,-3.230189e-003
1.189883e+003,-3.565851e-003
1.191812e+003,-3.517869e-003
1.193740e+003,-3.259887e-003
1.195668e+003,-3.325325e-003
1.197597e+003,-3.455187e-003
1.199526e+003,-3.400913e-003
1.201454e+003,-3.374086e-003
1.203382e+003,-3.256795e-003
1.205311e+003,-3.089667e-003
1.207240e+003,-2.894268e-003
1.209168e+003,-2.676718e-003
1.211096e+003,-2.550642e-003
1.213025e+003,-2.393654e-003
1.214953e+003,-2.343598e-003
1.216882e+003,-2.365282e-003
1.218810e+003,-2.254905e-003
1.220739e+003,-2.080861e-003
1.222667e+003,-1.910046e-003
1.224596e+003,-1.813148e-003
1.226524e+003,-1.877650e-003
1.228453e+003,-1.876397e-003
1.230381e+003,-1.564353e-003
1.232310e+003,-1.358853e-003
1.234238e+003,-1.334740e-003
1.236167e+003,-1.219210e-003
1.238095e+003,-1.323806e-003
1.240024e+003,-1.336028e-003
1.241952e+003,-1.237349e-003
1.243881e+003,-1.468137e-003
1.245809e+003,-1.621795e-003
1.247738e+003,-1.733521e-003
1.249666e+003,-1.895564e-003
1.251595e+003,-1.976612e-003
1.253523e+003,-1.924066e-003
1.255452e+003,-1.915984e-003
1.257380e+003,-1.922219e-003
1.259309e+003,-1.870425e-003
1.261237e+003,-1.703257e-003
1.263166e+003,-1.516082e-003
1.265094e+003,-1.482964e-003
1.267023e+003,-1.262128e-003
1.268951e+003,-8.325226e-004
1.270880e+003,-5.498425e-004
1.272808e+003,-4.275830e-004
1.274737e+003,-1.428174e-004
1.276665e+003,3.506665e-004
1.278594e+003,6.421483e-004
1.280522e+003,8.088921e-004
1.282451e+003,1.061918e-003
1.284379e+003,1.365012e-003
1.286308e+003,1.943845e-003
1.288236e+003,2.379134e-003
1.290165e+003,2.725592e-003
1.292093e+003,3.077500e-003
1.294022e+003,3.208329e-003
1.295950e+003,3.539381e-003
1.297879e+003,3.836890e-003
1.299807e+003,3.990753e-003
1.301736e+003,3.983697e-003
1.303664e+003,3.979784e-003
1.305593e+003,4.060146e-003
1.307521e+003,3.985971e-003
1.309450e+003,3.814961e-003
1.311378e+003,3.555784e-003
1.313307e+003,3.338095e-003
1.315235e+003,3.213502e-003
1.317164e+003,3.034555e-003
1.319092e+003,2.613242e-003
1.321021e+003,2.013844e-003
1.322949e+003,1.587201e-003
1.324878e+003,1.417997e-003
1.326806e+003,1.315822e-003
1.328735e+003,1.348925e-003
1.330663e+003,1.234339e-003
1.332592e+003,9.420277e-004
1.334520e+003,8.531112e-004
1.336449e+003,8.303703e-004
1.338377e+003,7.030435e-004
1.340306e+003,6.947135e-004
1.342234e+003,7.910663e-004
1.344163e+003,8.002944e-004
1.346091e+003,6.428120e-004
1.348020e+003,6.089002e-004
1.349948e+003,6.732088e-004
1.351877e+003,5.504068e-004
1.353805e+003,4.488004e-004
1.355734e+003,3.425754e-004
1.357662e+003,1.007060e-004
1.359591e+003,1.471176e-005
1.361519e+003,2.634236e-005
1.363448e+003,-5.745062e-005
1.365376e+003,-3.486620e-004
1.367305e+003,-6.098674e-004
1.369233e+003,-6.300835e-004
1.371162e+003,-7.478206e-004
1.373090e+003,-6.739533e-004
1.375019e+003,-5.907755e-004
1.376947e+003,-6.398438e-004
1.378876e+003,-4.793506e-004
1.380804e+003,-2.648921e-004
1.382733e+003,-3.924610e-004
1.384661e+003,-6.257161e-004
1.386590e+003,-7.773243e-004
1.388518e+003,-1.070764e-003
1.390447e+003,-1.319644e-003
1.392375e+003,-1.410410e-003
1.394304e+003,-1.528167e-003
1.396232e+003,-1.699594e-003
1.398161e+003,-1.807671e-003
1.400089e+003,-1.852082e-003
1.402018e+003,-1.887746e-003
1.403946e+003,-1.928256e-003
1.405875e+003,-1.994390e-003
1.407803e+003,-1.972127e-003
1.409732e+003,-2.015828e-003
1.411660e+003,-2.077662e-003
1.413589e+003,-2.213766e-003
1.415517e+003,-2.062724e-003
1.417446e+003,-1.541869e-003
1.419374e+003,-8.863582e-004
1.421303e+003,-3.029713e-004
1.423231e+003,3.134286e-004
1.425160e+003,9.506281e-004
1.427088e+003,1.455663e-003
1.429017e+003,1.860247e-003
1.430945e+003,2.202228e-003
1.432874e+003,2.448703e-003
1.434802e+003,2.885500e-003
1.436731e+003,3.331784e-003
1.438659e+003,3.584882e-003
1.440588e+003,3.878877e-003
1.442516e+003,4.365676e-003
1.444445e+003,4.940514e-003
1.446373e+003,5.728519e-003
1.448302e+003,6.261799e-003
1.450230e+003,6.599058e-003
1.452159e+003,7.227361e-003
1.454087e+003,7.856372e-003
1.456016e+003,8.411765e-003
1.457944e+003,8.836173e-003
1.459873e+003,8.933031e-003
1.461801e+003,9.032818e-003
1.463730e+003,9.248981e-003
1.465658e+003,9.396615e-003
1.467587e+003,9.186639e-003
1.469515e+003,9.013130e-003
1.471444e+003,9.011202e-003
1.473372e+003,8.733455e-003
1.475301e+003,8.253829e-003
1.477229e+003,7.733916e-003
1.479158e+003,7.233796e-003
1.481086e+003,6.577730e-003
1.483015e+003,6.061533e-003
1.484943e+003,5.682223e-003
1.486872e+003,5.275708e-003
1.488800e+003,4.822832e-003
1.490729e+003,4.180198e-003
1.492657e+003,3.633293e-003
1.494586e+003,3.506512e-003
1.496514e+003,3.190104e-003
1.498443e+003,2.586909e-003
1.500371e+003,2.076563e-003
1.502300e+003,1.761627e-003
1.504228e+003,1.645967e-003
1.506157e+003,1.572935e-003
1.508085e+003,1.259294e-003
1.510014e+003,8.602490e-004
1.511942e+003,6.775893e-004
1.513871e+003,6.277139e-004
1.515799e+003,5.723368e-004
1.517728e+003,5.965240e-004
1.519656e+003,7.262756e-004
1.521585e+003,8.886689e-004
1.523513e+003,8.395993e-004
1.525442e+003,9.489678e-004
1.527370e+003,1.056803e-003
1.529299e+003,1.193005e-003
1.531227e+003,1.535226e-003
1.533156e+003,2.035948e-003
1.535084e+003,2.240162e-003
1.537013e+003,2.496056e-003
1.538941e+003,3.106499e-003
1.540870e+003,3.560828e-003
1.542798e+003,3.712588e-003
1.544727e+003,3.943304e-003
1.546655e+003,4.098142e-003
1.548584e+003,4.412568e-003
1.550512e+003,4.882339e-003
1.552441e+003,5.228588e-003
1.554369e+003,5.764411e-003
1.556298e+003,6.546278e-003
1.558226e+003,7.536139e-003
1.560155e+003,7.969040e-003
1.562083e+003,7.997929e-003
1.564012e+003,8.247918e-003
1.565940e+003,8.517954e-003
1.567869e+003,8.579221e-003
1.569797e+003,8.617005e-003
1.571726e+003,8.666015e-003
1.573654e+003,8.800027e-003
1.575583e+003,9.022365e-003
1.577511e+003,8.883551e-003
1.579440e+003,8.672742e-003
1.581368e+003,8.611463e-003
1.583297e+003,8.444603e-003
1.585225e+003,8.236910e-003
1.587154e+003,8.030263e-003
1.589082e+003,7.741438e-003
1.591010e+003,7.304248e-003
1.592939e+003,6.718871e-003
1.594868e+003,6.155723e-003
1.596796e+003,5.638348e-003
1.598724e+003,5.207998e-003
1.600653e+003,4.604641e-003
1.602582e+003,4.023859e-003
1.604510e+003,3.517802e-003
1.606438e+003,3.073829e-003
1.608367e+003,2.597576e-003
1.610296e+003,2.227772e-003
1.612224e+003,1.753443e-003
1.614152e+003,1.450210e-003
1.616081e+003,1.323632e-003
1.618010e+003,1.014290e-003
1.619938e+003,7.040724e-004
1.621866e+003,5.110950e-004
1.623795e+003,2.276242e-004
1.625724e+003,1.229447e-004
1.627652e+003,-1.040396e-005
1.629580e+003,-2.322407e-004
1.631509e+003,-4.289733e-004
1.633438e+003,-4.479068e-004
1.635366e+003,-4.722677e-004
1.637294e+003,-9.084791e-004
1.639223e+003,-1.290573e-003
1.641151e+003,-1.501059e-003
1.643080e+003,-1.788334e-003
1.645008e+003,-1.968136e-003
1.646937e+003,-2.105229e-003
1.648865e+003,-2.315156e-003
1.650794e+003,-2.385812e-003
1.652722e+003,-2.225765e-003
1.654651e+003,-2.655543e-003
1.656579e+003,-3.075816e-003
1.658508e+003,-3.388223e-003
1.660436e+003,-3.384870e-003
1.662365e+003,-3.319801e-003
1.664293e+003,-3.501172e-003
1.666222e+003,-3.574659e-003
1.668150e+003,-3.581363e-003
1.670079e+003,-3.874097e-003
1.672007e+003,-4.130598e-003
1.673936e+003,-4.312844e-003
1.675864e+003,-4.612692e-003
1.677793e+003,-5.083280e-003
1.679721e+003,-5.383840e-003
1.681650e+003,-5.586463e-003
1.683578e+003,-5.480697e-003
1.685507e+003,-5.781440e-003
1.687435e+003,-6.241750e-003
1.689364e+003,-6.589355e-003
1.691292e+003,-6.826743e-003
1.693221e+003,-6.859947e-003
1.695149e+003,-6.748357e-003
1.697078e+003,-6.855804e-003
1.699006e+003,-6.871198e-003
1.700935e+003,-6.913040e-003
1.702863e+003,-7.186819e-003
1.704792e+003,-7.236582e-003
1.706720e+003,-7.277704e-003
1.708649e+003,-7.472509e-003
1.710577e+003,-7.686433e-003
1.712506e+003,-7.746164e-003
1.714434e+003,-7.675040e-003
1.716363e+003,-7.715437e-003
1.718291e+003,-7.833255e-003
1.720220e+003,-7.996713e-003
1.722148e+003,-8.104796e-003
1.724077e+003,-8.232065e-003
1.726005e+003,-8.320197e-003
1.727934e+003,-8.286682e-003
1.729862e+003,-8.134844e-003
1.731791e+003,-8.035389e-003
1.733719e+003,-8.017597e-003
1.735648e+003,-8.339602e-003
1.737576e+003,-8.503195e-003
1.739505e+003,-8.356503e-003
1.741433e+003,-8.180596e-003
1.743362e+003,-8.143917e-003
1.745290e+003,-8.148762e-003
1.747219e+003,-8.063328e-003
1.749147e+003,-7.976511e-003
1.751076e+003,-7.976967e-003
1.753004e+003,-8.041114e-003
1.754933e+003,-7.925890e-003
1.756861e+003,-7.771160e-003
1.758790e+003,-7.842366e-003
1.760718e+003,-7.906824e-003
1.762647e+003,-7.949380e-003
1.764575e+003,-7.960767e-003
1.766504e+003,-7.851119e-003
1.768432e+003,-7.671068e-003
1.770361e+003,-7.582317e-003
1.772289e+003,-7.556626e-003
1.774218e+003,-7.744178e-003
1.776146e+003,-7.798368e-003
1.778075e+003,-7.746912e-003
1.780003e+003,-7.735976e-003
1.781932e+003,-7.800614e-003
1.783860e+003,-7.821507e-003
1.785789e+003,-7.691284e-003
1.787717e+003,-7.647140e-003
1.789646e+003,-7.637601e-003
1.791574e+003,-7.607388e-003
1.793503e+003,-7.748832e-003
1.795431e+003,-7.898951e-003
1.797360e+003,-7.858017e-003
1.799288e+003,-7.772787e-003
1.801217e+003,-7.841845e-003
1.803145e+003,-7.841390e-003
1.805074e+003,-7.804649e-003
1.807002e+003,-7.852583e-003
1.808931e+003,-7.883105e-003
1.810859e+003,-7.820107e-003
1.812788e+003,-7.808391e-003
1.814716e+003,-7.844188e-003
1.816645e+003,-7.854471e-003
1.818573e+003,-7.951463e-003
1.820502e+003,-8.005138e-003
1.822430e+003,-7.979309e-003
1.824359e+003,-7.954683e-003
1.826287e+003,-7.996745e-003
1.828216e+003,-8.023126e-003
1.830144e+003,-8.039000e-003
1.832073e+003,-8.020297e-003
1.834001e+003,-8.024817e-003
1.835930e+003,-8.097998e-003
1.837858e+003,-8.061443e-003
1.839787e+003,-8.081574e-003
1.841715e+003,-8.112763e-003
1.843644e+003,-8.057084e-003
1.845572e+003,-8.073866e-003
1.847501e+003,-8.161444e-003
1.849429e+003,-8.184466e-003
1.851358e+003,-8.125088e-003
1.853286e+003,-8.049212e-003
1.855215e+003,-8.031518e-003
1.857143e+003,-8.024492e-003
1.859072e+003,-7.996095e-003
1.861000e+003,-7.962296e-003
1.862929e+003,-7.933666e-003
1.864857e+003,-7.833677e-003
1.866786e+003,-7.815551e-003
1.868714e+003,-7.870838e-003
1.870643e+003,-7.900838e-003
1.872571e+003,-7.874288e-003
1.874500e+003,-7.791143e-003
1.876428e+003,-7.766148e-003
1.878357e+003,-7.807578e-003
1.880285e+003,-7.805755e-003
1.882214e+003,-7.772462e-003
1.884142e+003,-7.789027e-003
1.886071e+003,-7.795634e-003
1.887999e+003,-7.711368e-003
1.889928e+003,-7.630537e-003
1.891856e+003,-7.674649e-003
1.893785e+003,-7.736431e-003
1.895713e+003,-7.718529e-003
1.897642e+003,-7.694083e-003
1.899570e+003,-7.699552e-003
1.901499e+003,-7.659316e-003
1.903427e+003,-7.656940e-003
1.905356e+003,-7.661367e-003
1.907284e+003,-7.588471e-003
1.909213e+003,-7.565483e-003
1.911141e+003,-7.576651e-003
1.913070e+003,-7.604393e-003
1.914998e+003,-7.673054e-003
1.916927e+003,-7.709838e-003
1.918855e+003,-7.721589e-003
1.920784e+003,-7.747889e-003
1.922712e+003,-7.820335e-003
1.924641e+003,-7.813371e-003
1.926569e+003,-7.767515e-003
1.928498e+003,-7.778385e-003
1.930426e+003,-7.721166e-003
1.932355e+003,-7.736073e-003
1.934283e+003,-7.829805e-003
1.936212e+003,-7.797261e-003
1.938140e+003,-7.801785e-003
1.940069e+003,-7.859450e-003
1.941997e+003,-7.850794e-003
1.943926e+003,-7.806374e-003
1.945854e+003,-7.838103e-003
1.947783e+003,-7.949315e-003
1.949711e+003,-7.955886e-003
1.951640e+003,-7.950714e-003
1.953568e+003,-7.918668e-003
1.955497e+003,-7.859189e-003
1.957425e+003,-7.892542e-003
1.959354e+003,-7.961873e-003
1.961282e+003,-7.915154e-003
1.963211e+003,-7.909590e-003
1.965139e+003,-7.882683e-003
1.967068e+003,-7.845620e-003
1.968996e+003,-7.802306e-003
1.970925e+003,-7.797001e-003
1.972853e+003,-7.930933e-003
1.974782e+003,-7.988353e-003
1.976710e+003,-7.923873e-003
1.978639e+003,-7.794202e-003
1.980567e+003,-7.786489e-003
1.982496e+003,-7.839957e-003
1.984424e+003,-7.803250e-003
1.986353e+003,-7.757555e-003
1.988281e+003,-7.742746e-003
1.990210e+003,-7.667976e-003
1.992138e+003,-7.538977e-003
1.994067e+003,-7.481107e-003
1.995995e+003,-7.505598e-003
1.997924e+003,-7.500094e-003
1.999852e+003,-7.505532e-003
2.001781e+003,-7.522174e-003
2.003709e+003,-7.518526e-003
2.005638e+003,-7.444401e-003
2.007566e+003,-7.420689e-003
2.009495e+003,-7.481107e-003
2.011423e+003,-7.557180e-003
2.013352e+003,-7.433588e-003
2.015280e+003,-7.362966e-003
2.017208e+003,-7.415705e-003
2.019137e+003,-7.449775e-003
2.021066e+003,-7.397692e-003
2.022994e+003,-7.314978e-003
2.024922e+003,-7.318333e-003
2.026851e+003,-7.301424e-003
2.028780e+003,-7.316672e-003
2.030708e+003,-7.332538e-003
2.032636e+003,-7.246749e-003
2.034565e+003,-7.284677e-003
2.036494e+003,-7.332799e-003
2.038422e+003,-7.267082e-003
2.040350e+003,-7.210088e-003
2.042279e+003,-7.202462e-003
2.044208e+003,-7.280669e-003
2.046136e+003,-7.281581e-003
2.048064e+003,-7.199822e-003
2.049993e+003,-7.204189e-003
2.051921e+003,-7.209990e-003
2.053850e+003,-7.202397e-003
2.055778e+003,-7.286306e-003
2.057707e+003,-7.246194e-003
2.059635e+003,-7.079682e-003
2.061564e+003,-7.089200e-003
2.063492e+003,-7.089657e-003
2.065421e+003,-7.032509e-003
2.067349e+003,-7.033423e-003
2.069278e+003,-7.056700e-003
2.071206e+003,-7.017219e-003
2.073135e+003,-6.906094e-003
2.075063e+003,-6.801986e-003
2.076992e+003,-6.816762e-003
2.078920e+003,-6.844454e-003
2.080849e+003,-6.790635e-003
2.082777e+003,-6.772791e-003
2.084706e+003,-6.780131e-003
2.086634e+003,-6.766658e-003
2.088563e+003,-6.750934e-003
2.090491e+003,-6.646920e-003
2.092420e+003,-6.582404e-003
2.094348e+003,-6.634030e-003
2.096277e+003,-6.594642e-003
2.098205e+003,-6.458860e-003
2.100134e+003,-6.459187e-003
2.102062e+003,-6.396765e-003
2.103991e+003,-6.290184e-003
2.105919e+003,-6.252920e-003
2.107848e+003,-6.214281e-003
2.109776e+003,-6.176782e-003
2.111705e+003,-6.125167e-003
2.113633e+003,-6.074231e-003
2.115562e+003,-6.026426e-003
2.117490e+003,-5.976591e-003
2.119419e+003,-5.892494e-003
2.121347e+003,-5.814429e-003
2.123276e+003,-5.871247e-003
2.125204e+003,-6.001101e-003
2.127133e+003,-5.978552e-003
2.129061e+003,-5.860916e-003
2.130990e+003,-5.825773e-003
2.132918e+003,-5.725755e-003
2.134847e+003,-5.692891e-003
2.136775e+003,-5.752929e-003
2.138704e+003,-5.749103e-003
2.140632e+003,-5.725755e-003
2.142561e+003,-5.766563e-003
2.144489e+003,-5.787162e-003
2.146418e+003,-5.719052e-003
2.148346e+003,-5.638928e-003
2.150275e+003,-5.592122e-003
2.152203e+003,-5.587281e-003
2.154132e+003,-5.622182e-003
2.156060e+003,-5.629803e-003
2.157989e+003,-5.617014e-003
2.159917e+003,-5.634644e-003
2.161846e+003,-5.657145e-003
2.163774e+003,-5.652992e-003
2.165703e+003,-5.648151e-003
2.167631e+003,-5.559215e-003
2.169560e+003,-5.453507e-003
2.171488e+003,-5.430341e-003
2.173417e+003,-5.510176e-003
2.175345e+003,-5.559509e-003
2.177274e+003,-5.579136e-003
2.179202e+003,-5.555878e-003
2.181131e+003,-5.547569e-003
2.183059e+003,-5.553392e-003
2.184988e+003,-5.547209e-003
2.186916e+003,-5.516817e-003
2.188845e+003,-5.520972e-003
2.190773e+003,-5.483250e-003
2.192702e+003,-5.441826e-003
2.194630e+003,-5.467806e-003
2.196559e+003,-5.460804e-003
2.198487e+003,-5.529445e-003
2.200416e+003,-5.532160e-003
2.202344e+003,-5.461262e-003
2.204273e+003,-5.456551e-003
2.206201e+003,-5.446473e-003
2.208130e+003,-5.418364e-003
2.210058e+003,-5.531343e-003
2.211987e+003,-5.559607e-003
2.213915e+003,-5.407467e-003
2.215844e+003,-5.441532e-003
2.217772e+003,-5.492083e-003
2.219701e+003,-5.405242e-003
2.221629e+003,-5.423240e-003
2.223558e+003,-5.468689e-003
2.225486e+003,-5.513906e-003
2.227415e+003,-5.444836e-003
2.229343e+003,-5.397061e-003
2.231272e+003,-5.333341e-003
2.233200e+003,-5.318351e-003
2.235129e+003,-5.351997e-003
2.237057e+003,-5.358542e-003
2.238986e+003,-5.424745e-003
2.240914e+003,-5.504090e-003
2.242843e+003,-5.448239e-003
2.244771e+003,-5.412278e-003
2.246700e+003,-5.533436e-003
2.248628e+003,-5.570664e-003
2.250557e+003,-5.560883e-003
2.252485e+003,-5.614398e-003
2.254414e+003,-5.634905e-003
2.256342e+003,-5.601183e-003
2.258271e+003,-5.550710e-003
2.260199e+003,-5.587575e-003
2.262128e+003,-5.690765e-003
2.264056e+003,-5.709928e-003
2.265985e+003,-5.683538e-003
2.267913e+003,-5.733734e-003
2.269842e+003,-5.835483e-003
2.271770e+003,-5.858824e-003
2.273699e+003,-5.912040e-003
2.275627e+003,-5.833489e-003
2.277556e+003,-5.733473e-003
2.279484e+003,-5.820673e-003
2.281413e+003,-5.942960e-003
2.283341e+003,-6.008355e-003
2.285270e+003,-6.063873e-003
2.287198e+003,-5.972276e-003
2.289127e+003,-5.883701e-003
2.291055e+003,-5.914361e-003
2.292984e+003,-5.983094e-003
2.294912e+003,-6.024335e-003
2.296841e+003,-6.022767e-003
2.298769e+003,-5.983094e-003
2.300698e+003,-5.892592e-003
2.302626e+003,-5.795335e-003
2.304555e+003,-5.764274e-003
2.306483e+003,-5.745735e-003
2.308412e+003,-5.658257e-003
2.310340e+003,-5.557481e-003
2.312269e+003,-5.499804e-003
2.314197e+003,-5.348429e-003
2.316125e+003,-5.180401e-003
2.318054e+003,-5.080333e-003
2.319983e+003,-4.927762e-003
2.321911e+003,-4.780579e-003
2.323840e+003,-4.688023e-003
2.325768e+003,-4.535577e-003
2.327697e+003,-4.364643e-003
2.329625e+003,-4.240893e-003
2.331553e+003,-4.142577e-003
2.333482e+003,-4.108017e-003
2.335411e+003,-4.021719e-003
2.337339e+003,-3.965480e-003
2.339268e+003,-3.963477e-003
2.341196e+003,-3.957797e-003
2.343125e+003,-4.099450e-003
2.345053e+003,-4.342140e-003
2.346981e+003,-4.616822e-003
2.348910e+003,-4.845985e-003
2.350839e+003,-4.479371e-003
2.352767e+003,-3.955006e-003
2.354696e+003,-3.648133e-003
2.356624e+003,-3.361000e-003
2.358552e+003,-3.272153e-003
2.360481e+003,-3.291128e-003
2.362409e+003,-3.362578e-003
2.364338e+003,-3.504853e-003
2.366267e+003,-3.526940e-003
2.368195e+003,-3.684635e-003
2.370124e+003,-3.895507e-003
2.372052e+003,-4.048900e-003
2.373980e+003,-4.202600e-003
2.375909e+003,-4.424077e-003
2.377838e+003,-4.617445e-003
2.379766e+003,-4.663864e-003
2.381695e+003,-4.778055e-003
2.383623e+003,-4.812300e-003
2.385552e+003,-4.696742e-003
2.387480e+003,-4.666323e-003
2.389408e+003,-4.653669e-003
2.391337e+003,-4.621642e-003
2.393266e+003,-4.599807e-003
2.395194e+003,-4.599119e-003
2.397123e+003,-4.616560e-003
2.399051e+003,-4.634230e-003
2.400979e+003,-4.616822e-003
2.402908e+003,-4.525281e-003
2.404836e+003,-4.464450e-003
2.406765e+003,-4.436836e-003
2.408694e+003,-4.441952e-003
2.410622e+003,-4.490849e-003
2.412551e+003,-4.497604e-003
2.414479e+003,-4.459071e-003
2.416407e+003,-4.406202e-003
2.418336e+003,-4.302411e-003
2.420264e+003,-4.224618e-003
2.422193e+003,-4.269504e-003
2.424122e+003,-4.235446e-003
2.426050e+003,-4.160595e-003
2.427979e+003,-4.076835e-003
2.429907e+003,-3.974213e-003
2.431835e+003,-3.858662e-003
2.433764e+003,-3.771164e-003
2.435692e+003,-3.781051e-003
2.437621e+003,-3.721627e-003
2.439550e+003,-3.618791e-003
2.441478e+003,-3.615406e-003
2.443406e+003,-3.570912e-003
2.445335e+003,-3.459033e-003
2.447263e+003,-3.505280e-003
2.449192e+003,-3.576072e-003
2.451121e+003,-3.459296e-003
2.453049e+003,-3.352452e-003
2.454978e+003,-3.296521e-003
2.456906e+003,-3.222822e-003
2.458834e+003,-3.120821e-003
2.460763e+003,-3.042882e-003
2.462691e+003,-3.009912e-003
2.464620e+003,-3.006062e-003
2.466549e+003,-2.955418e-003
2.468477e+003,-2.962164e-003
2.470406e+003,-2.957524e-003
2.472334e+003,-2.984212e-003
2.474262e+003,-2.957688e-003
2.476191e+003,-2.882123e-003
2.478119e+003,-2.885677e-003
2.480048e+003,-2.887850e-003
2.481977e+003,-2.844170e-003
2.483905e+003,-2.734705e-003
2.485833e+003,-2.733849e-003
2.487762e+003,-2.706519e-003
2.489690e+003,-2.659133e-003
2.491619e+003,-2.605978e-003
2.493547e+003,-2.467427e-003
2.495476e+003,-2.453458e-003
2.497405e+003,-2.505084e-003
2.499333e+003,-2.467988e-003
2.501261e+003,-2.293370e-003
2.503190e+003,-2.304906e-003
2.505118e+003,-2.464627e-003
2.507047e+003,-2.512726e-003
2.508975e+003,-2.408614e-003
2.510904e+003,-2.374114e-003
2.512833e+003,-2.360174e-003
2.514761e+003,-2.305961e-003
2.516689e+003,-2.287569e-003
2.518618e+003,-2.312486e-003
2.520546e+003,-2.300423e-003
2.522475e+003,-2.273495e-003
2.524403e+003,-2.244653e-003
2.526332e+003,-2.245378e-003
2.528260e+003,-2.221578e-003
2.530189e+003,-2.186766e-003
2.532117e+003,-2.178788e-003
2.534046e+003,-2.195733e-003
2.535974e+003,-2.071265e-003
2.537903e+003,-1.995940e-003
2.539831e+003,-2.056953e-003
2.541760e+003,-2.038749e-003
2.543688e+003,-2.031131e-003
2.545617e+003,-2.062592e-003
2.547545e+003,-1.962132e-003
2.549474e+003,-1.845417e-003
2.551402e+003,-1.834892e-003
2.553331e+003,-1.831691e-003
2.555259e+003,-1.857525e-003
2.557188e+003,-1.807110e-003
2.559116e+003,-1.733950e-003
2.561045e+003,-1.650777e-003
2.562973e+003,-1.586968e-003
2.564902e+003,-1.706657e-003
2.566830e+003,-1.787971e-003
2.568759e+003,-1.648995e-003
2.570687e+003,-1.572871e-003
2.572616e+003,-1.528200e-003
2.574544e+003,-1.432174e-003
2.576473e+003,-1.497030e-003
2.578401e+003,-1.588288e-003
2.580330e+003,-1.515653e-003
2.582258e+003,-1.467741e-003
2.584187e+003,-1.458362e-003
2.586115e+003,-1.450305e-003
2.588044e+003,-1.415067e-003
2.589972e+003,-1.355186e-003
2.591901e+003,-1.307091e-003
2.593829e+003,-1.269033e-003
2.595758e+003,-1.268075e-003
2.597686e+003,-1.262789e-003
2.599615e+003,-1.171992e-003
2.601543e+003,-1.148298e-003
2.603472e+003,-1.308775e-003
2.605400e+003,-1.321064e-003
2.607329e+003,-1.258164e-003
2.609257e+003,-1.198328e-003
2.611186e+003,-1.159236e-003
2.613114e+003,-1.189142e-003
2.615043e+003,-1.186069e-003
2.616971e+003,-1.127842e-003
2.618900e+003,-1.135773e-003
2.620828e+003,-1.132832e-003
2.622757e+003,-1.026769e-003
2.624685e+003,-9.270281e-004
2.626614e+003,-9.768849e-004
2.628542e+003,-1.105170e-003
2.630471e+003,-1.215410e-003
2.632399e+003,-1.208637e-003
2.634328e+003,-1.151636e-003
2.636256e+003,-1.114655e-003
2.638185e+003,-1.083588e-003
2.640113e+003,-9.998936e-004
2.642042e+003,-8.886728e-004
2.643970e+003,-9.113557e-004
2.645899e+003,-8.804062e-004
2.647827e+003,-7.566190e-004
2.649756e+003,-6.542025e-004
2.651684e+003,-6.235986e-004
2.653613e+003,-5.862423e-004
2.655541e+003,-4.804428e-004
2.657470e+003,-4.328130e-004
2.659398e+003,-3.714063e-004
2.661327e+003,-3.573030e-004
2.663255e+003,-3.434641e-004
2.665184e+003,-3.233010e-004
2.667112e+003,-2.658193e-004
2.669041e+003,-2.254517e-004
2.670969e+003,-1.748463e-004
2.672898e+003,-4.870431e-005
2.674826e+003,3.118025e-005
2.676755e+003,5.331594e-005
2.678683e+003,3.499096e-005
2.680612e+003,4.244678e-005
2.682540e+003,1.786623e-004
2.684469e+003,2.726793e-004
2.686397e+003,3.511971e-004
2.688326e+003,3.811755e-004
2.690254e+003,3.411827e-004
2.692183e+003,3.428738e-004
2.694111e+003,4.252184e-004
2.696040e+003,5.583028e-004
2.697968e+003,6.531652e-004
2.699897e+003,6.476567e-004
2.701825e+003,6.835960e-004
2.703754e+003,7.717143e-004
2.705682e+003,8.254903e-004
2.707611e+003,9.179872e-004
2.709539e+003,9.815446e-004
2.711468e+003,1.029036e-003
2.713396e+003,1.099386e-003
2.715325e+003,1.127357e-003
2.717253e+003,1.135230e-003
2.719182e+003,1.084970e-003
2.721110e+003,1.104435e-003
2.723039e+003,1.261720e-003
2.724967e+003,1.340317e-003
2.726896e+003,1.319744e-003
2.728824e+003,1.308943e-003
2.730753e+003,1.404800e-003
2.732681e+003,1.514112e-003
2.734610e+003,1.535691e-003
2.736538e+003,1.636289e-003
2.738467e+003,1.718446e-003
2.740395e+003,1.796594e-003
2.742324e+003,1.879714e-003
2.744252e+003,1.902510e-003
2.746181e+003,1.918384e-003
2.748109e+003,2.028557e-003
2.750038e+003,2.099869e-003
2.751966e+003,2.099436e-003
2.753895e+003,2.217548e-003
2.755823e+003,2.307277e-003
2.757752e+003,2.371371e-003
2.759680e+003,2.554012e-003
2.761609e+003,2.781512e-003
2.763537e+003,3.060916e-003
2.765466e+003,3.260104e-003
2.767394e+003,3.509585e-003
2.769323e+003,3.829736e-003
2.771251e+003,4.139485e-003
2.773180e+003,4.567606e-003
2.775108e+003,4.960690e-003
2.777037e+003,5.307873e-003
2.778965e+003,5.667653e-003
2.780894e+003,6.191617e-003
2.782822e+003,6.685962e-003
2.784750e+003,7.205901e-003
2.786679e+003,7.949467e-003
2.788608e+003,8.647222e-003
2.790536e+003,9.188670e-003
2.792465e+003,9.852151e-003
2.794393e+003,1.044523e-002
2.796322e+003,1.086946e-002
2.798250e+003,1.147662e-002
2.800178e+003,1.220607e-002
2.802107e+003,1.279798e-002
2.804036e+003,1.326102e-002
2.805964e+003,1.370552e-002
2.807893e+003,1.411460e-002
2.809821e+003,1.436310e-002
2.811750e+003,1.450022e-002
2.813678e+003,1.458121e-002
2.815606e+003,1.459239e-002
2.817535e+003,1.452235e-002
2.819464e+003,1.446535e-002
2.821392e+003,1.427499e-002
2.823321e+003,1.401586e-002
2.825249e+003,1.375059e-002
2.827177e+003,1.345671e-002
2.829106e+003,1.315493e-002
2.831034e+003,1.275266e-002
2.832963e+003,1.237670e-002
2.834892e+003,1.203524e-002
2.836820e+003,1.155042e-002
2.838749e+003,1.111754e-002
2.840677e+003,1.066835e-002
2.842605e+003,1.012749e-002
2.844534e+003,9.522757e-003
2.846462e+003,8.984884e-003
2.848391e+003,8.586352e-003
2.850320e+003,8.272875e-003
2.852248e+003,8.064084e-003
2.854177e+003,7.834442e-003
2.856105e+003,7.475896e-003
2.858033e+003,7.206271e-003
2.859962e+003,7.204486e-003
2.861890e+003,7.159346e-003
2.863819e+003,7.019105e-003
2.865748e+003,7.007959e-003
2.867676e+003,6.998362e-003
2.869604e+003,6.903147e-003
2.871533e+003,6.950954e-003
2.873461e+003,7.122193e-003
2.875390e+003,7.271463e-003
2.877319e+003,7.378419e-003
2.879247e+003,7.467098e-003
2.881176e+003,7.507381e-003
2.883104e+003,7.503201e-003
2.885032e+003,7.501145e-003
2.886961e+003,7.547939e-003
2.888889e+003,7.487290e-003
2.890818e+003,7.468413e-003
2.892747e+003,7.437132e-003
2.894675e+003,7.391732e-003
2.896604e+003,7.348426e-003
2.898532e+003,7.295251e-003
2.900460e+003,7.279988e-003
2.902389e+003,7.261355e-003
2.904317e+003,7.165476e-003
2.906246e+003,7.126505e-003
2.908175e+003,7.257716e-003
2.910103e+003,7.345528e-003
2.912031e+003,7.300508e-003
2.913960e+003,7.217187e-003
2.915888e+003,7.183465e-003
2.917817e+003,7.285480e-003
2.919745e+003,7.414482e-003
2.921674e+003,7.579969e-003
2.923603e+003,7.587252e-003
2.925531e+003,7.656616e-003
2.927459e+003,7.820846e-003
2.929388e+003,7.953381e-003
2.931316e+003,8.101992e-003
2.933245e+003,8.210369e-003
2.935173e+003,8.293003e-003
2.937102e+003,8.295908e-003
2.939031e+003,8.225834e-003
2.940959e+003,8.186295e-003
2.942887e+003,8.047038e-003
2.944816e+003,7.886197e-003
2.946744e+003,7.701740e-003
2.948673e+003,7.421560e-003
2.950601e+003,6.983042e-003
2.952530e+003,6.625265e-003
2.954458e+003,6.208926e-003
2.956387e+003,5.690783e-003
2.958315e+003,5.160215e-003
2.960244e+003,4.605278e-003
2.962172e+003,4.129149e-003
2.964101e+003,3.740393e-003
2.966029e+003,3.288714e-003
2.967958e+003,2.772608e-003
2.969886e+003,2.307644e-003
2.971815e+003,1.862143e-003
2.973743e+003,1.555876e-003
2.975672e+003,1.240685e-003
2.977600e+003,9.834375e-004
2.979529e+003,8.371426e-004
2.981457e+003,5.078440e-004
2.983386e+003,1.115766e-004
2.985314e+003,-2.828394e-004
2.987243e+003,-4.362224e-004
2.989171e+003,-4.742204e-004
2.991100e+003,-5.402788e-004
2.993028e+003,-7.367727e-004
2.994957e+003,-9.607184e-004
2.996885e+003,-1.122984e-003
2.998814e+003,-1.165151e-003
3.000742e+003,-1.227702e-003
3.002671e+003,-1.308412e-003
3.004599e+003,-1.395944e-003
3.006528e+003,-1.442808e-003
3.008456e+003,-1.469656e-003
3.010385e+003,-1.597598e-003
3.012313e+003,-1.591127e-003
3.014242e+003,-1.624469e-003
3.016170e+003,-1.698505e-003
3.018099e+003,-1.654276e-003
3.020027e+003,-1.622356e-003
3.021956e+003,-1.754147e-003
3.023884e+003,-1.907539e-003
3.025813e+003,-1.973545e-003
3.027741e+003,-1.995874e-003
3.029670e+003,-1.883160e-003
3.031598e+003,-1.838158e-003
3.033527e+003,-1.865510e-003
3.035455e+003,-1.960615e-003
3.037384e+003,-2.048807e-003
3.039312e+003,-2.129959e-003
3.041241e+003,-2.246664e-003
3.043169e+003,-2.300852e-003
3.045098e+003,-2.205986e-003
3.047026e+003,-2.136454e-003
3.048955e+003,-2.240302e-003
3.050883e+003,-2.361163e-003
3.052812e+003,-2.462881e-003
3.054740e+003,-2.530153e-003
3.056669e+003,-2.526299e-003
3.058597e+003,-2.590695e-003
3.060526e+003,-2.707968e-003
3.062454e+003,-2.695719e-003
3.064383e+003,-2.724991e-003
3.066311e+003,-2.808189e-003
3.068240e+003,-2.823299e-003
3.070168e+003,-2.975097e-003
3.072097e+003,-3.090259e-003
3.074025e+003,-3.118486e-003
3.075954e+003,-3.078711e-003
3.077882e+003,-3.115558e-003
3.079811e+003,-3.219238e-003
3.081739e+003,-3.238806e-003
3.083668e+003,-3.259097e-003
3.085596e+003,-3.308687e-003
3.087525e+003,-3.396442e-003
3.089453e+003,-3.379741e-003
3.091382e+003,-3.435168e-003
3.093310e+003,-3.432735e-003
3.095239e+003,-3.452886e-003
3.097167e+003,-3.538180e-003
3.099096e+003,-3.535879e-003
3.101024e+003,-3.628287e-003
3.102953e+003,-3.699879e-003
3.104881e+003,-3.802533e-003
3.106810e+003,-3.822962e-003
3.108738e+003,-3.660191e-003
3.110667e+003,-3.754543e-003
3.112595e+003,-3.762788e-003
3.114524e+003,-3.685654e-003
3.116452e+003,-3.725799e-003
3.118381e+003,-3.773825e-003
3.120309e+003,-3.991713e-003
3.122238e+003,-4.043746e-003
3.124166e+003,-4.022179e-003
3.126095e+003,-4.090883e-003
3.128023e+003,-3.996112e-003
3.129952e+003,-3.967910e-003
3.131880e+003,-3.992566e-003
3.133809e+003,-3.893504e-003
3.135737e+003,-3.975953e-003
3.137666e+003,-4.003138e-003
3.139594e+003,-3.919052e-003
3.141523e+003,-3.989546e-003
3.143451e+003,-4.027103e-003
3.145380e+003,-4.069055e-003
3.147308e+003,-4.032881e-003
3.149237e+003,-4.087371e-003
3.151165e+003,-4.130860e-003
3.153094e+003,-4.149962e-003
3.155022e+003,-4.167355e-003
3.156951e+003,-4.101813e-003
3.158879e+003,-3.968829e-003
3.160808e+003,-3.879121e-003
3.162736e+003,-4.009441e-003
3.164665e+003,-4.110544e-003
3.166593e+003,-4.127217e-003
3.168522e+003,-4.106999e-003
3.170450e+003,-4.077754e-003
3.172379e+003,-4.033045e-003
3.174307e+003,-3.968763e-003
3.176236e+003,-3.888217e-003
3.178164e+003,-3.954415e-003
3.180093e+003,-4.105785e-003
3.182021e+003,-4.112940e-003
3.183950e+003,-4.039348e-003
3.185878e+003,-4.030419e-003
3.187807e+003,-3.978153e-003
3.189735e+003,-4.020832e-003
3.191664e+003,-4.204273e-003
3.193592e+003,-4.244470e-003
3.195521e+003,-4.201977e-003
3.197449e+003,-4.039151e-003
3.199378e+003,-3.970832e-003
3.201306e+003,-3.923222e-003
3.203235e+003,-3.974772e-003
3.205163e+003,-4.025921e-003
3.207092e+003,-4.071353e-003
3.209020e+003,-3.978515e-003
3.210948e+003,-3.897149e-003
3.212877e+003,-3.799248e-003
3.214806e+003,-3.703394e-003
3.216734e+003,-3.816787e-003
3.218663e+003,-3.981797e-003
3.220591e+003,-3.893307e-003
3.222520e+003,-3.696167e-003
3.224448e+003,-3.517507e-003
3.226376e+003,-3.341766e-003
3.228305e+003,-3.223809e-003
3.230234e+003,-3.199175e-003
3.232162e+003,-3.186281e-003
3.234091e+003,-3.208186e-003
3.236019e+003,-3.129638e-003
3.237948e+003,-3.075915e-003
3.239876e+003,-2.995565e-003
3.241804e+003,-2.770724e-003
3.243733e+003,-2.816551e-003
3.245662e+003,-2.773918e-003
3.247590e+003,-2.762691e-003
3.249519e+003,-2.717056e-003
3.251447e+003,-2.664731e-003
3.253375e+003,-2.609732e-003
3.255304e+003,-2.529033e-003
3.257232e+003,-2.346992e-003
3.259161e+003,-2.291393e-003
3.261090e+003,-2.290239e-003
3.263018e+003,-2.121914e-003
3.264947e+003,-2.127948e-003
3.266875e+003,-2.258201e-003
3.268803e+003,-2.238753e-003
3.270732e+003,-2.157160e-003
3.272660e+003,-1.941549e-003
3.274589e+003,-1.819087e-003
3.276518e+003,-1.799488e-003
3.278446e+003,-1.807209e-003
3.280375e+003,-1.973314e-003
3.282303e+003,-1.985617e-003
3.284231e+003,-1.944188e-003
3.286160e+003,-1.864388e-003
3.288088e+003,-1.850531e-003
3.290017e+003,-2.035253e-003
3.291946e+003,-2.155874e-003
3.293874e+003,-2.258432e-003
3.295802e+003,-2.224051e-003
3.297731e+003,-2.240599e-003
3.299659e+003,-2.442256e-003
3.301588e+003,-2.536346e-003
3.303516e+003,-2.607328e-003
3.305445e+003,-2.724991e-003
3.307374e+003,-2.864973e-003
3.309302e+003,-2.945282e-003
3.311230e+003,-3.086278e-003
3.313159e+003,-3.207298e-003
3.315087e+003,-3.315165e-003
3.317016e+003,-3.452459e-003
3.318944e+003,-3.603314e-003
3.320873e+003,-3.565556e-003
3.322802e+003,-3.628352e-003
3.324730e+003,-3.889761e-003
3.326658e+003,-4.021095e-003
3.328587e+003,-4.120686e-003
3.330515e+003,-4.219237e-003
3.332444e+003,-4.351062e-003
3.334372e+003,-4.424241e-003
3.336301e+003,-4.378715e-003
3.338229e+003,-4.323408e-003
3.340158e+003,-4.248112e-003
3.342086e+003,-4.313631e-003
3.344015e+003,-4.361198e-003
3.345943e+003,-4.416862e-003
3.347872e+003,-4.507606e-003
3.349800e+003,-4.558726e-003
3.351729e+003,-4.646032e-003
3.353657e+003,-4.869740e-003
3.355586e+003,-4.917672e-003
3.357514e+003,-4.990199e-003
3.359443e+003,-5.048729e-003
3.361371e+003,-5.084426e-003
3.363300e+003,-5.112949e-003
3.365229e+003,-5.299170e-003
3.367157e+003,-5.516359e-003
3.369085e+003,-5.582669e-003
3.371014e+003,-5.588688e-003
3.372942e+003,-5.671633e-003
3.374871e+003,-5.873142e-003
3.376799e+003,-6.000643e-003
3.378728e+003,-6.060900e-003
3.380656e+003,-6.254520e-003
3.382585e+003,-6.387231e-003
3.384513e+003,-6.450275e-003
3.386442e+003,-6.638697e-003
3.388370e+003,-6.618171e-003
3.390299e+003,-6.671392e-003
3.392227e+003,-6.775042e-003
3.394156e+003,-6.686793e-003
3.396084e+003,-6.656415e-003
3.398013e+003,-6.709207e-003
3.399941e+003,-6.754686e-003
3.401870e+003,-6.810956e-003
3.403798e+003,-6.855608e-003
3.405727e+003,-7.013568e-003
3.407655e+003,-7.040464e-003
3.409584e+003,-6.957323e-003
3.411512e+003,-7.028369e-003
3.413441e+003,-7.081409e-003
3.415369e+003,-7.105140e-003
3.417298e+003,-7.072152e-003
3.419226e+003,-7.136269e-003
3.421155e+003,-7.315890e-003
3.423083e+003,-7.241828e-003
3.425012e+003,-7.148393e-003
3.426940e+003,-7.260565e-003
3.428869e+003,-7.296960e-003
3.430797e+003,-7.169807e-003
3.432726e+003,-7.148328e-003
3.434654e+003,-7.443717e-003
3.436583e+003,-7.718855e-003
3.438511e+003,-7.496121e-003
3.440440e+003,-7.289108e-003
3.442368e+003,-7.251995e-003
3.444297e+003,-7.289010e-003
3.446225e+003,-7.422937e-003
3.448154e+003,-7.563138e-003
3.450082e+003,-7.557831e-003
3.452011e+003,-7.544513e-003
3.453939e+003,-7.797001e-003
3.455868e+003,-8.015547e-003
3.457796e+003,-7.885188e-003
3.459725e+003,-7.750590e-003
3.461653e+003,-7.677384e-003
3.463582e+003,-7.560696e-003
3.465510e+003,-7.720482e-003
3.467439e+003,-7.797197e-003
3.469367e+003,-7.719245e-003
3.471296e+003,-7.794983e-003
3.473224e+003,-7.955594e-003
3.475153e+003,-8.146779e-003
3.477081e+003,-8.179653e-003
3.479010e+003,-8.062581e-003
3.480938e+003,-7.840836e-003
3.482867e+003,-7.785220e-003
3.484795e+003,-7.823231e-003
3.486724e+003,-7.870415e-003
3.488652e+003,-7.976511e-003
3.490581e+003,-8.020882e-003
3.492509e+003,-7.989426e-003
3.494438e+003,-8.008911e-003
3.496366e+003,-7.918928e-003
3.498295e+003,-7.887465e-003
3.500223e+003,-8.077866e-003
3.502152e+003,-8.192757e-003
3.504080e+003,-8.251832e-003
3.506009e+003,-8.201730e-003
3.507937e+003,-7.942971e-003
3.509866e+003,-7.959237e-003
3.511794e+003,-8.032625e-003
3.513723e+003,-8.138682e-003
3.515651e+003,-8.301700e-003
3.517580e+003,-8.204332e-003
3.519508e+003,-8.109738e-003
3.521437e+003,-8.074777e-003
3.523365e+003,-8.160989e-003
3.525294e+003,-8.285447e-003
3.527222e+003,-8.283074e-003
3.529151e+003,-8.278848e-003
3.531079e+003,-8.198187e-003
3.533008e+003,-8.192106e-003
3.534936e+003,-8.254433e-003
3.536865e+003,-8.181636e-003
3.538793e+003,-7.963109e-003
3.540722e+003,-7.897585e-003
3.542650e+003,-8.057701e-003
3.544579e+003,-7.944955e-003
3.546507e+003,-7.990337e-003
3.548436e+003,-8.309925e-003
3.550364e+003,-8.424266e-003
3.552293e+003,-8.365962e-003
3.554221e+003,-8.348995e-003
3.556150e+003,-8.364694e-003
3.558078e+003,-8.276572e-003
3.560007e+003,-8.051197e-003
3.561935e+003,-7.904743e-003
3.563864e+003,-8.160599e-003
3.565792e+003,-8.129023e-003
3.567721e+003,-8.015157e-003
3.569649e+003,-8.250499e-003
3.571578e+003,-8.442269e-003
3.573506e+003,-8.312525e-003
3.575435e+003,-8.118097e-003
3.577363e+003,-8.051424e-003
3.579292e+003,-8.132893e-003
3.581220e+003,-8.366514e-003
3.583149e+003,-8.393782e-003
3.585077e+003,-8.189701e-003
3.587006e+003,-8.257261e-003
3.588934e+003,-8.308917e-003
3.590863e+003,-8.226636e-003
3.592791e+003,-8.214736e-003
3.594720e+003,-8.260057e-003
3.596648e+003,-8.229692e-003
3.598577e+003,-8.194643e-003
3.600505e+003,-8.096470e-003
3.602434e+003,-8.197764e-003
3.604362e+003,-8.087884e-003
3.606291e+003,-7.990045e-003
3.608219e+003,-7.947330e-003
3.610148e+003,-8.023777e-003
3.612076e+003,-8.114291e-003
3.614005e+003,-8.147136e-003
3.615933e+003,-8.171979e-003
3.617862e+003,-7.855837e-003
3.619790e+003,-7.764521e-003
3.621719e+003,-8.045960e-003
3.623647e+003,-8.177312e-003
3.625576e+003,-8.179653e-003
3.627504e+003,-7.983083e-003
3.629433e+003,-7.712442e-003
3.631361e+003,-7.932235e-003
3.633290e+003,-8.076175e-003
3.635218e+003,-8.150518e-003
3.637146e+003,-8.148046e-003
3.639075e+003,-8.168630e-003
3.641004e+003,-7.987996e-003
3.642932e+003,-7.945672e-003
3.644861e+003,-8.059068e-003
3.646789e+003,-7.773829e-003
3.648718e+003,-7.689233e-003
3.650646e+003,-7.876532e-003
3.652574e+003,-7.969420e-003
3.654503e+003,-8.007741e-003
3.656432e+003,-8.084014e-003
3.658360e+003,-8.327575e-003
3.660289e+003,-8.460109e-003
3.662217e+003,-8.580714e-003
3.664146e+003,-8.434860e-003
3.666074e+003,-8.229172e-003
3.668002e+003,-8.206218e-003
3.669931e+003,-8.283366e-003
3.671860e+003,-8.488216e-003
3.673788e+003,-8.400932e-003
3.675717e+003,-8.099820e-003
3.677645e+003,-8.202543e-003
3.679573e+003,-8.383934e-003
3.681502e+003,-8.433040e-003
3.683430e+003,-8.427808e-003
3.685359e+003,-8.467518e-003
3.687288e+003,-8.258171e-003
3.689216e+003,-8.119039e-003
3.691145e+003,-8.227351e-003
3.693073e+003,-8.208136e-003
3.695001e+003,-8.324520e-003
3.696930e+003,-8.474732e-003
3.698858e+003,-8.546375e-003
3.700787e+003,-8.259407e-003
3.702716e+003,-8.048790e-003
3.704644e+003,-8.120568e-003
3.706573e+003,-8.180109e-003
3.708501e+003,-8.036918e-003
3.710429e+003,-7.784504e-003
3.712358e+003,-7.704337e-003
3.714286e+003,-7.894233e-003
3.716215e+003,-8.209632e-003
3.718144e+003,-8.239836e-003
3.720072e+003,-7.970591e-003
3.722000e+003,-7.842626e-003
3.723929e+003,-7.949445e-003
3.725857e+003,-7.887401e-003
3.727786e+003,-7.544904e-003
3.729714e+003,-7.695613e-003
3.731643e+003,-7.873734e-003
3.733572e+003,-7.813077e-003
3.735500e+003,-7.663060e-003
3.737428e+003,-7.620965e-003
3.739357e+003,-7.688224e-003
3.741285e+003,-7.856228e-003
3.743214e+003,-7.713647e-003
3.745142e+003,-7.321461e-003
3.747071e+003,-7.449906e-003
3.749000e+003,-7.247726e-003
3.750928e+003,-6.984908e-003
3.752856e+003,-7.056047e-003
3.754785e+003,-7.326120e-003
3.756713e+003,-7.289890e-003
3.758642e+003,-7.167525e-003
3.760570e+003,-7.164168e-003
3.762499e+003,-7.287544e-003
3.764427e+003,-7.284123e-003
3.766356e+003,-7.133922e-003
3.768284e+003,-6.894908e-003
3.770213e+003,-6.821655e-003
3.772141e+003,-6.947410e-003
3.774070e+003,-6.993320e-003
3.775998e+003,-7.000428e-003
3.777927e+003,-7.173978e-003
3.779855e+003,-7.425901e-003
3.781784e+003,-7.461207e-003
3.783712e+003,-7.202267e-003
3.785641e+003,-7.003982e-003
3.787569e+003,-7.035867e-003
3.789498e+003,-7.061427e-003
3.791426e+003,-7.049462e-003
3.793355e+003,-7.173229e-003
3.795283e+003,-7.102142e-003
3.797212e+003,-7.070848e-003
3.799140e+003,-7.153771e-003
3.801069e+003,-6.978811e-003
3.802997e+003,-6.889038e-003
3.804926e+003,-6.966062e-003
3.806854e+003,-6.808966e-003
3.808783e+003,-7.044213e-003
3.810711e+003,-7.160485e-003
3.812640e+003,-7.279040e-003
3.814568e+003,-7.152793e-003
3.816497e+003,-6.672143e-003
3.818425e+003,-6.582926e-003
3.820354e+003,-6.350596e-003
3.822282e+003,-6.290021e-003
3.824211e+003,-6.581001e-003
3.826139e+003,-6.727152e-003
3.828068e+003,-6.607043e-003
3.829996e+003,-6.485465e-003
3.831925e+003,-6.568142e-003
3.833853e+003,-6.675993e-003
3.835782e+003,-6.686368e-003
3.837710e+003,-6.510208e-003
3.839639e+003,-6.567065e-003
3.841567e+003,-6.596241e-003
3.843496e+003,-6.594153e-003
3.845424e+003,-6.683628e-003
3.847353e+003,-6.904235e-003
3.849281e+003,-6.740658e-003
3.851210e+003,-6.421872e-003
3.853138e+003,-6.091907e-003
3.855067e+003,-6.221140e-003
3.856995e+003,-6.607304e-003
3.858924e+003,-6.805053e-003
3.860852e+003,-6.598232e-003
3.862781e+003,-6.415930e-003
3.864709e+003,-6.350629e-003
3.866638e+003,-6.375020e-003
3.868566e+003,-6.378351e-003
3.870495e+003,-6.256415e-003
3.872423e+003,-6.301418e-003
3.874352e+003,-6.221859e-003
3.876280e+003,-6.457326e-003
3.878209e+003,-6.685618e-003
3.880137e+003,-6.553651e-003
3.882066e+003,-6.476913e-003
3.883994e+003,-6.348409e-003
3.885923e+003,-6.067631e-003
3.887851e+003,-6.335021e-003
3.889780e+003,-6.356213e-003
3.891708e+003,-6.354841e-003
3.893637e+003,-6.661081e-003
3.895565e+003,-6.620521e-003
3.897494e+003,-6.353339e-003
3.899422e+003,-6.112164e-003
3.901351e+003,-6.020512e-003
3.903279e+003,-5.985349e-003
3.905208e+003,-6.103212e-003
3.907136e+003,-6.380734e-003
3.909065e+003,-6.451091e-003
3.910993e+003,-6.405483e-003
3.912922e+003,-6.469927e-003
3.914850e+003,-6.347527e-003
3.916779e+003,-6.285906e-003
3.918707e+003,-6.466891e-003
3.920636e+003,-6.518825e-003
3.922564e+003,-6.539682e-003
3.924493e+003,-6.312260e-003
3.926421e+003,-6.212779e-003
3.928350e+003,-6.377371e-003
3.930278e+003,-6.189391e-003
3.932207e+003,-5.965740e-003
3.934135e+003,-5.927925e-003
3.936064e+003,-5.825545e-003
3.937992e+003,-6.050248e-003
3.939921e+003,-6.409760e-003
3.941849e+003,-6.487065e-003
3.943778e+003,-6.274671e-003
3.945706e+003,-6.133236e-003
3.947635e+003,-6.090862e-003
3.949563e+003,-5.978715e-003
3.951492e+003,-5.935149e-003
3.953420e+003,-6.002277e-003
3.955349e+003,-5.955119e-003
3.957277e+003,-5.978748e-003
3.959206e+003,-6.181519e-003
3.961134e+003,-6.242991e-003
3.963063e+003,-6.092560e-003
3.964991e+003,-6.105989e-003
3.966920e+003,-6.229502e-003
3.968848e+003,-6.016852e-003
3.970777e+003,-5.918937e-003
3.972705e+003,-6.010872e-003
3.974634e+003,-6.036916e-003
3.976562e+003,-5.976558e-003
3.978491e+003,-6.139606e-003
3.980419e+003,-6.081027e-003
3.982348e+003,-6.046261e-003
3.984276e+003,-5.974499e-003
3.986205e+003,-6.093672e-003
3.988133e+003,-5.980087e-003
3.990062e+003,-5.675787e-003
3.991990e+003,-5.660285e-003
3.993919e+003,-5.712479e-003
3.995847e+003,-5.798932e-003
3.997776e+003,-5.955707e-003
3.999704e+003,-6.004271e-003
4.001633e+003,0.000000e+000
