3.991989e+002,-3.406308e-002
4.011274e+002,-3.247281e-002
4.030559e+002,-3.922680e-002
4.049844e+002,-4.414665e-002
4.069129e+002,-3.419133e-002
4.088414e+002,-2.923638e-002
4.107699e+002,-3.257500e-002
4.126984e+002,-3.395247e-002
4.146269e+002,-2.857896e-002
4.165554e+002,-2.143486e-002
4.184839e+002,-1.686818e-002
4.204124e+002,-1.445370e-002
4.223409e+002,-1.649027e-002
4.242694e+002,-1.885888e-002
4.261979e+002,-2.352696e-002
4.281264e+002,-1.790923e-002
4.300549e+002,-1.312122e-002
4.319834e+002,-1.444389e-002
4.339119e+002,-1.396643e-002
4.358404e+002,-1.233787e-002
4.377689e+002,-1.095183e-002
4.396974e+002,-1.683564e-002
4.416259e+002,-2.566731e-002
4.435544e+002,-2.462978e-002
4.454829e+002,-2.229740e-002
4.474114e+002,-1.770391e-002
4.493399e+002,-1.656743e-002
4.512684e+002,-1.878219e-002
4.531969e+002,-1.711391e-002
4.551254e+002,-1.584673e-002
4.570539e+002,-1.585862e-002
4.589824e+002,-1.653091e-002
4.609109e+002,-1.832460e-002
4.628394e+002,-1.771905e-002
4.647679e+002,-1.812250e-002
4.666964e+002,-1.841363e-002
4.686249e+002,-1.718770e-002
4.705533e+002,-1.610293e-002
4.724819e+002,-1.664390e-002
4.744103e+002,-1.769421e-002
4.763389e+002,-1.725821e-002
4.782673e+002,-1.698134e-002
4.801959e+002,-1.825967e-002
4.821243e+002,-1.891953e-002
4.840529e+002,-1.744538e-002
4.859813e+002,-1.951682e-002
4.879099e+002,-2.011860e-002
4.898383e+002,-1.731568e-002
4.917668e+002,-1.681852e-002
4.936953e+002,-1.881176e-002
4.956238e+002,-1.854639e-002
4.975523e+002,-1.707937e-002
4.994808e+002,-1.912495e-002
5.014093e+002,-1.967487e-002
5.033378e+002,-1.860560e-002
5.052663e+002,-1.612956e-002
5.071948e+002,-1.716124e-002
5.091233e+002,-1.983004e-002
5.110518e+002,-1.980348e-002
5.129803e+002,-1.958464e-002
5.149088e+002,-2.104014e-002
5.168373e+002,-2.062025e-002
5.187658e+002,-1.903502e-002
5.206943e+002,-1.978888e-002
5.226228e+002,-1.937178e-002
5.245513e+002,-1.816095e-002
5.264798e+002,-1.871872e-002
5.284083e+002,-1.940600e-002
5.303368e+002,-1.901386e-002
5.322653e+002,-1.960497e-002
5.341938e+002,-1.866055e-002
5.361223e+002,-1.840048e-002
5.380508e+002,-1.914628e-002
5.399792e+002,-1.972927e-002
5.419078e+002,-1.844831e-002
5.438363e+002,-1.753140e-002
5.457648e+002,-1.802864e-002
5.476932e+002,-1.880907e-002
5.496218e+002,-1.883607e-002
5.515503e+002,-1.806033e-002
5.534788e+002,-1.780236e-002
5.554072e+002,-1.795629e-002
5.573358e+002,-1.785810e-002
5.592643e+002,-1.762775e-002
5.611927e+002,-1.707698e-002
5.631212e+002,-1.688077e-002
5.650497e+002,-1.727951e-002
5.669783e+002,-1.796834e-002
5.689067e+002,-1.762451e-002
5.708352e+002,-1.753026e-002
5.727637e+002,-1.714582e-002
5.746923e+002,-1.804364e-002
5.766207e+002,-2.041068e-002
5.785492e+002,-1.874538e-002
5.804777e+002,-1.078305e-002
5.824063e+002,-1.226459e-002
5.843347e+002,-1.813721e-002
5.862632e+002,-1.843627e-002
5.881917e+002,-1.804504e-002
5.901202e+002,-1.739199e-002
5.920487e+002,-1.654211e-002
5.939772e+002,-1.567367e-002
5.959057e+002,-1.476847e-002
5.978342e+002,-1.495245e-002
5.997627e+002,-1.529763e-002
6.016912e+002,-1.479550e-002
6.036197e+002,-1.374569e-002
6.055482e+002,-1.209075e-002
6.074767e+002,-1.043170e-002
6.094052e+002,-1.015313e-002
6.113337e+002,-1.178215e-002
6.132622e+002,-1.289229e-002
6.151907e+002,-1.238894e-002
6.171192e+002,-1.306132e-002
6.190477e+002,-1.306048e-002
6.209762e+002,-1.219904e-002
6.229047e+002,-1.371555e-002
6.248332e+002,-1.604524e-002
6.267617e+002,-1.765365e-002
6.286902e+002,-1.808541e-002
6.306187e+002,-1.739642e-002
6.325472e+002,-1.692523e-002
6.344756e+002,-1.687943e-002
6.364042e+002,-1.667270e-002
6.383326e+002,-1.686955e-002
6.402612e+002,-1.701719e-002
6.421896e+002,-1.675043e-002
6.441182e+002,-1.664572e-002
6.460466e+002,-1.699345e-002
6.479752e+002,-1.747230e-002
6.499036e+002,-1.723165e-002
6.518322e+002,-1.676194e-002
6.537606e+002,-1.681935e-002
6.556891e+002,-1.745317e-002
6.576177e+002,-1.802292e-002
6.595461e+002,-1.818958e-002
6.614746e+002,-1.805690e-002
6.634031e+002,-1.856804e-002
6.653317e+002,-1.756252e-002
6.672601e+002,-1.597859e-002
6.691886e+002,-1.589973e-002
6.711171e+002,-1.661428e-002
6.730457e+002,-1.669368e-002
6.749741e+002,-1.715585e-002
6.769026e+002,-1.735812e-002
6.788311e+002,-1.734275e-002
6.807596e+002,-1.695789e-002
6.826881e+002,-1.671086e-002
6.846166e+002,-1.641865e-002
6.865451e+002,-1.590002e-002
6.884736e+002,-1.511159e-002
6.904021e+002,-1.511754e-002
6.923306e+002,-1.532741e-002
6.942591e+002,-1.528481e-002
6.961876e+002,-1.526776e-002
6.981161e+002,-1.496420e-002
7.000446e+002,-1.457739e-002
7.019731e+002,-1.446889e-002
7.039016e+002,-1.430310e-002
7.058301e+002,-1.494643e-002
7.077585e+002,-1.519437e-002
7.096871e+002,-1.471533e-002
7.116156e+002,-1.429297e-002
7.135441e+002,-1.463954e-002
7.154725e+002,-1.526091e-002
7.174011e+002,-1.552078e-002
7.193296e+002,-1.519830e-002
7.212581e+002,-1.534792e-002
7.231865e+002,-1.571781e-002
7.251151e+002,-1.550752e-002
7.270436e+002,-1.555736e-002
7.289720e+002,-1.592432e-002
7.309005e+002,-1.592439e-002
7.328290e+002,-1.564961e-002
7.347576e+002,-1.488099e-002
7.366860e+002,-1.428922e-002
7.386145e+002,-1.452429e-002
7.405430e+002,-1.477452e-002
7.424716e+002,-1.456931e-002
7.444000e+002,-1.464736e-002
7.463285e+002,-1.470713e-002
7.482570e+002,-1.461141e-002
7.501855e+002,-1.397073e-002
7.521140e+002,-1.359058e-002
7.540425e+002,-1.303573e-002
7.559710e+002,-1.289516e-002
7.578995e+002,-1.315446e-002
7.598280e+002,-1.326052e-002
7.617565e+002,-1.316487e-002
7.636850e+002,-1.314999e-002
7.656135e+002,-1.280801e-002
7.675420e+002,-1.242218e-002
7.694705e+002,-1.223779e-002
7.713990e+002,-1.225944e-002
7.733275e+002,-1.242044e-002
7.752560e+002,-1.302010e-002
7.771844e+002,-1.301431e-002
7.791130e+002,-1.292783e-002
7.810415e+002,-1.286692e-002
7.829700e+002,-1.271715e-002
7.848984e+002,-1.271677e-002
7.868270e+002,-1.311311e-002
7.887555e+002,-1.359048e-002
7.906840e+002,-1.385232e-002
7.926124e+002,-1.397862e-002
7.945410e+002,-1.451084e-002
7.964695e+002,-1.481887e-002
7.983979e+002,-1.463099e-002
8.003264e+002,-1.456957e-002
8.022549e+002,-1.460465e-002
8.041835e+002,-1.440299e-002
8.061119e+002,-1.433442e-002
8.080404e+002,-1.400512e-002
8.099689e+002,-1.385704e-002
8.118975e+002,-1.428325e-002
8.138259e+002,-1.401715e-002
8.157545e+002,-1.321357e-002
8.176830e+002,-1.344136e-002
8.196115e+002,-1.405036e-002
8.215399e+002,-1.420556e-002
8.234684e+002,-1.418552e-002
8.253970e+002,-1.443504e-002
8.273254e+002,-1.452429e-002
8.292539e+002,-1.447103e-002
8.311824e+002,-1.445011e-002
8.331110e+002,-1.440943e-002
8.350394e+002,-1.429063e-002
8.369679e+002,-1.383627e-002
8.388964e+002,-1.394532e-002
8.408250e+002,-1.439142e-002
8.427534e+002,-1.424702e-002
8.446819e+002,-1.403916e-002
8.466104e+002,-1.429993e-002
8.485389e+002,-1.462179e-002
8.504674e+002,-1.459069e-002
8.523959e+002,-1.461186e-002
8.543244e+002,-1.476664e-002
8.562529e+002,-1.496990e-002
8.581814e+002,-1.515677e-002
8.601099e+002,-1.485038e-002
8.620384e+002,-1.487587e-002
8.639669e+002,-1.560467e-002
8.658954e+002,-1.544750e-002
8.678239e+002,-1.511568e-002
8.697524e+002,-1.564357e-002
8.716809e+002,-1.638266e-002
8.736094e+002,-1.634935e-002
8.755378e+002,-1.585258e-002
8.774664e+002,-1.549965e-002
8.793949e+002,-1.537539e-002
8.813234e+002,-1.514986e-002
8.832518e+002,-1.536726e-002
8.851804e+002,-1.563133e-002
8.871089e+002,-1.577932e-002
8.890374e+002,-1.554828e-002
8.909658e+002,-1.537804e-002
8.928943e+002,-1.483296e-002
8.948229e+002,-1.480651e-002
8.967513e+002,-1.503558e-002
8.986798e+002,-1.519587e-002
9.006083e+002,-1.518646e-002
9.025369e+002,-1.491743e-002
9.044653e+002,-1.469983e-002
9.063938e+002,-1.474717e-002
9.083223e+002,-1.487491e-002
9.102509e+002,-1.506618e-002
9.121793e+002,-1.513639e-002
9.141078e+002,-1.519776e-002
9.160364e+002,-1.518576e-002
9.179648e+002,-1.512842e-002
9.198933e+002,-1.513719e-002
9.218218e+002,-1.517043e-002
9.237504e+002,-1.525000e-002
9.256788e+002,-1.558734e-002
9.276073e+002,-1.570439e-002
9.295358e+002,-1.551321e-002
9.314644e+002,-1.543676e-002
9.333928e+002,-1.549607e-002
9.353213e+002,-1.537670e-002
9.372498e+002,-1.536685e-002
9.391783e+002,-1.563404e-002
9.411068e+002,-1.562295e-002
9.430353e+002,-1.507117e-002
9.449637e+002,-1.492217e-002
9.468923e+002,-1.518643e-002
9.488208e+002,-1.521033e-002
9.507493e+002,-1.494400e-002
9.526777e+002,-1.484824e-002
9.546063e+002,-1.509146e-002
9.565348e+002,-1.517696e-002
9.584633e+002,-1.475783e-002
9.603917e+002,-1.486649e-002
9.623203e+002,-1.512999e-002
9.642488e+002,-1.504448e-002
9.661772e+002,-1.489492e-002
9.681057e+002,-1.471633e-002
9.700343e+002,-1.461186e-002
9.719628e+002,-1.471517e-002
9.738912e+002,-1.492357e-002
9.758197e+002,-1.512602e-002
9.777483e+002,-1.521632e-002
9.796768e+002,-1.513837e-002
9.816052e+002,-1.506042e-002
9.835337e+002,-1.509818e-002
9.854623e+002,-1.522671e-002
9.873907e+002,-1.541949e-002
9.893192e+002,-1.549856e-002
9.912477e+002,-1.539215e-002
9.931763e+002,-1.532268e-002
9.951047e+002,-1.523941e-002
9.970332e+002,-1.509837e-002
9.989617e+002,-1.509764e-002
1.000890e+003,-1.501951e-002
1.002819e+003,-1.494410e-002
1.004747e+003,-1.497560e-002
1.006676e+003,-1.470806e-002
1.008604e+003,-1.442581e-002
1.010533e+003,-1.440187e-002
1.012461e+003,-1.410017e-002
1.014390e+003,-1.366241e-002
1.016318e+003,-1.350701e-002
1.018247e+003,-1.330673e-002
1.020175e+003,-1.301798e-002
1.022104e+003,-1.276989e-002
1.024032e+003,-1.222984e-002
1.025961e+003,-1.162450e-002
1.027889e+003,-1.134963e-002
1.029818e+003,-1.112649e-002
1.031746e+003,-1.071598e-002
1.033675e+003,-1.025942e-002
1.035603e+003,-9.719698e-003
1.037532e+003,-9.486480e-003
1.039460e+003,-9.334347e-003
1.041389e+003,-8.826626e-003
1.043317e+003,-8.492505e-003
1.045246e+003,-8.334986e-003
1.047174e+003,-8.104308e-003
1.049103e+003,-8.035779e-003
1.051031e+003,-7.898040e-003
1.052960e+003,-7.721491e-003
1.054888e+003,-7.681192e-003
1.056817e+003,-7.758467e-003
1.058745e+003,-7.687670e-003
1.060674e+003,-7.683894e-003
1.062602e+003,-7.596806e-003
1.064531e+003,-7.397073e-003
1.066459e+003,-7.482443e-003
1.068388e+003,-7.749549e-003
1.070316e+003,-7.712084e-003
1.072245e+003,-7.623114e-003
1.074173e+003,-7.588536e-003
1.076102e+003,-7.656646e-003
1.078030e+003,-7.933862e-003
1.079959e+003,-8.091591e-003
1.081887e+003,-7.928591e-003
1.083816e+003,-7.834231e-003
1.085744e+003,-7.658469e-003
1.087673e+003,-7.491594e-003
1.089601e+003,-7.640043e-003
1.091530e+003,-7.363032e-003
1.093458e+003,-6.936780e-003
1.095387e+003,-6.859522e-003
1.097315e+003,-6.810565e-003
1.099244e+003,-7.050277e-003
1.101172e+003,-7.033879e-003
1.103101e+003,-6.908442e-003
1.105029e+003,-7.228272e-003
1.106958e+003,-7.272621e-003
1.108886e+003,-7.172316e-003
1.110815e+003,-7.213673e-003
1.112743e+003,-7.116549e-003
1.114672e+003,-7.242284e-003
1.116600e+003,-7.236843e-003
1.118529e+003,-7.206992e-003
1.120457e+003,-7.335145e-003
1.122386e+003,-7.275847e-003
1.124314e+003,-7.173522e-003
1.126243e+003,-7.354952e-003
1.128171e+003,-7.418213e-003
1.130100e+003,-7.530021e-003
1.132028e+003,-7.858897e-003
1.133957e+003,-8.059881e-003
1.135885e+003,-8.195033e-003
1.137814e+003,-8.390727e-003
1.139742e+003,-8.575743e-003
1.141671e+003,-8.763992e-003
1.143599e+003,-8.976275e-003
1.145528e+003,-9.255893e-003
1.147456e+003,-9.595585e-003
1.149385e+003,-9.809341e-003
1.151313e+003,-1.005611e-002
1.153242e+003,-1.033229e-002
1.155170e+003,-1.062672e-002
1.157099e+003,-1.085793e-002
1.159027e+003,-1.096492e-002
1.160956e+003,-1.096815e-002
1.162884e+003,-1.108399e-002
1.164813e+003,-1.108011e-002
1.166741e+003,-1.104497e-002
1.168670e+003,-1.112856e-002
1.170598e+003,-1.115533e-002
1.172526e+003,-1.115659e-002
1.174455e+003,-1.104865e-002
1.176384e+003,-1.102504e-002
1.178312e+003,-1.103366e-002
1.180240e+003,-1.103896e-002
1.182169e+003,-1.113654e-002
1.184098e+003,-1.129889e-002
1.186026e+003,-1.142351e-002
1.187954e+003,-1.160676e-002
1.189883e+003,-1.185399e-002
1.191812e+003,-1.198198e-002
1.193740e+003,-1.194794e-002
1.195668e+003,-1.201234e-002
1.197597e+003,-1.215484e-002
1.199526e+003,-1.214594e-002
1.201454e+003,-1.222649e-002
1.203382e+003,-1.229925e-002
1.205311e+003,-1.229056e-002
1.207240e+003,-1.227587e-002
1.209168e+003,-1.206967e-002
1.211096e+003,-1.201330e-002
1.213025e+003,-1.204885e-002
1.214953e+003,-1.203880e-002
1.216882e+003,-1.215223e-002
1.218810e+003,-1.212706e-002
1.220739e+003,-1.198204e-002
1.222667e+003,-1.183297e-002
1.224596e+003,-1.174713e-002
1.226524e+003,-1.176909e-002
1.228453e+003,-1.169427e-002
1.230381e+003,-1.148321e-002
1.232310e+003,-1.137626e-002
1.234238e+003,-1.132581e-002
1.236167e+003,-1.112187e-002
1.238095e+003,-1.098863e-002
1.240024e+003,-1.098194e-002
1.241952e+003,-1.093151e-002
1.243881e+003,-1.100656e-002
1.245809e+003,-1.108047e-002
1.247738e+003,-1.119744e-002
1.249666e+003,-1.140983e-002
1.251595e+003,-1.136196e-002
1.253523e+003,-1.120377e-002
1.255452e+003,-1.133556e-002
1.257380e+003,-1.156301e-002
1.259309e+003,-1.161469e-002
1.261237e+003,-1.141406e-002
1.263166e+003,-1.126140e-002
1.265094e+003,-1.108803e-002
1.267023e+003,-1.077264e-002
1.268951e+003,-1.047734e-002
1.270880e+003,-1.028485e-002
1.272808e+003,-9.989480e-003
1.274737e+003,-9.756276e-003
1.276665e+003,-9.620507e-003
1.278594e+003,-9.353512e-003
1.280522e+003,-9.205129e-003
1.282451e+003,-9.074217e-003
1.284379e+003,-9.016876e-003
1.286308e+003,-8.597054e-003
1.288236e+003,-8.197829e-003
1.290165e+003,-8.108308e-003
1.292093e+003,-8.045245e-003
1.294022e+003,-7.959856e-003
1.295950e+003,-7.634899e-003
1.297879e+003,-7.525788e-003
1.299807e+003,-7.567599e-003
1.301736e+003,-7.708471e-003
1.303664e+003,-7.799279e-003
1.305593e+003,-7.801394e-003
1.307521e+003,-7.950844e-003
1.309450e+003,-8.281188e-003
1.311378e+003,-8.582598e-003
1.313307e+003,-8.711351e-003
1.315235e+003,-8.845846e-003
1.317164e+003,-9.129539e-003
1.319092e+003,-9.505443e-003
1.321021e+003,-9.896116e-003
1.322949e+003,-1.022443e-002
1.324878e+003,-1.041533e-002
1.326806e+003,-1.054478e-002
1.328735e+003,-1.050788e-002
1.330663e+003,-1.055102e-002
1.332592e+003,-1.065171e-002
1.334520e+003,-1.076841e-002
1.336449e+003,-1.086297e-002
1.338377e+003,-1.088071e-002
1.340306e+003,-1.085066e-002
1.342234e+003,-1.096430e-002
1.344163e+003,-1.110947e-002
1.346091e+003,-1.115233e-002
1.348020e+003,-1.104665e-002
1.349948e+003,-1.101021e-002
1.351877e+003,-1.115882e-002
1.353805e+003,-1.123667e-002
1.355734e+003,-1.132097e-002
1.357662e+003,-1.152123e-002
1.359591e+003,-1.152423e-002
1.361519e+003,-1.147631e-002
1.363448e+003,-1.155649e-002
1.365376e+003,-1.171920e-002
1.367305e+003,-1.174784e-002
1.369233e+003,-1.171543e-002
1.371162e+003,-1.188865e-002
1.373090e+003,-1.196154e-002
1.375019e+003,-1.184961e-002
1.376947e+003,-1.183652e-002
1.378876e+003,-1.178154e-002
1.380804e+003,-1.168440e-002
1.382733e+003,-1.179163e-002
1.384661e+003,-1.202404e-002
1.386590e+003,-1.202062e-002
1.388518e+003,-1.200776e-002
1.390447e+003,-1.219221e-002
1.392375e+003,-1.237126e-002
1.394304e+003,-1.238228e-002
1.396232e+003,-1.244046e-002
1.398161e+003,-1.237548e-002
1.400089e+003,-1.237233e-002
1.402018e+003,-1.251686e-002
1.403946e+003,-1.257098e-002
1.405875e+003,-1.260854e-002
1.407803e+003,-1.267715e-002
1.409732e+003,-1.280846e-002
1.411660e+003,-1.293568e-002
1.413589e+003,-1.300039e-002
1.415517e+003,-1.280448e-002
1.417446e+003,-1.236080e-002
1.419374e+003,-1.194671e-002
1.421303e+003,-1.180050e-002
1.423231e+003,-1.151929e-002
1.425160e+003,-1.095920e-002
1.427088e+003,-1.053427e-002
1.429017e+003,-1.015287e-002
1.430945e+003,-9.786438e-003
1.432874e+003,-9.431819e-003
1.434802e+003,-9.088332e-003
1.436731e+003,-8.652631e-003
1.438659e+003,-8.430538e-003
1.440588e+003,-8.272508e-003
1.442516e+003,-7.889288e-003
1.444445e+003,-7.494199e-003
1.446373e+003,-6.990582e-003
1.448302e+003,-6.441362e-003
1.450230e+003,-6.081844e-003
1.452159e+003,-5.628299e-003
1.454087e+003,-5.149296e-003
1.456016e+003,-4.576923e-003
1.457944e+003,-4.130860e-003
1.459873e+003,-4.168799e-003
1.461801e+003,-4.210213e-003
1.463730e+003,-4.164172e-003
1.465658e+003,-4.126298e-003
1.467587e+003,-4.331576e-003
1.469515e+003,-4.582660e-003
1.471444e+003,-4.588562e-003
1.473372e+003,-4.786805e-003
1.475301e+003,-5.211537e-003
1.477229e+003,-5.620841e-003
1.479158e+003,-6.152902e-003
1.481086e+003,-6.750510e-003
1.483015e+003,-7.272979e-003
1.484943e+003,-7.596709e-003
1.486872e+003,-7.793746e-003
1.488800e+003,-8.078615e-003
1.490729e+003,-8.534224e-003
1.492657e+003,-9.114776e-003
1.494586e+003,-9.290468e-003
1.496514e+003,-9.346929e-003
1.498443e+003,-9.747626e-003
1.500371e+003,-1.020006e-002
1.502300e+003,-1.051703e-002
1.504228e+003,-1.061682e-002
1.506157e+003,-1.035707e-002
1.508085e+003,-1.051748e-002
1.510014e+003,-1.103221e-002
1.511942e+003,-1.121472e-002
1.513871e+003,-1.131280e-002
1.515799e+003,-1.133288e-002
1.517728e+003,-1.126986e-002
1.519656e+003,-1.127577e-002
1.521585e+003,-1.106254e-002
1.523513e+003,-1.113344e-002
1.525442e+003,-1.118607e-002
1.527370e+003,-1.119531e-002
1.529299e+003,-1.124045e-002
1.531227e+003,-1.119444e-002
1.533156e+003,-1.088324e-002
1.535084e+003,-1.074316e-002
1.537013e+003,-1.072215e-002
1.538941e+003,-1.033507e-002
1.540870e+003,-1.001422e-002
1.542798e+003,-1.002079e-002
1.544727e+003,-9.960595e-003
1.546655e+003,-9.964384e-003
1.548584e+003,-9.877622e-003
1.550512e+003,-9.677445e-003
1.552441e+003,-9.597919e-003
1.554369e+003,-9.409220e-003
1.556298e+003,-9.265494e-003
1.558226e+003,-8.690761e-003
1.560155e+003,-8.303781e-003
1.562083e+003,-8.419391e-003
1.564012e+003,-8.124925e-003
1.565940e+003,-7.778125e-003
1.567869e+003,-7.569293e-003
1.569797e+003,-7.264116e-003
1.571726e+003,-7.213868e-003
1.573654e+003,-7.235897e-003
1.575583e+003,-6.951650e-003
1.577511e+003,-6.922301e-003
1.579440e+003,-7.211066e-003
1.581368e+003,-7.145982e-003
1.583297e+003,-7.162702e-003
1.585225e+003,-7.320223e-003
1.587154e+003,-7.384564e-003
1.589082e+003,-7.557180e-003
1.591010e+003,-8.017076e-003
1.592939e+003,-8.360923e-003
1.594868e+003,-8.495039e-003
1.596796e+003,-8.747074e-003
1.598724e+003,-9.075353e-003
1.600653e+003,-9.459345e-003
1.602582e+003,-9.917524e-003
1.604510e+003,-1.024324e-002
1.606438e+003,-1.048876e-002
1.608367e+003,-1.085334e-002
1.610296e+003,-1.109591e-002
1.612224e+003,-1.139188e-002
1.614152e+003,-1.159901e-002
1.616081e+003,-1.163827e-002
1.618010e+003,-1.186373e-002
1.619938e+003,-1.224723e-002
1.621866e+003,-1.235687e-002
1.623795e+003,-1.237581e-002
1.625724e+003,-1.248190e-002
1.627652e+003,-1.257123e-002
1.629580e+003,-1.281464e-002
1.631509e+003,-1.315024e-002
1.633438e+003,-1.317625e-002
1.635366e+003,-1.301039e-002
1.637294e+003,-1.345167e-002
1.639223e+003,-1.403570e-002
1.641151e+003,-1.441443e-002
1.643080e+003,-1.480222e-002
1.645008e+003,-1.496759e-002
1.646937e+003,-1.499461e-002
1.648865e+003,-1.537641e-002
1.650794e+003,-1.563992e-002
1.652722e+003,-1.520726e-002
1.654651e+003,-1.558594e-002
1.656579e+003,-1.625859e-002
1.658508e+003,-1.664275e-002
1.660436e+003,-1.672512e-002
1.662365e+003,-1.667739e-002
1.664293e+003,-1.684287e-002
1.666222e+003,-1.693823e-002
1.668150e+003,-1.683439e-002
1.670079e+003,-1.695910e-002
1.672007e+003,-1.718713e-002
1.673936e+003,-1.720965e-002
1.675864e+003,-1.705959e-002
1.677793e+003,-1.729559e-002
1.679721e+003,-1.729868e-002
1.681650e+003,-1.719044e-002
1.683578e+003,-1.687286e-002
1.685507e+003,-1.693389e-002
1.687435e+003,-1.734921e-002
1.689364e+003,-1.742602e-002
1.691292e+003,-1.740046e-002
1.693221e+003,-1.734762e-002
1.695149e+003,-1.693609e-002
1.697078e+003,-1.667212e-002
1.699006e+003,-1.655824e-002
1.700935e+003,-1.628054e-002
1.702863e+003,-1.663848e-002
1.704792e+003,-1.657020e-002
1.706720e+003,-1.633384e-002
1.708649e+003,-1.640608e-002
1.710577e+003,-1.651416e-002
1.712506e+003,-1.648258e-002
1.714434e+003,-1.632985e-002
1.716363e+003,-1.612458e-002
1.718291e+003,-1.607998e-002
1.720220e+003,-1.637373e-002
1.722148e+003,-1.651040e-002
1.724077e+003,-1.645075e-002
1.726005e+003,-1.647473e-002
1.727934e+003,-1.641042e-002
1.729862e+003,-1.625016e-002
1.731791e+003,-1.621674e-002
1.733719e+003,-1.607305e-002
1.735648e+003,-1.624697e-002
1.737576e+003,-1.648654e-002
1.739505e+003,-1.622983e-002
1.741433e+003,-1.615006e-002
1.743362e+003,-1.621904e-002
1.745290e+003,-1.610261e-002
1.747219e+003,-1.595409e-002
1.749147e+003,-1.591666e-002
1.751076e+003,-1.582475e-002
1.753004e+003,-1.595074e-002
1.754933e+003,-1.602234e-002
1.756861e+003,-1.579696e-002
1.758790e+003,-1.587283e-002
1.760718e+003,-1.590551e-002
1.762647e+003,-1.583900e-002
1.764575e+003,-1.592154e-002
1.766504e+003,-1.581903e-002
1.768432e+003,-1.566204e-002
1.770361e+003,-1.569160e-002
1.772289e+003,-1.559501e-002
1.774218e+003,-1.573663e-002
1.776146e+003,-1.589011e-002
1.778075e+003,-1.586839e-002
1.780003e+003,-1.582545e-002
1.781932e+003,-1.582759e-002
1.783860e+003,-1.582555e-002
1.785789e+003,-1.577619e-002
1.787717e+003,-1.576759e-002
1.789646e+003,-1.569521e-002
1.791574e+003,-1.567367e-002
1.793503e+003,-1.583645e-002
1.795431e+003,-1.597942e-002
1.797360e+003,-1.591471e-002
1.799288e+003,-1.584868e-002
1.801217e+003,-1.580843e-002
1.803145e+003,-1.590388e-002
1.805074e+003,-1.594885e-002
1.807002e+003,-1.596371e-002
1.808931e+003,-1.604626e-002
1.810859e+003,-1.595559e-002
1.812788e+003,-1.587574e-002
1.814716e+003,-1.593423e-002
1.816645e+003,-1.593049e-002
1.818573e+003,-1.597948e-002
1.820502e+003,-1.603438e-002
1.822430e+003,-1.601257e-002
1.824359e+003,-1.587798e-002
1.826287e+003,-1.590069e-002
1.828216e+003,-1.603706e-002
1.830144e+003,-1.605932e-002
1.832073e+003,-1.607908e-002
1.834001e+003,-1.606376e-002
1.835930e+003,-1.612017e-002
1.837858e+003,-1.617844e-002
1.839787e+003,-1.614926e-002
1.841715e+003,-1.608342e-002
1.843644e+003,-1.590449e-002
1.845572e+003,-1.592263e-002
1.847501e+003,-1.599440e-002
1.849429e+003,-1.595757e-002
1.851358e+003,-1.596965e-002
1.853286e+003,-1.602675e-002
1.855215e+003,-1.601560e-002
1.857143e+003,-1.600458e-002
1.859072e+003,-1.604530e-002
1.861000e+003,-1.605434e-002
1.862929e+003,-1.609428e-002
1.864857e+003,-1.606714e-002
1.866786e+003,-1.603269e-002
1.868714e+003,-1.602330e-002
1.870643e+003,-1.603157e-002
1.872571e+003,-1.600474e-002
1.874500e+003,-1.594630e-002
1.876428e+003,-1.601132e-002
1.878357e+003,-1.608505e-002
1.880285e+003,-1.609246e-002
1.882214e+003,-1.606165e-002
1.884142e+003,-1.606392e-002
1.886071e+003,-1.610750e-002
1.887999e+003,-1.613125e-002
1.889928e+003,-1.608620e-002
1.891856e+003,-1.611500e-002
1.893785e+003,-1.611491e-002
1.895713e+003,-1.608470e-002
1.897642e+003,-1.606941e-002
1.899570e+003,-1.608365e-002
1.901499e+003,-1.610533e-002
1.903427e+003,-1.612129e-002
1.905356e+003,-1.620100e-002
1.907284e+003,-1.617097e-002
1.909213e+003,-1.604495e-002
1.911141e+003,-1.603004e-002
1.913070e+003,-1.609233e-002
1.914998e+003,-1.615791e-002
1.916927e+003,-1.618319e-002
1.918855e+003,-1.615325e-002
1.920784e+003,-1.613425e-002
1.922712e+003,-1.617052e-002
1.924641e+003,-1.622632e-002
1.926569e+003,-1.626095e-002
1.928498e+003,-1.627087e-002
1.930426e+003,-1.622035e-002
1.932355e+003,-1.614801e-002
1.934283e+003,-1.610408e-002
1.936212e+003,-1.611743e-002
1.938140e+003,-1.613077e-002
1.940069e+003,-1.617036e-002
1.941997e+003,-1.618667e-002
1.943926e+003,-1.622249e-002
1.945854e+003,-1.627920e-002
1.947783e+003,-1.636326e-002
1.949711e+003,-1.636237e-002
1.951640e+003,-1.631954e-002
1.953568e+003,-1.636613e-002
1.955497e+003,-1.642439e-002
1.957425e+003,-1.641457e-002
1.959354e+003,-1.643913e-002
1.961282e+003,-1.646210e-002
1.963211e+003,-1.646172e-002
1.965139e+003,-1.641983e-002
1.967068e+003,-1.639804e-002
1.968996e+003,-1.642264e-002
1.970925e+003,-1.631610e-002
1.972853e+003,-1.630167e-002
1.974782e+003,-1.635930e-002
1.976710e+003,-1.645145e-002
1.978639e+003,-1.652625e-002
1.980567e+003,-1.645014e-002
1.982496e+003,-1.641591e-002
1.984424e+003,-1.649027e-002
1.986353e+003,-1.649965e-002
1.988281e+003,-1.644695e-002
1.990210e+003,-1.637232e-002
1.992138e+003,-1.624751e-002
1.994067e+003,-1.622664e-002
1.995995e+003,-1.624646e-002
1.997924e+003,-1.620282e-002
1.999852e+003,-1.618862e-002
2.001781e+003,-1.623771e-002
2.003709e+003,-1.625160e-002
2.005638e+003,-1.621626e-002
2.007566e+003,-1.622973e-002
2.009495e+003,-1.626813e-002
2.011423e+003,-1.633161e-002
2.013352e+003,-1.622977e-002
2.015280e+003,-1.617406e-002
2.017208e+003,-1.622367e-002
2.019137e+003,-1.629743e-002
2.021066e+003,-1.630726e-002
2.022994e+003,-1.621815e-002
2.024922e+003,-1.627186e-002
2.026851e+003,-1.632899e-002
2.028780e+003,-1.631543e-002
2.030708e+003,-1.629210e-002
2.032636e+003,-1.623037e-002
2.034565e+003,-1.622392e-002
2.036494e+003,-1.630008e-002
2.038422e+003,-1.629775e-002
2.040350e+003,-1.618457e-002
2.042279e+003,-1.609211e-002
2.044208e+003,-1.609463e-002
2.046136e+003,-1.616343e-002
2.048064e+003,-1.616541e-002
2.049993e+003,-1.613295e-002
2.051921e+003,-1.620697e-002
2.053850e+003,-1.631230e-002
2.055778e+003,-1.628527e-002
2.057707e+003,-1.624857e-002
2.059635e+003,-1.614536e-002
2.061564e+003,-1.609061e-002
2.063492e+003,-1.615366e-002
2.065421e+003,-1.622392e-002
2.067349e+003,-1.615919e-002
2.069278e+003,-1.613240e-002
2.071206e+003,-1.620816e-002
2.073135e+003,-1.620200e-002
2.075063e+003,-1.609597e-002
2.076992e+003,-1.607120e-002
2.078920e+003,-1.607503e-002
2.080849e+003,-1.613505e-002
2.082777e+003,-1.617416e-002
2.084706e+003,-1.612369e-002
2.086634e+003,-1.607477e-002
2.088563e+003,-1.611146e-002
2.090491e+003,-1.602426e-002
2.092420e+003,-1.596725e-002
2.094348e+003,-1.602359e-002
2.096277e+003,-1.599411e-002
2.098205e+003,-1.594952e-002
2.100134e+003,-1.598213e-002
2.102062e+003,-1.598466e-002
2.103991e+003,-1.593062e-002
2.105919e+003,-1.586580e-002
2.107848e+003,-1.585223e-002
2.109776e+003,-1.586983e-002
2.111705e+003,-1.585794e-002
2.113633e+003,-1.584408e-002
2.115562e+003,-1.583779e-002
2.117490e+003,-1.575753e-002
2.119419e+003,-1.570819e-002
2.121347e+003,-1.570058e-002
2.123276e+003,-1.569790e-002
2.125204e+003,-1.575388e-002
2.127133e+003,-1.581328e-002
2.129061e+003,-1.575401e-002
2.130990e+003,-1.575692e-002
2.132918e+003,-1.571752e-002
2.134847e+003,-1.566434e-002
2.136775e+003,-1.568131e-002
2.138704e+003,-1.566453e-002
2.140632e+003,-1.557820e-002
2.142561e+003,-1.560850e-002
2.144489e+003,-1.570838e-002
2.146418e+003,-1.562512e-002
2.148346e+003,-1.551404e-002
2.150275e+003,-1.552459e-002
2.152203e+003,-1.553642e-002
2.154132e+003,-1.547148e-002
2.156060e+003,-1.543915e-002
2.157989e+003,-1.554396e-002
2.159917e+003,-1.554518e-002
2.161846e+003,-1.547145e-002
2.163774e+003,-1.548542e-002
2.165703e+003,-1.553754e-002
2.167631e+003,-1.551196e-002
2.169560e+003,-1.542588e-002
2.171488e+003,-1.528618e-002
2.173417e+003,-1.528481e-002
2.175345e+003,-1.534187e-002
2.177274e+003,-1.542326e-002
2.179202e+003,-1.545281e-002
2.181131e+003,-1.542895e-002
2.183059e+003,-1.536215e-002
2.184988e+003,-1.535316e-002
2.186916e+003,-1.542972e-002
2.188845e+003,-1.546128e-002
2.190773e+003,-1.536295e-002
2.192702e+003,-1.528519e-002
2.194630e+003,-1.534651e-002
2.196559e+003,-1.546873e-002
2.198487e+003,-1.558162e-002
2.200416e+003,-1.555505e-002
2.202344e+003,-1.547094e-002
2.204273e+003,-1.543442e-002
2.206201e+003,-1.537987e-002
2.208130e+003,-1.544542e-002
2.210058e+003,-1.554332e-002
2.211987e+003,-1.560492e-002
2.213915e+003,-1.557040e-002
2.215844e+003,-1.556065e-002
2.217772e+003,-1.557066e-002
2.219701e+003,-1.556839e-002
2.221629e+003,-1.568476e-002
2.223558e+003,-1.572366e-002
2.225486e+003,-1.573385e-002
2.227415e+003,-1.572072e-002
2.229343e+003,-1.570595e-002
2.231272e+003,-1.562838e-002
2.233200e+003,-1.565127e-002
2.235129e+003,-1.568106e-002
2.237057e+003,-1.566904e-002
2.238986e+003,-1.575523e-002
2.240914e+003,-1.579670e-002
2.242843e+003,-1.577718e-002
2.244771e+003,-1.576660e-002
2.246700e+003,-1.579600e-002
2.248628e+003,-1.583523e-002
2.250557e+003,-1.585590e-002
2.252485e+003,-1.592049e-002
2.254414e+003,-1.596016e-002
2.256342e+003,-1.594560e-002
2.258271e+003,-1.593777e-002
2.260199e+003,-1.598022e-002
2.262128e+003,-1.603256e-002
2.264056e+003,-1.598552e-002
2.265985e+003,-1.593528e-002
2.267913e+003,-1.608557e-002
2.269842e+003,-1.615584e-002
2.271770e+003,-1.610906e-002
2.273699e+003,-1.605446e-002
2.275627e+003,-1.596093e-002
2.277556e+003,-1.597188e-002
2.279484e+003,-1.608390e-002
2.281413e+003,-1.610447e-002
2.283341e+003,-1.618747e-002
2.285270e+003,-1.619325e-002
2.287198e+003,-1.609872e-002
2.289127e+003,-1.611944e-002
2.291055e+003,-1.608177e-002
2.292984e+003,-1.607289e-002
2.294912e+003,-1.615095e-002
2.296841e+003,-1.610498e-002
2.298769e+003,-1.607911e-002
2.300698e+003,-1.612174e-002
2.302626e+003,-1.609240e-002
2.304555e+003,-1.601423e-002
2.306483e+003,-1.599146e-002
2.308412e+003,-1.586980e-002
2.310340e+003,-1.575513e-002
2.312269e+003,-1.573685e-002
2.314197e+003,-1.564472e-002
2.316125e+003,-1.548568e-002
2.318054e+003,-1.539893e-002
2.319983e+003,-1.533192e-002
2.321911e+003,-1.523967e-002
2.323840e+003,-1.507159e-002
2.325768e+003,-1.490392e-002
2.327697e+003,-1.480510e-002
2.329625e+003,-1.471642e-002
2.331553e+003,-1.472654e-002
2.333482e+003,-1.472430e-002
2.335411e+003,-1.461596e-002
2.337339e+003,-1.459805e-002
2.339268e+003,-1.456832e-002
2.341196e+003,-1.460203e-002
2.343125e+003,-1.477145e-002
2.345053e+003,-1.493907e-002
2.346981e+003,-1.527515e-002
2.348910e+003,-1.563037e-002
2.350839e+003,-1.542598e-002
2.352767e+003,-1.496253e-002
2.354696e+003,-1.466072e-002
2.356624e+003,-1.436180e-002
2.358552e+003,-1.419046e-002
2.360481e+003,-1.410633e-002
2.362409e+003,-1.411220e-002
2.364338e+003,-1.426107e-002
2.366267e+003,-1.432811e-002
2.368195e+003,-1.442930e-002
2.370124e+003,-1.468051e-002
2.372052e+003,-1.496045e-002
2.373980e+003,-1.521443e-002
2.375909e+003,-1.546301e-002
2.377838e+003,-1.568467e-002
2.379766e+003,-1.586708e-002
2.381695e+003,-1.598341e-002
2.383623e+003,-1.597888e-002
2.385552e+003,-1.587034e-002
2.387480e+003,-1.585303e-002
2.389408e+003,-1.577360e-002
2.391337e+003,-1.570074e-002
2.393266e+003,-1.575328e-002
2.395194e+003,-1.569550e-002
2.397123e+003,-1.573270e-002
2.399051e+003,-1.579795e-002
2.400979e+003,-1.583424e-002
2.402908e+003,-1.584089e-002
2.404836e+003,-1.576216e-002
2.406765e+003,-1.571698e-002
2.408694e+003,-1.574513e-002
2.410622e+003,-1.575890e-002
2.412551e+003,-1.573704e-002
2.414479e+003,-1.570633e-002
2.416407e+003,-1.568642e-002
2.418336e+003,-1.572065e-002
2.420264e+003,-1.572250e-002
2.422193e+003,-1.564465e-002
2.424122e+003,-1.560412e-002
2.426050e+003,-1.563084e-002
2.427979e+003,-1.554304e-002
2.429907e+003,-1.545316e-002
2.431835e+003,-1.540017e-002
2.433764e+003,-1.533851e-002
2.435692e+003,-1.535793e-002
2.437621e+003,-1.535473e-002
2.439550e+003,-1.527035e-002
2.441478e+003,-1.531958e-002
2.443406e+003,-1.537392e-002
2.445335e+003,-1.537369e-002
2.447263e+003,-1.544299e-002
2.449192e+003,-1.544395e-002
2.451121e+003,-1.533634e-002
2.453049e+003,-1.533547e-002
2.454978e+003,-1.527975e-002
2.456906e+003,-1.524504e-002
2.458834e+003,-1.528570e-002
2.460763e+003,-1.527985e-002
2.462691e+003,-1.520166e-002
2.464620e+003,-1.514708e-002
2.466549e+003,-1.507959e-002
2.468477e+003,-1.510266e-002
2.470406e+003,-1.515146e-002
2.472334e+003,-1.517283e-002
2.474262e+003,-1.511392e-002
2.476191e+003,-1.507021e-002
2.478119e+003,-1.506637e-002
2.480048e+003,-1.505408e-002
2.481977e+003,-1.502940e-002
2.483905e+003,-1.498680e-002
2.485833e+003,-1.503888e-002
2.487762e+003,-1.506666e-002
2.489690e+003,-1.497809e-002
2.491619e+003,-1.494835e-002
2.493547e+003,-1.489527e-002
2.495476e+003,-1.490097e-002
2.497405e+003,-1.492626e-002
2.499333e+003,-1.485615e-002
2.501261e+003,-1.468564e-002
2.503190e+003,-1.469355e-002
2.505118e+003,-1.485208e-002
2.507047e+003,-1.487500e-002
2.508975e+003,-1.477484e-002
2.510904e+003,-1.464765e-002
2.512833e+003,-1.461881e-002
2.514761e+003,-1.467581e-002
2.516689e+003,-1.475271e-002
2.518618e+003,-1.480440e-002
2.520546e+003,-1.472786e-002
2.522475e+003,-1.471017e-002
2.524403e+003,-1.477964e-002
2.526332e+003,-1.475252e-002
2.528260e+003,-1.470201e-002
2.530189e+003,-1.473894e-002
2.532117e+003,-1.460302e-002
2.534046e+003,-1.455515e-002
2.535974e+003,-1.459459e-002
2.537903e+003,-1.458940e-002
2.539831e+003,-1.454333e-002
2.541760e+003,-1.457547e-002
2.543688e+003,-1.469390e-002
2.545617e+003,-1.474115e-002
2.547545e+003,-1.457582e-002
2.549474e+003,-1.443959e-002
2.551402e+003,-1.458027e-002
2.553331e+003,-1.465947e-002
2.555259e+003,-1.465197e-002
2.557188e+003,-1.459431e-002
2.559116e+003,-1.456316e-002
2.561045e+003,-1.458873e-002
2.562973e+003,-1.456114e-002
2.564902e+003,-1.455772e-002
2.566830e+003,-1.454173e-002
2.568759e+003,-1.451635e-002
2.570687e+003,-1.450994e-002
2.572616e+003,-1.449738e-002
2.574544e+003,-1.443799e-002
2.576473e+003,-1.450013e-002
2.578401e+003,-1.460110e-002
2.580330e+003,-1.459059e-002
2.582258e+003,-1.449792e-002
2.584187e+003,-1.452625e-002
2.586115e+003,-1.455640e-002
2.588044e+003,-1.448952e-002
2.589972e+003,-1.439526e-002
2.591901e+003,-1.442783e-002
2.593829e+003,-1.443950e-002
2.595758e+003,-1.441584e-002
2.597686e+003,-1.437735e-002
2.599615e+003,-1.430887e-002
2.601543e+003,-1.437539e-002
2.603472e+003,-1.450475e-002
2.605400e+003,-1.449318e-002
2.607329e+003,-1.443773e-002
2.609257e+003,-1.439155e-002
2.611186e+003,-1.432538e-002
2.613114e+003,-1.430515e-002
2.615043e+003,-1.435074e-002
2.616971e+003,-1.428451e-002
2.618900e+003,-1.427594e-002
2.620828e+003,-1.438619e-002
2.622757e+003,-1.429146e-002
2.624685e+003,-1.410162e-002
2.626614e+003,-1.412032e-002
2.628542e+003,-1.427710e-002
2.630471e+003,-1.439607e-002
2.632399e+003,-1.435680e-002
2.634328e+003,-1.429274e-002
2.636256e+003,-1.431718e-002
2.638185e+003,-1.431182e-002
2.640113e+003,-1.419790e-002
2.642042e+003,-1.410912e-002
2.643970e+003,-1.410829e-002
2.645899e+003,-1.404670e-002
2.647827e+003,-1.394904e-002
2.649756e+003,-1.388133e-002
2.651684e+003,-1.392719e-002
2.653613e+003,-1.389272e-002
2.655541e+003,-1.381666e-002
2.657470e+003,-1.377529e-002
2.659398e+003,-1.373150e-002
2.661327e+003,-1.372521e-002
2.663255e+003,-1.373124e-002
2.665184e+003,-1.373108e-002
2.667112e+003,-1.367766e-002
2.669041e+003,-1.364893e-002
2.670969e+003,-1.371776e-002
2.672898e+003,-1.368119e-002
2.674826e+003,-1.365172e-002
2.676755e+003,-1.360561e-002
2.678683e+003,-1.354392e-002
2.680612e+003,-1.348504e-002
2.682540e+003,-1.343875e-002
2.684469e+003,-1.351861e-002
2.686397e+003,-1.343063e-002
2.688326e+003,-1.330767e-002
2.690254e+003,-1.323282e-002
2.692183e+003,-1.322218e-002
2.694111e+003,-1.324580e-002
2.696040e+003,-1.316060e-002
2.697968e+003,-1.305299e-002
2.699897e+003,-1.304984e-002
2.701825e+003,-1.307453e-002
2.703754e+003,-1.305901e-002
2.705682e+003,-1.299045e-002
2.707611e+003,-1.289783e-002
2.709539e+003,-1.284334e-002
2.711468e+003,-1.285099e-002
2.713396e+003,-1.284340e-002
2.715325e+003,-1.283501e-002
2.717253e+003,-1.274306e-002
2.719182e+003,-1.271255e-002
2.721110e+003,-1.270586e-002
2.723039e+003,-1.263039e-002
2.724967e+003,-1.256052e-002
2.726896e+003,-1.240353e-002
2.728824e+003,-1.233030e-002
2.730753e+003,-1.235767e-002
2.732681e+003,-1.230598e-002
2.734610e+003,-1.219311e-002
2.736538e+003,-1.207444e-002
2.738467e+003,-1.204331e-002
2.740395e+003,-1.190700e-002
2.742324e+003,-1.185806e-002
2.744252e+003,-1.190577e-002
2.746181e+003,-1.182572e-002
2.748109e+003,-1.166398e-002
2.750038e+003,-1.153336e-002
2.751966e+003,-1.150393e-002
2.753895e+003,-1.146708e-002
2.755823e+003,-1.140211e-002
2.757752e+003,-1.128555e-002
2.759680e+003,-1.111251e-002
2.761609e+003,-1.091943e-002
2.763537e+003,-1.065126e-002
2.765466e+003,-1.049368e-002
2.767394e+003,-1.029750e-002
2.769323e+003,-9.952564e-003
2.771251e+003,-9.556043e-003
2.773180e+003,-9.132491e-003
2.775108e+003,-8.716743e-003
2.777037e+003,-8.291851e-003
2.778965e+003,-7.844253e-003
2.780894e+003,-7.252353e-003
2.782822e+003,-6.654718e-003
2.784750e+003,-6.099847e-003
2.786679e+003,-5.361291e-003
2.788608e+003,-4.645048e-003
2.790536e+003,-3.937177e-003
2.792465e+003,-3.220652e-003
2.794393e+003,-2.551070e-003
2.796322e+003,-1.939273e-003
2.798250e+003,-1.279374e-003
2.800178e+003,-5.154915e-004
2.802107e+003,1.628180e-004
2.804036e+003,6.582424e-004
2.805964e+003,1.094636e-003
2.807893e+003,1.386817e-003
2.809821e+003,1.449579e-003
2.811750e+003,1.526082e-003
2.813678e+003,1.605159e-003
2.815606e+003,1.467797e-003
2.817535e+003,1.323433e-003
2.819464e+003,1.155429e-003
2.821392e+003,7.681627e-004
2.823321e+003,3.441339e-004
2.825249e+003,-1.795163e-004
2.827177e+003,-6.643923e-004
2.829106e+003,-1.043858e-003
2.831034e+003,-1.638894e-003
2.832963e+003,-2.366666e-003
2.834892e+003,-2.886566e-003
2.836820e+003,-3.386382e-003
2.838749e+003,-3.927622e-003
2.840677e+003,-4.598660e-003
2.842605e+003,-5.348986e-003
2.844534e+003,-6.121769e-003
2.846462e+003,-6.927291e-003
2.848391e+003,-7.624742e-003
2.850320e+003,-8.147331e-003
2.852248e+003,-8.381497e-003
2.854177e+003,-8.467258e-003
2.856105e+003,-8.638599e-003
2.858033e+003,-8.791884e-003
2.859962e+003,-8.737137e-003
2.861890e+003,-8.722166e-003
2.863819e+003,-8.736780e-003
2.865748e+003,-8.738403e-003
2.867676e+003,-8.632915e-003
2.869604e+003,-8.549721e-003
2.871533e+003,-8.523145e-003
2.873461e+003,-8.389914e-003
2.875390e+003,-8.181474e-003
2.877319e+003,-8.051847e-003
2.879247e+003,-7.947851e-003
2.881176e+003,-7.903994e-003
2.883104e+003,-7.908419e-003
2.885032e+003,-7.947461e-003
2.886961e+003,-7.955171e-003
2.888889e+003,-7.979082e-003
2.890818e+003,-7.976935e-003
2.892747e+003,-8.176791e-003
2.894675e+003,-8.318993e-003
2.896604e+003,-8.342040e-003
2.898532e+003,-8.448280e-003
2.900460e+003,-8.549850e-003
2.902389e+003,-8.616868e-003
2.904317e+003,-8.703589e-003
2.906246e+003,-8.750158e-003
2.908175e+003,-8.837827e-003
2.910103e+003,-9.002596e-003
2.912031e+003,-9.201009e-003
2.913960e+003,-9.423260e-003
2.915888e+003,-9.674723e-003
2.917817e+003,-9.655540e-003
2.919745e+003,-9.468000e-003
2.921674e+003,-9.172169e-003
2.923603e+003,-8.999286e-003
2.925531e+003,-8.853508e-003
2.927459e+003,-8.607513e-003
2.929388e+003,-8.362354e-003
2.931316e+003,-8.017629e-003
2.933245e+003,-7.793746e-003
2.935173e+003,-7.616960e-003
2.937102e+003,-7.455671e-003
2.939031e+003,-7.413230e-003
2.940959e+003,-7.412252e-003
2.942887e+003,-7.481824e-003
2.944816e+003,-7.498042e-003
2.946744e+003,-7.615691e-003
2.948673e+003,-7.930478e-003
2.950601e+003,-8.337521e-003
2.952530e+003,-8.801334e-003
2.954458e+003,-9.384707e-003
2.956387e+003,-9.852067e-003
2.958315e+003,-1.034791e-002
2.960244e+003,-1.093335e-002
2.962172e+003,-1.155904e-002
2.964101e+003,-1.199835e-002
2.966029e+003,-1.247987e-002
2.967958e+003,-1.304936e-002
2.969886e+003,-1.345767e-002
2.971815e+003,-1.377904e-002
2.973743e+003,-1.420810e-002
2.975672e+003,-1.463576e-002
2.977600e+003,-1.487984e-002
2.979529e+003,-1.505958e-002
2.981457e+003,-1.531929e-002
2.983386e+003,-1.554773e-002
2.985314e+003,-1.584513e-002
2.987243e+003,-1.615386e-002
2.989171e+003,-1.633528e-002
2.991100e+003,-1.637583e-002
2.993028e+003,-1.654797e-002
2.994957e+003,-1.668124e-002
2.996885e+003,-1.670870e-002
2.998814e+003,-1.678814e-002
3.000742e+003,-1.694113e-002
3.002671e+003,-1.704885e-002
3.004599e+003,-1.714458e-002
3.006528e+003,-1.712964e-002
3.008456e+003,-1.714901e-002
3.010385e+003,-1.724544e-002
3.012313e+003,-1.717554e-002
3.014242e+003,-1.710327e-002
3.016170e+003,-1.723872e-002
3.018099e+003,-1.730164e-002
3.020027e+003,-1.723067e-002
3.021956e+003,-1.727455e-002
3.023884e+003,-1.742984e-002
3.025813e+003,-1.759234e-002
3.027741e+003,-1.772586e-002
3.029670e+003,-1.766584e-002
3.031598e+003,-1.756163e-002
3.033527e+003,-1.756898e-002
3.035455e+003,-1.756580e-002
3.037384e+003,-1.757678e-002
3.039312e+003,-1.774237e-002
3.041241e+003,-1.792869e-002
3.043169e+003,-1.797717e-002
3.045098e+003,-1.787028e-002
3.047026e+003,-1.783018e-002
3.048955e+003,-1.790723e-002
3.050883e+003,-1.800648e-002
3.052812e+003,-1.810635e-002
3.054740e+003,-1.814201e-002
3.056669e+003,-1.817598e-002
3.058597e+003,-1.823165e-002
3.060526e+003,-1.829433e-002
3.062454e+003,-1.832114e-002
3.064383e+003,-1.833340e-002
3.066311e+003,-1.829315e-002
3.068240e+003,-1.832536e-002
3.070168e+003,-1.845933e-002
3.072097e+003,-1.859074e-002
3.074025e+003,-1.848489e-002
3.075954e+003,-1.831990e-002
3.077882e+003,-1.838174e-002
3.079811e+003,-1.857935e-002
3.081739e+003,-1.872926e-002
3.083668e+003,-1.872386e-002
3.085596e+003,-1.866883e-002
3.087525e+003,-1.877438e-002
3.089453e+003,-1.883680e-002
3.091382e+003,-1.888305e-002
3.093310e+003,-1.891760e-002
3.095239e+003,-1.891820e-002
3.097167e+003,-1.891341e-002
3.099096e+003,-1.897079e-002
3.101024e+003,-1.905255e-002
3.102953e+003,-1.904145e-002
3.104881e+003,-1.914812e-002
3.106810e+003,-1.921213e-002
3.108738e+003,-1.905538e-002
3.110667e+003,-1.916610e-002
3.112595e+003,-1.926222e-002
3.114524e+003,-1.918652e-002
3.116452e+003,-1.917735e-002
3.118381e+003,-1.917542e-002
3.120309e+003,-1.924862e-002
3.122238e+003,-1.937105e-002
3.124166e+003,-1.951594e-002
3.126095e+003,-1.960317e-002
3.128023e+003,-1.966717e-002
3.129952e+003,-1.960206e-002
3.131880e+003,-1.958676e-002
3.133809e+003,-1.952997e-002
3.135737e+003,-1.954267e-002
3.137666e+003,-1.949867e-002
3.139594e+003,-1.946541e-002
3.141523e+003,-1.948362e-002
3.143451e+003,-1.953846e-002
3.145380e+003,-1.957320e-002
3.147308e+003,-1.956696e-002
3.149237e+003,-1.963471e-002
3.151165e+003,-1.975570e-002
3.153094e+003,-1.982025e-002
3.155022e+003,-1.972632e-002
3.156951e+003,-1.954647e-002
3.158879e+003,-1.941560e-002
3.160808e+003,-1.939304e-002
3.162736e+003,-1.962692e-002
3.164665e+003,-1.976555e-002
3.166593e+003,-1.982222e-002
3.168522e+003,-1.976941e-002
3.170450e+003,-1.976900e-002
3.172379e+003,-1.972151e-002
3.174307e+003,-1.960310e-002
3.176236e+003,-1.957197e-002
3.178164e+003,-1.956798e-002
3.180093e+003,-1.963705e-002
3.182021e+003,-1.970637e-002
3.183950e+003,-1.972018e-002
3.185878e+003,-1.984577e-002
3.187807e+003,-1.985112e-002
3.189735e+003,-1.983950e-002
3.191664e+003,-1.986989e-002
3.193592e+003,-1.995648e-002
3.195521e+003,-2.001236e-002
3.197449e+003,-1.990325e-002
3.199378e+003,-1.986941e-002
3.201306e+003,-1.984868e-002
3.203235e+003,-1.982019e-002
3.205163e+003,-1.977999e-002
3.207092e+003,-1.983222e-002
3.209020e+003,-1.983459e-002
3.210948e+003,-1.973709e-002
3.212877e+003,-1.972034e-002
3.214806e+003,-1.971913e-002
3.216734e+003,-1.978850e-002
3.218663e+003,-1.992509e-002
3.220591e+003,-1.989837e-002
3.222520e+003,-1.969222e-002
3.224448e+003,-1.955971e-002
3.226376e+003,-1.947155e-002
3.228305e+003,-1.940926e-002
3.230234e+003,-1.944358e-002
3.232162e+003,-1.951169e-002
3.234091e+003,-1.946293e-002
3.236019e+003,-1.943258e-002
3.237948e+003,-1.944985e-002
3.239876e+003,-1.933910e-002
3.241804e+003,-1.920852e-002
3.243733e+003,-1.922823e-002
3.245662e+003,-1.912514e-002
3.247590e+003,-1.912057e-002
3.249519e+003,-1.910462e-002
3.251447e+003,-1.913290e-002
3.253375e+003,-1.910250e-002
3.255304e+003,-1.911378e-002
3.257232e+003,-1.902772e-002
3.259161e+003,-1.890253e-002
3.261090e+003,-1.886037e-002
3.263018e+003,-1.884181e-002
3.264947e+003,-1.887544e-002
3.266875e+003,-1.892277e-002
3.268803e+003,-1.887230e-002
3.270732e+003,-1.881198e-002
3.272660e+003,-1.870508e-002
3.274589e+003,-1.870435e-002
3.276518e+003,-1.879022e-002
3.278446e+003,-1.883255e-002
3.280375e+003,-1.883105e-002
3.282303e+003,-1.873929e-002
3.284231e+003,-1.875611e-002
3.286160e+003,-1.876864e-002
3.288088e+003,-1.877892e-002
3.290017e+003,-1.889244e-002
3.291946e+003,-1.905430e-002
3.293874e+003,-1.914635e-002
3.295802e+003,-1.915659e-002
3.297731e+003,-1.912980e-002
3.299659e+003,-1.920896e-002
3.301588e+003,-1.927524e-002
3.303516e+003,-1.934674e-002
3.305445e+003,-1.942393e-002
3.307374e+003,-1.956633e-002
3.309302e+003,-1.970004e-002
3.311230e+003,-1.980788e-002
3.313159e+003,-1.991752e-002
3.315087e+003,-2.001246e-002
3.317016e+003,-2.001376e-002
3.318944e+003,-2.016175e-002
3.320873e+003,-2.023459e-002
3.322802e+003,-2.035121e-002
3.324730e+003,-2.063630e-002
3.326658e+003,-2.064493e-002
3.328587e+003,-2.043502e-002
3.330515e+003,-2.034176e-002
3.332444e+003,-2.042301e-002
3.334372e+003,-2.060252e-002
3.336301e+003,-2.074274e-002
3.338229e+003,-2.078990e-002
3.340158e+003,-2.080964e-002
3.342086e+003,-2.079094e-002
3.344015e+003,-2.069425e-002
3.345943e+003,-2.074170e-002
3.347872e+003,-2.091947e-002
3.349800e+003,-2.090024e-002
3.351729e+003,-2.092152e-002
3.353657e+003,-2.110589e-002
3.355586e+003,-2.120135e-002
3.357514e+003,-2.132166e-002
3.359443e+003,-2.137418e-002
3.361371e+003,-2.125421e-002
3.363300e+003,-2.120258e-002
3.365229e+003,-2.138065e-002
3.367157e+003,-2.146236e-002
3.369085e+003,-2.161743e-002
3.371014e+003,-2.177493e-002
3.372942e+003,-2.179936e-002
3.374871e+003,-2.184880e-002
3.376799e+003,-2.179539e-002
3.378728e+003,-2.187243e-002
3.380656e+003,-2.195969e-002
3.382585e+003,-2.213744e-002
3.384513e+003,-2.231119e-002
3.386442e+003,-2.229658e-002
3.388370e+003,-2.214698e-002
3.390299e+003,-2.225399e-002
3.392227e+003,-2.235506e-002
3.394156e+003,-2.236148e-002
3.396084e+003,-2.242451e-002
3.398013e+003,-2.246155e-002
3.399941e+003,-2.254074e-002
3.401870e+003,-2.259245e-002
3.403798e+003,-2.254728e-002
3.405727e+003,-2.262472e-002
3.407655e+003,-2.262698e-002
3.409584e+003,-2.254240e-002
3.411512e+003,-2.270334e-002
3.413441e+003,-2.291499e-002
3.415369e+003,-2.286573e-002
3.417298e+003,-2.274900e-002
3.419226e+003,-2.275825e-002
3.421155e+003,-2.286573e-002
3.423083e+003,-2.289063e-002
3.425012e+003,-2.298077e-002
3.426940e+003,-2.312443e-002
3.428869e+003,-2.303199e-002
3.430797e+003,-2.299733e-002
3.432726e+003,-2.311874e-002
3.434654e+003,-2.322865e-002
3.436583e+003,-2.340460e-002
3.438511e+003,-2.328895e-002
3.440440e+003,-2.308538e-002
3.442368e+003,-2.305292e-002
3.444297e+003,-2.314946e-002
3.446225e+003,-2.321810e-002
3.448154e+003,-2.323459e-002
3.450082e+003,-2.323236e-002
3.452011e+003,-2.334403e-002
3.453939e+003,-2.347429e-002
3.455868e+003,-2.360611e-002
3.457796e+003,-2.346682e-002
3.459725e+003,-2.328688e-002
3.461653e+003,-2.330101e-002
3.463582e+003,-2.345966e-002
3.465510e+003,-2.363984e-002
3.467439e+003,-2.369372e-002
3.469367e+003,-2.357307e-002
3.471296e+003,-2.351469e-002
3.473224e+003,-2.360235e-002
3.475153e+003,-2.374633e-002
3.477081e+003,-2.367323e-002
3.479010e+003,-2.364352e-002
3.480938e+003,-2.363395e-002
3.482867e+003,-2.354560e-002
3.484795e+003,-2.350273e-002
3.486724e+003,-2.362014e-002
3.488652e+003,-2.371411e-002
3.490581e+003,-2.381860e-002
3.492509e+003,-2.392034e-002
3.494438e+003,-2.374329e-002
3.496366e+003,-2.342858e-002
3.498295e+003,-2.348666e-002
3.500223e+003,-2.363514e-002
3.502152e+003,-2.365108e-002
3.504080e+003,-2.366253e-002
3.506009e+003,-2.356425e-002
3.507937e+003,-2.337113e-002
3.509866e+003,-2.345285e-002
3.511794e+003,-2.370376e-002
3.513723e+003,-2.387236e-002
3.515651e+003,-2.386512e-002
3.517580e+003,-2.375113e-002
3.519508e+003,-2.383978e-002
3.521437e+003,-2.375016e-002
3.523365e+003,-2.358345e-002
3.525294e+003,-2.359864e-002
3.527222e+003,-2.361283e-002
3.529151e+003,-2.360056e-002
3.531079e+003,-2.360435e-002
3.533008e+003,-2.361135e-002
3.534936e+003,-2.359547e-002
3.536865e+003,-2.362409e-002
3.538793e+003,-2.353864e-002
3.540722e+003,-2.337848e-002
3.542650e+003,-2.338912e-002
3.544579e+003,-2.347219e-002
3.546507e+003,-2.350552e-002
3.548436e+003,-2.356114e-002
3.550364e+003,-2.361606e-002
3.552293e+003,-2.365362e-002
3.554221e+003,-2.370737e-002
3.556150e+003,-2.371681e-002
3.558078e+003,-2.372481e-002
3.560007e+003,-2.368352e-002
3.561935e+003,-2.356924e-002
3.563864e+003,-2.358920e-002
3.565792e+003,-2.335480e-002
3.567721e+003,-2.305587e-002
3.569649e+003,-2.335235e-002
3.571578e+003,-2.359820e-002
3.573506e+003,-2.357168e-002
3.575435e+003,-2.335951e-002
3.577363e+003,-2.330839e-002
3.579292e+003,-2.340636e-002
3.581220e+003,-2.352737e-002
3.583149e+003,-2.364264e-002
3.585077e+003,-2.351152e-002
3.587006e+003,-2.336582e-002
3.588934e+003,-2.330990e-002
3.590863e+003,-2.342626e-002
3.592791e+003,-2.344061e-002
3.594720e+003,-2.342485e-002
3.596648e+003,-2.337408e-002
3.598577e+003,-2.325174e-002
3.600505e+003,-2.323616e-002
3.602434e+003,-2.335480e-002
3.604362e+003,-2.341100e-002
3.606291e+003,-2.354215e-002
3.608219e+003,-2.343285e-002
3.610148e+003,-2.321750e-002
3.612076e+003,-2.327708e-002
3.614005e+003,-2.328895e-002
3.615933e+003,-2.341088e-002
3.617862e+003,-2.322482e-002
3.619790e+003,-2.300842e-002
3.621719e+003,-2.322570e-002
3.623647e+003,-2.347828e-002
3.625576e+003,-2.357727e-002
3.627504e+003,-2.318870e-002
3.629433e+003,-2.268646e-002
3.631361e+003,-2.314079e-002
3.633290e+003,-2.355389e-002
3.635218e+003,-2.350744e-002
3.637146e+003,-2.348120e-002
3.639075e+003,-2.362375e-002
3.641004e+003,-2.363846e-002
3.642932e+003,-2.367229e-002
3.644861e+003,-2.390306e-002
3.646789e+003,-2.374426e-002
3.648718e+003,-2.339556e-002
3.650646e+003,-2.316693e-002
3.652574e+003,-2.343207e-002
3.654503e+003,-2.367452e-002
3.656432e+003,-2.362337e-002
3.658360e+003,-2.387594e-002
3.660289e+003,-2.406218e-002
3.662217e+003,-2.418167e-002
3.664146e+003,-2.434059e-002
3.666074e+003,-2.438874e-002
3.668002e+003,-2.422059e-002
3.669931e+003,-2.376459e-002
3.671860e+003,-2.403896e-002
3.673788e+003,-2.431155e-002
3.675717e+003,-2.375361e-002
3.677645e+003,-2.380185e-002
3.679573e+003,-2.403955e-002
3.681502e+003,-2.424719e-002
3.683430e+003,-2.428827e-002
3.685359e+003,-2.422128e-002
3.687288e+003,-2.411983e-002
3.689216e+003,-2.384395e-002
3.691145e+003,-2.379853e-002
3.693073e+003,-2.406212e-002
3.695001e+003,-2.435272e-002
3.696930e+003,-2.433514e-002
3.698858e+003,-2.422930e-002
3.700787e+003,-2.381817e-002
3.702716e+003,-2.372123e-002
3.704644e+003,-2.389488e-002
3.706573e+003,-2.409510e-002
3.708501e+003,-2.429579e-002
3.710429e+003,-2.399735e-002
3.712358e+003,-2.361543e-002
3.714286e+003,-2.383338e-002
3.716215e+003,-2.424027e-002
3.718144e+003,-2.424381e-002
3.720072e+003,-2.421717e-002
3.722000e+003,-2.405855e-002
3.723929e+003,-2.401770e-002
3.725857e+003,-2.384918e-002
3.727786e+003,-2.382528e-002
3.729714e+003,-2.408391e-002
3.731643e+003,-2.398992e-002
3.733572e+003,-2.412507e-002
3.735500e+003,-2.396161e-002
3.737428e+003,-2.386336e-002
3.739357e+003,-2.412017e-002
3.741285e+003,-2.414631e-002
3.743214e+003,-2.375408e-002
3.745142e+003,-2.333998e-002
3.747071e+003,-2.396807e-002
3.749000e+003,-2.358904e-002
3.750928e+003,-2.328628e-002
3.752856e+003,-2.339286e-002
3.754785e+003,-2.380057e-002
3.756713e+003,-2.375543e-002
3.758642e+003,-2.369293e-002
3.760570e+003,-2.372246e-002
3.762499e+003,-2.385266e-002
3.764427e+003,-2.371060e-002
3.766356e+003,-2.370018e-002
3.768284e+003,-2.376697e-002
3.770213e+003,-2.369441e-002
3.772141e+003,-2.380308e-002
3.774070e+003,-2.369243e-002
3.775998e+003,-2.379480e-002
3.777927e+003,-2.393862e-002
3.779855e+003,-2.389908e-002
3.781784e+003,-2.378128e-002
3.783712e+003,-2.371094e-002
3.785641e+003,-2.383865e-002
3.787569e+003,-2.398447e-002
3.789498e+003,-2.386600e-002
3.791426e+003,-2.393351e-002
3.793355e+003,-2.405228e-002
3.795283e+003,-2.385787e-002
3.797212e+003,-2.375725e-002
3.799140e+003,-2.388569e-002
3.801069e+003,-2.349156e-002
3.802997e+003,-2.359441e-002
3.804926e+003,-2.398193e-002
3.806854e+003,-2.369221e-002
3.808783e+003,-2.374922e-002
3.810711e+003,-2.386026e-002
3.812640e+003,-2.387145e-002
3.814568e+003,-2.383890e-002
3.816497e+003,-2.335270e-002
3.818425e+003,-2.337747e-002
3.820354e+003,-2.312468e-002
3.822282e+003,-2.322677e-002
3.824211e+003,-2.366768e-002
3.826139e+003,-2.371261e-002
3.828068e+003,-2.366485e-002
3.829996e+003,-2.361983e-002
3.831925e+003,-2.345897e-002
3.833853e+003,-2.344246e-002
3.835782e+003,-2.348904e-002
3.837710e+003,-2.328895e-002
3.839639e+003,-2.343800e-002
3.841567e+003,-2.352216e-002
3.843496e+003,-2.351234e-002
3.845424e+003,-2.365346e-002
3.847353e+003,-2.390542e-002
3.849281e+003,-2.390272e-002
3.851210e+003,-2.350543e-002
3.853138e+003,-2.279745e-002
3.855067e+003,-2.303802e-002
3.856995e+003,-2.373397e-002
3.858924e+003,-2.376359e-002
3.860852e+003,-2.365033e-002
3.862781e+003,-2.354363e-002
3.864709e+003,-2.326063e-002
3.866638e+003,-2.337053e-002
3.868566e+003,-2.349086e-002
3.870495e+003,-2.334843e-002
3.872423e+003,-2.360272e-002
3.874352e+003,-2.357056e-002
3.876280e+003,-2.384542e-002
3.878209e+003,-2.388625e-002
3.880137e+003,-2.365525e-002
3.882066e+003,-2.362139e-002
3.883994e+003,-2.380621e-002
3.885923e+003,-2.363909e-002
3.887851e+003,-2.380358e-002
3.889780e+003,-2.384087e-002
3.891708e+003,-2.391134e-002
3.893637e+003,-2.391956e-002
3.895565e+003,-2.369774e-002
3.897494e+003,-2.374128e-002
3.899422e+003,-2.354981e-002
3.901351e+003,-2.353358e-002
3.903279e+003,-2.350091e-002
3.905208e+003,-2.345998e-002
3.907136e+003,-2.373319e-002
3.909065e+003,-2.387819e-002
3.910993e+003,-2.402018e-002
3.912922e+003,-2.407563e-002
3.914850e+003,-2.405620e-002
3.916779e+003,-2.393270e-002
3.918707e+003,-2.403689e-002
3.920636e+003,-2.418029e-002
3.922564e+003,-2.431597e-002
3.924493e+003,-2.415136e-002
3.926421e+003,-2.413647e-002
3.928350e+003,-2.419881e-002
3.930278e+003,-2.391799e-002
3.932207e+003,-2.363175e-002
3.934135e+003,-2.354761e-002
3.936064e+003,-2.357630e-002
3.937992e+003,-2.381895e-002
3.939921e+003,-2.399149e-002
3.941849e+003,-2.398603e-002
3.943778e+003,-2.392740e-002
3.945706e+003,-2.400519e-002
3.947635e+003,-2.393132e-002
3.949563e+003,-2.373544e-002
3.951492e+003,-2.380480e-002
3.953420e+003,-2.390046e-002
3.955349e+003,-2.396346e-002
3.957277e+003,-2.410384e-002
3.959206e+003,-2.429457e-002
3.961134e+003,-2.427828e-002
3.963063e+003,-2.411613e-002
3.964991e+003,-2.431493e-002
3.966920e+003,-2.446260e-002
3.968848e+003,-2.436800e-002
3.970777e+003,-2.423905e-002
3.972705e+003,-2.417590e-002
3.974634e+003,-2.418759e-002
3.976562e+003,-2.411193e-002
3.978491e+003,-2.419586e-002
3.980419e+003,-2.427922e-002
3.982348e+003,-2.423422e-002
3.984276e+003,-2.407030e-002
3.986205e+003,-2.419123e-002
3.988133e+003,-2.417045e-002
3.990062e+003,-2.388503e-002
3.991990e+003,-2.398487e-002
3.993919e+003,-2.419897e-002
3.995847e+003,-2.435008e-002
3.997776e+003,-2.435165e-002
3.999704e+003,-2.428273e-002
4.001633e+003,0.000000e+000
