3.991989e+002,1.045867e-002
4.011274e+002,1.660033e-002
4.030559e+002,1.647965e-002
4.049844e+002,1.173740e-002
4.069129e+002,1.030233e-002
4.088414e+002,1.158962e-002
4.107699e+002,9.974968e-003
4.126984e+002,8.994389e-003
4.146269e+002,1.579907e-002
4.165554e+002,2.258664e-002
4.184839e+002,1.784772e-002
4.204124e+002,1.206981e-002
4.223409e+002,1.033412e-002
4.242694e+002,8.365992e-003
4.261979e+002,1.036147e-002
4.281264e+002,9.777353e-003
4.300549e+002,-1.236325e-003
4.319834e+002,6.017822e-003
4.339119e+002,1.120919e-002
4.358404e+002,3.526988e-003
4.377689e+002,8.784811e-003
4.396974e+002,1.112835e-002
4.416259e+002,6.272557e-003
4.435544e+002,8.346739e-003
4.454829e+002,1.056241e-002
4.474114e+002,1.267569e-002
4.493399e+002,1.318243e-002
4.512684e+002,5.897060e-003
4.531969e+002,3.350516e-003
4.551254e+002,5.370432e-003
4.570539e+002,7.564358e-003
4.589824e+002,8.080050e-003
4.609109e+002,7.294611e-003
4.628394e+002,7.108451e-003
4.647679e+002,7.355435e-003
4.666964e+002,6.677920e-003
4.686249e+002,6.777495e-003
4.705533e+002,6.577999e-003
4.724819e+002,6.113481e-003
4.744103e+002,7.487728e-003
4.763389e+002,9.152358e-003
4.782673e+002,6.803612e-003
4.801959e+002,5.438101e-003
4.821243e+002,7.083595e-003
4.840529e+002,8.543670e-003
4.859813e+002,7.564830e-003
4.879099e+002,5.508866e-003
4.898383e+002,3.118780e-003
4.917668e+002,1.837686e-003
4.936953e+002,2.385564e-003
4.956238e+002,9.477059e-004
4.975523e+002,7.045038e-004
4.994808e+002,1.942048e-003
5.014093e+002,1.614804e-003
5.033378e+002,2.369839e-003
5.052663e+002,4.737204e-003
5.071948e+002,4.187257e-003
5.091233e+002,1.937155e-003
5.110518e+002,9.991125e-004
5.129803e+002,-1.194792e-003
5.149088e+002,-1.569899e-003
5.168373e+002,-6.041764e-004
5.187658e+002,9.941641e-004
5.206943e+002,1.472784e-003
5.226228e+002,5.611228e-004
5.245513e+002,-7.523191e-004
5.264798e+002,-6.782540e-004
5.284083e+002,3.854536e-004
5.303368e+002,3.815735e-004
5.322653e+002,-5.481217e-004
5.341938e+002,-2.639649e-004
5.361223e+002,-1.028719e-003
5.380508e+002,-1.616678e-003
5.399792e+002,-1.074135e-003
5.419078e+002,-3.045276e-004
5.438363e+002,-5.427017e-005
5.457648e+002,7.130331e-004
5.476932e+002,2.694302e-004
5.496218e+002,1.108853e-003
5.515503e+002,2.116416e-003
5.534788e+002,2.642011e-003
5.554072e+002,2.522750e-003
5.573358e+002,1.890762e-003
5.592643e+002,1.926239e-003
5.611927e+002,3.648396e-003
5.631212e+002,3.485936e-003
5.650497e+002,2.035082e-003
5.669783e+002,5.968889e-004
5.689067e+002,1.783751e-003
5.708352e+002,3.172781e-003
5.727637e+002,1.993439e-003
5.746923e+002,1.619894e-004
5.766207e+002,4.879740e-004
5.785492e+002,3.071760e-003
5.804777e+002,1.576399e-002
5.824063e+002,1.267439e-002
5.843347e+002,1.692068e-003
5.862632e+002,1.096197e-003
5.881917e+002,4.191158e-004
5.901202e+002,6.245284e-004
5.920487e+002,7.304574e-004
5.939772e+002,-1.112177e-003
5.959057e+002,-2.210139e-003
5.978342e+002,-2.611171e-004
5.997627e+002,7.414434e-004
6.016912e+002,1.507794e-003
6.036197e+002,1.084937e-003
6.055482e+002,2.098637e-003
6.074767e+002,3.593534e-003
6.094052e+002,4.649550e-003
6.113337e+002,4.102256e-003
6.132622e+002,3.796076e-003
6.151907e+002,3.848122e-003
6.171192e+002,4.095432e-003
6.190477e+002,3.177487e-003
6.209762e+002,2.529082e-003
6.229047e+002,1.103605e-003
6.248332e+002,2.296465e-004
6.267617e+002,-1.407867e-003
6.286902e+002,-2.328800e-003
6.306187e+002,-2.042113e-003
6.325472e+002,-1.773650e-003
6.344756e+002,-1.987431e-003
6.364042e+002,-1.275905e-003
6.383326e+002,-7.637304e-004
6.402612e+002,-8.483301e-004
6.421896e+002,-7.953166e-004
6.441182e+002,-7.147092e-004
6.460466e+002,-7.689233e-004
6.479752e+002,-4.133492e-004
6.499036e+002,1.355203e-005
6.518322e+002,6.560590e-006
6.537606e+002,8.811235e-005
6.556891e+002,1.242544e-005
6.576177e+002,-7.696355e-005
6.595461e+002,-1.743826e-004
6.614746e+002,-6.474533e-004
6.634031e+002,-5.396831e-004
6.653317e+002,-1.128068e-004
6.672601e+002,6.830318e-004
6.691886e+002,3.346502e-004
6.711171e+002,1.090910e-004
6.730457e+002,6.732088e-004
6.749741e+002,9.369804e-004
6.769026e+002,1.445224e-003
6.788311e+002,2.443472e-003
6.807596e+002,1.978760e-003
6.826881e+002,1.134134e-003
6.846166e+002,1.514045e-003
6.865451e+002,1.960819e-003
6.884736e+002,1.835789e-003
6.904021e+002,1.728626e-003
6.923306e+002,1.706770e-003
6.942591e+002,1.470457e-003
6.961876e+002,1.379770e-003
6.981161e+002,1.383327e-003
7.000446e+002,1.278435e-003
7.019731e+002,1.436048e-003
7.039016e+002,1.299604e-003
7.058301e+002,4.760656e-004
7.077585e+002,-4.396664e-005
7.096871e+002,2.106842e-004
7.116156e+002,2.150452e-005
7.135441e+002,-4.277485e-004
7.154725e+002,-7.721646e-004
7.174011e+002,-7.206305e-004
7.193296e+002,-4.698846e-004
7.212581e+002,-7.296940e-004
7.231865e+002,-7.933984e-004
7.251151e+002,-7.906532e-004
7.270436e+002,-1.450767e-003
7.289720e+002,-1.512054e-003
7.309005e+002,-1.455291e-003
7.328290e+002,-1.361330e-003
7.347576e+002,-1.232129e-003
7.366860e+002,-1.257074e-003
7.386145e+002,-9.859761e-004
7.405430e+002,-9.991003e-004
7.424716e+002,-1.149356e-003
7.444000e+002,-9.746368e-004
7.463285e+002,-5.217133e-004
7.482570e+002,-8.985022e-005
7.501855e+002,3.735812e-004
7.521140e+002,9.303393e-004
7.540425e+002,1.102841e-003
7.559710e+002,1.477472e-003
7.578995e+002,1.901178e-003
7.598280e+002,2.234366e-003
7.617565e+002,2.346119e-003
7.636850e+002,2.761704e-003
7.656135e+002,2.919090e-003
7.675420e+002,2.623109e-003
7.694705e+002,2.507586e-003
7.713990e+002,2.469396e-003
7.733275e+002,2.903712e-003
7.752560e+002,3.077867e-003
7.771844e+002,2.982807e-003
7.791130e+002,3.019541e-003
7.810415e+002,2.985943e-003
7.829700e+002,2.709488e-003
7.848984e+002,2.509986e-003
7.868270e+002,2.849078e-003
7.887555e+002,2.959287e-003
7.906840e+002,2.952081e-003
7.926124e+002,2.863820e-003
7.945410e+002,2.547479e-003
7.964695e+002,2.250819e-003
7.983979e+002,2.257714e-003
8.003264e+002,2.283761e-003
8.022549e+002,1.853824e-003
8.041835e+002,1.743862e-003
8.061119e+002,2.087117e-003
8.080404e+002,1.951067e-003
8.099689e+002,2.071336e-003
8.118975e+002,2.191305e-003
8.138259e+002,2.101101e-003
8.157545e+002,2.023930e-003
8.176830e+002,2.166630e-003
8.196115e+002,1.976230e-003
8.215399e+002,1.723037e-003
8.234684e+002,1.717182e-003
8.253970e+002,1.478403e-003
8.273254e+002,1.343773e-003
8.292539e+002,1.236067e-003
8.311824e+002,5.030340e-004
8.331110e+002,2.118113e-004
8.350394e+002,5.913480e-004
8.369679e+002,4.463792e-004
8.388964e+002,2.512950e-004
8.408250e+002,3.788873e-004
8.427534e+002,2.925727e-004
8.446819e+002,1.469412e-004
8.466104e+002,1.843969e-004
8.485389e+002,5.864765e-006
8.504674e+002,-1.011464e-004
8.523959e+002,-5.355134e-004
8.543244e+002,-7.606543e-004
8.562529e+002,-3.953079e-004
8.581814e+002,-1.233074e-004
8.601099e+002,-2.345827e-005
8.620384e+002,-1.821327e-004
8.639669e+002,-1.490114e-004
8.658954e+002,-6.062940e-004
8.678239e+002,-1.026967e-003
8.697524e+002,-7.025358e-004
8.716809e+002,-3.397891e-004
8.736094e+002,-4.963196e-005
8.755378e+002,1.457811e-004
8.774664e+002,-2.011433e-004
8.793949e+002,-1.373189e-004
8.813234e+002,-2.689651e-004
8.832518e+002,-1.694807e-004
8.851804e+002,4.245219e-004
8.871089e+002,7.026453e-004
8.890374e+002,3.515287e-004
8.909658e+002,2.948937e-004
8.928943e+002,4.497292e-004
8.948229e+002,4.721184e-004
8.967513e+002,4.018367e-004
8.986798e+002,3.543806e-004
9.006083e+002,4.783544e-004
9.025369e+002,6.873128e-004
9.044653e+002,6.875119e-004
9.063938e+002,6.492164e-004
9.083223e+002,6.098624e-004
9.102509e+002,2.735082e-004
9.121793e+002,-1.367558e-004
9.141078e+002,-2.701241e-004
9.160364e+002,-1.194649e-004
9.179648e+002,-1.537392e-005
9.198933e+002,-1.823977e-004
9.218218e+002,-4.386388e-004
9.237504e+002,-7.139153e-004
9.256788e+002,-7.759352e-004
9.276073e+002,-7.440498e-004
9.295358e+002,-6.736887e-004
9.314644e+002,-8.144988e-004
9.333928e+002,-1.356441e-003
9.353213e+002,-1.737614e-003
9.372498e+002,-1.329950e-003
9.391783e+002,-1.442544e-003
9.411068e+002,-1.634834e-003
9.430353e+002,-1.873922e-003
9.449637e+002,-2.029020e-003
9.468923e+002,-1.845582e-003
9.488208e+002,-1.729990e-003
9.507493e+002,-1.722235e-003
9.526777e+002,-1.903350e-003
9.546063e+002,-2.091941e-003
9.565348e+002,-1.888669e-003
9.584633e+002,-1.561481e-003
9.603917e+002,-1.399974e-003
9.623203e+002,-1.381082e-003
9.642488e+002,-1.571748e-003
9.661772e+002,-1.481874e-003
9.681057e+002,-1.504526e-003
9.700343e+002,-1.387357e-003
9.719628e+002,-1.153453e-003
9.738912e+002,-8.200218e-004
9.758197e+002,-9.918936e-004
9.777483e+002,-9.964887e-004
9.796768e+002,-7.839392e-004
9.816052e+002,-9.969515e-004
9.835337e+002,-1.070400e-003
9.854623e+002,-8.379462e-004
9.873907e+002,-7.721646e-004
9.893192e+002,-7.246661e-004
9.912477e+002,-9.400548e-004
9.931763e+002,-8.237258e-004
9.951047e+002,-7.450752e-004
9.970332e+002,-8.726023e-004
9.989617e+002,-6.576102e-004
1.000890e+003,-3.639574e-004
1.002819e+003,-3.738561e-004
1.004747e+003,-3.006867e-004
1.006676e+003,-2.226037e-004
1.008604e+003,-1.520826e-005
1.010533e+003,3.131633e-004
1.012461e+003,2.651201e-004
1.014390e+003,2.630314e-004
1.016318e+003,6.583752e-004
1.018247e+003,8.705743e-004
1.020175e+003,9.796517e-004
1.022104e+003,1.170312e-003
1.024032e+003,1.537653e-003
1.025961e+003,1.947972e-003
1.027889e+003,2.214917e-003
1.029818e+003,2.407687e-003
1.031746e+003,2.751467e-003
1.033675e+003,3.048069e-003
1.035603e+003,3.023945e-003
1.037532e+003,3.136234e-003
1.039460e+003,3.450332e-003
1.041389e+003,3.560427e-003
1.043317e+003,3.389852e-003
1.045246e+003,3.267014e-003
1.047174e+003,3.360700e-003
1.049103e+003,3.574692e-003
1.051031e+003,3.503873e-003
1.052960e+003,3.517502e-003
1.054888e+003,3.509919e-003
1.056817e+003,3.457713e-003
1.058745e+003,3.411926e-003
1.060674e+003,3.412460e-003
1.062602e+003,3.286411e-003
1.064531e+003,3.363873e-003
1.066459e+003,3.416334e-003
1.068388e+003,3.530362e-003
1.070316e+003,3.492316e-003
1.072245e+003,3.350316e-003
1.074173e+003,3.371352e-003
1.076102e+003,3.423347e-003
1.078030e+003,3.399403e-003
1.079959e+003,3.695645e-003
1.081887e+003,3.818805e-003
1.083816e+003,3.938823e-003
1.085744e+003,4.067203e-003
1.087673e+003,4.147748e-003
1.089601e+003,4.222921e-003
1.091530e+003,4.329430e-003
1.093458e+003,4.148317e-003
1.095387e+003,4.171934e-003
1.097315e+003,4.374311e-003
1.099244e+003,4.425823e-003
1.101172e+003,4.381741e-003
1.103101e+003,4.391983e-003
1.105029e+003,4.483468e-003
1.106958e+003,4.583077e-003
1.108886e+003,4.456653e-003
1.110815e+003,4.374377e-003
1.112743e+003,4.508611e-003
1.114672e+003,4.545039e-003
1.116600e+003,4.385356e-003
1.118529e+003,4.452100e-003
1.120457e+003,4.587228e-003
1.122386e+003,4.674301e-003
1.124314e+003,4.602164e-003
1.126243e+003,4.560608e-003
1.128171e+003,4.379130e-003
1.130100e+003,4.238178e-003
1.132028e+003,4.159457e-003
1.133957e+003,4.017505e-003
1.135885e+003,3.713056e-003
1.137814e+003,3.251891e-003
1.139742e+003,2.750934e-003
1.141671e+003,2.570810e-003
1.143599e+003,2.369306e-003
1.145528e+003,2.138625e-003
1.147456e+003,1.811899e-003
1.149385e+003,1.505899e-003
1.151313e+003,1.344737e-003
1.153242e+003,1.239788e-003
1.155170e+003,1.017744e-003
1.157099e+003,9.536167e-004
1.159027e+003,8.411596e-004
1.160956e+003,6.385646e-004
1.162884e+003,5.860062e-004
1.164813e+003,5.413167e-004
1.166741e+003,5.479518e-004
1.168670e+003,7.235872e-004
1.170598e+003,7.483803e-004
1.172526e+003,6.152377e-004
1.174455e+003,4.401768e-004
1.176384e+003,4.570926e-004
1.178312e+003,5.894236e-004
1.180240e+003,6.070089e-004
1.182169e+003,3.961324e-004
1.184098e+003,3.898644e-004
1.186026e+003,2.865714e-004
1.187954e+003,2.645896e-004
1.189883e+003,3.468862e-004
1.191812e+003,4.838939e-004
1.193740e+003,4.215370e-004
1.195668e+003,4.729808e-004
1.197597e+003,5.829869e-004
1.199526e+003,6.019655e-004
1.201454e+003,5.642083e-004
1.203382e+003,6.267516e-004
1.205311e+003,8.231997e-004
1.207240e+003,9.208428e-004
1.209168e+003,1.038269e-003
1.211096e+003,1.182506e-003
1.213025e+003,1.175263e-003
1.214953e+003,1.273484e-003
1.216882e+003,1.438675e-003
1.218810e+003,1.664094e-003
1.220739e+003,1.756637e-003
1.222667e+003,1.723370e-003
1.224596e+003,1.936622e-003
1.226524e+003,2.287125e-003
1.228453e+003,2.325232e-003
1.230381e+003,2.334093e-003
1.232310e+003,2.595309e-003
1.234238e+003,2.864320e-003
1.236167e+003,3.016805e-003
1.238095e+003,3.036957e-003
1.240024e+003,3.083773e-003
1.241952e+003,3.033354e-003
1.243881e+003,2.989079e-003
1.245809e+003,2.884766e-003
1.247738e+003,2.762137e-003
1.249666e+003,2.632043e-003
1.251595e+003,2.529815e-003
1.253523e+003,2.542880e-003
1.255452e+003,2.524916e-003
1.257380e+003,2.376935e-003
1.259309e+003,2.255216e-003
1.261237e+003,2.413584e-003
1.263166e+003,2.699519e-003
1.265094e+003,3.012467e-003
1.267023e+003,3.249154e-003
1.268951e+003,3.385210e-003
1.270880e+003,3.637270e-003
1.272808e+003,3.841703e-003
1.274737e+003,4.017873e-003
1.276665e+003,4.421237e-003
1.278594e+003,4.794020e-003
1.280522e+003,4.975604e-003
1.282451e+003,5.245121e-003
1.284379e+003,5.602333e-003
1.286308e+003,5.926382e-003
1.288236e+003,6.395239e-003
1.290165e+003,6.796476e-003
1.292093e+003,7.058674e-003
1.294022e+003,7.264893e-003
1.295950e+003,7.289826e-003
1.297879e+003,7.439761e-003
1.299807e+003,7.555221e-003
1.301736e+003,7.384823e-003
1.303664e+003,7.305293e-003
1.305593e+003,7.137013e-003
1.307521e+003,7.007151e-003
1.309450e+003,6.887056e-003
1.311378e+003,6.580387e-003
1.313307e+003,6.293567e-003
1.315235e+003,6.130451e-003
1.317164e+003,5.813637e-003
1.319092e+003,5.461721e-003
1.321021e+003,5.265210e-003
1.322949e+003,4.975604e-003
1.324878e+003,4.693191e-003
1.326806e+003,4.512662e-003
1.328735e+003,4.337396e-003
1.330663e+003,4.255142e-003
1.332592e+003,4.002724e-003
1.334520e+003,3.850094e-003
1.336449e+003,3.898368e-003
1.338377e+003,3.849191e-003
1.340306e+003,3.946313e-003
1.342234e+003,3.984968e-003
1.344163e+003,3.767599e-003
1.346091e+003,3.645723e-003
1.348020e+003,3.550038e-003
1.349948e+003,3.334255e-003
1.351877e+003,3.209330e-003
1.353805e+003,3.170378e-003
1.355734e+003,3.110871e-003
1.357662e+003,3.036957e-003
1.359591e+003,2.847310e-003
1.361519e+003,2.663980e-003
1.363448e+003,2.529582e-003
1.365376e+003,2.496789e-003
1.367305e+003,2.318070e-003
1.369233e+003,2.172923e-003
1.371162e+003,2.118880e-003
1.373090e+003,2.143420e-003
1.375019e+003,2.168594e-003
1.376947e+003,2.242160e-003
1.378876e+003,2.260079e-003
1.380804e+003,2.132599e-003
1.382733e+003,2.019769e-003
1.384661e+003,2.023431e-003
1.386590e+003,1.790372e-003
1.388518e+003,1.494096e-003
1.390447e+003,1.456726e-003
1.392375e+003,1.458422e-003
1.394304e+003,1.403338e-003
1.396232e+003,1.246168e-003
1.398161e+003,1.154465e-003
1.400089e+003,1.018275e-003
1.402018e+003,9.921052e-004
1.403946e+003,1.131642e-003
1.405875e+003,1.191310e-003
1.407803e+003,1.271755e-003
1.409732e+003,1.283686e-003
1.411660e+003,1.301565e-003
1.413589e+003,1.341081e-003
1.415517e+003,1.524652e-003
1.417446e+003,2.006454e-003
1.419374e+003,2.599242e-003
1.421303e+003,3.114909e-003
1.423231e+003,3.645322e-003
1.425160e+003,4.134802e-003
1.427088e+003,4.570318e-003
1.429017e+003,4.963270e-003
1.430945e+003,5.341583e-003
1.432874e+003,5.675005e-003
1.434802e+003,5.859175e-003
1.436731e+003,6.007306e-003
1.438659e+003,6.323521e-003
1.440588e+003,6.609991e-003
1.442516e+003,6.985567e-003
1.444445e+003,7.404606e-003
1.446373e+003,7.855663e-003
1.448302e+003,8.261663e-003
1.450230e+003,8.628159e-003
1.452159e+003,8.947473e-003
1.454087e+003,9.088846e-003
1.456016e+003,9.267394e-003
1.457944e+003,9.702636e-003
1.459873e+003,1.005855e-002
1.461801e+003,1.005031e-002
1.463730e+003,1.006343e-002
1.465658e+003,1.008866e-002
1.467587e+003,9.959542e-003
1.469515e+003,9.767898e-003
1.471444e+003,9.469653e-003
1.473372e+003,9.182443e-003
1.475301e+003,8.918589e-003
1.477229e+003,8.576180e-003
1.479158e+003,8.239477e-003
1.481086e+003,7.959253e-003
1.483015e+003,7.570191e-003
1.484943e+003,7.173392e-003
1.486872e+003,6.784966e-003
1.488800e+003,6.332532e-003
1.490729e+003,5.999075e-003
1.492657e+003,5.555412e-003
1.494586e+003,5.086556e-003
1.496514e+003,4.642551e-003
1.498443e+003,4.363433e-003
1.500371e+003,4.196925e-003
1.502300e+003,3.902413e-003
1.504228e+003,3.487807e-003
1.506157e+003,3.133297e-003
1.508085e+003,3.010866e-003
1.510014e+003,2.930998e-003
1.511942e+003,2.894172e-003
1.513871e+003,2.821563e-003
1.515799e+003,2.755802e-003
1.517728e+003,2.772908e-003
1.519656e+003,2.849345e-003
1.521585e+003,2.835637e-003
1.523513e+003,3.082806e-003
1.525442e+003,3.271321e-003
1.527370e+003,3.395896e-003
1.529299e+003,3.637169e-003
1.531227e+003,3.812855e-003
1.533156e+003,4.044996e-003
1.535084e+003,4.366579e-003
1.537013e+003,4.621285e-003
1.538941e+003,4.806750e-003
1.540870e+003,5.156996e-003
1.542798e+003,5.541183e-003
1.544727e+003,5.913786e-003
1.546655e+003,6.211884e-003
1.548584e+003,6.409362e-003
1.550512e+003,6.637916e-003
1.552441e+003,6.757739e-003
1.554369e+003,6.839189e-003
1.556298e+003,6.961964e-003
1.558226e+003,6.938194e-003
1.560155e+003,7.284065e-003
1.562083e+003,7.872364e-003
1.564012e+003,8.256226e-003
1.565940e+003,8.473725e-003
1.567869e+003,8.746539e-003
1.569797e+003,8.976934e-003
1.571726e+003,9.055452e-003
1.573654e+003,9.127961e-003
1.575583e+003,9.111515e-003
1.577511e+003,8.941148e-003
1.579440e+003,8.900461e-003
1.581368e+003,8.795699e-003
1.583297e+003,8.555092e-003
1.585225e+003,8.325899e-003
1.587154e+003,8.097030e-003
1.589082e+003,7.764813e-003
1.591010e+003,7.246227e-003
1.592939e+003,6.727250e-003
1.594868e+003,6.326111e-003
1.596796e+003,5.943916e-003
1.598724e+003,5.452998e-003
1.600653e+003,4.881066e-003
1.602582e+003,4.366646e-003
1.604510e+003,3.881786e-003
1.606438e+003,3.447961e-003
1.608367e+003,3.063618e-003
1.610296e+003,2.617609e-003
1.612224e+003,2.222943e-003
1.614152e+003,1.874356e-003
1.616081e+003,1.443196e-003
1.618010e+003,1.229122e-003
1.619938e+003,1.136127e-003
1.621866e+003,1.010039e-003
1.623795e+003,7.942197e-004
1.625724e+003,5.981830e-004
1.627652e+003,4.976601e-004
1.629580e+003,3.881399e-004
1.631509e+003,1.167138e-004
1.633438e+003,-1.016102e-004
1.635366e+003,-4.824617e-004
1.637294e+003,-7.416682e-004
1.639223e+003,-9.397242e-004
1.641151e+003,-1.220003e-003
1.643080e+003,-1.460046e-003
1.645008e+003,-1.921955e-003
1.646937e+003,-2.505512e-003
1.648865e+003,-2.781589e-003
1.650794e+003,-3.092891e-003
1.652722e+003,-3.471688e-003
1.654651e+003,-3.737757e-003
1.656579e+003,-3.975658e-003
1.658508e+003,-4.334693e-003
1.660436e+003,-4.667634e-003
1.662365e+003,-4.980929e-003
1.664293e+003,-5.145662e-003
1.666222e+003,-5.383022e-003
1.668150e+003,-5.585744e-003
1.670079e+003,-5.777353e-003
1.672007e+003,-5.904130e-003
1.673936e+003,-5.944954e-003
1.675864e+003,-5.816685e-003
1.677793e+003,-5.717384e-003
1.679721e+003,-5.669083e-003
1.681650e+003,-5.674609e-003
1.683578e+003,-5.615215e-003
1.685507e+003,-5.404358e-003
1.687435e+003,-5.232784e-003
1.689364e+003,-5.009917e-003
1.691292e+003,-4.740563e-003
1.693221e+003,-4.691464e-003
1.695149e+003,-4.732992e-003
1.697078e+003,-4.753640e-003
1.699006e+003,-4.675567e-003
1.700935e+003,-4.639737e-003
1.702863e+003,-4.452676e-003
1.704792e+003,-4.353391e-003
1.706720e+003,-4.353358e-003
1.708649e+003,-4.390982e-003
1.710577e+003,-4.489111e-003
1.712506e+003,-4.541873e-003
1.714434e+003,-4.617839e-003
1.716363e+003,-4.868430e-003
1.718291e+003,-4.854963e-003
1.720220e+003,-4.601348e-003
1.722148e+003,-4.524002e-003
1.724077e+003,-4.580300e-003
1.726005e+003,-4.602889e-003
1.727934e+003,-4.632853e-003
1.729862e+003,-4.659767e-003
1.731791e+003,-4.619543e-003
1.733719e+003,-4.772976e-003
1.735648e+003,-4.834484e-003
1.737576e+003,-4.670879e-003
1.739505e+003,-4.619740e-003
1.741433e+003,-4.586922e-003
1.743362e+003,-4.566988e-003
1.745290e+003,-4.449692e-003
1.747219e+003,-4.385537e-003
1.749147e+003,-4.301067e-003
1.751076e+003,-4.166633e-003
1.753004e+003,-4.071255e-003
1.754933e+003,-3.998574e-003
1.756861e+003,-3.954776e-003
1.758790e+003,-3.963379e-003
1.760718e+003,-4.019093e-003
1.762647e+003,-3.974410e-003
1.764575e+003,-3.869039e-003
1.766504e+003,-3.841814e-003
1.768432e+003,-3.803485e-003
1.770361e+003,-3.738053e-003
1.772289e+003,-3.805554e-003
1.774218e+003,-3.800989e-003
1.776146e+003,-3.585832e-003
1.778075e+003,-3.468894e-003
1.780003e+003,-3.490884e-003
1.781932e+003,-3.608111e-003
1.783860e+003,-3.507877e-003
1.785789e+003,-3.371521e-003
1.787717e+003,-3.461170e-003
1.789646e+003,-3.570748e-003
1.791574e+003,-3.658910e-003
1.793503e+003,-3.610444e-003
1.795431e+003,-3.453544e-003
1.797360e+003,-3.398579e-003
1.799288e+003,-3.488978e-003
1.801217e+003,-3.497688e-003
1.803145e+003,-3.459197e-003
1.805074e+003,-3.363696e-003
1.807002e+003,-3.327792e-003
1.808931e+003,-3.376847e-003
1.810859e+003,-3.368299e-003
1.812788e+003,-3.429810e-003
1.814716e+003,-3.612186e-003
1.816645e+003,-3.620039e-003
1.818573e+003,-3.585372e-003
1.820502e+003,-3.607783e-003
1.822430e+003,-3.547743e-003
1.824359e+003,-3.621945e-003
1.826287e+003,-3.660684e-003
1.828216e+003,-3.632361e-003
1.830144e+003,-3.629010e-003
1.832073e+003,-3.758912e-003
1.834001e+003,-3.810218e-003
1.835930e+003,-3.645044e-003
1.837858e+003,-3.528649e-003
1.839787e+003,-3.519972e-003
1.841715e+003,-3.567659e-003
1.843644e+003,-3.750207e-003
1.845572e+003,-3.812386e-003
1.847501e+003,-3.722416e-003
1.849429e+003,-3.655920e-003
1.851358e+003,-3.648428e-003
1.853286e+003,-3.640116e-003
1.855215e+003,-3.710950e-003
1.857143e+003,-3.682565e-003
1.859072e+003,-3.623720e-003
1.861000e+003,-3.664495e-003
1.862929e+003,-3.604135e-003
1.864857e+003,-3.549288e-003
1.866786e+003,-3.599699e-003
1.868714e+003,-3.606337e-003
1.870643e+003,-3.555795e-003
1.872571e+003,-3.500087e-003
1.874500e+003,-3.475830e-003
1.876428e+003,-3.449435e-003
1.878357e+003,-3.363302e-003
1.880285e+003,-3.266859e-003
1.882214e+003,-3.243443e-003
1.884142e+003,-3.278927e-003
1.886071e+003,-3.327298e-003
1.887999e+003,-3.345580e-003
1.889928e+003,-3.285768e-003
1.891856e+003,-3.127763e-003
1.893785e+003,-3.083811e-003
1.895713e+003,-3.158848e-003
1.897642e+003,-3.155460e-003
1.899570e+003,-3.082626e-003
1.901499e+003,-2.986154e-003
1.903427e+003,-3.066374e-003
1.905356e+003,-3.189077e-003
1.907284e+003,-3.162993e-003
1.909213e+003,-3.048212e-003
1.911141e+003,-3.022054e-003
1.913070e+003,-3.030642e-003
1.914998e+003,-3.013762e-003
1.916927e+003,-3.097793e-003
1.918855e+003,-3.173453e-003
1.920784e+003,-3.139046e-003
1.922712e+003,-3.064268e-003
1.924641e+003,-3.041994e-003
1.926569e+003,-3.022778e-003
1.928498e+003,-2.970523e-003
1.930426e+003,-3.007675e-003
1.932355e+003,-3.191412e-003
1.934283e+003,-3.329140e-003
1.936212e+003,-3.300171e-003
1.938140e+003,-3.182531e-003
1.940069e+003,-3.165065e-003
1.941997e+003,-3.268700e-003
1.943926e+003,-3.265412e-003
1.945854e+003,-3.145592e-003
1.947783e+003,-3.196938e-003
1.949711e+003,-3.211114e-003
1.951640e+003,-3.172039e-003
1.953568e+003,-3.177334e-003
1.955497e+003,-3.180064e-003
1.957425e+003,-3.219172e-003
1.959354e+003,-3.280079e-003
1.961282e+003,-3.273271e-003
1.963211e+003,-3.315921e-003
1.965139e+003,-3.260018e-003
1.967068e+003,-3.230189e-003
1.968996e+003,-3.212298e-003
1.970925e+003,-3.180887e-003
1.972853e+003,-3.210555e-003
1.974782e+003,-3.299184e-003
1.976710e+003,-3.312502e-003
1.978639e+003,-3.262715e-003
1.980567e+003,-3.213317e-003
1.982496e+003,-3.133454e-003
1.984424e+003,-3.058609e-003
1.986353e+003,-2.983587e-003
1.988281e+003,-3.060419e-003
1.990210e+003,-3.043375e-003
1.992138e+003,-2.935935e-003
1.994067e+003,-2.926884e-003
1.995995e+003,-2.885118e-003
1.997924e+003,-2.883900e-003
1.999852e+003,-2.924877e-003
2.001781e+003,-2.897164e-003
2.003709e+003,-2.926160e-003
2.005638e+003,-2.926193e-003
2.007566e+003,-2.800716e-003
2.009495e+003,-2.729107e-003
2.011423e+003,-2.671218e-003
2.013352e+003,-2.618526e-003
2.015280e+003,-2.626496e-003
2.017208e+003,-2.652250e-003
2.019137e+003,-2.527748e-003
2.021066e+003,-2.504128e-003
2.022994e+003,-2.601498e-003
2.024922e+003,-2.608283e-003
2.026851e+003,-2.582757e-003
2.028780e+003,-2.612663e-003
2.030708e+003,-2.655115e-003
2.032636e+003,-2.671910e-003
2.034565e+003,-2.662261e-003
2.036494e+003,-2.579529e-003
2.038422e+003,-2.574523e-003
2.040350e+003,-2.585754e-003
2.042279e+003,-2.599851e-003
2.044208e+003,-2.525376e-003
2.046136e+003,-2.514769e-003
2.048064e+003,-2.523433e-003
2.049993e+003,-2.473654e-003
2.051921e+003,-2.417544e-003
2.053850e+003,-2.379518e-003
2.055778e+003,-2.483274e-003
2.057707e+003,-2.524190e-003
2.059635e+003,-2.533974e-003
2.061564e+003,-2.557427e-003
2.063492e+003,-2.552454e-003
2.065421e+003,-2.534369e-003
2.067349e+003,-2.411250e-003
2.069278e+003,-2.306422e-003
2.071206e+003,-2.300786e-003
2.073135e+003,-2.286679e-003
2.075063e+003,-2.346333e-003
2.076992e+003,-2.264859e-003
2.078920e+003,-2.155050e-003
2.080849e+003,-2.192074e-003
2.082777e+003,-2.148786e-003
2.084706e+003,-2.027866e-003
2.086634e+003,-1.972061e-003
2.088563e+003,-2.012200e-003
2.090491e+003,-1.949994e-003
2.092420e+003,-1.774904e-003
2.094348e+003,-1.773023e-003
2.096277e+003,-1.887845e-003
2.098205e+003,-1.894542e-003
2.100134e+003,-1.737053e-003
2.102062e+003,-1.616051e-003
2.103991e+003,-1.558014e-003
2.105919e+003,-1.486992e-003
2.107848e+003,-1.466453e-003
2.109776e+003,-1.420681e-003
2.111705e+003,-1.383460e-003
2.113633e+003,-1.408957e-003
2.115562e+003,-1.319974e-003
2.117490e+003,-1.267943e-003
2.119419e+003,-1.259750e-003
2.121347e+003,-1.192016e-003
2.123276e+003,-1.127280e-003
2.125204e+003,-1.142812e-003
2.127133e+003,-1.085604e-003
2.129061e+003,-1.124702e-003
2.130990e+003,-1.090760e-003
2.132918e+003,-1.040817e-003
2.134847e+003,-1.027331e-003
2.136775e+003,-9.710332e-004
2.138704e+003,-8.807699e-004
2.140632e+003,-8.643353e-004
2.142561e+003,-8.472388e-004
2.144489e+003,-8.758760e-004
2.146418e+003,-9.435595e-004
2.148346e+003,-9.094711e-004
2.150275e+003,-8.610286e-004
2.152203e+003,-9.118848e-004
2.154132e+003,-9.053710e-004
2.156060e+003,-8.815966e-004
2.157989e+003,-8.675430e-004
2.159917e+003,-9.050073e-004
2.161846e+003,-9.272264e-004
2.163774e+003,-8.743218e-004
2.165703e+003,-8.073221e-004
2.167631e+003,-7.586367e-004
2.169560e+003,-8.015675e-004
2.171488e+003,-8.357635e-004
2.173417e+003,-8.372186e-004
2.175345e+003,-8.472388e-004
2.177274e+003,-8.854985e-004
2.179202e+003,-9.413774e-004
2.181131e+003,-9.492792e-004
2.183059e+003,-9.083799e-004
2.184988e+003,-7.690556e-004
2.186916e+003,-7.647226e-004
2.188845e+003,-9.081154e-004
2.190773e+003,-8.557375e-004
2.192702e+003,-7.873459e-004
2.194630e+003,-7.477875e-004
2.196559e+003,-6.931408e-004
2.198487e+003,-7.052814e-004
2.200416e+003,-7.601251e-004
2.202344e+003,-7.456045e-004
2.204273e+003,-7.736530e-004
2.206201e+003,-8.214769e-004
2.208130e+003,-7.903556e-004
2.210058e+003,-7.375004e-004
2.211987e+003,-7.039913e-004
2.213915e+003,-6.730270e-004
2.215844e+003,-7.211928e-004
2.217772e+003,-7.491768e-004
2.219701e+003,-6.873846e-004
2.221629e+003,-6.958866e-004
2.223558e+003,-7.713377e-004
2.225486e+003,-7.772913e-004
2.227415e+003,-7.790442e-004
2.229343e+003,-8.170784e-004
2.231272e+003,-9.069912e-004
2.233200e+003,-9.853480e-004
2.235129e+003,-9.650493e-004
2.237057e+003,-8.676422e-004
2.238986e+003,-7.394520e-004
2.240914e+003,-7.600589e-004
2.242843e+003,-8.467428e-004
2.244771e+003,-8.581516e-004
2.246700e+003,-8.991217e-004
2.248628e+003,-9.671982e-004
2.250557e+003,-9.915299e-004
2.252485e+003,-9.960920e-004
2.254414e+003,-9.483204e-004
2.256342e+003,-9.173735e-004
2.258271e+003,-9.831330e-004
2.260199e+003,-9.967531e-004
2.262128e+003,-1.019397e-003
2.264056e+003,-1.152363e-003
2.265985e+003,-1.201566e-003
2.267913e+003,-1.124471e-003
2.269842e+003,-1.147934e-003
2.271770e+003,-1.209364e-003
2.273699e+003,-1.257173e-003
2.275627e+003,-1.322980e-003
2.277556e+003,-1.367308e-003
2.279484e+003,-1.398553e-003
2.281413e+003,-1.384153e-003
2.283341e+003,-1.436005e-003
2.285270e+003,-1.494191e-003
2.287198e+003,-1.410212e-003
2.289127e+003,-1.353733e-003
2.291055e+003,-1.249111e-003
2.292984e+003,-1.247889e-003
2.294912e+003,-1.326713e-003
2.296841e+003,-1.295066e-003
2.298769e+003,-1.240224e-003
2.300698e+003,-1.290705e-003
2.302626e+003,-1.274154e-003
2.304555e+003,-1.161285e-003
2.306483e+003,-1.087819e-003
2.308412e+003,-1.013480e-003
2.310340e+003,-8.857961e-004
2.312269e+003,-8.295793e-004
2.314197e+003,-7.915793e-004
2.316125e+003,-6.735894e-004
2.318054e+003,-5.991139e-004
2.319983e+003,-4.673360e-004
2.321911e+003,-1.836894e-004
2.323840e+003,1.225961e-006
2.325768e+003,6.388713e-005
2.327697e+003,1.852919e-004
2.329625e+003,2.217565e-004
2.331553e+003,3.136275e-004
2.333482e+003,4.326478e-004
2.335411e+003,5.679573e-004
2.337339e+003,6.862509e-004
2.339268e+003,6.277471e-004
2.341196e+003,5.549851e-004
2.343125e+003,5.411840e-004
2.345053e+003,4.444554e-004
2.346981e+003,1.956674e-004
2.348910e+003,-5.622482e-005
2.350839e+003,9.928093e-005
2.352767e+003,5.269852e-004
2.354696e+003,8.958738e-004
2.356624e+003,1.237130e-003
2.358552e+003,1.383826e-003
2.360481e+003,1.353412e-003
2.362409e+003,1.335398e-003
2.364338e+003,1.342510e-003
2.366267e+003,1.266605e-003
2.368195e+003,1.109916e-003
2.370124e+003,9.841681e-004
2.372052e+003,7.583378e-004
2.373980e+003,4.651195e-004
2.375909e+003,2.976788e-004
2.377838e+003,2.179441e-004
2.379766e+003,7.956212e-005
2.381695e+003,2.594473e-005
2.383623e+003,5.987734e-005
2.385552e+003,-5.751689e-005
2.387480e+003,-2.547933e-005
2.389408e+003,-2.690401e-005
2.391337e+003,-7.388262e-005
2.393266e+003,-1.610284e-005
2.395194e+003,3.757562e-005
2.397123e+003,1.523107e-004
2.399051e+003,1.745521e-004
2.400979e+003,8.022492e-005
2.402908e+003,1.223150e-004
2.404836e+003,2.375698e-004
2.406765e+003,2.902849e-004
2.408694e+003,2.896549e-004
2.410622e+003,3.192975e-004
2.412551e+003,3.798822e-004
2.414479e+003,3.643290e-004
2.416407e+003,3.656555e-004
2.418336e+003,4.447208e-004
2.420264e+003,4.757671e-004
2.422193e+003,5.407527e-004
2.424122e+003,5.701802e-004
2.426050e+003,6.074402e-004
2.427979e+003,7.063955e-004
2.429907e+003,7.735068e-004
2.431835e+003,7.691917e-004
2.433764e+003,6.398587e-004
2.435692e+003,6.599348e-004
2.437621e+003,8.243284e-004
2.439550e+003,9.778251e-004
2.441478e+003,1.029800e-003
2.443406e+003,9.557087e-004
2.445335e+003,9.236319e-004
2.447263e+003,9.995443e-004
2.449192e+003,1.020633e-003
2.451121e+003,1.076965e-003
2.453049e+003,1.154432e-003
2.454978e+003,1.176293e-003
2.456906e+003,1.207491e-003
2.458834e+003,1.238127e-003
2.460763e+003,1.254841e-003
2.462691e+003,1.360492e-003
2.464620e+003,1.457125e-003
2.466549e+003,1.457425e-003
2.468477e+003,1.408557e-003
2.470406e+003,1.400080e-003
2.472334e+003,1.492666e-003
2.474262e+003,1.530704e-003
2.476191e+003,1.525317e-003
2.478119e+003,1.555410e-003
2.480048e+003,1.548759e-003
2.481977e+003,1.532100e-003
2.483905e+003,1.523156e-003
2.485833e+003,1.570008e-003
2.487762e+003,1.696392e-003
2.489690e+003,1.752678e-003
2.491619e+003,1.696259e-003
2.493547e+003,1.632497e-003
2.495476e+003,1.625313e-003
2.497405e+003,1.691170e-003
2.499333e+003,1.750615e-003
2.501261e+003,1.822979e-003
2.503190e+003,1.893557e-003
2.505118e+003,1.773504e-003
2.507047e+003,1.760230e-003
2.508975e+003,1.892825e-003
2.510904e+003,1.891694e-003
2.512833e+003,1.845206e-003
2.514761e+003,1.911595e-003
2.516689e+003,1.891594e-003
2.518618e+003,1.830931e-003
2.520546e+003,1.946441e-003
2.522475e+003,2.020834e-003
2.524403e+003,2.005122e-003
2.526332e+003,2.048664e-003
2.528260e+003,2.019170e-003
2.530189e+003,2.071170e-003
2.532117e+003,2.134663e-003
2.534046e+003,2.109058e-003
2.535974e+003,2.102865e-003
2.537903e+003,2.030721e-003
2.539831e+003,2.045768e-003
2.541760e+003,2.199398e-003
2.543688e+003,2.270104e-003
2.545617e+003,2.196001e-003
2.547545e+003,2.245357e-003
2.549474e+003,2.391994e-003
2.551402e+003,2.473995e-003
2.553331e+003,2.463898e-003
2.555259e+003,2.364908e-003
2.557188e+003,2.357679e-003
2.559116e+003,2.387063e-003
2.561045e+003,2.401423e-003
2.562973e+003,2.394793e-003
2.564902e+003,2.341855e-003
2.566830e+003,2.397391e-003
2.568759e+003,2.431243e-003
2.570687e+003,2.475261e-003
2.572616e+003,2.519150e-003
2.574544e+003,2.466198e-003
2.576473e+003,2.469996e-003
2.578401e+003,2.469463e-003
2.580330e+003,2.449836e-003
2.582258e+003,2.580976e-003
2.584187e+003,2.625376e-003
2.586115e+003,2.564011e-003
2.588044e+003,2.540114e-003
2.589972e+003,2.535114e-003
2.591901e+003,2.555112e-003
2.593829e+003,2.609909e-003
2.595758e+003,2.598409e-003
2.597686e+003,2.608076e-003
2.599615e+003,2.701386e-003
2.601543e+003,2.730694e-003
2.603472e+003,2.767473e-003
2.605400e+003,2.747066e-003
2.607329e+003,2.689251e-003
2.609257e+003,2.697919e-003
2.611186e+003,2.773742e-003
2.613114e+003,2.915720e-003
2.615043e+003,2.916221e-003
2.616971e+003,2.757869e-003
2.618900e+003,2.726626e-003
2.620828e+003,2.803721e-003
2.622757e+003,2.784213e-003
2.624685e+003,2.741864e-003
2.626614e+003,2.832002e-003
2.628542e+003,2.934568e-003
2.630471e+003,2.984008e-003
2.632399e+003,3.008764e-003
2.634328e+003,3.011967e-003
2.636256e+003,2.948578e-003
2.638185e+003,2.921425e-003
2.640113e+003,3.042630e-003
2.642042e+003,3.112740e-003
2.643970e+003,3.175117e-003
2.645899e+003,3.245916e-003
2.647827e+003,3.267014e-003
2.649756e+003,3.201786e-003
2.651684e+003,3.189503e-003
2.653613e+003,3.249187e-003
2.655541e+003,3.315858e-003
2.657470e+003,3.349381e-003
2.659398e+003,3.324406e-003
2.661327e+003,3.311484e-003
2.663255e+003,3.399470e-003
2.665184e+003,3.444254e-003
2.667112e+003,3.468802e-003
2.669041e+003,3.463759e-003
2.670969e+003,3.487740e-003
2.672898e+003,3.576429e-003
2.674826e+003,3.644620e-003
2.676755e+003,3.695378e-003
2.678683e+003,3.672622e-003
2.680612e+003,3.681143e-003
2.682540e+003,3.787486e-003
2.684469e+003,3.860992e-003
2.686397e+003,3.878977e-003
2.688326e+003,3.883156e-003
2.690254e+003,3.896563e-003
2.692183e+003,3.999113e-003
2.694111e+003,4.079712e-003
2.696040e+003,4.094128e-003
2.697968e+003,4.049979e-003
2.699897e+003,4.044026e-003
2.701825e+003,4.132594e-003
2.703754e+003,4.205456e-003
2.705682e+003,4.212315e-003
2.707611e+003,4.144771e-003
2.709539e+003,4.110919e-003
2.711468e+003,4.254406e-003
2.713396e+003,4.373508e-003
2.715325e+003,4.408384e-003
2.717253e+003,4.333547e-003
2.719182e+003,4.212014e-003
2.721110e+003,4.257986e-003
2.723039e+003,4.387197e-003
2.724967e+003,4.516445e-003
2.726896e+003,4.631131e-003
2.728824e+003,4.601259e-003
2.730753e+003,4.628284e-003
2.732681e+003,4.764975e-003
2.734610e+003,4.800151e-003
2.736538e+003,4.690143e-003
2.738467e+003,4.590309e-003
2.740395e+003,4.604641e-003
2.742324e+003,4.724408e-003
2.744252e+003,4.953451e-003
2.746181e+003,5.066877e-003
2.748109e+003,5.118573e-003
2.750038e+003,5.143215e-003
2.751966e+003,5.192069e-003
2.753895e+003,5.282248e-003
2.755823e+003,5.416729e-003
2.757752e+003,5.559406e-003
2.759680e+003,5.740035e-003
2.761609e+003,5.936862e-003
2.763537e+003,6.068757e-003
2.765466e+003,6.170275e-003
2.767394e+003,6.328632e-003
2.769323e+003,6.507260e-003
2.771251e+003,6.754240e-003
2.773180e+003,6.980820e-003
2.775108e+003,7.166184e-003
2.777037e+003,7.474783e-003
2.778965e+003,7.845777e-003
2.780894e+003,8.225463e-003
2.782822e+003,8.713273e-003
2.784750e+003,9.194016e-003
2.786679e+003,9.477545e-003
2.788608e+003,9.781691e-003
2.790536e+003,1.016782e-002
2.792465e+003,1.056224e-002
2.794393e+003,1.092644e-002
2.796322e+003,1.130094e-002
2.798250e+003,1.161596e-002
2.800178e+003,1.188340e-002
2.802107e+003,1.215066e-002
2.804036e+003,1.235748e-002
2.805964e+003,1.251824e-002
2.807893e+003,1.268070e-002
2.809821e+003,1.273990e-002
2.811750e+003,1.272106e-002
2.813678e+003,1.268074e-002
2.815606e+003,1.260330e-002
2.817535e+003,1.246777e-002
2.819464e+003,1.233320e-002
2.821392e+003,1.214852e-002
2.823321e+003,1.194446e-002
2.825249e+003,1.164935e-002
2.827177e+003,1.132478e-002
2.829106e+003,1.090095e-002
2.831034e+003,1.062611e-002
2.832963e+003,1.038852e-002
2.834892e+003,1.004702e-002
2.836820e+003,9.657405e-003
2.838749e+003,9.244073e-003
2.840677e+003,8.770476e-003
2.842605e+003,8.251600e-003
2.844534e+003,7.753682e-003
2.846462e+003,7.302328e-003
2.848391e+003,6.852350e-003
2.850320e+003,6.566158e-003
2.852248e+003,6.400283e-003
2.854177e+003,6.355159e-003
2.856105e+003,6.287415e-003
2.858033e+003,6.351461e-003
2.859962e+003,6.346384e-003
2.861890e+003,6.357143e-003
2.863819e+003,6.330683e-003
2.865748e+003,6.249194e-003
2.867676e+003,6.203851e-003
2.869604e+003,6.329035e-003
2.871533e+003,6.485029e-003
2.873461e+003,6.461957e-003
2.875390e+003,6.478605e-003
2.877319e+003,6.576048e-003
2.879247e+003,6.747711e-003
2.881176e+003,6.855581e-003
2.883104e+003,6.935467e-003
2.885032e+003,6.724659e-003
2.886961e+003,6.578470e-003
2.888889e+003,6.593373e-003
2.890818e+003,6.602489e-003
2.892747e+003,6.637276e-003
2.894675e+003,6.564274e-003
2.896604e+003,6.402435e-003
2.898532e+003,6.245059e-003
2.900460e+003,6.190676e-003
2.902389e+003,6.128603e-003
2.904317e+003,5.932428e-003
2.906246e+003,5.877580e-003
2.908175e+003,5.945898e-003
2.910103e+003,5.850376e-003
2.912031e+003,5.557896e-003
2.913960e+003,5.279665e-003
2.915888e+003,5.115924e-003
2.917817e+003,5.090411e-003
2.919745e+003,5.200117e-003
2.921674e+003,5.296100e-003
2.923603e+003,5.376638e-003
2.925531e+003,5.332627e-003
2.927459e+003,5.447831e-003
2.929388e+003,5.550915e-003
2.931316e+003,5.546720e-003
2.933245e+003,5.574274e-003
2.935173e+003,5.764881e-003
2.937102e+003,5.995111e-003
2.939031e+003,6.035628e-003
2.940959e+003,5.900284e-003
2.942887e+003,5.812395e-003
2.944816e+003,5.658556e-003
2.946744e+003,5.523229e-003
2.948673e+003,5.249213e-003
2.950601e+003,4.962801e-003
2.952530e+003,4.713556e-003
2.954458e+003,4.424283e-003
2.956387e+003,4.117308e-003
2.958315e+003,3.767365e-003
2.960244e+003,3.514094e-003
2.962172e+003,3.321768e-003
2.964101e+003,2.931298e-003
2.966029e+003,2.562244e-003
2.967958e+003,2.291988e-003
2.969886e+003,2.157505e-003
2.971815e+003,1.899448e-003
2.973743e+003,1.686513e-003
2.975672e+003,1.556773e-003
2.977600e+003,1.466335e-003
2.979529e+003,1.404302e-003
2.981457e+003,1.307913e-003
2.983386e+003,1.109983e-003
2.985314e+003,9.454811e-004
2.987243e+003,8.489281e-004
2.989171e+003,8.553023e-004
2.991100e+003,7.464552e-004
2.993028e+003,5.968558e-004
2.994957e+003,5.418475e-004
2.996885e+003,4.701945e-004
2.998814e+003,4.177892e-004
3.000742e+003,4.087350e-004
3.002671e+003,3.439681e-004
3.004599e+003,3.075596e-004
3.006528e+003,4.015050e-004
3.008456e+003,3.932139e-004
3.010385e+003,2.226847e-004
3.012313e+003,1.899659e-004
3.014242e+003,2.648880e-004
3.016170e+003,2.255688e-004
3.018099e+003,2.544114e-004
3.020027e+003,1.683867e-004
3.021956e+003,9.865124e-005
3.023884e+003,1.180395e-004
3.025813e+003,1.052796e-004
3.027741e+003,2.958970e-005
3.029670e+003,2.286309e-005
3.031598e+003,5.735881e-005
3.033527e+003,5.023411e-005
3.035455e+003,-1.208562e-004
3.037384e+003,-1.146949e-004
3.039312e+003,4.009237e-006
3.041241e+003,-4.307404e-006
3.043169e+003,-1.426517e-004
3.045098e+003,-2.126685e-004
3.047026e+003,-2.489972e-004
3.048955e+003,-2.038259e-004
3.050883e+003,-3.202880e-004
3.052812e+003,-4.079865e-004
3.054740e+003,-4.345674e-004
3.056669e+003,-3.687247e-004
3.058597e+003,-2.939651e-004
3.060526e+003,-3.420736e-004
3.062454e+003,-3.926265e-004
3.064383e+003,-4.537986e-004
3.066311e+003,-5.630791e-004
3.068240e+003,-5.974926e-004
3.070168e+003,-6.416965e-004
3.072097e+003,-6.023234e-004
3.074025e+003,-6.343185e-004
3.075954e+003,-7.737522e-004
3.077882e+003,-7.946882e-004
3.079811e+003,-7.367066e-004
3.081739e+003,-6.967466e-004
3.083668e+003,-7.529475e-004
3.085596e+003,-9.045444e-004
3.087525e+003,-9.692810e-004
3.089453e+003,-7.803341e-004
3.091382e+003,-7.588351e-004
3.093310e+003,-8.860937e-004
3.095239e+003,-9.601233e-004
3.097167e+003,-9.301360e-004
3.099096e+003,-8.590444e-004
3.101024e+003,-9.192581e-004
3.102953e+003,-1.005282e-003
3.104881e+003,-9.667024e-004
3.106810e+003,-1.001348e-003
3.108738e+003,-1.016786e-003
3.110667e+003,-1.034206e-003
3.112595e+003,-1.023893e-003
3.114524e+003,-9.134388e-004
3.116452e+003,-8.586145e-004
3.118381e+003,-9.602886e-004
3.120309e+003,-1.057807e-003
3.122238e+003,-1.124702e-003
3.124166e+003,-1.090297e-003
3.126095e+003,-9.740416e-004
3.128023e+003,-9.644211e-004
3.129952e+003,-1.024025e-003
3.131880e+003,-1.083225e-003
3.133809e+003,-1.232955e-003
3.135737e+003,-1.247426e-003
3.137666e+003,-1.153189e-003
3.139594e+003,-1.184516e-003
3.141523e+003,-1.206720e-003
3.143451e+003,-1.124074e-003
3.145380e+003,-1.125363e-003
3.147308e+003,-1.082530e-003
3.149237e+003,-1.162276e-003
3.151165e+003,-1.261203e-003
3.153094e+003,-1.264970e-003
3.155022e+003,-1.303226e-003
3.156951e+003,-1.429862e-003
3.158879e+003,-1.321890e-003
3.160808e+003,-1.220267e-003
3.162736e+003,-1.276533e-003
3.164665e+003,-1.328364e-003
3.166593e+003,-1.310956e-003
3.168522e+003,-1.247525e-003
3.170450e+003,-1.210652e-003
3.172379e+003,-1.127115e-003
3.174307e+003,-1.033281e-003
3.176236e+003,-1.009778e-003
3.178164e+003,-1.088447e-003
3.180093e+003,-1.164953e-003
3.182021e+003,-1.436897e-003
3.183950e+003,-1.473090e-003
3.185878e+003,-1.318653e-003
3.187807e+003,-1.255785e-003
3.189735e+003,-1.353601e-003
3.191664e+003,-1.476524e-003
3.193592e+003,-1.517932e-003
3.195521e+003,-1.377845e-003
3.197449e+003,-1.172818e-003
3.199378e+003,-1.206522e-003
3.201306e+003,-1.278944e-003
3.203235e+003,-1.214386e-003
3.205163e+003,-1.138946e-003
3.207092e+003,-1.148331e-003
3.209020e+003,-1.169613e-003
3.210948e+003,-1.106162e-003
3.212877e+003,-1.032851e-003
3.214806e+003,-1.028719e-003
3.216734e+003,-1.000952e-003
3.218663e+003,-9.643220e-004
3.220591e+003,-9.929514e-004
3.222520e+003,-9.377736e-004
3.224448e+003,-9.233580e-004
3.226376e+003,-8.983942e-004
3.228305e+003,-7.441160e-004
3.230234e+003,-5.645683e-004
3.232162e+003,-4.979841e-004
3.234091e+003,-4.405586e-004
3.236019e+003,-3.273734e-004
3.237948e+003,-3.390939e-004
3.239876e+003,-4.436038e-004
3.241804e+003,-3.961686e-004
3.243733e+003,-2.308829e-004
3.245662e+003,-1.102230e-004
3.247590e+003,-4.346968e-005
3.249519e+003,-6.139304e-005
3.251447e+003,-1.045584e-004
3.253375e+003,-1.421880e-004
3.255304e+003,-6.430841e-005
3.257232e+003,1.333187e-004
3.259161e+003,1.924189e-004
3.261090e+003,2.317019e-004
3.263018e+003,2.797082e-004
3.264947e+003,3.408511e-004
3.266875e+003,4.453178e-004
3.268803e+003,5.058537e-004
3.270732e+003,5.798018e-004
3.272660e+003,5.392598e-004
3.274589e+003,5.097349e-004
3.276518e+003,5.073464e-004
3.278446e+003,4.619353e-004
3.280375e+003,4.799466e-004
3.282303e+003,4.915565e-004
3.284231e+003,4.372912e-004
3.286160e+003,4.300939e-004
3.288088e+003,3.480137e-004
3.290017e+003,3.261945e-004
3.291946e+003,3.260951e-004
3.293874e+003,3.211213e-004
3.295802e+003,3.124338e-004
3.297731e+003,2.473166e-004
3.299659e+003,5.632791e-007
3.301588e+003,-1.053866e-004
3.303516e+003,-3.200894e-004
3.305445e+003,-4.209627e-004
3.307374e+003,-4.285099e-004
3.309302e+003,-5.198931e-004
3.311230e+003,-7.522198e-004
3.313159e+003,-8.499505e-004
3.315087e+003,-7.154039e-004
3.317016e+003,-7.512937e-004
3.318944e+003,-9.883894e-004
3.320873e+003,-1.049709e-003
3.322802e+003,-1.036586e-003
3.324730e+003,-1.070268e-003
3.326658e+003,-1.175197e-003
3.328587e+003,-1.303127e-003
3.330515e+003,-1.285981e-003
3.332444e+003,-1.314457e-003
3.334372e+003,-1.510238e-003
3.336301e+003,-1.626945e-003
3.338229e+003,-1.628727e-003
3.340158e+003,-1.659425e-003
3.342086e+003,-1.755302e-003
3.344015e+003,-1.774013e-003
3.345943e+003,-1.718934e-003
3.347872e+003,-1.829712e-003
3.349800e+003,-1.814138e-003
3.351729e+003,-1.809386e-003
3.353657e+003,-1.964474e-003
3.355586e+003,-2.036276e-003
3.357514e+003,-2.036078e-003
3.359443e+003,-2.062196e-003
3.361371e+003,-2.131443e-003
3.363300e+003,-2.264596e-003
3.365229e+003,-2.263969e-003
3.367157e+003,-2.382978e-003
3.369085e+003,-2.579991e-003
3.371014e+003,-2.702502e-003
3.372942e+003,-2.848384e-003
3.374871e+003,-2.873532e-003
3.376799e+003,-2.887191e-003
3.378728e+003,-3.006326e-003
3.380656e+003,-3.259985e-003
3.382585e+003,-3.377801e-003
3.384513e+003,-3.326739e-003
3.386442e+003,-3.357647e-003
3.388370e+003,-3.347125e-003
3.390299e+003,-3.393187e-003
3.392227e+003,-3.634826e-003
3.394156e+003,-3.739991e-003
3.396084e+003,-3.743079e-003
3.398013e+003,-3.771788e-003
3.399941e+003,-3.704019e-003
3.401870e+003,-3.709834e-003
3.403798e+003,-3.817805e-003
3.405727e+003,-3.925520e-003
3.407655e+003,-3.947881e-003
3.409584e+003,-3.825721e-003
3.411512e+003,-3.754083e-003
3.413441e+003,-3.763248e-003
3.415369e+003,-3.847331e-003
3.417298e+003,-3.839975e-003
3.419226e+003,-3.918953e-003
3.421155e+003,-3.909037e-003
3.423083e+003,-3.767255e-003
3.425012e+003,-3.749714e-003
3.426940e+003,-3.799347e-003
3.428869e+003,-3.909825e-003
3.430797e+003,-3.895902e-003
3.432726e+003,-3.860763e-003
3.434654e+003,-4.020537e-003
3.436583e+003,-4.003794e-003
3.438511e+003,-3.929822e-003
3.440440e+003,-4.015711e-003
3.442368e+003,-4.105818e-003
3.444297e+003,-4.210935e-003
3.446225e+003,-4.090851e-003
3.448154e+003,-4.083629e-003
3.450082e+003,-4.252837e-003
3.452011e+003,-4.287123e-003
3.453939e+003,-4.277247e-003
3.455868e+003,-4.193510e-003
3.457796e+003,-4.213659e-003
3.459725e+003,-4.279347e-003
3.461653e+003,-4.327935e-003
3.463582e+003,-4.377140e-003
3.465510e+003,-4.351160e-003
3.467439e+003,-4.243912e-003
3.469367e+003,-4.222748e-003
3.471296e+003,-4.386456e-003
3.473224e+003,-4.416599e-003
3.475153e+003,-4.276723e-003
3.477081e+003,-4.312090e-003
3.479010e+003,-4.444182e-003
3.480938e+003,-4.512132e-003
3.482867e+003,-4.391836e-003
3.484795e+003,-4.365036e-003
3.486724e+003,-4.344862e-003
3.488652e+003,-4.215463e-003
3.490581e+003,-4.234167e-003
3.492509e+003,-4.374582e-003
3.494438e+003,-4.389080e-003
3.496366e+003,-4.358312e-003
3.498295e+003,-4.509311e-003
3.500223e+003,-4.540594e-003
3.502152e+003,-4.420436e-003
3.504080e+003,-4.352014e-003
3.506009e+003,-4.364118e-003
3.507937e+003,-4.434638e-003
3.509866e+003,-4.408465e-003
3.511794e+003,-4.378584e-003
3.513723e+003,-4.345322e-003
3.515651e+003,-4.368874e-003
3.517580e+003,-4.364184e-003
3.519508e+003,-4.426373e-003
3.521437e+003,-4.518624e-003
3.523365e+003,-4.326557e-003
3.525294e+003,-4.232690e-003
3.527222e+003,-4.345715e-003
3.529151e+003,-4.466614e-003
3.531079e+003,-4.411942e-003
3.533008e+003,-4.313697e-003
3.534936e+003,-4.283448e-003
3.536865e+003,-4.213757e-003
3.538793e+003,-4.246931e-003
3.540722e+003,-4.533216e-003
3.542650e+003,-4.546496e-003
3.544579e+003,-4.399773e-003
3.546507e+003,-4.460810e-003
3.548436e+003,-4.386620e-003
3.550364e+003,-4.175724e-003
3.552293e+003,-4.248210e-003
3.554221e+003,-4.486652e-003
3.556150e+003,-4.537216e-003
3.558078e+003,-4.528986e-003
3.560007e+003,-4.478978e-003
3.561935e+003,-4.461695e-003
3.563864e+003,-4.416239e-003
3.565792e+003,-4.419321e-003
3.567721e+003,-4.329870e-003
3.569649e+003,-4.267601e-003
3.571578e+003,-4.222518e-003
3.573506e+003,-4.292503e-003
3.575435e+003,-4.237087e-003
3.577363e+003,-4.332298e-003
3.579292e+003,-4.546036e-003
3.581220e+003,-4.372122e-003
3.583149e+003,-4.274623e-003
3.585077e+003,-4.327213e-003
3.587006e+003,-4.354441e-003
3.588934e+003,-4.361494e-003
3.590863e+003,-4.409514e-003
3.592791e+003,-4.372483e-003
3.594720e+003,-4.354703e-003
3.596648e+003,-4.422700e-003
3.598577e+003,-4.309727e-003
3.600505e+003,-4.158527e-003
3.602434e+003,-4.210935e-003
3.604362e+003,-4.425061e-003
3.606291e+003,-4.517378e-003
3.608219e+003,-4.187373e-003
3.610148e+003,-3.881551e-003
3.612076e+003,-4.084089e-003
3.614005e+003,-4.309563e-003
3.615933e+003,-4.322030e-003
3.617862e+003,-4.295030e-003
3.619790e+003,-4.055597e-003
3.621719e+003,-4.023558e-003
3.623647e+003,-4.231148e-003
3.625576e+003,-4.402036e-003
3.627504e+003,-4.387375e-003
3.629433e+003,-4.217005e-003
3.631361e+003,-4.311729e-003
3.633290e+003,-4.391442e-003
3.635218e+003,-4.306414e-003
3.637146e+003,-4.189605e-003
3.639075e+003,-4.286828e-003
3.641004e+003,-4.424602e-003
3.642932e+003,-4.468549e-003
3.644861e+003,-4.471993e-003
3.646789e+003,-4.490456e-003
3.648718e+003,-4.470287e-003
3.650646e+003,-4.437491e-003
3.652574e+003,-4.647212e-003
3.654503e+003,-4.727879e-003
3.656432e+003,-4.427816e-003
3.658360e+003,-4.260875e-003
3.660289e+003,-4.491669e-003
3.662217e+003,-4.676550e-003
3.664146e+003,-4.674649e-003
3.666074e+003,-4.736073e-003
3.668002e+003,-4.673010e-003
3.669931e+003,-4.396985e-003
3.671860e+003,-4.443854e-003
3.673788e+003,-4.603512e-003
3.675717e+003,-4.329149e-003
3.677645e+003,-4.327836e-003
3.679573e+003,-4.508524e-003
3.681502e+003,-4.519542e-003
3.683430e+003,-4.592103e-003
3.685359e+003,-4.601217e-003
3.687288e+003,-4.445592e-003
3.689216e+003,-4.426176e-003
3.691145e+003,-4.567611e-003
3.693073e+003,-4.578857e-003
3.695001e+003,-4.558791e-003
3.696930e+003,-4.554496e-003
3.698858e+003,-4.432834e-003
3.700787e+003,-4.677468e-003
3.702716e+003,-4.763767e-003
3.704644e+003,-4.642786e-003
3.706573e+003,-4.571087e-003
3.708501e+003,-4.519017e-003
3.710429e+003,-4.720636e-003
3.712358e+003,-4.695136e-003
3.714286e+003,-4.455956e-003
3.716215e+003,-4.313795e-003
3.718144e+003,-4.193707e-003
3.720072e+003,-4.133880e-003
3.722000e+003,-4.108345e-003
3.723929e+003,-4.321013e-003
3.725857e+003,-4.428341e-003
3.727786e+003,-4.215496e-003
3.729714e+003,-4.135718e-003
3.731643e+003,-4.255035e-003
3.733572e+003,-4.246209e-003
3.735500e+003,-4.075194e-003
3.737428e+003,-4.013249e-003
3.739357e+003,-4.036393e-003
3.741285e+003,-4.202600e-003
3.743214e+003,-4.249457e-003
3.745142e+003,-3.843324e-003
3.747071e+003,-3.750634e-003
3.749000e+003,-3.681448e-003
3.750928e+003,-3.872553e-003
3.752856e+003,-4.012428e-003
3.754785e+003,-3.822995e-003
3.756713e+003,-3.530851e-003
3.758642e+003,-3.545542e-003
3.760570e+003,-3.717849e-003
3.762499e+003,-3.736049e-003
3.764427e+003,-3.724650e-003
3.766356e+003,-3.681547e-003
3.768284e+003,-3.673793e-003
3.770213e+003,-3.393615e-003
3.772141e+003,-3.238050e-003
3.774070e+003,-3.617411e-003
3.775998e+003,-3.979860e-003
3.777927e+003,-3.964002e-003
3.779855e+003,-3.627728e-003
3.781784e+003,-3.406666e-003
3.783712e+003,-3.642843e-003
3.785641e+003,-3.675994e-003
3.787569e+003,-3.628090e-003
3.789498e+003,-3.531673e-003
3.791426e+003,-3.399269e-003
3.793355e+003,-3.290568e-003
3.795283e+003,-3.106478e-003
3.797212e+003,-3.273600e-003
3.799140e+003,-3.566081e-003
3.801069e+003,-3.656577e-003
3.802997e+003,-3.659304e-003
3.804926e+003,-3.637848e-003
3.806854e+003,-3.528912e-003
3.808783e+003,-3.585996e-003
3.810711e+003,-3.441282e-003
3.812640e+003,-3.317533e-003
3.814568e+003,-3.494270e-003
3.816497e+003,-3.647968e-003
3.818425e+003,-3.771361e-003
3.820354e+003,-3.707731e-003
3.822282e+003,-3.464950e-003
3.824211e+003,-3.434609e-003
3.826139e+003,-3.429777e-003
3.828068e+003,-3.421854e-003
3.829996e+003,-3.411992e-003
3.831925e+003,-3.457258e-003
3.833853e+003,-3.673070e-003
3.835782e+003,-3.670705e-003
3.837710e+003,-3.522273e-003
3.839639e+003,-3.628517e-003
3.841567e+003,-3.778555e-003
3.843496e+003,-3.629996e-003
3.845424e+003,-3.393089e-003
3.847353e+003,-3.366228e-003
3.849281e+003,-3.464227e-003
3.851210e+003,-3.632723e-003
3.853138e+003,-3.778489e-003
3.855067e+003,-3.514220e-003
3.856995e+003,-3.317927e-003
3.858924e+003,-3.274258e-003
3.860852e+003,-3.280440e-003
3.862781e+003,-3.428298e-003
3.864709e+003,-3.452689e-003
3.866638e+003,-3.456009e-003
3.868566e+003,-3.485757e-003
3.870495e+003,-3.411269e-003
3.872423e+003,-3.649184e-003
3.874352e+003,-3.608177e-003
3.876280e+003,-3.578898e-003
3.878209e+003,-3.658811e-003
3.880137e+003,-3.453905e-003
3.882066e+003,-3.266004e-003
3.883994e+003,-3.401373e-003
3.885923e+003,-3.373001e-003
3.887851e+003,-3.344561e-003
3.889780e+003,-3.508469e-003
3.891708e+003,-3.411071e-003
3.893637e+003,-3.378853e-003
3.895565e+003,-3.361132e-003
3.897494e+003,-3.284123e-003
3.899422e+003,-3.357976e-003
3.901351e+003,-3.291621e-003
3.903279e+003,-3.164901e-003
3.905208e+003,-3.090884e-003
3.907136e+003,-2.953838e-003
3.909065e+003,-3.009616e-003
3.910993e+003,-3.237261e-003
3.912922e+003,-3.333513e-003
3.914850e+003,-3.361197e-003
3.916779e+003,-3.285011e-003
3.918707e+003,-3.097168e-003
3.920636e+003,-2.881727e-003
3.922564e+003,-3.151020e-003
3.924493e+003,-3.293857e-003
3.926421e+003,-3.068677e-003
3.928350e+003,-2.980856e-003
3.930278e+003,-3.297178e-003
3.932207e+003,-3.295435e-003
3.934135e+003,-3.207397e-003
3.936064e+003,-3.085390e-003
3.937992e+003,-2.993163e-003
3.939921e+003,-3.217527e-003
3.941849e+003,-3.328120e-003
3.943778e+003,-3.106873e-003
3.945706e+003,-3.179538e-003
3.947635e+003,-3.328975e-003
3.949563e+003,-3.190458e-003
3.951492e+003,-3.299250e-003
3.953420e+003,-3.322498e-003
3.955349e+003,-3.236964e-003
3.957277e+003,-3.376749e-003
3.959206e+003,-3.266102e-003
3.961134e+003,-3.043375e-003
3.963063e+003,-3.165526e-003
3.964991e+003,-3.256335e-003
3.966920e+003,-3.172565e-003
3.968848e+003,-3.075422e-003
3.970777e+003,-3.192103e-003
3.972705e+003,-3.250021e-003
3.974634e+003,-3.244660e-003
3.976562e+003,-3.269226e-003
3.978491e+003,-3.028010e-003
3.980419e+003,-2.885414e-003
3.982348e+003,-3.345120e-003
3.984276e+003,-3.595099e-003
3.986205e+003,-3.292541e-003
3.988133e+003,-3.007082e-003
3.990062e+003,-3.116907e-003
3.991990e+003,-3.328252e-003
3.993919e+003,-3.405844e-003
3.995847e+003,-3.256335e-003
3.997776e+003,-3.191478e-003
3.999704e+003,-3.304511e-003
4.001633e+003,0.000000e+000
