3.991989e+002,1.401510e-003
4.011274e+002,-6.760460e-003
4.030559e+002,6.924693e-003
4.049844e+002,1.010111e-002
4.069129e+002,9.371966e-003
4.088414e+002,6.582170e-003
4.107699e+002,1.069823e-003
4.126984e+002,-4.238006e-003
4.146269e+002,-5.468428e-003
4.165554e+002,2.406054e-003
4.184839e+002,5.855548e-003
4.204124e+002,6.245564e-003
4.223409e+002,1.053114e-002
4.242694e+002,1.231306e-002
4.261979e+002,1.213538e-003
4.281264e+002,2.067907e-003
4.300549e+002,6.097788e-003
4.319834e+002,1.000728e-002
4.339119e+002,1.632801e-002
4.358404e+002,1.378627e-002
4.377689e+002,7.460491e-003
4.396974e+002,-2.537993e-005
4.416259e+002,-6.783132e-003
4.435544e+002,-2.820469e-003
4.454829e+002,1.792036e-003
4.474114e+002,5.039054e-003
4.493399e+002,4.813585e-003
4.512684e+002,6.026691e-003
4.531969e+002,4.259827e-003
4.551254e+002,2.809324e-003
4.570539e+002,2.699453e-003
4.589824e+002,1.443196e-003
4.609109e+002,7.617897e-004
4.628394e+002,3.171846e-003
4.647679e+002,2.291522e-003
4.666964e+002,1.933261e-003
4.686249e+002,1.736776e-003
4.705533e+002,1.091181e-003
4.724819e+002,8.488616e-004
4.744103e+002,3.197681e-003
4.763389e+002,3.418471e-003
4.782673e+002,1.541012e-003
4.801959e+002,1.260933e-004
4.821243e+002,-1.045313e-003
4.840529e+002,-2.519513e-003
4.859813e+002,-4.253329e-003
4.879099e+002,-2.177799e-003
4.898383e+002,1.046274e-003
4.917668e+002,5.785589e-005
4.936953e+002,-1.174404e-003
4.956238e+002,5.439044e-004
4.975523e+002,1.773271e-003
4.994808e+002,-1.024124e-003
5.014093e+002,2.396252e-004
5.033378e+002,2.861885e-003
5.052663e+002,5.168899e-003
5.071948e+002,3.115810e-003
5.091233e+002,-1.162187e-004
5.110518e+002,-7.879743e-004
5.129803e+002,-4.594916e-004
5.149088e+002,-7.584713e-004
5.168373e+002,-1.920687e-004
5.187658e+002,3.380988e-004
5.206943e+002,-2.265115e-004
5.226228e+002,-3.783742e-005
5.245513e+002,9.984483e-004
5.264798e+002,5.379660e-004
5.284083e+002,-4.420481e-004
5.303368e+002,3.336885e-004
5.322653e+002,7.776559e-004
5.341938e+002,1.215864e-003
5.361223e+002,9.578008e-004
5.380508e+002,7.709177e-004
5.399792e+002,-1.442085e-004
5.419078e+002,3.188002e-004
5.438363e+002,5.914143e-004
5.457648e+002,4.615041e-004
5.476932e+002,-1.324497e-004
5.496218e+002,-1.598423e-004
5.515503e+002,1.241815e-003
5.534788e+002,1.159415e-003
5.554072e+002,7.942197e-004
5.573358e+002,-1.357621e-004
5.592643e+002,-2.659528e-003
5.611927e+002,-3.523982e-003
5.631212e+002,-1.797838e-003
5.650497e+002,1.111126e-004
5.669783e+002,9.136043e-004
5.689067e+002,9.556423e-004
5.708352e+002,8.936160e-004
5.727637e+002,-3.795171e-004
5.746923e+002,-1.225620e-003
5.766207e+002,-2.656037e-003
5.785492e+002,8.988620e-004
5.804777e+002,1.131046e-002
5.824063e+002,7.956655e-003
5.843347e+002,5.856081e-004
5.862632e+002,-4.364210e-004
5.881917e+002,-2.958193e-004
5.901202e+002,8.415247e-004
5.920487e+002,1.623684e-003
5.939772e+002,8.599170e-004
5.959057e+002,-4.933378e-005
5.978342e+002,-2.740099e-005
5.997627e+002,-2.752235e-004
6.016912e+002,-8.589783e-004
6.036197e+002,-8.514717e-004
6.055482e+002,-4.230150e-004
6.074767e+002,9.774652e-006
6.094052e+002,-6.441779e-004
6.113337e+002,-5.011282e-004
6.132622e+002,-4.263252e-004
6.151907e+002,-8.444940e-004
6.171192e+002,-1.274253e-003
6.190477e+002,-8.117869e-004
6.209762e+002,7.299596e-004
6.229047e+002,6.940498e-004
6.248332e+002,-4.767690e-004
6.267617e+002,-5.850842e-004
6.286902e+002,-1.525886e-004
6.306187e+002,-4.456300e-005
6.325472e+002,-1.043594e-003
6.344756e+002,-1.001778e-003
6.364042e+002,-6.817607e-004
6.383326e+002,-7.594636e-004
6.402612e+002,-6.670721e-004
6.421896e+002,-4.114954e-004
6.441182e+002,-4.392015e-004
6.460466e+002,-7.198034e-004
6.479752e+002,-5.004001e-004
6.499036e+002,-2.265115e-004
6.518322e+002,-1.191668e-004
6.537606e+002,2.484770e-004
6.556891e+002,-1.040947e-004
6.576177e+002,-3.239632e-004
6.595461e+002,-3.824634e-004
6.614746e+002,-1.521911e-004
6.634031e+002,-7.195388e-004
6.653317e+002,-7.008487e-004
6.672601e+002,-5.793928e-004
6.691886e+002,-3.508802e-004
6.711171e+002,-7.040413e-005
6.730457e+002,1.596029e-004
6.749741e+002,-3.070109e-004
6.769026e+002,-5.726424e-004
6.788311e+002,-5.450772e-004
6.807596e+002,-3.721346e-004
6.826881e+002,-3.065473e-004
6.846166e+002,-2.929386e-004
6.865451e+002,-2.014083e-004
6.884736e+002,-1.852129e-004
6.904021e+002,-3.041965e-004
6.923306e+002,-3.276052e-004
6.942591e+002,-2.736341e-004
6.961876e+002,-3.563098e-004
6.981161e+002,-8.788851e-004
7.000446e+002,-1.181442e-003
7.019731e+002,-9.681570e-004
7.039016e+002,-2.726407e-004
7.058301e+002,-3.579982e-004
7.077585e+002,-5.014261e-004
7.096871e+002,-1.212868e-004
7.116156e+002,2.876987e-004
7.135441e+002,3.200866e-005
7.154725e+002,-9.795626e-004
7.174011e+002,-1.340619e-003
7.193296e+002,-8.360943e-004
7.212581e+002,-6.545333e-004
7.231865e+002,-4.078872e-004
7.251151e+002,-3.616731e-004
7.270436e+002,-5.377968e-004
7.289720e+002,-7.850307e-004
7.309005e+002,-5.601671e-004
7.328290e+002,-8.548447e-004
7.347576e+002,-7.063069e-004
7.366860e+002,-1.105873e-004
7.386145e+002,2.096234e-004
7.405430e+002,-2.589978e-004
7.424716e+002,-7.477875e-004
7.444000e+002,-7.368720e-004
7.463285e+002,-4.939794e-004
7.482570e+002,-9.062968e-004
7.501855e+002,-4.126209e-004
7.521140e+002,-4.916813e-005
7.540425e+002,3.641584e-005
7.559710e+002,-3.787557e-004
7.578995e+002,-6.610840e-004
7.598280e+002,-6.350463e-004
7.617565e+002,-6.407371e-004
7.636850e+002,-7.160324e-004
7.656135e+002,-6.128122e-004
7.675420e+002,-6.502985e-004
7.694705e+002,-5.016908e-004
7.713990e+002,-7.225490e-004
7.733275e+002,-6.065587e-004
7.752560e+002,-1.844843e-004
7.771844e+002,-4.013659e-004
7.791130e+002,-8.475034e-004
7.810415e+002,-8.340108e-004
7.829700e+002,-5.989153e-004
7.848984e+002,2.723478e-004
7.868270e+002,4.882393e-004
7.887555e+002,-1.957449e-004
7.906840e+002,-5.378961e-004
7.926124e+002,-6.776255e-004
7.945410e+002,-4.843152e-004
7.964695e+002,1.161835e-004
7.983979e+002,2.661479e-004
8.003264e+002,-7.030474e-005
8.022549e+002,-4.758753e-004
8.041835e+002,2.657431e-005
8.061119e+002,-1.060822e-004
8.080404e+002,-3.651492e-004
8.099689e+002,-4.929535e-004
8.118975e+002,-6.562207e-004
8.138259e+002,-3.566740e-004
8.157545e+002,3.779587e-004
8.176830e+002,1.583102e-004
8.196115e+002,-3.939507e-004
8.215399e+002,-9.717127e-005
8.234684e+002,1.198292e-004
8.253970e+002,-2.203517e-004
8.273254e+002,-2.920446e-004
8.292539e+002,-8.786259e-005
8.311824e+002,-3.811392e-004
8.331110e+002,-6.973752e-004
8.350394e+002,-6.123821e-004
8.369679e+002,-6.643592e-004
8.388964e+002,-1.088116e-003
8.408250e+002,-1.167332e-003
8.427534e+002,-7.560567e-004
8.446819e+002,-2.497919e-004
8.466104e+002,-3.361804e-004
8.485389e+002,-6.081138e-004
8.504674e+002,-5.996102e-004
8.523959e+002,-3.335979e-004
8.543244e+002,-3.674667e-004
8.562529e+002,-1.661023e-004
8.581814e+002,1.769387e-004
8.601099e+002,3.771297e-004
8.620384e+002,1.153881e-004
8.639669e+002,-4.839511e-004
8.658954e+002,-5.645021e-004
8.678239e+002,-4.524084e-004
8.697524e+002,-4.220882e-004
8.716809e+002,-3.911037e-004
8.736094e+002,-3.508140e-004
8.755378e+002,-3.503505e-004
8.774664e+002,-3.766369e-004
8.793949e+002,-4.373478e-004
8.813234e+002,-4.848447e-004
8.832518e+002,-4.310918e-004
8.851804e+002,-5.772419e-004
8.871089e+002,-9.138025e-004
8.890374e+002,-6.041764e-004
8.909658e+002,-5.890218e-004
8.928943e+002,-5.051658e-004
8.948229e+002,-1.970366e-004
8.967513e+002,-3.565084e-004
8.986798e+002,-7.297932e-004
9.006083e+002,-6.310099e-004
9.025369e+002,-4.205324e-004
9.044653e+002,-3.654472e-004
9.063938e+002,-3.861049e-004
9.083223e+002,-3.468411e-004
9.102509e+002,-2.912168e-004
9.121793e+002,-3.018125e-004
9.141078e+002,-5.624504e-004
9.160364e+002,-4.935161e-004
9.179648e+002,-2.256173e-004
9.198933e+002,-2.444935e-004
9.218218e+002,-6.090403e-004
9.237504e+002,-6.101652e-004
9.256788e+002,-7.018741e-004
9.276073e+002,-6.734570e-004
9.295358e+002,-3.560449e-004
9.314644e+002,-3.485958e-004
9.333928e+002,-6.270396e-004
9.353213e+002,-6.104962e-004
9.372498e+002,-3.056202e-004
9.391783e+002,-2.841970e-004
9.411068e+002,-3.811723e-004
9.430353e+002,-1.818347e-004
9.449637e+002,-1.379482e-004
9.468923e+002,-3.378358e-004
9.488208e+002,-3.725319e-004
9.507493e+002,-3.858401e-004
9.526777e+002,-4.749155e-004
9.546063e+002,-4.139119e-004
9.565348e+002,-2.913162e-004
9.584633e+002,-1.776946e-004
9.603917e+002,-3.689895e-004
9.623203e+002,-5.719475e-004
9.642488e+002,-5.879960e-004
9.661772e+002,-3.291613e-004
9.681057e+002,-1.116474e-004
9.700343e+002,-1.574244e-004
9.719628e+002,-4.035176e-004
9.738912e+002,-6.335244e-004
9.758197e+002,-5.870034e-004
9.777483e+002,-4.940456e-004
9.796768e+002,-3.152885e-004
9.816052e+002,-3.459472e-004
9.835337e+002,-3.433317e-004
9.854623e+002,-1.579213e-004
9.873907e+002,-3.099908e-004
9.893192e+002,-4.331771e-004
9.912477e+002,-4.295360e-004
9.931763e+002,-2.532359e-004
9.951047e+002,-1.566957e-004
9.970332e+002,-1.171462e-004
9.989617e+002,-3.527342e-004
1.000890e+003,-4.560162e-004
1.002819e+003,-3.619379e-004
1.004747e+003,-2.944949e-004
1.006676e+003,-3.229368e-004
1.008604e+003,-2.824752e-004
1.010533e+003,-5.882608e-004
1.012461e+003,-6.839441e-004
1.014390e+003,-5.297551e-004
1.016318e+003,-2.585342e-004
1.018247e+003,-1.915056e-004
1.020175e+003,-3.330681e-004
1.022104e+003,-4.393670e-004
1.024032e+003,-1.437448e-004
1.025961e+003,-1.788207e-004
1.027889e+003,-5.032794e-004
1.029818e+003,-5.414701e-004
1.031746e+003,-4.832230e-004
1.033675e+003,-4.179504e-004
1.035603e+003,-3.442490e-005
1.037532e+003,-1.147611e-004
1.039460e+003,-1.382132e-004
1.041389e+003,-2.551314e-006
1.043317e+003,-1.264211e-004
1.045246e+003,-3.379020e-004
1.047174e+003,-2.339958e-004
1.049103e+003,-2.049851e-004
1.051031e+003,-1.429167e-004
1.052960e+003,1.378398e-005
1.054888e+003,-8.620622e-005
1.056817e+003,-2.559513e-004
1.058745e+003,-2.350886e-004
1.060674e+003,-3.145931e-004
1.062602e+003,-1.748463e-004
1.064531e+003,4.582679e-005
1.066459e+003,-3.551824e-005
1.068388e+003,-3.193278e-004
1.070316e+003,-4.595578e-004
1.072245e+003,-2.804553e-004
1.074173e+003,-3.985842e-005
1.076102e+003,-2.931373e-004
1.078030e+003,-5.827679e-004
1.079959e+003,-4.231474e-004
1.081887e+003,-1.894854e-004
1.083816e+003,-2.258823e-004
1.085744e+003,-1.251292e-004
1.087673e+003,-9.940201e-007
1.089601e+003,-1.662017e-004
1.091530e+003,-1.496076e-004
1.093458e+003,2.478497e-005
1.095387e+003,-3.264464e-004
1.097315e+003,-3.284329e-004
1.099244e+003,-1.649099e-004
1.101172e+003,1.302363e-004
1.103101e+003,2.001094e-004
1.105029e+003,-2.552228e-004
1.106958e+003,-4.894452e-004
1.108886e+003,-3.058520e-004
1.110815e+003,-1.454672e-004
1.112743e+003,-1.029021e-004
1.114672e+003,-2.206829e-004
1.116600e+003,-3.239301e-004
1.118529e+003,-3.799475e-004
1.120457e+003,-4.013659e-004
1.122386e+003,-2.807865e-004
1.124314e+003,-1.432811e-004
1.126243e+003,-3.717704e-004
1.128171e+003,-4.788210e-004
1.130100e+003,-3.509796e-004
1.132028e+003,-4.257624e-004
1.133957e+003,-6.182385e-004
1.135885e+003,-6.071873e-004
1.137814e+003,-4.565458e-004
1.139742e+003,-3.199238e-004
1.141671e+003,-3.299228e-004
1.143599e+003,-3.406169e-004
1.145528e+003,-3.066798e-004
1.147456e+003,-2.520107e-004
1.149385e+003,-3.420736e-004
1.151313e+003,-2.766805e-004
1.153242e+003,-2.477719e-004
1.155170e+003,-2.728062e-004
1.157099e+003,-3.266450e-004
1.159027e+003,-4.091120e-004
1.160956e+003,-4.557514e-004
1.162884e+003,-4.967264e-004
1.164813e+003,-4.609480e-004
1.166741e+003,-3.928582e-004
1.168670e+003,-2.651901e-004
1.170598e+003,-2.191595e-004
1.172526e+003,-4.267555e-004
1.174455e+003,-4.480723e-004
1.176384e+003,-4.126871e-004
1.178312e+003,-3.811392e-004
1.180240e+003,-3.203874e-004
1.182169e+003,-3.836221e-004
1.184098e+003,-3.723994e-004
1.186026e+003,-1.375839e-004
1.187954e+003,-1.496076e-004
1.189883e+003,-4.242729e-004
1.191812e+003,-4.812040e-004
1.193740e+003,-2.683028e-004
1.195668e+003,-1.607697e-004
1.197597e+003,-1.987587e-004
1.199526e+003,-1.635188e-004
1.201454e+003,-1.980964e-004
1.203382e+003,-1.551390e-004
1.205311e+003,-2.411488e-004
1.207240e+003,-4.433721e-004
1.209168e+003,-3.612758e-004
1.211096e+003,-2.936009e-004
1.213025e+003,-3.457486e-004
1.214953e+003,-2.065747e-004
1.216882e+003,-2.449571e-004
1.218810e+003,-3.191623e-004
1.220739e+003,-4.114954e-004
1.222667e+003,-4.169904e-004
1.224596e+003,-2.676405e-004
1.226524e+003,-2.978060e-004
1.228453e+003,-3.130038e-004
1.230381e+003,-2.775745e-004
1.232310e+003,-2.730049e-004
1.234238e+003,-2.795944e-004
1.236167e+003,-2.093235e-004
1.238095e+003,-3.547869e-004
1.240024e+003,-4.720029e-004
1.241952e+003,-4.162622e-004
1.243881e+003,-4.132499e-004
1.245809e+003,-2.776739e-004
1.247738e+003,-2.325387e-004
1.249666e+003,-3.015807e-004
1.251595e+003,-2.715148e-004
1.253523e+003,-2.911837e-004
1.255452e+003,-2.972762e-004
1.257380e+003,-1.307604e-004
1.259309e+003,-1.233405e-004
1.261237e+003,-1.940558e-004
1.263166e+003,-2.746606e-004
1.265094e+003,-3.810399e-004
1.267023e+003,-3.787557e-004
1.268951e+003,-3.791529e-004
1.270880e+003,-3.442587e-004
1.272808e+003,-2.581037e-004
1.274737e+003,-1.749456e-004
1.276665e+003,-1.162518e-004
1.278594e+003,-1.778602e-004
1.280522e+003,-3.670032e-004
1.282451e+003,-4.446961e-004
1.284379e+003,-5.575529e-004
1.286308e+003,-3.966983e-004
1.288236e+003,-2.562493e-004
1.290165e+003,-2.579050e-004
1.292093e+003,-1.919362e-004
1.294022e+003,-3.509134e-004
1.295950e+003,-3.476688e-004
1.297879e+003,-3.688902e-004
1.299807e+003,-3.048256e-004
1.301736e+003,-3.768356e-004
1.303664e+003,-4.804428e-004
1.305593e+003,-2.588985e-004
1.307521e+003,-1.176099e-004
1.309450e+003,-2.857533e-004
1.311378e+003,-3.979893e-004
1.313307e+003,-2.180997e-004
1.315235e+003,-7.885185e-005
1.317164e+003,-1.006496e-004
1.319092e+003,-1.923005e-004
1.321021e+003,-3.699496e-004
1.322949e+003,-3.827283e-004
1.324878e+003,-2.607529e-004
1.326806e+003,-3.334986e-004
1.328735e+003,-2.658193e-004
1.330663e+003,-2.271738e-004
1.332592e+003,-2.900910e-004
1.334520e+003,-2.650908e-004
1.336449e+003,-3.283005e-004
1.338377e+003,-3.011171e-004
1.340306e+003,-1.887567e-004
1.342234e+003,-1.237711e-004
1.344163e+003,-1.967054e-004
1.346091e+003,-3.397891e-004
1.348020e+003,-2.805547e-004
1.349948e+003,-2.216764e-004
1.351877e+003,-1.744488e-004
1.353805e+003,-2.222394e-004
1.355734e+003,-3.216455e-004
1.357662e+003,-4.480723e-004
1.359591e+003,-4.843814e-004
1.361519e+003,-4.926887e-004
1.363448e+003,-5.339580e-004
1.365376e+003,-4.568437e-004
1.367305e+003,-3.771997e-004
1.369233e+003,-2.837666e-004
1.371162e+003,-4.156333e-004
1.373090e+003,-5.732049e-004
1.375019e+003,-4.335413e-004
1.376947e+003,-3.618386e-004
1.378876e+003,-3.679302e-004
1.380804e+003,-2.346250e-004
1.382733e+003,-2.769785e-004
1.384661e+003,-3.967976e-004
1.386590e+003,-3.874291e-004
1.388518e+003,-2.992960e-004
1.390447e+003,-2.850249e-004
1.392375e+003,-4.218564e-004
1.394304e+003,-4.744521e-004
1.396232e+003,-3.941162e-004
1.398161e+003,-3.201887e-004
1.400089e+003,-3.107192e-004
1.402018e+003,-3.925272e-004
1.403946e+003,-4.413530e-004
1.405875e+003,-3.765707e-004
1.407803e+003,-2.617794e-004
1.409732e+003,-2.906539e-004
1.411660e+003,-4.034845e-004
1.413589e+003,-4.062321e-004
1.415517e+003,-3.072095e-004
1.417446e+003,-3.324060e-004
1.419374e+003,-4.365865e-004
1.421303e+003,-3.718697e-004
1.423231e+003,-4.638276e-004
1.425160e+003,-3.428020e-004
1.427088e+003,-1.699444e-004
1.429017e+003,-2.272732e-004
1.430945e+003,-3.796164e-004
1.432874e+003,-5.326674e-004
1.434802e+003,-5.427608e-004
1.436731e+003,-4.930527e-004
1.438659e+003,-3.650830e-004
1.440588e+003,-3.570381e-004
1.442516e+003,-4.307276e-004
1.444445e+003,-4.308932e-004
1.446373e+003,-4.762394e-004
1.448302e+003,-5.992462e-004
1.450230e+003,-6.073197e-004
1.452159e+003,-4.237432e-004
1.454087e+003,-3.424378e-004
1.456016e+003,-6.116211e-004
1.457944e+003,-6.520521e-004
1.459873e+003,-4.830244e-004
1.461801e+003,-4.430411e-004
1.463730e+003,-5.239637e-004
1.465658e+003,-4.705466e-004
1.467587e+003,-3.546876e-004
1.469515e+003,-3.438283e-004
1.471444e+003,-4.077217e-004
1.473372e+003,-4.245377e-004
1.475301e+003,-3.150567e-004
1.477229e+003,-2.091580e-004
1.479158e+003,-2.031635e-004
1.481086e+003,-3.094941e-004
1.483015e+003,-2.779719e-004
1.484943e+003,-3.665397e-004
1.486872e+003,-3.958707e-004
1.488800e+003,-3.422723e-004
1.490729e+003,-3.713401e-004
1.492657e+003,-3.603488e-004
1.494586e+003,-3.626663e-004
1.496514e+003,-3.886209e-004
1.498443e+003,-3.871974e-004
1.500371e+003,-4.380429e-004
1.502300e+003,-3.854429e-004
1.504228e+003,-4.958328e-004
1.506157e+003,-7.756375e-004
1.508085e+003,-5.842570e-004
1.510014e+003,-3.935534e-004
1.511942e+003,-3.401202e-004
1.513871e+003,-2.892632e-004
1.515799e+003,-4.277816e-004
1.517728e+003,-4.608818e-004
1.519656e+003,-5.438859e-004
1.521585e+003,-6.574778e-004
1.523513e+003,-5.371019e-004
1.525442e+003,-4.977193e-004
1.527370e+003,-4.692226e-004
1.529299e+003,-3.925603e-004
1.531227e+003,-4.421805e-004
1.533156e+003,-4.951378e-004
1.535084e+003,-4.224192e-004
1.537013e+003,-4.808400e-004
1.538941e+003,-6.698841e-004
1.540870e+003,-7.555606e-004
1.542798e+003,-6.513242e-004
1.544727e+003,-4.784570e-004
1.546655e+003,-4.611466e-004
1.548584e+003,-5.011282e-004
1.550512e+003,-3.611103e-004
1.552441e+003,-3.572368e-004
1.554369e+003,-4.811710e-004
1.556298e+003,-5.778045e-004
1.558226e+003,-8.273636e-004
1.560155e+003,-6.915860e-004
1.562083e+003,-3.863698e-004
1.564012e+003,-2.423410e-004
1.565940e+003,-2.386983e-004
1.567869e+003,-4.661114e-004
1.569797e+003,-5.520597e-004
1.571726e+003,-3.505161e-004
1.573654e+003,-4.128526e-004
1.575583e+003,-6.031506e-004
1.577511e+003,-5.340242e-004
1.579440e+003,-5.189003e-004
1.581368e+003,-4.119589e-004
1.583297e+003,-3.179041e-004
1.585225e+003,-3.183346e-004
1.587154e+003,-2.566467e-004
1.589082e+003,-2.326380e-004
1.591010e+003,-3.531315e-004
1.592939e+003,-3.727636e-004
1.594868e+003,-3.841849e-004
1.596796e+003,-3.513437e-004
1.598724e+003,-2.739983e-004
1.600653e+003,-3.256849e-004
1.602582e+003,-3.435304e-004
1.604510e+003,-3.367101e-004
1.606438e+003,-3.374385e-004
1.608367e+003,-3.062824e-004
1.610296e+003,-2.832699e-004
1.612224e+003,-3.015807e-004
1.614152e+003,-3.983204e-004
1.616081e+003,-5.471951e-004
1.618010e+003,-4.648867e-004
1.619938e+003,-3.347898e-004
1.621866e+003,-4.207641e-004
1.623795e+003,-5.180729e-004
1.625724e+003,-3.852773e-004
1.627652e+003,-3.170433e-004
1.629580e+003,-3.481654e-004
1.631509e+003,-3.428020e-004
1.633438e+003,-3.686254e-004
1.635366e+003,-4.699508e-004
1.637294e+003,-4.035838e-004
1.639223e+003,-3.222084e-004
1.641151e+003,-2.967133e-004
1.643080e+003,-4.660452e-004
1.645008e+003,-6.807352e-004
1.646937e+003,-5.147635e-004
1.648865e+003,-3.057527e-004
1.650794e+003,-4.523422e-004
1.652722e+003,-7.323733e-004
1.654651e+003,-4.401614e-004
1.656579e+003,-1.898497e-004
1.658508e+003,-3.165797e-004
1.660436e+003,-3.931231e-004
1.662365e+003,-4.044445e-004
1.664293e+003,-3.466756e-004
1.666222e+003,-2.068728e-004
1.668150e+003,-2.586667e-004
1.670079e+003,-3.859063e-004
1.672007e+003,-3.850125e-004
1.673936e+003,-5.188010e-004
1.675864e+003,-5.217464e-004
1.677793e+003,-4.455236e-004
1.679721e+003,-3.676984e-004
1.681650e+003,-3.356175e-004
1.683578e+003,-6.033822e-004
1.685507e+003,-5.226730e-004
1.687435e+003,-3.891505e-004
1.689364e+003,-4.277485e-004
1.691292e+003,-3.972279e-004
1.693221e+003,-5.030808e-004
1.695149e+003,-7.027673e-004
1.697078e+003,-5.214816e-004
1.699006e+003,-6.498354e-004
1.700935e+003,-6.869215e-004
1.702863e+003,-4.430080e-004
1.704792e+003,-4.478075e-004
1.706720e+003,-3.771997e-004
1.708649e+003,-3.635601e-004
1.710577e+003,-3.717042e-004
1.712506e+003,-3.417756e-004
1.714434e+003,-4.303304e-004
1.716363e+003,-6.087756e-004
1.718291e+003,-6.135402e-004
1.720220e+003,-3.734257e-004
1.722148e+003,-3.132687e-004
1.724077e+003,-2.862500e-004
1.726005e+003,-2.916473e-004
1.727934e+003,-3.866677e-004
1.729862e+003,-3.513768e-004
1.731791e+003,-3.854429e-004
1.733719e+003,-6.225398e-004
1.735648e+003,-5.438859e-004
1.737576e+003,-4.769675e-004
1.739505e+003,-5.236659e-004
1.741433e+003,-4.252659e-004
1.743362e+003,-4.414523e-004
1.745290e+003,-4.118596e-004
1.747219e+003,-3.270755e-004
1.749147e+003,-4.143422e-004
1.751076e+003,-4.835539e-004
1.753004e+003,-4.334420e-004
1.754933e+003,-3.970293e-004
1.756861e+003,-3.497877e-004
1.758790e+003,-3.666059e-004
1.760718e+003,-4.928872e-004
1.762647e+003,-4.582670e-004
1.764575e+003,-3.509134e-004
1.766504e+003,-3.195596e-004
1.768432e+003,-3.217449e-004
1.770361e+003,-4.280464e-004
1.772289e+003,-5.058940e-004
1.774218e+003,-4.794168e-004
1.776146e+003,-4.374140e-004
1.778075e+003,-2.908526e-004
1.780003e+003,-3.016800e-004
1.781932e+003,-3.730615e-004
1.783860e+003,-3.850125e-004
1.785789e+003,-3.524363e-004
1.787717e+003,-2.355523e-004
1.789646e+003,-2.375723e-004
1.791574e+003,-4.135809e-004
1.793503e+003,-4.957005e-004
1.795431e+003,-4.991093e-004
1.797360e+003,-5.099647e-004
1.799288e+003,-4.316545e-004
1.801217e+003,-3.953741e-004
1.803145e+003,-3.978238e-004
1.805074e+003,-3.579651e-004
1.807002e+003,-3.313796e-004
1.808931e+003,-3.878595e-004
1.810859e+003,-3.304525e-004
1.812788e+003,-2.322407e-004
1.814716e+003,-2.443611e-004
1.816645e+003,-2.462486e-004
1.818573e+003,-2.320419e-004
1.820502e+003,-2.429371e-004
1.822430e+003,-3.344256e-004
1.824359e+003,-4.370830e-004
1.826287e+003,-4.401945e-004
1.828216e+003,-4.332102e-004
1.830144e+003,-4.601205e-004
1.832073e+003,-3.445567e-004
1.834001e+003,-2.438312e-004
1.835930e+003,-2.870447e-004
1.837858e+003,-3.774646e-004
1.839787e+003,-4.358914e-004
1.841715e+003,-4.202013e-004
1.843644e+003,-4.640924e-004
1.845572e+003,-4.796154e-004
1.847501e+003,-3.861049e-004
1.849429e+003,-3.811723e-004
1.851358e+003,-3.196920e-004
1.853286e+003,-2.629715e-004
1.855215e+003,-3.477019e-004
1.857143e+003,-4.021935e-004
1.859072e+003,-3.474040e-004
1.861000e+003,-2.640974e-004
1.862929e+003,-2.129003e-004
1.864857e+003,-1.643800e-004
1.866786e+003,-2.898261e-004
1.868714e+003,-4.038487e-004
1.870643e+003,-3.101564e-004
1.872571e+003,-2.030973e-004
1.874500e+003,-2.291277e-004
1.876428e+003,-2.913824e-004
1.878357e+003,-2.657200e-004
1.880285e+003,-2.798924e-004
1.882214e+003,-3.313796e-004
1.884142e+003,-3.853767e-004
1.886071e+003,-4.165270e-004
1.887999e+003,-4.573733e-004
1.889928e+003,-3.545882e-004
1.891856e+003,-2.660180e-004
1.893785e+003,-2.728062e-004
1.895713e+003,-3.084015e-004
1.897642e+003,-3.298235e-004
1.899570e+003,-3.166791e-004
1.901499e+003,-2.261472e-004
1.903427e+003,-1.848817e-004
1.905356e+003,-2.839321e-004
1.907284e+003,-3.448216e-004
1.909213e+003,-2.520437e-004
1.911141e+003,-1.744488e-004
1.913070e+003,-2.257829e-004
1.914998e+003,-3.699496e-004
1.916927e+003,-4.038817e-004
1.918855e+003,-3.357168e-004
1.920784e+003,-3.442587e-004
1.922712e+003,-3.574354e-004
1.924641e+003,-3.159175e-004
1.926569e+003,-3.538599e-004
1.928498e+003,-3.342601e-004
1.930426e+003,-3.301877e-004
1.932355e+003,-3.458148e-004
1.934283e+003,-3.873960e-004
1.936212e+003,-3.774646e-004
1.938140e+003,-3.866677e-004
1.940069e+003,-3.331675e-004
1.941997e+003,-2.915479e-004
1.943926e+003,-2.659186e-004
1.945854e+003,-3.104544e-004
1.947783e+003,-4.188773e-004
1.949711e+003,-4.058679e-004
1.951640e+003,-3.479668e-004
1.953568e+003,-3.263470e-004
1.955497e+003,-2.687664e-004
1.957425e+003,-2.585673e-004
1.959354e+003,-3.454837e-004
1.961282e+003,-3.491587e-004
1.963211e+003,-3.616731e-004
1.965139e+003,-3.474702e-004
1.967068e+003,-3.168777e-004
1.968996e+003,-2.817467e-004
1.970925e+003,-2.412813e-004
1.972853e+003,-3.003887e-004
1.974782e+003,-3.557801e-004
1.976710e+003,-3.836552e-004
1.978639e+003,-3.745182e-004
1.980567e+003,-3.357831e-004
1.982496e+003,-3.512444e-004
1.984424e+003,-3.226388e-004
1.986353e+003,-2.784024e-004
1.988281e+003,-2.274719e-004
1.990210e+003,-2.316114e-004
1.992138e+003,-2.565474e-004
1.994067e+003,-2.489641e-004
1.995995e+003,-2.686671e-004
1.997924e+003,-2.312140e-004
1.999852e+003,-1.951819e-004
2.001781e+003,-2.608522e-004
2.003709e+003,-3.861381e-004
2.005638e+003,-4.099065e-004
2.007566e+003,-4.123230e-004
2.009495e+003,-4.721684e-004
2.011423e+003,-4.552550e-004
2.013352e+003,-3.432655e-004
2.015280e+003,-3.351871e-004
2.017208e+003,-4.648867e-004
2.019137e+003,-4.911000e-004
2.021066e+003,-3.848470e-004
2.022994e+003,-3.670694e-004
2.024922e+003,-4.005383e-004
2.026851e+003,-4.037824e-004
2.028780e+003,-3.727967e-004
2.030708e+003,-3.307505e-004
2.032636e+003,-3.333992e-004
2.034565e+003,-3.783253e-004
2.036494e+003,-4.110651e-004
2.038422e+003,-3.286316e-004
2.040350e+003,-3.065473e-004
2.042279e+003,-2.962498e-004
2.044208e+003,-3.329688e-004
2.046136e+003,-3.995452e-004
2.048064e+003,-3.709428e-004
2.049993e+003,-2.934022e-004
2.051921e+003,-3.224070e-004
2.053850e+003,-3.689233e-004
2.055778e+003,-3.429675e-004
2.057707e+003,-3.275059e-004
2.059635e+003,-2.611171e-004
2.061564e+003,-2.660842e-004
2.063492e+003,-2.991305e-004
2.065421e+003,-3.618386e-004
2.067349e+003,-3.672349e-004
2.069278e+003,-3.579982e-004
2.071206e+003,-3.791529e-004
2.073135e+003,-3.505491e-004
2.075063e+003,-2.699585e-004
2.076992e+003,-3.093948e-004
2.078920e+003,-3.136329e-004
2.080849e+003,-3.266450e-004
2.082777e+003,-3.101564e-004
2.084706e+003,-2.962829e-004
2.086634e+003,-3.673342e-004
2.088563e+003,-3.999755e-004
2.090491e+003,-3.267775e-004
2.092420e+003,-3.334323e-004
2.094348e+003,-3.116463e-004
2.096277e+003,-2.665809e-004
2.098205e+003,-3.424378e-004
2.100134e+003,-4.544606e-004
2.102062e+003,-3.492249e-004
2.103991e+003,-2.833030e-004
2.105919e+003,-3.107855e-004
2.107848e+003,-3.124410e-004
2.109776e+003,-3.502512e-004
2.111705e+003,-3.405837e-004
2.113633e+003,-2.808858e-004
2.115562e+003,-2.879718e-004
2.117490e+003,-3.453513e-004
2.119419e+003,-3.074082e-004
2.121347e+003,-2.765812e-004
2.123276e+003,-3.300222e-004
2.125204e+003,-4.203006e-004
2.127133e+003,-4.787879e-004
2.129061e+003,-3.734919e-004
2.130990e+003,-3.335317e-004
2.132918e+003,-2.603886e-004
2.134847e+003,-2.320419e-004
2.136775e+003,-3.383986e-004
2.138704e+003,-3.416763e-004
2.140632e+003,-2.764818e-004
2.142561e+003,-3.364452e-004
2.144489e+003,-4.191090e-004
2.146418e+003,-3.516086e-004
2.148346e+003,-2.830050e-004
2.150275e+003,-2.576070e-004
2.152203e+003,-3.010509e-004
2.154132e+003,-3.681619e-004
2.156060e+003,-3.850125e-004
2.157989e+003,-4.198703e-004
2.159917e+003,-4.442989e-004
2.161846e+003,-3.896140e-004
2.163774e+003,-3.426033e-004
2.165703e+003,-3.271417e-004
2.167631e+003,-2.619781e-004
2.169560e+003,-2.727400e-004
2.171488e+003,-2.836010e-004
2.173417e+003,-3.483972e-004
2.175345e+003,-3.976914e-004
2.177274e+003,-3.946790e-004
2.179202e+003,-4.046100e-004
2.181131e+003,-4.067286e-004
2.183059e+003,-3.939507e-004
2.184988e+003,-3.722339e-004
2.186916e+003,-3.552835e-004
2.188845e+003,-3.618386e-004
2.190773e+003,-3.698503e-004
2.192702e+003,-3.421729e-004
2.194630e+003,-3.300884e-004
2.196559e+003,-3.703138e-004
2.198487e+003,-4.113299e-004
2.200416e+003,-3.719360e-004
2.202344e+003,-3.141958e-004
2.204273e+003,-3.724988e-004
2.206201e+003,-3.641229e-004
2.208130e+003,-3.517410e-004
2.210058e+003,-4.197048e-004
2.211987e+003,-3.750810e-004
2.213915e+003,-2.965147e-004
2.215844e+003,-2.994947e-004
2.217772e+003,-2.909519e-004
2.219701e+003,-2.844619e-004
2.221629e+003,-4.070928e-004
2.223558e+003,-4.558838e-004
2.225486e+003,-4.280464e-004
2.227415e+003,-4.002735e-004
2.229343e+003,-3.700158e-004
2.231272e+003,-3.196920e-004
2.233200e+003,-3.281018e-004
2.235129e+003,-2.869785e-004
2.237057e+003,-2.735679e-004
2.238986e+003,-3.295586e-004
2.240914e+003,-3.846484e-004
2.242843e+003,-4.190097e-004
2.244771e+003,-4.008031e-004
2.246700e+003,-3.672680e-004
2.248628e+003,-3.491255e-004
2.250557e+003,-3.685261e-004
2.252485e+003,-4.040473e-004
2.254414e+003,-3.750810e-004
2.256342e+003,-2.791308e-004
2.258271e+003,-2.845944e-004
2.260199e+003,-4.054376e-004
2.262128e+003,-4.457222e-004
2.264056e+003,-3.293600e-004
2.265985e+003,-2.580706e-004
2.267913e+003,-3.393256e-004
2.269842e+003,-3.953741e-004
2.271770e+003,-3.505161e-004
2.273699e+003,-2.889321e-004
2.275627e+003,-1.987587e-004
2.277556e+003,-2.423741e-004
2.279484e+003,-3.425040e-004
2.281413e+003,-3.267775e-004
2.283341e+003,-3.789212e-004
2.285270e+003,-4.351963e-004
2.287198e+003,-3.504498e-004
2.289127e+003,-3.212151e-004
2.291055e+003,-3.219104e-004
2.292984e+003,-4.111313e-004
2.294912e+003,-5.029485e-004
2.296841e+003,-4.847455e-004
2.298769e+003,-5.048018e-004
2.300698e+003,-4.905043e-004
2.302626e+003,-4.744852e-004
2.304555e+003,-4.797808e-004
2.306483e+003,-4.836532e-004
2.308412e+003,-4.277485e-004
2.310340e+003,-3.809406e-004
2.312269e+003,-4.766697e-004
2.314197e+003,-5.662890e-004
2.316125e+003,-5.210845e-004
2.318054e+003,-5.109906e-004
2.319983e+003,-4.706458e-004
2.321911e+003,-4.855067e-004
2.323840e+003,-5.754881e-004
2.325768e+003,-5.405766e-004
2.327697e+003,-5.768779e-004
2.329625e+003,-6.488428e-004
2.331553e+003,-6.550296e-004
2.333482e+003,-6.400092e-004
2.335411e+003,-6.905936e-004
2.337339e+003,-7.536091e-004
2.339268e+003,-7.260223e-004
2.341196e+003,-6.629367e-004
2.343125e+003,-7.503013e-004
2.345053e+003,-7.741160e-004
2.346981e+003,-6.775262e-004
2.348910e+003,-6.145659e-004
2.350839e+003,-5.851834e-004
2.352767e+003,-7.644250e-004
2.354696e+003,-9.260031e-004
2.356624e+003,-8.716434e-004
2.358552e+003,-8.135066e-004
2.360481e+003,-8.629134e-004
2.362409e+003,-9.818437e-004
2.364338e+003,-1.020620e-003
2.366267e+003,-8.728338e-004
2.368195e+003,-8.889374e-004
2.370124e+003,-9.177371e-004
2.372052e+003,-8.648314e-004
2.373980e+003,-8.277274e-004
2.375909e+003,-8.708167e-004
2.377838e+003,-6.852674e-004
2.379766e+003,-4.512168e-004
2.381695e+003,-5.486512e-004
2.383623e+003,-5.416025e-004
2.385552e+003,-3.720353e-004
2.387480e+003,-4.072914e-004
2.389408e+003,-4.034845e-004
2.391337e+003,-4.349646e-004
2.393266e+003,-4.720691e-004
2.395194e+003,-4.244715e-004
2.397123e+003,-4.438686e-004
2.399051e+003,-4.837856e-004
2.400979e+003,-5.458053e-004
2.402908e+003,-5.508683e-004
2.404836e+003,-4.786886e-004
2.406765e+003,-4.850764e-004
2.408694e+003,-5.562954e-004
2.410622e+003,-5.200917e-004
2.412551e+003,-4.854405e-004
2.414479e+003,-4.855398e-004
2.416407e+003,-5.276371e-004
2.418336e+003,-5.959374e-004
2.420264e+003,-5.707231e-004
2.422193e+003,-5.088726e-004
2.424122e+003,-5.401133e-004
2.426050e+003,-5.329652e-004
2.427979e+003,-4.485357e-004
2.429907e+003,-4.024914e-004
2.431835e+003,-3.588259e-004
2.433764e+003,-3.833573e-004
2.435692e+003,-4.309925e-004
2.437621e+003,-4.124223e-004
2.439550e+003,-3.335979e-004
2.441478e+003,-3.958707e-004
2.443406e+003,-4.678325e-004
2.445335e+003,-4.692226e-004
2.447263e+003,-5.039744e-004
2.449192e+003,-5.181722e-004
2.451121e+003,-4.811047e-004
2.453049e+003,-5.005986e-004
2.454978e+003,-4.651846e-004
2.456906e+003,-3.603488e-004
2.458834e+003,-4.023921e-004
2.460763e+003,-3.794840e-004
2.462691e+003,-2.940644e-004
2.464620e+003,-3.352864e-004
2.466549e+003,-3.927589e-004
2.468477e+003,-3.865022e-004
2.470406e+003,-3.731278e-004
2.472334e+003,-4.634635e-004
2.474262e+003,-4.595909e-004
2.476191e+003,-3.931231e-004
2.478119e+003,-3.688240e-004
2.480048e+003,-4.196717e-004
2.481977e+003,-4.437693e-004
2.483905e+003,-4.538648e-004
2.485833e+003,-4.798801e-004
2.487762e+003,-4.330116e-004
2.489690e+003,-3.421729e-004
2.491619e+003,-3.137654e-004
2.493547e+003,-2.903559e-004
2.495476e+003,-3.524363e-004
2.497405e+003,-4.066293e-004
2.499333e+003,-3.886871e-004
2.501261e+003,-2.561500e-004
2.503190e+003,-2.594614e-004
2.505118e+003,-4.471455e-004
2.507047e+003,-5.731388e-004
2.508975e+003,-5.211838e-004
2.510904e+003,-4.598557e-004
2.512833e+003,-4.218895e-004
2.514761e+003,-5.077473e-004
2.516689e+003,-5.613584e-004
2.518618e+003,-4.966271e-004
2.520546e+003,-4.001742e-004
2.522475e+003,-4.264576e-004
2.524403e+003,-4.667733e-004
2.526332e+003,-4.253983e-004
2.528260e+003,-4.060997e-004
2.530189e+003,-4.099396e-004
2.532117e+003,-3.757100e-004
2.534046e+003,-4.081852e-004
2.535974e+003,-3.534626e-004
2.537903e+003,-4.200358e-004
2.539831e+003,-4.678325e-004
2.541760e+003,-3.897133e-004
2.543688e+003,-4.693550e-004
2.545617e+003,-6.150291e-004
2.547545e+003,-5.098985e-004
2.549474e+003,-3.490262e-004
2.551402e+003,-3.844828e-004
2.553331e+003,-4.797147e-004
2.555259e+003,-5.586118e-004
2.557188e+003,-5.363738e-004
2.559116e+003,-4.693550e-004
2.561045e+003,-4.431073e-004
2.562973e+003,-4.417502e-004
2.564902e+003,-5.197938e-004
2.566830e+003,-6.062940e-004
2.568759e+003,-4.932182e-004
2.570687e+003,-4.086486e-004
2.572616e+003,-4.668726e-004
2.574544e+003,-4.378112e-004
2.576473e+003,-4.376789e-004
2.578401e+003,-4.552880e-004
2.580330e+003,-3.909051e-004
2.582258e+003,-2.819454e-004
2.584187e+003,-3.258835e-004
2.586115e+003,-3.342601e-004
2.588044e+003,-3.094941e-004
2.589972e+003,-3.117126e-004
2.591901e+003,-2.881705e-004
2.593829e+003,-3.168446e-004
2.595758e+003,-3.726643e-004
2.597686e+003,-4.693550e-004
2.599615e+003,-4.149712e-004
2.601543e+003,-3.185332e-004
2.603472e+003,-4.509189e-004
2.605400e+003,-4.724663e-004
2.607329e+003,-3.686254e-004
2.609257e+003,-3.544889e-004
2.611186e+003,-4.348322e-004
2.613114e+003,-4.730289e-004
2.615043e+003,-4.228164e-004
2.616971e+003,-3.395574e-004
2.618900e+003,-3.570381e-004
2.620828e+003,-4.037824e-004
2.622757e+003,-3.188974e-004
2.624685e+003,-2.572428e-004
2.626614e+003,-3.880581e-004
2.628542e+003,-4.855067e-004
2.630471e+003,-5.381608e-004
2.632399e+003,-5.920329e-004
2.634328e+003,-6.364359e-004
2.636256e+003,-6.752435e-004
2.638185e+003,-5.645021e-004
2.640113e+003,-4.279471e-004
2.642042e+003,-4.585980e-004
2.643970e+003,-5.399148e-004
2.645899e+003,-5.055630e-004
2.647827e+003,-5.000360e-004
2.649756e+003,-5.177751e-004
2.651684e+003,-5.343221e-004
2.653613e+003,-4.952702e-004
2.655541e+003,-4.351301e-004
2.657470e+003,-4.699839e-004
2.659398e+003,-4.753789e-004
2.661327e+003,-4.164608e-004
2.663255e+003,-4.221875e-004
2.665184e+003,-4.834216e-004
2.667112e+003,-5.462024e-004
2.669041e+003,-5.148296e-004
2.670969e+003,-5.144656e-004
2.672898e+003,-5.618217e-004
2.674826e+003,-5.439852e-004
2.676755e+003,-4.684945e-004
2.678683e+003,-4.930196e-004
2.680612e+003,-5.605312e-004
2.682540e+003,-5.027168e-004
2.684469e+003,-5.300199e-004
2.686397e+003,-5.101301e-004
2.688326e+003,-4.729958e-004
2.690254e+003,-4.766697e-004
2.692183e+003,-5.262472e-004
2.694111e+003,-5.394515e-004
2.696040e+003,-4.875587e-004
2.697968e+003,-4.554204e-004
2.699897e+003,-4.895445e-004
2.701825e+003,-5.139361e-004
2.703754e+003,-4.934168e-004
2.705682e+003,-4.906367e-004
2.707611e+003,-4.969250e-004
2.709539e+003,-4.893459e-004
2.711468e+003,-4.827265e-004
2.713396e+003,-5.104280e-004
2.715325e+003,-5.232025e-004
2.717253e+003,-5.088726e-004
2.719182e+003,-5.686053e-004
2.721110e+003,-5.833966e-004
2.723039e+003,-5.619872e-004
2.724967e+003,-5.424960e-004
2.726896e+003,-5.165837e-004
2.728824e+003,-4.813695e-004
2.730753e+003,-4.704142e-004
2.732681e+003,-4.931520e-004
2.734610e+003,-5.326674e-004
2.736538e+003,-5.836613e-004
2.738467e+003,-6.476518e-004
2.740395e+003,-5.688700e-004
2.742324e+003,-5.113216e-004
2.744252e+003,-4.603853e-004
2.746181e+003,-4.632318e-004
2.748109e+003,-4.985467e-004
2.750038e+003,-4.495618e-004
2.751966e+003,-5.620864e-004
2.753895e+003,-6.189003e-004
2.755823e+003,-5.916028e-004
2.757752e+003,-6.347817e-004
2.759680e+003,-6.314731e-004
2.761609e+003,-6.004043e-004
2.763537e+003,-5.609944e-004
2.765466e+003,-5.635755e-004
2.767394e+003,-5.470958e-004
2.769323e+003,-5.864408e-004
2.771251e+003,-5.633770e-004
2.773180e+003,-5.069530e-004
2.775108e+003,-5.255191e-004
2.777037e+003,-6.472879e-004
2.778965e+003,-6.401415e-004
2.780894e+003,-4.640262e-004
2.782822e+003,-4.925894e-004
2.784750e+003,-6.435162e-004
2.786679e+003,-5.511331e-004
2.788608e+003,-4.903719e-004
2.790536e+003,-5.864740e-004
2.792465e+003,-6.360720e-004
2.794393e+003,-6.239626e-004
2.796322e+003,-6.852674e-004
2.798250e+003,-6.884433e-004
2.800178e+003,-5.292587e-004
2.802107e+003,-4.306945e-004
2.804036e+003,-4.422798e-004
2.805964e+003,-4.179173e-004
2.807893e+003,-4.987453e-004
2.809821e+003,-6.554928e-004
2.811750e+003,-6.196282e-004
2.813678e+003,-4.903719e-004
2.815606e+003,-4.802773e-004
2.817535e+003,-5.384587e-004
2.819464e+003,-5.842238e-004
2.821392e+003,-4.390691e-004
2.823321e+003,-4.644564e-004
2.825249e+003,-6.509933e-004
2.827177e+003,-5.850842e-004
2.829106e+003,-4.568106e-004
2.831034e+003,-4.478406e-004
2.832963e+003,-4.283444e-004
2.834892e+003,-4.489991e-004
2.836820e+003,-5.279019e-004
2.838749e+003,-4.919606e-004
2.840677e+003,-5.196945e-004
2.842605e+003,-5.480886e-004
2.844534e+003,-5.621857e-004
2.846462e+003,-6.017279e-004
2.848391e+003,-6.096028e-004
2.850320e+003,-5.188672e-004
2.852248e+003,-5.243277e-004
2.854177e+003,-6.533423e-004
2.856105e+003,-7.208289e-004
2.858033e+003,-6.953573e-004
2.859962e+003,-5.197276e-004
2.861890e+003,-5.006979e-004
2.863819e+003,-6.071212e-004
2.865748e+003,-6.057646e-004
2.867676e+003,-5.810473e-004
2.869604e+003,-6.297195e-004
2.871533e+003,-6.591651e-004
2.873461e+003,-6.130108e-004
2.875390e+003,-5.357781e-004
2.877319e+003,-5.569573e-004
2.879247e+003,-5.843562e-004
2.881176e+003,-5.463017e-004
2.883104e+003,-5.074826e-004
2.885032e+003,-6.517874e-004
2.886961e+003,-6.538386e-004
2.888889e+003,-5.565932e-004
2.890818e+003,-5.569241e-004
2.892747e+003,-6.279660e-004
2.894675e+003,-6.231023e-004
2.896604e+003,-6.254845e-004
2.898532e+003,-5.466326e-004
2.900460e+003,-5.245594e-004
2.902389e+003,-6.139372e-004
2.904317e+003,-7.015765e-004
2.906246e+003,-6.305467e-004
2.908175e+003,-5.691348e-004
2.910103e+003,-6.010330e-004
2.912031e+003,-6.332266e-004
2.913960e+003,-5.457391e-004
2.915888e+003,-5.656934e-004
2.917817e+003,-5.060925e-004
2.919745e+003,-4.587304e-004
2.921674e+003,-5.522252e-004
2.923603e+003,-7.642596e-004
2.925531e+003,-7.659133e-004
2.927459e+003,-7.617127e-004
2.929388e+003,-6.851351e-004
2.931316e+003,-6.621095e-004
2.933245e+003,-6.937032e-004
2.935173e+003,-6.431523e-004
2.937102e+003,-6.607862e-004
2.939031e+003,-7.512937e-004
2.940959e+003,-6.727292e-004
2.942887e+003,-5.987830e-004
2.944816e+003,-6.222089e-004
2.946744e+003,-6.641276e-004
2.948673e+003,-6.659472e-004
2.950601e+003,-6.095366e-004
2.952530e+003,-5.824701e-004
2.954458e+003,-6.105954e-004
2.956387e+003,-6.416634e-004
2.958315e+003,-7.340604e-004
2.960244e+003,-6.836795e-004
2.962172e+003,-5.790950e-004
2.964101e+003,-5.302184e-004
2.966029e+003,-5.958050e-004
2.967958e+003,-6.519859e-004
2.969886e+003,-7.380628e-004
2.971815e+003,-8.786537e-004
2.973743e+003,-8.517032e-004
2.975672e+003,-7.985248e-004
2.977600e+003,-6.037462e-004
2.979529e+003,-4.481716e-004
2.981457e+003,-4.978517e-004
2.983386e+003,-5.796244e-004
2.985314e+003,-6.798420e-004
2.987243e+003,-6.595952e-004
2.989171e+003,-6.467254e-004
2.991100e+003,-6.357080e-004
2.993028e+003,-7.158339e-004
2.994957e+003,-6.709758e-004
2.996885e+003,-5.353148e-004
2.998814e+003,-4.609811e-004
3.000742e+003,-5.523575e-004
3.002671e+003,-6.323995e-004
3.004599e+003,-6.659472e-004
3.006528e+003,-6.721668e-004
3.008456e+003,-6.485451e-004
3.010385e+003,-6.936701e-004
3.012313e+003,-7.186126e-004
3.014242e+003,-7.724292e-004
3.016170e+003,-6.878809e-004
3.018099e+003,-5.319393e-004
3.020027e+003,-4.440672e-004
3.021956e+003,-4.795161e-004
3.023884e+003,-6.063933e-004
3.025813e+003,-6.878147e-004
3.027741e+003,-7.751083e-004
3.029670e+003,-6.856975e-004
3.031598e+003,-4.941780e-004
3.033527e+003,-4.186787e-004
3.035455e+003,-3.935865e-004
3.037384e+003,-4.372154e-004
3.039312e+003,-5.238644e-004
3.041241e+003,-5.252213e-004
3.043169e+003,-6.291902e-004
3.045098e+003,-6.195620e-004
3.047026e+003,-5.569241e-004
3.048955e+003,-6.342192e-004
3.050883e+003,-7.199689e-004
3.052812e+003,-6.966143e-004
3.054740e+003,-6.101322e-004
3.056669e+003,-5.674140e-004
3.058597e+003,-6.077499e-004
3.060526e+003,-6.109594e-004
3.062454e+003,-5.789295e-004
3.064383e+003,-4.758753e-004
3.066311e+003,-4.034183e-004
3.068240e+003,-4.412206e-004
3.070168e+003,-5.358112e-004
3.072097e+003,-6.521844e-004
3.074025e+003,-6.452366e-004
3.075954e+003,-5.866063e-004
3.077882e+003,-5.539790e-004
3.079811e+003,-5.269091e-004
3.081739e+003,-5.613253e-004
3.083668e+003,-5.260487e-004
3.085596e+003,-5.168815e-004
3.087525e+003,-6.981691e-004
3.089453e+003,-7.793418e-004
3.091382e+003,-6.732916e-004
3.093310e+003,-6.025551e-004
3.095239e+003,-5.231033e-004
3.097167e+003,-5.354472e-004
3.099096e+003,-7.166609e-004
3.101024e+003,-7.853283e-004
3.102953e+003,-6.733578e-004
3.104881e+003,-6.775262e-004
3.106810e+003,-6.815622e-004
3.108738e+003,-6.629035e-004
3.110667e+003,-7.133860e-004
3.112595e+003,-7.002863e-004
3.114524e+003,-6.564522e-004
3.116452e+003,-7.268823e-004
3.118381e+003,-7.911825e-004
3.120309e+003,-8.411540e-004
3.122238e+003,-8.702545e-004
3.124166e+003,-8.495867e-004
3.126095e+003,-7.964080e-004
3.128023e+003,-7.527822e-004
3.129952e+003,-6.993931e-004
3.131880e+003,-7.294625e-004
3.133809e+003,-7.316456e-004
3.135737e+003,-6.997570e-004
3.137666e+003,-6.052683e-004
3.139594e+003,-5.899483e-004
3.141523e+003,-6.192311e-004
3.143451e+003,-6.420274e-004
3.145380e+003,-6.757067e-004
3.147308e+003,-6.412002e-004
3.149237e+003,-6.715383e-004
3.151165e+003,-7.446121e-004
3.153094e+003,-7.287347e-004
3.155022e+003,-7.359789e-004
3.156951e+003,-7.667734e-004
3.158879e+003,-6.574778e-004
3.160808e+003,-5.710209e-004
3.162736e+003,-6.029852e-004
3.164665e+003,-6.093050e-004
3.166593e+003,-7.011464e-004
3.168522e+003,-7.342257e-004
3.170450e+003,-6.659472e-004
3.172379e+003,-6.667412e-004
3.174307e+003,-7.250299e-004
3.176236e+003,-6.779894e-004
3.178164e+003,-6.658811e-004
3.180093e+003,-7.034289e-004
3.182021e+003,-8.248832e-004
3.183950e+003,-8.041472e-004
3.185878e+003,-6.538386e-004
3.187807e+003,-6.548972e-004
3.189735e+003,-7.399151e-004
3.191664e+003,-7.585705e-004
3.193592e+003,-7.748106e-004
3.195521e+003,-7.638296e-004
3.197449e+003,-6.723984e-004
3.199378e+003,-5.884924e-004
3.201306e+003,-5.327336e-004
3.203235e+003,-6.337560e-004
3.205163e+003,-6.880794e-004
3.207092e+003,-7.144446e-004
3.209020e+003,-6.759383e-004
3.210948e+003,-5.765139e-004
3.212877e+003,-5.697304e-004
3.214806e+003,-6.612825e-004
3.216734e+003,-7.417675e-004
3.218663e+003,-8.013029e-004
3.220591e+003,-8.074544e-004
3.222520e+003,-7.448106e-004
3.224448e+003,-7.509298e-004
3.226376e+003,-6.558567e-004
3.228305e+003,-4.882537e-004
3.230234e+003,-5.380285e-004
3.232162e+003,-6.642931e-004
3.234091e+003,-6.705458e-004
3.236019e+003,-7.541383e-004
3.237948e+003,-7.462329e-004
3.239876e+003,-5.143001e-004
3.241804e+003,-4.159312e-004
3.243733e+003,-5.838930e-004
3.245662e+003,-6.552943e-004
3.247590e+003,-7.071340e-004
3.249519e+003,-6.668405e-004
3.251447e+003,-7.486476e-004
3.253375e+003,-8.328203e-004
3.255304e+003,-8.314974e-004
3.257232e+003,-7.514260e-004
3.259161e+003,-6.065587e-004
3.261090e+003,-6.065587e-004
3.263018e+003,-6.959858e-004
3.264947e+003,-7.954820e-004
3.266875e+003,-8.653936e-004
3.268803e+003,-7.917116e-004
3.270732e+003,-7.387905e-004
3.272660e+003,-5.957058e-004
3.274589e+003,-5.769110e-004
3.276518e+003,-6.714721e-004
3.278446e+003,-7.242030e-004
3.280375e+003,-6.666750e-004
3.282303e+003,-5.824039e-004
3.284231e+003,-6.110917e-004
3.286160e+003,-6.612825e-004
3.288088e+003,-6.713729e-004
3.290017e+003,-8.171115e-004
3.291946e+003,-8.274628e-004
3.293874e+003,-8.100340e-004
3.295802e+003,-7.608528e-004
3.297731e+003,-6.993270e-004
3.299659e+003,-7.010471e-004
3.301588e+003,-6.963497e-004
3.303516e+003,-6.973752e-004
3.305445e+003,-6.370976e-004
3.307374e+003,-6.189995e-004
3.309302e+003,-7.013118e-004
3.311230e+003,-7.129891e-004
3.313159e+003,-7.457698e-004
3.315087e+003,-7.012456e-004
3.317016e+003,-6.560883e-004
3.318944e+003,-7.993515e-004
3.320873e+003,-7.511283e-004
3.322802e+003,-7.121621e-004
3.324730e+003,-8.569611e-004
3.326658e+003,-9.859761e-004
3.328587e+003,-7.629696e-004
3.330515e+003,-4.913648e-004
3.332444e+003,-4.752134e-004
3.334372e+003,-5.904115e-004
3.336301e+003,-6.261462e-004
3.338229e+003,-5.589759e-004
3.340158e+003,-5.803854e-004
3.342086e+003,-6.778240e-004
3.344015e+003,-6.600583e-004
3.345943e+003,-5.600678e-004
3.347872e+003,-6.184040e-004
3.349800e+003,-6.064594e-004
3.351729e+003,-5.555674e-004
3.353657e+003,-6.872523e-004
3.355586e+003,-7.332003e-004
3.357514e+003,-6.878809e-004
3.359443e+003,-6.846058e-004
3.361371e+003,-6.296203e-004
3.363300e+003,-6.144666e-004
3.365229e+003,-6.758721e-004
3.367157e+003,-6.375609e-004
3.369085e+003,-7.331342e-004
3.371014e+003,-7.564536e-004
3.372942e+003,-6.721668e-004
3.374871e+003,-6.751443e-004
3.376799e+003,-6.206208e-004
3.378728e+003,-6.666750e-004
3.380656e+003,-6.920492e-004
3.382585e+003,-7.148415e-004
3.384513e+003,-6.645908e-004
3.386442e+003,-6.302820e-004
3.388370e+003,-5.627482e-004
3.390299e+003,-6.726300e-004
3.392227e+003,-7.961435e-004
3.394156e+003,-7.389228e-004
3.396084e+003,-6.380241e-004
3.398013e+003,-5.066551e-004
3.399941e+003,-4.002735e-004
3.401870e+003,-5.243277e-004
3.403798e+003,-5.872019e-004
3.405727e+003,-5.774405e-004
3.407655e+003,-5.359767e-004
3.409584e+003,-5.043715e-004
3.411512e+003,-5.759845e-004
3.413441e+003,-6.737548e-004
3.415369e+003,-6.747473e-004
3.417298e+003,-6.852674e-004
3.419226e+003,-6.942325e-004
3.421155e+003,-6.268080e-004
3.423083e+003,-5.708886e-004
3.425012e+003,-6.313077e-004
3.426940e+003,-6.750120e-004
3.428869e+003,-6.612494e-004
3.430797e+003,-5.740322e-004
3.432726e+003,-6.357080e-004
3.434654e+003,-7.826163e-004
3.436583e+003,-8.389713e-004
3.438511e+003,-6.911228e-004
3.440440e+003,-6.278005e-004
3.442368e+003,-6.082131e-004
3.444297e+003,-5.507029e-004
3.446225e+003,-5.518942e-004
3.448154e+003,-6.419281e-004
3.450082e+003,-6.271719e-004
3.452011e+003,-5.131749e-004
3.453939e+003,-6.992277e-004
3.455868e+003,-9.253749e-004
3.457796e+003,-7.753068e-004
3.459725e+003,-6.277343e-004
3.461653e+003,-4.832892e-004
3.463582e+003,-4.479730e-004
3.465510e+003,-5.903123e-004
3.467439e+003,-6.358073e-004
3.469367e+003,-5.444154e-004
3.471296e+003,-4.333095e-004
3.473224e+003,-5.538135e-004
3.475153e+003,-6.419612e-004
3.477081e+003,-5.082437e-004
3.479010e+003,-6.157570e-004
3.480938e+003,-6.589335e-004
3.482867e+003,-6.463946e-004
3.484795e+003,-4.497604e-004
3.486724e+003,-3.780936e-004
3.488652e+003,-5.449118e-004
3.490581e+003,-6.551950e-004
3.492509e+003,-5.626159e-004
3.494438e+003,-3.863698e-004
3.496366e+003,-2.391288e-004
3.498295e+003,-4.759415e-004
3.500223e+003,-7.047852e-004
3.502152e+003,-7.270808e-004
3.504080e+003,-7.797718e-004
3.506009e+003,-8.683366e-004
3.507937e+003,-7.512275e-004
3.509866e+003,-5.714842e-004
3.511794e+003,-5.440845e-004
3.513723e+003,-7.402790e-004
3.515651e+003,-8.198234e-004
3.517580e+003,-5.944484e-004
3.519508e+003,-5.186355e-004
3.521437e+003,-5.416687e-004
3.523365e+003,-6.117204e-004
3.525294e+003,-6.737548e-004
3.527222e+003,-6.414318e-004
3.529151e+003,-5.080121e-004
3.531079e+003,-5.223090e-004
3.533008e+003,-7.200681e-004
3.534936e+003,-7.915462e-004
3.536865e+003,-6.738541e-004
3.538793e+003,-4.529711e-004
3.540722e+003,-3.552173e-004
3.542650e+003,-4.149712e-004
3.544579e+003,-4.920599e-004
3.546507e+003,-6.074190e-004
3.548436e+003,-6.847712e-004
3.550364e+003,-6.872854e-004
3.552293e+003,-6.411340e-004
3.554221e+003,-6.145990e-004
3.556150e+003,-7.445129e-004
3.558078e+003,-7.474237e-004
3.560007e+003,-6.550296e-004
3.561935e+003,-4.058679e-004
3.563864e+003,-4.961969e-004
3.565792e+003,-5.479231e-004
3.567721e+003,-6.049043e-004
3.569649e+003,-7.708085e-004
3.571578e+003,-7.929023e-004
3.573506e+003,-6.060955e-004
3.575435e+003,-3.952086e-004
3.577363e+003,-3.403189e-004
3.579292e+003,-4.004721e-004
3.581220e+003,-4.584987e-004
3.583149e+003,-6.341200e-004
3.585077e+003,-6.435824e-004
3.587006e+003,-7.171240e-004
3.588934e+003,-6.217127e-004
3.590863e+003,-5.002015e-004
3.592791e+003,-6.075182e-004
3.594720e+003,-5.227392e-004
3.596648e+003,-3.912030e-004
3.598577e+003,-2.937995e-004
3.600505e+003,-2.684022e-004
3.602434e+003,-4.637945e-004
3.604362e+003,-3.077724e-004
3.606291e+003,-4.281127e-004
3.608219e+003,-7.125260e-004
3.610148e+003,-5.388558e-004
3.612076e+003,-2.918459e-004
3.614005e+003,-2.751904e-004
3.615933e+003,-4.591937e-004
3.617862e+003,-5.457391e-004
3.619790e+003,-4.537986e-004
3.621719e+003,-5.827679e-004
3.623647e+003,-5.253206e-004
3.625576e+003,-3.521714e-004
3.627504e+003,-4.004721e-004
3.629433e+003,-6.410679e-004
3.631361e+003,-5.132742e-004
3.633290e+003,-4.549901e-004
3.635218e+003,-4.360238e-004
3.637146e+003,-4.975538e-004
3.639075e+003,-5.712526e-004
3.641004e+003,-4.212275e-004
3.642932e+003,-4.036831e-004
3.644861e+003,-5.723115e-004
3.646789e+003,-7.411721e-004
3.648718e+003,-8.525630e-004
3.650646e+003,-6.627382e-004
3.652574e+003,-3.807751e-004
3.654503e+003,-3.723994e-004
3.656432e+003,-5.835290e-004
3.658360e+003,-6.468247e-004
3.660289e+003,-6.526145e-004
3.662217e+003,-6.551620e-004
3.664146e+003,-5.345868e-004
3.666074e+003,-4.279802e-004
3.668002e+003,-3.605474e-004
3.669931e+003,-4.857715e-004
3.671860e+003,-7.070016e-004
3.673788e+003,-7.735538e-004
3.675717e+003,-6.349471e-004
3.677645e+003,-3.796826e-004
3.679573e+003,-5.816428e-004
3.681502e+003,-6.060293e-004
3.683430e+003,-5.826686e-004
3.685359e+003,-3.623021e-004
3.687288e+003,-4.237102e-004
3.689216e+003,-6.063271e-004
3.691145e+003,-4.575388e-004
3.693073e+003,-3.524694e-004
3.695001e+003,-4.103699e-004
3.696930e+003,-3.284660e-004
3.698858e+003,-3.793847e-004
3.700787e+003,-3.330350e-004
3.702716e+003,-2.367444e-004
3.704644e+003,-3.058189e-004
3.706573e+003,-2.955213e-004
3.708501e+003,-2.204511e-004
3.710429e+003,-2.360821e-004
3.712358e+003,-2.859520e-004
3.714286e+003,-3.211820e-004
3.716215e+003,-4.601205e-004
3.718144e+003,-3.403851e-004
3.720072e+003,-1.820003e-004
3.722000e+003,-2.787997e-004
3.723929e+003,-3.634277e-004
3.725857e+003,-3.104213e-004
3.727786e+003,-6.357957e-005
3.729714e+003,-2.299556e-004
3.731643e+003,-7.940268e-004
3.733572e+003,-8.910536e-004
3.735500e+003,-8.076528e-004
3.737428e+003,-7.283378e-004
3.739357e+003,-5.787309e-004
3.741285e+003,-4.637945e-004
3.743214e+003,-6.091726e-004
3.745142e+003,-6.379909e-004
3.747071e+003,-6.957873e-004
3.749000e+003,-8.031219e-004
3.750928e+003,-5.854151e-004
3.752856e+003,-4.116941e-004
3.754785e+003,-3.398554e-004
3.756713e+003,-3.062162e-004
3.758642e+003,-4.694874e-004
3.760570e+003,-6.080476e-004
3.762499e+003,-5.202572e-004
3.764427e+003,-3.360810e-004
3.766356e+003,-2.270745e-004
3.768284e+003,-2.327705e-004
3.770213e+003,-2.858858e-004
3.772141e+003,-2.272732e-004
3.774070e+003,-8.835949e-005
3.775998e+003,-1.313235e-004
3.777927e+003,-3.989824e-004
3.779855e+003,-5.301192e-004
3.781784e+003,-4.037824e-004
3.783712e+003,-2.995940e-004
3.785641e+003,-1.212205e-004
3.787569e+003,-3.903014e-005
3.789498e+003,-1.860409e-004
3.791426e+003,-2.929386e-004
3.793355e+003,-3.766700e-004
3.795283e+003,-1.434467e-004
3.797212e+003,-1.360271e-004
3.799140e+003,-4.170898e-004
3.801069e+003,-4.286092e-004
3.802997e+003,-2.922102e-004
3.804926e+003,-4.666410e-004
3.806854e+003,-5.639064e-004
3.808783e+003,-5.542768e-004
3.810711e+003,-4.230150e-004
3.812640e+003,-1.395382e-004
3.814568e+003,-1.858753e-004
3.816497e+003,-2.396918e-004
3.818425e+003,-1.123430e-004
3.820354e+003,-1.152249e-004
3.822282e+003,-2.313465e-004
3.824211e+003,-2.265115e-004
3.826139e+003,-3.478343e-004
3.828068e+003,-1.645456e-004
3.829996e+003,-1.259573e-004
3.831925e+003,-2.087937e-004
3.833853e+003,-2.342607e-004
3.835782e+003,-2.893625e-004
3.837710e+003,-3.204536e-004
3.839639e+003,-2.894288e-004
3.841567e+003,-3.693868e-004
3.843496e+003,-3.562436e-004
3.845424e+003,-1.738195e-004
3.847353e+003,-2.355854e-004
3.849281e+003,-1.998517e-004
3.851210e+003,-1.046578e-004
3.853138e+003,-4.309925e-004
3.855067e+003,-4.099065e-004
3.856995e+003,-1.988250e-004
3.858924e+003,-9.422299e-005
3.860852e+003,-1.137674e-004
3.862781e+003,-1.581862e-004
3.864709e+003,-7.086793e-005
3.866638e+003,-1.242349e-004
3.868566e+003,-1.525886e-004
3.870495e+003,1.179588e-005
3.872423e+003,-1.895847e-004
3.874352e+003,-2.781706e-004
3.876280e+003,-1.335097e-004
3.878209e+003,-8.044200e-005
3.880137e+003,-1.610678e-004
3.882066e+003,-2.984020e-004
3.883994e+003,-3.605474e-004
3.885923e+003,-1.344702e-004
3.887851e+003,-1.236055e-004
3.889780e+003,-1.910089e-004
3.891708e+003,-1.307604e-004
3.893637e+003,-1.551390e-004
3.895565e+003,-1.640104e-005
3.897494e+003,1.160178e-004
3.899422e+003,1.343793e-004
3.901351e+003,8.953740e-005
3.903279e+003,9.609935e-005
3.905208e+003,3.165454e-004
3.907136e+003,2.243422e-004
3.909065e+003,2.332699e-005
3.910993e+003,-2.514801e-005
3.912922e+003,-3.770490e-005
3.914850e+003,-7.683104e-005
3.916779e+003,-1.363914e-004
3.918707e+003,-5.069478e-006
3.920636e+003,-8.846699e-006
3.922564e+003,-1.134030e-004
3.924493e+003,-3.661157e-005
3.926421e+003,-5.357444e-005
3.928350e+003,-1.015108e-004
3.930278e+003,-2.448537e-005
3.932207e+003,1.772370e-004
3.934135e+003,4.021683e-004
3.936064e+003,4.947078e-004
3.937992e+003,3.325943e-004
3.939921e+003,1.433947e-004
3.941849e+003,2.438356e-004
3.943778e+003,2.861736e-004
3.945706e+003,-1.070429e-004
3.947635e+003,5.228866e-005
3.949563e+003,4.483029e-004
3.951492e+003,4.419347e-004
3.953420e+003,1.919548e-004
3.955349e+003,9.573479e-005
3.957277e+003,2.076675e-004
3.959206e+003,6.398655e-005
3.961134e+003,-5.579414e-005
3.963063e+003,2.919207e-005
3.964991e+003,-1.508331e-004
3.966920e+003,-6.858205e-005
3.968848e+003,1.930487e-004
3.970777e+003,2.777189e-004
3.972705e+003,1.303689e-004
3.974634e+003,1.129686e-004
3.976562e+003,2.699606e-004
3.978491e+003,2.241765e-004
3.980419e+003,3.622730e-004
3.982348e+003,3.433049e-004
3.984276e+003,3.122017e-004
3.986205e+003,2.903844e-004
3.988133e+003,3.703313e-004
3.990062e+003,4.203430e-004
3.991990e+003,3.416800e-004
3.993919e+003,3.195628e-004
3.995847e+003,3.216518e-004
3.997776e+003,2.472172e-004
3.999704e+003,3.729180e-004
4.001633e+003,0.000000e+000
