3.991989e+002,2.381889e-002
4.011274e+002,2.696144e-002
4.030559e+002,1.500511e-002
4.049844e+002,1.434372e-002
4.069129e+002,1.713966e-002
4.088414e+002,1.534796e-002
4.107699e+002,1.269118e-002
4.126984e+002,9.274740e-003
4.146269e+002,9.806532e-003
4.165554e+002,1.352162e-002
4.184839e+002,1.620662e-002
4.204124e+002,1.521020e-002
4.223409e+002,1.583116e-002
4.242694e+002,1.844882e-002
4.261979e+002,1.700346e-002
4.281264e+002,1.414428e-002
4.300549e+002,1.063775e-002
4.319834e+002,5.059569e-003
4.339119e+002,4.965784e-003
4.358404e+002,1.145410e-002
4.377689e+002,1.445706e-002
4.396974e+002,1.075570e-002
4.416259e+002,8.664764e-003
4.435544e+002,1.075315e-002
4.454829e+002,1.255108e-002
4.474114e+002,1.506140e-002
4.493399e+002,1.164002e-002
4.512684e+002,4.239383e-003
4.531969e+002,4.066032e-003
4.551254e+002,9.496035e-003
4.570539e+002,8.636845e-003
4.589824e+002,3.723048e-003
4.609109e+002,4.184848e-003
4.628394e+002,6.861001e-003
4.647679e+002,6.345241e-003
4.666964e+002,7.528789e-003
4.686249e+002,6.587418e-003
4.705533e+002,5.568132e-003
4.724819e+002,6.913180e-003
4.744103e+002,7.157695e-003
4.763389e+002,4.481694e-003
4.782673e+002,4.757303e-003
4.801959e+002,5.390292e-003
4.821243e+002,5.657180e-003
4.840529e+002,5.284428e-003
4.859813e+002,4.559503e-003
4.879099e+002,3.982527e-003
4.898383e+002,2.582909e-003
4.917668e+002,1.551087e-003
4.936953e+002,4.416752e-003
4.956238e+002,4.806147e-003
4.975523e+002,1.849432e-003
4.994808e+002,1.816158e-003
5.014093e+002,2.294486e-003
5.033378e+002,2.188242e-003
5.052663e+002,5.304021e-004
5.071948e+002,7.399461e-005
5.091233e+002,1.032092e-003
5.110518e+002,-2.232991e-004
5.129803e+002,-9.829017e-004
5.149088e+002,-1.685072e-003
5.168373e+002,-2.631702e-004
5.187658e+002,5.924761e-004
5.206943e+002,1.626511e-003
5.226228e+002,1.033188e-003
5.245513e+002,-2.660842e-004
5.264798e+002,-6.324988e-004
5.284083e+002,8.357151e-004
5.303368e+002,6.165981e-004
5.322653e+002,-2.964484e-004
5.341938e+002,-7.698824e-004
5.361223e+002,-4.417171e-004
5.380508e+002,-5.060925e-004
5.399792e+002,1.500646e-003
5.419078e+002,1.257200e-003
5.438363e+002,5.380987e-004
5.457648e+002,-6.159181e-005
5.476932e+002,9.061667e-004
5.496218e+002,1.679528e-003
5.515503e+002,1.793566e-003
5.534788e+002,7.342411e-004
5.554072e+002,1.285912e-003
5.573358e+002,1.485152e-003
5.592643e+002,2.051428e-003
5.611927e+002,8.696778e-004
5.631212e+002,2.282209e-004
5.650497e+002,7.321501e-004
5.669783e+002,1.445523e-003
5.689067e+002,2.030588e-003
5.708352e+002,1.711827e-003
5.727637e+002,3.339870e-004
5.746923e+002,-9.479567e-004
5.766207e+002,-8.657904e-004
5.785492e+002,-1.523974e-003
5.804777e+002,-1.168798e-002
5.824063e+002,-1.209519e-002
5.843347e+002,-2.617801e-003
5.862632e+002,-2.287634e-004
5.881917e+002,-9.887530e-004
5.901202e+002,-1.917601e-003
5.920487e+002,-2.988030e-003
5.939772e+002,-2.906117e-003
5.959057e+002,-1.561481e-003
5.978342e+002,-2.155828e-004
5.997627e+002,6.048853e-004
6.016912e+002,6.284439e-004
6.036197e+002,8.146018e-004
6.055482e+002,9.373124e-004
6.074767e+002,2.574643e-003
6.094052e+002,4.205490e-003
6.113337e+002,5.171883e-003
6.132622e+002,4.936560e-003
6.151907e+002,4.176317e-003
6.171192e+002,3.689029e-003
6.190477e+002,3.350950e-003
6.209762e+002,3.750453e-003
6.229047e+002,2.023564e-003
6.248332e+002,-8.059992e-004
6.267617e+002,-2.569450e-003
6.286902e+002,-3.237820e-003
6.306187e+002,-2.702403e-003
6.325472e+002,-1.740122e-003
6.344756e+002,-7.211928e-004
6.364042e+002,-4.711423e-004
6.383326e+002,-8.005422e-004
6.402612e+002,-9.219032e-004
6.421896e+002,-3.154246e-005
6.441182e+002,3.536179e-004
6.460466e+002,-3.029051e-004
6.479752e+002,-4.819322e-004
6.499036e+002,-6.858960e-004
6.518322e+002,-7.723630e-004
6.537606e+002,9.145091e-006
6.556891e+002,3.694691e-004
6.576177e+002,1.917227e-004
6.595461e+002,1.724969e-004
6.614746e+002,-6.450050e-004
6.634031e+002,-1.737317e-003
6.653317e+002,-2.920115e-004
6.672601e+002,5.262494e-003
6.691886e+002,3.716632e-003
6.711171e+002,-6.572132e-004
6.730457e+002,-6.593967e-004
6.749741e+002,-4.891804e-004
6.769026e+002,-8.458168e-004
6.788311e+002,-1.198328e-003
6.807596e+002,-1.093305e-003
6.826881e+002,-1.254695e-003
6.846166e+002,-1.206886e-003
6.865451e+002,-1.103815e-003
6.884736e+002,-1.527903e-003
6.904021e+002,-1.778699e-003
6.923306e+002,-1.569899e-003
6.942591e+002,-1.524271e-003
6.961876e+002,-1.613476e-003
6.981161e+002,-1.675368e-003
7.000446e+002,-2.285361e-003
7.019731e+002,-3.020409e-003
7.039016e+002,-3.018040e-003
7.058301e+002,-2.872939e-003
7.077585e+002,-3.240253e-003
7.096871e+002,-3.905622e-003
7.116156e+002,-4.150847e-003
7.135441e+002,-4.662881e-003
7.154725e+002,-4.964452e-003
7.174011e+002,-5.114816e-003
7.193296e+002,-5.001663e-003
7.212581e+002,-4.508065e-003
7.231865e+002,-4.300870e-003
7.251151e+002,-4.221501e-003
7.270436e+002,-4.014332e-003
7.289720e+002,-4.102339e-003
7.309005e+002,-3.946699e-003
7.328290e+002,-3.407389e-003
7.347576e+002,-3.024884e-003
7.366860e+002,-3.277250e-003
7.386145e+002,-3.768405e-003
7.405430e+002,-3.363400e-003
7.424716e+002,-2.625080e-003
7.444000e+002,-2.042344e-003
7.463285e+002,-2.023084e-003
7.482570e+002,-2.338028e-003
7.501855e+002,-2.182546e-003
7.521140e+002,-1.324433e-003
7.540425e+002,-5.280674e-004
7.559710e+002,-2.611171e-004
7.578995e+002,3.030171e-004
7.598280e+002,9.461452e-004
7.617565e+002,1.018242e-003
7.636850e+002,1.218788e-003
7.656135e+002,1.968308e-003
7.675420e+002,2.317670e-003
7.694705e+002,2.106461e-003
7.713990e+002,1.771541e-003
7.733275e+002,1.587367e-003
7.752560e+002,1.512416e-003
7.771844e+002,1.667121e-003
7.791130e+002,1.475245e-003
7.810415e+002,1.380202e-003
7.829700e+002,1.435716e-003
7.848984e+002,1.299803e-003
7.868270e+002,9.465437e-004
7.887555e+002,6.754986e-004
7.906840e+002,6.233671e-004
7.926124e+002,4.552856e-005
7.945410e+002,-5.537143e-004
7.964695e+002,-9.719259e-004
7.983979e+002,-1.243858e-003
8.003264e+002,-1.069276e-003
8.022549e+002,-1.046139e-003
8.041835e+002,-1.175395e-003
8.061119e+002,-1.396374e-003
8.080404e+002,-1.546062e-003
8.099689e+002,-9.882241e-004
8.118975e+002,-2.140594e-004
8.138259e+002,-4.231474e-004
8.157545e+002,-6.900312e-004
8.176830e+002,-5.331968e-004
8.196115e+002,-1.208967e-003
8.215399e+002,-1.821331e-003
8.234684e+002,-2.082246e-003
8.253970e+002,-2.321912e-003
8.273254e+002,-2.314859e-003
8.292539e+002,-2.700691e-003
8.311824e+002,-3.162236e-003
8.331110e+002,-3.056306e-003
8.350394e+002,-2.983456e-003
8.369679e+002,-2.925798e-003
8.388964e+002,-2.845520e-003
8.408250e+002,-2.481891e-003
8.427534e+002,-2.565102e-003
8.446819e+002,-3.029392e-003
8.466104e+002,-3.031300e-003
8.485389e+002,-2.932907e-003
8.504674e+002,-2.987043e-003
8.523959e+002,-3.012347e-003
8.543244e+002,-2.863262e-003
8.562529e+002,-2.599555e-003
8.581814e+002,-2.567112e-003
8.601099e+002,-2.459125e-003
8.620384e+002,-2.759003e-003
8.639669e+002,-2.524190e-003
8.658954e+002,-2.396884e-003
8.678239e+002,-2.763218e-003
8.697524e+002,-2.622182e-003
8.716809e+002,-2.309520e-003
8.736094e+002,-2.373916e-003
8.755378e+002,-2.512364e-003
8.774664e+002,-1.961077e-003
8.793949e+002,-1.889758e-003
8.813234e+002,-2.223688e-003
8.832518e+002,-1.824070e-003
8.851804e+002,-1.748339e-003
8.871089e+002,-1.784936e-003
8.890374e+002,-1.854688e-003
8.909658e+002,-1.785266e-003
8.928943e+002,-1.672265e-003
8.948229e+002,-1.924297e-003
8.967513e+002,-2.112022e-003
8.986798e+002,-1.889890e-003
9.006083e+002,-1.966750e-003
9.025369e+002,-2.124914e-003
9.044653e+002,-2.057645e-003
9.063938e+002,-2.161941e-003
9.083223e+002,-2.742541e-003
9.102509e+002,-3.083087e-003
9.121793e+002,-2.953246e-003
9.141078e+002,-3.481944e-003
9.160364e+002,-3.934747e-003
9.179648e+002,-3.615143e-003
9.198933e+002,-3.814784e-003
9.218218e+002,-4.155770e-003
9.237504e+002,-4.404562e-003
9.256788e+002,-4.642589e-003
9.276073e+002,-4.727551e-003
9.295358e+002,-4.939982e-003
9.314644e+002,-5.244536e-003
9.333928e+002,-5.215793e-003
9.353213e+002,-5.171234e-003
9.372498e+002,-5.304963e-003
9.391783e+002,-5.703127e-003
9.411068e+002,-5.860623e-003
9.430353e+002,-5.738639e-003
9.449637e+002,-5.510274e-003
9.468923e+002,-5.322736e-003
9.488208e+002,-5.580020e-003
9.507493e+002,-5.528497e-003
9.526777e+002,-5.368982e-003
9.546063e+002,-5.093825e-003
9.565348e+002,-4.811481e-003
9.584633e+002,-4.831371e-003
9.603917e+002,-5.000844e-003
9.623203e+002,-4.795195e-003
9.642488e+002,-4.373664e-003
9.661772e+002,-4.257332e-003
9.681057e+002,-4.178185e-003
9.700343e+002,-4.317568e-003
9.719628e+002,-4.209031e-003
9.738912e+002,-3.946043e-003
9.758197e+002,-3.760226e-003
9.777483e+002,-3.598385e-003
9.796768e+002,-3.666138e-003
9.816052e+002,-3.661571e-003
9.835337e+002,-3.333349e-003
9.854623e+002,-3.257782e-003
9.873907e+002,-3.256335e-003
9.893192e+002,-3.164243e-003
9.912477e+002,-3.199536e-003
9.931763e+002,-3.127072e-003
9.951047e+002,-3.046106e-003
9.970332e+002,-3.075224e-003
9.989617e+002,-3.058149e-003
1.000890e+003,-2.895157e-003
1.002819e+003,-2.607559e-003
1.004747e+003,-2.356780e-003
1.006676e+003,-2.284801e-003
1.008604e+003,-2.142191e-003
1.010533e+003,-2.011178e-003
1.012461e+003,-1.955403e-003
1.014390e+003,-1.848056e-003
1.016318e+003,-1.635857e-003
1.018247e+003,-1.508554e-003
1.020175e+003,-1.333617e-003
1.022104e+003,-9.496098e-004
1.024032e+003,-6.140034e-004
1.025961e+003,-4.315221e-004
1.027889e+003,-4.799794e-004
1.029818e+003,-3.944141e-004
1.031746e+003,-1.339734e-004
1.033675e+003,7.462427e-005
1.035603e+003,3.277080e-005
1.037532e+003,2.753980e-004
1.039460e+003,5.521983e-004
1.041389e+003,6.818039e-004
1.043317e+003,9.304721e-004
1.045246e+003,1.119251e-003
1.047174e+003,1.060124e-003
1.049103e+003,1.163934e-003
1.051031e+003,1.022261e-003
1.052960e+003,6.929214e-004
1.054888e+003,6.039895e-004
1.056817e+003,8.302707e-004
1.058745e+003,9.184852e-004
1.060674e+003,9.072292e-004
1.062602e+003,8.554019e-004
1.064531e+003,8.377402e-004
1.066459e+003,8.517831e-004
1.068388e+003,9.897805e-004
1.070316e+003,1.124400e-003
1.072245e+003,1.261653e-003
1.074173e+003,1.227294e-003
1.076102e+003,1.250455e-003
1.078030e+003,1.372923e-003
1.079959e+003,1.338422e-003
1.081887e+003,1.501976e-003
1.083816e+003,1.877651e-003
1.085744e+003,2.247022e-003
1.087673e+003,2.441673e-003
1.089601e+003,2.603176e-003
1.091530e+003,2.848544e-003
1.093458e+003,3.113073e-003
1.095387e+003,3.405681e-003
1.097315e+003,3.468000e-003
1.099244e+003,3.455576e-003
1.101172e+003,3.528825e-003
1.103101e+003,3.577599e-003
1.105029e+003,3.893420e-003
1.106958e+003,3.911909e-003
1.108886e+003,3.859320e-003
1.110815e+003,3.816332e-003
1.112743e+003,3.732373e-003
1.114672e+003,3.744671e-003
1.116600e+003,4.158754e-003
1.118529e+003,4.474463e-003
1.120457e+003,4.423078e-003
1.122386e+003,4.266117e-003
1.124314e+003,4.009279e-003
1.126243e+003,3.674493e-003
1.128171e+003,3.520508e-003
1.130100e+003,3.427689e-003
1.132028e+003,3.129092e-003
1.133957e+003,2.906948e-003
1.135885e+003,2.619009e-003
1.137814e+003,2.035482e-003
1.139742e+003,1.371527e-003
1.141671e+003,1.226530e-003
1.143599e+003,9.159285e-004
1.145528e+003,3.440344e-004
1.147456e+003,-4.860492e-005
1.149385e+003,-2.519444e-004
1.151313e+003,-6.272711e-004
1.153242e+003,-1.070466e-003
1.155170e+003,-1.274055e-003
1.157099e+003,-1.293249e-003
1.159027e+003,-1.448092e-003
1.160956e+003,-1.856899e-003
1.162884e+003,-2.020511e-003
1.164813e+003,-2.028427e-003
1.166741e+003,-2.151753e-003
1.168670e+003,-2.173743e-003
1.170598e+003,-2.150203e-003
1.172526e+003,-2.160193e-003
1.174455e+003,-2.380407e-003
1.176384e+003,-2.349002e-003
1.178312e+003,-2.285394e-003
1.180240e+003,-2.401991e-003
1.182169e+003,-2.460311e-003
1.184098e+003,-2.565926e-003
1.186026e+003,-2.583185e-003
1.187954e+003,-2.449867e-003
1.189883e+003,-2.433426e-003
1.191812e+003,-2.564444e-003
1.193740e+003,-2.546755e-003
1.195668e+003,-2.695290e-003
1.197597e+003,-2.824518e-003
1.199526e+003,-2.737075e-003
1.201454e+003,-2.513682e-003
1.203382e+003,-2.227875e-003
1.205311e+003,-2.149478e-003
1.207240e+003,-2.054315e-003
1.209168e+003,-1.846770e-003
1.211096e+003,-1.650348e-003
1.213025e+003,-1.539459e-003
1.214953e+003,-1.525262e-003
1.216882e+003,-1.539954e-003
1.218810e+003,-1.497129e-003
1.220739e+003,-1.533582e-003
1.222667e+003,-1.416487e-003
1.224596e+003,-1.163664e-003
1.226524e+003,-1.042933e-003
1.228453e+003,-9.430966e-004
1.230381e+003,-1.025414e-003
1.232310e+003,-9.864389e-004
1.234238e+003,-8.452216e-004
1.236167e+003,-8.178060e-004
1.238095e+003,-7.272131e-004
1.240024e+003,-6.898989e-004
1.241952e+003,-7.338619e-004
1.243881e+003,-1.038768e-003
1.245809e+003,-1.293976e-003
1.247738e+003,-1.390693e-003
1.249666e+003,-1.261402e-003
1.251595e+003,-1.252613e-003
1.253523e+003,-1.377316e-003
1.255452e+003,-1.484152e-003
1.257380e+003,-1.662198e-003
1.259309e+003,-1.669229e-003
1.261237e+003,-1.499837e-003
1.263166e+003,-1.304811e-003
1.265094e+003,-1.039363e-003
1.267023e+003,-6.877485e-004
1.268951e+003,-3.600178e-004
1.270880e+003,-1.303960e-004
1.272808e+003,-8.574243e-005
1.274737e+003,1.605973e-004
1.276665e+003,6.145409e-004
1.278594e+003,9.523549e-004
1.280522e+003,1.171774e-003
1.282451e+003,1.371361e-003
1.284379e+003,1.771009e-003
1.286308e+003,2.125240e-003
1.288236e+003,2.496889e-003
1.290165e+003,2.861652e-003
1.292093e+003,3.173281e-003
1.294022e+003,3.687525e-003
1.295950e+003,4.117609e-003
1.297879e+003,4.255611e-003
1.299807e+003,4.311928e-003
1.301736e+003,4.401254e-003
1.303664e+003,4.354464e-003
1.305593e+003,4.257217e-003
1.307521e+003,4.223523e-003
1.309450e+003,4.212114e-003
1.311378e+003,3.922073e-003
1.313307e+003,3.526554e-003
1.315235e+003,3.282972e-003
1.317164e+003,3.118647e-003
1.319092e+003,2.776443e-003
1.321021e+003,2.341488e-003
1.322949e+003,2.044503e-003
1.324878e+003,1.794165e-003
1.326806e+003,1.432491e-003
1.328735e+003,1.265574e-003
1.330663e+003,1.256237e-003
1.332592e+003,1.167821e-003
1.334520e+003,1.070454e-003
1.336449e+003,1.077662e-003
1.338377e+003,1.192473e-003
1.340306e+003,1.133835e-003
1.342234e+003,1.025748e-003
1.344163e+003,9.379101e-004
1.346091e+003,7.863527e-004
1.348020e+003,7.913650e-004
1.349948e+003,7.153231e-004
1.351877e+003,5.737302e-004
1.353805e+003,6.197171e-004
1.355734e+003,6.376354e-004
1.357662e+003,5.082421e-004
1.359591e+003,4.351685e-004
1.361519e+003,5.121565e-004
1.363448e+003,4.491985e-004
1.365376e+003,4.463385e-005
1.367305e+003,-2.333666e-004
1.369233e+003,-3.702807e-004
1.371162e+003,-3.029051e-004
1.373090e+003,-1.023059e-004
1.375019e+003,-1.655392e-004
1.376947e+003,-2.321413e-004
1.378876e+003,-2.005803e-004
1.380804e+003,-2.653888e-004
1.382733e+003,-3.982542e-004
1.384661e+003,-4.499921e-004
1.386590e+003,-3.430006e-004
1.388518e+003,-5.629137e-004
1.390447e+003,-1.142812e-003
1.392375e+003,-1.269925e-003
1.394304e+003,-1.064781e-003
1.396232e+003,-1.304613e-003
1.398161e+003,-1.364831e-003
1.400089e+003,-1.373881e-003
1.402018e+003,-1.560028e-003
1.403946e+003,-1.672463e-003
1.405875e+003,-1.805262e-003
1.407803e+003,-2.013355e-003
1.409732e+003,-2.156435e-003
1.411660e+003,-2.119243e-003
1.413589e+003,-2.059459e-003
1.415517e+003,-1.752200e-003
1.417446e+003,-1.005580e-003
1.419374e+003,-1.532179e-004
1.421303e+003,1.498248e-004
1.423231e+003,7.245497e-004
1.425160e+003,1.278601e-003
1.427088e+003,1.599472e-003
1.429017e+003,2.021667e-003
1.430945e+003,2.244724e-003
1.432874e+003,2.618476e-003
1.434802e+003,3.435203e-003
1.436731e+003,4.086970e-003
1.438659e+003,3.977176e-003
1.440588e+003,4.264478e-003
1.442516e+003,4.932169e-003
1.444445e+003,5.523363e-003
1.446373e+003,6.128166e-003
1.448302e+003,6.623146e-003
1.450230e+003,6.999069e-003
1.452159e+003,7.477446e-003
1.454087e+003,8.216649e-003
1.456016e+003,9.703043e-003
1.457944e+003,1.018136e-002
1.459873e+003,9.461730e-003
1.461801e+003,9.222277e-003
1.463730e+003,9.616684e-003
1.465658e+003,9.737265e-003
1.467587e+003,9.388996e-003
1.469515e+003,9.387845e-003
1.471444e+003,9.743772e-003
1.473372e+003,9.615736e-003
1.475301e+003,8.819536e-003
1.477229e+003,7.961818e-003
1.479158e+003,7.268970e-003
1.481086e+003,6.856322e-003
1.483015e+003,6.244892e-003
1.484943e+003,5.739968e-003
1.486872e+003,5.476720e-003
1.488800e+003,5.248542e-003
1.490729e+003,4.819515e-003
1.492657e+003,4.074059e-003
1.494586e+003,3.726624e-003
1.496514e+003,3.522345e-003
1.498443e+003,2.937603e-003
1.500371e+003,2.283927e-003
1.502300e+003,1.881244e-003
1.504228e+003,2.181381e-003
1.506157e+003,2.993850e-003
1.508085e+003,2.263609e-003
1.510014e+003,1.160146e-003
1.511942e+003,7.958795e-004
1.513871e+003,7.099798e-004
1.515799e+003,9.683940e-004
1.517728e+003,1.163269e-003
1.519656e+003,1.487746e-003
1.521585e+003,1.874822e-003
1.523513e+003,1.427837e-003
1.525442e+003,1.426574e-003
1.527370e+003,1.389510e-003
1.529299e+003,1.438475e-003
1.531227e+003,1.685482e-003
1.533156e+003,2.412051e-003
1.535084e+003,2.504187e-003
1.537013e+003,2.891270e-003
1.538941e+003,4.329698e-003
1.540870e+003,4.881166e-003
1.542798e+003,4.568209e-003
1.544727e+003,4.482196e-003
1.546655e+003,4.293924e-003
1.548584e+003,4.513131e-003
1.550512e+003,4.971180e-003
1.552441e+003,5.539673e-003
1.554369e+003,6.332667e-003
1.556298e+003,7.208326e-003
1.558226e+003,8.923628e-003
1.560155e+003,9.163796e-003
1.562083e+003,8.304926e-003
1.564012e+003,8.420717e-003
1.565940e+003,8.579998e-003
1.567869e+003,8.904282e-003
1.569797e+003,9.421704e-003
1.571726e+003,9.038367e-003
1.573654e+003,8.958094e-003
1.575583e+003,9.615532e-003
1.577511e+003,9.489634e-003
1.579440e+003,8.915071e-003
1.581368e+003,8.700157e-003
1.583297e+003,8.453014e-003
1.585225e+003,8.227084e-003
1.587154e+003,7.887311e-003
1.589082e+003,7.510449e-003
1.591010e+003,7.070360e-003
1.592939e+003,6.562256e-003
1.594868e+003,6.141339e-003
1.596796e+003,5.636536e-003
1.598724e+003,5.100602e-003
1.600653e+003,4.546077e-003
1.602582e+003,4.086201e-003
1.604510e+003,3.558055e-003
1.606438e+003,3.075297e-003
1.608367e+003,2.697586e-003
1.610296e+003,2.156340e-003
1.612224e+003,1.586436e-003
1.614152e+003,1.421820e-003
1.616081e+003,1.617298e-003
1.618010e+003,1.225301e-003
1.619938e+003,7.004217e-004
1.621866e+003,7.598978e-004
1.623795e+003,5.417480e-004
1.625724e+003,8.870888e-005
1.627652e+003,-4.217758e-005
1.629580e+003,-1.773965e-004
1.631509e+003,-4.430080e-004
1.633438e+003,-2.287634e-004
1.635366e+003,1.835019e-004
1.637294e+003,-4.174539e-004
1.639223e+003,-1.161913e-003
1.641151e+003,-1.513771e-003
1.643080e+003,-1.686821e-003
1.645008e+003,-1.338737e-003
1.646937e+003,-1.224860e-003
1.648865e+003,-1.990993e-003
1.650794e+003,-1.885634e-003
1.652722e+003,-6.896342e-004
1.654651e+003,-1.744478e-003
1.656579e+003,-2.913292e-003
1.658508e+003,-3.150197e-003
1.660436e+003,-3.157204e-003
1.662365e+003,-2.976907e-003
1.664293e+003,-3.195228e-003
1.666222e+003,-3.611364e-003
1.668150e+003,-3.358995e-003
1.670079e+003,-3.321084e-003
1.672007e+003,-3.883554e-003
1.673936e+003,-3.942201e-003
1.675864e+003,-4.109757e-003
1.677793e+003,-4.905682e-003
1.679721e+003,-5.216415e-003
1.681650e+003,-5.126113e-003
1.683578e+003,-4.482946e-003
1.685507e+003,-5.169302e-003
1.687435e+003,-6.139966e-003
1.689364e+003,-6.461799e-003
1.691292e+003,-6.708555e-003
1.693221e+003,-6.683432e-003
1.695149e+003,-6.011395e-003
1.697078e+003,-6.082105e-003
1.699006e+003,-5.850521e-003
1.700935e+003,-5.808479e-003
1.702863e+003,-6.868491e-003
1.704792e+003,-6.998537e-003
1.706720e+003,-7.192522e-003
1.708649e+003,-7.573526e-003
1.710577e+003,-7.746424e-003
1.712506e+003,-7.649810e-003
1.714434e+003,-7.354073e-003
1.716363e+003,-6.977898e-003
1.718291e+003,-7.093275e-003
1.720220e+003,-7.835923e-003
1.722148e+003,-8.141087e-003
1.724077e+003,-8.259050e-003
1.726005e+003,-8.272866e-003
1.727934e+003,-8.212395e-003
1.729862e+003,-8.123104e-003
1.731791e+003,-7.775293e-003
1.733719e+003,-7.197639e-003
1.735648e+003,-7.772462e-003
1.737576e+003,-8.217078e-003
1.739505e+003,-8.002439e-003
1.741433e+003,-8.271760e-003
1.743362e+003,-8.370576e-003
1.745290e+003,-8.168305e-003
1.747219e+003,-7.836606e-003
1.749147e+003,-7.546206e-003
1.751076e+003,-7.392610e-003
1.753004e+003,-7.747823e-003
1.754933e+003,-7.903083e-003
1.756861e+003,-7.756937e-003
1.758790e+003,-7.862541e-003
1.760718e+003,-7.638578e-003
1.762647e+003,-7.570107e-003
1.764575e+003,-7.894526e-003
1.766504e+003,-7.800809e-003
1.768432e+003,-7.673217e-003
1.770361e+003,-7.599704e-003
1.772289e+003,-7.274250e-003
1.774218e+003,-7.497684e-003
1.776146e+003,-7.825541e-003
1.778075e+003,-7.910241e-003
1.780003e+003,-7.842626e-003
1.781932e+003,-7.810279e-003
1.783860e+003,-7.747010e-003
1.785789e+003,-7.636755e-003
1.787717e+003,-7.725658e-003
1.789646e+003,-7.731354e-003
1.791574e+003,-7.469350e-003
1.793503e+003,-7.512501e-003
1.795431e+003,-7.778255e-003
1.797360e+003,-7.779720e-003
1.799288e+003,-7.666087e-003
1.801217e+003,-7.773145e-003
1.803145e+003,-8.014507e-003
1.805074e+003,-8.028526e-003
1.807002e+003,-8.021955e-003
1.808931e+003,-8.093933e-003
1.810859e+003,-8.095299e-003
1.812788e+003,-8.124406e-003
1.814716e+003,-8.207876e-003
1.816645e+003,-8.225628e-003
1.818573e+003,-8.226636e-003
1.820502e+003,-8.191879e-003
1.822430e+003,-8.088697e-003
1.824359e+003,-7.915642e-003
1.826287e+003,-7.969420e-003
1.828216e+003,-7.943069e-003
1.830144e+003,-7.890394e-003
1.832073e+003,-8.269160e-003
1.834001e+003,-8.326795e-003
1.835930e+003,-8.205437e-003
1.837858e+003,-8.233788e-003
1.839787e+003,-8.255702e-003
1.841715e+003,-8.192400e-003
1.843644e+003,-7.832441e-003
1.845572e+003,-8.033600e-003
1.847501e+003,-8.394042e-003
1.849429e+003,-8.385007e-003
1.851358e+003,-8.257164e-003
1.853286e+003,-8.142096e-003
1.855215e+003,-8.135137e-003
1.857143e+003,-8.141381e-003
1.859072e+003,-8.150291e-003
1.861000e+003,-8.169346e-003
1.862929e+003,-8.172077e-003
1.864857e+003,-8.079688e-003
1.866786e+003,-7.971502e-003
1.868714e+003,-7.867943e-003
1.870643e+003,-8.069801e-003
1.872571e+003,-8.219158e-003
1.874500e+003,-8.117056e-003
1.876428e+003,-8.036951e-003
1.878357e+003,-7.991021e-003
1.880285e+003,-7.989036e-003
1.882214e+003,-8.061084e-003
1.884142e+003,-8.040723e-003
1.886071e+003,-8.038934e-003
1.887999e+003,-8.000096e-003
1.889928e+003,-7.942450e-003
1.891856e+003,-8.051326e-003
1.893785e+003,-8.007416e-003
1.895713e+003,-7.929339e-003
1.897642e+003,-7.979309e-003
1.899570e+003,-7.954195e-003
1.901499e+003,-7.894331e-003
1.903427e+003,-7.876728e-003
1.905356e+003,-7.914243e-003
1.907284e+003,-7.903767e-003
1.909213e+003,-7.824565e-003
1.911141e+003,-7.947851e-003
1.913070e+003,-8.054580e-003
1.914998e+003,-7.927713e-003
1.916927e+003,-7.701245e-003
1.918855e+003,-7.664916e-003
1.920784e+003,-7.756969e-003
1.922712e+003,-7.778483e-003
1.924641e+003,-7.876370e-003
1.926569e+003,-7.823394e-003
1.928498e+003,-7.868463e-003
1.930426e+003,-7.933569e-003
1.932355e+003,-7.964117e-003
1.934283e+003,-8.039390e-003
1.936212e+003,-8.100828e-003
1.938140e+003,-8.127820e-003
1.940069e+003,-8.065735e-003
1.941997e+003,-7.851477e-003
1.943926e+003,-7.878680e-003
1.945854e+003,-8.031453e-003
1.947783e+003,-8.120340e-003
1.949711e+003,-8.142096e-003
1.951640e+003,-8.102324e-003
1.953568e+003,-8.086973e-003
1.955497e+003,-8.124373e-003
1.957425e+003,-8.172110e-003
1.959354e+003,-8.115267e-003
1.961282e+003,-8.090941e-003
1.963211e+003,-8.124145e-003
1.965139e+003,-8.158647e-003
1.967068e+003,-8.161671e-003
1.968996e+003,-8.230277e-003
1.970925e+003,-8.131430e-003
1.972853e+003,-8.043911e-003
1.974782e+003,-8.027257e-003
1.976710e+003,-7.998275e-003
1.978639e+003,-8.005594e-003
1.980567e+003,-8.074159e-003
1.982496e+003,-8.144372e-003
1.984424e+003,-8.072793e-003
1.986353e+003,-7.809368e-003
1.988281e+003,-7.745708e-003
1.990210e+003,-7.779199e-003
1.992138e+003,-7.723933e-003
1.994067e+003,-7.740761e-003
1.995995e+003,-7.786782e-003
1.997924e+003,-7.817537e-003
1.999852e+003,-7.802143e-003
2.001781e+003,-7.737148e-003
2.003709e+003,-7.672012e-003
2.005638e+003,-7.693204e-003
2.007566e+003,-7.669245e-003
2.009495e+003,-7.529761e-003
2.011423e+003,-7.573982e-003
2.013352e+003,-7.618230e-003
2.015280e+003,-7.576261e-003
2.017208e+003,-7.500192e-003
2.019137e+003,-7.483289e-003
2.021066e+003,-7.525365e-003
2.022994e+003,-7.632067e-003
2.024922e+003,-7.630634e-003
2.026851e+003,-7.572028e-003
2.028780e+003,-7.559980e-003
2.030708e+003,-7.556072e-003
2.032636e+003,-7.526244e-003
2.034565e+003,-7.519536e-003
2.036494e+003,-7.490780e-003
2.038422e+003,-7.476645e-003
2.040350e+003,-7.488630e-003
2.042279e+003,-7.531129e-003
2.044208e+003,-7.481628e-003
2.046136e+003,-7.420754e-003
2.048064e+003,-7.402122e-003
2.049993e+003,-7.373782e-003
2.051921e+003,-7.404370e-003
2.053850e+003,-7.402643e-003
2.055778e+003,-7.392643e-003
2.057707e+003,-7.346123e-003
2.059635e+003,-7.306116e-003
2.061564e+003,-7.295038e-003
2.063492e+003,-7.421145e-003
2.065421e+003,-7.464171e-003
2.067349e+003,-7.372707e-003
2.069278e+003,-7.311915e-003
2.071206e+003,-7.245576e-003
2.073135e+003,-7.134183e-003
2.075063e+003,-7.058884e-003
2.076992e+003,-7.104032e-003
2.078920e+003,-7.114463e-003
2.080849e+003,-7.023479e-003
2.082777e+003,-7.010503e-003
2.084706e+003,-7.091287e-003
2.086634e+003,-7.100773e-003
2.088563e+003,-7.060579e-003
2.090491e+003,-6.985789e-003
2.092420e+003,-6.991038e-003
2.094348e+003,-6.887864e-003
2.096277e+003,-6.798463e-003
2.098205e+003,-6.769659e-003
2.100134e+003,-6.729663e-003
2.102062e+003,-6.692503e-003
2.103991e+003,-6.664671e-003
2.105919e+003,-6.542750e-003
2.107848e+003,-6.421774e-003
2.109776e+003,-6.474562e-003
2.111705e+003,-6.493169e-003
2.113633e+003,-6.413090e-003
2.115562e+003,-6.338972e-003
2.117490e+003,-6.307721e-003
2.119419e+003,-6.235642e-003
2.121347e+003,-6.197851e-003
2.123276e+003,-6.219540e-003
2.125204e+003,-6.201575e-003
2.127133e+003,-6.163095e-003
2.129061e+003,-6.078054e-003
2.130990e+003,-6.010708e-003
2.132918e+003,-6.097102e-003
2.134847e+003,-6.202816e-003
2.136775e+003,-6.103212e-003
2.138704e+003,-6.016688e-003
2.140632e+003,-6.008421e-003
2.142561e+003,-6.025414e-003
2.144489e+003,-6.074852e-003
2.146418e+003,-6.048745e-003
2.148346e+003,-5.939953e-003
2.150275e+003,-5.877490e-003
2.152203e+003,-5.894389e-003
2.154132e+003,-5.916943e-003
2.156060e+003,-5.945346e-003
2.157989e+003,-5.862060e-003
2.159917e+003,-5.824825e-003
2.161846e+003,-5.913446e-003
2.163774e+003,-6.008977e-003
2.165703e+003,-5.983388e-003
2.167631e+003,-5.948713e-003
2.169560e+003,-5.896776e-003
2.171488e+003,-5.910733e-003
2.173417e+003,-5.970381e-003
2.175345e+003,-5.983486e-003
2.177274e+003,-5.880955e-003
2.179202e+003,-5.779053e-003
2.181131e+003,-5.832639e-003
2.183059e+003,-5.920473e-003
2.184988e+003,-5.839798e-003
2.186916e+003,-5.712315e-003
2.188845e+003,-5.770716e-003
2.190773e+003,-5.881674e-003
2.192702e+003,-5.929266e-003
2.194630e+003,-5.908837e-003
2.196559e+003,-5.767871e-003
2.198487e+003,-5.710026e-003
2.200416e+003,-5.789058e-003
2.202344e+003,-5.812794e-003
2.204273e+003,-5.800665e-003
2.206201e+003,-5.853071e-003
2.208130e+003,-5.801319e-003
2.210058e+003,-5.739849e-003
2.211987e+003,-5.774280e-003
2.213915e+003,-5.797166e-003
2.215844e+003,-5.796153e-003
2.217772e+003,-5.828650e-003
2.219701e+003,-5.784513e-003
2.221629e+003,-5.791674e-003
2.223558e+003,-5.769800e-003
2.225486e+003,-5.761201e-003
2.227415e+003,-5.773168e-003
2.229343e+003,-5.712381e-003
2.231272e+003,-5.671732e-003
2.233200e+003,-5.701524e-003
2.235129e+003,-5.728829e-003
2.237057e+003,-5.737723e-003
2.238986e+003,-5.740569e-003
2.240914e+003,-5.791347e-003
2.242843e+003,-5.827637e-003
2.244771e+003,-5.802299e-003
2.246700e+003,-5.771697e-003
2.248628e+003,-5.718300e-003
2.250557e+003,-5.777549e-003
2.252485e+003,-5.870527e-003
2.254414e+003,-5.854607e-003
2.256342e+003,-5.797853e-003
2.258271e+003,-5.854640e-003
2.260199e+003,-5.841662e-003
2.262128e+003,-5.797853e-003
2.264056e+003,-5.815671e-003
2.265985e+003,-5.876869e-003
2.267913e+003,-5.910472e-003
2.269842e+003,-5.878046e-003
2.271770e+003,-5.885335e-003
2.273699e+003,-5.939267e-003
2.275627e+003,-5.997702e-003
2.277556e+003,-6.069134e-003
2.279484e+003,-6.113340e-003
2.281413e+003,-6.065442e-003
2.283341e+003,-6.077204e-003
2.285270e+003,-6.059985e-003
2.287198e+003,-6.067402e-003
2.289127e+003,-5.991559e-003
2.291055e+003,-5.887067e-003
2.292984e+003,-5.831397e-003
2.294912e+003,-5.891252e-003
2.296841e+003,-5.764732e-003
2.298769e+003,-5.472812e-003
2.300698e+003,-5.261722e-003
2.302626e+003,-5.041687e-003
2.304555e+003,-4.815347e-003
2.306483e+003,-4.509508e-003
2.308412e+003,-4.170014e-003
2.310340e+003,-3.780197e-003
2.312269e+003,-3.229926e-003
2.314197e+003,-2.598830e-003
2.316125e+003,-1.913147e-003
2.318054e+003,-1.142284e-003
2.319983e+003,-3.362797e-004
2.321911e+003,4.923858e-004
2.323840e+003,1.251518e-003
2.325768e+003,1.812897e-003
2.327697e+003,2.487491e-003
2.329625e+003,3.321434e-003
2.331553e+003,3.691034e-003
2.333482e+003,3.904052e-003
2.335411e+003,4.124165e-003
2.337339e+003,4.376988e-003
2.339268e+003,4.563186e-003
2.341196e+003,4.384452e-003
2.343125e+003,3.797279e-003
2.345053e+003,2.303879e-003
2.346981e+003,-5.533032e-005
2.348910e+003,-1.328827e-003
2.350839e+003,2.269944e-004
2.352767e+003,3.072961e-003
2.354696e+003,5.377175e-003
2.356624e+003,6.927185e-003
2.358552e+003,7.744879e-003
2.360481e+003,7.962830e-003
2.362409e+003,7.939275e-003
2.364338e+003,7.651220e-003
2.366267e+003,6.843935e-003
2.368195e+003,5.723685e-003
2.370124e+003,4.324578e-003
2.372052e+003,2.620209e-003
2.373980e+003,8.181538e-004
2.375909e+003,-8.587138e-004
2.377838e+003,-2.327021e-003
2.379766e+003,-3.512150e-003
2.381695e+003,-4.347552e-003
2.383623e+003,-4.650031e-003
2.385552e+003,-4.794080e-003
2.387480e+003,-5.017582e-003
2.389408e+003,-5.002580e-003
2.391337e+003,-4.940146e-003
2.393266e+003,-4.946173e-003
2.395194e+003,-4.906926e-003
2.397123e+003,-4.889071e-003
2.399051e+003,-4.871444e-003
2.400979e+003,-4.795162e-003
2.402908e+003,-4.754918e-003
2.404836e+003,-4.727453e-003
2.406765e+003,-4.766520e-003
2.408694e+003,-4.842053e-003
2.410622e+003,-4.723914e-003
2.412551e+003,-4.659144e-003
2.414479e+003,-4.618790e-003
2.416407e+003,-4.539774e-003
2.418336e+003,-4.506229e-003
2.420264e+003,-4.516329e-003
2.422193e+003,-4.515509e-003
2.424122e+003,-4.506425e-003
2.426050e+003,-4.406923e-003
2.427979e+003,-4.373401e-003
2.429907e+003,-4.245257e-003
2.431835e+003,-4.125806e-003
2.433764e+003,-4.049819e-003
2.435692e+003,-4.017156e-003
2.437621e+003,-3.995390e-003
2.439550e+003,-3.981962e-003
2.441478e+003,-3.917607e-003
2.443406e+003,-3.863292e-003
2.445335e+003,-3.804897e-003
2.447263e+003,-3.783055e-003
2.449192e+003,-3.721890e-003
2.451121e+003,-3.679280e-003
2.453049e+003,-3.617739e-003
2.454978e+003,-3.475731e-003
2.456906e+003,-3.344758e-003
2.458834e+003,-3.328844e-003
2.460763e+003,-3.341667e-003
2.462691e+003,-3.452426e-003
2.464620e+003,-3.426128e-003
2.466549e+003,-3.293528e-003
2.468477e+003,-3.270476e-003
2.470406e+003,-3.345974e-003
2.472334e+003,-3.346599e-003
2.474262e+003,-3.247390e-003
2.476191e+003,-3.140033e-003
2.478119e+003,-3.100359e-003
2.480048e+003,-3.080389e-003
2.481977e+003,-2.976611e-003
2.483905e+003,-2.992373e-003
2.485833e+003,-2.980625e-003
2.487762e+003,-2.892128e-003
2.489690e+003,-2.967857e-003
2.491619e+003,-2.960914e-003
2.493547e+003,-2.830641e-003
2.495476e+003,-2.773984e-003
2.497405e+003,-2.754822e-003
2.499333e+003,-2.780568e-003
2.501261e+003,-2.775465e-003
2.503190e+003,-2.768683e-003
2.505118e+003,-2.726111e-003
2.507047e+003,-2.731313e-003
2.508975e+003,-2.770691e-003
2.510904e+003,-2.783531e-003
2.512833e+003,-2.699637e-003
2.514761e+003,-2.684720e-003
2.516689e+003,-2.707507e-003
2.518618e+003,-2.627550e-003
2.520546e+003,-2.529428e-003
2.522475e+003,-2.521324e-003
2.524403e+003,-2.570834e-003
2.526332e+003,-2.554101e-003
2.528260e+003,-2.467889e-003
2.530189e+003,-2.400377e-003
2.532117e+003,-2.437314e-003
2.534046e+003,-2.530515e-003
2.535974e+003,-2.447956e-003
2.537903e+003,-2.385713e-003
2.539831e+003,-2.278208e-003
2.541760e+003,-2.287042e-003
2.543688e+003,-2.278077e-003
2.545617e+003,-2.292250e-003
2.547545e+003,-2.208623e-003
2.549474e+003,-2.173513e-003
2.551402e+003,-2.261563e-003
2.553331e+003,-2.302302e-003
2.555259e+003,-2.134674e-003
2.557188e+003,-2.004582e-003
2.559116e+003,-2.061768e-003
2.561045e+003,-2.072749e-003
2.562973e+003,-2.088313e-003
2.564902e+003,-2.012200e-003
2.566830e+003,-1.894641e-003
2.568759e+003,-1.959065e-003
2.570687e+003,-1.930268e-003
2.572616e+003,-1.843602e-003
2.574544e+003,-1.760054e-003
2.576473e+003,-1.729264e-003
2.578401e+003,-1.710782e-003
2.580330e+003,-1.769360e-003
2.582258e+003,-1.857327e-003
2.584187e+003,-1.766324e-003
2.586115e+003,-1.727086e-003
2.588044e+003,-1.769129e-003
2.589972e+003,-1.692795e-003
2.591901e+003,-1.613377e-003
2.593829e+003,-1.721574e-003
2.595758e+003,-1.778864e-003
2.597686e+003,-1.690485e-003
2.599615e+003,-1.679560e-003
2.601543e+003,-1.645364e-003
2.603472e+003,-1.559368e-003
2.605400e+003,-1.548175e-003
2.607329e+003,-1.548572e-003
2.609257e+003,-1.463976e-003
2.611186e+003,-1.471604e-003
2.613114e+003,-1.476557e-003
2.615043e+003,-1.373914e-003
2.616971e+003,-1.396374e-003
2.618900e+003,-1.448455e-003
2.620828e+003,-1.399478e-003
2.622757e+003,-1.267018e-003
2.624685e+003,-1.281059e-003
2.626614e+003,-1.346070e-003
2.628542e+003,-1.312707e-003
2.630471e+003,-1.278118e-003
2.632399e+003,-1.295925e-003
2.634328e+003,-1.275178e-003
2.636256e+003,-1.284990e-003
2.638185e+003,-1.244255e-003
2.640113e+003,-1.220367e-003
2.642042e+003,-1.233153e-003
2.643970e+003,-1.104509e-003
2.645899e+003,-1.026108e-003
2.647827e+003,-1.023562e-003
2.649756e+003,-9.542384e-004
2.651684e+003,-9.506347e-004
2.653613e+003,-9.727523e-004
2.655541e+003,-8.956498e-004
2.657470e+003,-9.311610e-004
2.659398e+003,-9.109590e-004
2.661327e+003,-7.472583e-004
2.663255e+003,-6.378255e-004
2.665184e+003,-5.950109e-004
2.667112e+003,-4.387050e-004
2.669041e+003,-3.805764e-004
2.670969e+003,-4.000087e-004
2.672898e+003,-3.665066e-004
2.674826e+003,-3.214800e-004
2.676755e+003,-3.288965e-004
2.678683e+003,-2.759189e-004
2.680612e+003,-1.072748e-004
2.682540e+003,-6.278446e-005
2.684469e+003,-4.867118e-005
2.686397e+003,4.953822e-005
2.688326e+003,1.389201e-004
2.690254e+003,2.307073e-004
2.692183e+003,2.235135e-004
2.694111e+003,2.196348e-004
2.696040e+003,2.223863e-004
2.697968e+003,3.044097e-004
2.699897e+003,4.614709e-004
2.701825e+003,4.616699e-004
2.703754e+003,4.670434e-004
2.705682e+003,6.312644e-004
2.707611e+003,6.651116e-004
2.709539e+003,6.661072e-004
2.711468e+003,6.929214e-004
2.713396e+003,7.433685e-004
2.715325e+003,7.804774e-004
2.717253e+003,7.833652e-004
2.719182e+003,8.835559e-004
2.721110e+003,9.239308e-004
2.723039e+003,1.031793e-003
2.724967e+003,1.168651e-003
2.726896e+003,1.226331e-003
2.728824e+003,1.210049e-003
2.730753e+003,1.273484e-003
2.732681e+003,1.317384e-003
2.734610e+003,1.347396e-003
2.736538e+003,1.365577e-003
2.738467e+003,1.442863e-003
2.740395e+003,1.535824e-003
2.742324e+003,1.596812e-003
2.744252e+003,1.719311e-003
2.746181e+003,1.796028e-003
2.748109e+003,1.763889e-003
2.750038e+003,1.854457e-003
2.751966e+003,1.999197e-003
2.753895e+003,2.071836e-003
2.755823e+003,2.163899e-003
2.757752e+003,2.335825e-003
2.759680e+003,2.550112e-003
2.761609e+003,2.794084e-003
2.763537e+003,3.112773e-003
2.765466e+003,3.265946e-003
2.767394e+003,3.346309e-003
2.769323e+003,3.610774e-003
2.771251e+003,3.981490e-003
2.773180e+003,4.332944e-003
2.775108e+003,4.754489e-003
2.777037e+003,5.308510e-003
2.778965e+003,5.721637e-003
2.780894e+003,6.138785e-003
2.782822e+003,6.725500e-003
2.784750e+003,7.305562e-003
2.786679e+003,7.925609e-003
2.788608e+003,8.570840e-003
2.790536e+003,9.112835e-003
2.792465e+003,9.702297e-003
2.794393e+003,1.033579e-002
2.796322e+003,1.100789e-002
2.798250e+003,1.161943e-002
2.800178e+003,1.209836e-002
2.802107e+003,1.264969e-002
2.804036e+003,1.313024e-002
2.805964e+003,1.351895e-002
2.807893e+003,1.392714e-002
2.809821e+003,1.415259e-002
2.811750e+003,1.428232e-002
2.813678e+003,1.430153e-002
2.815606e+003,1.437618e-002
2.817535e+003,1.431608e-002
2.819464e+003,1.424661e-002
2.821392e+003,1.414335e-002
2.823321e+003,1.394814e-002
2.825249e+003,1.369926e-002
2.827177e+003,1.329256e-002
2.829106e+003,1.290043e-002
2.831034e+003,1.248056e-002
2.832963e+003,1.206242e-002
2.834892e+003,1.185289e-002
2.836820e+003,1.143617e-002
2.838749e+003,1.082727e-002
2.840677e+003,1.030013e-002
2.842605e+003,9.897776e-003
2.844534e+003,9.424853e-003
2.846462e+003,8.834009e-003
2.848391e+003,8.390888e-003
2.850320e+003,8.087173e-003
2.852248e+003,7.888087e-003
2.854177e+003,7.766635e-003
2.856105e+003,7.579565e-003
2.858033e+003,7.428941e-003
2.859962e+003,7.384823e-003
2.861890e+003,7.151632e-003
2.863819e+003,6.907322e-003
2.865748e+003,6.930080e-003
2.867676e+003,6.967654e-003
2.869604e+003,6.982672e-003
2.871533e+003,6.992537e-003
2.873461e+003,7.113941e-003
2.875390e+003,7.186497e-003
2.877319e+003,7.246363e-003
2.879247e+003,7.355638e-003
2.881176e+003,7.357963e-003
2.883104e+003,7.416302e-003
2.885032e+003,7.598447e-003
2.886961e+003,7.513922e-003
2.888889e+003,7.389339e-003
2.890818e+003,7.420515e-003
2.892747e+003,7.396686e-003
2.894675e+003,7.289052e-003
2.896604e+003,7.189461e-003
2.898532e+003,7.171169e-003
2.900460e+003,7.265701e-003
2.902389e+003,7.284975e-003
2.904317e+003,7.075883e-003
2.906246e+003,7.038232e-003
2.908175e+003,7.117781e-003
2.910103e+003,7.155539e-003
2.912031e+003,7.151666e-003
2.913960e+003,7.084067e-003
2.915888e+003,7.131523e-003
2.917817e+003,7.213245e-003
2.919745e+003,7.380812e-003
2.921674e+003,7.559570e-003
2.923603e+003,7.763667e-003
2.925531e+003,7.908467e-003
2.927459e+003,8.000359e-003
2.929388e+003,8.068979e-003
2.931316e+003,8.191325e-003
2.933245e+003,8.293780e-003
2.935173e+003,8.307627e-003
2.937102e+003,8.216109e-003
2.939031e+003,8.146994e-003
2.940959e+003,7.994993e-003
2.942887e+003,7.801347e-003
2.944816e+003,7.726597e-003
2.946744e+003,7.603505e-003
2.948673e+003,7.342697e-003
2.950601e+003,6.948799e-003
2.952530e+003,6.535648e-003
2.954458e+003,6.126519e-003
2.956387e+003,5.688165e-003
2.958315e+003,5.266216e-003
2.960244e+003,4.652832e-003
2.962172e+003,4.042220e-003
2.964101e+003,3.541052e-003
2.966029e+003,3.173181e-003
2.967958e+003,2.763571e-003
2.969886e+003,2.308177e-003
2.971815e+003,1.930266e-003
2.973743e+003,1.599705e-003
2.975672e+003,1.204168e-003
2.977600e+003,8.818958e-004
2.979529e+003,5.955286e-004
2.981457e+003,3.446645e-004
2.983386e+003,8.380407e-005
2.985314e+003,-9.975513e-005
2.987243e+003,-2.876076e-004
2.989171e+003,-4.572078e-004
2.991100e+003,-6.789156e-004
2.993028e+003,-7.594636e-004
2.994957e+003,-8.971047e-004
2.996885e+003,-1.010505e-003
2.998814e+003,-1.025182e-003
3.000742e+003,-1.144035e-003
3.002671e+003,-1.335070e-003
3.004599e+003,-1.400865e-003
3.006528e+003,-1.333517e-003
3.008456e+003,-1.449512e-003
3.010385e+003,-1.565872e-003
3.012313e+003,-1.509644e-003
3.014242e+003,-1.524700e-003
3.016170e+003,-1.597169e-003
3.018099e+003,-1.573234e-003
3.020027e+003,-1.664079e-003
3.021956e+003,-1.834166e-003
3.023884e+003,-1.889692e-003
3.025813e+003,-1.786453e-003
3.027741e+003,-1.844856e-003
3.029670e+003,-1.972885e-003
3.031598e+003,-1.928256e-003
3.033527e+003,-1.918458e-003
3.035455e+003,-2.001119e-003
3.037384e+003,-2.039672e-003
3.039312e+003,-2.075453e-003
3.041241e+003,-2.162600e-003
3.043169e+003,-2.231929e-003
3.045098e+003,-2.280318e-003
3.047026e+003,-2.319506e-003
3.048955e+003,-2.362118e-003
3.050883e+003,-2.379946e-003
3.052812e+003,-2.348178e-003
3.054740e+003,-2.397345e-003
3.056669e+003,-2.516317e-003
3.058597e+003,-2.587928e-003
3.060526e+003,-2.680801e-003
3.062454e+003,-2.703325e-003
3.064383e+003,-2.773457e-003
3.066311e+003,-2.829324e-003
3.068240e+003,-2.740203e-003
3.070168e+003,-2.861517e-003
3.072097e+003,-3.208943e-003
3.074025e+003,-3.187926e-003
3.075954e+003,-3.074961e-003
3.077882e+003,-3.141118e-003
3.079811e+003,-3.180229e-003
3.081739e+003,-3.202365e-003
3.083668e+003,-3.277053e-003
3.085596e+003,-3.455253e-003
3.087525e+003,-3.553330e-003
3.089453e+003,-3.512971e-003
3.091382e+003,-3.484639e-003
3.093310e+003,-3.342292e-003
3.095239e+003,-3.299940e-003
3.097167e+003,-3.500285e-003
3.099096e+003,-3.661275e-003
3.101024e+003,-3.625001e-003
3.102953e+003,-3.513596e-003
3.104881e+003,-3.553495e-003
3.106810e+003,-3.569664e-003
3.108738e+003,-3.600948e-003
3.110667e+003,-3.610641e-003
3.112595e+003,-3.525198e-003
3.114524e+003,-3.513037e-003
3.116452e+003,-3.702179e-003
3.118381e+003,-3.711279e-003
3.120309e+003,-3.615143e-003
3.122238e+003,-3.632460e-003
3.124166e+003,-3.657530e-003
3.126095e+003,-3.697185e-003
3.128023e+003,-3.782300e-003
3.129952e+003,-3.823093e-003
3.131880e+003,-3.869039e-003
3.133809e+003,-3.885459e-003
3.135737e+003,-3.882930e-003
3.137666e+003,-3.881485e-003
3.139594e+003,-3.880106e-003
3.141523e+003,-3.783745e-003
3.143451e+003,-3.642876e-003
3.145380e+003,-3.740122e-003
3.147308e+003,-3.928147e-003
3.149237e+003,-3.998837e-003
3.151165e+003,-3.943744e-003
3.153094e+003,-3.808412e-003
3.155022e+003,-3.838956e-003
3.156951e+003,-3.961376e-003
3.158879e+003,-3.904801e-003
3.160808e+003,-3.810383e-003
3.162736e+003,-3.757138e-003
3.164665e+003,-3.774909e-003
3.166593e+003,-3.908643e-003
3.168522e+003,-3.990662e-003
3.170450e+003,-3.880730e-003
3.172379e+003,-3.891074e-003
3.174307e+003,-3.907756e-003
3.176236e+003,-3.854162e-003
3.178164e+003,-3.783876e-003
3.180093e+003,-3.747152e-003
3.182021e+003,-3.717882e-003
3.183950e+003,-3.767880e-003
3.185878e+003,-3.756021e-003
3.187807e+003,-3.662392e-003
3.189735e+003,-3.608341e-003
3.191664e+003,-3.748565e-003
3.193592e+003,-3.796982e-003
3.195521e+003,-3.636731e-003
3.197449e+003,-3.683913e-003
3.199378e+003,-3.818035e-003
3.201306e+003,-3.800923e-003
3.203235e+003,-3.710852e-003
3.205163e+003,-3.647344e-003
3.207092e+003,-3.649611e-003
3.209020e+003,-3.649414e-003
3.210948e+003,-3.632295e-003
3.212877e+003,-3.477802e-003
3.214806e+003,-3.463306e-003
3.216734e+003,-3.545936e-003
3.218663e+003,-3.482733e-003
3.220591e+003,-3.416792e-003
3.222520e+003,-3.399927e-003
3.224448e+003,-3.389867e-003
3.226376e+003,-3.364584e-003
3.228305e+003,-3.171545e-003
3.230234e+003,-2.975722e-003
3.232162e+003,-3.094799e-003
3.234091e+003,-3.076540e-003
3.236019e+003,-2.969470e-003
3.237948e+003,-2.979934e-003
3.239876e+003,-2.882945e-003
3.241804e+003,-2.677706e-003
3.243733e+003,-2.608547e-003
3.245662e+003,-2.560721e-003
3.247590e+003,-2.374080e-003
3.249519e+003,-2.200315e-003
3.251447e+003,-2.100316e-003
3.253375e+003,-2.091512e-003
3.255304e+003,-2.099492e-003
3.257232e+003,-1.970246e-003
3.259161e+003,-1.887548e-003
3.261090e+003,-1.828458e-003
3.263018e+003,-1.895993e-003
3.264947e+003,-1.917733e-003
3.266875e+003,-1.913477e-003
3.268803e+003,-1.747778e-003
3.270732e+003,-1.586637e-003
3.272660e+003,-1.655366e-003
3.274589e+003,-1.672166e-003
3.276518e+003,-1.660152e-003
3.278446e+003,-1.638069e-003
3.280375e+003,-1.595683e-003
3.282303e+003,-1.547251e-003
3.284231e+003,-1.439341e-003
3.286160e+003,-1.561844e-003
3.288088e+003,-1.703621e-003
3.290017e+003,-1.819219e-003
3.291946e+003,-1.779161e-003
3.293874e+003,-1.725337e-003
3.295802e+003,-1.816349e-003
3.297731e+003,-1.929542e-003
3.299659e+003,-2.025359e-003
3.301588e+003,-2.088676e-003
3.303516e+003,-2.257179e-003
3.305445e+003,-2.375201e-003
3.307374e+003,-2.363404e-003
3.309302e+003,-2.409965e-003
3.311230e+003,-2.669012e-003
3.313159e+003,-2.864151e-003
3.315087e+003,-2.976413e-003
3.317016e+003,-2.910428e-003
3.318944e+003,-2.938568e-003
3.320873e+003,-3.133158e-003
3.322802e+003,-3.287938e-003
3.324730e+003,-3.428988e-003
3.326658e+003,-3.524080e-003
3.328587e+003,-3.632460e-003
3.330515e+003,-3.748105e-003
3.332444e+003,-3.786603e-003
3.334372e+003,-3.902633e-003
3.336301e+003,-3.910678e-003
3.338229e+003,-3.834326e-003
3.340158e+003,-3.921679e-003
3.342086e+003,-3.982093e-003
3.344015e+003,-4.090686e-003
3.345943e+003,-4.162072e-003
3.347872e+003,-4.191049e-003
3.349800e+003,-4.408957e-003
3.351729e+003,-4.522428e-003
3.353657e+003,-4.495867e-003
3.355586e+003,-4.542758e-003
3.357514e+003,-4.601217e-003
3.359443e+003,-4.744201e-003
3.361371e+003,-4.890021e-003
3.363300e+003,-4.841693e-003
3.365229e+003,-4.909121e-003
3.367157e+003,-5.221588e-003
3.369085e+003,-5.496893e-003
3.371014e+003,-5.536675e-003
3.372942e+003,-5.471896e-003
3.374871e+003,-5.567328e-003
3.376799e+003,-5.567785e-003
3.378728e+003,-5.638340e-003
3.380656e+003,-5.838098e-003
3.382585e+003,-5.946164e-003
3.384513e+003,-6.025936e-003
3.386442e+003,-6.147185e-003
3.388370e+003,-6.253998e-003
3.390299e+003,-6.252267e-003
3.392227e+003,-6.217678e-003
3.394156e+003,-6.363951e-003
3.396084e+003,-6.379787e-003
3.398013e+003,-6.430067e-003
3.399941e+003,-6.633215e-003
3.401870e+003,-6.638011e-003
3.403798e+003,-6.607108e-003
3.405727e+003,-6.605248e-003
3.407655e+003,-6.628809e-003
3.409584e+003,-6.623817e-003
3.411512e+003,-6.627602e-003
3.413441e+003,-6.717233e-003
3.415369e+003,-6.783784e-003
3.417298e+003,-6.746432e-003
3.419226e+003,-6.747802e-003
3.421155e+003,-6.790178e-003
3.423083e+003,-6.945650e-003
3.425012e+003,-6.961595e-003
3.426940e+003,-6.891419e-003
3.428869e+003,-6.902115e-003
3.430797e+003,-6.898756e-003
3.432726e+003,-6.850977e-003
3.434654e+003,-6.777130e-003
3.436583e+003,-7.029282e-003
3.438511e+003,-7.202919e-003
3.440440e+003,-7.089135e-003
3.442368e+003,-7.250724e-003
3.444297e+003,-7.325175e-003
3.446225e+003,-7.195390e-003
3.448154e+003,-7.114463e-003
3.450082e+003,-7.122351e-003
3.452011e+003,-7.070196e-003
3.453939e+003,-7.119254e-003
3.455868e+003,-7.210414e-003
3.457796e+003,-7.216866e-003
3.459725e+003,-7.334623e-003
3.461653e+003,-7.277704e-003
3.463582e+003,-7.277704e-003
3.465510e+003,-7.595243e-003
3.467439e+003,-7.714330e-003
3.469367e+003,-7.612532e-003
3.471296e+003,-7.521978e-003
3.473224e+003,-7.354333e-003
3.475153e+003,-7.312892e-003
3.477081e+003,-7.462315e-003
3.479010e+003,-7.667227e-003
3.480938e+003,-7.653163e-003
3.482867e+003,-7.667455e-003
3.484795e+003,-7.642029e-003
3.486724e+003,-7.596448e-003
3.488652e+003,-7.594104e-003
3.490581e+003,-7.632881e-003
3.492509e+003,-7.642550e-003
3.494438e+003,-7.603969e-003
3.496366e+003,-7.677384e-003
3.498295e+003,-7.721231e-003
3.500223e+003,-7.589578e-003
3.502152e+003,-7.532464e-003
3.504080e+003,-7.575837e-003
3.506009e+003,-7.740240e-003
3.507937e+003,-7.737668e-003
3.509866e+003,-7.745252e-003
3.511794e+003,-7.733176e-003
3.513723e+003,-7.740858e-003
3.515651e+003,-7.868333e-003
3.517580e+003,-7.903279e-003
3.519508e+003,-7.783137e-003
3.521437e+003,-7.808847e-003
3.523365e+003,-7.823296e-003
3.525294e+003,-7.819521e-003
3.527222e+003,-7.874190e-003
3.529151e+003,-7.977585e-003
3.531079e+003,-8.061768e-003
3.533008e+003,-8.042740e-003
3.534936e+003,-7.941051e-003
3.536865e+003,-7.934480e-003
3.538793e+003,-8.077704e-003
3.540722e+003,-8.041114e-003
3.542650e+003,-8.003934e-003
3.544579e+003,-7.927875e-003
3.546507e+003,-7.558906e-003
3.548436e+003,-7.530413e-003
3.550364e+003,-7.655019e-003
3.552293e+003,-7.733698e-003
3.554221e+003,-7.912714e-003
3.556150e+003,-7.881056e-003
3.558078e+003,-7.783690e-003
3.560007e+003,-7.895860e-003
3.561935e+003,-8.128731e-003
3.563864e+003,-7.945249e-003
3.565792e+003,-7.497130e-003
3.567721e+003,-7.578247e-003
3.569649e+003,-7.903083e-003
3.571578e+003,-7.805560e-003
3.573506e+003,-7.599867e-003
3.575435e+003,-7.619793e-003
3.577363e+003,-7.800516e-003
3.579292e+003,-7.992647e-003
3.581220e+003,-8.087168e-003
3.583149e+003,-7.979668e-003
3.585077e+003,-7.603221e-003
3.587006e+003,-7.221592e-003
3.588934e+003,-7.421861e-003
3.590863e+003,-7.768686e-003
3.592791e+003,-7.635160e-003
3.594720e+003,-7.458146e-003
3.596648e+003,-7.385085e-003
3.598577e+003,-7.790948e-003
3.600505e+003,-7.905719e-003
3.602434e+003,-7.765334e-003
3.604362e+003,-7.694734e-003
3.606291e+003,-7.546694e-003
3.608219e+003,-7.368016e-003
3.610148e+003,-7.500713e-003
3.612076e+003,-7.605500e-003
3.614005e+003,-7.737668e-003
3.615933e+003,-7.639685e-003
3.617862e+003,-7.286110e-003
3.619790e+003,-7.357070e-003
3.621719e+003,-7.759671e-003
3.623647e+003,-7.795732e-003
3.625576e+003,-7.566525e-003
3.627504e+003,-6.901756e-003
3.629433e+003,-6.481483e-003
3.631361e+003,-7.345049e-003
3.633290e+003,-7.566232e-003
3.635218e+003,-7.547769e-003
3.637146e+003,-7.533669e-003
3.639075e+003,-7.555649e-003
3.641004e+003,-7.783007e-003
3.642932e+003,-7.873441e-003
3.644861e+003,-7.769793e-003
3.646789e+003,-7.274674e-003
3.648718e+003,-6.825961e-003
3.650646e+003,-7.117983e-003
3.652574e+003,-7.937994e-003
3.654503e+003,-7.848581e-003
3.656432e+003,-7.438213e-003
3.658360e+003,-7.761103e-003
3.660289e+003,-8.091982e-003
3.662217e+003,-8.205600e-003
3.664146e+003,-8.379222e-003
3.666074e+003,-8.465340e-003
3.668002e+003,-8.130974e-003
3.669931e+003,-7.649614e-003
3.671860e+003,-7.714525e-003
3.673788e+003,-7.423816e-003
3.675717e+003,-7.064915e-003
3.677645e+003,-7.886196e-003
3.679573e+003,-8.142746e-003
3.681502e+003,-8.112730e-003
3.683430e+003,-8.063036e-003
3.685359e+003,-8.057376e-003
3.687288e+003,-7.610156e-003
3.689216e+003,-7.393229e-003
3.691145e+003,-7.556659e-003
3.693073e+003,-7.809465e-003
3.695001e+003,-7.924004e-003
3.696930e+003,-7.819229e-003
3.698858e+003,-7.740826e-003
3.700787e+003,-7.609342e-003
3.702716e+003,-7.624351e-003
3.704644e+003,-7.705021e-003
3.706573e+003,-7.655572e-003
3.708501e+003,-7.698347e-003
3.710429e+003,-7.448733e-003
3.712358e+003,-7.295592e-003
3.714286e+003,-7.788963e-003
3.716215e+003,-8.032592e-003
3.718144e+003,-7.828731e-003
3.720072e+003,-7.723933e-003
3.722000e+003,-7.558189e-003
3.723929e+003,-7.619500e-003
3.725857e+003,-7.720482e-003
3.727786e+003,-7.911087e-003
3.729714e+003,-7.873376e-003
3.731643e+003,-7.356776e-003
3.733572e+003,-7.084018e-003
3.735500e+003,-6.919106e-003
3.737428e+003,-7.325566e-003
3.739357e+003,-7.745089e-003
3.741285e+003,-7.719213e-003
3.743214e+003,-6.681735e-003
3.745142e+003,-6.294103e-003
3.747071e+003,-6.939324e-003
3.749000e+003,-6.328196e-003
3.750928e+003,-6.177860e-003
3.752856e+003,-6.604041e-003
3.754785e+003,-7.080040e-003
3.756713e+003,-7.222276e-003
3.758642e+003,-7.232997e-003
3.760570e+003,-6.997657e-003
3.762499e+003,-7.150969e-003
3.764427e+003,-7.185515e-003
3.766356e+003,-7.149437e-003
3.768284e+003,-7.281223e-003
3.770213e+003,-7.103706e-003
3.772141e+003,-7.397952e-003
3.774070e+003,-7.611718e-003
3.775998e+003,-7.547053e-003
3.777927e+003,-7.335405e-003
3.779855e+003,-7.219832e-003
3.781784e+003,-7.619305e-003
3.783712e+003,-7.749060e-003
3.785641e+003,-7.629365e-003
3.787569e+003,-7.478860e-003
3.789498e+003,-7.679207e-003
3.791426e+003,-7.911348e-003
3.793355e+003,-7.879168e-003
3.795283e+003,-7.253233e-003
3.797212e+003,-6.949726e-003
3.799140e+003,-6.902474e-003
3.801069e+003,-6.480112e-003
3.802997e+003,-6.972290e-003
3.804926e+003,-7.296602e-003
3.806854e+003,-6.938671e-003
3.808783e+003,-7.400428e-003
3.810711e+003,-7.582415e-003
3.812640e+003,-7.398669e-003
3.814568e+003,-7.037204e-003
3.816497e+003,-6.649726e-003
3.818425e+003,-6.771877e-003
3.820354e+003,-6.138594e-003
3.822282e+003,-6.384228e-003
3.824211e+003,-7.240655e-003
3.826139e+003,-7.283275e-003
3.828068e+003,-7.270014e-003
3.829996e+003,-7.065110e-003
3.831925e+003,-6.935704e-003
3.833853e+003,-7.119874e-003
3.835782e+003,-6.966127e-003
3.837710e+003,-6.505345e-003
3.839639e+003,-6.789363e-003
3.841567e+003,-7.044083e-003
3.843496e+003,-6.985593e-003
3.845424e+003,-7.257436e-003
3.847353e+003,-7.540149e-003
3.849281e+003,-7.227066e-003
3.851210e+003,-6.263273e-003
3.853138e+003,-5.260086e-003
3.855067e+003,-5.997245e-003
3.856995e+003,-7.031955e-003
3.858924e+003,-7.120786e-003
3.860852e+003,-6.864969e-003
3.862781e+003,-6.752598e-003
3.864709e+003,-6.536418e-003
3.866638e+003,-6.896017e-003
3.868566e+003,-6.800421e-003
3.870495e+003,-6.622152e-003
3.872423e+003,-6.914801e-003
3.874352e+003,-6.872079e-003
3.876280e+003,-7.075509e-003
3.878209e+003,-7.079258e-003
3.880137e+003,-6.908051e-003
3.882066e+003,-7.203375e-003
3.883994e+003,-7.200833e-003
3.885923e+003,-6.749629e-003
3.887851e+003,-7.089233e-003
3.889780e+003,-6.963845e-003
3.891708e+003,-6.653609e-003
3.893637e+003,-7.109671e-003
3.895565e+003,-7.442089e-003
3.897494e+003,-7.289010e-003
3.899422e+003,-7.016404e-003
3.901351e+003,-6.913399e-003
3.903279e+003,-6.777880e-003
3.905208e+003,-7.073358e-003
3.907136e+003,-7.396259e-003
3.909065e+003,-7.467330e-003
3.910993e+003,-7.376323e-003
3.912922e+003,-7.245999e-003
3.914850e+003,-7.128967e-003
3.916779e+003,-6.993842e-003
3.918707e+003,-7.166613e-003
3.920636e+003,-7.454237e-003
3.922564e+003,-7.199659e-003
3.924493e+003,-6.875275e-003
3.926421e+003,-6.919106e-003
3.928350e+003,-7.163093e-003
3.930278e+003,-7.265126e-003
3.932207e+003,-7.155597e-003
3.934135e+003,-7.355962e-003
3.936064e+003,-7.613965e-003
3.937992e+003,-7.500908e-003
3.939921e+003,-7.330062e-003
3.941849e+003,-7.211717e-003
3.943778e+003,-7.349023e-003
3.945706e+003,-7.396780e-003
3.947635e+003,-7.137475e-003
3.949563e+003,-6.934041e-003
3.951492e+003,-7.196564e-003
3.953420e+003,-7.527058e-003
3.955349e+003,-7.600388e-003
3.957277e+003,-7.681518e-003
3.959206e+003,-7.687573e-003
3.961134e+003,-7.649452e-003
3.963063e+003,-7.532138e-003
3.964991e+003,-7.417562e-003
3.966920e+003,-7.295038e-003
3.968848e+003,-7.084050e-003
3.970777e+003,-7.253135e-003
3.972705e+003,-7.501462e-003
3.974634e+003,-7.405575e-003
3.976562e+003,-7.356158e-003
3.978491e+003,-7.444369e-003
3.980419e+003,-7.533864e-003
3.982348e+003,-7.625393e-003
3.984276e+003,-7.522793e-003
3.986205e+003,-7.511753e-003
3.988133e+003,-7.491040e-003
3.990062e+003,-7.318529e-003
3.991990e+003,-7.288391e-003
3.993919e+003,-7.578605e-003
3.995847e+003,-7.767320e-003
3.997776e+003,-7.522271e-003
3.999704e+003,-7.500452e-003
4.001633e+003,0.000000e+000
