3.991989e+002,-2.367756e-002
4.011274e+002,-1.174626e-002
4.030559e+002,-7.872269e-003
4.049844e+002,-1.701062e-002
4.069129e+002,-1.825497e-002
4.088414e+002,-5.362338e-003
4.107699e+002,3.000289e-003
4.126984e+002,-4.880192e-003
4.146269e+002,-7.856456e-003
4.165554e+002,-6.745193e-003
4.184839e+002,-9.826024e-003
4.204124e+002,-1.087516e-002
4.223409e+002,-1.202407e-002
4.242694e+002,-6.127388e-003
4.261979e+002,-2.551630e-003
4.281264e+002,-6.841584e-003
4.300549e+002,-8.032071e-003
4.319834e+002,-2.826954e-003
4.339119e+002,-1.308597e-004
4.358404e+002,-5.174410e-003
4.377689e+002,-7.564246e-003
4.396974e+002,-5.729843e-003
4.416259e+002,-3.721693e-003
4.435544e+002,-1.970214e-003
4.454829e+002,-1.252779e-003
4.474114e+002,-1.047957e-003
4.493399e+002,9.635457e-004
4.512684e+002,6.340849e-004
4.531969e+002,-2.475038e-003
4.551254e+002,-4.741808e-003
4.570539e+002,-3.883456e-003
4.589824e+002,-1.911333e-003
4.609109e+002,-3.322465e-003
4.628394e+002,-4.939785e-003
4.647679e+002,-3.101181e-003
4.666964e+002,-8.478671e-004
4.686249e+002,-1.519120e-003
4.705533e+002,-1.751375e-003
4.724819e+002,-2.231698e-003
4.744103e+002,-1.676589e-003
4.763389e+002,5.812285e-004
4.782673e+002,-8.940626e-004
4.801959e+002,-5.265553e-003
4.821243e+002,-5.328792e-003
4.840529e+002,-1.499870e-003
4.859813e+002,1.872145e-004
4.879099e+002,-1.645364e-003
4.898383e+002,-2.717879e-003
4.917668e+002,-2.681559e-003
4.936953e+002,-1.880686e-003
4.956238e+002,2.843500e-004
4.975523e+002,4.650200e-004
4.994808e+002,-3.210164e-004
5.014093e+002,-1.975623e-003
5.033378e+002,-1.498483e-003
5.052663e+002,-5.134396e-004
5.071948e+002,7.488357e-006
5.091233e+002,-5.215478e-004
5.110518e+002,-8.249164e-004
5.129803e+002,-9.548005e-004
5.149088e+002,-7.800695e-004
5.168373e+002,-2.648364e-003
5.187658e+002,-3.548105e-003
5.206943e+002,-2.191414e-003
5.226228e+002,-1.612123e-003
5.245513e+002,-1.610571e-003
5.264798e+002,-6.880132e-004
5.284083e+002,-9.893150e-004
5.303368e+002,-1.399214e-003
5.322653e+002,-1.923605e-003
5.341938e+002,-2.095700e-003
5.361223e+002,-1.848881e-003
5.380508e+002,-2.456720e-003
5.399792e+002,-2.569022e-003
5.419078e+002,-1.358555e-003
5.438363e+002,-1.365161e-003
5.457648e+002,-1.418039e-003
5.476932e+002,-2.724432e-003
5.496218e+002,-1.381049e-003
5.515503e+002,7.249148e-004
5.534788e+002,1.880764e-004
5.554072e+002,-1.606874e-003
5.573358e+002,-2.051479e-003
5.592643e+002,-1.133096e-003
5.611927e+002,-3.629642e-004
5.631212e+002,1.120075e-004
5.650497e+002,-1.467576e-003
5.669783e+002,-2.836665e-003
5.689067e+002,-2.390853e-003
5.708352e+002,-1.996633e-003
5.727637e+002,-1.887548e-003
5.746923e+002,-1.667380e-003
5.766207e+002,-8.966087e-004
5.785492e+002,1.143938e-004
5.804777e+002,3.521256e-004
5.824063e+002,-2.183316e-004
5.843347e+002,-9.025274e-004
5.862632e+002,-2.290140e-003
5.881917e+002,-2.414842e-003
5.901202e+002,-2.718142e-003
5.920487e+002,-1.523082e-003
5.939772e+002,-3.398554e-004
5.959057e+002,-7.341265e-004
5.978342e+002,-1.353898e-003
5.997627e+002,-1.293414e-003
6.016912e+002,-1.592481e-003
6.036197e+002,-1.494554e-003
6.055482e+002,-1.200740e-003
6.074767e+002,-7.059430e-004
6.094052e+002,-8.723317e-005
6.113337e+002,-1.333440e-004
6.132622e+002,-6.632013e-004
6.151907e+002,-1.003431e-003
6.171192e+002,-1.532690e-003
6.190477e+002,-1.750187e-003
6.209762e+002,-1.702168e-003
6.229047e+002,-1.301871e-003
6.248332e+002,-1.015199e-003
6.267617e+002,-1.066897e-003
6.286902e+002,-1.140896e-003
6.306187e+002,-1.015298e-003
6.325472e+002,-1.108277e-003
6.344756e+002,-9.783725e-004
6.364042e+002,-1.101601e-003
6.383326e+002,-5.147635e-004
6.402612e+002,9.278522e-005
6.421896e+002,-5.145411e-005
6.441182e+002,-4.496611e-004
6.460466e+002,-5.888233e-004
6.479752e+002,-7.560567e-004
6.499036e+002,-3.389283e-004
6.518322e+002,1.433947e-004
6.537606e+002,-8.183336e-005
6.556891e+002,-5.363407e-004
6.576177e+002,-2.001166e-004
6.595461e+002,-3.850005e-005
6.614746e+002,-5.033456e-004
6.634031e+002,-3.252213e-004
6.653317e+002,-3.627656e-004
6.672601e+002,-4.766697e-004
6.691886e+002,-2.436325e-004
6.711171e+002,-4.695867e-004
6.730457e+002,-5.403119e-004
6.749741e+002,-3.566740e-004
6.769026e+002,1.656687e-004
6.788311e+002,1.943746e-004
6.807596e+002,-3.250558e-004
6.826881e+002,-7.593974e-004
6.846166e+002,-8.482970e-004
6.865451e+002,-7.635981e-004
6.884736e+002,-4.811047e-004
6.904021e+002,-2.399567e-004
6.923306e+002,-3.480330e-004
6.942591e+002,-4.045769e-004
6.961876e+002,-5.158556e-004
6.981161e+002,-5.357781e-004
7.000446e+002,-2.439306e-004
7.019731e+002,-5.864329e-005
7.039016e+002,2.683865e-006
7.058301e+002,-1.984607e-004
7.077585e+002,-1.778934e-004
7.096871e+002,1.815783e-005
7.116156e+002,-1.234068e-004
7.135441e+002,-1.031671e-004
7.154725e+002,1.524102e-004
7.174011e+002,-2.092242e-004
7.193296e+002,-8.135728e-004
7.212581e+002,-9.765212e-004
7.231865e+002,-9.129759e-004
7.251151e+002,-3.986183e-004
7.270436e+002,1.052133e-004
7.289720e+002,3.446077e-005
7.309005e+002,1.788944e-004
7.328290e+002,-2.841308e-004
7.347576e+002,-8.199225e-004
7.366860e+002,-8.095711e-004
7.386145e+002,-9.348310e-004
7.405430e+002,-1.208472e-003
7.424716e+002,-6.244257e-004
7.444000e+002,-3.406831e-004
7.463285e+002,-2.388970e-004
7.482570e+002,-4.156333e-004
7.501855e+002,-4.508527e-004
7.521140e+002,-2.421754e-004
7.540425e+002,-1.786220e-004
7.559710e+002,-1.197299e-004
7.578995e+002,-8.743193e-005
7.598280e+002,-4.028555e-004
7.617565e+002,-6.827863e-004
7.636850e+002,-8.175744e-004
7.656135e+002,-4.590614e-004
7.675420e+002,-4.248025e-004
7.694705e+002,-6.338553e-004
7.713990e+002,-7.218213e-004
7.733275e+002,-2.723758e-004
7.752560e+002,-1.112499e-004
7.771844e+002,-2.398904e-004
7.791130e+002,9.046535e-005
7.810415e+002,-5.198270e-004
7.829700e+002,-1.271610e-003
7.848984e+002,-6.904613e-004
7.868270e+002,-4.638276e-004
7.887555e+002,-5.256184e-004
7.906840e+002,-5.927940e-004
7.926124e+002,-5.603326e-004
7.945410e+002,-6.300173e-004
7.964695e+002,-3.256186e-004
7.983979e+002,5.285201e-005
8.003264e+002,1.886068e-004
8.022549e+002,-3.903423e-004
8.041835e+002,-8.192281e-004
8.061119e+002,-7.845015e-004
8.080404e+002,-5.932241e-004
8.099689e+002,-3.905078e-004
8.118975e+002,-3.839200e-004
8.138259e+002,-7.389889e-004
8.157545e+002,-8.417823e-004
8.176830e+002,-6.360058e-004
8.196115e+002,-6.803051e-004
8.215399e+002,-8.424437e-004
8.234684e+002,-5.136713e-004
8.253970e+002,-5.774405e-004
8.273254e+002,-7.090195e-004
8.292539e+002,-7.992854e-004
8.311824e+002,-8.111254e-004
8.331110e+002,-5.576522e-004
8.350394e+002,-1.276136e-004
8.369679e+002,-1.210218e-004
8.388964e+002,-6.726158e-006
8.408250e+002,-1.047241e-004
8.427534e+002,-4.743859e-004
8.446819e+002,-4.035176e-004
8.466104e+002,-2.561831e-004
8.485389e+002,-2.828063e-004
8.504674e+002,-6.709125e-005
8.523959e+002,-1.974671e-004
8.543244e+002,-4.137795e-004
8.562529e+002,-3.657783e-004
8.581814e+002,-3.434641e-004
8.601099e+002,-5.014922e-004
8.620384e+002,-4.216909e-004
8.639669e+002,-5.646675e-004
8.658954e+002,-6.793457e-004
8.678239e+002,-9.555278e-004
8.697524e+002,-1.079457e-003
8.716809e+002,-8.090088e-004
8.736094e+002,-4.814357e-004
8.755378e+002,-5.328328e-004
8.774664e+002,-4.879889e-004
8.793949e+002,-3.164804e-004
8.813234e+002,-5.135720e-004
8.832518e+002,-6.631021e-004
8.851804e+002,-6.084778e-004
8.871089e+002,-6.712074e-004
8.890374e+002,-3.869657e-004
8.909658e+002,-2.830050e-004
8.928943e+002,-2.828394e-004
8.948229e+002,-4.957335e-004
8.967513e+002,-7.328364e-004
8.986798e+002,-5.477246e-004
9.006083e+002,-5.666861e-004
9.025369e+002,-2.789653e-004
9.044653e+002,-2.720115e-004
9.063938e+002,-5.284314e-004
9.083223e+002,-6.210840e-004
9.102509e+002,-6.853997e-004
9.121793e+002,-3.064811e-004
9.141078e+002,-2.406190e-004
9.160364e+002,-4.582670e-004
9.179648e+002,-6.201576e-004
9.198933e+002,-4.987453e-004
9.218218e+002,-3.287309e-004
9.237504e+002,-2.636007e-004
9.256788e+002,-1.897503e-004
9.276073e+002,-9.866196e-005
9.295358e+002,-1.372858e-004
9.314644e+002,-2.729056e-004
9.333928e+002,-5.253206e-004
9.353213e+002,-7.030651e-004
9.372498e+002,-6.754751e-004
9.391783e+002,-4.672036e-004
9.411068e+002,-3.410473e-004
9.430353e+002,-4.851426e-004
9.449637e+002,-5.007641e-004
9.468923e+002,-2.807865e-004
9.488208e+002,-1.673609e-004
9.507493e+002,-1.973678e-004
9.526777e+002,-4.016307e-004
9.546063e+002,-3.344256e-004
9.565348e+002,-2.359080e-005
9.584633e+002,-1.675596e-004
9.603917e+002,-3.965328e-004
9.623203e+002,-1.428174e-004
9.642488e+002,1.314295e-004
9.661772e+002,-1.330790e-004
9.681057e+002,-5.671494e-004
9.700343e+002,-6.452366e-004
9.719628e+002,-4.461856e-004
9.738912e+002,-3.112490e-004
9.758197e+002,-3.968969e-004
9.777483e+002,-3.684598e-004
9.796768e+002,-3.308168e-004
9.816052e+002,-3.757431e-004
9.835337e+002,-3.380344e-004
9.854623e+002,-8.872389e-005
9.873907e+002,-2.167088e-004
9.893192e+002,-2.862500e-004
9.912477e+002,2.306190e-005
9.931763e+002,1.336170e-004
9.951047e+002,-3.922893e-005
9.970332e+002,-2.737334e-004
9.989617e+002,-4.426770e-004
1.000890e+003,-2.649252e-004
1.002819e+003,1.447982e-005
1.004747e+003,-1.736208e-004
1.006676e+003,-3.616731e-004
1.008604e+003,-3.861381e-004
1.010533e+003,-2.659849e-004
1.012461e+003,-3.005211e-004
1.014390e+003,-3.524694e-004
1.016318e+003,-2.564480e-004
1.018247e+003,-4.685276e-004
1.020175e+003,-5.496109e-004
1.022104e+003,-2.975742e-004
1.024032e+003,-1.822652e-004
1.025961e+003,-1.363583e-004
1.027889e+003,-6.351331e-005
1.029818e+003,-2.126685e-004
1.031746e+003,-2.992298e-004
1.033675e+003,-5.065890e-004
1.035603e+003,-4.322503e-004
1.037532e+003,-8.252905e-005
1.039460e+003,-1.411943e-004
1.041389e+003,-4.583663e-004
1.043317e+003,-5.676788e-004
1.045246e+003,-4.218895e-004
1.047174e+003,-2.571103e-004
1.049103e+003,-6.699186e-005
1.051031e+003,6.494320e-006
1.052960e+003,-1.681889e-004
1.054888e+003,-1.351990e-004
1.056817e+003,-1.259573e-004
1.058745e+003,-1.640819e-004
1.060674e+003,-3.897133e-004
1.062602e+003,-2.969120e-004
1.064531e+003,-8.309222e-005
1.066459e+003,-2.886341e-004
1.068388e+003,-3.525356e-004
1.070316e+003,-1.104548e-004
1.072245e+003,-1.763036e-004
1.074173e+003,-2.972100e-004
1.076102e+003,-2.704221e-004
1.078030e+003,-2.020706e-004
1.079959e+003,-8.998273e-005
1.081887e+003,-2.305848e-004
1.083816e+003,-5.717159e-004
1.085744e+003,-4.666741e-004
1.087673e+003,-4.868968e-004
1.089601e+003,-4.610804e-004
1.091530e+003,-2.729718e-004
1.093458e+003,-2.493614e-004
1.095387e+003,-2.115424e-004
1.097315e+003,-2.381022e-004
1.099244e+003,-4.208634e-004
1.101172e+003,-4.765704e-004
1.103101e+003,-3.503174e-004
1.105029e+003,-2.244251e-004
1.106958e+003,-2.036272e-004
1.108886e+003,-1.636844e-004
1.110815e+003,-8.597432e-005
1.112743e+003,1.494371e-005
1.114672e+003,-1.356627e-004
1.116600e+003,-1.840537e-004
1.118529e+003,-5.400513e-005
1.120457e+003,-1.338078e-004
1.122386e+003,-1.167155e-004
1.124314e+003,-8.816073e-005
1.126243e+003,-1.144630e-004
1.128171e+003,2.074240e-005
1.130100e+003,-1.302966e-004
1.132028e+003,-3.124410e-004
1.133957e+003,-1.730246e-004
1.135885e+003,-2.100647e-005
1.137814e+003,-5.648986e-005
1.139742e+003,-1.222143e-004
1.141671e+003,-9.978826e-005
1.143599e+003,-1.338078e-004
1.145528e+003,-2.451227e-004
1.147456e+003,-2.209147e-004
1.149385e+003,-2.352873e-004
1.151313e+003,-2.951902e-004
1.153242e+003,-3.312141e-004
1.155170e+003,-1.499719e-004
1.157099e+003,-6.053167e-005
1.159027e+003,-1.435792e-004
1.160956e+003,-1.157880e-004
1.162884e+003,9.277630e-006
1.164813e+003,-1.809404e-004
1.166741e+003,-3.374385e-004
1.168670e+003,-2.608522e-004
1.170598e+003,-1.137343e-004
1.172526e+003,-2.915786e-006
1.174455e+003,-4.767727e-005
1.176384e+003,-2.767798e-004
1.178312e+003,-2.483349e-004
1.180240e+003,-7.133173e-005
1.182169e+003,-8.077328e-005
1.184098e+003,-2.050844e-004
1.186026e+003,-1.458647e-004
1.187954e+003,3.237316e-005
1.189883e+003,3.992835e-005
1.191812e+003,-1.538803e-004
1.193740e+003,-2.468447e-004
1.195668e+003,-2.240608e-004
1.197597e+003,-1.752768e-004
1.199526e+003,-1.096929e-004
1.201454e+003,-7.325318e-005
1.203382e+003,3.313404e-008
1.205311e+003,1.991401e-005
1.207240e+003,-1.141980e-004
1.209168e+003,-1.866040e-004
1.211096e+003,-1.632207e-004
1.213025e+003,-8.537803e-005
1.214953e+003,-3.114588e-006
1.216882e+003,-7.603596e-005
1.218810e+003,-1.499057e-004
1.220739e+003,-1.228436e-004
1.222667e+003,-6.096620e-006
1.224596e+003,-2.531367e-005
1.226524e+003,1.557328e-005
1.228453e+003,1.541669e-004
1.230381e+003,1.101184e-004
1.232310e+003,6.401968e-005
1.234238e+003,6.570977e-005
1.236167e+003,5.245435e-005
1.238095e+003,-2.485046e-006
1.240024e+003,-1.000201e-004
1.241952e+003,-5.642360e-005
1.243881e+003,4.622445e-005
1.245809e+003,-1.637838e-004
1.247738e+003,-3.642223e-004
1.249666e+003,-3.319756e-004
1.251595e+003,-1.914063e-004
1.253523e+003,-7.086793e-005
1.255452e+003,4.208043e-006
1.257380e+003,2.876130e-005
1.259309e+003,-3.671096e-005
1.261237e+003,-2.111119e-004
1.263166e+003,-2.883692e-004
1.265094e+003,-1.100573e-004
1.267023e+003,1.136646e-004
1.268951e+003,1.509849e-004
1.270880e+003,7.028299e-005
1.272808e+003,-1.233405e-004
1.274737e+003,-1.598423e-004
1.276665e+003,-1.834576e-004
1.278594e+003,-2.555208e-004
1.280522e+003,-2.379366e-004
1.282451e+003,-1.148605e-004
1.284379e+003,1.225977e-005
1.286308e+003,7.790511e-005
1.288236e+003,-2.776544e-005
1.290165e+003,-1.616971e-004
1.292093e+003,-1.531185e-004
1.294022e+003,-1.940890e-004
1.295950e+003,-1.984938e-004
1.297879e+003,-1.037303e-004
1.299807e+003,-7.815617e-005
1.301736e+003,-1.078379e-004
1.303664e+003,2.319389e-006
1.305593e+003,2.620982e-005
1.307521e+003,-4.462926e-005
1.309450e+003,-5.513154e-005
1.311378e+003,-4.208003e-006
1.313307e+003,-3.449116e-005
1.315235e+003,-9.793317e-005
1.317164e+003,-1.181730e-004
1.319092e+003,-3.039978e-004
1.321021e+003,-3.226388e-004
1.322949e+003,-1.666322e-004
1.324878e+003,-1.112830e-004
1.326806e+003,-6.102861e-005
1.328735e+003,-5.108968e-005
1.330663e+003,-6.255256e-005
1.332592e+003,-6.825559e-006
1.334520e+003,3.118025e-005
1.336449e+003,-8.681031e-006
1.338377e+003,-7.815617e-005
1.340306e+003,-1.628564e-004
1.342234e+003,-1.822983e-004
1.344163e+003,-4.731283e-005
1.346091e+003,-5.135746e-006
1.348020e+003,-6.931088e-005
1.349948e+003,-3.449116e-005
1.351877e+003,-7.500899e-005
1.353805e+003,-7.527402e-005
1.355734e+003,-9.310565e-006
1.357662e+003,-1.988581e-004
1.359591e+003,-3.705455e-004
1.361519e+003,-4.351301e-004
1.363448e+003,-3.558794e-004
1.365376e+003,-2.363139e-004
1.367305e+003,-2.324393e-004
1.369233e+003,-1.791851e-004
1.371162e+003,-9.886072e-005
1.373090e+003,-1.789863e-004
1.375019e+003,-1.651749e-004
1.376947e+003,-4.979761e-005
1.378876e+003,-1.147611e-004
1.380804e+003,-2.467122e-004
1.382733e+003,-3.164804e-004
1.384661e+003,-2.909188e-004
1.386590e+003,-4.486681e-004
1.388518e+003,-4.494956e-004
1.390447e+003,-2.456857e-004
1.392375e+003,-3.150567e-004
1.394304e+003,-5.504051e-004
1.396232e+003,-3.560449e-004
1.398161e+003,-3.166791e-004
1.400089e+003,-3.643216e-004
1.402018e+003,-2.511828e-004
1.403946e+003,-3.105206e-004
1.405875e+003,-2.934022e-004
1.407803e+003,-1.453678e-004
1.409732e+003,-1.220155e-004
1.411660e+003,-1.437448e-004
1.413589e+003,-9.929136e-005
1.415517e+003,-2.838659e-004
1.417446e+003,-6.253853e-004
1.419374e+003,-6.495707e-004
1.421303e+003,-2.352873e-004
1.423231e+003,-2.373736e-004
1.425160e+003,-2.946935e-004
1.427088e+003,-2.925082e-004
1.429017e+003,-3.449209e-004
1.430945e+003,-1.660029e-004
1.432874e+003,-3.084670e-005
1.434802e+003,-4.545930e-004
1.436731e+003,-8.251809e-004
1.438659e+003,-3.579982e-004
1.440588e+003,-5.161977e-005
1.442516e+003,-2.365706e-005
1.444445e+003,-7.308754e-005
1.446373e+003,-1.716004e-004
1.448302e+003,-3.248571e-004
1.450230e+003,-2.647928e-004
1.452159e+003,-9.790005e-005
1.454087e+003,-3.060838e-004
1.456016e+003,-1.159269e-003
1.457944e+003,-1.335268e-003
1.459873e+003,-7.711723e-004
1.461801e+003,-3.305850e-004
1.463730e+003,-4.971236e-004
1.465658e+003,-6.022242e-004
1.467587e+003,-1.870676e-004
1.469515e+003,-1.528536e-004
1.471444e+003,-6.958866e-004
1.473372e+003,-8.179382e-004
1.475301e+003,-5.525891e-004
1.477229e+003,-4.487343e-004
1.479158e+003,-2.115424e-004
1.481086e+003,-2.527392e-004
1.483015e+003,-3.376371e-004
1.484943e+003,-3.844828e-004
1.486872e+003,-5.824039e-004
1.488800e+003,-7.617127e-004
1.490729e+003,-7.313479e-004
1.492657e+003,-5.139030e-004
1.494586e+003,-5.483203e-004
1.496514e+003,-7.491106e-004
1.498443e+003,-7.015103e-004
1.500371e+003,-3.779611e-004
1.502300e+003,-1.651749e-004
1.504228e+003,-7.962427e-004
1.506157e+003,-1.969059e-003
1.508085e+003,-1.656851e-003
1.510014e+003,-8.979313e-004
1.511942e+003,-6.052021e-004
1.513871e+003,-4.945089e-004
1.515799e+003,-6.251205e-004
1.517728e+003,-6.568162e-004
1.519656e+003,-9.036847e-004
1.521585e+003,-1.358687e-003
1.523513e+003,-1.046866e-003
1.525442e+003,-9.547013e-004
1.527370e+003,-7.278747e-004
1.529299e+003,-5.033456e-004
1.531227e+003,-5.706570e-004
1.533156e+003,-7.628042e-004
1.535084e+003,-3.439939e-004
1.537013e+003,-5.862754e-004
1.538941e+003,-1.603969e-003
1.540870e+003,-1.854127e-003
1.542798e+003,-1.234541e-003
1.544727e+003,-8.394013e-004
1.546655e+003,-5.143994e-004
1.548584e+003,-5.277033e-004
1.550512e+003,-4.145409e-004
1.552441e+003,-3.545882e-004
1.554369e+003,-5.807164e-004
1.556298e+003,-1.012786e-003
1.558226e+003,-2.164677e-003
1.560155e+003,-1.787377e-003
1.562083e+003,-6.843411e-004
1.564012e+003,-4.442327e-004
1.565940e+003,-3.357831e-004
1.567869e+003,-4.312904e-004
1.569797e+003,-5.725762e-004
1.571726e+003,-1.717329e-004
1.573654e+003,-3.003887e-004
1.575583e+003,-8.240564e-004
1.577511e+003,-5.605312e-004
1.579440e+003,-9.193723e-005
1.581368e+003,-3.101235e-005
1.583297e+003,3.909834e-006
1.585225e+003,5.576817e-005
1.587154e+003,-1.481066e-005
1.589082e+003,-5.639047e-005
1.591010e+003,-9.064527e-005
1.592939e+003,-1.160530e-004
1.594868e+003,-9.637623e-005
1.596796e+003,-1.844180e-004
1.598724e+003,-1.691163e-004
1.600653e+003,-1.489782e-004
1.602582e+003,-1.520917e-004
1.604510e+003,-1.533835e-004
1.606438e+003,-1.570932e-004
1.608367e+003,-1.118792e-004
1.610296e+003,-8.908829e-005
1.612224e+003,-9.826444e-005
1.614152e+003,-3.423385e-004
1.616081e+003,-9.450472e-004
1.618010e+003,-6.609185e-004
1.619938e+003,-2.453876e-004
1.621866e+003,-4.760408e-004
1.623795e+003,-6.250213e-004
1.625724e+003,-4.637283e-004
1.627652e+003,-3.909051e-004
1.629580e+003,-1.964404e-004
1.631509e+003,-6.016725e-005
1.633438e+003,-5.050666e-004
1.635366e+003,-1.169646e-003
1.637294e+003,-8.420469e-004
1.639223e+003,-2.818129e-004
1.641151e+003,-5.533032e-005
1.643080e+003,-2.096878e-004
1.645008e+003,-7.750091e-004
1.646937e+003,-9.755294e-004
1.648865e+003,-5.606966e-004
1.650794e+003,-1.021050e-003
1.652722e+003,-2.261827e-003
1.654651e+003,-1.369753e-003
1.656579e+003,-3.350878e-004
1.658508e+003,-1.351990e-004
1.660436e+003,-2.937664e-004
1.662365e+003,-5.107921e-004
1.664293e+003,-3.116463e-004
1.666222e+003,-2.400560e-004
1.668150e+003,-7.764975e-004
1.670079e+003,-1.019860e-003
1.672007e+003,-6.580402e-004
1.673936e+003,-7.853283e-004
1.675864e+003,-8.403934e-004
1.677793e+003,-2.807202e-004
1.679721e+003,-1.780590e-004
1.681650e+003,-4.746507e-004
1.683578e+003,-1.320965e-003
1.685507e+003,-1.207546e-003
1.687435e+003,-6.310099e-004
1.689364e+003,-4.873270e-004
1.691292e+003,-3.007860e-004
1.693221e+003,-4.381754e-004
1.695149e+003,-1.048321e-003
1.697078e+003,-9.185637e-004
1.699006e+003,-1.319578e-003
1.700935e+003,-1.395284e-003
1.702863e+003,-6.032830e-004
1.704792e+003,-7.261215e-004
1.706720e+003,-4.444313e-004
1.708649e+003,-5.907397e-005
1.710577e+003,-1.958178e-005
1.712506e+003,-2.068397e-004
1.714434e+003,-5.751242e-004
1.716363e+003,-1.128304e-003
1.718291e+003,-1.160822e-003
1.720220e+003,-4.819322e-004
1.722148e+003,-2.435663e-004
1.724077e+003,-2.107476e-004
1.726005e+003,-2.716906e-005
1.727934e+003,-8.623934e-005
1.729862e+003,-2.427053e-004
1.731791e+003,-5.952756e-004
1.733719e+003,-1.251424e-003
1.735648e+003,-6.579741e-004
1.737576e+003,-2.591965e-004
1.739505e+003,-5.490152e-004
1.741433e+003,-4.145409e-004
1.743362e+003,-3.357168e-004
1.745290e+003,-2.875414e-004
1.747219e+003,-3.553828e-004
1.749147e+003,-5.421320e-004
1.751076e+003,-6.048050e-004
1.753004e+003,-1.679571e-004
1.754933e+003,-1.244005e-004
1.756861e+003,-4.096748e-004
1.758790e+003,-3.490262e-004
1.760718e+003,-3.718697e-004
1.762647e+003,-2.319426e-004
1.764575e+003,-3.379659e-006
1.766504e+003,-2.281673e-004
1.768432e+003,-3.627325e-004
1.770361e+003,-5.641050e-004
1.772289e+003,-7.768282e-004
1.774218e+003,-3.703800e-004
1.776146e+003,-1.158874e-004
1.778075e+003,-1.705405e-004
1.780003e+003,-2.419767e-004
1.781932e+003,-1.459309e-004
1.783860e+003,-9.339482e-005
1.785789e+003,-1.013121e-004
1.787717e+003,-1.500713e-004
1.789646e+003,-3.455830e-004
1.791574e+003,-6.379248e-004
1.793503e+003,-4.983150e-004
1.795431e+003,-2.674750e-004
1.797360e+003,-1.784233e-004
1.799288e+003,-1.428174e-004
1.801217e+003,-2.124697e-004
1.803145e+003,-7.113296e-005
1.805074e+003,1.573895e-005
1.807002e+003,-2.537993e-005
1.808931e+003,-1.806423e-004
1.810859e+003,-2.731043e-004
1.812788e+003,-2.281011e-004
1.814716e+003,-1.209887e-004
1.816645e+003,-1.019746e-004
1.818573e+003,-3.094609e-005
1.820502e+003,-1.934985e-005
1.822430e+003,-6.666057e-005
1.824359e+003,-2.396918e-004
1.826287e+003,-2.494608e-004
1.828216e+003,-3.291613e-004
1.830144e+003,-4.754782e-004
1.832073e+003,-2.081644e-004
1.834001e+003,-1.115149e-004
1.835930e+003,-1.159537e-004
1.837858e+003,-6.229155e-006
1.839787e+003,5.079745e-005
1.841715e+003,-1.339071e-004
1.843644e+003,-4.721022e-004
1.845572e+003,-4.162622e-004
1.847501e+003,-1.649762e-004
1.849429e+003,1.988047e-006
1.851358e+003,1.025951e-004
1.853286e+003,1.974834e-005
1.855215e+003,-3.628026e-005
1.857143e+003,1.172961e-005
1.859072e+003,-6.262288e-006
1.861000e+003,-7.060290e-005
1.862929e+003,-4.833987e-005
1.864857e+003,-6.304950e-005
1.866786e+003,-2.432020e-004
1.868714e+003,-3.715718e-004
1.870643e+003,-1.363914e-004
1.872571e+003,6.441735e-005
1.874500e+003,1.230441e-004
1.876428e+003,9.242067e-005
1.878357e+003,7.521492e-006
1.880285e+003,5.729253e-005
1.882214e+003,9.732558e-005
1.884142e+003,1.126559e-006
1.886071e+003,-4.088548e-005
1.887999e+003,-8.040887e-005
1.889928e+003,-8.348975e-005
1.891856e+003,-2.458476e-005
1.893785e+003,-4.187941e-005
1.895713e+003,-4.095174e-005
1.897642e+003,8.515532e-006
1.899570e+003,-2.060888e-005
1.901499e+003,-1.183718e-004
1.903427e+003,-3.846691e-005
1.905356e+003,3.356608e-005
1.907284e+003,-7.116608e-005
1.909213e+003,-1.620615e-004
1.911141e+003,-8.454984e-005
1.913070e+003,8.681205e-006
1.914998e+003,5.908201e-005
1.916927e+003,-1.033770e-005
1.918855e+003,-2.117213e-005
1.920784e+003,8.254474e-005
1.922712e+003,-2.024443e-005
1.924641e+003,-2.484982e-005
1.926569e+003,9.155900e-005
1.928498e+003,8.658788e-005
1.930426e+003,3.770817e-005
1.932355e+003,-2.826242e-005
1.934283e+003,-7.010597e-005
1.936212e+003,1.636852e-005
1.938140e+003,5.709370e-005
1.940069e+003,4.456757e-005
1.941997e+003,-1.347352e-004
1.943926e+003,-1.705074e-004
1.945854e+003,-1.249967e-004
1.947783e+003,-4.015660e-005
1.949711e+003,2.054359e-005
1.951640e+003,9.377034e-006
1.953568e+003,9.608978e-006
1.955497e+003,2.210097e-005
1.957425e+003,3.687975e-005
1.959354e+003,5.792216e-005
1.961282e+003,6.295924e-005
1.963211e+003,4.907429e-005
1.965139e+003,-1.179556e-005
1.967068e+003,-3.048225e-005
1.968996e+003,6.063572e-006
1.970925e+003,-2.137093e-005
1.972853e+003,1.822376e-006
1.974782e+003,8.894087e-005
1.976710e+003,9.354747e-005
1.978639e+003,9.616563e-005
1.980567e+003,1.111126e-004
1.982496e+003,7.986038e-005
1.984424e+003,6.322435e-005
1.986353e+003,7.296728e-005
1.988281e+003,4.307446e-006
1.990210e+003,-4.426482e-005
1.992138e+003,-7.437955e-005
1.994067e+003,-7.345196e-005
1.995995e+003,-1.832274e-005
1.997924e+003,1.080635e-004
1.999852e+003,1.220167e-004
2.001781e+003,8.204763e-005
2.003709e+003,6.643883e-005
2.005638e+003,-2.915698e-005
2.007566e+003,-8.908829e-005
2.009495e+003,-3.541885e-005
2.011423e+003,-1.444620e-005
2.013352e+003,-4.691527e-005
2.015280e+003,-8.283502e-007
2.017208e+003,8.227961e-005
2.019137e+003,1.445879e-004
2.021066e+003,5.583445e-005
2.022994e+003,-1.015108e-004
2.024922e+003,-4.820735e-005
2.026851e+003,1.716377e-005
2.028780e+003,-1.129393e-004
2.030708e+003,-1.481833e-004
2.032636e+003,-1.898539e-005
2.034565e+003,-6.102861e-005
2.036494e+003,1.341949e-005
2.038422e+003,8.950426e-005
2.040350e+003,-1.683177e-005
2.042279e+003,-1.785888e-005
2.044208e+003,-5.334547e-006
2.046136e+003,-1.905165e-005
2.048064e+003,6.792531e-006
2.049993e+003,-1.039622e-004
2.051921e+003,-1.331784e-004
2.053850e+003,-3.531945e-005
2.055778e+003,4.426933e-005
2.057707e+003,6.660452e-005
2.059635e+003,1.097207e-004
2.061564e+003,2.958970e-005
2.063492e+003,-3.131054e-005
2.065421e+003,-1.252449e-005
2.067349e+003,-3.147722e-006
2.069278e+003,1.010600e-005
2.071206e+003,-9.283166e-005
2.073135e+003,-1.226780e-004
2.075063e+003,-3.568389e-005
2.076992e+003,-3.800308e-005
2.078920e+003,-7.924939e-005
2.080849e+003,-1.414800e-005
2.082777e+003,1.078647e-004
2.084706e+003,9.507196e-005
2.086634e+003,4.513091e-005
2.088563e+003,-2.299441e-005
2.090491e+003,-7.719545e-005
2.092420e+003,-4.764413e-005
2.094348e+003,-4.005721e-005
2.096277e+003,-1.719623e-005
2.098205e+003,8.648070e-006
2.100134e+003,4.397110e-005
2.102062e+003,6.027500e-005
2.103991e+003,1.009712e-004
2.105919e+003,1.148578e-004
2.107848e+003,7.896560e-005
2.109776e+003,2.892698e-005
2.111705e+003,-5.887520e-005
2.113633e+003,-7.083480e-005
2.115562e+003,-3.541885e-005
2.117490e+003,-3.608147e-005
2.119419e+003,-4.814109e-005
2.121347e+003,-3.753924e-005
2.123276e+003,5.649721e-005
2.125204e+003,8.052318e-005
2.127133e+003,2.939089e-005
2.129061e+003,-6.089609e-005
2.130990e+003,-5.446895e-005
2.132918e+003,-1.888599e-005
2.134847e+003,5.411126e-005
2.136775e+003,8.705185e-005
2.138704e+003,1.396824e-004
2.140632e+003,2.067062e-004
2.142561e+003,1.410082e-004
2.144489e+003,2.110690e-005
2.146418e+003,2.365835e-005
2.148346e+003,1.162166e-004
2.150275e+003,1.106155e-004
2.152203e+003,7.459113e-005
2.154132e+003,1.668288e-004
2.156060e+003,1.286122e-004
2.157989e+003,1.325362e-007
2.159917e+003,-3.283459e-005
2.161846e+003,-8.647899e-006
2.163774e+003,4.165148e-005
2.165703e+003,6.004303e-005
2.167631e+003,5.623210e-005
2.169560e+003,1.151229e-004
2.171488e+003,9.994376e-005
2.173417e+003,1.194646e-004
2.175345e+003,1.431295e-004
2.177274e+003,6.786382e-005
2.179202e+003,9.343899e-006
2.181131e+003,2.077554e-005
2.183059e+003,3.005361e-005
2.184988e+003,1.865486e-005
2.186916e+003,3.976087e-007
2.188845e+003,1.988043e-007
2.190773e+003,1.334513e-004
2.192702e+003,1.619562e-004
2.194630e+003,1.570175e-004
2.196559e+003,2.095571e-004
2.198487e+003,1.648400e-004
2.200416e+003,1.170783e-004
2.202344e+003,1.465434e-004
2.204273e+003,1.264248e-004
2.206201e+003,1.278831e-004
2.208130e+003,9.825354e-005
2.210058e+003,1.497684e-005
2.211987e+003,4.592621e-005
2.213915e+003,1.403122e-004
2.215844e+003,1.741211e-004
2.217772e+003,8.860946e-005
2.219701e+003,-1.196122e-005
2.221629e+003,-7.176240e-005
2.223558e+003,-1.828960e-005
2.225486e+003,4.439984e-006
2.227415e+003,-6.175746e-005
2.229343e+003,-8.905517e-005
2.231272e+003,2.137198e-005
2.233200e+003,2.214250e-004
2.235129e+003,2.217233e-004
2.237057e+003,9.749128e-005
2.238986e+003,1.088921e-004
2.240914e+003,1.249996e-004
2.242843e+003,8.261102e-005
2.244771e+003,6.895741e-005
2.246700e+003,8.227961e-005
2.248628e+003,5.967851e-005
2.250557e+003,6.995159e-005
2.252485e+003,3.180984e-005
2.254414e+003,1.838978e-005
2.256342e+003,1.815783e-005
2.258271e+003,-5.592666e-005
2.260199e+003,-6.020038e-005
2.262128e+003,1.030481e-005
2.264056e+003,-2.113900e-005
2.265985e+003,3.644746e-007
2.267913e+003,1.053675e-005
2.269842e+003,9.111956e-006
2.271770e+003,4.340776e-005
2.273699e+003,3.177671e-005
2.275627e+003,1.398279e-005
2.277556e+003,-6.361689e-006
2.279484e+003,1.789275e-005
2.281413e+003,8.904029e-005
2.283341e+003,1.502889e-004
2.285270e+003,1.273196e-004
2.287198e+003,6.352260e-005
2.289127e+003,2.372462e-005
2.291055e+003,1.557303e-006
2.292984e+003,4.612503e-005
2.294912e+003,6.756556e-005
2.296841e+003,1.314958e-004
2.298769e+003,7.986038e-005
2.300698e+003,3.081575e-005
2.302626e+003,1.182715e-004
2.304555e+003,1.352411e-004
2.306483e+003,2.137198e-005
2.308412e+003,4.910742e-005
2.310340e+003,2.082642e-004
2.312269e+003,2.865383e-004
2.314197e+003,3.259624e-004
2.316125e+003,3.809434e-004
2.318054e+003,5.145118e-004
2.319983e+003,6.041885e-004
2.321911e+003,6.319280e-004
2.323840e+003,7.201023e-004
2.325768e+003,8.275153e-004
2.327697e+003,8.818626e-004
2.329625e+003,9.807475e-004
2.331553e+003,1.094503e-003
2.333482e+003,1.124533e-003
2.335411e+003,1.198919e-003
2.337339e+003,1.166857e-003
2.339268e+003,1.205597e-003
2.341196e+003,1.220383e-003
2.343125e+003,1.088657e-003
2.345053e+003,8.476997e-004
2.346981e+003,6.067766e-004
2.348910e+003,5.005461e-004
2.350839e+003,7.578399e-004
2.352767e+003,1.125164e-003
2.354696e+003,1.292525e-003
2.356624e+003,1.399349e-003
2.358552e+003,1.509357e-003
2.360481e+003,1.506498e-003
2.362409e+003,1.488776e-003
2.364338e+003,1.494894e-003
2.366267e+003,1.452438e-003
2.368195e+003,1.342278e-003
2.370124e+003,1.074108e-003
2.372052e+003,8.818294e-004
2.373980e+003,6.997579e-004
2.375909e+003,5.348807e-004
2.377838e+003,4.420342e-004
2.379766e+003,3.304721e-004
2.381695e+003,2.028940e-004
2.383623e+003,7.150914e-005
2.385552e+003,3.379803e-005
2.387480e+003,7.021671e-005
2.389408e+003,8.277672e-005
2.391337e+003,2.312818e-005
2.393266e+003,6.537838e-005
2.395194e+003,6.879171e-005
2.397123e+003,-6.056480e-005
2.399051e+003,-4.701466e-005
2.400979e+003,3.843566e-006
2.402908e+003,-5.367681e-006
2.404836e+003,4.940566e-005
2.406765e+003,7.687778e-005
2.408694e+003,1.093230e-004
2.410622e+003,1.418368e-004
2.412551e+003,1.886068e-004
2.414479e+003,1.308329e-004
2.416407e+003,1.075996e-004
2.418336e+003,1.055779e-004
2.420264e+003,4.592621e-005
2.422193e+003,4.161835e-005
2.424122e+003,1.058762e-004
2.426050e+003,7.094577e-005
2.427979e+003,2.816485e-005
2.429907e+003,4.970390e-005
2.431835e+003,6.375457e-005
2.433764e+003,5.639780e-005
2.435692e+003,2.458615e-005
2.437621e+003,-3.260267e-005
2.439550e+003,-7.765924e-005
2.441478e+003,7.455223e-006
2.443406e+003,9.914836e-005
2.445335e+003,6.169996e-005
2.447263e+003,-4.545752e-005
2.449192e+003,-6.692560e-005
2.451121e+003,1.083618e-004
2.453049e+003,2.087283e-004
2.454978e+003,1.605641e-004
2.456906e+003,1.742206e-004
2.458834e+003,1.524102e-004
2.460763e+003,7.416031e-005
2.462691e+003,9.474055e-005
2.464620e+003,6.282669e-005
2.466549e+003,5.609955e-005
2.468477e+003,6.335691e-005
2.470406e+003,3.366549e-005
2.472334e+003,2.551396e-005
2.474262e+003,3.224062e-005
2.476191e+003,-1.325341e-005
2.478119e+003,4.158521e-005
2.480048e+003,1.436267e-004
2.481977e+003,1.785298e-004
2.483905e+003,1.759443e-004
2.485833e+003,1.449525e-004
2.487762e+003,1.302363e-004
2.489690e+003,1.570582e-005
2.491619e+003,-7.554495e-006
2.493547e+003,1.695800e-004
2.495476e+003,1.124383e-004
2.497405e+003,7.704348e-005
2.499333e+003,1.455491e-004
2.501261e+003,1.349759e-004
2.503190e+003,1.322581e-004
2.505118e+003,1.923194e-004
2.507047e+003,2.405203e-004
2.508975e+003,1.221824e-004
2.510904e+003,9.020022e-005
2.512833e+003,1.266899e-004
2.514761e+003,9.440914e-005
2.516689e+003,2.485124e-005
2.518618e+003,-4.065356e-005
2.520546e+003,-7.190027e-006
2.522475e+003,7.667894e-005
2.524403e+003,5.765361e-006
2.526332e+003,-4.406805e-006
2.528260e+003,5.285201e-005
2.530189e+003,8.751581e-005
2.532117e+003,7.538648e-005
2.534046e+003,3.485841e-005
2.535974e+003,3.611625e-006
2.537903e+003,2.620982e-005
2.539831e+003,-6.626803e-007
2.541760e+003,4.297698e-005
2.543688e+003,9.198984e-005
2.545617e+003,1.279162e-004
2.547545e+003,1.596029e-004
2.549474e+003,1.322581e-004
2.551402e+003,1.591388e-004
2.553331e+003,1.158852e-004
2.555259e+003,4.751681e-005
2.557188e+003,5.000215e-005
2.559116e+003,7.087949e-005
2.561045e+003,4.808015e-005
2.562973e+003,-1.573838e-005
2.564902e+003,-7.729483e-005
2.566830e+003,-7.444581e-005
2.568759e+003,1.169647e-005
2.570687e+003,-2.856060e-005
2.572616e+003,-7.593658e-005
2.574544e+003,-2.365706e-005
2.576473e+003,-1.070216e-005
2.578401e+003,7.545276e-005
2.580330e+003,2.310057e-004
2.582258e+003,1.857892e-004
2.584187e+003,1.189528e-005
2.586115e+003,-6.573296e-005
2.588044e+003,-3.127741e-005
2.589972e+003,7.916443e-005
2.591901e+003,1.353405e-004
2.593829e+003,4.549542e-005
2.595758e+003,5.454206e-005
2.597686e+003,1.008717e-004
2.599615e+003,1.045505e-004
2.601543e+003,9.991062e-005
2.603472e+003,1.053675e-005
2.605400e+003,-2.193418e-005
2.607329e+003,-1.868720e-005
2.609257e+003,-5.735124e-005
2.611186e+003,8.283589e-006
2.613114e+003,9.981119e-005
2.615043e+003,5.285201e-005
2.616971e+003,8.304184e-005
2.618900e+003,1.195972e-004
2.620828e+003,1.339484e-004
2.622757e+003,1.310649e-004
2.624685e+003,5.189101e-005
2.626614e+003,-1.968117e-005
2.628542e+003,7.620896e-006
2.630471e+003,4.006090e-005
2.632399e+003,8.211391e-005
2.634328e+003,9.013394e-005
2.636256e+003,3.389745e-005
2.638185e+003,-2.915786e-006
2.640113e+003,-2.816302e-005
2.642042e+003,4.019345e-005
2.643970e+003,9.967863e-005
2.645899e+003,5.215611e-005
2.647827e+003,3.442763e-005
2.649756e+003,6.146800e-005
2.651684e+003,7.737488e-005
2.653613e+003,6.855974e-005
2.655541e+003,4.566111e-005
2.657470e+003,-2.537993e-005
2.659398e+003,-7.153050e-005
2.661327e+003,-1.268848e-004
2.663255e+003,2.173647e-005
2.665184e+003,9.679532e-005
2.667112e+003,3.280394e-005
2.669041e+003,1.616971e-005
2.670969e+003,7.807081e-005
2.672898e+003,6.179938e-005
2.674826e+003,7.661265e-005
2.676755e+003,9.179099e-005
2.678683e+003,8.648070e-006
2.680612e+003,-5.542971e-005
2.682540e+003,3.942969e-006
2.684469e+003,9.911522e-005
2.686397e+003,1.243367e-004
2.688326e+003,1.236076e-004
2.690254e+003,9.497254e-005
2.692183e+003,9.642113e-006
2.694111e+003,6.219705e-005
2.696040e+003,6.839405e-005
2.697968e+003,-1.093410e-005
2.699897e+003,-2.004563e-005
2.701825e+003,6.468246e-005
2.703754e+003,1.526422e-004
2.705682e+003,1.591388e-004
2.707611e+003,1.414391e-004
2.709539e+003,1.439250e-004
2.711468e+003,1.504546e-004
2.713396e+003,1.468749e-004
2.715325e+003,1.325232e-004
2.717253e+003,1.575809e-004
2.719182e+003,7.850163e-005
2.721110e+003,-5.347505e-005
2.723039e+003,-7.554495e-006
2.724967e+003,5.063176e-005
2.726896e+003,1.477698e-004
2.728824e+003,2.499025e-004
2.730753e+003,3.044428e-004
2.732681e+003,2.908817e-004
2.734610e+003,9.871752e-005
2.736538e+003,5.865121e-005
2.738467e+003,2.076675e-004
2.740395e+003,2.305747e-004
2.742324e+003,2.024630e-004
2.744252e+003,1.550950e-004
2.746181e+003,1.314295e-004
2.748109e+003,1.526753e-004
2.750038e+003,1.477035e-004
2.751966e+003,1.362354e-004
2.753895e+003,9.222182e-005
2.755823e+003,4.108815e-005
2.757752e+003,7.343124e-005
2.759680e+003,9.470741e-005
2.761609e+003,1.050145e-004
2.763537e+003,1.383567e-004
2.765466e+003,1.480018e-004
2.767394e+003,1.438587e-004
2.769323e+003,1.386550e-004
2.771251e+003,4.857722e-005
2.773180e+003,2.077554e-005
2.775108e+003,9.195670e-005
2.777037e+003,1.180063e-004
2.778965e+003,1.349428e-004
2.780894e+003,3.542173e-005
2.782822e+003,-2.779857e-005
2.784750e+003,6.328647e-006
2.786679e+003,8.131855e-005
2.788608e+003,1.540343e-004
2.790536e+003,9.712673e-005
2.792465e+003,2.491751e-005
2.794393e+003,1.122064e-004
2.796322e+003,2.227178e-004
2.798250e+003,2.127395e-004
2.800178e+003,1.864853e-004
2.802107e+003,2.101206e-004
2.804036e+003,1.590725e-004
2.805964e+003,1.703092e-004
2.807893e+003,1.594703e-004
2.809821e+003,7.200624e-005
2.811750e+003,7.790511e-005
2.813678e+003,3.499096e-005
2.815606e+003,1.126559e-006
2.817535e+003,4.320894e-005
2.819464e+003,3.790700e-005
2.821392e+003,9.049849e-005
2.823321e+003,1.125709e-004
2.825249e+003,6.928881e-005
2.827177e+003,8.387035e-005
2.829106e+003,6.998473e-005
2.831034e+003,4.940566e-005
2.832963e+003,1.832351e-005
2.834892e+003,1.696496e-005
2.836820e+003,1.021974e-004
2.838749e+003,1.569843e-004
2.840677e+003,1.860212e-004
2.842605e+003,2.049824e-004
2.844534e+003,1.094224e-004
2.846462e+003,7.127717e-005
2.848391e+003,2.196017e-004
2.850320e+003,3.374356e-004
2.852248e+003,1.838003e-004
2.854177e+003,4.148580e-005
2.856105e+003,2.147139e-005
2.858033e+003,2.289623e-005
2.859962e+003,2.114003e-005
2.861890e+003,8.383721e-005
2.863819e+003,8.271044e-005
2.865748e+003,1.093892e-004
2.867676e+003,1.599012e-004
2.869604e+003,1.514821e-004
2.871533e+003,2.583567e-004
2.873461e+003,2.063747e-004
2.875390e+003,1.052796e-004
2.877319e+003,3.575310e-005
2.879247e+003,8.887459e-005
2.881176e+003,1.494602e-004
2.883104e+003,1.339153e-004
2.885032e+003,5.709370e-005
2.886961e+003,1.000660e-005
2.888889e+003,1.643479e-005
2.890818e+003,7.230449e-005
2.892747e+003,8.741640e-005
2.894675e+003,1.433284e-004
2.896604e+003,1.796236e-004
2.898532e+003,1.819771e-004
2.900460e+003,2.098554e-004
2.902389e+003,1.481676e-004
2.904317e+003,-2.120573e-006
2.906246e+003,2.647491e-005
2.908175e+003,1.842975e-004
2.910103e+003,1.757122e-004
2.912031e+003,1.095218e-004
2.913960e+003,5.146021e-005
2.915888e+003,1.719334e-004
2.917817e+003,2.478802e-004
2.919745e+003,1.649394e-004
2.921674e+003,1.964630e-004
2.923603e+003,2.338236e-004
2.925531e+003,2.328953e-004
2.927459e+003,2.310388e-004
2.929388e+003,1.510512e-004
2.931316e+003,-3.611595e-006
2.933245e+003,5.686173e-005
2.935173e+003,1.083287e-004
2.937102e+003,1.702098e-004
2.939031e+003,2.103195e-004
2.940959e+003,2.663468e-004
2.942887e+003,3.072944e-004
2.944816e+003,1.511507e-004
2.946744e+003,8.337325e-005
2.948673e+003,1.355062e-004
2.950601e+003,1.962973e-004
2.952530e+003,2.870024e-004
2.954458e+003,2.404540e-004
2.956387e+003,2.096897e-004
2.958315e+003,2.873008e-004
2.960244e+003,3.540158e-004
2.962172e+003,2.452943e-004
2.964101e+003,1.224144e-004
2.966029e+003,1.211881e-004
2.967958e+003,2.605448e-004
2.969886e+003,1.992807e-004
2.971815e+003,9.619877e-005
2.973743e+003,1.154212e-004
2.975672e+003,2.381665e-004
2.977600e+003,2.249058e-004
2.979529e+003,9.537023e-005
2.981457e+003,1.318935e-004
2.983386e+003,1.712705e-004
2.985314e+003,1.599012e-004
2.987243e+003,1.447982e-005
2.989171e+003,2.153718e-006
2.991100e+003,8.032434e-005
2.993028e+003,6.935508e-005
2.994957e+003,8.847690e-005
2.996885e+003,7.727546e-005
2.998814e+003,3.535546e-005
3.000742e+003,1.636467e-004
3.002671e+003,1.738228e-004
3.004599e+003,1.298717e-004
3.006528e+003,1.896675e-004
3.008456e+003,6.435107e-005
3.010385e+003,1.111789e-004
3.012313e+003,1.762426e-004
3.014242e+003,8.211391e-005
3.016170e+003,-2.190105e-005
3.018099e+003,6.779753e-005
3.020027e+003,1.486316e-004
3.021956e+003,1.485322e-004
3.023884e+003,1.501231e-004
3.025813e+003,1.831042e-004
3.027741e+003,8.788036e-005
3.029670e+003,7.899873e-005
3.031598e+003,2.829739e-005
3.033527e+003,6.799637e-005
3.035455e+003,2.472172e-004
3.037384e+003,2.770558e-004
3.039312e+003,2.505325e-004
3.041241e+003,1.570506e-004
3.043169e+003,6.189880e-005
3.045098e+003,1.105824e-004
3.047026e+003,1.866510e-004
3.048955e+003,2.237787e-004
3.050883e+003,2.407524e-004
3.052812e+003,2.412828e-004
3.054740e+003,2.327959e-004
3.056669e+003,2.188723e-004
3.058597e+003,1.502557e-004
3.060526e+003,-2.478355e-005
3.062454e+003,-1.695138e-004
3.064383e+003,-2.786483e-005
3.066311e+003,1.472063e-004
3.068240e+003,1.962641e-004
3.070168e+003,2.104190e-004
3.072097e+003,1.492282e-004
3.074025e+003,2.915805e-006
3.075954e+003,2.998734e-005
3.077882e+003,7.863419e-005
3.079811e+003,2.084963e-004
3.081739e+003,1.954022e-004
3.083668e+003,9.341491e-005
3.085596e+003,9.222182e-005
3.087525e+003,1.805518e-004
3.089453e+003,1.080304e-004
3.091382e+003,-1.033770e-005
3.093310e+003,8.367151e-005
3.095239e+003,1.987172e-004
3.097167e+003,8.953740e-005
3.099096e+003,-4.549065e-005
3.101024e+003,-8.946182e-007
3.102953e+003,9.036592e-005
3.104881e+003,1.958000e-004
3.106810e+003,1.737234e-004
3.108738e+003,9.126074e-005
3.110667e+003,1.536034e-004
3.112595e+003,5.278573e-005
3.114524e+003,-6.175746e-005
3.116452e+003,4.267874e-005
3.118381e+003,3.774131e-005
3.120309e+003,5.116197e-005
3.122238e+003,1.677900e-004
3.124166e+003,2.980435e-004
3.126095e+003,2.238118e-004
3.128023e+003,1.279825e-004
3.129952e+003,2.374372e-004
3.131880e+003,2.964188e-004
3.133809e+003,1.474715e-004
3.135737e+003,1.572826e-004
3.137666e+003,1.462783e-004
3.139594e+003,5.308398e-005
3.141523e+003,4.439984e-006
3.143451e+003,5.662976e-005
3.145380e+003,1.767066e-004
3.147308e+003,2.213587e-004
3.149237e+003,2.145296e-004
3.151165e+003,1.227458e-004
3.153094e+003,2.196842e-005
3.155022e+003,-4.704779e-005
3.156951e+003,7.833594e-005
3.158879e+003,1.177412e-004
3.160808e+003,1.354068e-004
3.162736e+003,1.080967e-004
3.164665e+003,4.562797e-005
3.166593e+003,2.101538e-004
3.168522e+003,3.086538e-004
3.170450e+003,2.627993e-004
3.172379e+003,3.053712e-004
3.174307e+003,4.059491e-004
3.176236e+003,3.410500e-004
3.178164e+003,1.816788e-004
3.180093e+003,1.900653e-004
3.182021e+003,1.468417e-004
3.183950e+003,1.323575e-004
3.185878e+003,2.492063e-004
3.187807e+003,3.914562e-004
3.189735e+003,3.306047e-004
3.191664e+003,1.527416e-004
3.193592e+003,2.932462e-005
3.195521e+003,1.146258e-004
3.197449e+003,1.074670e-004
3.199378e+003,3.260512e-005
3.201306e+003,3.817209e-005
3.203235e+003,1.394836e-004
3.205163e+003,2.682698e-004
3.207092e+003,3.685737e-004
3.209020e+003,2.775531e-004
3.210948e+003,2.298785e-004
3.212877e+003,2.687671e-004
3.214806e+003,2.717510e-004
3.216734e+003,1.978553e-004
3.218663e+003,2.416475e-004
3.220591e+003,4.115872e-004
3.222520e+003,4.435599e-004
3.224448e+003,2.564006e-004
3.226376e+003,3.002319e-004
3.228305e+003,3.516945e-004
3.230234e+003,2.805371e-004
3.232162e+003,3.312347e-004
3.234091e+003,4.351353e-004
3.236019e+003,2.301106e-004
3.237948e+003,2.740272e-005
3.239876e+003,1.196966e-004
3.241804e+003,2.763927e-004
3.243733e+003,2.666783e-004
3.245662e+003,2.314698e-004
3.247590e+003,1.374286e-004
3.249519e+003,2.092587e-004
3.251447e+003,3.515619e-004
3.253375e+003,3.755710e-004
3.255304e+003,2.536157e-004
3.257232e+003,1.246350e-004
3.259161e+003,1.561557e-004
3.261090e+003,3.820710e-004
3.263018e+003,5.110950e-004
3.264947e+003,5.210802e-004
3.266875e+003,4.298617e-004
3.268803e+003,3.429733e-004
3.270732e+003,1.817119e-004
3.272660e+003,1.385025e-005
3.274589e+003,5.278573e-005
3.276518e+003,1.552939e-004
3.278446e+003,3.105438e-004
3.280375e+003,2.658826e-004
3.282303e+003,2.111814e-004
3.284231e+003,3.523577e-004
3.286160e+003,4.160314e-004
3.288088e+003,3.285488e-004
3.290017e+003,2.011702e-004
3.291946e+003,2.247069e-004
3.293874e+003,2.656837e-004
3.295802e+003,1.722649e-004
3.297731e+003,1.670940e-004
3.299659e+003,2.761275e-004
3.301588e+003,2.762932e-004
3.303516e+003,2.596165e-004
3.305445e+003,3.619082e-004
3.307374e+003,4.241239e-004
3.309302e+003,2.383654e-004
3.311230e+003,2.656837e-004
3.313159e+003,3.948390e-004
3.315087e+003,3.485774e-004
3.317016e+003,1.996453e-004
3.318944e+003,2.064741e-004
3.320873e+003,3.409837e-004
3.322802e+003,3.956681e-004
3.324730e+003,4.816715e-004
3.326658e+003,6.175603e-004
3.328587e+003,5.373356e-004
3.330515e+003,3.286152e-004
3.332444e+003,2.379013e-004
3.334372e+003,4.082375e-004
3.336301e+003,4.505252e-004
3.338229e+003,3.571993e-004
3.340158e+003,2.629982e-004
3.342086e+003,2.104190e-004
3.344015e+003,2.840516e-004
3.345943e+003,3.939767e-004
3.347872e+003,3.799485e-004
3.349800e+003,3.881399e-004
3.351729e+003,4.197460e-004
3.353657e+003,3.273883e-004
3.355586e+003,2.991377e-004
3.357514e+003,1.981205e-004
3.359443e+003,1.036225e-004
3.361371e+003,2.435703e-004
3.363300e+003,2.427415e-004
3.365229e+003,2.680708e-004
3.367157e+003,4.070104e-004
3.369085e+003,4.893008e-004
3.371014e+003,4.940112e-004
3.372942e+003,4.295964e-004
3.374871e+003,2.424432e-004
3.376799e+003,2.751328e-004
3.378728e+003,4.331453e-004
3.380656e+003,3.674794e-004
3.382585e+003,3.580615e-004
3.384513e+003,3.290462e-004
3.386442e+003,4.513544e-004
3.388370e+003,4.674082e-004
3.390299e+003,4.185852e-004
3.392227e+003,4.435599e-004
3.394156e+003,3.516614e-004
3.396084e+003,2.642581e-004
3.398013e+003,3.421111e-004
3.399941e+003,4.259812e-004
3.401870e+003,4.429297e-004
3.403798e+003,3.990509e-004
3.405727e+003,3.137601e-004
3.407655e+003,2.401556e-004
3.409584e+003,4.029311e-004
3.411512e+003,4.856520e-004
3.413441e+003,3.253324e-004
3.415369e+003,4.138425e-004
3.417298e+003,4.645225e-004
3.419226e+003,4.920872e-004
3.421155e+003,4.683038e-004
3.423083e+003,4.209400e-004
3.425012e+003,4.285351e-004
3.426940e+003,4.909594e-004
3.428869e+003,4.036607e-004
3.430797e+003,3.255977e-004
3.432726e+003,2.732761e-004
3.434654e+003,2.150932e-004
3.436583e+003,3.219834e-004
3.438511e+003,3.836628e-004
3.440440e+003,3.957676e-004
3.442368e+003,3.671478e-004
3.444297e+003,4.052858e-004
3.446225e+003,3.761679e-004
3.448154e+003,5.026691e-004
3.450082e+003,6.518047e-004
3.452011e+003,6.551231e-004
3.453939e+003,6.033922e-004
3.455868e+003,6.141759e-004
3.457796e+003,5.498760e-004
3.459725e+003,3.222487e-004
3.461653e+003,3.295436e-004
3.463582e+003,4.673087e-004
3.465510e+003,4.364620e-004
3.467439e+003,3.102786e-004
3.469367e+003,3.043102e-004
3.471296e+003,2.132368e-004
3.473224e+003,1.977227e-004
3.475153e+003,3.645611e-004
3.477081e+003,4.512549e-004
3.479010e+003,5.522315e-004
3.480938e+003,5.202840e-004
3.482867e+003,4.589832e-004
3.484795e+003,4.966650e-004
3.486724e+003,5.412835e-004
3.488652e+003,4.037271e-004
3.490581e+003,1.356057e-004
3.492509e+003,7.409403e-005
3.494438e+003,3.382646e-004
3.496366e+003,4.939449e-004
3.498295e+003,4.883057e-004
3.500223e+003,5.465584e-004
3.502152e+003,5.199523e-004
3.504080e+003,3.021550e-004
3.506009e+003,3.414148e-004
3.507937e+003,3.533194e-004
3.509866e+003,2.664131e-004
3.511794e+003,5.175970e-004
3.513723e+003,5.287434e-004
3.515651e+003,4.776246e-004
3.517580e+003,5.225730e-004
3.519508e+003,4.532782e-004
3.521437e+003,4.359313e-004
3.523365e+003,3.339538e-004
3.525294e+003,3.262940e-004
3.527222e+003,4.719194e-004
3.529151e+003,4.626982e-004
3.531079e+003,3.351144e-004
3.533008e+003,2.258341e-004
3.534936e+003,1.669614e-004
3.536865e+003,2.518586e-004
3.538793e+003,3.459577e-004
3.540722e+003,3.050065e-004
3.542650e+003,2.628656e-004
3.544579e+003,1.784303e-004
3.546507e+003,2.768237e-004
3.548436e+003,4.078727e-004
3.550364e+003,3.728517e-004
3.552293e+003,1.811484e-004
3.554221e+003,1.085938e-004
3.556150e+003,3.543143e-004
3.558078e+003,3.925838e-004
3.560007e+003,2.367741e-004
3.561935e+003,3.843261e-004
3.563864e+003,4.844578e-004
3.565792e+003,1.490625e-004
3.567721e+003,-1.093948e-004
3.569649e+003,7.382892e-005
3.571578e+003,4.021020e-004
3.573506e+003,3.099470e-004
3.575435e+003,1.198624e-004
3.577363e+003,4.461801e-004
3.579292e+003,5.563454e-004
3.581220e+003,2.938989e-004
3.583149e+003,2.388959e-004
3.585077e+003,2.533836e-004
3.587006e+003,7.306670e-005
3.588934e+003,2.362105e-004
3.590863e+003,3.307374e-004
3.592791e+003,2.031260e-004
3.594720e+003,1.770381e-004
3.596648e+003,3.693365e-004
3.598577e+003,4.291653e-004
3.600505e+003,2.571631e-004
3.602434e+003,2.024630e-004
3.604362e+003,1.928498e-004
3.606291e+003,-3.561763e-005
3.608219e+003,-1.325822e-004
3.610148e+003,-2.339200e-005
3.612076e+003,-2.948919e-006
3.614005e+003,6.004303e-005
3.615933e+003,5.665958e-006
3.617862e+003,-2.122710e-004
3.619790e+003,-1.309260e-004
3.621719e+003,2.474492e-004
3.623647e+003,5.580042e-004
3.625576e+003,3.811424e-004
3.627504e+003,-3.716711e-004
3.629433e+003,-4.611466e-004
3.631361e+003,1.458805e-004
3.633290e+003,2.681703e-004
3.635218e+003,2.286188e-004
3.637146e+003,2.745028e-004
3.639075e+003,4.670434e-004
3.641004e+003,4.509232e-004
3.642932e+003,3.758695e-004
3.644861e+003,3.772292e-004
3.646789e+003,5.573503e-005
3.648718e+003,-4.285761e-004
3.650646e+003,-3.790205e-004
3.652574e+003,2.372462e-005
3.654503e+003,-1.163180e-004
3.656432e+003,-2.129003e-004
3.658360e+003,2.656837e-004
3.660289e+003,5.338854e-004
3.662217e+003,6.500127e-004
3.664146e+003,6.283444e-004
3.666074e+003,4.458817e-004
3.668002e+003,1.695137e-004
3.669931e+003,-4.231011e-005
3.671860e+003,4.990273e-005
3.673788e+003,-4.247363e-004
3.675717e+003,-7.039252e-004
3.677645e+003,4.208227e-005
3.679573e+003,4.356328e-004
3.681502e+003,5.959268e-004
3.683430e+003,6.882088e-004
3.685359e+003,6.459312e-004
3.687288e+003,1.740548e-004
3.689216e+003,-2.322407e-004
3.691145e+003,-1.472227e-004
3.693073e+003,3.835965e-004
3.695001e+003,6.742707e-004
3.696930e+003,6.649125e-004
3.698858e+003,7.370622e-004
3.700787e+003,4.564956e-004
3.702716e+003,2.627330e-004
3.704644e+003,5.975194e-004
3.706573e+003,6.537625e-004
3.708501e+003,9.858495e-005
3.710429e+003,-3.309492e-004
3.712358e+003,-1.773303e-004
3.714286e+003,2.483112e-004
3.716215e+003,4.692658e-004
3.718144e+003,4.472084e-004
3.720072e+003,4.667780e-004
3.722000e+003,4.759661e-004
3.723929e+003,4.476727e-004
3.725857e+003,3.367392e-004
3.727786e+003,5.292742e-004
3.729714e+003,2.525548e-004
3.731643e+003,-2.197556e-004
3.733572e+003,-2.998589e-004
3.735500e+003,-3.311478e-004
3.737428e+003,-1.523236e-004
3.739357e+003,1.771044e-004
3.741285e+003,4.318850e-004
3.743214e+003,-1.123430e-004
3.745142e+003,-2.934353e-004
3.747071e+003,-1.846830e-004
3.749000e+003,-6.181393e-004
3.750928e+003,-6.423913e-004
3.752856e+003,-4.128526e-004
3.754785e+003,4.817957e-005
3.756713e+003,1.019654e-004
3.758642e+003,1.278993e-005
3.760570e+003,2.370725e-004
3.762499e+003,5.454305e-004
3.764427e+003,3.930813e-004
3.766356e+003,3.897317e-004
3.768284e+003,2.148280e-004
3.770213e+003,2.570637e-004
3.772141e+003,3.227460e-004
3.774070e+003,2.247069e-004
3.775998e+003,2.970820e-004
3.777927e+003,1.330204e-004
3.779855e+003,9.082990e-005
3.781784e+003,3.510645e-004
3.783712e+003,2.030597e-004
3.785641e+003,9.331548e-005
3.787569e+003,3.919537e-004
3.789498e+003,6.610962e-004
3.791426e+003,5.054888e-004
3.793355e+003,4.838276e-004
3.795283e+003,2.452611e-004
3.797212e+003,4.970390e-005
3.799140e+003,7.353066e-005
3.801069e+003,-1.144961e-004
3.802997e+003,-6.967530e-005
3.804926e+003,-8.262843e-005
3.806854e+003,-9.167221e-005
3.808783e+003,3.331912e-004
3.810711e+003,3.472510e-004
3.812640e+003,4.758003e-004
3.814568e+003,2.972478e-004
3.816497e+003,4.671925e-006
3.818425e+003,-8.482231e-006
3.820354e+003,-3.556476e-004
3.822282e+003,-3.513437e-004
3.824211e+003,3.479088e-006
3.826139e+003,9.102875e-005
3.828068e+003,3.460904e-004
3.829996e+003,4.907272e-004
3.831925e+003,3.636658e-004
3.833853e+003,3.157828e-004
3.835782e+003,6.626809e-008
3.837710e+003,-2.262797e-004
3.839639e+003,-3.651218e-005
3.841567e+003,-3.021719e-005
3.843496e+003,3.168107e-004
3.845424e+003,6.633860e-004
3.847353e+003,6.199826e-004
3.849281e+003,4.079390e-004
3.851210e+003,-8.935331e-005
3.853138e+003,-8.837790e-004
3.855067e+003,-6.104300e-004
3.856995e+003,-2.660582e-005
3.858924e+003,2.144965e-004
3.860852e+003,1.362685e-004
3.862781e+003,1.179401e-004
3.864709e+003,1.713699e-004
3.866638e+003,3.361092e-004
3.868566e+003,2.687254e-005
3.870495e+003,1.074670e-004
3.872423e+003,2.197343e-004
3.874352e+003,1.398482e-004
3.876280e+003,5.221418e-004
3.878209e+003,4.658493e-004
3.880137e+003,5.490657e-005
3.882066e+003,2.009050e-004
3.883994e+003,2.856762e-004
3.885923e+003,2.122422e-004
3.887851e+003,4.857183e-004
3.889780e+003,2.763595e-004
3.891708e+003,1.005403e-004
3.893637e+003,3.080238e-004
3.895565e+003,5.906512e-004
3.897494e+003,6.255239e-004
3.899422e+003,3.208228e-004
3.901351e+003,1.546310e-004
3.903279e+003,-4.592135e-005
3.905208e+003,5.725940e-005
3.907136e+003,4.552683e-004
3.909065e+003,5.653695e-004
3.910993e+003,3.870455e-004
3.912922e+003,5.729008e-004
3.914850e+003,5.803326e-004
3.916779e+003,2.891244e-004
3.918707e+003,5.520482e-005
3.920636e+003,2.031260e-004
3.922564e+003,4.113219e-004
3.924493e+003,3.156170e-004
3.926421e+003,4.426312e-004
3.928350e+003,2.455595e-004
3.930278e+003,3.335227e-004
3.932207e+003,4.702277e-004
3.934135e+003,3.051060e-004
3.936064e+003,3.403205e-004
3.937992e+003,4.148706e-004
3.939921e+003,3.096154e-004
3.941849e+003,1.881427e-004
3.943778e+003,4.707252e-004
3.945706e+003,6.165649e-004
3.947635e+003,7.017492e-004
3.949563e+003,7.482475e-004
3.951492e+003,5.119243e-004
3.953420e+003,4.443891e-004
3.955349e+003,6.305344e-004
3.957277e+003,6.788835e-004
3.959206e+003,7.144602e-004
3.961134e+003,6.334876e-004
3.963063e+003,6.388964e-004
3.964991e+003,6.609967e-004
3.966920e+003,4.847895e-004
3.968848e+003,4.367605e-004
3.970777e+003,4.798803e-004
3.972705e+003,6.024964e-004
3.974634e+003,5.002807e-004
3.976562e+003,3.989182e-004
3.978491e+003,5.991452e-004
3.980419e+003,7.183433e-004
3.982348e+003,5.454968e-004
3.984276e+003,4.098958e-004
3.986205e+003,5.874329e-004
3.988133e+003,6.608308e-004
3.990062e+003,6.874124e-004
3.991990e+003,5.563786e-004
3.993919e+003,5.378333e-004
3.995847e+003,6.123509e-004
3.997776e+003,6.456989e-004
3.999704e+003,7.939874e-004
4.001633e+003,0.000000e+000
