3.991989e+002,1.037128e-002
4.011274e+002,2.292009e-002
4.030559e+002,1.408975e-002
4.049844e+002,4.167786e-003
4.069129e+002,5.561655e-003
4.088414e+002,1.471538e-002
4.107699e+002,1.766830e-002
4.126984e+002,1.294262e-002
4.146269e+002,6.754845e-003
4.165554e+002,8.396090e-003
4.184839e+002,1.442547e-002
4.204124e+002,1.408729e-002
4.223409e+002,1.367348e-002
4.242694e+002,1.355266e-002
4.261979e+002,1.196933e-002
4.281264e+002,8.702185e-003
4.300549e+002,7.133645e-003
4.319834e+002,3.649666e-003
4.339119e+002,2.082955e-003
4.358404e+002,8.477307e-003
4.377689e+002,1.334599e-002
4.396974e+002,8.358798e-003
4.416259e+002,3.404178e-003
4.435544e+002,8.008560e-003
4.454829e+002,1.478017e-002
4.474114e+002,1.797759e-002
4.493399e+002,1.312840e-002
4.512684e+002,7.724742e-003
4.531969e+002,8.202670e-003
4.551254e+002,1.237755e-002
4.570539e+002,1.116262e-002
4.589824e+002,3.632558e-003
4.609109e+002,3.542421e-003
4.628394e+002,8.599127e-003
4.647679e+002,9.644938e-003
4.666964e+002,9.207622e-003
4.686249e+002,6.902003e-003
4.705533e+002,6.656622e-003
4.724819e+002,9.223664e-003
4.744103e+002,1.078355e-002
4.763389e+002,1.075807e-002
4.782673e+002,9.674683e-003
4.801959e+002,8.737107e-003
4.821243e+002,8.402779e-003
4.840529e+002,9.078966e-003
4.859813e+002,8.644011e-003
4.879099e+002,8.122991e-003
4.898383e+002,9.124408e-003
4.917668e+002,6.947453e-003
4.936953e+002,8.412474e-003
4.956238e+002,9.743568e-003
4.975523e+002,7.315199e-003
4.994808e+002,7.352200e-003
5.014093e+002,8.106010e-003
5.033378e+002,8.717567e-003
5.052663e+002,9.286926e-003
5.071948e+002,6.686366e-003
5.091233e+002,5.902668e-003
5.110518e+002,6.175820e-003
5.129803e+002,5.331118e-003
5.149088e+002,5.206354e-003
5.168373e+002,5.061949e-003
5.187658e+002,5.400759e-003
5.206943e+002,5.248944e-003
5.226228e+002,4.245907e-003
5.245513e+002,3.296059e-003
5.264798e+002,4.596906e-003
5.284083e+002,5.538163e-003
5.303368e+002,3.937118e-003
5.322653e+002,3.245582e-003
5.341938e+002,2.763671e-003
5.361223e+002,2.838972e-003
5.380508e+002,3.261005e-003
5.399792e+002,4.071049e-003
5.419078e+002,3.653976e-003
5.438363e+002,2.823564e-003
5.457648e+002,2.867655e-003
5.476932e+002,2.598142e-003
5.496218e+002,2.683149e-003
5.515503e+002,3.548902e-003
5.534788e+002,3.120148e-003
5.554072e+002,3.708879e-003
5.573358e+002,4.289440e-003
5.592643e+002,4.353727e-003
5.611927e+002,3.730568e-003
5.631212e+002,3.130027e-003
5.650497e+002,2.818595e-003
5.669783e+002,3.038125e-003
5.689067e+002,4.306072e-003
5.708352e+002,4.587697e-003
5.727637e+002,4.129685e-003
5.746923e+002,2.738563e-003
5.766207e+002,3.225887e-003
5.785492e+002,6.243379e-003
5.804777e+002,4.810838e-003
5.824063e+002,7.147258e-004
5.843347e+002,3.134098e-003
5.862632e+002,6.179988e-003
5.881917e+002,5.566756e-003
5.901202e+002,3.538947e-003
5.920487e+002,1.433788e-003
5.939772e+002,9.408987e-004
5.959057e+002,1.639116e-003
5.978342e+002,2.641044e-003
5.997627e+002,1.960952e-003
6.016912e+002,1.101512e-003
6.036197e+002,1.525118e-003
6.055482e+002,1.790805e-003
6.074767e+002,2.185511e-003
6.094052e+002,2.401690e-003
6.113337e+002,2.274334e-003
6.132622e+002,2.095873e-003
6.151907e+002,2.316971e-003
6.171192e+002,2.171125e-003
6.190477e+002,2.134030e-003
6.209762e+002,3.099658e-003
6.229047e+002,1.832129e-003
6.248332e+002,5.175845e-005
6.267617e+002,1.163161e-004
6.286902e+002,8.853819e-004
6.306187e+002,1.439007e-003
6.325472e+002,2.241927e-003
6.344756e+002,3.022744e-003
6.364042e+002,3.024178e-003
6.383326e+002,2.661179e-003
6.402612e+002,2.136394e-003
6.421896e+002,2.830034e-003
6.441182e+002,2.731294e-003
6.460466e+002,2.268905e-003
6.479752e+002,2.378001e-003
6.499036e+002,2.261877e-003
6.518322e+002,2.111189e-003
6.537606e+002,2.404022e-003
6.556891e+002,2.833336e-003
6.576177e+002,2.748933e-003
6.595461e+002,2.439040e-003
6.614746e+002,1.780524e-003
6.634031e+002,1.772273e-003
6.653317e+002,2.525483e-003
6.672601e+002,3.769303e-003
6.691886e+002,3.718503e-003
6.711171e+002,3.105264e-003
6.730457e+002,3.138270e-003
6.749741e+002,3.477386e-003
6.769026e+002,3.337327e-003
6.788311e+002,3.303037e-003
6.807596e+002,3.477185e-003
6.826881e+002,3.617122e-003
6.846166e+002,3.490245e-003
6.865451e+002,3.150619e-003
6.884736e+002,3.276295e-003
6.904021e+002,3.663833e-003
6.923306e+002,3.545328e-003
6.942591e+002,3.526187e-003
6.961876e+002,3.551508e-003
6.981161e+002,3.548401e-003
7.000446e+002,3.429559e-003
7.019731e+002,3.019107e-003
7.039016e+002,2.770707e-003
7.058301e+002,2.978403e-003
7.077585e+002,3.068290e-003
7.096871e+002,3.266947e-003
7.116156e+002,3.378732e-003
7.135441e+002,2.945743e-003
7.154725e+002,2.661913e-003
7.174011e+002,2.672448e-003
7.193296e+002,2.848844e-003
7.212581e+002,3.209196e-003
7.231865e+002,3.705771e-003
7.251151e+002,3.886500e-003
7.270436e+002,3.977544e-003
7.289720e+002,4.150123e-003
7.309005e+002,4.504058e-003
7.328290e+002,4.731677e-003
7.347576e+002,4.272475e-003
7.366860e+002,3.930732e-003
7.386145e+002,4.030180e-003
7.405430e+002,4.478279e-003
7.424716e+002,4.703138e-003
7.444000e+002,4.902814e-003
7.463285e+002,4.942190e-003
7.482570e+002,4.793550e-003
7.501855e+002,4.845347e-003
7.521140e+002,5.616698e-003
7.540425e+002,5.918656e-003
7.559710e+002,5.762564e-003
7.578995e+002,5.821629e-003
7.598280e+002,5.941363e-003
7.617565e+002,6.163991e-003
7.636850e+002,6.210909e-003
7.656135e+002,6.587082e-003
7.675420e+002,7.015603e-003
7.694705e+002,6.714598e-003
7.713990e+002,6.314108e-003
7.733275e+002,6.356336e-003
7.752560e+002,6.641313e-003
7.771844e+002,6.397862e-003
7.791130e+002,5.824753e-003
7.810415e+002,5.398713e-003
7.829700e+002,5.119746e-003
7.848984e+002,5.354632e-003
7.868270e+002,6.054007e-003
7.887555e+002,6.466632e-003
7.906840e+002,6.373820e-003
7.926124e+002,6.025112e-003
7.945410e+002,5.848596e-003
7.964695e+002,5.675072e-003
7.983979e+002,5.813570e-003
8.003264e+002,5.930413e-003
8.022549e+002,6.134652e-003
8.041835e+002,6.089892e-003
8.061119e+002,6.085087e-003
8.080404e+002,6.237227e-003
8.099689e+002,6.392851e-003
8.118975e+002,6.966914e-003
8.138259e+002,7.493661e-003
8.157545e+002,7.103736e-003
8.176830e+002,6.804151e-003
8.196115e+002,6.356067e-003
8.215399e+002,5.781938e-003
8.234684e+002,5.692227e-003
8.253970e+002,6.032537e-003
8.273254e+002,6.138248e-003
8.292539e+002,5.616866e-003
8.311824e+002,5.129133e-003
8.331110e+002,5.104626e-003
8.350394e+002,4.909884e-003
8.369679e+002,5.159980e-003
8.388964e+002,5.264170e-003
8.408250e+002,4.928785e-003
8.427534e+002,4.596337e-003
8.446819e+002,4.321164e-003
8.466104e+002,4.160025e-003
8.485389e+002,4.114498e-003
8.504674e+002,4.200204e-003
8.523959e+002,4.342047e-003
8.543244e+002,4.590041e-003
8.562529e+002,4.634614e-003
8.581814e+002,4.680195e-003
8.601099e+002,4.725782e-003
8.620384e+002,4.668540e-003
8.639669e+002,4.839618e-003
8.658954e+002,4.992295e-003
8.678239e+002,4.800117e-003
8.697524e+002,4.664856e-003
8.716809e+002,4.623830e-003
8.736094e+002,4.643924e-003
8.755378e+002,4.360455e-003
8.774664e+002,4.776666e-003
8.793949e+002,4.743803e-003
8.813234e+002,4.196156e-003
8.832518e+002,4.273111e-003
8.851804e+002,4.239851e-003
8.871089e+002,3.990920e-003
8.890374e+002,3.661027e-003
8.909658e+002,3.708779e-003
8.928943e+002,4.002992e-003
8.948229e+002,3.800187e-003
8.967513e+002,3.843074e-003
8.986798e+002,4.052119e-003
9.006083e+002,3.721043e-003
9.025369e+002,3.437474e-003
9.044653e+002,3.510019e-003
9.063938e+002,3.427622e-003
9.083223e+002,3.060181e-003
9.102509e+002,3.055810e-003
9.121793e+002,3.263442e-003
9.141078e+002,3.318963e-003
9.160364e+002,3.476417e-003
9.179648e+002,3.573623e-003
9.198933e+002,3.619962e-003
9.218218e+002,3.464627e-003
9.237504e+002,3.272790e-003
9.256788e+002,3.479791e-003
9.276073e+002,3.598880e-003
9.295358e+002,3.444521e-003
9.314644e+002,3.344539e-003
9.333928e+002,3.552677e-003
9.353213e+002,3.651838e-003
9.372498e+002,3.596508e-003
9.391783e+002,3.387414e-003
9.411068e+002,3.527623e-003
9.430353e+002,3.831541e-003
9.449637e+002,3.924012e-003
9.468923e+002,3.723550e-003
9.488208e+002,3.513159e-003
9.507493e+002,3.706540e-003
9.526777e+002,3.737887e-003
9.546063e+002,3.788254e-003
9.565348e+002,3.737285e-003
9.584633e+002,3.381103e-003
9.603917e+002,3.405447e-003
9.623203e+002,3.368214e-003
9.642488e+002,3.115710e-003
9.661772e+002,3.439411e-003
9.681057e+002,3.378999e-003
9.700343e+002,2.954583e-003
9.719628e+002,2.991848e-003
9.738912e+002,2.757002e-003
9.758197e+002,2.494123e-003
9.777483e+002,2.587709e-003
9.796768e+002,2.739163e-003
9.816052e+002,2.701453e-003
9.835337e+002,2.634377e-003
9.854623e+002,2.519917e-003
9.873907e+002,2.555178e-003
9.893192e+002,2.619809e-003
9.912477e+002,2.409852e-003
9.931763e+002,2.422514e-003
9.951047e+002,2.640610e-003
9.970332e+002,2.545513e-003
9.989617e+002,2.729860e-003
1.000890e+003,3.200318e-003
1.002819e+003,3.458949e-003
1.004747e+003,3.419306e-003
1.006676e+003,3.579536e-003
1.008604e+003,3.942167e-003
1.010533e+003,4.254741e-003
1.012461e+003,4.510921e-003
1.014390e+003,4.629825e-003
1.016318e+003,4.884685e-003
1.018247e+003,5.445985e-003
1.020175e+003,5.649460e-003
1.022104e+003,5.562528e-003
1.024032e+003,5.738491e-003
1.025961e+003,6.058610e-003
1.027889e+003,6.177837e-003
1.029818e+003,6.278742e-003
1.031746e+003,6.467372e-003
1.033675e+003,6.760634e-003
1.035603e+003,6.982065e-003
1.037532e+003,7.188349e-003
1.039460e+003,7.231639e-003
1.041389e+003,7.172955e-003
1.043317e+003,7.398809e-003
1.045246e+003,7.737660e-003
1.047174e+003,7.679143e-003
1.049103e+003,7.774967e-003
1.051031e+003,7.801077e-003
1.052960e+003,7.729801e-003
1.054888e+003,7.657222e-003
1.056817e+003,7.761542e-003
1.058745e+003,7.887345e-003
1.060674e+003,7.805024e-003
1.062602e+003,7.739347e-003
1.064531e+003,7.935294e-003
1.066459e+003,8.050177e-003
1.068388e+003,8.007244e-003
1.070316e+003,7.994757e-003
1.072245e+003,8.118399e-003
1.074173e+003,8.183761e-003
1.076102e+003,8.132781e-003
1.078030e+003,8.223875e-003
1.079959e+003,8.192777e-003
1.081887e+003,8.064928e-003
1.083816e+003,8.236337e-003
1.085744e+003,8.435885e-003
1.087673e+003,8.448758e-003
1.089601e+003,8.344645e-003
1.091530e+003,8.551679e-003
1.093458e+003,8.608117e-003
1.095387e+003,8.567967e-003
1.097315e+003,8.639076e-003
1.099244e+003,8.707999e-003
1.101172e+003,8.683728e-003
1.103101e+003,8.488930e-003
1.105029e+003,8.500114e-003
1.106958e+003,8.638975e-003
1.108886e+003,8.821464e-003
1.110815e+003,8.828024e-003
1.112743e+003,8.646546e-003
1.114672e+003,8.654489e-003
1.116600e+003,8.906988e-003
1.118529e+003,9.041818e-003
1.120457e+003,8.908273e-003
1.122386e+003,8.982144e-003
1.124314e+003,9.002474e-003
1.126243e+003,8.679097e-003
1.128171e+003,8.535526e-003
1.130100e+003,8.677441e-003
1.132028e+003,8.597336e-003
1.133957e+003,8.392104e-003
1.135885e+003,8.217291e-003
1.137814e+003,7.938196e-003
1.139742e+003,7.463188e-003
1.141671e+003,7.236895e-003
1.143599e+003,7.062647e-003
1.145528e+003,6.642491e-003
1.147456e+003,6.160966e-003
1.149385e+003,5.914693e-003
1.151313e+003,5.775827e-003
1.153242e+003,5.516081e-003
1.155170e+003,5.319646e-003
1.157099e+003,5.131011e-003
1.159027e+003,4.958344e-003
1.160956e+003,4.741693e-003
1.162884e+003,4.641881e-003
1.164813e+003,4.677650e-003
1.166741e+003,4.636255e-003
1.168670e+003,4.650622e-003
1.170598e+003,4.638230e-003
1.172526e+003,4.477944e-003
1.174455e+003,4.263474e-003
1.176384e+003,4.248350e-003
1.178312e+003,4.192810e-003
1.180240e+003,3.988312e-003
1.182169e+003,3.898803e-003
1.184098e+003,3.840433e-003
1.186026e+003,3.758441e-003
1.187954e+003,3.825758e-003
1.189883e+003,3.826928e-003
1.191812e+003,3.631189e-003
1.193740e+003,3.534671e-003
1.195668e+003,3.264310e-003
1.197597e+003,3.063718e-003
1.199526e+003,3.143143e-003
1.201454e+003,3.270820e-003
1.203382e+003,3.309014e-003
1.205311e+003,3.269451e-003
1.207240e+003,3.391288e-003
1.209168e+003,3.361902e-003
1.211096e+003,3.259069e-003
1.213025e+003,3.463725e-003
1.214953e+003,3.632759e-003
1.216882e+003,3.446525e-003
1.218810e+003,3.263075e-003
1.220739e+003,3.271688e-003
1.222667e+003,3.360968e-003
1.224596e+003,3.407184e-003
1.226524e+003,3.362003e-003
1.228453e+003,3.303037e-003
1.230381e+003,3.048302e-003
1.232310e+003,2.905513e-003
1.234238e+003,2.893572e-003
1.236167e+003,3.004093e-003
1.238095e+003,3.177721e-003
1.240024e+003,3.265278e-003
1.241952e+003,3.309848e-003
1.243881e+003,3.218476e-003
1.245809e+003,3.222248e-003
1.247738e+003,3.351050e-003
1.249666e+003,3.589358e-003
1.251595e+003,3.699756e-003
1.253523e+003,3.794271e-003
1.255452e+003,3.995100e-003
1.257380e+003,4.153669e-003
1.259309e+003,4.309351e-003
1.261237e+003,4.538308e-003
1.263166e+003,4.844510e-003
1.265094e+003,5.179260e-003
1.267023e+003,5.464540e-003
1.268951e+003,5.604951e-003
1.270880e+003,5.764478e-003
1.272808e+003,5.883020e-003
1.274737e+003,6.109549e-003
1.276665e+003,6.365246e-003
1.278594e+003,6.612952e-003
1.280522e+003,6.860665e-003
1.282451e+003,7.051164e-003
1.284379e+003,7.284503e-003
1.286308e+003,7.560481e-003
1.288236e+003,7.864840e-003
1.290165e+003,8.193688e-003
1.292093e+003,8.399029e-003
1.294022e+003,8.550226e-003
1.295950e+003,8.884701e-003
1.297879e+003,9.132461e-003
1.299807e+003,9.095410e-003
1.301736e+003,9.029639e-003
1.303664e+003,8.994118e-003
1.305593e+003,8.846758e-003
1.307521e+003,8.956775e-003
1.309450e+003,8.815040e-003
1.311378e+003,8.140647e-003
1.313307e+003,7.811535e-003
1.315235e+003,7.614396e-003
1.317164e+003,7.565336e-003
1.319092e+003,7.218972e-003
1.321021e+003,6.782105e-003
1.322949e+003,6.565148e-003
1.324878e+003,6.420190e-003
1.326806e+003,6.294139e-003
1.328735e+003,6.228757e-003
1.330663e+003,6.182576e-003
1.332592e+003,6.192827e-003
1.334520e+003,6.194373e-003
1.336449e+003,6.298173e-003
1.338377e+003,6.456173e-003
1.340306e+003,6.378830e-003
1.342234e+003,6.220926e-003
1.344163e+003,6.076821e-003
1.346091e+003,5.950903e-003
1.348020e+003,6.018729e-003
1.349948e+003,6.091538e-003
1.351877e+003,6.006466e-003
1.353805e+003,5.905893e-003
1.355734e+003,5.847891e-003
1.357662e+003,5.814275e-003
1.359591e+003,5.841846e-003
1.361519e+003,5.793691e-003
1.363448e+003,5.652682e-003
1.365376e+003,5.206489e-003
1.367305e+003,4.938738e-003
1.369233e+003,4.938470e-003
1.371162e+003,4.939777e-003
1.373090e+003,5.056820e-003
1.375019e+003,4.960153e-003
1.376947e+003,4.873996e-003
1.378876e+003,4.842700e-003
1.380804e+003,4.729969e-003
1.382733e+003,4.660569e-003
1.384661e+003,4.625873e-003
1.386590e+003,4.719685e-003
1.388518e+003,4.554146e-003
1.390447e+003,4.094562e-003
1.392375e+003,3.842673e-003
1.394304e+003,3.873829e-003
1.396232e+003,3.577899e-003
1.398161e+003,3.449664e-003
1.400089e+003,3.395863e-003
1.402018e+003,3.146514e-003
1.403946e+003,3.008363e-003
1.405875e+003,2.877194e-003
1.407803e+003,2.627709e-003
1.409732e+003,2.559945e-003
1.411660e+003,2.713223e-003
1.413589e+003,2.860618e-003
1.415517e+003,3.214404e-003
1.417446e+003,4.001086e-003
1.419374e+003,4.658492e-003
1.421303e+003,4.805109e-003
1.423231e+003,5.322095e-003
1.425160e+003,5.965414e-003
1.427088e+003,6.370626e-003
1.429017e+003,6.840300e-003
1.430945e+003,7.210752e-003
1.432874e+003,7.512674e-003
1.434802e+003,8.290842e-003
1.436731e+003,9.114088e-003
1.438659e+003,9.049904e-003
1.440588e+003,9.223902e-003
1.442516e+003,9.719815e-003
1.444445e+003,1.019180e-002
1.446373e+003,1.080311e-002
1.448302e+003,1.135668e-002
1.450230e+003,1.168311e-002
1.452159e+003,1.200427e-002
1.454087e+003,1.249682e-002
1.456016e+003,1.363970e-002
1.457944e+003,1.411908e-002
1.459873e+003,1.352493e-002
1.461801e+003,1.324753e-002
1.463730e+003,1.338949e-002
1.465658e+003,1.338457e-002
1.467587e+003,1.301138e-002
1.469515e+003,1.283108e-002
1.471444e+003,1.306307e-002
1.473372e+003,1.288586e-002
1.475301e+003,1.227536e-002
1.477229e+003,1.161038e-002
1.479158e+003,1.081833e-002
1.481086e+003,1.031068e-002
1.483015e+003,9.726558e-003
1.484943e+003,9.235476e-003
1.486872e+003,9.032176e-003
1.488800e+003,8.897045e-003
1.490729e+003,8.518699e-003
1.492657e+003,7.843787e-003
1.494586e+003,7.552490e-003
1.496514e+003,7.435716e-003
1.498443e+003,7.033113e-003
1.500371e+003,6.417533e-003
1.502300e+003,6.042113e-003
1.504228e+003,6.301535e-003
1.506157e+003,7.039916e-003
1.508085e+003,6.515602e-003
1.510014e+003,5.517491e-003
1.511942e+003,5.150793e-003
1.513871e+003,5.070230e-003
1.515799e+003,5.272018e-003
1.517728e+003,5.348796e-003
1.519656e+003,5.580214e-003
1.521585e+003,5.898034e-003
1.523513e+003,5.508631e-003
1.525442e+003,5.431189e-003
1.527370e+003,5.418473e-003
1.529299e+003,5.376940e-003
1.531227e+003,5.566118e-003
1.533156e+003,6.157000e-003
1.535084e+003,6.150917e-003
1.537013e+003,6.325135e-003
1.538941e+003,7.390788e-003
1.540870e+003,7.935766e-003
1.542798e+003,7.778171e-003
1.544727e+003,7.592782e-003
1.546655e+003,7.319782e-003
1.548584e+003,7.467267e-003
1.550512e+003,7.784311e-003
1.552441e+003,8.022331e-003
1.554369e+003,8.466259e-003
1.556298e+003,9.088879e-003
1.558226e+003,1.039555e-002
1.560155e+003,1.055151e-002
1.562083e+003,9.854727e-003
1.564012e+003,1.001921e-002
1.565940e+003,1.037406e-002
1.567869e+003,1.082472e-002
1.569797e+003,1.134787e-002
1.571726e+003,1.117329e-002
1.573654e+003,1.126322e-002
1.575583e+003,1.202130e-002
1.577511e+003,1.204001e-002
1.579440e+003,1.157798e-002
1.581368e+003,1.151833e-002
1.583297e+003,1.147410e-002
1.585225e+003,1.147910e-002
1.587154e+003,1.133518e-002
1.589082e+003,1.101445e-002
1.591010e+003,1.071745e-002
1.592939e+003,1.049265e-002
1.594868e+003,1.032778e-002
1.596796e+003,1.001308e-002
1.598724e+003,9.584470e-003
1.600653e+003,9.176351e-003
1.602582e+003,8.884092e-003
1.604510e+003,8.524747e-003
1.606438e+003,8.120762e-003
1.608367e+003,7.814301e-003
1.610296e+003,7.375757e-003
1.612224e+003,6.873153e-003
1.614152e+003,6.741855e-003
1.616081e+003,6.961526e-003
1.618010e+003,6.506184e-003
1.619938e+003,5.889536e-003
1.621866e+003,5.861257e-003
1.623795e+003,5.679873e-003
1.625724e+003,5.279498e-003
1.627652e+003,5.084309e-003
1.629580e+003,4.890080e-003
1.631509e+003,4.617133e-003
1.633438e+003,4.761625e-003
1.635366e+003,5.200922e-003
1.637294e+003,4.755427e-003
1.639223e+003,4.044394e-003
1.641151e+003,3.633093e-003
1.643080e+003,3.353087e-003
1.645008e+003,3.580171e-003
1.646937e+003,3.667776e-003
1.648865e+003,2.987478e-003
1.650794e+003,2.940105e-003
1.652722e+003,3.869684e-003
1.654651e+003,2.961756e-003
1.656579e+003,1.877318e-003
1.658508e+003,1.550023e-003
1.660436e+003,1.533796e-003
1.662365e+003,1.738705e-003
1.664293e+003,1.553548e-003
1.666222e+003,1.210714e-003
1.668150e+003,1.490306e-003
1.670079e+003,1.593220e-003
1.672007e+003,1.253811e-003
1.673936e+003,1.303958e-003
1.675864e+003,1.153236e-003
1.677793e+003,4.816051e-004
1.679721e+003,2.738397e-004
1.681650e+003,4.171259e-004
1.683578e+003,1.090716e-003
1.685507e+003,7.888423e-004
1.687435e+003,7.744115e-005
1.689364e+003,-1.327147e-004
1.691292e+003,-2.382015e-004
1.693221e+003,-1.285411e-004
1.695149e+003,5.475869e-004
1.697078e+003,5.766167e-004
1.699006e+003,8.035807e-004
1.700935e+003,1.021862e-003
1.702863e+003,2.574284e-004
1.704792e+003,1.593708e-004
1.706720e+003,-6.427956e-006
1.708649e+003,-2.727069e-004
1.710577e+003,-4.480061e-004
1.712506e+003,-3.845821e-004
1.714434e+003,-1.868720e-005
1.716363e+003,4.124164e-004
1.718291e+003,3.361423e-004
1.720220e+003,-1.992224e-004
1.722148e+003,-3.981880e-004
1.724077e+003,-4.580022e-004
1.726005e+003,-5.046033e-004
1.727934e+003,-4.621726e-004
1.729862e+003,-4.022928e-004
1.731791e+003,-1.004839e-004
1.733719e+003,4.311221e-004
1.735648e+003,3.214121e-005
1.737576e+003,-3.389615e-004
1.739505e+003,-1.933935e-004
1.741433e+003,-2.937664e-004
1.743362e+003,-2.426390e-004
1.745290e+003,-2.275712e-004
1.747219e+003,-1.619621e-004
1.749147e+003,1.027167e-005
1.751076e+003,1.458474e-004
1.753004e+003,-2.359165e-004
1.754933e+003,-4.419157e-004
1.756861e+003,-3.482978e-004
1.758790e+003,-4.832230e-004
1.760718e+003,-4.264907e-004
1.762647e+003,-4.308269e-004
1.764575e+003,-6.662119e-004
1.766504e+003,-5.395507e-004
1.768432e+003,-4.049411e-004
1.770361e+003,-3.318431e-004
1.772289e+003,-9.849633e-005
1.774218e+003,-2.859520e-004
1.776146e+003,-4.934830e-004
1.778075e+003,-5.535488e-004
1.780003e+003,-5.509345e-004
1.781932e+003,-6.278337e-004
1.783860e+003,-6.126137e-004
1.785789e+003,-5.907755e-004
1.787717e+003,-6.487436e-004
1.789646e+003,-5.279019e-004
1.791574e+003,-1.983944e-004
1.793503e+003,-2.080319e-004
1.795431e+003,-5.332961e-004
1.797360e+003,-6.307452e-004
1.799288e+003,-5.247580e-004
1.801217e+003,-5.625497e-004
1.803145e+003,-7.940268e-004
1.805074e+003,-8.236265e-004
1.807002e+003,-7.471591e-004
1.808931e+003,-7.377320e-004
1.810859e+003,-7.463321e-004
1.812788e+003,-8.261069e-004
1.814716e+003,-8.967409e-004
1.816645e+003,-8.727676e-004
1.818573e+003,-9.074541e-004
1.820502e+003,-9.151912e-004
1.822430e+003,-7.863205e-004
1.824359e+003,-5.794590e-004
1.826287e+003,-5.887571e-004
1.828216e+003,-5.756205e-004
1.830144e+003,-5.125130e-004
1.832073e+003,-8.368549e-004
1.834001e+003,-9.028580e-004
1.835930e+003,-8.025597e-004
1.837858e+003,-8.493222e-004
1.839787e+003,-9.407492e-004
1.841715e+003,-8.695601e-004
1.843644e+003,-4.633642e-004
1.845572e+003,-5.194960e-004
1.847501e+003,-8.903923e-004
1.849429e+003,-1.033116e-003
1.851358e+003,-9.017008e-004
1.853286e+003,-7.550975e-004
1.855215e+003,-8.101994e-004
1.857143e+003,-8.115884e-004
1.859072e+003,-9.101654e-004
1.861000e+003,-8.756776e-004
1.862929e+003,-8.535550e-004
1.864857e+003,-8.060653e-004
1.866786e+003,-7.364089e-004
1.868714e+003,-6.533754e-004
1.870643e+003,-8.559360e-004
1.872571e+003,-1.038801e-003
1.874500e+003,-1.010505e-003
1.876428e+003,-9.923234e-004
1.878357e+003,-9.302352e-004
1.880285e+003,-9.522878e-004
1.882214e+003,-9.580735e-004
1.884142e+003,-8.768019e-004
1.886071e+003,-8.101002e-004
1.887999e+003,-6.971767e-004
1.889928e+003,-6.919499e-004
1.891856e+003,-8.328203e-004
1.893785e+003,-8.332502e-004
1.895713e+003,-8.401288e-004
1.897642e+003,-9.240193e-004
1.899570e+003,-7.855599e-004
1.901499e+003,-7.029989e-004
1.903427e+003,-7.697832e-004
1.905356e+003,-7.658472e-004
1.907284e+003,-7.697501e-004
1.909213e+003,-8.099017e-004
1.911141e+003,-8.316959e-004
1.913070e+003,-8.239903e-004
1.914998e+003,-7.359789e-004
1.916927e+003,-5.785324e-004
1.918855e+003,-5.125461e-004
1.920784e+003,-6.219443e-004
1.922712e+003,-6.591651e-004
1.924641e+003,-7.508637e-004
1.926569e+003,-6.998232e-004
1.928498e+003,-7.427598e-004
1.930426e+003,-7.868828e-004
1.932355e+003,-7.776550e-004
1.934283e+003,-8.789843e-004
1.936212e+003,-8.966418e-004
1.938140e+003,-9.222669e-004
1.940069e+003,-8.504465e-004
1.941997e+003,-5.905108e-004
1.943926e+003,-6.062278e-004
1.945854e+003,-7.929023e-004
1.947783e+003,-8.399634e-004
1.949711e+003,-8.001123e-004
1.951640e+003,-7.714039e-004
1.953568e+003,-8.297777e-004
1.955497e+003,-8.350029e-004
1.957425e+003,-8.115884e-004
1.959354e+003,-7.096149e-004
1.961282e+003,-6.442771e-004
1.963211e+003,-7.460014e-004
1.965139e+003,-8.316959e-004
1.967068e+003,-7.887019e-004
1.968996e+003,-8.642361e-004
1.970925e+003,-9.350955e-004
1.972853e+003,-9.013040e-004
1.974782e+003,-8.080828e-004
1.976710e+003,-7.671372e-004
1.978639e+003,-7.253938e-004
1.980567e+003,-7.292309e-004
1.982496e+003,-8.399634e-004
1.984424e+003,-8.010052e-004
1.986353e+003,-6.786179e-004
1.988281e+003,-7.028996e-004
1.990210e+003,-7.288671e-004
1.992138e+003,-6.963497e-004
1.994067e+003,-7.535098e-004
1.995995e+003,-7.939275e-004
1.997924e+003,-7.546013e-004
1.999852e+003,-7.078617e-004
2.001781e+003,-7.305210e-004
2.003709e+003,-7.165947e-004
2.005638e+003,-7.172895e-004
2.007566e+003,-6.693548e-004
2.009495e+003,-6.272711e-004
2.011423e+003,-7.004848e-004
2.013352e+003,-6.805367e-004
2.015280e+003,-6.143012e-004
2.017208e+003,-5.777052e-004
2.019137e+003,-5.855474e-004
2.021066e+003,-6.509603e-004
2.022994e+003,-6.942656e-004
2.024922e+003,-6.770631e-004
2.026851e+003,-6.314069e-004
2.028780e+003,-5.726755e-004
2.030708e+003,-6.054006e-004
2.032636e+003,-5.678773e-004
2.034565e+003,-5.429924e-004
2.036494e+003,-5.186024e-004
2.038422e+003,-5.190658e-004
2.040350e+003,-5.738667e-004
2.042279e+003,-5.777383e-004
2.044208e+003,-4.985798e-004
2.046136e+003,-4.873270e-004
2.048064e+003,-4.066955e-004
2.049993e+003,-3.197914e-004
2.051921e+003,-3.897133e-004
2.053850e+003,-3.761735e-004
2.055778e+003,-3.024085e-004
2.057707e+003,-2.229349e-004
2.059635e+003,-2.263790e-004
2.061564e+003,-1.968378e-004
2.063492e+003,-3.057196e-004
2.065421e+003,-3.521714e-004
2.067349e+003,-2.302868e-004
2.069278e+003,-1.964404e-004
2.071206e+003,-1.300316e-004
2.073135e+003,-1.951551e-005
2.075063e+003,-4.280707e-005
2.076992e+003,-5.890833e-005
2.078920e+003,-1.756069e-005
2.080849e+003,-1.249135e-005
2.082777e+003,2.614354e-005
2.084706e+003,5.414440e-005
2.086634e+003,2.514946e-005
2.088563e+003,9.483998e-005
2.090491e+003,1.652046e-004
2.092420e+003,1.719334e-004
2.094348e+003,1.731930e-004
2.096277e+003,1.156201e-004
2.098205e+003,1.487310e-004
2.100134e+003,1.697789e-004
2.102062e+003,1.904631e-004
2.103991e+003,1.967614e-004
2.105919e+003,2.375366e-004
2.107848e+003,3.675125e-004
2.109776e+003,3.689054e-004
2.111705e+003,2.770558e-004
2.113633e+003,3.096485e-004
2.115562e+003,4.212385e-004
2.117490e+003,4.384852e-004
2.119419e+003,4.697965e-004
2.121347e+003,4.743408e-004
2.123276e+003,4.577891e-004
2.125204e+003,4.919877e-004
2.127133e+003,4.984894e-004
2.129061e+003,5.927415e-004
2.130990e+003,6.726446e-004
2.132918e+003,5.982161e-004
2.134847e+003,5.866366e-004
2.136775e+003,6.032927e-004
2.138704e+003,5.891914e-004
2.140632e+003,6.337199e-004
2.142561e+003,6.012355e-004
2.144489e+003,5.908835e-004
2.146418e+003,7.098803e-004
2.148346e+003,8.439150e-004
2.150275e+003,9.323648e-004
2.152203e+003,9.356854e-004
2.154132e+003,8.602822e-004
2.156060e+003,8.333580e-004
2.157989e+003,9.220713e-004
2.159917e+003,9.359178e-004
2.161846e+003,8.645982e-004
2.163774e+003,8.933504e-004
2.165703e+003,9.290775e-004
2.167631e+003,9.645419e-004
2.169560e+003,1.022659e-003
2.171488e+003,9.994778e-004
2.173417e+003,9.817771e-004
2.175345e+003,1.051455e-003
2.177274e+003,1.071019e-003
2.179202e+003,1.081814e-003
2.181131e+003,1.064509e-003
2.183059e+003,9.786222e-004
2.184988e+003,1.046606e-003
2.186916e+003,1.160346e-003
2.188845e+003,1.047170e-003
2.190773e+003,8.752887e-004
2.192702e+003,9.089889e-004
2.194630e+003,1.005721e-003
2.196559e+003,1.041026e-003
2.198487e+003,1.070122e-003
2.200416e+003,1.038967e-003
2.202344e+003,9.946956e-004
2.204273e+003,1.022693e-003
2.206201e+003,1.083176e-003
2.208130e+003,1.108488e-003
2.210058e+003,1.052584e-003
2.211987e+003,9.605570e-004
2.213915e+003,9.116121e-004
2.215844e+003,9.592287e-004
2.217772e+003,9.958247e-004
2.219701e+003,1.032955e-003
2.221629e+003,9.768290e-004
2.223558e+003,8.991609e-004
2.225486e+003,9.118113e-004
2.227415e+003,8.763180e-004
2.229343e+003,8.149006e-004
2.231272e+003,8.088257e-004
2.233200e+003,8.702754e-004
2.235129e+003,9.441196e-004
2.237057e+003,8.851163e-004
2.238986e+003,7.865519e-004
2.240914e+003,8.199464e-004
2.242843e+003,8.379726e-004
2.244771e+003,8.409272e-004
2.246700e+003,8.246604e-004
2.248628e+003,7.363321e-004
2.250557e+003,5.333546e-004
2.252485e+003,5.089719e-004
2.254414e+003,6.738725e-004
2.256342e+003,7.292626e-004
2.258271e+003,6.299371e-004
2.260199e+003,6.009701e-004
2.262128e+003,6.485527e-004
2.264056e+003,6.250925e-004
2.265985e+003,6.210444e-004
2.267913e+003,6.347817e-004
2.269842e+003,6.099619e-004
2.271770e+003,6.458316e-004
2.273699e+003,6.338526e-004
2.275627e+003,5.527955e-004
2.277556e+003,5.330229e-004
2.279484e+003,5.847786e-004
2.281413e+003,5.954291e-004
2.283341e+003,5.654690e-004
2.285270e+003,5.595303e-004
2.287198e+003,4.961342e-004
2.289127e+003,5.770148e-004
2.291055e+003,6.272494e-004
2.292984e+003,5.201513e-004
2.294912e+003,3.785888e-004
2.296841e+003,4.770608e-004
2.298769e+003,5.875324e-004
2.300698e+003,5.680900e-004
2.302626e+003,5.948650e-004
2.304555e+003,5.933719e-004
2.306483e+003,6.354786e-004
2.308412e+003,6.200490e-004
2.310340e+003,6.151050e-004
2.312269e+003,7.189407e-004
2.314197e+003,8.780776e-004
2.316125e+003,1.001869e-003
2.318054e+003,1.044148e-003
2.319983e+003,1.107060e-003
2.321911e+003,1.226763e-003
2.323840e+003,1.360957e-003
2.325768e+003,1.422884e-003
2.327697e+003,1.592588e-003
2.329625e+003,1.862277e-003
2.331553e+003,1.932828e-003
2.333482e+003,1.893391e-003
2.335411e+003,1.919882e-003
2.337339e+003,2.039376e-003
2.339268e+003,1.969340e-003
2.341196e+003,1.833826e-003
2.343125e+003,1.811400e-003
2.345053e+003,1.688276e-003
2.346981e+003,1.447717e-003
2.348910e+003,1.182638e-003
2.350839e+003,1.203072e-003
2.352767e+003,1.646998e-003
2.354696e+003,2.060183e-003
2.356624e+003,2.297984e-003
2.358552e+003,2.325898e-003
2.360481e+003,2.292787e-003
2.362409e+003,2.334759e-003
2.364338e+003,2.382765e-003
2.366267e+003,2.296152e-003
2.368195e+003,2.178917e-003
2.370124e+003,2.084054e-003
2.372052e+003,1.948138e-003
2.373980e+003,1.806675e-003
2.375909e+003,1.576460e-003
2.377838e+003,1.304523e-003
2.379766e+003,1.048665e-003
2.381695e+003,1.005655e-003
2.383623e+003,1.088823e-003
2.385552e+003,1.116826e-003
2.387480e+003,1.187722e-003
2.389408e+003,1.350853e-003
2.391337e+003,1.373754e-003
2.393266e+003,1.262883e-003
2.395194e+003,1.300701e-003
2.397123e+003,1.419061e-003
2.399051e+003,1.520396e-003
2.400979e+003,1.561329e-003
2.402908e+003,1.482692e-003
2.404836e+003,1.459652e-003
2.406765e+003,1.473981e-003
2.408694e+003,1.478370e-003
2.410622e+003,1.589097e-003
2.412551e+003,1.637020e-003
2.414479e+003,1.718879e-003
2.416407e+003,1.851262e-003
2.418336e+003,1.851528e-003
2.420264e+003,1.763424e-003
2.422193e+003,1.732218e-003
2.424122e+003,1.782154e-003
2.426050e+003,1.790006e-003
2.427979e+003,1.824177e-003
2.429907e+003,1.864473e-003
2.431835e+003,1.906137e-003
2.433764e+003,2.010548e-003
2.435692e+003,2.104130e-003
2.437621e+003,2.068373e-003
2.439550e+003,1.921579e-003
2.441478e+003,1.893025e-003
2.443406e+003,2.014576e-003
2.445335e+003,2.115551e-003
2.447263e+003,2.191239e-003
2.449192e+003,2.181981e-003
2.451121e+003,2.130734e-003
2.453049e+003,2.095840e-003
2.454978e+003,2.185045e-003
2.456906e+003,2.261911e-003
2.458834e+003,2.271403e-003
2.460763e+003,2.356913e-003
2.462691e+003,2.267673e-003
2.464620e+003,2.226207e-003
2.466549e+003,2.324199e-003
2.468477e+003,2.400723e-003
2.470406e+003,2.390495e-003
2.472334e+003,2.411385e-003
2.474262e+003,2.490824e-003
2.476191e+003,2.520417e-003
2.478119e+003,2.547013e-003
2.480048e+003,2.583376e-003
2.481977e+003,2.630910e-003
2.483905e+003,2.667213e-003
2.485833e+003,2.709121e-003
2.487762e+003,2.743531e-003
2.489690e+003,2.694185e-003
2.491619e+003,2.705421e-003
2.493547e+003,2.850946e-003
2.495476e+003,3.017305e-003
2.497405e+003,3.013101e-003
2.499333e+003,2.908882e-003
2.501261e+003,2.846977e-003
2.503190e+003,2.886634e-003
2.505118e+003,2.930398e-003
2.507047e+003,2.943808e-003
2.508975e+003,2.936803e-003
2.510904e+003,2.970763e-003
2.512833e+003,3.076132e-003
2.514761e+003,3.068690e-003
2.516689e+003,2.984342e-003
2.518618e+003,3.038392e-003
2.520546e+003,3.127924e-003
2.522475e+003,3.062017e-003
2.524403e+003,3.029317e-003
2.526332e+003,3.079235e-003
2.528260e+003,3.119014e-003
2.530189e+003,3.160098e-003
2.532117e+003,3.166406e-003
2.534046e+003,3.113440e-003
2.535974e+003,3.095186e-003
2.537903e+003,3.089480e-003
2.539831e+003,3.207861e-003
2.541760e+003,3.260604e-003
2.543688e+003,3.294791e-003
2.545617e+003,3.349815e-003
2.547545e+003,3.412026e-003
2.549474e+003,3.415232e-003
2.551402e+003,3.313654e-003
2.553331e+003,3.246283e-003
2.555259e+003,3.296660e-003
2.557188e+003,3.329414e-003
2.559116e+003,3.344072e-003
2.561045e+003,3.345875e-003
2.562973e+003,3.338562e-003
2.564902e+003,3.458381e-003
2.566830e+003,3.559458e-003
2.568759e+003,3.363505e-003
2.570687e+003,3.318763e-003
2.572616e+003,3.413829e-003
2.574544e+003,3.469771e-003
2.576473e+003,3.537945e-003
2.578401e+003,3.538379e-003
2.580330e+003,3.497660e-003
2.582258e+003,3.484767e-003
2.584187e+003,3.545027e-003
2.586115e+003,3.479824e-003
2.588044e+003,3.336659e-003
2.589972e+003,3.431262e-003
2.591901e+003,3.553345e-003
2.593829e+003,3.521677e-003
2.595758e+003,3.468468e-003
2.597686e+003,3.505076e-003
2.599615e+003,3.583913e-003
2.601543e+003,3.648129e-003
2.603472e+003,3.686088e-003
2.605400e+003,3.776924e-003
2.607329e+003,3.750286e-003
2.609257e+003,3.828867e-003
2.611186e+003,3.948353e-003
2.613114e+003,3.927389e-003
2.615043e+003,3.935781e-003
2.616971e+003,3.934845e-003
2.618900e+003,3.981590e-003
2.620828e+003,4.044661e-003
2.622757e+003,4.048674e-003
2.624685e+003,4.045832e-003
2.626614e+003,4.073524e-003
2.628542e+003,4.144972e-003
2.630471e+003,4.147714e-003
2.632399e+003,4.184647e-003
2.634328e+003,4.220479e-003
2.636256e+003,4.145775e-003
2.638185e+003,4.271538e-003
2.640113e+003,4.400853e-003
2.642042e+003,4.367951e-003
2.643970e+003,4.477242e-003
2.645899e+003,4.528565e-003
2.647827e+003,4.503556e-003
2.649756e+003,4.606048e-003
2.651684e+003,4.720724e-003
2.653613e+003,4.677013e-003
2.655541e+003,4.676210e-003
2.657470e+003,4.670214e-003
2.659398e+003,4.660502e-003
2.661327e+003,4.717608e-003
2.663255e+003,4.873996e-003
2.665184e+003,4.913370e-003
2.667112e+003,4.928517e-003
2.669041e+003,4.925668e-003
2.670969e+003,4.886427e-003
2.672898e+003,4.954925e-003
2.674826e+003,5.064430e-003
2.676755e+003,5.102480e-003
2.678683e+003,5.119713e-003
2.680612e+003,5.187040e-003
2.682540e+003,5.170073e-003
2.684469e+003,5.245021e-003
2.686397e+003,5.385193e-003
2.688326e+003,5.470479e-003
2.690254e+003,5.470982e-003
2.692183e+003,5.459171e-003
2.694111e+003,5.501518e-003
2.696040e+003,5.475009e-003
2.697968e+003,5.439443e-003
2.699897e+003,5.635395e-003
2.701825e+003,5.779689e-003
2.703754e+003,5.819380e-003
2.705682e+003,5.858638e-003
2.707611e+003,5.874053e-003
2.709539e+003,5.839428e-003
2.711468e+003,5.842585e-003
2.713396e+003,5.930413e-003
2.715325e+003,6.061331e-003
2.717253e+003,6.055082e-003
2.719182e+003,6.163991e-003
2.721110e+003,6.227043e-003
2.723039e+003,6.274506e-003
2.724967e+003,6.449481e-003
2.726896e+003,6.584088e-003
2.728824e+003,6.639362e-003
2.730753e+003,6.723582e-003
2.732681e+003,6.696696e-003
2.734610e+003,6.708439e-003
2.736538e+003,6.834342e-003
2.738467e+003,6.973412e-003
2.740395e+003,7.073828e-003
2.742324e+003,7.228910e-003
2.744252e+003,7.344449e-003
2.746181e+003,7.444075e-003
2.748109e+003,7.509978e-003
2.750038e+003,7.650579e-003
2.751966e+003,7.778543e-003
2.753895e+003,7.873106e-003
2.755823e+003,7.924799e-003
2.757752e+003,8.060371e-003
2.759680e+003,8.255754e-003
2.761609e+003,8.408556e-003
2.763537e+003,8.660742e-003
2.765466e+003,9.021791e-003
2.767394e+003,9.305476e-003
2.769323e+003,9.573088e-003
2.771251e+003,9.967340e-003
2.773180e+003,1.031254e-002
2.775108e+003,1.068832e-002
2.777037e+003,1.114881e-002
2.778965e+003,1.161052e-002
2.780894e+003,1.229571e-002
2.782822e+003,1.301459e-002
2.784750e+003,1.367964e-002
2.786679e+003,1.443369e-002
2.788608e+003,1.513869e-002
2.790536e+003,1.583728e-002
2.792465e+003,1.650343e-002
2.794393e+003,1.717244e-002
2.796322e+003,1.789568e-002
2.798250e+003,1.857627e-002
2.800178e+003,1.919286e-002
2.802107e+003,1.981431e-002
2.804036e+003,2.041140e-002
2.805964e+003,2.076154e-002
2.807893e+003,2.110858e-002
2.809821e+003,2.134859e-002
2.811750e+003,2.145997e-002
2.813678e+003,2.146506e-002
2.815606e+003,2.152713e-002
2.817535e+003,2.149416e-002
2.819464e+003,2.136188e-002
2.821392e+003,2.108145e-002
2.823321e+003,2.079911e-002
2.825249e+003,2.053568e-002
2.827177e+003,2.012398e-002
2.829106e+003,1.960461e-002
2.831034e+003,1.904130e-002
2.832963e+003,1.856441e-002
2.834892e+003,1.833686e-002
2.836820e+003,1.784037e-002
2.838749e+003,1.708737e-002
2.840677e+003,1.645484e-002
2.842605e+003,1.605486e-002
2.844534e+003,1.552038e-002
2.846462e+003,1.483317e-002
2.848391e+003,1.437447e-002
2.850320e+003,1.414900e-002
2.852248e+003,1.380946e-002
2.854177e+003,1.346652e-002
2.856105e+003,1.330168e-002
2.858033e+003,1.311829e-002
2.859962e+003,1.307543e-002
2.861890e+003,1.306072e-002
2.863819e+003,1.290306e-002
2.865748e+003,1.283531e-002
2.867676e+003,1.278456e-002
2.869604e+003,1.284763e-002
2.871533e+003,1.304122e-002
2.873461e+003,1.322441e-002
2.875390e+003,1.326950e-002
2.877319e+003,1.337370e-002
2.879247e+003,1.355464e-002
2.881176e+003,1.363286e-002
2.883104e+003,1.365474e-002
2.885032e+003,1.367957e-002
2.886961e+003,1.361300e-002
2.888889e+003,1.353290e-002
2.890818e+003,1.347318e-002
2.892747e+003,1.340056e-002
2.894675e+003,1.319418e-002
2.896604e+003,1.315394e-002
2.898532e+003,1.310091e-002
2.900460e+003,1.301274e-002
2.902389e+003,1.302070e-002
2.904317e+003,1.302749e-002
2.906246e+003,1.305559e-002
2.908175e+003,1.302387e-002
2.910103e+003,1.292572e-002
2.912031e+003,1.288446e-002
2.913960e+003,1.288408e-002
2.915888e+003,1.280115e-002
2.917817e+003,1.281483e-002
2.919745e+003,1.299106e-002
2.921674e+003,1.318673e-002
2.923603e+003,1.345569e-002
2.925531e+003,1.358199e-002
2.927459e+003,1.368794e-002
2.929388e+003,1.386261e-002
2.931316e+003,1.393719e-002
2.933245e+003,1.399379e-002
2.935173e+003,1.399506e-002
2.937102e+003,1.397114e-002
2.939031e+003,1.399276e-002
2.940959e+003,1.386409e-002
2.942887e+003,1.368162e-002
2.944816e+003,1.352835e-002
2.946744e+003,1.330581e-002
2.948673e+003,1.290692e-002
2.950601e+003,1.235161e-002
2.952530e+003,1.193397e-002
2.954458e+003,1.152599e-002
2.956387e+003,1.094890e-002
2.958315e+003,1.034088e-002
2.960244e+003,9.660081e-003
2.962172e+003,9.032244e-003
2.964101e+003,8.461562e-003
2.966029e+003,7.856844e-003
2.967958e+003,7.270554e-003
2.969886e+003,6.858409e-003
2.971815e+003,6.490511e-003
2.973743e+003,6.038518e-003
2.975672e+003,5.558399e-003
2.977600e+003,5.148949e-003
2.979529e+003,4.930729e-003
2.981457e+003,4.784036e-003
2.983386e+003,4.505263e-003
2.985314e+003,4.115836e-003
2.987243e+003,4.005166e-003
2.989171e+003,3.986472e-003
2.991100e+003,3.760714e-003
2.993028e+003,3.623002e-003
2.994957e+003,3.646358e-003
2.996885e+003,3.573556e-003
2.998814e+003,3.433366e-003
3.000742e+003,3.346209e-003
3.002671e+003,3.276596e-003
3.004599e+003,3.181325e-003
3.006528e+003,3.176319e-003
3.008456e+003,3.048135e-003
3.010385e+003,3.018440e-003
3.012313e+003,3.057712e-003
3.014242e+003,3.017305e-003
3.016170e+003,2.898142e-003
3.018099e+003,2.842241e-003
3.020027e+003,2.769674e-003
3.021956e+003,2.743731e-003
3.023884e+003,2.813126e-003
3.025813e+003,2.853547e-003
3.027741e+003,2.708755e-003
3.029670e+003,2.545246e-003
3.031598e+003,2.572710e-003
3.033527e+003,2.621676e-003
3.035455e+003,2.610676e-003
3.037384e+003,2.609876e-003
3.039312e+003,2.580110e-003
3.041241e+003,2.464998e-003
3.043169e+003,2.409419e-003
3.045098e+003,2.404788e-003
3.047026e+003,2.409619e-003
3.048955e+003,2.299449e-003
3.050883e+003,2.253318e-003
3.052812e+003,2.298117e-003
3.054740e+003,2.294586e-003
3.056669e+003,2.235732e-003
3.058597e+003,2.093110e-003
3.060526e+003,1.911295e-003
3.062454e+003,1.934759e-003
3.064383e+003,1.997966e-003
3.066311e+003,1.984052e-003
3.068240e+003,2.063679e-003
3.070168e+003,2.052093e-003
3.072097e+003,1.943811e-003
3.074025e+003,1.879747e-003
3.075954e+003,1.816590e-003
3.077882e+003,1.796793e-003
3.079811e+003,1.815293e-003
3.081739e+003,1.743596e-003
3.083668e+003,1.720176e-003
3.085596e+003,1.716850e-003
3.087525e+003,1.629437e-003
3.089453e+003,1.583443e-003
3.091382e+003,1.606656e-003
3.093310e+003,1.642940e-003
3.095239e+003,1.608618e-003
3.097167e+003,1.528875e-003
3.099096e+003,1.550555e-003
3.101024e+003,1.623584e-003
3.102953e+003,1.518601e-003
3.104881e+003,1.391138e-003
3.106810e+003,1.435118e-003
3.108738e+003,1.439672e-003
3.110667e+003,1.397088e-003
3.112595e+003,1.344837e-003
3.114524e+003,1.277438e-003
3.116452e+003,1.225068e-003
3.118381e+003,1.265641e-003
3.120309e+003,1.303293e-003
3.122238e+003,1.314460e-003
3.124166e+003,1.403604e-003
3.126095e+003,1.430131e-003
3.128023e+003,1.301133e-003
3.129952e+003,1.211179e-003
3.131880e+003,1.200514e-003
3.133809e+003,1.270725e-003
3.135737e+003,1.328884e-003
3.137666e+003,1.419194e-003
3.139594e+003,1.404501e-003
3.141523e+003,1.322935e-003
3.143451e+003,1.388479e-003
3.145380e+003,1.461381e-003
3.147308e+003,1.395593e-003
3.149237e+003,1.355706e-003
3.151165e+003,1.405033e-003
3.153094e+003,1.530005e-003
3.155022e+003,1.664028e-003
3.156951e+003,1.519066e-003
3.158879e+003,1.467864e-003
3.160808e+003,1.579153e-003
3.162736e+003,1.627043e-003
3.164665e+003,1.591790e-003
3.166593e+003,1.552583e-003
3.168522e+003,1.469992e-003
3.170450e+003,1.571338e-003
3.172379e+003,1.637952e-003
3.174307e+003,1.466700e-003
3.176236e+003,1.457425e-003
3.178164e+003,1.603164e-003
3.180093e+003,1.598275e-003
3.182021e+003,1.484853e-003
3.183950e+003,1.520197e-003
3.185878e+003,1.614771e-003
3.187807e+003,1.678929e-003
3.189735e+003,1.745459e-003
3.191664e+003,1.671378e-003
3.193592e+003,1.648528e-003
3.195521e+003,1.624914e-003
3.197449e+003,1.619427e-003
3.199378e+003,1.564122e-003
3.201306e+003,1.526182e-003
3.203235e+003,1.647730e-003
3.205163e+003,1.698255e-003
3.207092e+003,1.612642e-003
3.209020e+003,1.660868e-003
3.210948e+003,1.691569e-003
3.212877e+003,1.738639e-003
3.214806e+003,1.779193e-003
3.216734e+003,1.877551e-003
3.218663e+003,1.915322e-003
3.220591e+003,1.920281e-003
3.222520e+003,1.984052e-003
3.224448e+003,1.916121e-003
3.226376e+003,1.874988e-003
3.228305e+003,1.978527e-003
3.230234e+003,2.089614e-003
3.232162e+003,2.115251e-003
3.234091e+003,2.264375e-003
3.236019e+003,2.293653e-003
3.237948e+003,2.185944e-003
3.239876e+003,2.341888e-003
3.241804e+003,2.629376e-003
3.243733e+003,2.719157e-003
3.245662e+003,2.810258e-003
3.247590e+003,3.021509e-003
3.249519e+003,3.067723e-003
3.251447e+003,3.111805e-003
3.253375e+003,3.046233e-003
3.255304e+003,3.044198e-003
3.257232e+003,3.276996e-003
3.259161e+003,3.394494e-003
3.261090e+003,3.533870e-003
3.263018e+003,3.559158e-003
3.264947e+003,3.474413e-003
3.266875e+003,3.483264e-003
3.268803e+003,3.656516e-003
3.270732e+003,3.693707e-003
3.272660e+003,3.648028e-003
3.274589e+003,3.662731e-003
3.276518e+003,3.766496e-003
3.278446e+003,3.766362e-003
3.280375e+003,3.770306e-003
3.282303e+003,3.759945e-003
3.284231e+003,3.886132e-003
3.286160e+003,3.828131e-003
3.288088e+003,3.713992e-003
3.290017e+003,3.622301e-003
3.291946e+003,3.754898e-003
3.293874e+003,3.795608e-003
3.295802e+003,3.628282e-003
3.297731e+003,3.474580e-003
3.299659e+003,3.289082e-003
3.301588e+003,3.185831e-003
3.303516e+003,3.134900e-003
3.305445e+003,3.078434e-003
3.307374e+003,3.104897e-003
3.309302e+003,2.931766e-003
3.311230e+003,2.638410e-003
3.313159e+003,2.497289e-003
3.315087e+003,2.374336e-003
3.317016e+003,2.399557e-003
3.318944e+003,2.265974e-003
3.320873e+003,2.051161e-003
3.322802e+003,1.969240e-003
3.324730e+003,1.854190e-003
3.326658e+003,1.744161e-003
3.328587e+003,1.684151e-003
3.330515e+003,1.602000e-003
3.332444e+003,1.441135e-003
3.334372e+003,1.285879e-003
3.336301e+003,1.259061e-003
3.338229e+003,1.268997e-003
3.340158e+003,1.219818e-003
3.342086e+003,1.216761e-003
3.344015e+003,1.154100e-003
3.345943e+003,1.268266e-003
3.347872e+003,1.317351e-003
3.349800e+003,1.200779e-003
3.351729e+003,9.925369e-004
3.353657e+003,7.620553e-004
3.355586e+003,7.640469e-004
3.357514e+003,9.284466e-004
3.359443e+003,8.268182e-004
3.361371e+003,5.669620e-004
3.363300e+003,5.481509e-004
3.365229e+003,5.154738e-004
3.367157e+003,2.266960e-004
3.369085e+003,-7.020535e-005
3.371014e+003,-1.691495e-004
3.372942e+003,-1.008483e-004
3.374871e+003,-2.304855e-004
3.376799e+003,-3.705786e-004
3.378728e+003,-4.430411e-004
3.380656e+003,-5.496109e-004
3.382585e+003,-7.028996e-004
3.384513e+003,-9.184976e-004
3.386442e+003,-1.021083e-003
3.388370e+003,-1.034140e-003
3.390299e+003,-1.167035e-003
3.392227e+003,-1.117002e-003
3.394156e+003,-1.188976e-003
3.396084e+003,-1.353237e-003
3.398013e+003,-1.415463e-003
3.399941e+003,-1.467410e-003
3.401870e+003,-1.525922e-003
3.403798e+003,-1.626384e-003
3.405727e+003,-1.601031e-003
3.407655e+003,-1.574951e-003
3.409584e+003,-1.663452e-003
3.411512e+003,-1.741079e-003
3.413441e+003,-1.851950e-003
3.415369e+003,-1.822486e-003
3.417298e+003,-1.801500e-003
3.419226e+003,-1.911201e-003
3.421155e+003,-1.963914e-003
3.423083e+003,-2.052237e-003
3.425012e+003,-2.073277e-003
3.426940e+003,-2.050292e-003
3.428869e+003,-2.107373e-003
3.430797e+003,-2.123661e-003
3.432726e+003,-2.077860e-003
3.434654e+003,-2.029944e-003
3.436583e+003,-2.213337e-003
3.438511e+003,-2.243466e-003
3.440440e+003,-2.013025e-003
3.442368e+003,-2.146181e-003
3.444297e+003,-2.382978e-003
3.446225e+003,-2.279428e-003
3.448154e+003,-2.084752e-003
3.450082e+003,-2.087225e-003
3.452011e+003,-2.215974e-003
3.453939e+003,-2.290700e-003
3.455868e+003,-2.328306e-003
3.457796e+003,-2.339676e-003
3.459725e+003,-2.380474e-003
3.461653e+003,-2.361360e-003
3.463582e+003,-2.217260e-003
3.465510e+003,-2.276330e-003
3.467439e+003,-2.560853e-003
3.469367e+003,-2.609106e-003
3.471296e+003,-2.523202e-003
3.473224e+003,-2.476718e-003
3.475153e+003,-2.516482e-003
3.477081e+003,-2.493257e-003
3.479010e+003,-2.457115e-003
3.480938e+003,-2.499384e-003
3.482867e+003,-2.644214e-003
3.484795e+003,-2.593561e-003
3.486724e+003,-2.608645e-003
3.488652e+003,-2.687947e-003
3.490581e+003,-2.634038e-003
3.492509e+003,-2.655905e-003
3.494438e+003,-2.637924e-003
3.496366e+003,-2.512364e-003
3.498295e+003,-2.549720e-003
3.500223e+003,-2.546228e-003
3.502152e+003,-2.462057e-003
3.504080e+003,-2.457642e-003
3.506009e+003,-2.515592e-003
3.507937e+003,-2.564707e-003
3.509866e+003,-2.615232e-003
3.511794e+003,-2.510980e-003
3.513723e+003,-2.515559e-003
3.515651e+003,-2.640493e-003
3.517580e+003,-2.530021e-003
3.519508e+003,-2.519974e-003
3.521437e+003,-2.623993e-003
3.523365e+003,-2.591552e-003
3.525294e+003,-2.599588e-003
3.527222e+003,-2.662064e-003
3.529151e+003,-2.764238e-003
3.531079e+003,-2.842327e-003
3.533008e+003,-2.725551e-003
3.534936e+003,-2.597678e-003
3.536865e+003,-2.685082e-003
3.538793e+003,-2.881563e-003
3.540722e+003,-2.834722e-003
3.542650e+003,-2.733157e-003
3.544579e+003,-2.574786e-003
3.546507e+003,-2.420674e-003
3.548436e+003,-2.520896e-003
3.550364e+003,-2.551828e-003
3.552293e+003,-2.523795e-003
3.554221e+003,-2.555846e-003
3.556150e+003,-2.636179e-003
3.558078e+003,-2.670494e-003
3.560007e+003,-2.719789e-003
3.561935e+003,-2.831793e-003
3.563864e+003,-2.848449e-003
3.565792e+003,-2.627385e-003
3.567721e+003,-2.554628e-003
3.569649e+003,-2.865829e-003
3.571578e+003,-3.108945e-003
3.573506e+003,-3.019751e-003
3.575435e+003,-2.944360e-003
3.577363e+003,-2.871425e-003
3.579292e+003,-2.807235e-003
3.581220e+003,-2.811942e-003
3.583149e+003,-2.809407e-003
3.585077e+003,-2.747216e-003
3.587006e+003,-2.485284e-003
3.588934e+003,-2.567803e-003
3.590863e+003,-2.874618e-003
3.592791e+003,-2.814708e-003
3.594720e+003,-2.837389e-003
3.596648e+003,-2.875704e-003
3.598577e+003,-2.962197e-003
3.600505e+003,-2.882386e-003
3.602434e+003,-2.916583e-003
3.604362e+003,-3.102300e-003
3.606291e+003,-3.070026e-003
3.608219e+003,-2.790017e-003
3.610148e+003,-2.832550e-003
3.612076e+003,-2.941003e-003
3.614005e+003,-3.016131e-003
3.615933e+003,-2.935738e-003
3.617862e+003,-2.690318e-003
3.619790e+003,-2.661043e-003
3.621719e+003,-3.040776e-003
3.623647e+003,-3.336012e-003
3.625576e+003,-3.354457e-003
3.627504e+003,-2.730029e-003
3.629433e+003,-2.058635e-003
3.631361e+003,-2.737042e-003
3.633290e+003,-3.080356e-003
3.635218e+003,-3.162993e-003
3.637146e+003,-3.083350e-003
3.639075e+003,-3.100458e-003
3.641004e+003,-3.374974e-003
3.642932e+003,-3.509422e-003
3.644861e+003,-3.491607e-003
3.646789e+003,-3.138849e-003
3.648718e+003,-2.681987e-003
3.650646e+003,-2.843446e-003
3.652574e+003,-3.400025e-003
3.654503e+003,-3.352057e-003
3.656432e+003,-2.886368e-003
3.658360e+003,-3.317269e-003
3.660289e+003,-3.682007e-003
3.662217e+003,-3.628550e-003
3.664146e+003,-3.757401e-003
3.666074e+003,-3.954710e-003
3.668002e+003,-3.814160e-003
3.669931e+003,-3.367050e-003
3.671860e+003,-3.400584e-003
3.673788e+003,-3.267845e-003
3.675717e+003,-2.890581e-003
3.677645e+003,-3.369154e-003
3.679573e+003,-3.719131e-003
3.681502e+003,-3.735655e-003
3.683430e+003,-3.689662e-003
3.685359e+003,-3.804208e-003
3.687288e+003,-3.435793e-003
3.689216e+003,-2.923264e-003
3.691145e+003,-3.082561e-003
3.693073e+003,-3.394371e-003
3.695001e+003,-3.598122e-003
3.696930e+003,-3.680528e-003
3.698858e+003,-3.622767e-003
3.700787e+003,-3.226440e-003
3.702716e+003,-3.075882e-003
3.704644e+003,-3.323188e-003
3.706573e+003,-3.495420e-003
3.708501e+003,-3.431421e-003
3.710429e+003,-3.084206e-003
3.712358e+003,-2.804371e-003
3.714286e+003,-3.387434e-003
3.716215e+003,-3.607783e-003
3.718144e+003,-3.379675e-003
3.720072e+003,-3.300434e-003
3.722000e+003,-3.180591e-003
3.723929e+003,-3.165098e-003
3.725857e+003,-3.105426e-003
3.727786e+003,-3.281756e-003
3.729714e+003,-3.363236e-003
3.731643e+003,-2.859049e-003
3.733572e+003,-2.388448e-003
3.735500e+003,-2.237698e-003
3.737428e+003,-2.668913e-003
3.739357e+003,-3.106676e-003
3.741285e+003,-3.043343e-003
3.743214e+003,-2.278999e-003
3.745142e+003,-1.684643e-003
3.747071e+003,-2.304906e-003
3.749000e+003,-1.878310e-003
3.750928e+003,-1.669592e-003
3.752856e+003,-1.995446e-003
3.754785e+003,-2.409405e-003
3.756713e+003,-2.420476e-003
3.758642e+003,-2.266870e-003
3.760570e+003,-2.051875e-003
3.762499e+003,-2.300588e-003
3.764427e+003,-2.410591e-003
3.766356e+003,-2.248642e-003
3.768284e+003,-2.339511e-003
3.770213e+003,-2.115484e-003
3.772141e+003,-2.246928e-003
3.774070e+003,-2.577454e-003
3.775998e+003,-2.507357e-003
3.777927e+003,-2.278406e-003
3.779855e+003,-2.071628e-003
3.781784e+003,-2.288888e-003
3.783712e+003,-2.387097e-003
3.785641e+003,-2.403276e-003
3.787569e+003,-2.633775e-003
3.789498e+003,-2.731939e-003
3.791426e+003,-2.595010e-003
3.793355e+003,-2.517602e-003
3.795283e+003,-2.361525e-003
3.797212e+003,-2.303126e-003
3.799140e+003,-2.183931e-003
3.801069e+003,-1.726228e-003
3.802997e+003,-2.184392e-003
3.804926e+003,-2.349464e-003
3.806854e+003,-1.791040e-003
3.808783e+003,-2.113143e-003
3.810711e+003,-2.344421e-003
3.812640e+003,-2.293139e-003
3.814568e+003,-2.249828e-003
3.816497e+003,-1.767512e-003
3.818425e+003,-1.777940e-003
3.820354e+003,-1.436368e-003
3.822282e+003,-1.633844e-003
3.824211e+003,-2.312915e-003
3.826139e+003,-2.368841e-003
3.828068e+003,-2.420312e-003
3.829996e+003,-2.268979e-003
3.831925e+003,-2.140411e-003
3.833853e+003,-2.092171e-003
3.835782e+003,-2.011376e-003
3.837710e+003,-1.684280e-003
3.839639e+003,-1.789126e-003
3.841567e+003,-2.108428e-003
3.843496e+003,-2.142818e-003
3.845424e+003,-2.408054e-003
3.847353e+003,-2.783136e-003
3.849281e+003,-2.823234e-003
3.851210e+003,-2.055073e-003
3.853138e+003,-7.569167e-004
3.855067e+003,-9.537425e-004
3.856995e+003,-1.972687e-003
3.858924e+003,-2.335391e-003
3.860852e+003,-2.158907e-003
3.862781e+003,-1.837432e-003
3.864709e+003,-1.841095e-003
3.866638e+003,-2.280878e-003
3.868566e+003,-2.183898e-003
3.870495e+003,-1.822321e-003
3.872423e+003,-1.887317e-003
3.874352e+003,-2.055535e-003
3.876280e+003,-2.412733e-003
3.878209e+003,-2.394610e-003
3.880137e+003,-2.232720e-003
3.882066e+003,-2.348080e-003
3.883994e+003,-2.200777e-003
3.885923e+003,-1.859736e-003
3.887851e+003,-2.276956e-003
3.889780e+003,-2.257278e-003
3.891708e+003,-2.048445e-003
3.893637e+003,-2.295908e-003
3.895565e+003,-2.672569e-003
3.897494e+003,-2.601400e-003
3.899422e+003,-2.190623e-003
3.901351e+003,-2.143972e-003
3.903279e+003,-2.131179e-003
3.905208e+003,-2.110274e-003
3.907136e+003,-2.352693e-003
3.909065e+003,-2.494904e-003
3.910993e+003,-2.440081e-003
3.912922e+003,-2.425155e-003
3.914850e+003,-2.356318e-003
3.916779e+003,-2.169161e-003
3.918707e+003,-2.353155e-003
3.920636e+003,-2.543790e-003
3.922564e+003,-2.274385e-003
3.924493e+003,-2.104966e-003
3.926421e+003,-2.206150e-003
3.928350e+003,-2.350288e-003
3.930278e+003,-2.540035e-003
3.932207e+003,-2.538652e-003
3.934135e+003,-2.609271e-003
3.936064e+003,-2.660318e-003
3.937992e+003,-2.507818e-003
3.939921e+003,-2.319902e-003
3.941849e+003,-2.229523e-003
3.943778e+003,-2.432668e-003
3.945706e+003,-2.356055e-003
3.947635e+003,-2.188315e-003
3.949563e+003,-2.215315e-003
3.951492e+003,-2.366336e-003
3.953420e+003,-2.444628e-003
3.955349e+003,-2.707704e-003
3.957277e+003,-2.604166e-003
3.959206e+003,-2.472369e-003
3.961134e+003,-2.502382e-003
3.963063e+003,-2.275242e-003
3.964991e+003,-2.170546e-003
3.966920e+003,-2.144829e-003
3.968848e+003,-2.132168e-003
3.970777e+003,-2.122672e-003
3.972705e+003,-2.202788e-003
3.974634e+003,-2.204139e-003
3.976562e+003,-2.226128e-003
3.978491e+003,-2.348376e-003
3.980419e+003,-2.294095e-003
3.982348e+003,-2.174139e-003
3.984276e+003,-2.102987e-003
3.986205e+003,-2.037100e-003
3.988133e+003,-1.988354e-003
3.990062e+003,-1.856503e-003
3.991990e+003,-2.053128e-003
3.993919e+003,-2.391018e-003
3.995847e+003,-2.530976e-003
3.997776e+003,-2.281702e-003
3.999704e+003,-2.087654e-003
4.001633e+003,0.000000e+000
