3.991989e+002,3.040564e-002
4.011274e+002,3.171537e-002
4.030559e+002,2.656224e-002
4.049844e+002,2.031928e-002
4.069129e+002,2.378298e-002
4.088414e+002,2.979713e-002
4.107699e+002,2.780958e-002
4.126984e+002,2.422027e-002
4.146269e+002,1.754536e-002
4.165554e+002,1.819186e-002
4.184839e+002,2.242074e-002
4.204124e+002,2.213537e-002
4.223409e+002,2.086714e-002
4.242694e+002,2.174737e-002
4.261979e+002,1.932008e-002
4.281264e+002,1.814470e-002
4.300549e+002,1.734789e-002
4.319834e+002,9.102515e-003
4.339119e+002,7.815988e-003
4.358404e+002,1.454332e-002
4.377689e+002,1.855587e-002
4.396974e+002,1.591774e-002
4.416259e+002,1.242900e-002
4.435544e+002,1.460739e-002
4.454829e+002,1.788822e-002
4.474114e+002,1.980921e-002
4.493399e+002,1.718747e-002
4.512684e+002,1.375059e-002
4.531969e+002,1.268098e-002
4.551254e+002,1.615324e-002
4.570539e+002,1.474233e-002
4.589824e+002,9.791756e-003
4.609109e+002,1.233842e-002
4.628394e+002,1.573138e-002
4.647679e+002,1.379605e-002
4.666964e+002,1.241022e-002
4.686249e+002,1.219922e-002
4.705533e+002,1.261289e-002
4.724819e+002,1.236085e-002
4.744103e+002,1.223446e-002
4.763389e+002,1.203963e-002
4.782673e+002,1.234442e-002
4.801959e+002,1.332385e-002
4.821243e+002,1.534899e-002
4.840529e+002,1.455959e-002
4.859813e+002,1.298642e-002
4.879099e+002,1.173417e-002
4.898383e+002,1.218167e-002
4.917668e+002,1.084564e-002
4.936953e+002,1.090765e-002
4.956238e+002,1.356264e-002
4.975523e+002,1.372371e-002
4.994808e+002,1.241833e-002
5.014093e+002,1.259136e-002
5.033378e+002,1.080087e-002
5.052663e+002,9.856558e-003
5.071948e+002,1.006994e-002
5.091233e+002,8.973282e-003
5.110518e+002,7.735029e-003
5.129803e+002,8.435447e-003
5.149088e+002,8.555768e-003
5.168373e+002,8.749412e-003
5.187658e+002,9.219772e-003
5.206943e+002,9.501047e-003
5.226228e+002,7.853740e-003
5.245513e+002,7.160929e-003
5.264798e+002,7.899188e-003
5.284083e+002,8.477172e-003
5.303368e+002,7.814368e-003
5.322653e+002,7.944810e-003
5.341938e+002,8.259266e-003
5.361223e+002,7.838322e-003
5.380508e+002,7.796320e-003
5.399792e+002,8.923594e-003
5.419078e+002,8.005355e-003
5.438363e+002,8.095646e-003
5.457648e+002,9.205388e-003
5.476932e+002,8.142200e-003
5.496218e+002,8.177752e-003
5.515503e+002,8.901002e-003
5.534788e+002,8.866337e-003
5.554072e+002,9.835340e-003
5.573358e+002,1.099280e-002
5.592643e+002,1.168049e-002
5.611927e+002,1.053471e-002
5.631212e+002,1.041839e-002
5.650497e+002,1.006940e-002
5.669783e+002,1.029731e-002
5.689067e+002,1.118012e-002
5.708352e+002,1.111292e-002
5.727637e+002,9.537388e-003
5.746923e+002,7.711723e-003
5.766207e+002,8.708472e-003
5.785492e+002,1.171456e-002
5.804777e+002,8.392205e-003
5.824063e+002,5.354900e-003
5.843347e+002,9.977240e-003
5.862632e+002,1.289166e-002
5.881917e+002,1.192849e-002
5.901202e+002,1.025544e-002
5.920487e+002,8.820315e-003
5.939772e+002,8.643436e-003
5.959057e+002,1.030111e-002
5.978342e+002,1.277979e-002
5.997627e+002,1.396515e-002
6.016912e+002,1.558299e-002
6.036197e+002,1.715817e-002
6.055482e+002,1.747461e-002
6.074767e+002,1.848910e-002
6.094052e+002,1.991659e-002
6.113337e+002,2.109063e-002
6.132622e+002,1.984178e-002
6.151907e+002,1.862054e-002
6.171192e+002,1.926005e-002
6.190477e+002,2.000711e-002
6.209762e+002,1.939068e-002
6.229047e+002,1.702841e-002
6.248332e+002,1.366545e-002
6.267617e+002,1.017688e-002
6.286902e+002,7.777497e-003
6.306187e+002,6.738389e-003
6.325472e+002,6.775307e-003
6.344756e+002,6.948732e-003
6.364042e+002,6.061667e-003
6.383326e+002,5.635227e-003
6.402612e+002,5.420117e-003
6.421896e+002,5.872475e-003
6.441182e+002,5.878755e-003
6.460466e+002,5.561554e-003
6.479752e+002,4.787520e-003
6.499036e+002,3.725521e-003
6.518322e+002,3.542889e-003
6.537606e+002,3.992993e-003
6.556891e+002,4.126038e-003
6.576177e+002,3.699221e-003
6.595461e+002,3.385377e-003
6.614746e+002,2.822497e-003
6.634031e+002,2.317670e-003
6.653317e+002,2.934968e-003
6.672601e+002,5.731272e-003
6.691886e+002,5.660302e-003
6.711171e+002,4.026936e-003
6.730457e+002,4.186353e-003
6.749741e+002,3.970589e-003
6.769026e+002,3.540183e-003
6.788311e+002,3.538246e-003
6.807596e+002,3.693607e-003
6.826881e+002,3.947149e-003
6.846166e+002,4.296401e-003
6.865451e+002,4.197059e-003
6.884736e+002,4.118311e-003
6.904021e+002,4.330301e-003
6.923306e+002,4.493043e-003
6.942591e+002,4.794455e-003
6.961876e+002,5.262158e-003
6.981161e+002,4.913839e-003
7.000446e+002,4.685420e-003
7.019731e+002,4.816902e-003
7.039016e+002,4.824809e-003
7.058301e+002,4.689004e-003
7.077585e+002,4.682707e-003
7.096871e+002,5.533230e-003
7.116156e+002,6.170510e-003
7.135441e+002,6.036972e-003
7.154725e+002,6.373417e-003
7.174011e+002,6.367600e-003
7.193296e+002,6.528686e-003
7.212581e+002,6.996140e-003
7.231865e+002,7.296094e-003
7.251151e+002,7.129199e-003
7.270436e+002,7.358233e-003
7.289720e+002,7.712229e-003
7.309005e+002,8.289221e-003
7.328290e+002,8.831541e-003
7.347576e+002,8.987590e-003
7.366860e+002,8.612375e-003
7.386145e+002,8.270308e-003
7.405430e+002,8.503358e-003
7.424716e+002,8.723246e-003
7.444000e+002,8.621771e-003
7.463285e+002,8.711312e-003
7.482570e+002,8.680246e-003
7.501855e+002,8.765269e-003
7.521140e+002,9.349587e-003
7.540425e+002,9.604421e-003
7.559710e+002,9.800567e-003
7.578995e+002,9.900454e-003
7.598280e+002,9.655033e-003
7.617565e+002,9.740721e-003
7.636850e+002,1.002010e-002
7.656135e+002,1.052856e-002
7.675420e+002,1.102951e-002
7.694705e+002,1.063622e-002
7.713990e+002,1.024754e-002
7.733275e+002,1.032242e-002
7.752560e+002,1.036188e-002
7.771844e+002,9.977172e-003
7.791130e+002,9.311400e-003
7.810415e+002,9.045539e-003
7.829700e+002,9.007243e-003
7.848984e+002,8.695830e-003
7.868270e+002,8.455988e-003
7.887555e+002,8.566413e-003
7.906840e+002,8.178292e-003
7.926124e+002,7.690711e-003
7.945410e+002,7.843585e-003
7.964695e+002,7.569551e-003
7.983979e+002,7.062917e-003
8.003264e+002,7.135666e-003
8.022549e+002,7.237940e-003
8.041835e+002,7.228203e-003
8.061119e+002,7.020317e-003
8.080404e+002,6.935535e-003
8.099689e+002,7.211931e-003
8.118975e+002,7.705315e-003
8.138259e+002,8.201860e-003
8.157545e+002,8.450818e-003
8.176830e+002,8.927078e-003
8.196115e+002,8.696134e-003
8.215399e+002,8.277704e-003
8.234684e+002,8.285709e-003
8.253970e+002,8.415481e-003
8.273254e+002,8.694917e-003
8.292539e+002,8.411967e-003
8.311824e+002,7.920345e-003
8.331110e+002,7.799795e-003
8.350394e+002,7.982674e-003
8.369679e+002,8.312119e-003
8.388964e+002,8.264230e-003
8.408250e+002,8.198821e-003
8.427534e+002,8.224417e-003
8.446819e+002,7.773685e-003
8.466104e+002,7.616217e-003
8.485389e+002,7.702111e-003
8.504674e+002,7.438716e-003
8.523959e+002,7.489110e-003
8.543244e+002,7.697524e-003
8.562529e+002,7.705888e-003
8.581814e+002,7.899424e-003
8.601099e+002,7.982100e-003
8.620384e+002,7.584959e-003
8.639669e+002,7.634932e-003
8.658954e+002,7.804079e-003
8.678239e+002,7.485166e-003
8.697524e+002,7.338990e-003
8.716809e+002,7.398978e-003
8.736094e+002,7.498313e-003
8.755378e+002,7.414482e-003
8.774664e+002,7.684506e-003
8.793949e+002,7.662652e-003
8.813234e+002,7.380442e-003
8.832518e+002,7.538904e-003
8.851804e+002,7.773719e-003
8.871089e+002,7.766602e-003
8.890374e+002,7.338889e-003
8.909658e+002,7.410977e-003
8.928943e+002,7.807689e-003
8.948229e+002,7.618476e-003
8.967513e+002,7.362748e-003
8.986798e+002,7.487627e-003
9.006083e+002,7.491537e-003
9.025369e+002,7.455570e-003
9.044653e+002,7.411010e-003
9.063938e+002,7.252157e-003
9.083223e+002,6.998800e-003
9.102509e+002,6.816368e-003
9.121793e+002,7.073492e-003
9.141078e+002,6.818119e-003
9.160364e+002,6.607401e-003
9.179648e+002,6.587115e-003
9.198933e+002,6.400216e-003
9.218218e+002,6.099032e-003
9.237504e+002,5.597902e-003
9.256788e+002,5.240594e-003
9.276073e+002,4.970811e-003
9.295358e+002,4.860090e-003
9.314644e+002,4.793216e-003
9.333928e+002,4.692923e-003
9.353213e+002,4.812379e-003
9.372498e+002,4.877212e-003
9.391783e+002,4.505932e-003
9.411068e+002,4.616362e-003
9.430353e+002,4.963773e-003
9.449637e+002,4.944201e-003
9.468923e+002,4.757705e-003
9.488208e+002,4.666832e-003
9.507493e+002,4.842365e-003
9.526777e+002,4.863642e-003
9.546063e+002,4.965415e-003
9.565348e+002,5.124540e-003
9.584633e+002,5.288989e-003
9.603917e+002,5.296972e-003
9.623203e+002,5.099161e-003
9.642488e+002,5.057860e-003
9.661772e+002,5.132553e-003
9.681057e+002,4.892660e-003
9.700343e+002,4.618037e-003
9.719628e+002,4.672994e-003
9.738912e+002,4.724107e-003
9.758197e+002,4.345896e-003
9.777483e+002,4.044461e-003
9.796768e+002,4.021853e-003
9.816052e+002,3.919832e-003
9.835337e+002,3.797814e-003
9.854623e+002,3.428323e-003
9.873907e+002,3.209831e-003
9.893192e+002,3.106332e-003
9.912477e+002,2.826132e-003
9.931763e+002,2.806489e-003
9.951047e+002,2.716423e-003
9.970332e+002,2.437541e-003
9.989617e+002,2.463698e-003
1.000890e+003,2.561644e-003
1.002819e+003,2.724159e-003
1.004747e+003,2.636143e-003
1.006676e+003,2.480427e-003
1.008604e+003,2.535014e-003
1.010533e+003,2.810258e-003
1.012461e+003,2.928296e-003
1.014390e+003,2.869823e-003
1.016318e+003,3.107233e-003
1.018247e+003,3.371486e-003
1.020175e+003,3.655079e-003
1.022104e+003,3.933908e-003
1.024032e+003,4.060715e-003
1.025961e+003,4.638063e-003
1.027889e+003,5.010630e-003
1.029818e+003,5.183150e-003
1.031746e+003,5.568199e-003
1.033675e+003,5.803496e-003
1.035603e+003,6.034318e-003
1.037532e+003,6.545504e-003
1.039460e+003,6.992571e-003
1.041389e+003,7.299127e-003
1.043317e+003,7.529362e-003
1.045246e+003,7.644340e-003
1.047174e+003,7.626502e-003
1.049103e+003,7.513045e-003
1.051031e+003,7.459379e-003
1.052960e+003,7.650613e-003
1.054888e+003,7.765960e-003
1.056817e+003,7.738403e-003
1.058745e+003,7.809781e-003
1.060674e+003,7.807857e-003
1.062602e+003,7.723697e-003
1.064531e+003,7.647173e-003
1.066459e+003,7.569213e-003
1.068388e+003,7.623433e-003
1.070316e+003,7.597738e-003
1.072245e+003,7.761306e-003
1.074173e+003,7.772134e-003
1.076102e+003,7.637596e-003
1.078030e+003,7.642182e-003
1.079959e+003,7.611597e-003
1.081887e+003,7.700694e-003
1.083816e+003,7.873983e-003
1.085744e+003,7.870913e-003
1.087673e+003,7.862647e-003
1.089601e+003,8.017133e-003
1.091530e+003,8.126738e-003
1.093458e+003,8.283614e-003
1.095387e+003,8.337450e-003
1.097315e+003,8.390246e-003
1.099244e+003,8.530390e-003
1.101172e+003,8.754315e-003
1.103101e+003,8.681395e-003
1.105029e+003,8.690962e-003
1.106958e+003,8.782580e-003
1.108886e+003,8.899480e-003
1.110815e+003,8.849497e-003
1.112743e+003,8.731157e-003
1.114672e+003,8.828701e-003
1.116600e+003,9.193509e-003
1.118529e+003,9.299722e-003
1.120457e+003,9.025173e-003
1.122386e+003,8.940539e-003
1.124314e+003,8.896267e-003
1.126243e+003,8.664596e-003
1.128171e+003,8.435987e-003
1.130100e+003,8.437744e-003
1.132028e+003,8.389030e-003
1.133957e+003,8.192203e-003
1.135885e+003,7.907523e-003
1.137814e+003,7.647881e-003
1.139742e+003,7.046180e-003
1.141671e+003,6.891130e-003
1.143599e+003,6.837708e-003
1.145528e+003,6.377620e-003
1.147456e+003,5.960812e-003
1.149385e+003,5.686822e-003
1.151313e+003,5.214805e-003
1.153242e+003,4.823000e-003
1.155170e+003,4.778274e-003
1.157099e+003,4.694866e-003
1.159027e+003,4.458896e-003
1.160956e+003,4.292352e-003
1.162884e+003,4.254406e-003
1.164813e+003,4.275252e-003
1.166741e+003,4.177521e-003
1.168670e+003,4.102657e-003
1.170598e+003,4.090649e-003
1.172526e+003,4.093024e-003
1.174455e+003,4.063123e-003
1.176384e+003,4.171432e-003
1.178312e+003,4.159824e-003
1.180240e+003,4.041016e-003
1.182169e+003,3.905021e-003
1.184098e+003,3.721277e-003
1.186026e+003,3.612478e-003
1.187954e+003,3.568912e-003
1.189883e+003,3.468501e-003
1.191812e+003,3.286778e-003
1.193740e+003,3.147915e-003
1.195668e+003,2.779578e-003
1.197597e+003,2.397658e-003
1.199526e+003,2.320535e-003
1.201454e+003,2.442905e-003
1.203382e+003,2.440440e-003
1.205311e+003,2.264142e-003
1.207240e+003,2.147482e-003
1.209168e+003,2.125340e-003
1.211096e+003,2.204793e-003
1.213025e+003,2.320568e-003
1.214953e+003,2.209322e-003
1.216882e+003,2.143853e-003
1.218810e+003,2.198732e-003
1.220739e+003,2.184745e-003
1.222667e+003,2.249987e-003
1.224596e+003,2.394426e-003
1.226524e+003,2.404288e-003
1.228453e+003,2.505820e-003
1.230381e+003,2.598842e-003
1.232310e+003,2.727626e-003
1.234238e+003,2.906647e-003
1.236167e+003,3.056778e-003
1.238095e+003,3.115376e-003
1.240024e+003,3.159597e-003
1.241952e+003,3.205725e-003
1.243881e+003,3.130527e-003
1.245809e+003,2.986844e-003
1.247738e+003,3.013802e-003
1.249666e+003,3.240007e-003
1.251595e+003,3.305174e-003
1.253523e+003,3.249688e-003
1.255452e+003,3.096354e-003
1.257380e+003,2.812659e-003
1.259309e+003,2.816361e-003
1.261237e+003,2.957519e-003
1.263166e+003,3.072628e-003
1.265094e+003,3.290350e-003
1.267023e+003,3.443719e-003
1.268951e+003,3.684417e-003
1.270880e+003,3.881150e-003
1.272808e+003,3.818973e-003
1.274737e+003,3.924848e-003
1.276665e+003,4.122325e-003
1.278594e+003,4.196122e-003
1.280522e+003,4.238646e-003
1.282451e+003,4.236104e-003
1.284379e+003,4.406075e-003
1.286308e+003,4.576245e-003
1.288236e+003,4.770267e-003
1.290165e+003,4.884149e-003
1.292093e+003,4.880429e-003
1.294022e+003,5.013445e-003
1.295950e+003,5.123266e-003
1.297879e+003,5.085919e-003
1.299807e+003,5.066944e-003
1.301736e+003,4.989446e-003
1.303664e+003,4.807588e-003
1.305593e+003,4.686391e-003
1.307521e+003,4.770569e-003
1.309450e+003,4.656048e-003
1.311378e+003,4.353895e-003
1.313307e+003,4.094462e-003
1.315235e+003,3.932370e-003
1.317164e+003,3.973866e-003
1.319092e+003,3.801758e-003
1.321021e+003,3.594670e-003
1.322949e+003,3.526454e-003
1.324878e+003,3.567242e-003
1.326806e+003,3.603023e-003
1.328735e+003,3.687625e-003
1.330663e+003,3.855844e-003
1.332592e+003,3.945745e-003
1.334520e+003,3.928525e-003
1.336449e+003,4.009814e-003
1.338377e+003,4.212583e-003
1.340306e+003,4.358781e-003
1.342234e+003,4.492507e-003
1.344163e+003,4.495822e-003
1.346091e+003,4.516345e-003
1.348020e+003,4.798241e-003
1.349948e+003,4.884115e-003
1.351877e+003,4.825345e-003
1.353805e+003,4.788090e-003
1.355734e+003,4.633174e-003
1.357662e+003,4.522941e-003
1.359591e+003,4.362630e-003
1.361519e+003,4.172236e-003
1.363448e+003,4.030147e-003
1.365376e+003,3.623571e-003
1.367305e+003,3.286812e-003
1.369233e+003,3.190838e-003
1.371162e+003,3.137569e-003
1.373090e+003,3.186799e-003
1.375019e+003,3.057212e-003
1.376947e+003,3.024212e-003
1.378876e+003,3.108001e-003
1.380804e+003,3.076833e-003
1.382733e+003,2.983775e-003
1.384661e+003,2.986510e-003
1.386590e+003,3.163001e-003
1.388518e+003,3.106833e-003
1.390447e+003,2.800019e-003
1.392375e+003,2.677815e-003
1.394304e+003,2.694251e-003
1.396232e+003,2.473462e-003
1.398161e+003,2.419315e-003
1.400089e+003,2.395193e-003
1.402018e+003,2.051295e-003
1.403946e+003,1.714454e-003
1.405875e+003,1.588598e-003
1.407803e+003,1.408291e-003
1.409732e+003,1.254442e-003
1.411660e+003,1.259294e-003
1.413589e+003,1.314161e-003
1.415517e+003,1.455696e-003
1.417446e+003,1.757834e-003
1.419374e+003,2.083754e-003
1.421303e+003,2.294953e-003
1.423231e+003,2.683416e-003
1.425160e+003,3.119781e-003
1.427088e+003,3.399970e-003
1.429017e+003,3.834516e-003
1.430945e+003,4.242695e-003
1.432874e+003,4.629088e-003
1.434802e+003,5.274064e-003
1.436731e+003,5.859645e-003
1.438659e+003,5.999377e-003
1.440588e+003,6.205095e-003
1.442516e+003,6.611371e-003
1.444445e+003,6.970685e-003
1.446373e+003,7.313683e-003
1.448302e+003,7.647342e-003
1.450230e+003,7.826649e-003
1.452159e+003,8.027326e-003
1.454087e+003,8.433454e-003
1.456016e+003,9.052983e-003
1.457944e+003,9.121700e-003
1.459873e+003,8.664799e-003
1.461801e+003,8.313538e-003
1.463730e+003,8.128595e-003
1.465658e+003,7.833868e-003
1.467587e+003,7.345831e-003
1.469515e+003,7.073088e-003
1.471444e+003,6.899209e-003
1.473372e+003,6.545941e-003
1.475301e+003,6.006332e-003
1.477229e+003,5.337458e-003
1.479158e+003,4.747689e-003
1.481086e+003,4.368320e-003
1.483015e+003,3.844277e-003
1.484943e+003,3.350149e-003
1.486872e+003,3.175551e-003
1.488800e+003,3.032286e-003
1.490729e+003,2.869523e-003
1.492657e+003,2.543946e-003
1.494586e+003,2.369739e-003
1.496514e+003,2.313640e-003
1.498443e+003,2.107493e-003
1.500371e+003,1.847635e-003
1.502300e+003,1.771242e-003
1.504228e+003,2.072568e-003
1.506157e+003,2.524416e-003
1.508085e+003,2.206591e-003
1.510014e+003,1.742864e-003
1.511942e+003,1.583044e-003
1.513871e+003,1.525350e-003
1.515799e+003,1.729125e-003
1.517728e+003,1.910397e-003
1.519656e+003,2.056921e-003
1.521585e+003,2.251919e-003
1.523513e+003,2.209322e-003
1.525442e+003,2.350216e-003
1.527370e+003,2.314172e-003
1.529299e+003,2.272003e-003
1.531227e+003,2.296451e-003
1.533156e+003,2.643611e-003
1.535084e+003,2.861118e-003
1.537013e+003,3.022610e-003
1.538941e+003,3.584547e-003
1.540870e+003,3.873361e-003
1.542798e+003,3.851397e-003
1.544727e+003,3.747779e-003
1.546655e+003,3.432197e-003
1.548584e+003,3.455008e-003
1.550512e+003,3.566039e-003
1.552441e+003,3.608770e-003
1.554369e+003,3.861426e-003
1.556298e+003,4.195353e-003
1.558226e+003,4.906734e-003
1.560155e+003,4.987670e-003
1.562083e+003,4.640709e-003
1.564012e+003,4.820386e-003
1.565940e+003,4.920407e-003
1.567869e+003,5.025177e-003
1.569797e+003,5.368520e-003
1.571726e+003,5.251292e-003
1.573654e+003,5.180702e-003
1.575583e+003,5.528061e-003
1.577511e+003,5.387072e-003
1.579440e+003,5.002652e-003
1.581368e+003,4.843069e-003
1.583297e+003,4.708464e-003
1.585225e+003,4.775527e-003
1.587154e+003,4.781021e-003
1.589082e+003,4.642182e-003
1.591010e+003,4.495521e-003
1.592939e+003,4.433890e-003
1.594868e+003,4.542259e-003
1.596796e+003,4.606015e-003
1.598724e+003,4.554983e-003
1.600653e+003,4.474664e-003
1.602582e+003,4.427028e-003
1.604510e+003,4.346532e-003
1.606438e+003,4.276591e-003
1.608367e+003,4.205524e-003
1.610296e+003,4.030047e-003
1.612224e+003,3.818471e-003
1.614152e+003,3.708311e-003
1.616081e+003,3.666273e-003
1.618010e+003,3.482663e-003
1.619938e+003,3.255630e-003
1.621866e+003,3.291352e-003
1.623795e+003,3.210799e-003
1.625724e+003,3.046801e-003
1.627652e+003,2.865321e-003
1.629580e+003,2.707688e-003
1.631509e+003,2.528049e-003
1.633438e+003,2.634877e-003
1.635366e+003,2.914286e-003
1.637294e+003,2.633010e-003
1.639223e+003,2.195102e-003
1.641151e+003,1.943013e-003
1.643080e+003,1.691768e-003
1.645008e+003,1.817223e-003
1.646937e+003,1.987913e-003
1.648865e+003,1.478436e-003
1.650794e+003,1.416202e-003
1.652722e+003,2.079559e-003
1.654651e+003,1.630202e-003
1.656579e+003,1.010603e-003
1.658508e+003,8.435831e-004
1.660436e+003,8.343872e-004
1.662365e+003,1.011766e-003
1.664293e+003,1.010437e-003
1.666222e+003,9.125418e-004
1.668150e+003,1.110647e-003
1.670079e+003,1.195895e-003
1.672007e+003,1.048931e-003
1.673936e+003,1.071716e-003
1.675864e+003,9.304057e-004
1.677793e+003,4.504589e-004
1.679721e+003,2.075349e-004
1.681650e+003,1.852919e-004
1.683578e+003,5.022047e-004
1.685507e+003,2.155904e-004
1.687435e+003,-3.065804e-004
1.689364e+003,-5.712857e-004
1.691292e+003,-7.618120e-004
1.693221e+003,-7.977310e-004
1.695149e+003,-5.980220e-004
1.697078e+003,-6.154923e-004
1.699006e+003,-3.719691e-004
1.700935e+003,-2.250543e-004
1.702863e+003,-6.645577e-004
1.704792e+003,-6.123490e-004
1.706720e+003,-5.980220e-004
1.708649e+003,-8.154248e-004
1.710577e+003,-1.042173e-003
1.712506e+003,-9.830338e-004
1.714434e+003,-7.523852e-004
1.716363e+003,-5.644690e-004
1.718291e+003,-5.603657e-004
1.720220e+003,-7.971688e-004
1.722148e+003,-9.849843e-004
1.724077e+003,-1.058633e-003
1.726005e+003,-1.098659e-003
1.727934e+003,-1.091223e-003
1.729862e+003,-1.088447e-003
1.731791e+003,-9.453117e-004
1.733719e+003,-6.836795e-004
1.735648e+003,-9.490808e-004
1.737576e+003,-1.242338e-003
1.739505e+003,-1.213031e-003
1.741433e+003,-1.362783e-003
1.743362e+003,-1.320304e-003
1.745290e+003,-1.166936e-003
1.747219e+003,-1.023662e-003
1.749147e+003,-8.749832e-004
1.751076e+003,-7.608528e-004
1.753004e+003,-9.071896e-004
1.754933e+003,-1.003695e-003
1.756861e+003,-8.825886e-004
1.758790e+003,-9.307973e-004
1.760718e+003,-9.542053e-004
1.762647e+003,-9.809511e-004
1.764575e+003,-1.157485e-003
1.766504e+003,-1.057444e-003
1.768432e+003,-9.376082e-004
1.770361e+003,-9.479567e-004
1.772289e+003,-8.652944e-004
1.774218e+003,-9.538747e-004
1.776146e+003,-1.142746e-003
1.778075e+003,-1.228726e-003
1.780003e+003,-1.241314e-003
1.781932e+003,-1.236887e-003
1.783860e+003,-1.260642e-003
1.785789e+003,-1.254034e-003
1.787717e+003,-1.303589e-003
1.789646e+003,-1.239266e-003
1.791574e+003,-9.754632e-004
1.793503e+003,-9.941416e-004
1.795431e+003,-1.144630e-003
1.797360e+003,-1.076515e-003
1.799288e+003,-1.105666e-003
1.801217e+003,-1.158542e-003
1.803145e+003,-1.216897e-003
1.805074e+003,-1.179823e-003
1.807002e+003,-1.085175e-003
1.808931e+003,-1.095817e-003
1.810859e+003,-1.029050e-003
1.812788e+003,-1.011827e-003
1.814716e+003,-1.097536e-003
1.816645e+003,-1.123744e-003
1.818573e+003,-1.142184e-003
1.820502e+003,-1.132964e-003
1.822430e+003,-1.070037e-003
1.824359e+003,-1.011596e-003
1.826287e+003,-1.013381e-003
1.828216e+003,-9.174726e-004
1.830144e+003,-8.727346e-004
1.832073e+003,-1.150050e-003
1.834001e+003,-1.229089e-003
1.835930e+003,-1.218252e-003
1.837858e+003,-1.280035e-003
1.839787e+003,-1.304151e-003
1.841715e+003,-1.244321e-003
1.843644e+003,-1.059625e-003
1.845572e+003,-1.143110e-003
1.847501e+003,-1.306100e-003
1.849429e+003,-1.320304e-003
1.851358e+003,-1.273427e-003
1.853286e+003,-1.207150e-003
1.855215e+003,-1.164391e-003
1.857143e+003,-1.156791e-003
1.859072e+003,-1.186498e-003
1.861000e+003,-1.247988e-003
1.862929e+003,-1.292985e-003
1.864857e+003,-1.250499e-003
1.866786e+003,-1.248748e-003
1.868714e+003,-1.177345e-003
1.870643e+003,-1.207778e-003
1.872571e+003,-1.250466e-003
1.874500e+003,-1.216996e-003
1.876428e+003,-1.203317e-003
1.878357e+003,-1.148695e-003
1.880285e+003,-1.155733e-003
1.882214e+003,-1.188084e-003
1.884142e+003,-1.160922e-003
1.886071e+003,-1.160426e-003
1.887999e+003,-1.127577e-003
1.889928e+003,-1.115647e-003
1.891856e+003,-1.175296e-003
1.893785e+003,-1.181442e-003
1.895713e+003,-1.180616e-003
1.897642e+003,-1.140069e-003
1.899570e+003,-1.057642e-003
1.901499e+003,-1.078201e-003
1.903427e+003,-1.140730e-003
1.905356e+003,-1.159732e-003
1.907284e+003,-1.222746e-003
1.909213e+003,-1.204407e-003
1.911141e+003,-1.201004e-003
1.913070e+003,-1.298303e-003
1.914998e+003,-1.251193e-003
1.916927e+003,-1.062864e-003
1.918855e+003,-9.793643e-004
1.920784e+003,-1.098395e-003
1.922712e+003,-1.220400e-003
1.924641e+003,-1.262162e-003
1.926569e+003,-1.153255e-003
1.928498e+003,-1.181277e-003
1.930426e+003,-1.244122e-003
1.932355e+003,-1.288360e-003
1.934283e+003,-1.265796e-003
1.936212e+003,-1.315746e-003
1.938140e+003,-1.343824e-003
1.940069e+003,-1.177675e-003
1.941997e+003,-1.034669e-003
1.943926e+003,-1.090397e-003
1.945854e+003,-1.224893e-003
1.947783e+003,-1.238704e-003
1.949711e+003,-1.272767e-003
1.951640e+003,-1.268769e-003
1.953568e+003,-1.218979e-003
1.955497e+003,-1.232691e-003
1.957425e+003,-1.324632e-003
1.959354e+003,-1.285519e-003
1.961282e+003,-1.180022e-003
1.963211e+003,-1.242305e-003
1.965139e+003,-1.313962e-003
1.967068e+003,-1.288756e-003
1.968996e+003,-1.364170e-003
1.970925e+003,-1.379860e-003
1.972853e+003,-1.348844e-003
1.974782e+003,-1.375929e-003
1.976710e+003,-1.371239e-003
1.978639e+003,-1.314622e-003
1.980567e+003,-1.329289e-003
1.982496e+003,-1.393170e-003
1.984424e+003,-1.365095e-003
1.986353e+003,-1.302136e-003
1.988281e+003,-1.395119e-003
1.990210e+003,-1.478572e-003
1.992138e+003,-1.350892e-003
1.994067e+003,-1.373452e-003
1.995995e+003,-1.497724e-003
1.997924e+003,-1.513903e-003
1.999852e+003,-1.502214e-003
2.001781e+003,-1.495710e-003
2.003709e+003,-1.468665e-003
2.005638e+003,-1.465198e-003
2.007566e+003,-1.463184e-003
2.009495e+003,-1.403706e-003
2.011423e+003,-1.443237e-003
2.013352e+003,-1.434981e-003
2.015280e+003,-1.409750e-003
2.017208e+003,-1.404465e-003
2.019137e+003,-1.325259e-003
2.021066e+003,-1.370479e-003
2.022994e+003,-1.404829e-003
2.024922e+003,-1.350133e-003
2.026851e+003,-1.294141e-003
2.028780e+003,-1.271214e-003
2.030708e+003,-1.258032e-003
2.032636e+003,-1.252878e-003
2.034565e+003,-1.321593e-003
2.036494e+003,-1.374641e-003
2.038422e+003,-1.400799e-003
2.040350e+003,-1.399148e-003
2.042279e+003,-1.324632e-003
2.044208e+003,-1.252316e-003
2.046136e+003,-1.341709e-003
2.048064e+003,-1.395548e-003
2.049993e+003,-1.284362e-003
2.051921e+003,-1.300219e-003
2.053850e+003,-1.328133e-003
2.055778e+003,-1.347391e-003
2.057707e+003,-1.306992e-003
2.059635e+003,-1.307355e-003
2.061564e+003,-1.316076e-003
2.063492e+003,-1.351718e-003
2.065421e+003,-1.374542e-003
2.067349e+003,-1.312244e-003
2.069278e+003,-1.352907e-003
2.071206e+003,-1.296387e-003
2.073135e+003,-1.177510e-003
2.075063e+003,-1.124107e-003
2.076992e+003,-1.177444e-003
2.078920e+003,-1.241116e-003
2.080849e+003,-1.213560e-003
2.082777e+003,-1.202359e-003
2.084706e+003,-1.197039e-003
2.086634e+003,-1.205068e-003
2.088563e+003,-1.225158e-003
2.090491e+003,-1.246964e-003
2.092420e+003,-1.283966e-003
2.094348e+003,-1.184185e-003
2.096277e+003,-1.111416e-003
2.098205e+003,-1.196444e-003
2.100134e+003,-1.240752e-003
2.102062e+003,-1.145753e-003
2.103991e+003,-1.156130e-003
2.105919e+003,-1.205993e-003
2.107848e+003,-1.133823e-003
2.109776e+003,-1.126949e-003
2.111705e+003,-1.152429e-003
2.113633e+003,-1.112507e-003
2.115562e+003,-1.091884e-003
2.117490e+003,-1.092975e-003
2.119419e+003,-1.023364e-003
2.121347e+003,-1.065509e-003
2.123276e+003,-1.123909e-003
2.125204e+003,-1.035198e-003
2.127133e+003,-1.006373e-003
2.129061e+003,-9.901415e-004
2.130990e+003,-1.009414e-003
2.132918e+003,-1.099056e-003
2.134847e+003,-1.094528e-003
2.136775e+003,-1.016786e-003
2.138704e+003,-9.711985e-004
2.140632e+003,-9.615779e-004
2.142561e+003,-1.050800e-003
2.144489e+003,-1.151008e-003
2.146418e+003,-1.102427e-003
2.148346e+003,-1.015728e-003
2.150275e+003,-9.645864e-004
2.152203e+003,-9.210766e-004
2.154132e+003,-9.317230e-004
2.156060e+003,-9.761906e-004
2.157989e+003,-9.574122e-004
2.159917e+003,-9.483534e-004
2.161846e+003,-1.015464e-003
2.163774e+003,-1.004985e-003
2.165703e+003,-9.391622e-004
2.167631e+003,-9.194895e-004
2.169560e+003,-8.605656e-004
2.171488e+003,-9.058339e-004
2.173417e+003,-1.000687e-003
2.175345e+003,-9.043791e-004
2.177274e+003,-7.905210e-004
2.179202e+003,-7.852291e-004
2.181131e+003,-8.478671e-004
2.183059e+003,-9.456093e-004
2.184988e+003,-9.196218e-004
2.186916e+003,-8.299762e-004
2.188845e+003,-8.606978e-004
2.190773e+003,-9.668015e-004
2.192702e+003,-1.068021e-003
2.194630e+003,-1.063658e-003
2.196559e+003,-9.415757e-004
2.198487e+003,-8.916488e-004
2.200416e+003,-9.488824e-004
2.202344e+003,-9.569164e-004
2.204273e+003,-1.007497e-003
2.206201e+003,-1.047693e-003
2.208130e+003,-1.052849e-003
2.210058e+003,-1.060286e-003
2.211987e+003,-1.060352e-003
2.213915e+003,-1.005811e-003
2.215844e+003,-9.978440e-004
2.217772e+003,-1.040255e-003
2.219701e+003,-9.919928e-004
2.221629e+003,-9.946044e-004
2.223558e+003,-1.044883e-003
2.225486e+003,-1.028719e-003
2.227415e+003,-1.051659e-003
2.229343e+003,-1.026967e-003
2.231272e+003,-1.001547e-003
2.233200e+003,-9.586355e-004
2.235129e+003,-9.861744e-004
2.237057e+003,-1.053742e-003
2.238986e+003,-1.011728e-003
2.240914e+003,-1.046701e-003
2.242843e+003,-1.038041e-003
2.244771e+003,-9.820421e-004
2.246700e+003,-9.731490e-004
2.248628e+003,-9.997614e-004
2.250557e+003,-1.132006e-003
2.252485e+003,-1.189736e-003
2.254414e+003,-1.122191e-003
2.256342e+003,-1.066864e-003
2.258271e+003,-1.062369e-003
2.260199e+003,-1.041280e-003
2.262128e+003,-1.071689e-003
2.264056e+003,-1.062236e-003
2.265985e+003,-1.016951e-003
2.267913e+003,-1.079357e-003
2.269842e+003,-1.102493e-003
2.271770e+003,-1.037611e-003
2.273699e+003,-1.137426e-003
2.275627e+003,-1.267910e-003
2.277556e+003,-1.241843e-003
2.279484e+003,-1.207183e-003
2.281413e+003,-1.179889e-003
2.283341e+003,-1.285981e-003
2.285270e+003,-1.275839e-003
2.287198e+003,-1.178039e-003
2.289127e+003,-1.068748e-003
2.291055e+003,-1.020224e-003
2.292984e+003,-1.080679e-003
2.294912e+003,-1.146514e-003
2.296841e+003,-1.040156e-003
2.298769e+003,-8.437334e-004
2.300698e+003,-7.008818e-004
2.302626e+003,-6.175768e-004
2.304555e+003,-6.293556e-004
2.306483e+003,-5.595384e-004
2.308412e+003,-4.453250e-004
2.310340e+003,-2.662829e-004
2.312269e+003,5.765706e-005
2.314197e+003,3.573982e-004
2.316125e+003,6.951117e-004
2.318054e+003,1.022228e-003
2.319983e+003,1.277637e-003
2.321911e+003,1.630834e-003
2.323840e+003,2.026360e-003
2.325768e+003,2.228505e-003
2.327697e+003,2.547246e-003
2.329625e+003,2.937537e-003
2.331553e+003,3.070893e-003
2.333482e+003,3.087144e-003
2.335411e+003,3.151153e-003
2.337339e+003,3.354189e-003
2.339268e+003,3.482797e-003
2.341196e+003,3.363706e-003
2.343125e+003,3.093284e-003
2.345053e+003,2.450103e-003
2.346981e+003,1.371793e-003
2.348910e+003,6.804101e-004
2.350839e+003,1.361688e-003
2.352767e+003,2.659012e-003
2.354696e+003,3.748381e-003
2.356624e+003,4.536400e-003
2.358552e+003,4.840791e-003
2.360481e+003,4.893230e-003
2.362409e+003,4.940682e-003
2.364338e+003,4.837239e-003
2.366267e+003,4.535831e-003
2.368195e+003,4.039845e-003
2.370124e+003,3.289082e-003
2.372052e+003,2.501821e-003
2.373980e+003,1.828669e-003
2.375909e+003,1.038004e-003
2.377838e+003,2.821617e-004
2.379766e+003,-2.819454e-004
2.381695e+003,-5.914042e-004
2.383623e+003,-7.017088e-004
2.385552e+003,-9.303344e-004
2.387480e+003,-1.032091e-003
2.389408e+003,-9.294086e-004
2.391337e+003,-8.661541e-004
2.393266e+003,-8.983611e-004
2.395194e+003,-8.729661e-004
2.397123e+003,-7.868498e-004
2.399051e+003,-7.594636e-004
2.400979e+003,-8.580855e-004
2.402908e+003,-9.258378e-004
2.404836e+003,-9.523208e-004
2.406765e+003,-1.013447e-003
2.408694e+003,-9.996953e-004
2.410622e+003,-9.056355e-004
2.412551e+003,-9.606523e-004
2.414479e+003,-9.544037e-004
2.416407e+003,-8.990225e-004
2.418336e+003,-9.146291e-004
2.420264e+003,-9.795626e-004
2.422193e+003,-9.857446e-004
2.424122e+003,-9.053710e-004
2.426050e+003,-8.104640e-004
2.427979e+003,-8.438326e-004
2.429907e+003,-9.141001e-004
2.431835e+003,-8.870857e-004
2.433764e+003,-7.775889e-004
2.435692e+003,-7.260223e-004
2.437621e+003,-7.240045e-004
2.439550e+003,-7.863867e-004
2.441478e+003,-7.489452e-004
2.443406e+003,-6.794780e-004
2.445335e+003,-6.973752e-004
2.447263e+003,-6.729278e-004
2.449192e+003,-6.118196e-004
2.451121e+003,-6.289916e-004
2.453049e+003,-6.353111e-004
2.454978e+003,-6.650209e-004
2.456906e+003,-6.842419e-004
2.458834e+003,-6.523498e-004
2.460763e+003,-6.788164e-004
2.462691e+003,-8.171115e-004
2.464620e+003,-7.718669e-004
2.466549e+003,-6.370646e-004
2.468477e+003,-6.491406e-004
2.470406e+003,-6.826870e-004
2.472334e+003,-6.713397e-004
2.474262e+003,-6.798420e-004
2.476191e+003,-6.789818e-004
2.478119e+003,-6.258485e-004
2.480048e+003,-6.319363e-004
2.481977e+003,-5.282328e-004
2.483905e+003,-5.423306e-004
2.485833e+003,-6.251537e-004
2.487762e+003,-6.328627e-004
2.489690e+003,-6.495707e-004
2.491619e+003,-5.750580e-004
2.493547e+003,-4.593924e-004
2.495476e+003,-4.466821e-004
2.497405e+003,-4.750479e-004
2.499333e+003,-5.416687e-004
2.501261e+003,-5.717489e-004
2.503190e+003,-5.795251e-004
2.505118e+003,-5.452757e-004
2.507047e+003,-5.054637e-004
2.508975e+003,-5.623843e-004
2.510904e+003,-5.989484e-004
2.512833e+003,-4.528718e-004
2.514761e+003,-3.830593e-004
2.516689e+003,-3.800468e-004
2.518618e+003,-2.813825e-004
2.520546e+003,-2.715148e-004
2.522475e+003,-3.897133e-004
2.524403e+003,-4.833885e-004
2.526332e+003,-4.891143e-004
2.528260e+003,-3.685261e-004
2.530189e+003,-3.305519e-004
2.532117e+003,-4.737571e-004
2.534046e+003,-6.205215e-004
2.535974e+003,-5.453420e-004
2.537903e+003,-4.559831e-004
2.539831e+003,-3.828938e-004
2.541760e+003,-4.178180e-004
2.543688e+003,-3.867339e-004
2.545617e+003,-3.752796e-004
2.547545e+003,-3.890844e-004
2.549474e+003,-3.922955e-004
2.551402e+003,-4.721022e-004
2.553331e+003,-5.316415e-004
2.555259e+003,-4.757760e-004
2.557188e+003,-4.595909e-004
2.559116e+003,-4.917620e-004
2.561045e+003,-4.731944e-004
2.562973e+003,-5.118180e-004
2.564902e+003,-3.648844e-004
2.566830e+003,-2.649252e-004
2.568759e+003,-3.842842e-004
2.570687e+003,-3.840194e-004
2.572616e+003,-2.484342e-004
2.574544e+003,-1.716335e-004
2.576473e+003,-2.229349e-004
2.578401e+003,-2.463811e-004
2.580330e+003,-2.592958e-004
2.582258e+003,-2.428046e-004
2.584187e+003,-1.756743e-004
2.586115e+003,-2.282667e-004
2.588044e+003,-2.880050e-004
2.589972e+003,-2.141256e-004
2.591901e+003,-1.190012e-004
2.593829e+003,-1.434467e-004
2.595758e+003,-2.331679e-004
2.597686e+003,-2.036603e-004
2.599615e+003,-1.917706e-004
2.601543e+003,-2.031635e-004
2.603472e+003,-2.347244e-004
2.605400e+003,-2.308497e-004
2.607329e+003,-2.094229e-004
2.609257e+003,-1.548078e-004
2.611186e+003,-6.808512e-005
2.613114e+003,-4.804170e-005
2.615043e+003,-9.117531e-005
2.616971e+003,-1.152249e-004
2.618900e+003,-3.707541e-005
2.620828e+003,-1.216002e-005
2.622757e+003,7.800453e-005
2.624685e+003,1.898996e-004
2.626614e+003,2.119770e-004
2.628542e+003,1.608293e-004
2.630471e+003,1.688507e-004
2.632399e+003,1.478693e-004
2.634328e+003,1.034236e-004
2.636256e+003,1.693480e-004
2.638185e+003,2.708890e-004
2.640113e+003,2.969494e-004
2.642042e+003,3.220165e-004
2.643970e+003,4.530460e-004
2.645899e+003,4.741418e-004
2.647827e+003,4.981909e-004
2.649756e+003,5.878642e-004
2.651684e+003,6.898682e-004
2.653613e+003,6.539949e-004
2.655541e+003,6.365404e-004
2.657470e+003,6.262871e-004
2.659398e+003,6.551563e-004
2.661327e+003,7.111414e-004
2.663255e+003,7.024793e-004
2.665184e+003,6.730760e-004
2.667112e+003,8.535095e-004
2.669041e+003,9.344568e-004
2.670969e+003,9.643759e-004
2.672898e+003,9.368808e-004
2.674826e+003,9.242628e-004
2.676755e+003,9.684272e-004
2.678683e+003,9.964225e-004
2.680612e+003,1.012563e-003
2.682540e+003,1.032955e-003
2.684469e+003,1.025349e-003
2.686397e+003,1.089421e-003
2.688326e+003,1.162173e-003
2.690254e+003,1.291263e-003
2.692183e+003,1.312366e-003
2.694111e+003,1.250953e-003
2.696040e+003,1.135263e-003
2.697968e+003,1.210515e-003
2.699897e+003,1.332573e-003
2.701825e+003,1.388379e-003
2.703754e+003,1.385953e-003
2.705682e+003,1.495226e-003
2.707611e+003,1.622819e-003
2.709539e+003,1.711161e-003
2.711468e+003,1.702280e-003
2.713396e+003,1.774436e-003
2.715325e+003,1.926571e-003
2.717253e+003,1.956426e-003
2.719182e+003,2.026194e-003
2.721110e+003,2.093310e-003
2.723039e+003,2.163599e-003
2.724967e+003,2.291155e-003
2.726896e+003,2.364242e-003
2.728824e+003,2.418049e-003
2.730753e+003,2.509586e-003
2.732681e+003,2.577810e-003
2.734610e+003,2.576776e-003
2.736538e+003,2.609742e-003
2.738467e+003,2.716890e-003
2.740395e+003,2.860618e-003
2.742324e+003,2.985276e-003
2.744252e+003,3.089713e-003
2.746181e+003,3.150919e-003
2.748109e+003,3.159964e-003
2.750038e+003,3.242711e-003
2.751966e+003,3.310215e-003
2.753895e+003,3.490913e-003
2.755823e+003,3.704568e-003
2.757752e+003,3.824187e-003
2.759680e+003,3.978079e-003
2.761609e+003,4.135538e-003
2.763537e+003,4.391213e-003
2.765466e+003,4.647976e-003
2.767394e+003,4.948021e-003
2.769323e+003,5.249213e-003
2.771251e+003,5.625090e-003
2.773180e+003,6.082836e-003
2.775108e+003,6.605248e-003
2.777037e+003,7.180164e-003
2.778965e+003,7.602223e-003
2.780894e+003,8.170594e-003
2.782822e+003,8.948826e-003
2.784750e+003,9.753802e-003
2.786679e+003,1.046611e-002
2.788608e+003,1.112587e-002
2.790536e+003,1.184962e-002
2.792465e+003,1.262882e-002
2.794393e+003,1.344345e-002
2.796322e+003,1.424404e-002
2.798250e+003,1.492647e-002
2.800178e+003,1.551077e-002
2.802107e+003,1.615534e-002
2.804036e+003,1.674466e-002
2.805964e+003,1.717454e-002
2.807893e+003,1.746961e-002
2.809821e+003,1.768714e-002
2.811750e+003,1.788342e-002
2.813678e+003,1.789727e-002
2.815606e+003,1.772953e-002
2.817535e+003,1.742594e-002
2.819464e+003,1.708051e-002
2.821392e+003,1.681554e-002
2.823321e+003,1.645092e-002
2.825249e+003,1.598600e-002
2.827177e+003,1.540237e-002
2.829106e+003,1.471394e-002
2.831034e+003,1.406453e-002
2.832963e+003,1.351909e-002
2.834892e+003,1.308691e-002
2.836820e+003,1.252649e-002
2.838749e+003,1.180948e-002
2.840677e+003,1.104769e-002
2.842605e+003,1.049007e-002
2.844534e+003,9.771761e-003
2.846462e+003,8.824068e-003
2.848391e+003,8.052911e-003
2.850320e+003,7.561863e-003
2.852248e+003,7.404876e-003
2.854177e+003,7.393013e-003
2.856105e+003,7.384890e-003
2.858033e+003,7.360120e-003
2.859962e+003,7.405887e-003
2.861890e+003,7.311325e-003
2.863819e+003,7.247204e-003
2.865748e+003,7.333498e-003
2.867676e+003,7.459379e-003
2.869604e+003,7.599526e-003
2.871533e+003,7.627648e-003
2.873461e+003,7.685855e-003
2.875390e+003,7.881372e-003
2.877319e+003,8.053181e-003
2.879247e+003,8.183863e-003
2.881176e+003,8.215569e-003
2.883104e+003,8.222053e-003
2.885032e+003,8.336336e-003
2.886961e+003,8.298407e-003
2.888889e+003,8.175017e-003
2.890818e+003,8.053350e-003
2.892747e+003,7.854044e-003
2.894675e+003,7.701976e-003
2.896604e+003,7.672803e-003
2.898532e+003,7.634021e-003
2.900460e+003,7.597975e-003
2.902389e+003,7.489919e-003
2.904317e+003,7.359446e-003
2.906246e+003,7.262265e-003
2.908175e+003,7.218467e-003
2.910103e+003,7.201387e-003
2.912031e+003,6.981223e-003
2.913960e+003,6.614264e-003
2.915888e+003,6.423250e-003
2.917817e+003,6.369449e-003
2.919745e+003,6.605584e-003
2.921674e+003,7.006747e-003
2.923603e+003,7.446637e-003
2.925531e+003,7.757359e-003
2.927459e+003,7.972786e-003
2.929388e+003,8.279528e-003
2.931316e+003,8.641712e-003
2.933245e+003,8.899852e-003
2.935173e+003,9.067564e-003
2.937102e+003,9.219739e-003
2.939031e+003,9.370476e-003
2.940959e+003,9.390384e-003
2.942887e+003,9.298333e-003
2.944816e+003,9.204880e-003
2.946744e+003,9.006296e-003
2.948673e+003,8.682444e-003
2.950601e+003,8.143381e-003
2.952530e+003,7.525081e-003
2.954458e+003,6.948766e-003
2.956387e+003,6.388716e-003
2.958315e+003,5.823410e-003
2.960244e+003,5.057558e-003
2.962172e+003,4.285124e-003
2.964101e+003,3.708411e-003
2.966029e+003,3.285443e-003
2.967958e+003,2.875827e-003
2.969886e+003,2.432343e-003
2.971815e+003,2.067807e-003
2.973743e+003,1.685947e-003
2.975672e+003,1.308045e-003
2.977600e+003,1.022792e-003
2.979529e+003,9.068971e-004
2.981457e+003,7.671669e-004
2.983386e+003,4.639254e-004
2.985314e+003,1.896675e-004
2.987243e+003,-3.770490e-005
2.989171e+003,-1.471233e-004
2.991100e+003,-3.492249e-004
2.993028e+003,-4.283444e-004
2.994957e+003,-3.835228e-004
2.996885e+003,-4.669389e-004
2.998814e+003,-5.439852e-004
3.000742e+003,-6.176099e-004
3.002671e+003,-6.847050e-004
3.004599e+003,-7.334980e-004
3.006528e+003,-7.677325e-004
3.008456e+003,-7.661118e-004
3.010385e+003,-7.594636e-004
3.012313e+003,-8.874825e-004
3.014242e+003,-9.547674e-004
3.016170e+003,-9.708349e-004
3.018099e+003,-9.473285e-004
3.020027e+003,-9.835958e-004
3.021956e+003,-1.013910e-003
3.023884e+003,-1.113829e-003
3.025813e+003,-1.139508e-003
3.027741e+003,-1.200343e-003
3.029670e+003,-1.290507e-003
3.031598e+003,-1.258858e-003
3.033527e+003,-1.273725e-003
3.035455e+003,-1.259122e-003
3.037384e+003,-1.212866e-003
3.039312e+003,-1.172289e-003
3.041241e+003,-1.251589e-003
3.043169e+003,-1.437029e-003
3.045098e+003,-1.419591e-003
3.047026e+003,-1.330313e-003
3.048955e+003,-1.280563e-003
3.050883e+003,-1.333716e-003
3.052812e+003,-1.410509e-003
3.054740e+003,-1.561051e-003
3.056669e+003,-1.511757e-003
3.058597e+003,-1.511295e-003
3.060526e+003,-1.652428e-003
3.062454e+003,-1.543619e-003
3.064383e+003,-1.500795e-003
3.066311e+003,-1.543124e-003
3.068240e+003,-1.373056e-003
3.070168e+003,-1.347094e-003
3.072097e+003,-1.618824e-003
3.074025e+003,-1.696921e-003
3.075954e+003,-1.667842e-003
3.077882e+003,-1.702498e-003
3.079811e+003,-1.644374e-003
3.081739e+003,-1.686953e-003
3.083668e+003,-1.781801e-003
3.085596e+003,-1.806450e-003
3.087525e+003,-1.842645e-003
3.089453e+003,-1.834166e-003
3.091382e+003,-1.723621e-003
3.093310e+003,-1.682992e-003
3.095239e+003,-1.686656e-003
3.097167e+003,-1.767776e-003
3.099096e+003,-1.805097e-003
3.101024e+003,-1.787773e-003
3.102953e+003,-1.777412e-003
3.104881e+003,-1.856602e-003
3.106810e+003,-1.769954e-003
3.108738e+003,-1.734610e-003
3.110667e+003,-1.757447e-003
3.112595e+003,-1.797739e-003
3.114524e+003,-1.921955e-003
3.116452e+003,-2.020412e-003
3.118381e+003,-1.967179e-003
3.120309e+003,-1.912026e-003
3.122238e+003,-1.846869e-003
3.124166e+003,-1.783814e-003
3.126095e+003,-1.770416e-003
3.128023e+003,-1.820209e-003
3.129952e+003,-1.884446e-003
3.131880e+003,-1.970147e-003
3.133809e+003,-2.015300e-003
3.135737e+003,-1.960417e-003
3.137666e+003,-1.780778e-003
3.139594e+003,-1.780151e-003
3.141523e+003,-1.883556e-003
3.143451e+003,-1.748537e-003
3.145380e+003,-1.799784e-003
3.147308e+003,-2.033341e-003
3.149237e+003,-1.933369e-003
3.151165e+003,-1.719264e-003
3.153094e+003,-1.635494e-003
3.155022e+003,-1.542199e-003
3.156951e+003,-1.554448e-003
3.158879e+003,-1.607732e-003
3.160808e+003,-1.551840e-003
3.162736e+003,-1.470151e-003
3.164665e+003,-1.488115e-003
3.166593e+003,-1.649589e-003
3.168522e+003,-1.722334e-003
3.170450e+003,-1.585482e-003
3.172379e+003,-1.495974e-003
3.174307e+003,-1.448918e-003
3.176236e+003,-1.386003e-003
3.178164e+003,-1.455919e-003
3.180093e+003,-1.636848e-003
3.182021e+003,-1.651371e-003
3.183950e+003,-1.527441e-003
3.185878e+003,-1.456084e-003
3.187807e+003,-1.365393e-003
3.189735e+003,-1.327737e-003
3.191664e+003,-1.350892e-003
3.193592e+003,-1.409056e-003
3.195521e+003,-1.421870e-003
3.197449e+003,-1.401988e-003
3.199378e+003,-1.480685e-003
3.201306e+003,-1.526153e-003
3.203235e+003,-1.468599e-003
3.205163e+003,-1.468731e-003
3.207092e+003,-1.473090e-003
3.209020e+003,-1.322716e-003
3.210948e+003,-1.276368e-003
3.212877e+003,-1.297081e-003
3.214806e+003,-1.303160e-003
3.216734e+003,-1.325821e-003
3.218663e+003,-1.290144e-003
3.220591e+003,-1.234970e-003
3.222520e+003,-1.267943e-003
3.224448e+003,-1.293447e-003
3.226376e+003,-1.282050e-003
3.228305e+003,-1.168456e-003
3.230234e+003,-1.035396e-003
3.232162e+003,-9.857446e-004
3.234091e+003,-9.385009e-004
3.236019e+003,-9.649501e-004
3.237948e+003,-1.086893e-003
3.239876e+003,-9.454770e-004
3.241804e+003,-6.741187e-004
3.243733e+003,-6.321348e-004
3.245662e+003,-7.049176e-004
3.247590e+003,-5.566594e-004
3.249519e+003,-4.925894e-004
3.251447e+003,-4.447623e-004
3.253375e+003,-4.553543e-004
3.255304e+003,-4.160305e-004
3.257232e+003,-2.243258e-004
3.259161e+003,-1.341721e-004
3.261090e+003,-9.544867e-005
3.263018e+003,-1.198293e-004
3.264947e+003,-1.969372e-004
3.266875e+003,-2.778394e-004
3.268803e+003,-2.362808e-004
3.270732e+003,-1.834907e-004
3.272660e+003,-1.621277e-004
3.274589e+003,-1.328803e-004
3.276518e+003,-1.680233e-004
3.278446e+003,-1.034322e-004
3.280375e+003,2.034478e-005
3.282303e+003,2.816485e-005
3.284231e+003,6.527896e-005
3.286160e+003,4.403737e-005
3.288088e+003,-1.394057e-004
3.290017e+003,-3.154209e-004
3.291946e+003,-1.759724e-004
3.293874e+003,-1.471233e-004
3.295802e+003,-2.122710e-004
3.297731e+003,-2.477057e-004
3.299659e+003,-2.619450e-004
3.301588e+003,-4.069603e-004
3.303516e+003,-5.829334e-004
3.305445e+003,-6.546657e-004
3.307374e+003,-6.612494e-004
3.309302e+003,-6.887410e-004
3.311230e+003,-7.255592e-004
3.313159e+003,-8.051724e-004
3.315087e+003,-9.901415e-004
3.317016e+003,-1.072483e-003
3.318944e+003,-1.087620e-003
3.320873e+003,-1.145324e-003
3.322802e+003,-1.264904e-003
3.324730e+003,-1.442775e-003
3.326658e+003,-1.615754e-003
3.328587e+003,-1.624403e-003
3.330515e+003,-1.586604e-003
3.332444e+003,-1.724314e-003
3.334372e+003,-1.782164e-003
3.336301e+003,-1.643185e-003
3.338229e+003,-1.563065e-003
3.340158e+003,-1.691673e-003
3.342086e+003,-1.688768e-003
3.344015e+003,-1.818823e-003
3.345943e+003,-1.839346e-003
3.347872e+003,-1.814633e-003
3.349800e+003,-1.885106e-003
3.351729e+003,-1.860561e-003
3.353657e+003,-1.779062e-003
3.355586e+003,-1.799883e-003
3.357514e+003,-1.823311e-003
3.359443e+003,-1.923934e-003
3.361371e+003,-2.141400e-003
3.363300e+003,-2.050489e-003
3.365229e+003,-1.996138e-003
3.367157e+003,-2.216700e-003
3.369085e+003,-2.613915e-003
3.371014e+003,-2.755250e-003
3.372942e+003,-2.624487e-003
3.374871e+003,-2.611676e-003
3.376799e+003,-2.557559e-003
3.378728e+003,-2.666279e-003
3.380656e+003,-2.911646e-003
3.382585e+003,-3.070750e-003
3.384513e+003,-3.254164e-003
3.386442e+003,-3.329534e-003
3.388370e+003,-3.286031e-003
3.390299e+003,-3.295797e-003
3.392227e+003,-3.216869e-003
3.394156e+003,-3.286787e-003
3.396084e+003,-3.418567e-003
3.398013e+003,-3.589184e-003
3.399941e+003,-3.801350e-003
3.401870e+003,-3.768044e-003
3.403798e+003,-3.610346e-003
3.405727e+003,-3.503407e-003
3.407655e+003,-3.466100e-003
3.409584e+003,-3.660947e-003
3.411512e+003,-3.847627e-003
3.413441e+003,-3.889794e-003
3.415369e+003,-3.920398e-003
3.417298e+003,-3.912123e-003
3.419226e+003,-3.764398e-003
3.421155e+003,-3.750338e-003
3.423083e+003,-3.904735e-003
3.425012e+003,-3.771263e-003
3.426940e+003,-3.697054e-003
3.428869e+003,-3.837741e-003
3.430797e+003,-3.963083e-003
3.432726e+003,-3.865689e-003
3.434654e+003,-3.794157e-003
3.436583e+003,-3.927261e-003
3.438511e+003,-3.974673e-003
3.440440e+003,-3.955171e-003
3.442368e+003,-4.129974e-003
3.444297e+003,-4.129351e-003
3.446225e+003,-3.979499e-003
3.448154e+003,-3.884178e-003
3.450082e+003,-3.923912e-003
3.452011e+003,-4.024411e-003
3.453939e+003,-4.041449e-003
3.455868e+003,-4.141560e-003
3.457796e+003,-4.207063e-003
3.459725e+003,-4.227046e-003
3.461653e+003,-4.106245e-003
3.463582e+003,-4.150290e-003
3.465510e+003,-4.338400e-003
3.467439e+003,-4.374713e-003
3.469367e+003,-4.311794e-003
3.471296e+003,-4.297392e-003
3.473224e+003,-4.286828e-003
3.475153e+003,-4.196791e-003
3.477081e+003,-4.199646e-003
3.479010e+003,-4.298934e-003
3.480938e+003,-4.312910e-003
3.482867e+003,-4.434999e-003
3.484795e+003,-4.354375e-003
3.486724e+003,-4.145728e-003
3.488652e+003,-4.141724e-003
3.490581e+003,-4.198957e-003
3.492509e+003,-4.252017e-003
3.494438e+003,-4.248013e-003
3.496366e+003,-4.200795e-003
3.498295e+003,-4.290043e-003
3.500223e+003,-4.278822e-003
3.502152e+003,-4.099778e-003
3.504080e+003,-4.095413e-003
3.506009e+003,-4.283481e-003
3.507937e+003,-4.303888e-003
3.509866e+003,-4.420436e-003
3.511794e+003,-4.389999e-003
3.513723e+003,-4.315370e-003
3.515651e+003,-4.333840e-003
3.517580e+003,-4.286861e-003
3.519508e+003,-4.124395e-003
3.521437e+003,-4.182779e-003
3.523365e+003,-4.267634e-003
3.525294e+003,-4.351915e-003
3.527222e+003,-4.381995e-003
3.529151e+003,-4.366742e-003
3.531079e+003,-4.360641e-003
3.533008e+003,-4.298802e-003
3.534936e+003,-4.263402e-003
3.536865e+003,-4.319209e-003
3.538793e+003,-4.573808e-003
3.540722e+003,-4.652981e-003
3.542650e+003,-4.457956e-003
3.544579e+003,-4.332495e-003
3.546507e+003,-4.159479e-003
3.548436e+003,-4.167815e-003
3.550364e+003,-4.327738e-003
3.552293e+003,-4.388916e-003
3.554221e+003,-4.426439e-003
3.556150e+003,-4.502622e-003
3.558078e+003,-4.353293e-003
3.560007e+003,-4.262516e-003
3.561935e+003,-4.453791e-003
3.563864e+003,-4.517542e-003
3.565792e+003,-4.342140e-003
3.567721e+003,-4.360542e-003
3.569649e+003,-4.558037e-003
3.571578e+003,-4.547873e-003
3.573506e+003,-4.513443e-003
3.575435e+003,-4.522002e-003
3.577363e+003,-4.504491e-003
3.579292e+003,-4.542135e-003
3.581220e+003,-4.649408e-003
3.583149e+003,-4.723225e-003
3.585077e+003,-4.619380e-003
3.587006e+003,-4.402561e-003
3.588934e+003,-4.501802e-003
3.590863e+003,-4.626264e-003
3.592791e+003,-4.586365e-003
3.594720e+003,-4.625838e-003
3.596648e+003,-4.658226e-003
3.598577e+003,-4.791524e-003
3.600505e+003,-4.845789e-003
3.602434e+003,-4.723094e-003
3.604362e+003,-4.729419e-003
3.606291e+003,-4.846575e-003
3.608219e+003,-4.789591e-003
3.610148e+003,-4.804337e-003
3.612076e+003,-4.851261e-003
3.614005e+003,-4.883829e-003
3.615933e+003,-4.860075e-003
3.617862e+003,-4.833960e-003
3.619790e+003,-4.937066e-003
3.621719e+003,-5.101717e-003
3.623647e+003,-5.147691e-003
3.625576e+003,-4.954232e-003
3.627504e+003,-4.690907e-003
3.629433e+003,-4.563972e-003
3.631361e+003,-4.933594e-003
3.633290e+003,-5.083018e-003
3.635218e+003,-5.044045e-003
3.637146e+003,-4.968907e-003
3.639075e+003,-5.031305e-003
3.641004e+003,-5.297697e-003
3.642932e+003,-5.317630e-003
3.644861e+003,-5.201977e-003
3.646789e+003,-5.096084e-003
3.648718e+003,-4.851949e-003
3.650646e+003,-4.992754e-003
3.652574e+003,-5.471798e-003
3.654503e+003,-5.483511e-003
3.656432e+003,-5.182955e-003
3.658360e+003,-5.286993e-003
3.660289e+003,-5.606776e-003
3.662217e+003,-5.674348e-003
3.664146e+003,-5.582211e-003
3.666074e+003,-5.662247e-003
3.668002e+003,-5.715128e-003
3.669931e+003,-5.489597e-003
3.671860e+003,-5.578417e-003
3.673788e+003,-5.511975e-003
3.675717e+003,-5.145138e-003
3.677645e+003,-5.319627e-003
3.679573e+003,-5.574197e-003
3.681502e+003,-5.624308e-003
3.683430e+003,-5.600725e-003
3.685359e+003,-5.574328e-003
3.687288e+003,-5.314816e-003
3.689216e+003,-5.135642e-003
3.691145e+003,-5.370749e-003
3.693073e+003,-5.543840e-003
3.695001e+003,-5.570206e-003
3.696930e+003,-5.448698e-003
3.698858e+003,-5.240805e-003
3.700787e+003,-5.061502e-003
3.702716e+003,-5.242965e-003
3.704644e+003,-5.507885e-003
3.706573e+003,-5.482824e-003
3.708501e+003,-5.309022e-003
3.710429e+003,-5.074438e-003
3.712358e+003,-5.118549e-003
3.714286e+003,-5.477164e-003
3.716215e+003,-5.618126e-003
3.718144e+003,-5.409627e-003
3.720072e+003,-5.403180e-003
3.722000e+003,-5.240870e-003
3.723929e+003,-5.225222e-003
3.725857e+003,-5.370062e-003
3.727786e+003,-5.623294e-003
3.729714e+003,-5.683342e-003
3.731643e+003,-5.555485e-003
3.733572e+003,-5.262508e-003
3.735500e+003,-5.050072e-003
3.737428e+003,-5.116027e-003
3.739357e+003,-5.433450e-003
3.741285e+003,-5.450923e-003
3.743214e+003,-5.066709e-003
3.745142e+003,-4.907320e-003
3.747071e+003,-5.197262e-003
3.749000e+003,-5.020660e-003
3.750928e+003,-4.809810e-003
3.752856e+003,-4.948139e-003
3.754785e+003,-5.189765e-003
3.756713e+003,-5.319464e-003
3.758642e+003,-5.330362e-003
3.760570e+003,-4.934872e-003
3.762499e+003,-4.928221e-003
3.764427e+003,-5.216055e-003
3.766356e+003,-5.255863e-003
3.768284e+003,-5.329446e-003
3.770213e+003,-5.040672e-003
3.772141e+003,-5.056131e-003
3.774070e+003,-5.155779e-003
3.775998e+003,-4.991313e-003
3.777927e+003,-5.022953e-003
3.779855e+003,-5.039493e-003
3.781784e+003,-5.113113e-003
3.783712e+003,-5.137214e-003
3.785641e+003,-5.156860e-003
3.787569e+003,-5.051971e-003
3.789498e+003,-5.234519e-003
3.791426e+003,-5.550153e-003
3.793355e+003,-5.563140e-003
3.795283e+003,-5.332817e-003
3.797212e+003,-5.106400e-003
3.799140e+003,-4.952463e-003
3.801069e+003,-4.866169e-003
3.802997e+003,-5.092482e-003
3.804926e+003,-5.252328e-003
3.806854e+003,-5.027310e-003
3.808783e+003,-5.154142e-003
3.810711e+003,-5.436722e-003
3.812640e+003,-5.534778e-003
3.814568e+003,-5.379552e-003
3.816497e+003,-5.089109e-003
3.818425e+003,-5.099359e-003
3.820354e+003,-4.916427e-003
3.822282e+003,-5.037594e-003
3.824211e+003,-5.447814e-003
3.826139e+003,-5.317205e-003
3.828068e+003,-5.161116e-003
3.829996e+003,-5.074373e-003
3.831925e+003,-5.069558e-003
3.833853e+003,-5.342701e-003
3.835782e+003,-5.482955e-003
3.837710e+003,-5.156663e-003
3.839639e+003,-5.094382e-003
3.841567e+003,-5.277010e-003
3.843496e+003,-5.332556e-003
3.845424e+003,-5.512401e-003
3.847353e+003,-5.825218e-003
3.849281e+003,-5.842545e-003
3.851210e+003,-5.481777e-003
3.853138e+003,-5.044963e-003
3.855067e+003,-4.870101e-003
3.856995e+003,-5.315241e-003
3.858924e+003,-5.593235e-003
3.860852e+003,-5.634742e-003
3.862781e+003,-5.523720e-003
3.864709e+003,-5.542662e-003
3.866638e+003,-5.658552e-003
3.868566e+003,-5.398370e-003
3.870495e+003,-5.355367e-003
3.872423e+003,-5.456976e-003
3.874352e+003,-5.304113e-003
3.876280e+003,-5.486096e-003
3.878209e+003,-5.732230e-003
3.880137e+003,-5.734094e-003
3.882066e+003,-5.658322e-003
3.883994e+003,-5.618355e-003
3.885923e+003,-5.456191e-003
3.887851e+003,-5.667284e-003
3.889780e+003,-5.571384e-003
3.891708e+003,-5.367476e-003
3.893637e+003,-5.650441e-003
3.895565e+003,-5.980937e-003
3.897494e+003,-5.989532e-003
3.899422e+003,-5.765288e-003
3.901351e+003,-5.688966e-003
3.903279e+003,-5.674969e-003
3.905208e+003,-5.584828e-003
3.907136e+003,-5.969695e-003
3.909065e+003,-6.049660e-003
3.910993e+003,-5.849802e-003
3.912922e+003,-5.899096e-003
3.914850e+003,-5.872881e-003
3.916779e+003,-5.661168e-003
3.918707e+003,-5.812141e-003
3.920636e+003,-5.971035e-003
3.922564e+003,-5.810146e-003
3.924493e+003,-5.781048e-003
3.926421e+003,-6.039497e-003
3.928350e+003,-6.332441e-003
3.930278e+003,-6.307492e-003
3.932207e+003,-6.023518e-003
3.934135e+003,-6.121638e-003
3.936064e+003,-6.360490e-003
3.937992e+003,-6.215523e-003
3.939921e+003,-6.071356e-003
3.941849e+003,-5.964466e-003
3.943778e+003,-5.973225e-003
3.945706e+003,-6.015349e-003
3.947635e+003,-5.870789e-003
3.949563e+003,-5.834274e-003
3.951492e+003,-6.010414e-003
3.953420e+003,-6.241913e-003
3.955349e+003,-6.307884e-003
3.957277e+003,-6.099944e-003
3.959206e+003,-6.251287e-003
3.961134e+003,-6.490655e-003
3.963063e+003,-6.400226e-003
3.964991e+003,-6.224407e-003
3.966920e+003,-6.122422e-003
3.968848e+003,-5.956589e-003
3.970777e+003,-5.989728e-003
3.972705e+003,-5.955576e-003
3.974634e+003,-5.970545e-003
3.976562e+003,-6.100533e-003
3.978491e+003,-6.098017e-003
3.980419e+003,-6.116182e-003
3.982348e+003,-6.035282e-003
3.984276e+003,-5.919297e-003
3.986205e+003,-6.008682e-003
3.988133e+003,-6.171588e-003
3.990062e+003,-6.174985e-003
3.991990e+003,-6.145487e-003
3.993919e+003,-6.240183e-003
3.995847e+003,-6.341421e-003
3.997776e+003,-6.132942e-003
3.999704e+003,-6.010414e-003
4.001633e+003,0.000000e+000
