3.991989e+002,-3.557288e-002
4.011274e+002,-2.930741e-002
4.030559e+002,-2.108569e-002
4.049844e+002,-1.966435e-002
4.069129e+002,-2.502069e-002
4.088414e+002,-2.771253e-002
4.107699e+002,-2.155040e-002
4.126984e+002,-1.531292e-002
4.146269e+002,-1.142593e-002
4.165554e+002,-1.158198e-002
4.184839e+002,-1.082658e-002
4.204124e+002,-9.335157e-003
4.223409e+002,-1.118598e-002
4.242694e+002,-1.069209e-002
4.261979e+002,-7.995575e-003
4.281264e+002,-6.439501e-003
4.300549e+002,-6.709827e-003
4.319834e+002,-6.550713e-003
4.339119e+002,-5.753190e-003
4.358404e+002,-7.302043e-003
4.377689e+002,-7.418572e-003
4.396974e+002,-4.942079e-003
4.416259e+002,-4.543053e-003
4.435544e+002,-6.185700e-003
4.454829e+002,-6.265527e-003
4.474114e+002,-5.547046e-003
4.493399e+002,-4.982894e-003
4.512684e+002,-4.069975e-003
4.531969e+002,-4.477830e-003
4.551254e+002,-6.567163e-003
4.570539e+002,-5.024788e-003
4.589824e+002,-1.661901e-003
4.609109e+002,-1.264078e-003
4.628394e+002,-9.962904e-004
4.647679e+002,-3.520367e-003
4.666964e+002,-6.493626e-003
4.686249e+002,-6.285090e-003
4.705533e+002,-7.335047e-003
4.724819e+002,-6.965866e-003
4.744103e+002,-4.151964e-003
4.763389e+002,-2.293370e-003
4.782673e+002,-1.809404e-004
4.801959e+002,1.726996e-003
4.821243e+002,2.567610e-003
4.840529e+002,1.839716e-003
4.859813e+002,1.718147e-003
4.879099e+002,1.663728e-003
4.898383e+002,-7.547278e-005
4.917668e+002,2.931032e-004
4.936953e+002,1.792368e-003
4.956238e+002,1.114069e-003
4.975523e+002,6.152377e-004
4.994808e+002,-6.762360e-004
5.014093e+002,-1.576799e-003
5.033378e+002,-4.559831e-004
5.052663e+002,1.596379e-003
5.071948e+002,8.646646e-004
5.091233e+002,2.054134e-004
5.110518e+002,-2.653888e-004
5.129803e+002,1.298874e-005
5.149088e+002,-7.621758e-004
5.168373e+002,-1.230576e-003
5.187658e+002,-9.660811e-005
5.206943e+002,-6.553419e-005
5.226228e+002,-9.710002e-004
5.245513e+002,-3.010439e-003
5.264798e+002,-2.629329e-003
5.284083e+002,-1.592580e-003
5.303368e+002,-1.526351e-003
5.322653e+002,-1.470845e-003
5.341938e+002,-2.365117e-003
5.361223e+002,-3.962460e-003
5.380508e+002,-3.298066e-003
5.399792e+002,-1.015728e-003
5.419078e+002,-6.866899e-004
5.438363e+002,-1.129131e-003
5.457648e+002,1.714362e-004
5.476932e+002,1.376247e-003
5.496218e+002,5.616536e-004
5.515503e+002,-1.245330e-004
5.534788e+002,-3.324722e-004
5.554072e+002,-5.258832e-004
5.573358e+002,-2.370094e-004
5.592643e+002,4.382530e-004
5.611927e+002,1.065937e-003
5.631212e+002,6.674014e-004
5.650497e+002,6.512074e-004
5.669783e+002,5.926752e-004
5.689067e+002,1.452839e-004
5.708352e+002,-1.863167e-003
5.727637e+002,-4.116609e-004
5.746923e+002,3.849893e-004
5.766207e+002,3.354757e-003
5.785492e+002,6.259783e-003
5.804777e+002,5.251426e-003
5.824063e+002,2.388363e-003
5.843347e+002,-1.386564e-003
5.862632e+002,-2.813325e-003
5.881917e+002,-1.792789e-003
5.901202e+002,8.334576e-004
5.920487e+002,1.205497e-003
5.939772e+002,3.052774e-003
5.959057e+002,4.314772e-003
5.978342e+002,5.114482e-003
5.997627e+002,6.424360e-003
6.016912e+002,7.437941e-003
6.036197e+002,6.852014e-003
6.055482e+002,7.910020e-003
6.074767e+002,8.841990e-003
6.094052e+002,1.007676e-002
6.113337e+002,1.080131e-002
6.132622e+002,9.748583e-003
6.151907e+002,8.996317e-003
6.171192e+002,9.910589e-003
6.190477e+002,1.045599e-002
6.209762e+002,1.079968e-002
6.229047e+002,8.835328e-003
6.248332e+002,5.941430e-003
6.267617e+002,4.228442e-003
6.286902e+002,2.955718e-003
6.306187e+002,1.623717e-003
6.325472e+002,1.426541e-003
6.344756e+002,7.282005e-004
6.364042e+002,5.013091e-004
6.383326e+002,3.653239e-004
6.402612e+002,2.961204e-004
6.421896e+002,-1.033659e-004
6.441182e+002,9.444228e-005
6.460466e+002,3.059349e-004
6.479752e+002,-7.739422e-005
6.499036e+002,-1.082530e-003
6.518322e+002,-1.518031e-003
6.537606e+002,-1.215047e-003
6.556891e+002,-1.151735e-003
6.576177e+002,-1.787674e-003
6.595461e+002,-1.830471e-003
6.614746e+002,-2.170579e-003
6.634031e+002,-2.118056e-003
6.653317e+002,-1.308676e-003
6.672601e+002,-2.340620e-004
6.691886e+002,-5.514971e-004
6.711171e+002,-9.163815e-004
6.730457e+002,-1.146315e-003
6.749741e+002,-1.126123e-003
6.769026e+002,-2.898923e-004
6.788311e+002,1.450851e-004
6.807596e+002,9.225497e-005
6.826881e+002,3.796169e-004
6.846166e+002,1.510844e-004
6.865451e+002,4.556663e-004
6.884736e+002,9.697888e-004
6.904021e+002,1.284948e-003
6.923306e+002,9.455807e-004
6.942591e+002,4.340740e-004
6.961876e+002,4.125158e-004
6.981161e+002,8.033484e-004
7.000446e+002,1.014190e-003
7.019731e+002,9.996106e-004
7.039016e+002,1.104302e-003
7.058301e+002,1.552151e-003
7.077585e+002,1.779592e-003
7.096871e+002,2.008118e-003
7.116156e+002,2.680782e-003
7.135441e+002,3.388783e-003
7.154725e+002,3.101493e-003
7.174011e+002,3.030851e-003
7.193296e+002,3.647293e-003
7.212581e+002,4.149387e-003
7.231865e+002,4.079009e-003
7.251151e+002,4.014629e-003
7.270436e+002,4.041451e-003
7.289720e+002,4.564526e-003
7.309005e+002,4.852417e-003
7.328290e+002,5.082432e-003
7.347576e+002,4.762060e-003
7.366860e+002,4.953685e-003
7.386145e+002,5.083471e-003
7.405430e+002,5.258603e-003
7.424716e+002,5.773678e-003
7.444000e+002,5.717205e-003
7.463285e+002,5.336720e-003
7.482570e+002,5.810346e-003
7.501855e+002,6.345812e-003
7.521140e+002,6.608612e-003
7.540425e+002,6.607098e-003
7.559710e+002,6.627587e-003
7.578995e+002,6.995669e-003
7.598280e+002,7.211796e-003
7.617565e+002,6.815459e-003
7.636850e+002,6.935770e-003
7.656135e+002,7.413302e-003
7.675420e+002,7.802392e-003
7.694705e+002,7.390620e-003
7.713990e+002,6.965668e-003
7.733275e+002,6.939911e-003
7.752560e+002,7.471143e-003
7.771844e+002,7.295083e-003
7.791130e+002,6.614298e-003
7.810415e+002,6.663149e-003
7.829700e+002,6.849388e-003
7.848984e+002,6.953177e-003
7.868270e+002,6.914156e-003
7.887555e+002,6.274170e-003
7.906840e+002,5.506920e-003
7.926124e+002,4.897854e-003
7.945410e+002,4.634111e-003
7.964695e+002,4.683076e-003
7.983979e+002,4.913671e-003
8.003264e+002,4.866892e-003
8.022549e+002,4.555050e-003
8.041835e+002,4.265783e-003
8.061119e+002,4.331539e-003
8.080404e+002,4.270702e-003
8.099689e+002,4.000651e-003
8.118975e+002,4.213118e-003
8.138259e+002,4.812647e-003
8.157545e+002,5.290532e-003
8.176830e+002,5.542894e-003
8.196115e+002,5.984260e-003
8.215399e+002,5.867302e-003
8.234684e+002,5.340912e-003
8.253970e+002,5.462124e-003
8.273254e+002,5.805309e-003
8.292539e+002,5.699076e-003
8.311824e+002,5.517289e-003
8.331110e+002,5.921545e-003
8.350394e+002,6.044767e-003
8.369679e+002,5.749167e-003
8.388964e+002,5.845507e-003
8.408250e+002,6.340635e-003
8.427534e+002,6.672941e-003
8.446819e+002,5.957688e-003
8.466104e+002,5.533766e-003
8.485389e+002,5.936123e-003
8.504674e+002,6.002502e-003
8.523959e+002,5.840503e-003
8.543244e+002,5.576422e-003
8.562529e+002,5.486552e-003
8.581814e+002,5.898840e-003
8.601099e+002,6.290878e-003
8.620384e+002,6.047858e-003
8.639669e+002,5.613577e-003
8.658954e+002,5.099429e-003
8.678239e+002,5.141975e-003
8.697524e+002,5.292645e-003
8.716809e+002,5.237944e-003
8.736094e+002,5.019680e-003
8.755378e+002,5.139092e-003
8.774664e+002,5.024774e-003
8.793949e+002,5.143852e-003
8.813234e+002,5.247267e-003
8.832518e+002,5.350003e-003
8.851804e+002,5.230265e-003
8.871089e+002,4.907974e-003
8.890374e+002,5.088500e-003
8.909658e+002,5.589545e-003
8.928943e+002,5.438201e-003
8.948229e+002,5.483297e-003
8.967513e+002,5.756118e-003
8.986798e+002,5.907976e-003
9.006083e+002,5.804940e-003
9.025369e+002,5.728317e-003
9.044653e+002,5.639691e-003
9.063938e+002,5.421963e-003
9.083223e+002,5.385126e-003
9.102509e+002,5.517558e-003
9.121793e+002,5.271649e-003
9.141078e+002,4.661741e-003
9.160364e+002,4.268527e-003
9.179648e+002,4.339370e-003
9.198933e+002,4.128480e-003
9.218218e+002,3.957815e-003
9.237504e+002,3.606598e-003
9.256788e+002,3.428357e-003
9.276073e+002,3.239139e-003
9.295358e+002,3.209998e-003
9.314644e+002,3.130928e-003
9.333928e+002,3.119915e-003
9.353213e+002,2.980138e-003
9.372498e+002,2.728560e-003
9.391783e+002,2.310442e-003
9.411068e+002,2.376769e-003
9.430353e+002,2.501421e-003
9.449637e+002,2.727593e-003
9.468923e+002,2.600109e-003
9.488208e+002,2.575010e-003
9.507493e+002,2.738796e-003
9.526777e+002,2.550279e-003
9.546063e+002,2.468530e-003
9.565348e+002,2.798452e-003
9.584633e+002,2.766339e-003
9.603917e+002,2.732661e-003
9.623203e+002,2.739863e-003
9.642488e+002,2.630743e-003
9.661772e+002,2.625943e-003
9.681057e+002,2.823364e-003
9.700343e+002,2.734328e-003
9.719628e+002,2.657145e-003
9.738912e+002,2.446837e-003
9.758197e+002,2.330962e-003
9.777483e+002,2.174721e-003
9.796768e+002,1.832662e-003
9.816052e+002,1.603895e-003
9.835337e+002,1.374984e-003
9.854623e+002,1.209584e-003
9.873907e+002,1.098522e-003
9.893192e+002,9.358514e-004
9.912477e+002,8.039459e-004
9.931763e+002,9.089558e-004
9.951047e+002,9.709178e-004
9.970332e+002,6.939170e-004
9.989617e+002,5.618195e-004
1.000890e+003,3.573651e-004
1.002819e+003,3.427412e-004
1.004747e+003,6.221725e-004
1.006676e+003,7.131991e-004
1.008604e+003,7.915310e-004
1.010533e+003,7.776559e-004
1.012461e+003,8.543063e-004
1.014390e+003,9.451822e-004
1.016318e+003,1.010404e-003
1.018247e+003,1.400878e-003
1.020175e+003,1.728992e-003
1.022104e+003,2.028824e-003
1.024032e+003,2.306711e-003
1.025961e+003,2.524283e-003
1.027889e+003,3.013935e-003
1.029818e+003,3.426854e-003
1.031746e+003,3.770373e-003
1.033675e+003,4.088308e-003
1.035603e+003,4.196424e-003
1.037532e+003,4.644728e-003
1.039460e+003,5.278424e-003
1.041389e+003,5.600017e-003
1.043317e+003,5.598976e-003
1.045246e+003,5.593102e-003
1.047174e+003,5.839865e-003
1.049103e+003,6.027095e-003
1.051031e+003,6.052763e-003
1.052960e+003,5.912778e-003
1.054888e+003,5.895246e-003
1.056817e+003,6.109045e-003
1.058745e+003,6.304123e-003
1.060674e+003,6.222035e-003
1.062602e+003,6.064893e-003
1.064531e+003,6.030353e-003
1.066459e+003,6.128737e-003
1.068388e+003,6.270338e-003
1.070316e+003,6.142516e-003
1.072245e+003,5.911300e-003
1.074173e+003,5.934376e-003
1.076102e+003,5.929069e-003
1.078030e+003,5.959032e-003
1.079959e+003,6.174207e-003
1.081887e+003,6.364136e-003
1.083816e+003,6.434818e-003
1.085744e+003,6.257060e-003
1.087673e+003,6.248925e-003
1.089601e+003,6.384008e-003
1.091530e+003,6.460208e-003
1.093458e+003,6.560406e-003
1.095387e+003,6.465422e-003
1.097315e+003,6.463774e-003
1.099244e+003,6.693533e-003
1.101172e+003,6.698984e-003
1.103101e+003,6.752893e-003
1.105029e+003,6.959843e-003
1.106958e+003,7.082282e-003
1.108886e+003,7.083461e-003
1.110815e+003,7.001528e-003
1.112743e+003,6.998328e-003
1.114672e+003,7.072683e-003
1.116600e+003,7.099189e-003
1.118529e+003,7.178816e-003
1.120457e+003,7.221364e-003
1.122386e+003,7.193706e-003
1.124314e+003,7.089961e-003
1.126243e+003,7.027018e-003
1.128171e+003,7.048335e-003
1.130100e+003,7.090298e-003
1.132028e+003,6.937454e-003
1.133957e+003,6.791899e-003
1.135885e+003,6.570127e-003
1.137814e+003,6.181399e-003
1.139742e+003,5.906934e-003
1.141671e+003,5.379188e-003
1.143599e+003,4.815562e-003
1.145528e+003,4.688803e-003
1.147456e+003,4.384653e-003
1.149385e+003,3.970522e-003
1.151313e+003,3.629919e-003
1.153242e+003,3.308279e-003
1.155170e+003,3.126356e-003
1.157099e+003,2.987511e-003
1.159027e+003,2.784513e-003
1.160956e+003,2.639044e-003
1.162884e+003,2.537114e-003
1.164813e+003,2.446804e-003
1.166741e+003,2.484792e-003
1.168670e+003,2.540980e-003
1.170598e+003,2.545246e-003
1.172526e+003,2.540314e-003
1.174455e+003,2.488757e-003
1.176384e+003,2.607542e-003
1.178312e+003,2.544013e-003
1.180240e+003,2.356246e-003
1.182169e+003,2.329596e-003
1.184098e+003,2.355180e-003
1.186026e+003,2.298950e-003
1.187954e+003,2.139891e-003
1.189883e+003,1.982954e-003
1.191812e+003,1.836022e-003
1.193740e+003,1.604926e-003
1.195668e+003,1.447385e-003
1.197597e+003,1.245570e-003
1.199526e+003,1.053382e-003
1.201454e+003,9.360506e-004
1.203382e+003,8.226353e-004
1.205311e+003,7.393856e-004
1.207240e+003,7.911659e-004
1.209168e+003,7.652086e-004
1.211096e+003,9.257902e-004
1.213025e+003,8.860792e-004
1.214953e+003,7.827014e-004
1.216882e+003,7.673329e-004
1.218810e+003,7.207329e-004
1.220739e+003,6.907642e-004
1.222667e+003,7.357015e-004
1.224596e+003,7.905019e-004
1.226524e+003,9.325308e-004
1.228453e+003,1.109883e-003
1.230381e+003,1.265242e-003
1.232310e+003,1.343375e-003
1.234238e+003,1.373255e-003
1.236167e+003,1.549857e-003
1.238095e+003,1.744461e-003
1.240024e+003,1.629604e-003
1.241952e+003,1.462711e-003
1.243881e+003,1.341380e-003
1.245809e+003,1.304190e-003
1.247738e+003,1.337359e-003
1.249666e+003,1.374319e-003
1.251595e+003,1.369599e-003
1.253523e+003,1.396324e-003
1.255452e+003,1.417831e-003
1.257380e+003,1.308577e-003
1.259309e+003,1.177987e-003
1.261237e+003,1.111478e-003
1.263166e+003,1.243709e-003
1.265094e+003,1.441999e-003
1.267023e+003,1.551021e-003
1.268951e+003,1.701049e-003
1.270880e+003,1.837187e-003
1.272808e+003,1.705540e-003
1.274737e+003,1.579519e-003
1.276665e+003,1.557704e-003
1.278594e+003,1.501145e-003
1.280522e+003,1.466567e-003
1.282451e+003,1.574198e-003
1.284379e+003,1.610148e-003
1.286308e+003,1.582246e-003
1.288236e+003,1.694995e-003
1.290165e+003,1.874223e-003
1.292093e+003,1.815326e-003
1.294022e+003,1.689540e-003
1.295950e+003,1.731453e-003
1.297879e+003,1.712592e-003
1.299807e+003,1.579885e-003
1.301736e+003,1.509424e-003
1.303664e+003,1.348194e-003
1.305593e+003,1.259095e-003
1.307521e+003,1.166658e-003
1.309450e+003,9.631804e-004
1.311378e+003,7.601634e-004
1.313307e+003,6.416838e-004
1.315235e+003,6.259885e-004
1.317164e+003,6.767265e-004
1.319092e+003,6.339853e-004
1.321021e+003,5.630139e-004
1.322949e+003,7.054662e-004
1.324878e+003,8.999909e-004
1.326806e+003,9.541480e-004
1.328735e+003,1.026877e-003
1.330663e+003,1.219785e-003
1.332592e+003,1.362287e-003
1.334520e+003,1.449479e-003
1.336449e+003,1.559500e-003
1.338377e+003,1.787045e-003
1.340306e+003,1.953630e-003
1.342234e+003,2.021966e-003
1.344163e+003,2.164732e-003
1.346091e+003,2.226007e-003
1.348020e+003,2.393993e-003
1.349948e+003,2.497755e-003
1.351877e+003,2.490457e-003
1.353805e+003,2.558678e-003
1.355734e+003,2.522250e-003
1.357662e+003,2.328896e-003
1.359591e+003,2.148348e-003
1.361519e+003,1.917685e-003
1.363448e+003,1.668784e-003
1.365376e+003,1.451042e-003
1.367305e+003,1.157455e-003
1.369233e+003,9.340583e-004
1.371162e+003,9.113464e-004
1.373090e+003,8.624734e-004
1.375019e+003,7.699551e-004
1.376947e+003,6.537625e-004
1.378876e+003,6.032263e-004
1.380804e+003,5.793373e-004
1.382733e+003,6.074070e-004
1.384661e+003,6.240639e-004
1.386590e+003,8.300383e-004
1.388518e+003,7.364980e-004
1.390447e+003,3.643622e-004
1.392375e+003,2.611747e-004
1.394304e+003,4.375897e-004
1.396232e+003,3.792853e-004
1.398161e+003,2.035901e-004
1.400089e+003,-4.721344e-005
1.402018e+003,-3.577996e-004
1.403946e+003,-4.313566e-004
1.405875e+003,-5.585788e-004
1.407803e+003,-7.909178e-004
1.409732e+003,-8.659888e-004
1.411660e+003,-9.203492e-004
1.413589e+003,-9.303344e-004
1.415517e+003,-8.496859e-004
1.417446e+003,-5.056623e-004
1.419374e+003,-1.210880e-004
1.421303e+003,-2.685677e-004
1.423231e+003,-1.225786e-004
1.425160e+003,1.675912e-004
1.427088e+003,4.073089e-004
1.429017e+003,9.814781e-004
1.430945e+003,1.436946e-003
1.432874e+003,1.876552e-003
1.434802e+003,2.565644e-003
1.436731e+003,3.136802e-003
1.438659e+003,3.061883e-003
1.440588e+003,3.182160e-003
1.442516e+003,3.622468e-003
1.444445e+003,4.030180e-003
1.446373e+003,4.388870e-003
1.448302e+003,4.776063e-003
1.450230e+003,4.827992e-003
1.452159e+003,4.893599e-003
1.454087e+003,5.206086e-003
1.456016e+003,6.201128e-003
1.457944e+003,6.225900e-003
1.459873e+003,5.289828e-003
1.461801e+003,4.740453e-003
1.463730e+003,4.581201e-003
1.465658e+003,4.286161e-003
1.467587e+003,3.673323e-003
1.469515e+003,3.195511e-003
1.471444e+003,3.319130e-003
1.473372e+003,3.240575e-003
1.475301e+003,2.652111e-003
1.477229e+003,1.917286e-003
1.479158e+003,1.181309e-003
1.481086e+003,6.207789e-004
1.483015e+003,7.525392e-005
1.484943e+003,-2.379697e-004
1.486872e+003,-3.526349e-004
1.488800e+003,-3.634939e-004
1.490729e+003,-4.708775e-004
1.492657e+003,-8.761736e-004
1.494586e+003,-7.678648e-004
1.496514e+003,-3.710421e-004
1.498443e+003,-4.504555e-004
1.500371e+003,-7.699486e-004
1.502300e+003,-1.043495e-003
1.504228e+003,-5.246918e-004
1.506157e+003,5.710428e-004
1.508085e+003,2.518586e-004
1.510014e+003,-4.626029e-004
1.511942e+003,-5.311781e-004
1.513871e+003,-6.227714e-004
1.515799e+003,-5.097661e-004
1.517728e+003,-3.182352e-004
1.519656e+003,4.917370e-005
1.521585e+003,3.865812e-004
1.523513e+003,-2.027756e-005
1.525442e+003,-7.341883e-005
1.527370e+003,-2.114431e-004
1.529299e+003,-4.103699e-004
1.531227e+003,-2.543287e-004
1.533156e+003,2.308731e-004
1.535084e+003,1.107149e-004
1.537013e+003,2.109825e-004
1.538941e+003,1.206062e-003
1.540870e+003,1.686646e-003
1.542798e+003,1.241350e-003
1.544727e+003,8.935496e-004
1.546655e+003,5.140474e-004
1.548584e+003,4.107581e-004
1.550512e+003,4.816051e-004
1.552441e+003,5.816598e-004
1.554369e+003,8.502892e-004
1.556298e+003,1.227826e-003
1.558226e+003,2.386730e-003
1.560155e+003,2.160902e-003
1.562083e+003,1.077064e-003
1.564012e+003,9.585978e-004
1.565940e+003,1.148917e-003
1.567869e+003,1.473117e-003
1.569797e+003,1.715619e-003
1.571726e+003,1.492433e-003
1.573654e+003,1.522624e-003
1.575583e+003,1.912593e-003
1.577511e+003,1.611145e-003
1.579440e+003,1.096596e-003
1.581368e+003,9.518567e-004
1.583297e+003,8.691466e-004
1.585225e+003,9.404338e-004
1.587154e+003,9.917731e-004
1.589082e+003,1.064376e-003
1.591010e+003,1.007183e-003
1.592939e+003,9.922048e-004
1.594868e+003,1.182340e-003
1.596796e+003,1.289568e-003
1.598724e+003,1.379903e-003
1.600653e+003,1.499382e-003
1.602582e+003,1.465703e-003
1.604510e+003,1.498152e-003
1.606438e+003,1.545534e-003
1.608367e+003,1.564721e-003
1.610296e+003,1.509224e-003
1.612224e+003,1.364912e-003
1.614152e+003,1.308345e-003
1.616081e+003,1.602565e-003
1.618010e+003,1.276773e-003
1.619938e+003,7.796807e-004
1.621866e+003,7.957799e-004
1.623795e+003,8.628386e-004
1.625724e+003,6.968043e-004
1.627652e+003,6.013351e-004
1.629580e+003,4.224988e-004
1.631509e+003,2.663468e-004
1.633438e+003,5.002143e-004
1.635366e+003,9.591955e-004
1.637294e+003,4.553015e-004
1.639223e+003,-1.086661e-004
1.641151e+003,-3.400540e-004
1.643080e+003,-4.552550e-004
1.645008e+003,-7.686417e-005
1.646937e+003,1.430964e-004
1.648865e+003,-3.475695e-004
1.650794e+003,-1.834576e-004
1.652722e+003,9.572363e-004
1.654651e+003,2.919427e-004
1.656579e+003,-6.823231e-004
1.658508e+003,-9.116864e-004
1.660436e+003,-7.062739e-004
1.662365e+003,-3.244929e-004
1.664293e+003,-3.817682e-004
1.666222e+003,-4.510513e-004
1.668150e+003,8.877517e-005
1.670079e+003,3.585920e-004
1.672007e+003,3.346667e-005
1.673936e+003,9.414401e-005
1.675864e+003,1.000763e-004
1.677793e+003,-4.152691e-004
1.679721e+003,-5.851504e-004
1.681650e+003,-4.308269e-004
1.683578e+003,1.988498e-004
1.685507e+003,-2.872765e-004
1.687435e+003,-1.049015e-003
1.689364e+003,-1.368828e-003
1.691292e+003,-1.653451e-003
1.693221e+003,-1.559533e-003
1.695149e+003,-1.040718e-003
1.697078e+003,-1.064847e-003
1.699006e+003,-6.749458e-004
1.700935e+003,-4.878897e-004
1.702863e+003,-1.344880e-003
1.704792e+003,-1.400568e-003
1.706720e+003,-1.457272e-003
1.708649e+003,-1.597136e-003
1.710577e+003,-1.667314e-003
1.712506e+003,-1.650711e-003
1.714434e+003,-1.376259e-003
1.716363e+003,-8.380454e-004
1.718291e+003,-9.087436e-004
1.720220e+003,-1.631731e-003
1.722148e+003,-1.876463e-003
1.724077e+003,-1.835057e-003
1.726005e+003,-1.944914e-003
1.727934e+003,-1.903086e-003
1.729862e+003,-1.802424e-003
1.731791e+003,-1.566796e-003
1.733719e+003,-8.654266e-004
1.735648e+003,-1.257800e-003
1.737576e+003,-1.719627e-003
1.739505e+003,-1.562570e-003
1.741433e+003,-1.661538e-003
1.743362e+003,-1.616976e-003
1.745290e+003,-1.570626e-003
1.747219e+003,-1.484714e-003
1.749147e+003,-1.252779e-003
1.751076e+003,-1.123083e-003
1.753004e+003,-1.451791e-003
1.754933e+003,-1.496337e-003
1.756861e+003,-1.508686e-003
1.758790e+003,-1.656653e-003
1.760718e+003,-1.403904e-003
1.762647e+003,-1.383559e-003
1.764575e+003,-1.634636e-003
1.766504e+003,-1.571946e-003
1.768432e+003,-1.485539e-003
1.770361e+003,-1.305439e-003
1.772289e+003,-9.230605e-004
1.774218e+003,-1.178865e-003
1.776146e+003,-1.557090e-003
1.778075e+003,-1.717086e-003
1.780003e+003,-1.661868e-003
1.781932e+003,-1.711871e-003
1.783860e+003,-1.737548e-003
1.785789e+003,-1.689329e-003
1.787717e+003,-1.823212e-003
1.789646e+003,-1.715370e-003
1.791574e+003,-1.275046e-003
1.793503e+003,-1.249111e-003
1.795431e+003,-1.583831e-003
1.797360e+003,-1.685996e-003
1.799288e+003,-1.591490e-003
1.801217e+003,-1.559170e-003
1.803145e+003,-1.686953e-003
1.805074e+003,-1.827534e-003
1.807002e+003,-1.831922e-003
1.808931e+003,-1.702696e-003
1.810859e+003,-1.579639e-003
1.812788e+003,-1.572937e-003
1.814716e+003,-1.690881e-003
1.816645e+003,-1.664113e-003
1.818573e+003,-1.641733e-003
1.820502e+003,-1.695072e-003
1.822430e+003,-1.695567e-003
1.824359e+003,-1.562570e-003
1.826287e+003,-1.568447e-003
1.828216e+003,-1.508455e-003
1.830144e+003,-1.453046e-003
1.832073e+003,-1.724446e-003
1.834001e+003,-1.837894e-003
1.835930e+003,-1.840468e-003
1.837858e+003,-1.903416e-003
1.839787e+003,-1.895465e-003
1.841715e+003,-1.662429e-003
1.843644e+003,-1.237052e-003
1.845572e+003,-1.426395e-003
1.847501e+003,-1.710386e-003
1.849429e+003,-1.764509e-003
1.851358e+003,-1.882170e-003
1.853286e+003,-1.877485e-003
1.855215e+003,-1.865114e-003
1.857143e+003,-1.896290e-003
1.859072e+003,-1.867324e-003
1.861000e+003,-1.810673e-003
1.862929e+003,-1.753223e-003
1.864857e+003,-1.672628e-003
1.866786e+003,-1.585416e-003
1.868714e+003,-1.512583e-003
1.870643e+003,-1.660086e-003
1.872571e+003,-1.836410e-003
1.874500e+003,-1.829580e-003
1.876428e+003,-1.733389e-003
1.878357e+003,-1.752497e-003
1.880285e+003,-1.840105e-003
1.882214e+003,-1.848056e-003
1.884142e+003,-1.751936e-003
1.886071e+003,-1.631830e-003
1.887999e+003,-1.521663e-003
1.889928e+003,-1.545699e-003
1.891856e+003,-1.757876e-003
1.893785e+003,-1.838620e-003
1.895713e+003,-1.706987e-003
1.897642e+003,-1.656587e-003
1.899570e+003,-1.800345e-003
1.901499e+003,-1.783187e-003
1.903427e+003,-1.723423e-003
1.905356e+003,-1.710056e-003
1.907284e+003,-1.729396e-003
1.909213e+003,-1.783154e-003
1.911141e+003,-1.865279e-003
1.913070e+003,-1.824531e-003
1.914998e+003,-1.790116e-003
1.916927e+003,-1.672463e-003
1.918855e+003,-1.741937e-003
1.920784e+003,-1.850267e-003
1.922712e+003,-1.796815e-003
1.924641e+003,-1.783088e-003
1.926569e+003,-1.793251e-003
1.928498e+003,-1.795858e-003
1.930426e+003,-1.828392e-003
1.932355e+003,-1.802721e-003
1.934283e+003,-1.832483e-003
1.936212e+003,-1.903812e-003
1.938140e+003,-1.919745e-003
1.940069e+003,-1.935744e-003
1.941997e+003,-1.733653e-003
1.943926e+003,-1.660713e-003
1.945854e+003,-1.775762e-003
1.947783e+003,-1.826742e-003
1.949711e+003,-1.799059e-003
1.951640e+003,-1.816745e-003
1.953568e+003,-1.906055e-003
1.955497e+003,-1.872471e-003
1.957425e+003,-1.909453e-003
1.959354e+003,-1.876001e-003
1.961282e+003,-1.789786e-003
1.963211e+003,-1.842019e-003
1.965139e+003,-1.886261e-003
1.967068e+003,-1.961242e-003
1.968996e+003,-1.971137e-003
1.970925e+003,-1.951346e-003
1.972853e+003,-1.971665e-003
1.974782e+003,-2.022622e-003
1.976710e+003,-1.930796e-003
1.978639e+003,-1.825818e-003
1.980567e+003,-1.966717e-003
1.982496e+003,-2.108362e-003
1.984424e+003,-2.052567e-003
1.986353e+003,-2.068594e-003
1.988281e+003,-2.114132e-003
1.990210e+003,-2.075915e-003
1.992138e+003,-2.023282e-003
1.994067e+003,-2.037463e-003
1.995995e+003,-2.033901e-003
1.997924e+003,-2.010716e-003
1.999852e+003,-2.007583e-003
2.001781e+003,-1.963980e-003
2.003709e+003,-1.974337e-003
2.005638e+003,-2.036572e-003
2.007566e+003,-2.111659e-003
2.009495e+003,-2.171732e-003
2.011423e+003,-2.132630e-003
2.013352e+003,-2.039211e-003
2.015280e+003,-2.013717e-003
2.017208e+003,-1.995446e-003
2.019137e+003,-1.963155e-003
2.021066e+003,-2.037298e-003
2.022994e+003,-2.066681e-003
2.024922e+003,-2.120463e-003
2.026851e+003,-2.081619e-003
2.028780e+003,-1.989707e-003
2.030708e+003,-1.950720e-003
2.032636e+003,-1.975161e-003
2.034565e+003,-2.033901e-003
2.036494e+003,-2.035550e-003
2.038422e+003,-1.988255e-003
2.040350e+003,-2.032351e-003
2.042279e+003,-2.040332e-003
2.044208e+003,-1.952171e-003
2.046136e+003,-1.926507e-003
2.048064e+003,-2.013552e-003
2.049993e+003,-2.094381e-003
2.051921e+003,-2.052666e-003
2.053850e+003,-2.027569e-003
2.055778e+003,-2.078256e-003
2.057707e+003,-2.109087e-003
2.059635e+003,-2.219370e-003
2.061564e+003,-2.244521e-003
2.063492e+003,-2.204041e-003
2.065421e+003,-2.179974e-003
2.067349e+003,-2.106153e-003
2.069278e+003,-2.094710e-003
2.071206e+003,-2.037199e-003
2.073135e+003,-2.037166e-003
2.075063e+003,-2.175755e-003
2.076992e+003,-2.236412e-003
2.078920e+003,-2.183469e-003
2.080849e+003,-2.110571e-003
2.082777e+003,-2.030504e-003
2.084706e+003,-1.966289e-003
2.086634e+003,-1.933105e-003
2.088563e+003,-1.977998e-003
2.090491e+003,-2.018697e-003
2.092420e+003,-1.988651e-003
2.094348e+003,-1.997260e-003
2.096277e+003,-2.069253e-003
2.098205e+003,-2.127849e-003
2.100134e+003,-2.131904e-003
2.102062e+003,-2.101833e-003
2.103991e+003,-2.106054e-003
2.105919e+003,-2.154325e-003
2.107848e+003,-2.209183e-003
2.109776e+003,-2.134476e-003
2.111705e+003,-1.957185e-003
2.113633e+003,-1.999239e-003
2.115562e+003,-2.096392e-003
2.117490e+003,-2.096359e-003
2.119419e+003,-2.118419e-003
2.121347e+003,-2.075024e-003
2.123276e+003,-2.075288e-003
2.125204e+003,-2.107834e-003
2.127133e+003,-2.137773e-003
2.129061e+003,-2.117364e-003
2.130990e+003,-2.142422e-003
2.132918e+003,-2.162105e-003
2.134847e+003,-2.193359e-003
2.136775e+003,-2.206546e-003
2.138704e+003,-2.175062e-003
2.140632e+003,-2.167512e-003
2.142561e+003,-2.138795e-003
2.144489e+003,-2.021831e-003
2.146418e+003,-1.997458e-003
2.148346e+003,-2.028921e-003
2.150275e+003,-2.021369e-003
2.152203e+003,-2.045147e-003
2.154132e+003,-2.074925e-003
2.156060e+003,-2.046367e-003
2.157989e+003,-2.036803e-003
2.159917e+003,-2.009529e-003
2.161846e+003,-1.946102e-003
2.163774e+003,-1.953457e-003
2.165703e+003,-1.978196e-003
2.167631e+003,-2.036111e-003
2.169560e+003,-2.068363e-003
2.171488e+003,-1.997952e-003
2.173417e+003,-1.981857e-003
2.175345e+003,-2.006066e-003
2.177274e+003,-2.066022e-003
2.179202e+003,-2.030933e-003
2.181131e+003,-2.038320e-003
2.183059e+003,-2.157028e-003
2.184988e+003,-2.222864e-003
2.186916e+003,-2.123266e-003
2.188845e+003,-1.994522e-003
2.190773e+003,-2.059294e-003
2.192702e+003,-2.045279e-003
2.194630e+003,-2.034825e-003
2.196559e+003,-2.110571e-003
2.198487e+003,-2.185678e-003
2.200416e+003,-2.208359e-003
2.202344e+003,-2.163226e-003
2.204273e+003,-2.122178e-003
2.206201e+003,-2.229721e-003
2.208130e+003,-2.264167e-003
2.210058e+003,-2.229688e-003
2.211987e+003,-2.223029e-003
2.213915e+003,-2.178821e-003
2.215844e+003,-2.084719e-003
2.217772e+003,-2.007517e-003
2.219701e+003,-2.084818e-003
2.221629e+003,-2.159633e-003
2.223558e+003,-2.107538e-003
2.225486e+003,-2.052963e-003
2.227415e+003,-2.059558e-003
2.229343e+003,-2.074464e-003
2.231272e+003,-2.066516e-003
2.233200e+003,-2.070539e-003
2.235129e+003,-2.115814e-003
2.237057e+003,-2.153632e-003
2.238986e+003,-2.179711e-003
2.240914e+003,-2.206249e-003
2.242843e+003,-2.184096e-003
2.244771e+003,-2.057085e-003
2.246700e+003,-2.008078e-003
2.248628e+003,-2.157918e-003
2.250557e+003,-2.185019e-003
2.252485e+003,-2.053160e-003
2.254414e+003,-1.979086e-003
2.256342e+003,-2.039507e-003
2.258271e+003,-2.035814e-003
2.260199e+003,-2.082971e-003
2.262128e+003,-2.202063e-003
2.264056e+003,-2.267265e-003
2.265985e+003,-2.157753e-003
2.267913e+003,-2.120463e-003
2.269842e+003,-2.140246e-003
2.271770e+003,-2.085906e-003
2.273699e+003,-2.122540e-003
2.275627e+003,-2.183568e-003
2.277556e+003,-2.220161e-003
2.279484e+003,-2.233083e-003
2.281413e+003,-2.159732e-003
2.283341e+003,-2.154325e-003
2.285270e+003,-2.303390e-003
2.287198e+003,-2.367687e-003
2.289127e+003,-2.286844e-003
2.291055e+003,-2.176612e-003
2.292984e+003,-2.116902e-003
2.294912e+003,-2.191513e-003
2.296841e+003,-2.231896e-003
2.298769e+003,-2.151324e-003
2.300698e+003,-2.109186e-003
2.302626e+003,-2.114429e-003
2.304555e+003,-2.117067e-003
2.306483e+003,-2.126662e-003
2.308412e+003,-2.058107e-003
2.310340e+003,-2.006330e-003
2.312269e+003,-1.978394e-003
2.314197e+003,-1.935018e-003
2.316125e+003,-1.856569e-003
2.318054e+003,-1.808133e-003
2.319983e+003,-1.769789e-003
2.321911e+003,-1.650414e-003
2.323840e+003,-1.582775e-003
2.325768e+003,-1.498549e-003
2.327697e+003,-1.270223e-003
2.329625e+003,-1.180815e-003
2.331553e+003,-1.221325e-003
2.333482e+003,-1.200707e-003
2.335411e+003,-1.186069e-003
2.337339e+003,-1.167795e-003
2.339268e+003,-1.104344e-003
2.341196e+003,-1.226083e-003
2.343125e+003,-1.370975e-003
2.345053e+003,-1.505549e-003
2.346981e+003,-1.809189e-003
2.348910e+003,-2.046004e-003
2.350839e+003,-1.868710e-003
2.352767e+003,-1.517304e-003
2.354696e+003,-1.222382e-003
2.356624e+003,-1.011728e-003
2.358552e+003,-8.269998e-004
2.360481e+003,-7.316456e-004
2.362409e+003,-7.307525e-004
2.364338e+003,-7.391543e-004
2.366267e+003,-7.170248e-004
2.368195e+003,-7.834431e-004
2.370124e+003,-1.048552e-003
2.372052e+003,-1.270487e-003
2.373980e+003,-1.558080e-003
2.375909e+003,-1.762397e-003
2.377838e+003,-1.888142e-003
2.379766e+003,-2.003460e-003
2.381695e+003,-2.145159e-003
2.383623e+003,-2.276066e-003
2.385552e+003,-2.262387e-003
2.387480e+003,-2.186205e-003
2.389408e+003,-2.218644e-003
2.391337e+003,-2.231369e-003
2.393266e+003,-2.225336e-003
2.395194e+003,-2.227413e-003
2.397123e+003,-2.221908e-003
2.399051e+003,-2.246466e-003
2.400979e+003,-2.363997e-003
2.402908e+003,-2.386537e-003
2.404836e+003,-2.324648e-003
2.406765e+003,-2.313310e-003
2.408694e+003,-2.358526e-003
2.410622e+003,-2.342576e-003
2.412551e+003,-2.353056e-003
2.414479e+003,-2.361459e-003
2.416407e+003,-2.378002e-003
2.418336e+003,-2.394511e-003
2.420264e+003,-2.336380e-003
2.422193e+003,-2.200843e-003
2.424122e+003,-2.185843e-003
2.426050e+003,-2.280153e-003
2.427979e+003,-2.316507e-003
2.429907e+003,-2.362349e-003
2.431835e+003,-2.313673e-003
2.433764e+003,-2.184359e-003
2.435692e+003,-2.130256e-003
2.437621e+003,-2.179447e-003
2.439550e+003,-2.194546e-003
2.441478e+003,-2.197085e-003
2.443406e+003,-2.246103e-003
2.445335e+003,-2.256652e-003
2.447263e+003,-2.231336e-003
2.449192e+003,-2.146214e-003
2.451121e+003,-2.108296e-003
2.453049e+003,-2.138037e-003
2.454978e+003,-2.154687e-003
2.456906e+003,-2.229226e-003
2.458834e+003,-2.217919e-003
2.460763e+003,-2.152775e-003
2.462691e+003,-2.121024e-003
2.464620e+003,-2.122211e-003
2.466549e+003,-2.139125e-003
2.468477e+003,-2.131245e-003
2.470406e+003,-2.165237e-003
2.472334e+003,-2.138301e-003
2.474262e+003,-2.113934e-003
2.476191e+003,-2.090754e-003
2.478119e+003,-2.092139e-003
2.480048e+003,-2.186239e-003
2.481977e+003,-2.291426e-003
2.483905e+003,-2.272276e-003
2.485833e+003,-2.260080e-003
2.487762e+003,-2.252531e-003
2.489690e+003,-2.132300e-003
2.491619e+003,-2.110175e-003
2.493547e+003,-2.143378e-003
2.495476e+003,-2.102690e-003
2.497405e+003,-2.101503e-003
2.499333e+003,-2.100778e-003
2.501261e+003,-2.127057e-003
2.503190e+003,-2.180535e-003
2.505118e+003,-2.068132e-003
2.507047e+003,-1.930532e-003
2.508975e+003,-2.010518e-003
2.510904e+003,-1.995808e-003
2.512833e+003,-2.009529e-003
2.514761e+003,-2.138894e-003
2.516689e+003,-2.082246e-003
2.518618e+003,-2.044355e-003
2.520546e+003,-2.057184e-003
2.522475e+003,-2.023611e-003
2.524403e+003,-2.085346e-003
2.526332e+003,-2.114330e-003
2.528260e+003,-2.056063e-003
2.530189e+003,-2.059294e-003
2.532117e+003,-2.080795e-003
2.534046e+003,-2.113868e-003
2.535974e+003,-2.145554e-003
2.537903e+003,-2.120661e-003
2.539831e+003,-2.073804e-003
2.541760e+003,-2.037924e-003
2.543688e+003,-2.083202e-003
2.545617e+003,-2.079674e-003
2.547545e+003,-2.061207e-003
2.549474e+003,-2.078981e-003
2.551402e+003,-2.093260e-003
2.553331e+003,-2.184030e-003
2.555259e+003,-2.230874e-003
2.557188e+003,-2.083268e-003
2.559116e+003,-1.939603e-003
2.561045e+003,-2.007319e-003
2.562973e+003,-2.095898e-003
2.564902e+003,-1.981230e-003
2.566830e+003,-1.924198e-003
2.568759e+003,-1.942341e-003
2.570687e+003,-2.016125e-003
2.572616e+003,-2.124288e-003
2.574544e+003,-2.112022e-003
2.576473e+003,-1.951445e-003
2.578401e+003,-1.904339e-003
2.580330e+003,-1.960516e-003
2.582258e+003,-1.908166e-003
2.584187e+003,-1.882335e-003
2.586115e+003,-1.919283e-003
2.588044e+003,-1.980274e-003
2.589972e+003,-1.982978e-003
2.591901e+003,-1.994027e-003
2.593829e+003,-1.968201e-003
2.595758e+003,-1.868578e-003
2.597686e+003,-1.873988e-003
2.599615e+003,-1.934391e-003
2.601543e+003,-1.935678e-003
2.603472e+003,-1.889197e-003
2.605400e+003,-1.851389e-003
2.607329e+003,-1.840204e-003
2.609257e+003,-1.770548e-003
2.611186e+003,-1.739363e-003
2.613114e+003,-1.846407e-003
2.615043e+003,-1.822981e-003
2.616971e+003,-1.661637e-003
2.618900e+003,-1.630840e-003
2.620828e+003,-1.629156e-003
2.622757e+003,-1.555538e-003
2.624685e+003,-1.566268e-003
2.626614e+003,-1.592217e-003
2.628542e+003,-1.583501e-003
2.630471e+003,-1.607732e-003
2.632399e+003,-1.521101e-003
2.634328e+003,-1.393170e-003
2.636256e+003,-1.396275e-003
2.638185e+003,-1.422894e-003
2.640113e+003,-1.263318e-003
2.642042e+003,-1.207051e-003
2.643970e+003,-1.240125e-003
2.645899e+003,-1.201169e-003
2.647827e+003,-1.128767e-003
2.649756e+003,-1.057543e-003
2.651684e+003,-1.060286e-003
2.653613e+003,-1.035496e-003
2.655541e+003,-1.017678e-003
2.657470e+003,-1.050833e-003
2.659398e+003,-1.001150e-003
2.661327e+003,-1.004456e-003
2.663255e+003,-9.911333e-004
2.665184e+003,-8.631119e-004
2.667112e+003,-8.024935e-004
2.669041e+003,-8.536212e-004
2.670969e+003,-8.370864e-004
2.672898e+003,-7.801687e-004
2.674826e+003,-7.499044e-004
2.676755e+003,-7.751083e-004
2.678683e+003,-7.332334e-004
2.680612e+003,-6.695202e-004
2.682540e+003,-6.884764e-004
2.684469e+003,-6.655502e-004
2.686397e+003,-5.406759e-004
2.688326e+003,-3.747830e-004
2.690254e+003,-3.074082e-004
2.692183e+003,-4.596902e-004
2.694111e+003,-4.874263e-004
2.696040e+003,-3.597198e-004
2.697968e+003,-2.870778e-004
2.699897e+003,-2.424404e-004
2.701825e+003,-1.656386e-004
2.703754e+003,-1.560995e-004
2.705682e+003,-1.704412e-004
2.707611e+003,-7.295503e-005
2.709539e+003,3.873542e-005
2.711468e+003,1.454165e-004
2.713396e+003,1.784303e-004
2.715325e+003,1.696794e-004
2.717253e+003,2.328953e-004
2.719182e+003,3.009613e-004
2.721110e+003,3.742777e-004
2.723039e+003,5.500751e-004
2.724967e+003,7.122366e-004
2.726896e+003,7.721790e-004
2.728824e+003,8.209091e-004
2.730753e+003,8.985964e-004
2.732681e+003,9.703533e-004
2.734610e+003,1.013393e-003
2.736538e+003,1.143103e-003
2.738467e+003,1.261686e-003
2.740395e+003,1.322635e-003
2.742324e+003,1.528709e-003
2.744252e+003,1.593187e-003
2.746181e+003,1.552683e-003
2.748109e+003,1.603995e-003
2.750038e+003,1.731287e-003
2.751966e+003,1.825974e-003
2.753895e+003,2.040675e-003
2.755823e+003,2.240828e-003
2.757752e+003,2.329429e-003
2.759680e+003,2.411918e-003
2.761609e+003,2.637877e-003
2.763537e+003,2.986010e-003
2.765466e+003,3.235734e-003
2.767394e+003,3.487406e-003
2.769323e+003,3.811685e-003
2.771251e+003,4.177220e-003
2.773180e+003,4.714025e-003
2.775108e+003,5.251896e-003
2.777037e+003,5.866228e-003
2.778965e+003,6.503695e-003
2.780894e+003,7.214727e-003
2.782822e+003,7.938331e-003
2.784750e+003,8.602777e-003
2.786679e+003,9.247898e-003
2.788608e+003,9.947473e-003
2.790536e+003,1.084870e-002
2.792465e+003,1.183100e-002
2.794393e+003,1.276737e-002
2.796322e+003,1.355365e-002
2.798250e+003,1.425260e-002
2.800178e+003,1.492562e-002
2.802107e+003,1.553353e-002
2.804036e+003,1.618722e-002
2.805964e+003,1.679274e-002
2.807893e+003,1.699478e-002
2.809821e+003,1.702582e-002
2.811750e+003,1.704016e-002
2.813678e+003,1.695660e-002
2.815606e+003,1.684316e-002
2.817535e+003,1.660270e-002
2.819464e+003,1.639297e-002
2.821392e+003,1.604369e-002
2.823321e+003,1.551523e-002
2.825249e+003,1.486684e-002
2.827177e+003,1.417646e-002
2.829106e+003,1.360541e-002
2.831034e+003,1.294648e-002
2.832963e+003,1.225430e-002
2.834892e+003,1.168301e-002
2.836820e+003,1.110986e-002
2.838749e+003,1.035364e-002
2.840677e+003,9.626000e-003
2.842605e+003,8.921396e-003
2.844534e+003,8.133288e-003
2.846462e+003,7.320018e-003
2.848391e+003,6.620488e-003
2.850320e+003,6.130955e-003
2.852248e+003,5.909084e-003
2.854177e+003,5.936694e-003
2.856105e+003,5.891955e-003
2.858033e+003,5.746146e-003
2.859962e+003,5.573972e-003
2.861890e+003,5.722241e-003
2.863819e+003,5.961686e-003
2.865748e+003,5.884599e-003
2.867676e+003,5.963130e-003
2.869604e+003,6.188222e-003
2.871533e+003,6.436399e-003
2.873461e+003,6.576048e-003
2.875390e+003,6.642255e-003
2.877319e+003,6.843935e-003
2.879247e+003,7.089893e-003
2.881176e+003,7.063254e-003
2.883104e+003,6.967957e-003
2.885032e+003,6.943346e-003
2.886961e+003,6.886080e-003
2.888889e+003,6.874399e-003
2.890818e+003,6.771874e-003
2.892747e+003,6.604642e-003
2.894675e+003,6.431623e-003
2.896604e+003,6.217127e-003
2.898532e+003,6.170510e-003
2.900460e+003,6.174846e-003
2.902389e+003,6.132770e-003
2.904317e+003,6.003644e-003
2.906246e+003,5.901829e-003
2.908175e+003,5.920504e-003
2.910103e+003,5.877714e-003
2.912031e+003,5.650332e-003
2.913960e+003,5.470345e-003
2.915888e+003,5.384086e-003
2.917817e+003,5.419547e-003
2.919745e+003,5.576590e-003
2.921674e+003,5.906363e-003
2.923603e+003,6.359866e-003
2.925531e+003,6.663183e-003
2.927459e+003,7.013145e-003
2.929388e+003,7.482335e-003
2.931316e+003,7.766500e-003
2.933245e+003,8.001236e-003
2.935173e+003,8.207736e-003
2.937102e+003,8.413690e-003
2.939031e+003,8.537351e-003
2.940959e+003,8.437946e-003
2.942887e+003,8.325933e-003
2.944816e+003,8.144428e-003
2.946744e+003,7.859104e-003
2.948673e+003,7.443199e-003
2.950601e+003,6.896280e-003
2.952530e+003,6.287415e-003
2.954458e+003,5.630863e-003
2.956387e+003,5.005802e-003
2.958315e+003,4.373441e-003
2.960244e+003,3.736283e-003
2.962172e+003,2.943441e-003
2.964101e+003,2.320135e-003
2.966029e+003,1.762858e-003
2.967958e+003,1.047104e-003
2.969886e+003,5.135498e-004
2.971815e+003,2.570305e-004
2.973743e+003,-1.166824e-004
2.975672e+003,-5.048349e-004
2.977600e+003,-7.406428e-004
2.979529e+003,-1.035958e-003
2.981457e+003,-1.257437e-003
2.983386e+003,-1.415826e-003
2.985314e+003,-1.580662e-003
2.987243e+003,-1.759691e-003
2.989171e+003,-1.884150e-003
2.991100e+003,-1.905098e-003
2.993028e+003,-1.959131e-003
2.994957e+003,-1.993401e-003
2.996885e+003,-2.083169e-003
2.998814e+003,-2.199557e-003
3.000742e+003,-2.243598e-003
3.002671e+003,-2.271254e-003
3.004599e+003,-2.214886e-003
3.006528e+003,-2.264859e-003
3.008456e+003,-2.392204e-003
3.010385e+003,-2.419290e-003
3.012313e+003,-2.579431e-003
3.014242e+003,-2.652612e-003
3.016170e+003,-2.595932e-003
3.018099e+003,-2.508015e-003
3.020027e+003,-2.492598e-003
3.021956e+003,-2.599851e-003
3.023884e+003,-2.672042e-003
3.025813e+003,-2.664632e-003
3.027741e+003,-2.597381e-003
3.029670e+003,-2.537466e-003
3.031598e+003,-2.523795e-003
3.033527e+003,-2.644050e-003
3.035455e+003,-2.734507e-003
3.037384e+003,-2.578541e-003
3.039312e+003,-2.582099e-003
3.041241e+003,-2.757028e-003
3.043169e+003,-2.794428e-003
3.045098e+003,-2.826987e-003
3.047026e+003,-2.854868e-003
3.048955e+003,-2.845454e-003
3.050883e+003,-2.788206e-003
3.052812e+003,-2.763020e-003
3.054740e+003,-2.724004e-003
3.056669e+003,-2.781622e-003
3.058597e+003,-2.820831e-003
3.060526e+003,-2.806905e-003
3.062454e+003,-2.981218e-003
3.064383e+003,-2.935046e-003
3.066311e+003,-2.920203e-003
3.068240e+003,-2.875803e-003
3.070168e+003,-2.817802e-003
3.072097e+003,-2.845717e-003
3.074025e+003,-2.860859e-003
3.075954e+003,-2.887224e-003
3.077882e+003,-2.881662e-003
3.079811e+003,-2.891602e-003
3.081739e+003,-2.956767e-003
3.083668e+003,-2.945018e-003
3.085596e+003,-2.948276e-003
3.087525e+003,-2.971708e-003
3.089453e+003,-2.925074e-003
3.091382e+003,-2.876593e-003
3.093310e+003,-2.899534e-003
3.095239e+003,-3.003594e-003
3.097167e+003,-2.975722e-003
3.099096e+003,-2.841964e-003
3.101024e+003,-2.824847e-003
3.102953e+003,-2.794659e-003
3.104881e+003,-2.877547e-003
3.106810e+003,-2.974406e-003
3.108738e+003,-2.976051e-003
3.110667e+003,-2.983653e-003
3.112595e+003,-2.849371e-003
3.114524e+003,-2.709713e-003
3.116452e+003,-2.778066e-003
3.118381e+003,-2.878732e-003
3.120309e+003,-2.859773e-003
3.122238e+003,-2.877514e-003
3.124166e+003,-2.940312e-003
3.126095e+003,-2.932446e-003
3.128023e+003,-2.856152e-003
3.129952e+003,-2.786560e-003
3.131880e+003,-2.744121e-003
3.133809e+003,-2.760551e-003
3.135737e+003,-2.693446e-003
3.137666e+003,-2.647541e-003
3.139594e+003,-2.730819e-003
3.141523e+003,-2.731478e-003
3.143451e+003,-2.673129e-003
3.145380e+003,-2.743199e-003
3.147308e+003,-2.778593e-003
3.149237e+003,-2.729733e-003
3.151165e+003,-2.602882e-003
3.153094e+003,-2.531932e-003
3.155022e+003,-2.586512e-003
3.156951e+003,-2.621786e-003
3.158879e+003,-2.535687e-003
3.160808e+003,-2.608481e-003
3.162736e+003,-2.635059e-003
3.164665e+003,-2.510980e-003
3.166593e+003,-2.524454e-003
3.168522e+003,-2.509004e-003
3.170450e+003,-2.403375e-003
3.172379e+003,-2.260772e-003
3.174307e+003,-2.210106e-003
3.176236e+003,-2.221743e-003
3.178164e+003,-2.261135e-003
3.180093e+003,-2.306916e-003
3.182021e+003,-2.320561e-003
3.183950e+003,-2.338094e-003
3.185878e+003,-2.285394e-003
3.187807e+003,-2.185052e-003
3.189735e+003,-2.095370e-003
3.191664e+003,-2.108164e-003
3.193592e+003,-2.207667e-003
3.195521e+003,-2.200579e-003
3.197449e+003,-2.108098e-003
3.199378e+003,-2.095898e-003
3.201306e+003,-2.226952e-003
3.203235e+003,-2.225930e-003
3.205163e+003,-2.228336e-003
3.207092e+003,-2.207106e-003
3.209020e+003,-2.048082e-003
3.210948e+003,-1.981923e-003
3.212877e+003,-1.968300e-003
3.214806e+003,-2.082609e-003
3.216734e+003,-2.113044e-003
3.218663e+003,-2.053589e-003
3.220591e+003,-2.008243e-003
3.222520e+003,-1.903779e-003
3.224448e+003,-1.807407e-003
3.226376e+003,-1.872702e-003
3.228305e+003,-1.877123e-003
3.230234e+003,-1.802523e-003
3.232162e+003,-1.679560e-003
3.234091e+003,-1.598258e-003
3.236019e+003,-1.673652e-003
3.237948e+003,-1.786585e-003
3.239876e+003,-1.656026e-003
3.241804e+003,-1.597994e-003
3.243733e+003,-1.567886e-003
3.245662e+003,-1.524337e-003
3.247590e+003,-1.490525e-003
3.249519e+003,-1.415760e-003
3.251447e+003,-1.351421e-003
3.253375e+003,-1.282578e-003
3.255304e+003,-1.176420e-003
3.257232e+003,-1.148595e-003
3.259161e+003,-1.061377e-003
3.261090e+003,-9.432950e-004
3.263018e+003,-9.065613e-004
3.264947e+003,-9.730499e-004
3.266875e+003,-9.390630e-004
3.268803e+003,-7.923070e-004
3.270732e+003,-8.356643e-004
3.272660e+003,-9.611151e-004
3.274589e+003,-9.401540e-004
3.276518e+003,-8.075205e-004
3.278446e+003,-7.340604e-004
3.280375e+003,-7.760344e-004
3.282303e+003,-7.181164e-004
3.284231e+003,-7.177856e-004
3.286160e+003,-8.528275e-004
3.288088e+003,-8.354659e-004
3.290017e+003,-7.312818e-004
3.291946e+003,-8.422784e-004
3.293874e+003,-1.036256e-003
3.295802e+003,-1.131543e-003
3.297731e+003,-1.135938e-003
3.299659e+003,-1.017877e-003
3.301588e+003,-9.886869e-004
3.303516e+003,-1.136401e-003
3.305445e+003,-1.252680e-003
3.307374e+003,-1.399875e-003
3.309302e+003,-1.400601e-003
3.311230e+003,-1.486101e-003
3.313159e+003,-1.626978e-003
3.315087e+003,-1.657676e-003
3.317016e+003,-1.782560e-003
3.318944e+003,-1.968762e-003
3.320873e+003,-1.961143e-003
3.322802e+003,-2.042970e-003
3.324730e+003,-2.167809e-003
3.326658e+003,-2.152247e-003
3.328587e+003,-2.157622e-003
3.330515e+003,-2.246400e-003
3.332444e+003,-2.272737e-003
3.334372e+003,-2.065428e-003
3.336301e+003,-2.003295e-003
3.338229e+003,-2.120991e-003
3.340158e+003,-2.180997e-003
3.342086e+003,-2.082807e-003
3.344015e+003,-1.951973e-003
3.345943e+003,-2.066253e-003
3.347872e+003,-2.142323e-003
3.349800e+003,-2.215974e-003
3.351729e+003,-2.159831e-003
3.353657e+003,-2.100514e-003
3.355586e+003,-2.146939e-003
3.357514e+003,-2.180898e-003
3.359443e+003,-2.125376e-003
3.361371e+003,-2.180469e-003
3.363300e+003,-2.259025e-003
3.365229e+003,-2.217919e-003
3.367157e+003,-2.313870e-003
3.369085e+003,-2.611544e-003
3.371014e+003,-2.607427e-003
3.372942e+003,-2.535325e-003
3.374871e+003,-2.627221e-003
3.376799e+003,-2.867541e-003
3.378728e+003,-3.035051e-003
3.380656e+003,-3.048377e-003
3.382585e+003,-3.048673e-003
3.384513e+003,-3.262024e-003
3.386442e+003,-3.464556e-003
3.388370e+003,-3.538180e-003
3.390299e+003,-3.607651e-003
3.392227e+003,-3.680627e-003
3.394156e+003,-3.762197e-003
3.396084e+003,-3.712232e-003
3.398013e+003,-3.661670e-003
3.399941e+003,-3.718999e-003
3.401870e+003,-3.870878e-003
3.403798e+003,-3.986098e-003
3.405727e+003,-3.958256e-003
3.407655e+003,-3.924141e-003
3.409584e+003,-3.838431e-003
3.411512e+003,-3.817181e-003
3.413441e+003,-3.891042e-003
3.415369e+003,-3.955958e-003
3.417298e+003,-4.134536e-003
3.419226e+003,-4.065445e-003
3.421155e+003,-3.909037e-003
3.423083e+003,-3.865492e-003
3.425012e+003,-3.944237e-003
3.426940e+003,-3.962853e-003
3.428869e+003,-3.907855e-003
3.430797e+003,-3.853538e-003
3.432726e+003,-3.872093e-003
3.434654e+003,-3.924634e-003
3.436583e+003,-3.947258e-003
3.438511e+003,-4.038790e-003
3.440440e+003,-4.053201e-003
3.442368e+003,-4.071189e-003
3.444297e+003,-4.021456e-003
3.446225e+003,-3.930446e-003
3.448154e+003,-3.977792e-003
3.450082e+003,-4.054842e-003
3.452011e+003,-4.087962e-003
3.453939e+003,-4.182550e-003
3.455868e+003,-4.096890e-003
3.457796e+003,-4.025757e-003
3.459725e+003,-4.182648e-003
3.461653e+003,-4.150027e-003
3.463582e+003,-3.995094e-003
3.465510e+003,-4.151143e-003
3.467439e+003,-4.226948e-003
3.469367e+003,-4.057205e-003
3.471296e+003,-4.076900e-003
3.473224e+003,-4.394722e-003
3.475153e+003,-4.359656e-003
3.477081e+003,-4.077163e-003
3.479010e+003,-3.923583e-003
3.480938e+003,-3.945222e-003
3.482867e+003,-3.943842e-003
3.484795e+003,-4.012560e-003
3.486724e+003,-4.055400e-003
3.488652e+003,-3.970963e-003
3.490581e+003,-3.824341e-003
3.492509e+003,-3.929330e-003
3.494438e+003,-4.024936e-003
3.496366e+003,-3.970011e-003
3.498295e+003,-3.978350e-003
3.500223e+003,-3.917771e-003
3.502152e+003,-3.949227e-003
3.504080e+003,-4.074931e-003
3.506009e+003,-4.053266e-003
3.507937e+003,-3.938359e-003
3.509866e+003,-3.927326e-003
3.511794e+003,-3.922631e-003
3.513723e+003,-3.860402e-003
3.515651e+003,-3.980616e-003
3.517580e+003,-3.794058e-003
3.519508e+003,-3.730464e-003
3.521437e+003,-3.708027e-003
3.523365e+003,-3.717127e-003
3.525294e+003,-3.755562e-003
3.527222e+003,-3.734373e-003
3.529151e+003,-3.679937e-003
3.531079e+003,-3.590268e-003
3.533008e+003,-3.816032e-003
3.534936e+003,-3.909201e-003
3.536865e+003,-3.950541e-003
3.538793e+003,-3.866707e-003
3.540722e+003,-3.830811e-003
3.542650e+003,-3.845361e-003
3.544579e+003,-3.773431e-003
3.546507e+003,-3.534039e-003
3.548436e+003,-3.541926e-003
3.550364e+003,-3.519808e-003
3.552293e+003,-3.592568e-003
3.554221e+003,-3.862570e-003
3.556150e+003,-3.804832e-003
3.558078e+003,-3.668438e-003
3.560007e+003,-3.622799e-003
3.561935e+003,-3.697711e-003
3.563864e+003,-3.805686e-003
3.565792e+003,-3.534598e-003
3.567721e+003,-3.387434e-003
3.569649e+003,-3.536635e-003
3.571578e+003,-3.749911e-003
3.573506e+003,-3.902568e-003
3.575435e+003,-3.945025e-003
3.577363e+003,-3.894325e-003
3.579292e+003,-3.734571e-003
3.581220e+003,-3.604694e-003
3.583149e+003,-3.719985e-003
3.585077e+003,-3.689301e-003
3.587006e+003,-3.374908e-003
3.588934e+003,-3.451539e-003
3.590863e+003,-3.777471e-003
3.592791e+003,-3.735228e-003
3.594720e+003,-3.620598e-003
3.596648e+003,-3.746692e-003
3.598577e+003,-3.771624e-003
3.600505e+003,-3.647344e-003
3.602434e+003,-3.758945e-003
3.604362e+003,-3.967450e-003
3.606291e+003,-3.834588e-003
3.608219e+003,-3.737429e-003
3.610148e+003,-3.881814e-003
3.612076e+003,-3.755299e-003
3.614005e+003,-3.612810e-003
3.615933e+003,-3.574560e-003
3.617862e+003,-3.382206e-003
3.619790e+003,-3.380398e-003
3.621719e+003,-3.703822e-003
3.623647e+003,-3.856034e-003
3.625576e+003,-3.870681e-003
3.627504e+003,-3.426391e-003
3.629433e+003,-3.100589e-003
3.631361e+003,-3.800201e-003
3.633290e+003,-4.028646e-003
3.635218e+003,-3.935371e-003
3.637146e+003,-3.893209e-003
3.639075e+003,-4.051920e-003
3.641004e+003,-3.958880e-003
3.642932e+003,-3.972375e-003
3.644861e+003,-4.130696e-003
3.646789e+003,-3.465410e-003
3.648718e+003,-2.625179e-003
3.650646e+003,-3.012117e-003
3.652574e+003,-4.021095e-003
3.654503e+003,-4.042597e-003
3.656432e+003,-3.653916e-003
3.658360e+003,-4.064624e-003
3.660289e+003,-4.191509e-003
3.662217e+003,-4.097612e-003
3.664146e+003,-4.240565e-003
3.666074e+003,-4.128891e-003
3.668002e+003,-3.737494e-003
3.669931e+003,-3.253145e-003
3.671860e+003,-3.459987e-003
3.673788e+003,-3.266037e-003
3.675717e+003,-2.665522e-003
3.677645e+003,-3.473036e-003
3.679573e+003,-3.970405e-003
3.681502e+003,-4.095577e-003
3.683430e+003,-4.154129e-003
3.685359e+003,-4.103914e-003
3.687288e+003,-3.529142e-003
3.689216e+003,-3.314968e-003
3.691145e+003,-3.763248e-003
3.693073e+003,-4.117010e-003
3.695001e+003,-4.352538e-003
3.696930e+003,-4.330854e-003
3.698858e+003,-4.115730e-003
3.700787e+003,-3.802664e-003
3.702716e+003,-4.026216e-003
3.704644e+003,-4.307726e-003
3.706573e+003,-4.064230e-003
3.708501e+003,-3.581133e-003
3.710429e+003,-3.236866e-003
3.712358e+003,-3.193024e-003
3.714286e+003,-3.920989e-003
3.716215e+003,-4.331412e-003
3.718144e+003,-3.994996e-003
3.720072e+003,-3.773267e-003
3.722000e+003,-3.774909e-003
3.723929e+003,-3.920398e-003
3.725857e+003,-3.670672e-003
3.727786e+003,-3.705004e-003
3.729714e+003,-3.680726e-003
3.731643e+003,-3.373527e-003
3.733572e+003,-3.291226e-003
3.735500e+003,-2.911449e-003
3.737428e+003,-3.098451e-003
3.739357e+003,-3.538771e-003
3.741285e+003,-3.361000e-003
3.743214e+003,-2.272309e-003
3.745142e+003,-2.039178e-003
3.747071e+003,-2.777934e-003
3.749000e+003,-2.391381e-003
3.750928e+003,-2.407033e-003
3.752856e+003,-2.727099e-003
3.754785e+003,-3.225026e-003
3.756713e+003,-3.194603e-003
3.758642e+003,-3.163717e-003
3.760570e+003,-3.143684e-003
3.762499e+003,-3.166611e-003
3.764427e+003,-3.071210e-003
3.766356e+003,-3.312896e-003
3.768284e+003,-3.082659e-003
3.770213e+003,-2.960420e-003
3.772141e+003,-3.137401e-003
3.774070e+003,-3.315330e-003
3.775998e+003,-3.377209e-003
3.777927e+003,-3.147500e-003
3.779855e+003,-3.181709e-003
3.781784e+003,-3.525494e-003
3.783712e+003,-3.530785e-003
3.785641e+003,-3.662228e-003
3.787569e+003,-3.794814e-003
3.789498e+003,-3.759471e-003
3.791426e+003,-3.619744e-003
3.793355e+003,-3.502257e-003
3.795283e+003,-3.124045e-003
3.797212e+003,-3.193123e-003
3.799140e+003,-3.179308e-003
3.801069e+003,-2.556867e-003
3.802997e+003,-2.888475e-003
3.804926e+003,-2.905228e-003
3.806854e+003,-2.493355e-003
3.808783e+003,-3.057589e-003
3.810711e+003,-3.512610e-003
3.812640e+003,-3.573771e-003
3.814568e+003,-3.042717e-003
3.816497e+003,-2.658507e-003
3.818425e+003,-2.778297e-003
3.820354e+003,-2.482451e-003
3.822282e+003,-2.809342e-003
3.824211e+003,-3.360310e-003
3.826139e+003,-3.368957e-003
3.828068e+003,-3.446575e-003
3.829996e+003,-3.149605e-003
3.831925e+003,-3.012479e-003
3.833853e+003,-3.173585e-003
3.835782e+003,-3.101741e-003
3.837710e+003,-2.708462e-003
3.839639e+003,-2.684127e-003
3.841567e+003,-3.034393e-003
3.843496e+003,-3.203648e-003
3.845424e+003,-3.269489e-003
3.847353e+003,-3.465049e-003
3.849281e+003,-3.489865e-003
3.851210e+003,-2.694072e-003
3.853138e+003,-1.273890e-003
3.855067e+003,-1.808133e-003
3.856995e+003,-3.070947e-003
3.858924e+003,-3.602591e-003
3.860852e+003,-3.349164e-003
3.862781e+003,-2.860793e-003
3.864709e+003,-2.804930e-003
3.866638e+003,-3.021330e-003
3.868566e+003,-2.764041e-003
3.870495e+003,-2.558317e-003
3.872423e+003,-2.983291e-003
3.874352e+003,-3.339925e-003
3.876280e+003,-3.641233e-003
3.878209e+003,-3.519380e-003
3.880137e+003,-3.095622e-003
3.882066e+003,-3.286031e-003
3.883994e+003,-3.370962e-003
3.885923e+003,-3.013170e-003
3.887851e+003,-3.425668e-003
3.889780e+003,-3.502651e-003
3.891708e+003,-3.443321e-003
3.893637e+003,-3.473233e-003
3.895565e+003,-3.473233e-003
3.897494e+003,-3.084305e-003
3.899422e+003,-2.836368e-003
3.901351e+003,-2.919019e-003
3.903279e+003,-2.935310e-003
3.905208e+003,-3.191774e-003
3.907136e+003,-3.555499e-003
3.909065e+003,-3.685194e-003
3.910993e+003,-3.508929e-003
3.912922e+003,-3.210555e-003
3.914850e+003,-2.992999e-003
3.916779e+003,-3.092891e-003
3.918707e+003,-3.480465e-003
3.920636e+003,-3.636173e-003
3.922564e+003,-3.649447e-003
3.924493e+003,-3.456009e-003
3.926421e+003,-3.490161e-003
3.928350e+003,-3.485822e-003
3.930278e+003,-3.258341e-003
3.932207e+003,-3.206016e-003
3.934135e+003,-3.388223e-003
3.936064e+003,-3.431157e-003
3.937992e+003,-3.358666e-003
3.939921e+003,-3.279520e-003
3.941849e+003,-3.387894e-003
3.943778e+003,-3.612087e-003
3.945706e+003,-3.409789e-003
3.947635e+003,-3.046205e-003
3.949563e+003,-3.170263e-003
3.951492e+003,-3.391149e-003
3.953420e+003,-3.582283e-003
3.955349e+003,-3.655985e-003
3.957277e+003,-3.687297e-003
3.959206e+003,-3.644847e-003
3.961134e+003,-3.519742e-003
3.963063e+003,-3.409428e-003
3.964991e+003,-3.376979e-003
3.966920e+003,-3.372442e-003
3.968848e+003,-3.389801e-003
3.970777e+003,-3.400223e-003
3.972705e+003,-3.435464e-003
3.974634e+003,-3.476783e-003
3.976562e+003,-3.475140e-003
3.978491e+003,-3.369812e-003
3.980419e+003,-3.420835e-003
3.982348e+003,-3.588526e-003
3.984276e+003,-3.574133e-003
3.986205e+003,-3.486414e-003
3.988133e+003,-3.418008e-003
3.990062e+003,-3.341010e-003
3.991990e+003,-3.301913e-003
3.993919e+003,-3.475699e-003
3.995847e+003,-3.618856e-003
3.997776e+003,-3.516324e-003
3.999704e+003,-3.445589e-003
4.001633e+003,0.000000e+000
