3.991989e+002,-1.610597e-002
4.011274e+002,-2.020182e-002
4.030559e+002,-9.659785e-003
4.049844e+002,-2.455731e-003
4.069129e+002,-1.204921e-002
4.088414e+002,-1.569764e-002
4.107699e+002,-1.149186e-002
4.126984e+002,-1.112375e-002
4.146269e+002,-9.274705e-003
4.165554e+002,-6.757034e-003
4.184839e+002,-6.777489e-003
4.204124e+002,-5.470260e-003
4.223409e+002,-7.411960e-003
4.242694e+002,-7.979732e-003
4.261979e+002,-6.140293e-003
4.281264e+002,-4.548332e-003
4.300549e+002,-2.151423e-003
4.319834e+002,-1.010704e-003
4.339119e+002,-2.326691e-003
4.358404e+002,-3.370601e-003
4.377689e+002,-4.227899e-003
4.396974e+002,-4.579579e-003
4.416259e+002,-7.599216e-003
4.435544e+002,-4.487766e-003
4.454829e+002,-2.964402e-003
4.474114e+002,-3.800923e-003
4.493399e+002,-4.899194e-003
4.512684e+002,-4.107426e-003
4.531969e+002,-2.804733e-003
4.551254e+002,-2.420971e-003
4.570539e+002,-2.001086e-003
4.589824e+002,-1.645760e-003
4.609109e+002,-1.648896e-003
4.628394e+002,-1.089868e-003
4.647679e+002,-4.288928e-003
4.666964e+002,-4.963077e-003
4.686249e+002,-3.650827e-003
4.705533e+002,-8.106519e-003
4.724819e+002,-1.084336e-002
4.744103e+002,-7.515107e-003
4.763389e+002,-4.586234e-003
4.782673e+002,-3.055878e-003
4.801959e+002,-3.923879e-003
4.821243e+002,-3.343410e-003
4.840529e+002,-2.409175e-003
4.859813e+002,-4.109327e-004
4.879099e+002,-9.286812e-004
4.898383e+002,-3.047817e-003
4.917668e+002,-2.569088e-003
4.936953e+002,-1.599545e-003
4.956238e+002,-9.728515e-004
4.975523e+002,9.460456e-004
4.994808e+002,9.269192e-004
5.014093e+002,-1.182764e-003
5.033378e+002,-9.896456e-004
5.052663e+002,9.064323e-004
5.071948e+002,3.098806e-004
5.091233e+002,1.086933e-004
5.110518e+002,1.767729e-004
5.129803e+002,-1.066903e-005
5.149088e+002,-1.570560e-003
5.168373e+002,-2.653831e-003
5.187658e+002,-2.078124e-003
5.206943e+002,-1.347391e-003
5.226228e+002,-1.495544e-003
5.245513e+002,-1.774574e-003
5.264798e+002,-1.357465e-003
5.284083e+002,-1.318950e-003
5.303368e+002,-1.293216e-003
5.322653e+002,-6.129115e-004
5.341938e+002,-9.102316e-004
5.361223e+002,-1.839247e-003
5.380508e+002,-2.068066e-003
5.399792e+002,-1.070301e-003
5.419078e+002,-1.278647e-003
5.438363e+002,-1.291069e-003
5.457648e+002,-1.592184e-003
5.476932e+002,-1.481213e-003
5.496218e+002,-2.118814e-003
5.515503e+002,-2.146577e-003
5.534788e+002,-2.621655e-003
5.554072e+002,-4.350898e-003
5.573358e+002,-4.904928e-003
5.592643e+002,-2.995203e-003
5.611927e+002,-2.323626e-003
5.631212e+002,-3.235057e-003
5.650497e+002,-3.470505e-003
5.669783e+002,-2.978914e-003
5.689067e+002,-2.023282e-003
5.708352e+002,-3.028799e-003
5.727637e+002,-2.315419e-003
5.746923e+002,-1.601295e-003
5.766207e+002,7.942530e-004
5.785492e+002,3.663332e-003
5.804777e+002,4.276658e-003
5.824063e+002,2.185211e-003
5.843347e+002,-2.860596e-003
5.862632e+002,-4.902667e-003
5.881917e+002,-4.288238e-003
5.901202e+002,-1.898632e-003
5.920487e+002,-1.610901e-003
5.939772e+002,-1.699775e-004
5.959057e+002,-3.073751e-004
5.978342e+002,-1.450503e-003
5.997627e+002,-2.229259e-003
6.016912e+002,-1.650612e-003
6.036197e+002,-2.160391e-003
6.055482e+002,-1.675665e-003
6.074767e+002,-1.529125e-003
6.094052e+002,-1.364534e-003
6.113337e+002,-6.121505e-004
6.132622e+002,1.140047e-003
6.151907e+002,2.973141e-004
6.171192e+002,-4.861686e-004
6.190477e+002,-1.205399e-003
6.209762e+002,-9.188944e-004
6.229047e+002,-1.016786e-003
6.248332e+002,-1.315448e-003
6.267617e+002,-1.033281e-003
6.286902e+002,1.481117e-005
6.306187e+002,1.156201e-004
6.325472e+002,-5.874268e-005
6.344756e+002,-1.241149e-003
6.364042e+002,-7.681956e-004
6.383326e+002,-4.665417e-004
6.402612e+002,-7.325388e-004
6.421896e+002,-8.369210e-004
6.441182e+002,-1.113824e-004
6.460466e+002,-3.450864e-004
6.479752e+002,-5.373666e-004
6.499036e+002,-5.379292e-004
6.518322e+002,-6.182716e-004
6.537606e+002,-5.944484e-004
6.556891e+002,-5.421320e-004
6.576177e+002,-9.824388e-004
6.595461e+002,-1.172289e-003
6.614746e+002,-1.351256e-003
6.634031e+002,-1.217459e-003
6.653317e+002,-8.408894e-004
6.672601e+002,5.411176e-004
6.691886e+002,3.934792e-004
6.711171e+002,2.346524e-004
6.730457e+002,1.076327e-004
6.749741e+002,-8.355601e-005
6.769026e+002,-9.756879e-005
6.788311e+002,1.093437e-005
6.807596e+002,-1.409956e-004
6.826881e+002,9.772328e-005
6.846166e+002,-3.058164e-005
6.865451e+002,3.409505e-004
6.884736e+002,8.880831e-005
6.904021e+002,-1.883593e-004
6.923306e+002,2.528201e-005
6.942591e+002,-1.663673e-004
6.961876e+002,-5.006979e-004
6.981161e+002,-8.826011e-005
7.000446e+002,-1.526548e-004
7.019731e+002,-3.501850e-004
7.039016e+002,-2.636338e-004
7.058301e+002,-1.388757e-004
7.077585e+002,-3.033356e-004
7.096871e+002,-3.410473e-004
7.116156e+002,-7.060754e-004
7.135441e+002,-4.077217e-004
7.154725e+002,-2.951571e-004
7.174011e+002,-7.449760e-004
7.193296e+002,-9.175718e-004
7.212581e+002,-3.200232e-004
7.231865e+002,1.275679e-005
7.251151e+002,2.187397e-004
7.270436e+002,1.630501e-004
7.289720e+002,3.196291e-004
7.309005e+002,2.417138e-004
7.328290e+002,3.208560e-004
7.347576e+002,-3.847477e-004
7.366860e+002,-7.507314e-004
7.386145e+002,-8.719079e-004
7.405430e+002,-4.086486e-004
7.424716e+002,1.942752e-004
7.444000e+002,-1.905165e-005
7.463285e+002,-3.447553e-004
7.482570e+002,-3.949398e-005
7.501855e+002,-1.238374e-004
7.521140e+002,-1.488789e-004
7.540425e+002,-3.273403e-004
7.559710e+002,-7.517463e-005
7.578995e+002,-3.085671e-004
7.598280e+002,-4.227833e-004
7.617565e+002,-4.318200e-004
7.636850e+002,-1.439435e-004
7.656135e+002,-4.570092e-004
7.675420e+002,-6.592313e-004
7.694705e+002,-8.993862e-004
7.713990e+002,-8.774632e-004
7.733275e+002,-2.638656e-004
7.752560e+002,2.961204e-004
7.771844e+002,-7.649976e-005
7.791130e+002,-4.560824e-004
7.810415e+002,-8.971771e-005
7.829700e+002,2.174137e-004
7.848984e+002,4.945088e-004
7.868270e+002,8.874405e-004
7.887555e+002,3.079575e-004
7.906840e+002,-1.376832e-004
7.926124e+002,-4.364210e-004
7.945410e+002,-4.784570e-004
7.964695e+002,-5.291594e-004
7.983979e+002,-1.824971e-004
8.003264e+002,9.414401e-005
8.022549e+002,2.576936e-004
8.041835e+002,-2.534015e-004
8.061119e+002,-6.301827e-004
8.080404e+002,-3.235659e-004
8.099689e+002,1.288443e-004
8.118975e+002,2.167020e-005
8.138259e+002,-1.413599e-004
8.157545e+002,-3.022429e-004
8.176830e+002,-4.577374e-004
8.196115e+002,-1.690170e-004
8.215399e+002,1.307335e-004
8.234684e+002,-2.134633e-004
8.253970e+002,-1.941883e-004
8.273254e+002,-7.461145e-005
8.292539e+002,-6.725689e-005
8.311824e+002,-2.887996e-004
8.331110e+002,-1.403331e-004
8.350394e+002,4.705059e-006
8.369679e+002,-6.182372e-005
8.388964e+002,-1.988581e-004
8.408250e+002,-3.206522e-004
8.427534e+002,-2.645279e-004
8.446819e+002,-2.720115e-004
8.466104e+002,-5.160210e-004
8.485389e+002,-1.034322e-004
8.504674e+002,-9.743628e-005
8.523959e+002,-5.215478e-004
8.543244e+002,-7.474567e-004
8.562529e+002,-3.723001e-004
8.581814e+002,3.150201e-004
8.601099e+002,3.254982e-004
8.620384e+002,-4.830674e-005
8.639669e+002,-8.511301e-005
8.658954e+002,-4.068669e-005
8.678239e+002,2.153252e-004
8.697524e+002,1.202932e-004
8.716809e+002,-1.421880e-004
8.736094e+002,-3.598853e-004
8.755378e+002,-2.289502e-005
8.774664e+002,6.958705e-005
8.793949e+002,2.088609e-004
8.813234e+002,2.472503e-004
8.832518e+002,3.302731e-004
8.851804e+002,4.572521e-006
8.871089e+002,-4.861686e-004
8.890374e+002,-5.910402e-004
8.909658e+002,1.488305e-004
8.928943e+002,2.165849e-004
8.948229e+002,-6.003473e-005
8.967513e+002,-2.198218e-004
8.986798e+002,-1.472558e-004
9.006083e+002,-1.430161e-004
9.025369e+002,-5.761627e-005
9.044653e+002,2.372462e-005
9.063938e+002,-2.193582e-004
9.083223e+002,-2.441955e-004
9.102509e+002,2.273259e-004
9.121793e+002,1.985514e-004
9.141078e+002,-1.301310e-004
9.160364e+002,1.137972e-004
9.179648e+002,3.689717e-004
9.198933e+002,1.458805e-004
9.218218e+002,1.424666e-004
9.237504e+002,1.182715e-004
9.256788e+002,1.808832e-004
9.276073e+002,1.279825e-004
9.295358e+002,3.126991e-004
9.314644e+002,1.969934e-004
9.333928e+002,-5.125533e-005
9.353213e+002,4.496522e-005
9.372498e+002,-3.710854e-005
9.391783e+002,-3.550517e-004
9.411068e+002,-8.548498e-006
9.430353e+002,5.487344e-005
9.449637e+002,2.433051e-004
9.468923e+002,2.561337e-005
9.488208e+002,-1.689507e-004
9.507493e+002,-7.931565e-005
9.526777e+002,9.493940e-005
9.546063e+002,2.074023e-004
9.565348e+002,2.263976e-004
9.584633e+002,-1.232569e-005
9.603917e+002,-1.198293e-004
9.623203e+002,-1.230424e-004
9.642488e+002,-2.577395e-004
9.661772e+002,-1.959768e-004
9.681057e+002,1.562220e-004
9.700343e+002,1.110464e-004
9.719628e+002,9.934721e-005
9.738912e+002,-1.404325e-004
9.758197e+002,-1.693116e-005
9.777483e+002,-1.418114e-005
9.796768e+002,-3.376371e-004
9.816052e+002,-3.573361e-004
9.835337e+002,-9.799943e-005
9.854623e+002,-4.038852e-005
9.873907e+002,5.225552e-005
9.893192e+002,1.587150e-005
9.912477e+002,-2.408778e-005
9.931763e+002,4.834525e-005
9.951047e+002,1.879107e-004
9.970332e+002,-1.530766e-005
9.989617e+002,-4.373473e-005
1.000890e+003,-2.083300e-004
1.002819e+003,-2.424735e-004
1.004747e+003,-8.733255e-005
1.006676e+003,4.042372e-006
1.008604e+003,1.474052e-004
1.010533e+003,1.866842e-004
1.012461e+003,4.993587e-005
1.014390e+003,-6.102861e-005
1.016318e+003,-1.491029e-006
1.018247e+003,-1.434680e-005
1.020175e+003,-4.896935e-005
1.022104e+003,-4.525874e-005
1.024032e+003,-1.709683e-005
1.025961e+003,1.555259e-004
1.027889e+003,1.721655e-004
1.029818e+003,1.176274e-005
1.031746e+003,1.086270e-004
1.033675e+003,9.583421e-005
1.035603e+003,-1.218499e-004
1.037532e+003,3.224062e-005
1.039460e+003,1.933470e-004
1.041389e+003,1.805518e-004
1.043317e+003,2.916112e-004
1.045246e+003,1.669614e-004
1.047174e+003,7.985377e-006
1.049103e+003,2.250384e-004
1.051031e+003,3.270898e-004
1.052960e+003,2.823938e-004
1.054888e+003,2.174137e-004
1.056817e+003,1.697126e-004
1.058745e+003,2.605448e-004
1.060674e+003,2.387301e-004
1.062602e+003,1.248670e-004
1.064531e+003,9.185727e-005
1.066459e+003,7.555218e-005
1.068388e+003,2.771553e-004
1.070316e+003,2.542125e-004
1.072245e+003,9.782270e-005
1.074173e+003,1.322068e-005
1.076102e+003,1.070243e-005
1.078030e+003,1.009049e-004
1.079959e+003,3.560054e-004
1.081887e+003,3.998800e-004
1.083816e+003,4.033954e-004
1.085744e+003,2.154578e-004
1.087673e+003,3.002650e-004
1.089601e+003,5.510371e-004
1.091530e+003,5.782756e-004
1.093458e+003,5.634784e-004
1.095387e+003,3.473836e-004
1.097315e+003,1.331530e-004
1.099244e+003,1.409751e-004
1.101172e+003,3.366549e-005
1.103101e+003,8.102028e-005
1.105029e+003,1.166475e-004
1.106958e+003,1.636799e-004
1.108886e+003,2.235798e-004
1.110815e+003,1.800214e-004
1.112743e+003,1.511175e-004
1.114672e+003,1.468417e-004
1.116600e+003,1.117755e-004
1.118529e+003,7.585044e-005
1.120457e+003,6.776440e-005
1.122386e+003,2.066067e-004
1.124314e+003,1.111789e-004
1.126243e+003,1.249171e-005
1.128171e+003,1.534133e-005
1.130100e+003,3.032160e-004
1.132028e+003,3.925175e-004
1.133957e+003,2.916112e-004
1.135885e+003,2.287514e-004
1.137814e+003,9.788898e-005
1.139742e+003,2.764259e-004
1.141671e+003,2.577931e-004
1.143599e+003,-1.143109e-005
1.145528e+003,1.843969e-004
1.147456e+003,2.080985e-004
1.149385e+003,1.696131e-004
1.151313e+003,2.121759e-004
1.153242e+003,-1.746129e-005
1.155170e+003,1.550701e-005
1.157099e+003,4.344090e-005
1.159027e+003,-2.697027e-005
1.160956e+003,7.989351e-005
1.162884e+003,7.840221e-005
1.164813e+003,1.520456e-004
1.166741e+003,1.125046e-004
1.168670e+003,3.578624e-005
1.170598e+003,1.039871e-004
1.172526e+003,1.409751e-004
1.174455e+003,1.697789e-004
1.176384e+003,3.012597e-004
1.178312e+003,1.647074e-004
1.180240e+003,-7.196117e-005
1.182169e+003,-1.500946e-005
1.184098e+003,9.132701e-005
1.186026e+003,5.699429e-005
1.187954e+003,1.232098e-004
1.189883e+003,2.785809e-004
1.191812e+003,3.336554e-004
1.193740e+003,1.706075e-004
1.195668e+003,2.096897e-004
1.197597e+003,2.257678e-004
1.199526e+003,2.322986e-004
1.201454e+003,2.916775e-004
1.203382e+003,3.313011e-004
1.205311e+003,1.811153e-004
1.207240e+003,1.863527e-004
1.209168e+003,1.312969e-004
1.211096e+003,2.650869e-004
1.213025e+003,3.585920e-004
1.214953e+003,3.102786e-004
1.216882e+003,1.622877e-004
1.218810e+003,-1.988042e-007
1.220739e+003,-5.374009e-005
1.222667e+003,7.508822e-005
1.224596e+003,1.973249e-004
1.226524e+003,2.598818e-004
1.228453e+003,2.853447e-004
1.230381e+003,3.286483e-004
1.232310e+003,2.842837e-004
1.234238e+003,2.921417e-004
1.236167e+003,3.184023e-004
1.238095e+003,2.277900e-004
1.240024e+003,1.663647e-004
1.241952e+003,1.706407e-004
1.243881e+003,8.539481e-005
1.245809e+003,-2.577752e-005
1.247738e+003,3.856973e-005
1.249666e+003,2.046841e-004
1.251595e+003,2.005735e-004
1.253523e+003,2.034575e-004
1.255452e+003,2.810676e-004
1.257380e+003,2.963194e-004
1.259309e+003,3.497380e-004
1.261237e+003,2.776526e-004
1.263166e+003,1.128029e-004
1.265094e+003,6.879171e-005
1.267023e+003,-5.533349e-006
1.268951e+003,1.010706e-004
1.270880e+003,2.330279e-004
1.272808e+003,2.175132e-004
1.274737e+003,2.261987e-004
1.276665e+003,2.033249e-004
1.278594e+003,1.740217e-004
1.280522e+003,1.191664e-004
1.282451e+003,1.752481e-004
1.284379e+003,2.408187e-004
1.286308e+003,2.456921e-004
1.288236e+003,2.201652e-004
1.290165e+003,1.631495e-004
1.292093e+003,1.115435e-004
1.294022e+003,1.126704e-004
1.295950e+003,1.973249e-004
1.297879e+003,2.281215e-004
1.299807e+003,1.599675e-004
1.301736e+003,2.962199e-004
1.303664e+003,3.634668e-004
1.305593e+003,2.936668e-004
1.307521e+003,2.755970e-004
1.309450e+003,2.870024e-004
1.311378e+003,2.462226e-004
1.313307e+003,8.244532e-005
1.315235e+003,1.255299e-004
1.317164e+003,3.487764e-004
1.319092e+003,3.010940e-004
1.321021e+003,2.576936e-004
1.322949e+003,2.961204e-004
1.324878e+003,2.751659e-004
1.326806e+003,1.814799e-004
1.328735e+003,1.406105e-004
1.330663e+003,2.928048e-004
1.332592e+003,2.655511e-004
1.334520e+003,2.469188e-004
1.336449e+003,1.899990e-004
1.338377e+003,1.894355e-004
1.340306e+003,2.629319e-004
1.342234e+003,2.062089e-004
1.344163e+003,8.678672e-005
1.346091e+003,3.187612e-005
1.348020e+003,1.427980e-004
1.349948e+003,1.636136e-004
1.351877e+003,8.681986e-005
1.353805e+003,1.782977e-004
1.355734e+003,2.685018e-004
1.357662e+003,2.359785e-004
1.359591e+003,2.320997e-004
1.361519e+003,2.545772e-004
1.363448e+003,2.525548e-004
1.365376e+003,2.417470e-004
1.367305e+003,1.889383e-004
1.369233e+003,1.958332e-004
1.371162e+003,2.901854e-004
1.373090e+003,3.478147e-004
1.375019e+003,3.789205e-004
1.376947e+003,2.805703e-004
1.378876e+003,2.478471e-004
1.380804e+003,3.751399e-004
1.382733e+003,3.587910e-004
1.384661e+003,3.296431e-004
1.386590e+003,4.674414e-004
1.388518e+003,4.567278e-004
1.390447e+003,2.320334e-004
1.392375e+003,1.969934e-004
1.394304e+003,3.617755e-004
1.396232e+003,4.023010e-004
1.398161e+003,4.304256e-004
1.400089e+003,4.096636e-004
1.402018e+003,2.726130e-004
1.403946e+003,3.397568e-004
1.405875e+003,3.630025e-004
1.407803e+003,3.617092e-004
1.409732e+003,4.340076e-004
1.411660e+003,3.794511e-004
1.413589e+003,3.135280e-004
1.415517e+003,3.710941e-004
1.417446e+003,4.493311e-004
1.419374e+003,5.957941e-004
1.421303e+003,3.996147e-004
1.423231e+003,2.944295e-004
1.425160e+003,3.054707e-004
1.427088e+003,2.698280e-004
1.429017e+003,2.730772e-004
1.430945e+003,2.494715e-004
1.432874e+003,3.864817e-004
1.434802e+003,6.377682e-004
1.436731e+003,7.045370e-004
1.438659e+003,3.530873e-004
1.440588e+003,1.531394e-004
1.442516e+003,2.699606e-004
1.444445e+003,3.663519e-004
1.446373e+003,3.459909e-004
1.448302e+003,3.390273e-004
1.450230e+003,2.378350e-004
1.452159e+003,1.523107e-004
1.454087e+003,1.985514e-004
1.456016e+003,7.076898e-004
1.457944e+003,9.164930e-004
1.459873e+003,4.937127e-004
1.461801e+003,2.603790e-004
1.463730e+003,3.520925e-004
1.465658e+003,4.251521e-004
1.467587e+003,3.685737e-004
1.469515e+003,4.087682e-004
1.471444e+003,7.393856e-004
1.473372e+003,8.663246e-004
1.475301e+003,7.304574e-004
1.477229e+003,5.108627e-004
1.479158e+003,2.807029e-004
1.481086e+003,2.100543e-004
1.483015e+003,1.972586e-004
1.484943e+003,3.380988e-004
1.486872e+003,4.129470e-004
1.488800e+003,4.987216e-004
1.490729e+003,5.651041e-004
1.492657e+003,3.885710e-004
1.494586e+003,4.367273e-004
1.496514e+003,6.776889e-004
1.498443e+003,6.158350e-004
1.500371e+003,4.319844e-004
1.502300e+003,2.758622e-004
1.504228e+003,6.115214e-004
1.506157e+003,1.344106e-003
1.508085e+003,1.123669e-003
1.510014e+003,6.402237e-004
1.511942e+003,6.016337e-004
1.513871e+003,5.083085e-004
1.515799e+003,5.236677e-004
1.517728e+003,6.752331e-004
1.519656e+003,8.558666e-004
1.521585e+003,1.040395e-003
1.523513e+003,7.324820e-004
1.525442e+003,5.759863e-004
1.527370e+003,4.767954e-004
1.529299e+003,3.302731e-004
1.531227e+003,2.879308e-004
1.533156e+003,5.203172e-004
1.535084e+003,5.003139e-004
1.537013e+003,5.703461e-004
1.538941e+003,1.103405e-003
1.540870e+003,1.162870e-003
1.542798e+003,7.673329e-004
1.544727e+003,5.799677e-004
1.546655e+003,3.666835e-004
1.548584e+003,2.954573e-004
1.550512e+003,3.433712e-004
1.552441e+003,4.203430e-004
1.554369e+003,6.221062e-004
1.556298e+003,8.480649e-004
1.558226e+003,1.362819e-003
1.560155e+003,1.116294e-003
1.562083e+003,4.709242e-004
1.564012e+003,3.554086e-004
1.565940e+003,4.688014e-004
1.567869e+003,6.220067e-004
1.569797e+003,7.566118e-004
1.571726e+003,5.292078e-004
1.573654e+003,4.108244e-004
1.575583e+003,6.403564e-004
1.577511e+003,5.091378e-004
1.579440e+003,1.729278e-004
1.581368e+003,1.938442e-004
1.583297e+003,3.048739e-004
1.585225e+003,4.008749e-004
1.587154e+003,3.967957e-004
1.589082e+003,3.731833e-004
1.591010e+003,3.150533e-004
1.592939e+003,2.417801e-004
1.594868e+003,2.544445e-004
1.596796e+003,2.573952e-004
1.598724e+003,2.533836e-004
1.600653e+003,2.594508e-004
1.602582e+003,2.048829e-004
1.604510e+003,2.001757e-004
1.606438e+003,1.877781e-004
1.608367e+003,2.858088e-004
1.610296e+003,3.371371e-004
1.612224e+003,3.115385e-004
1.614152e+003,2.987067e-004
1.616081e+003,6.302026e-004
1.618010e+003,5.705783e-004
1.619938e+003,3.813413e-004
1.621866e+003,4.542069e-004
1.623795e+003,4.768949e-004
1.625724e+003,4.252184e-004
1.627652e+003,3.967293e-004
1.629580e+003,3.907930e-004
1.631509e+003,4.490326e-004
1.633438e+003,5.704456e-004
1.635366e+003,7.385226e-004
1.637294e+003,4.966981e-004
1.639223e+003,2.719168e-004
1.641151e+003,3.044428e-004
1.643080e+003,4.105259e-004
1.645008e+003,6.072743e-004
1.646937e+003,7.650758e-004
1.648865e+003,5.390607e-004
1.650794e+003,5.732657e-004
1.652722e+003,1.224138e-003
1.654651e+003,8.984636e-004
1.656579e+003,3.774945e-004
1.658508e+003,2.636281e-004
1.660436e+003,3.805123e-004
1.662365e+003,5.317291e-004
1.664293e+003,4.175570e-004
1.666222e+003,3.178054e-004
1.668150e+003,6.375359e-004
1.670079e+003,7.538901e-004
1.672007e+003,4.396793e-004
1.673936e+003,4.501935e-004
1.675864e+003,5.280467e-004
1.677793e+003,3.570003e-004
1.679721e+003,3.831985e-004
1.681650e+003,5.181941e-004
1.683578e+003,8.939148e-004
1.685507e+003,8.882373e-004
1.687435e+003,5.664643e-004
1.689364e+003,3.558728e-004
1.691292e+003,3.030171e-004
1.693221e+003,3.870455e-004
1.695149e+003,7.288312e-004
1.697078e+003,7.132323e-004
1.699006e+003,8.702091e-004
1.700935e+003,9.980830e-004
1.702863e+003,5.617863e-004
1.704792e+003,4.584525e-004
1.706720e+003,4.311884e-004
1.708649e+003,3.781246e-004
1.710577e+003,3.578957e-004
1.712506e+003,3.893338e-004
1.714434e+003,5.055220e-004
1.716363e+003,7.905684e-004
1.718291e+003,7.295613e-004
1.720220e+003,2.688997e-004
1.722148e+003,2.177452e-004
1.724077e+003,3.837954e-004
1.726005e+003,3.250340e-004
1.727934e+003,3.078912e-004
1.729862e+003,3.828006e-004
1.731791e+003,4.966318e-004
1.733719e+003,9.074284e-004
1.735648e+003,7.091169e-004
1.737576e+003,4.302929e-004
1.739505e+003,5.193219e-004
1.741433e+003,4.822354e-004
1.743362e+003,4.690336e-004
1.745290e+003,4.110234e-004
1.747219e+003,4.682707e-004
1.749147e+003,6.498469e-004
1.751076e+003,7.012846e-004
1.753004e+003,4.712559e-004
1.754933e+003,4.449861e-004
1.756861e+003,4.163299e-004
1.758790e+003,2.586551e-004
1.760718e+003,3.865812e-004
1.762647e+003,4.449861e-004
1.764575e+003,3.263272e-004
1.766504e+003,3.136275e-004
1.768432e+003,3.301405e-004
1.770361e+003,5.229379e-004
1.772289e+003,8.458074e-004
1.774218e+003,6.030936e-004
1.776146e+003,4.101611e-004
1.778075e+003,3.796169e-004
1.780003e+003,3.799817e-004
1.781932e+003,2.819296e-004
1.783860e+003,3.721553e-004
1.785789e+003,5.571416e-004
1.787717e+003,4.467772e-004
1.789646e+003,4.035281e-004
1.791574e+003,5.435394e-004
1.793503e+003,4.589832e-004
1.795431e+003,3.098475e-004
1.797360e+003,2.795424e-004
1.799288e+003,3.199276e-004
1.801217e+003,3.411163e-004
1.803145e+003,2.206956e-004
1.805074e+003,1.939437e-004
1.807002e+003,2.397247e-004
1.808931e+003,2.672420e-004
1.810859e+003,2.940316e-004
1.812788e+003,2.503004e-004
1.814716e+003,2.073360e-004
1.816645e+003,2.378350e-004
1.818573e+003,2.492395e-004
1.820502e+003,2.868698e-004
1.822430e+003,3.297757e-004
1.824359e+003,4.377555e-004
1.826287e+003,4.355333e-004
1.828216e+003,4.368932e-004
1.830144e+003,4.573248e-004
1.832073e+003,3.254651e-004
1.834001e+003,2.605448e-004
1.835930e+003,2.571963e-004
1.837858e+003,2.455595e-004
1.839787e+003,3.203918e-004
1.841715e+003,4.405084e-004
1.843644e+003,6.320608e-004
1.845572e+003,5.775125e-004
1.847501e+003,3.943747e-004
1.849429e+003,3.513629e-004
1.851358e+003,3.678442e-004
1.853286e+003,4.388501e-004
1.855215e+003,3.915557e-004
1.857143e+003,2.534500e-004
1.859072e+003,2.263645e-004
1.861000e+003,2.395257e-004
1.862929e+003,2.965183e-004
1.864857e+003,3.578293e-004
1.866786e+003,3.881067e-004
1.868714e+003,5.304021e-004
1.870643e+003,4.759661e-004
1.872571e+003,2.967504e-004
1.874500e+003,2.234472e-004
1.876428e+003,2.664463e-004
1.878357e+003,2.562017e-004
1.880285e+003,2.494715e-004
1.882214e+003,2.432057e-004
1.884142e+003,3.201597e-004
1.886071e+003,4.290989e-004
1.887999e+003,4.719525e-004
1.889928e+003,4.057170e-004
1.891856e+003,2.792440e-004
1.893785e+003,2.488748e-004
1.895713e+003,2.390948e-004
1.897642e+003,2.852120e-004
1.899570e+003,3.114059e-004
1.901499e+003,2.838858e-004
1.903427e+003,3.407184e-004
1.905356e+003,3.692038e-004
1.907284e+003,3.043102e-004
1.909213e+003,2.093250e-004
1.911141e+003,1.460463e-004
1.913070e+003,2.448302e-004
1.914998e+003,2.845821e-004
1.916927e+003,3.897980e-004
1.918855e+003,3.487100e-004
1.920784e+003,2.826259e-004
1.922712e+003,3.309032e-004
1.924641e+003,3.557402e-004
1.926569e+003,4.111229e-004
1.928498e+003,4.203430e-004
1.930426e+003,2.765253e-004
1.932355e+003,3.451287e-004
1.934283e+003,3.860174e-004
1.936212e+003,2.940316e-004
1.938140e+003,2.618378e-004
1.940069e+003,2.926058e-004
1.941997e+003,4.183530e-004
1.943926e+003,4.098626e-004
1.945854e+003,3.418459e-004
1.947783e+003,3.829000e-004
1.949711e+003,4.023341e-004
1.951640e+003,3.467536e-004
1.953568e+003,3.138265e-004
1.955497e+003,3.038128e-004
1.957425e+003,3.238734e-004
1.959354e+003,3.992498e-004
1.961282e+003,4.386511e-004
1.963211e+003,3.843261e-004
1.965139e+003,3.611455e-004
1.967068e+003,3.255977e-004
1.968996e+003,2.774205e-004
1.970925e+003,1.763089e-004
1.972853e+003,1.651715e-004
1.974782e+003,2.469851e-004
1.976710e+003,3.716247e-004
1.978639e+003,3.639642e-004
1.980567e+003,2.446975e-004
1.982496e+003,1.992475e-004
1.984424e+003,2.953910e-004
1.986353e+003,4.228304e-004
1.988281e+003,4.515203e-004
1.990210e+003,4.244888e-004
1.992138e+003,3.350812e-004
1.994067e+003,2.749670e-004
1.995995e+003,3.078580e-004
1.997924e+003,3.867470e-004
1.999852e+003,3.752726e-004
2.001781e+003,3.872445e-004
2.003709e+003,4.231289e-004
2.005638e+003,3.982881e-004
2.007566e+003,2.911801e-004
2.009495e+003,2.025625e-004
2.011423e+003,2.260661e-004
2.013352e+003,2.894892e-004
2.015280e+003,3.491411e-004
2.017208e+003,4.026990e-004
2.019137e+003,3.549443e-004
2.021066e+003,2.390948e-004
2.022994e+003,2.034244e-004
2.024922e+003,1.673923e-004
2.026851e+003,2.050155e-004
2.028780e+003,2.891244e-004
2.030708e+003,3.407847e-004
2.032636e+003,2.543119e-004
2.034565e+003,2.050487e-004
2.036494e+003,2.622357e-004
2.038422e+003,3.543806e-004
2.040350e+003,3.543806e-004
2.042279e+003,3.719894e-004
2.044208e+003,3.601838e-004
2.046136e+003,3.661198e-004
2.048064e+003,3.637321e-004
2.049993e+003,3.680763e-004
2.051921e+003,3.843592e-004
2.053850e+003,3.967957e-004
2.055778e+003,3.618419e-004
2.057707e+003,3.469194e-004
2.059635e+003,2.826922e-004
2.061564e+003,2.184745e-004
2.063492e+003,2.506982e-004
2.065421e+003,3.473173e-004
2.067349e+003,3.626709e-004
2.069278e+003,3.947727e-004
2.071206e+003,4.288667e-004
2.073135e+003,3.877751e-004
2.075063e+003,2.819628e-004
2.076992e+003,2.953910e-004
2.078920e+003,3.223481e-004
2.080849e+003,3.097480e-004
2.082777e+003,3.701324e-004
2.084706e+003,3.877087e-004
2.086634e+003,3.006961e-004
2.088563e+003,2.874667e-004
2.090491e+003,3.066312e-004
2.092420e+003,3.404200e-004
2.094348e+003,3.471847e-004
2.096277e+003,2.783488e-004
2.098205e+003,2.245412e-004
2.100134e+003,2.614400e-004
2.102062e+003,2.904175e-004
2.103991e+003,2.184082e-004
2.105919e+003,1.510844e-004
2.107848e+003,1.777011e-004
2.109776e+003,1.953691e-004
2.111705e+003,3.124007e-004
2.113633e+003,4.212716e-004
2.115562e+003,4.646220e-004
2.117490e+003,3.773618e-004
2.119419e+003,2.728451e-004
2.121347e+003,3.396241e-004
2.123276e+003,3.560718e-004
2.125204e+003,2.970820e-004
2.127133e+003,2.717841e-004
2.129061e+003,3.211213e-004
2.130990e+003,3.609797e-004
2.132918e+003,3.435039e-004
2.134847e+003,2.400893e-004
2.136775e+003,1.524765e-004
2.138704e+003,2.436035e-004
2.140632e+003,2.486096e-004
2.142561e+003,2.538478e-004
2.144489e+003,3.482126e-004
2.146418e+003,3.355786e-004
2.148346e+003,2.848142e-004
2.150275e+003,2.455927e-004
2.152203e+003,2.692975e-004
2.154132e+003,3.273551e-004
2.156060e+003,3.432386e-004
2.157989e+003,2.447970e-004
2.159917e+003,2.295802e-004
2.161846e+003,2.982093e-004
2.163774e+003,3.360429e-004
2.165703e+003,3.498707e-004
2.167631e+003,3.238403e-004
2.169560e+003,2.725135e-004
2.171488e+003,2.909480e-004
2.173417e+003,2.774205e-004
2.175345e+003,2.599481e-004
2.177274e+003,2.417801e-004
2.179202e+003,3.532199e-004
2.181131e+003,4.018698e-004
2.183059e+003,3.206239e-004
2.184988e+003,2.827254e-004
2.186916e+003,3.815735e-004
2.188845e+003,4.664132e-004
2.190773e+003,4.366610e-004
2.192702e+003,4.574906e-004
2.194630e+003,4.172254e-004
2.196559e+003,3.379661e-004
2.198487e+003,2.708227e-004
2.200416e+003,3.301073e-004
2.202344e+003,3.223813e-004
2.204273e+003,2.919427e-004
2.206201e+003,2.890913e-004
2.208130e+003,3.630357e-004
2.210058e+003,3.409837e-004
2.211987e+003,2.220548e-004
2.213915e+003,2.866709e-004
2.215844e+003,4.580213e-004
2.217772e+003,4.929829e-004
2.219701e+003,3.764664e-004
2.221629e+003,3.468862e-004
2.223558e+003,4.094978e-004
2.225486e+003,4.963332e-004
2.227415e+003,5.189902e-004
2.229343e+003,4.674082e-004
2.231272e+003,3.695023e-004
2.233200e+003,3.246692e-004
2.235129e+003,3.300742e-004
2.237057e+003,3.925838e-004
2.238986e+003,4.031633e-004
2.240914e+003,3.178054e-004
2.242843e+003,2.996682e-004
2.244771e+003,2.528532e-004
2.246700e+003,2.985740e-004
2.248628e+003,2.569311e-004
2.250557e+003,2.062421e-004
2.252485e+003,2.934348e-004
2.254414e+003,3.425422e-004
2.256342e+003,2.743371e-004
2.258271e+003,3.629694e-004
2.260199e+003,4.124827e-004
2.262128e+003,2.752654e-004
2.264056e+003,1.467423e-004
2.265985e+003,2.252042e-004
2.267913e+003,3.012929e-004
2.269842e+003,3.705635e-004
2.271770e+003,4.193812e-004
2.273699e+003,4.180545e-004
2.275627e+003,4.114545e-004
2.277556e+003,3.608139e-004
2.279484e+003,3.327601e-004
2.281413e+003,4.424653e-004
2.283341e+003,5.076781e-004
2.285270e+003,3.550106e-004
2.287198e+003,3.051060e-004
2.289127e+003,3.614771e-004
2.291055e+003,3.825684e-004
2.292984e+003,4.155339e-004
2.294912e+003,4.341071e-004
2.296841e+003,4.463460e-004
2.298769e+003,4.845905e-004
2.300698e+003,4.461801e-004
2.302626e+003,3.962982e-004
2.304555e+003,4.094978e-004
2.306483e+003,4.503262e-004
2.308412e+003,5.054224e-004
2.310340e+003,5.868025e-004
2.312269e+003,6.765273e-004
2.314197e+003,6.974016e-004
2.316125e+003,7.459242e-004
2.318054e+003,8.041783e-004
2.319983e+003,8.014563e-004
2.321911e+003,7.682955e-004
2.323840e+003,7.277027e-004
2.325768e+003,8.182202e-004
2.327697e+003,1.041358e-003
2.329625e+003,1.050791e-003
2.331553e+003,9.936660e-004
2.333482e+003,1.004293e-003
2.335411e+003,1.011832e-003
2.337339e+003,1.073510e-003
2.339268e+003,1.112939e-003
2.341196e+003,1.037804e-003
2.343125e+003,9.732424e-004
2.345053e+003,9.188173e-004
2.346981e+003,8.082282e-004
2.348910e+003,6.308330e-004
2.350839e+003,7.061300e-004
2.352767e+003,9.429574e-004
2.354696e+003,1.051090e-003
2.356624e+003,1.141509e-003
2.358552e+003,1.223506e-003
2.360481e+003,1.270327e-003
2.362409e+003,1.327322e-003
2.364338e+003,1.290963e-003
2.366267e+003,1.346432e-003
2.368195e+003,1.351684e-003
2.370124e+003,1.089554e-003
2.372052e+003,8.290756e-004
2.373980e+003,5.814275e-004
2.375909e+003,5.492789e-004
2.377838e+003,5.851104e-004
2.379766e+003,5.208148e-004
2.381695e+003,4.234274e-004
2.383623e+003,3.369382e-004
2.385552e+003,3.200934e-004
2.387480e+003,3.438355e-004
2.389408e+003,3.438355e-004
2.391337e+003,2.790120e-004
2.393266e+003,1.973580e-004
2.395194e+003,2.072366e-004
2.397123e+003,2.695959e-004
2.399051e+003,3.160149e-004
2.400979e+003,3.000993e-004
2.402908e+003,2.570305e-004
2.404836e+003,2.976457e-004
2.406765e+003,2.843832e-004
2.408694e+003,2.343209e-004
2.410622e+003,1.837340e-004
2.412551e+003,1.492945e-004
2.414479e+003,2.009050e-004
2.416407e+003,2.555718e-004
2.418336e+003,3.024866e-004
2.420264e+003,3.767317e-004
2.422193e+003,4.531787e-004
2.424122e+003,4.274737e-004
2.426050e+003,3.488759e-004
2.427979e+003,3.021882e-004
2.429907e+003,2.665789e-004
2.431835e+003,3.340533e-004
2.433764e+003,3.986860e-004
2.435692e+003,4.071762e-004
2.437621e+003,3.948058e-004
2.439550e+003,4.216364e-004
2.441478e+003,4.960679e-004
2.443406e+003,4.176565e-004
2.445335e+003,2.979109e-004
2.447263e+003,3.337880e-004
2.449192e+003,4.194807e-004
2.451121e+003,4.467772e-004
2.453049e+003,4.741086e-004
2.454978e+003,5.042613e-004
2.456906e+003,4.415698e-004
2.458834e+003,3.643290e-004
2.460763e+003,3.090186e-004
2.462691e+003,3.807444e-004
2.464620e+003,4.007091e-004
2.466549e+003,4.183198e-004
2.468477e+003,4.441237e-004
2.470406e+003,3.621403e-004
2.472334e+003,3.344181e-004
2.474262e+003,4.080385e-004
2.476191e+003,4.326809e-004
2.478119e+003,3.646938e-004
2.480048e+003,2.668773e-004
2.481977e+003,2.271601e-004
2.483905e+003,2.198669e-004
2.485833e+003,1.902642e-004
2.487762e+003,2.415480e-004
2.489690e+003,3.361423e-004
2.491619e+003,3.380325e-004
2.493547e+003,3.573651e-004
2.495476e+003,3.824357e-004
2.497405e+003,3.303394e-004
2.499333e+003,2.747018e-004
2.501261e+003,2.660484e-004
2.503190e+003,3.046086e-004
2.505118e+003,4.196465e-004
2.507047e+003,4.266778e-004
2.508975e+003,3.763669e-004
2.510904e+003,4.275069e-004
2.512833e+003,3.497380e-004
2.514761e+003,2.279226e-004
2.516689e+003,3.215523e-004
2.518618e+003,3.709614e-004
2.520546e+003,4.331121e-004
2.522475e+003,4.935136e-004
2.524403e+003,4.615041e-004
2.526332e+003,4.514208e-004
2.528260e+003,4.719194e-004
2.530189e+003,4.325814e-004
2.532117e+003,3.825352e-004
2.534046e+003,3.288141e-004
2.535974e+003,3.209886e-004
2.537903e+003,3.927828e-004
2.539831e+003,3.933134e-004
2.541760e+003,2.773210e-004
2.543688e+003,2.970820e-004
2.545617e+003,4.101942e-004
2.547545e+003,3.868465e-004
2.549474e+003,2.813660e-004
2.551402e+003,2.981762e-004
2.553331e+003,3.631683e-004
2.555259e+003,4.224656e-004
2.557188e+003,4.661810e-004
2.559116e+003,4.917555e-004
2.561045e+003,4.164294e-004
2.562973e+003,3.525567e-004
2.564902e+003,4.340408e-004
2.566830e+003,4.275732e-004
2.568759e+003,4.384521e-004
2.570687e+003,4.827329e-004
2.572616e+003,3.987855e-004
2.574544e+003,3.514624e-004
2.576473e+003,4.304919e-004
2.578401e+003,3.708951e-004
2.580330e+003,3.915226e-004
2.582258e+003,4.965322e-004
2.584187e+003,5.168008e-004
2.586115e+003,5.031003e-004
2.588044e+003,3.831653e-004
2.589972e+003,2.588208e-004
2.591901e+003,3.081896e-004
2.593829e+003,3.604159e-004
2.595758e+003,3.784562e-004
2.597686e+003,3.443329e-004
2.599615e+003,2.817638e-004
2.601543e+003,2.357795e-004
2.603472e+003,2.653190e-004
2.605400e+003,2.755970e-004
2.607329e+003,3.039455e-004
2.609257e+003,3.959002e-004
2.611186e+003,4.844910e-004
2.613114e+003,4.083370e-004
2.615043e+003,4.092656e-004
2.616971e+003,4.256828e-004
2.618900e+003,3.429733e-004
2.620828e+003,3.403868e-004
2.622757e+003,3.430396e-004
2.624685e+003,2.767574e-004
2.626614e+003,3.343517e-004
2.628542e+003,3.675789e-004
2.630471e+003,3.059349e-004
2.632399e+003,2.737403e-004
2.634328e+003,2.804045e-004
2.636256e+003,3.220497e-004
2.638185e+003,2.892571e-004
2.640113e+003,2.849468e-004
2.642042e+003,3.419453e-004
2.643970e+003,3.619082e-004
2.645899e+003,4.325483e-004
2.647827e+003,4.699955e-004
2.649756e+003,4.269431e-004
2.651684e+003,3.683748e-004
2.653613e+003,4.511222e-004
2.655541e+003,4.721516e-004
2.657470e+003,3.246361e-004
2.659398e+003,2.348181e-004
2.661327e+003,2.184082e-004
2.663255e+003,2.576273e-004
2.665184e+003,3.765327e-004
2.667112e+003,3.910251e-004
2.669041e+003,3.746425e-004
2.670969e+003,3.819715e-004
2.672898e+003,3.836296e-004
2.674826e+003,4.058496e-004
2.676755e+003,3.695023e-004
2.678683e+003,2.762932e-004
2.680612e+003,2.616389e-004
2.682540e+003,2.675404e-004
2.684469e+003,3.033486e-004
2.686397e+003,3.716247e-004
2.688326e+003,4.929497e-004
2.690254e+003,5.197864e-004
2.692183e+003,4.269762e-004
2.694111e+003,4.206746e-004
2.696040e+003,3.636326e-004
2.697968e+003,3.445650e-004
2.699897e+003,3.919205e-004
2.701825e+003,4.479049e-004
2.703754e+003,3.944410e-004
2.705682e+003,3.092175e-004
2.707611e+003,2.957226e-004
2.709539e+003,3.098143e-004
2.711468e+003,3.982549e-004
2.713396e+003,4.466777e-004
2.715325e+003,3.759690e-004
2.717253e+003,3.789868e-004
2.719182e+003,4.615372e-004
2.721110e+003,4.341071e-004
2.723039e+003,4.091661e-004
2.724967e+003,4.472747e-004
2.726896e+003,3.619413e-004
2.728824e+003,2.679382e-004
2.730753e+003,2.575278e-004
2.732681e+003,2.693970e-004
2.734610e+003,3.303063e-004
2.736538e+003,3.493069e-004
2.738467e+003,3.532862e-004
2.740395e+003,3.572656e-004
2.742324e+003,4.442896e-004
2.744252e+003,4.139751e-004
2.746181e+003,4.255832e-004
2.748109e+003,4.012729e-004
2.750038e+003,4.168937e-004
2.751966e+003,4.678395e-004
2.753895e+003,4.481702e-004
2.755823e+003,4.072426e-004
2.757752e+003,3.597859e-004
2.759680e+003,2.475818e-004
2.761609e+003,2.198669e-004
2.763537e+003,3.636989e-004
2.765466e+003,4.801456e-004
2.767394e+003,4.931487e-004
2.769323e+003,4.583198e-004
2.771251e+003,3.786552e-004
2.773180e+003,2.978446e-004
2.775108e+003,3.219834e-004
2.777037e+003,4.250194e-004
2.778965e+003,3.855863e-004
2.780894e+003,4.096636e-004
2.782822e+003,3.960661e-004
2.784750e+003,3.094496e-004
2.786679e+003,2.428078e-004
2.788608e+003,2.229167e-004
2.790536e+003,3.328264e-004
2.792465e+003,4.600115e-004
2.794393e+003,4.479712e-004
2.796322e+003,4.056506e-004
2.798250e+003,4.499613e-004
2.800178e+003,4.660483e-004
2.802107e+003,4.148374e-004
2.804036e+003,3.980227e-004
2.805964e+003,4.242566e-004
2.807893e+003,3.827011e-004
2.809821e+003,3.589568e-004
2.811750e+003,3.577630e-004
2.813678e+003,3.048076e-004
2.815606e+003,2.569974e-004
2.817535e+003,2.716847e-004
2.819464e+003,3.909256e-004
2.821392e+003,4.590827e-004
2.823321e+003,5.197201e-004
2.825249e+003,4.743740e-004
2.827177e+003,4.133118e-004
2.829106e+003,3.819715e-004
2.831034e+003,4.261139e-004
2.832963e+003,4.862159e-004
2.834892e+003,4.208405e-004
2.836820e+003,3.985534e-004
2.838749e+003,3.766654e-004
2.840677e+003,3.365734e-004
2.842605e+003,2.947942e-004
2.844534e+003,3.492406e-004
2.846462e+003,3.333901e-004
2.848391e+003,3.240724e-004
2.850320e+003,3.500365e-004
2.852248e+003,3.817393e-004
2.854177e+003,4.557658e-004
2.856105e+003,4.894667e-004
2.858033e+003,3.777266e-004
2.859962e+003,2.397578e-004
2.861890e+003,3.869460e-004
2.863819e+003,5.199854e-004
2.865748e+003,3.035476e-004
2.867676e+003,2.633961e-004
2.869604e+003,4.386179e-004
2.871533e+003,5.252269e-004
2.873461e+003,5.079436e-004
2.875390e+003,4.239249e-004
2.877319e+003,3.299747e-004
2.879247e+003,2.619041e-004
2.881176e+003,2.565664e-004
2.883104e+003,3.504676e-004
2.885032e+003,3.961655e-004
2.886961e+003,3.366729e-004
2.888889e+003,3.997141e-004
2.890818e+003,4.366279e-004
2.892747e+003,3.591226e-004
2.894675e+003,2.316687e-004
2.896604e+003,2.074355e-004
2.898532e+003,3.089854e-004
2.900460e+003,4.016708e-004
2.902389e+003,3.442997e-004
2.904317e+003,2.967836e-004
2.906246e+003,3.302068e-004
2.908175e+003,3.227792e-004
2.910103e+003,3.451619e-004
2.912031e+003,3.508655e-004
2.913960e+003,3.314337e-004
2.915888e+003,3.672804e-004
2.917817e+003,3.725864e-004
2.919745e+003,3.272556e-004
2.921674e+003,3.339538e-004
2.923603e+003,4.347705e-004
2.925531e+003,4.031301e-004
2.927459e+003,4.311884e-004
2.929388e+003,4.128475e-004
2.931316e+003,2.321328e-004
2.933245e+003,7.903187e-005
2.935173e+003,1.547635e-004
2.937102e+003,4.409728e-004
2.939031e+003,5.098012e-004
2.940959e+003,3.636326e-004
2.942887e+003,3.340201e-004
2.944816e+003,3.594543e-004
2.946744e+003,4.490658e-004
2.948673e+003,4.996173e-004
2.950601e+003,4.568604e-004
2.952530e+003,3.314337e-004
2.954458e+003,3.587910e-004
2.956387e+003,4.051863e-004
2.958315e+003,3.589237e-004
2.960244e+003,4.510227e-004
2.962172e+003,4.303593e-004
2.964101e+003,3.874103e-004
2.966029e+003,4.332448e-004
2.967958e+003,3.547122e-004
2.969886e+003,2.911470e-004
2.971815e+003,3.973263e-004
2.973743e+003,3.641632e-004
2.975672e+003,2.073029e-004
2.977600e+003,2.667446e-004
2.979529e+003,2.819296e-004
2.981457e+003,2.476813e-004
2.983386e+003,2.388295e-004
2.985314e+003,2.264971e-004
2.987243e+003,2.532510e-004
2.989171e+003,2.998672e-004
2.991100e+003,3.613445e-004
2.993028e+003,3.206570e-004
2.994957e+003,2.904175e-004
2.996885e+003,3.983876e-004
2.998814e+003,4.534772e-004
3.000742e+003,4.767290e-004
3.002671e+003,4.698960e-004
3.004599e+003,5.242981e-004
3.006528e+003,4.893340e-004
3.008456e+003,4.011070e-004
3.010385e+003,2.966509e-004
3.012313e+003,2.064410e-004
3.014242e+003,2.029603e-004
3.016170e+003,2.930700e-004
3.018099e+003,3.160149e-004
3.020027e+003,4.190827e-004
3.021956e+003,3.790199e-004
3.023884e+003,3.931144e-004
3.025813e+003,4.830978e-004
3.027741e+003,4.604095e-004
3.029670e+003,4.230294e-004
3.031598e+003,4.523495e-004
3.033527e+003,4.441569e-004
3.035455e+003,4.358982e-004
3.037384e+003,4.691994e-004
3.039312e+003,4.739759e-004
3.041241e+003,4.225983e-004
3.043169e+003,4.436926e-004
3.045098e+003,3.785225e-004
3.047026e+003,2.800066e-004
3.048955e+003,2.892239e-004
3.050883e+003,3.328595e-004
3.052812e+003,3.430728e-004
3.054740e+003,4.156334e-004
3.056669e+003,4.515203e-004
3.058597e+003,4.583530e-004
3.060526e+003,4.623997e-004
3.062454e+003,3.673467e-004
3.064383e+003,3.318316e-004
3.066311e+003,3.319974e-004
3.068240e+003,3.819715e-004
3.070168e+003,4.383194e-004
3.072097e+003,4.229631e-004
3.074025e+003,3.986197e-004
3.075954e+003,4.492648e-004
3.077882e+003,4.030306e-004
3.079811e+003,3.050728e-004
3.081739e+003,2.115129e-004
3.083668e+003,1.820103e-004
3.085596e+003,2.336247e-004
3.087525e+003,3.229450e-004
3.089453e+003,3.557402e-004
3.091382e+003,3.625714e-004
3.093310e+003,3.857521e-004
3.095239e+003,3.161475e-004
3.097167e+003,2.832227e-004
3.099096e+003,4.433277e-004
3.101024e+003,5.116589e-004
3.102953e+003,3.836296e-004
3.104881e+003,3.348491e-004
3.106810e+003,3.787878e-004
3.108738e+003,4.798471e-004
3.110667e+003,4.326809e-004
3.112595e+003,4.120515e-004
3.114524e+003,5.436058e-004
3.116452e+003,4.592486e-004
3.118381e+003,3.060676e-004
3.120309e+003,2.558370e-004
3.122238e+003,3.477484e-004
3.124166e+003,4.195470e-004
3.126095e+003,4.277391e-004
3.128023e+003,4.163962e-004
3.129952e+003,3.290462e-004
3.131880e+003,3.377009e-004
3.133809e+003,3.180375e-004
3.135737e+003,3.378003e-004
3.137666e+003,3.661529e-004
3.139594e+003,3.058686e-004
3.141523e+003,3.937446e-004
3.143451e+003,5.828542e-004
3.145380e+003,4.522168e-004
3.147308e+003,2.841179e-004
3.149237e+003,2.988061e-004
3.151165e+003,3.781909e-004
3.153094e+003,3.339870e-004
3.155022e+003,2.813660e-004
3.156951e+003,3.532199e-004
3.158879e+003,4.605753e-004
3.160808e+003,3.546459e-004
3.162736e+003,1.470406e-004
3.164665e+003,1.174761e-004
3.166593e+003,1.971260e-004
3.168522e+003,3.181702e-004
3.170450e+003,3.863822e-004
3.172379e+003,4.102606e-004
3.174307e+003,4.233279e-004
3.176236e+003,3.667830e-004
3.178164e+003,3.392262e-004
3.180093e+003,3.536842e-004
3.182021e+003,4.148706e-004
3.183950e+003,3.235750e-004
3.185878e+003,2.269281e-004
3.187807e+003,2.836537e-004
3.189735e+003,4.114545e-004
3.191664e+003,4.531455e-004
3.193592e+003,3.543474e-004
3.195521e+003,3.312016e-004
3.197449e+003,4.840266e-004
3.199378e+003,4.984562e-004
3.201306e+003,3.008950e-004
3.203235e+003,2.643575e-004
3.205163e+003,4.017703e-004
3.207092e+003,3.207897e-004
3.209020e+003,3.316990e-004
3.210948e+003,3.928160e-004
3.212877e+003,4.092325e-004
3.214806e+003,4.348700e-004
3.216734e+003,3.886705e-004
3.218663e+003,2.851789e-004
3.220591e+003,3.975584e-004
3.222520e+003,5.099339e-004
3.224448e+003,5.069152e-004
3.226376e+003,4.128806e-004
3.228305e+003,3.605486e-004
3.230234e+003,4.100948e-004
3.232162e+003,3.832648e-004
3.234091e+003,4.189832e-004
3.236019e+003,4.289331e-004
3.237948e+003,3.386625e-004
3.239876e+003,3.442334e-004
3.241804e+003,3.356781e-004
3.243733e+003,4.024668e-004
3.245662e+003,4.778900e-004
3.247590e+003,4.561639e-004
3.249519e+003,3.794842e-004
3.251447e+003,4.553346e-004
3.253375e+003,4.755681e-004
3.255304e+003,5.022047e-004
3.257232e+003,4.812734e-004
3.259161e+003,4.259812e-004
3.261090e+003,3.979564e-004
3.263018e+003,3.585257e-004
3.264947e+003,1.330535e-004
3.266875e+003,1.798557e-004
3.268803e+003,5.884282e-004
3.270732e+003,6.266189e-004
3.272660e+003,4.626982e-004
3.274589e+003,3.622398e-004
3.276518e+003,2.891244e-004
3.278446e+003,3.668825e-004
3.280375e+003,4.373907e-004
3.282303e+003,5.549851e-004
3.284231e+003,5.910494e-004
3.286160e+003,4.203098e-004
3.288088e+003,3.825684e-004
3.290017e+003,4.787193e-004
3.291946e+003,4.227310e-004
3.293874e+003,2.668773e-004
3.295802e+003,2.423437e-004
3.297731e+003,2.335915e-004
3.299659e+003,2.783488e-004
3.301588e+003,3.567682e-004
3.303516e+003,2.936668e-004
3.305445e+003,2.717841e-004
3.307374e+003,2.278231e-004
3.309302e+003,3.526894e-004
3.311230e+003,4.642903e-004
3.313159e+003,5.273169e-004
3.315087e+003,5.300040e-004
3.317016e+003,4.403758e-004
3.318944e+003,3.578293e-004
3.320873e+003,3.432054e-004
3.322802e+003,2.873340e-004
3.324730e+003,3.883057e-004
3.326658e+003,4.607412e-004
3.328587e+003,3.133954e-004
3.330515e+003,2.484770e-004
3.332444e+003,3.912241e-004
3.334372e+003,5.423783e-004
3.336301e+003,5.939692e-004
3.338229e+003,4.783212e-004
3.340158e+003,3.964972e-004
3.342086e+003,3.760021e-004
3.344015e+003,4.203098e-004
3.345943e+003,4.252184e-004
3.347872e+003,3.722216e-004
3.349800e+003,2.969825e-004
3.351729e+003,4.524158e-004
3.353657e+003,4.489331e-004
3.355586e+003,4.214043e-004
3.357514e+003,4.901633e-004
3.359443e+003,5.963249e-004
3.361371e+003,5.001480e-004
3.363300e+003,4.069772e-004
3.365229e+003,5.299377e-004
3.367157e+003,5.415489e-004
3.369085e+003,3.934461e-004
3.371014e+003,4.870452e-004
3.372942e+003,5.891582e-004
3.374871e+003,5.023374e-004
3.376799e+003,5.184595e-004
3.378728e+003,5.181941e-004
3.380656e+003,4.313543e-004
3.382585e+003,3.748083e-004
3.384513e+003,3.259624e-004
3.386442e+003,3.296763e-004
3.388370e+003,2.488748e-004
3.390299e+003,3.541484e-004
3.392227e+003,5.357433e-004
3.394156e+003,6.148063e-004
3.396084e+003,6.665717e-004
3.398013e+003,6.970697e-004
3.399941e+003,5.262553e-004
3.401870e+003,4.518188e-004
3.403798e+003,4.322166e-004
3.405727e+003,4.303593e-004
3.407655e+003,4.152023e-004
3.409584e+003,5.318950e-004
3.411512e+003,4.382530e-004
3.413441e+003,4.528138e-004
3.415369e+003,4.994182e-004
3.417298e+003,4.340408e-004
3.419226e+003,5.041619e-004
3.421155e+003,5.529945e-004
3.423083e+003,4.790510e-004
3.425012e+003,5.060527e-004
3.426940e+003,5.365727e-004
3.428869e+003,5.822902e-004
3.430797e+003,5.308334e-004
3.432726e+003,5.560136e-004
3.434654e+003,4.525153e-004
3.436583e+003,4.434272e-004
3.438511e+003,5.063512e-004
3.440440e+003,4.295964e-004
3.442368e+003,3.607807e-004
3.444297e+003,3.828006e-004
3.446225e+003,5.608906e-004
3.448154e+003,6.725451e-004
3.450082e+003,5.767494e-004
3.452011e+003,4.489663e-004
3.453939e+003,3.714920e-004
3.455868e+003,3.582604e-004
3.457796e+003,4.273411e-004
3.459725e+003,3.565029e-004
3.461653e+003,3.369382e-004
3.463582e+003,5.200518e-004
3.465510e+003,4.268104e-004
3.467439e+003,4.515203e-004
3.469367e+003,6.098292e-004
3.471296e+003,4.218686e-004
3.473224e+003,1.544652e-004
3.475153e+003,2.900197e-004
3.477081e+003,4.542732e-004
3.479010e+003,5.250279e-004
3.480938e+003,5.501746e-004
3.482867e+003,5.347480e-004
3.484795e+003,4.927175e-004
3.486724e+003,4.607744e-004
3.488652e+003,4.646552e-004
3.490581e+003,4.378882e-004
3.492509e+003,3.016908e-004
3.494438e+003,2.950594e-004
3.496366e+003,3.004971e-004
3.498295e+003,2.797414e-004
3.500223e+003,3.228787e-004
3.502152e+003,4.348368e-004
3.504080e+003,4.153018e-004
3.506009e+003,3.442666e-004
3.507937e+003,4.667780e-004
3.509866e+003,5.705783e-004
3.511794e+003,5.769485e-004
3.513723e+003,3.463225e-004
3.515651e+003,2.057780e-004
3.517580e+003,4.279381e-004
3.519508e+003,4.587510e-004
3.521437e+003,6.101942e-004
3.523365e+003,7.566118e-004
3.525294e+003,6.058144e-004
3.527222e+003,4.741086e-004
3.529151e+003,6.833636e-004
3.531079e+003,7.062959e-004
3.533008e+003,6.216416e-004
3.534936e+003,5.756877e-004
3.536865e+003,4.467440e-004
3.538793e+003,5.348476e-004
3.540722e+003,4.504920e-004
3.542650e+003,3.424096e-004
3.544579e+003,4.309894e-004
3.546507e+003,5.859399e-004
3.548436e+003,6.918262e-004
3.550364e+003,7.089510e-004
3.552293e+003,5.737634e-004
3.554221e+003,3.844919e-004
3.556150e+003,6.363413e-004
3.558078e+003,7.451608e-004
3.560007e+003,6.025296e-004
3.561935e+003,5.062518e-004
3.563864e+003,5.745597e-004
3.565792e+003,7.110750e-004
3.567721e+003,6.804432e-004
3.569649e+003,5.181277e-004
3.571578e+003,4.365947e-004
3.573506e+003,3.888363e-004
3.575435e+003,4.439911e-004
3.577363e+003,3.745761e-004
3.579292e+003,3.761679e-004
3.581220e+003,5.284780e-004
3.583149e+003,5.361745e-004
3.585077e+003,5.302362e-004
3.587006e+003,7.689925e-004
3.588934e+003,7.266738e-004
3.590863e+003,4.843251e-004
3.592791e+003,5.041287e-004
3.594720e+003,6.012687e-004
3.596648e+003,6.639833e-004
3.598577e+003,7.091833e-004
3.600505e+003,5.509045e-004
3.602434e+003,4.842920e-004
3.604362e+003,5.779770e-004
3.606291e+003,6.959746e-004
3.608219e+003,6.913616e-004
3.610148e+003,7.365644e-004
3.612076e+003,7.869170e-004
3.614005e+003,6.893704e-004
3.615933e+003,7.214963e-004
3.617862e+003,8.739275e-004
3.619790e+003,8.166268e-004
3.621719e+003,6.211771e-004
3.623647e+003,5.958604e-004
3.625576e+003,5.446011e-004
3.627504e+003,7.744362e-004
3.629433e+003,1.015054e-003
3.631361e+003,8.603154e-004
3.633290e+003,7.972073e-004
3.635218e+003,6.585079e-004
3.637146e+003,5.987802e-004
3.639075e+003,5.333878e-004
3.641004e+003,4.978260e-004
3.642932e+003,4.926180e-004
3.644861e+003,5.723368e-004
3.646789e+003,9.545133e-004
3.648718e+003,1.345801e-003
3.650646e+003,1.157621e-003
3.652574e+003,4.761320e-004
3.654503e+003,4.447539e-004
3.656432e+003,7.103781e-004
3.658360e+003,6.620918e-004
3.660289e+003,7.976056e-004
3.662217e+003,7.612586e-004
3.664146e+003,5.405537e-004
3.666074e+003,6.292403e-004
3.668002e+003,7.497743e-004
3.669931e+003,1.037771e-003
3.671860e+003,9.790539e-004
3.673788e+003,1.137755e-003
3.675717e+003,1.451873e-003
3.677645e+003,9.854301e-004
3.679573e+003,7.265742e-004
3.681502e+003,7.931243e-004
3.683430e+003,8.213738e-004
3.685359e+003,7.843942e-004
3.687288e+003,8.861124e-004
3.689216e+003,8.183198e-004
3.691145e+003,7.080217e-004
3.693073e+003,7.605284e-004
3.695001e+003,8.199464e-004
3.696930e+003,7.593335e-004
3.698858e+003,6.838283e-004
3.700787e+003,7.117720e-004
3.702716e+003,5.307338e-004
3.704644e+003,3.668162e-004
3.706573e+003,5.929738e-004
3.708501e+003,8.125436e-004
3.710429e+003,8.270837e-004
3.712358e+003,8.162616e-004
3.714286e+003,5.138151e-004
3.716215e+003,2.334258e-004
3.718144e+003,4.028316e-004
3.720072e+003,5.762518e-004
3.722000e+003,5.530277e-004
3.723929e+003,5.756877e-004
3.725857e+003,7.835312e-004
3.727786e+003,7.456586e-004
3.729714e+003,6.655098e-004
3.731643e+003,9.254250e-004
3.733572e+003,1.178751e-003
3.735500e+003,1.429699e-003
3.737428e+003,1.087826e-003
3.739357e+003,8.086929e-004
3.741285e+003,7.920953e-004
3.743214e+003,1.128918e-003
3.745142e+003,1.119716e-003
3.747071e+003,9.581328e-004
3.749000e+003,1.347396e-003
3.750928e+003,1.266306e-003
3.752856e+003,1.028438e-003
3.754785e+003,8.809661e-004
3.756713e+003,8.690470e-004
3.758642e+003,8.247931e-004
3.760570e+003,8.992605e-004
3.762499e+003,8.685158e-004
3.764427e+003,8.698438e-004
3.766356e+003,8.296731e-004
3.768284e+003,1.014356e-003
3.770213e+003,1.025648e-003
3.772141e+003,9.105163e-004
3.774070e+003,6.742707e-004
3.775998e+003,5.848118e-004
3.777927e+003,8.119129e-004
3.779855e+003,5.963913e-004
3.781784e+003,4.233279e-004
3.783712e+003,5.278477e-004
3.785641e+003,4.447208e-004
3.787569e+003,3.590563e-004
3.789498e+003,4.360308e-004
3.791426e+003,7.439659e-004
3.793355e+003,7.118715e-004
3.795283e+003,7.700547e-004
3.797212e+003,7.743034e-004
3.799140e+003,7.832656e-004
3.801069e+003,1.142240e-003
3.802997e+003,1.094869e-003
3.804926e+003,1.016914e-003
3.806854e+003,1.114102e-003
3.808783e+003,9.198798e-004
3.810711e+003,8.786753e-004
3.812640e+003,7.440987e-004
3.814568e+003,8.737947e-004
3.816497e+003,1.177921e-003
3.818425e+003,1.140977e-003
3.820354e+003,1.187257e-003
3.822282e+003,1.088092e-003
3.824211e+003,8.549371e-004
3.826139e+003,7.428042e-004
3.828068e+003,6.762950e-004
3.829996e+003,9.587970e-004
3.831925e+003,1.157123e-003
3.833853e+003,1.095035e-003
3.835782e+003,1.118886e-003
3.837710e+003,1.220383e-003
3.839639e+003,1.024652e-003
3.841567e+003,7.105440e-004
3.843496e+003,6.297380e-004
3.845424e+003,7.121702e-004
3.847353e+003,8.459070e-004
3.849281e+003,1.091181e-003
3.851210e+003,1.288504e-003
3.853138e+003,1.636787e-003
3.855067e+003,1.257101e-003
3.856995e+003,5.875988e-004
3.858924e+003,3.897649e-004
3.860852e+003,8.590870e-004
3.862781e+003,1.201178e-003
3.864709e+003,1.312598e-003
3.866638e+003,1.255107e-003
3.868566e+003,1.266006e-003
3.870495e+003,1.112441e-003
3.872423e+003,8.133403e-004
3.874352e+003,6.324258e-004
3.876280e+003,7.061300e-004
3.878209e+003,9.567381e-004
3.880137e+003,1.151973e-003
3.882066e+003,8.412260e-004
3.883994e+003,7.093492e-004
3.885923e+003,9.360174e-004
3.887851e+003,7.689593e-004
3.889780e+003,7.509029e-004
3.891708e+003,8.609462e-004
3.893637e+003,8.514844e-004
3.895565e+003,9.742387e-004
3.897494e+003,1.131675e-003
3.899422e+003,9.535171e-004
3.901351e+003,8.793393e-004
3.903279e+003,9.732756e-004
3.905208e+003,9.282806e-004
3.907136e+003,7.954811e-004
3.909065e+003,7.074243e-004
3.910993e+003,7.734072e-004
3.912922e+003,1.084538e-003
3.914850e+003,1.316653e-003
3.916779e+003,1.101446e-003
3.918707e+003,6.362086e-004
3.920636e+003,4.525485e-004
3.922564e+003,5.882292e-004
3.924493e+003,9.938321e-004
3.926421e+003,1.030663e-003
3.928350e+003,8.055725e-004
3.930278e+003,9.655713e-004
3.932207e+003,9.545465e-004
3.934135e+003,7.500067e-004
3.936064e+003,6.826667e-004
3.937992e+003,7.808757e-004
3.939921e+003,9.813453e-004
3.941849e+003,1.031859e-003
3.943778e+003,8.104854e-004
3.945706e+003,9.052370e-004
3.947635e+003,1.150379e-003
3.949563e+003,9.812790e-004
3.951492e+003,9.027136e-004
3.953420e+003,7.989666e-004
3.955349e+003,7.587029e-004
3.957277e+003,1.014390e-003
3.959206e+003,1.125961e-003
3.961134e+003,9.830390e-004
3.963063e+003,9.614868e-004
3.964991e+003,1.036310e-003
3.966920e+003,7.936886e-004
3.968848e+003,7.518322e-004
3.970777e+003,9.530522e-004
3.972705e+003,9.427914e-004
3.974634e+003,8.939481e-004
3.976562e+003,9.324313e-004
3.978491e+003,1.011666e-003
3.980419e+003,7.775231e-004
3.982348e+003,6.673350e-004
3.984276e+003,7.636817e-004
3.986205e+003,6.358104e-004
3.988133e+003,7.764277e-004
3.990062e+003,9.250265e-004
3.991990e+003,9.360506e-004
3.993919e+003,7.898713e-004
3.995847e+003,4.372912e-004
3.997776e+003,6.101610e-004
3.999704e+003,9.145340e-004
4.001633e+003,0.000000e+000
