3.991989e+002,1.303152e-002
4.011274e+002,6.207126e-004
4.030559e+002,-5.027146e-003
4.049844e+002,-7.249812e-003
4.069129e+002,-4.233084e-003
4.088414e+002,1.248428e-003
4.107699e+002,-2.099756e-003
4.126984e+002,-5.308793e-003
4.146269e+002,-1.043495e-003
4.165554e+002,1.731187e-003
4.184839e+002,7.357678e-004
4.204124e+002,8.071003e-003
4.223409e+002,9.645242e-003
4.242694e+002,3.247986e-003
4.261979e+002,-4.059569e-003
4.281264e+002,5.332191e-003
4.300549e+002,1.031068e-002
4.319834e+002,6.823369e-003
4.339119e+002,4.591247e-003
4.358404e+002,7.468480e-003
4.377689e+002,9.187046e-003
4.396974e+002,1.167522e-003
4.416259e+002,-8.060141e-003
4.435544e+002,-2.917175e-003
4.454829e+002,8.160292e-004
4.474114e+002,2.532448e-003
4.493399e+002,2.181715e-003
4.512684e+002,7.335441e-004
4.531969e+002,2.066642e-003
4.551254e+002,2.066842e-003
4.570539e+002,-3.114588e-006
4.589824e+002,-8.121176e-004
4.609109e+002,-1.194429e-003
4.628394e+002,-3.970293e-004
4.647679e+002,-6.923469e-004
4.666964e+002,-2.017063e-004
4.686249e+002,1.261321e-003
4.705533e+002,1.872160e-003
4.724819e+002,-7.618781e-004
4.744103e+002,-2.037991e-003
4.763389e+002,-2.101965e-003
4.782673e+002,-2.625903e-003
4.801959e+002,-4.305069e-003
4.821243e+002,-4.573480e-003
4.840529e+002,-4.523707e-003
4.859813e+002,-5.630621e-003
4.879099e+002,-4.696119e-003
4.898383e+002,-3.835672e-003
4.917668e+002,-4.785331e-003
4.936953e+002,-5.846892e-003
4.956238e+002,-6.318595e-003
4.975523e+002,-6.337568e-003
4.994808e+002,-7.903473e-003
5.014093e+002,-6.194193e-003
5.033378e+002,-4.950596e-003
5.052663e+002,-4.006979e-003
5.071948e+002,-5.227677e-003
5.091233e+002,-7.382382e-003
5.110518e+002,-7.117298e-003
5.129803e+002,-5.974564e-003
5.149088e+002,-6.269054e-003
5.168373e+002,-6.982235e-003
5.187658e+002,-7.170133e-003
5.206943e+002,-9.351988e-003
5.226228e+002,-8.852210e-003
5.245513e+002,-6.365029e-003
5.264798e+002,-6.794712e-003
5.284083e+002,-5.964106e-003
5.303368e+002,-5.484526e-003
5.322653e+002,-6.664703e-003
5.341938e+002,-6.180048e-003
5.361223e+002,-5.991264e-003
5.380508e+002,-6.267062e-003
5.399792e+002,-6.177044e-003
5.419078e+002,-5.754727e-003
5.438363e+002,-5.309709e-003
5.457648e+002,-5.235337e-003
5.476932e+002,-4.354441e-003
5.496218e+002,-5.143140e-003
5.515503e+002,-5.288270e-003
5.534788e+002,-5.229150e-003
5.554072e+002,-5.678959e-003
5.573358e+002,-5.951491e-003
5.592643e+002,-4.835500e-003
5.611927e+002,-4.631837e-003
5.631212e+002,-4.042434e-003
5.650497e+002,-3.705760e-003
5.669783e+002,-4.563546e-003
5.689067e+002,-4.905125e-003
5.708352e+002,-4.667634e-003
5.727637e+002,-5.418626e-003
5.746923e+002,-6.212093e-003
5.766207e+002,-8.156794e-003
5.785492e+002,-9.411619e-003
5.804777e+002,-1.079536e-002
5.824063e+002,-9.799169e-003
5.843347e+002,-8.533606e-003
5.862632e+002,-8.100210e-003
5.881917e+002,-7.447170e-003
5.901202e+002,-7.009427e-003
5.920487e+002,-6.681278e-003
5.939772e+002,-6.497086e-003
5.959057e+002,-6.292993e-003
5.978342e+002,-7.126980e-003
5.997627e+002,-7.373619e-003
6.016912e+002,-6.405385e-003
6.036197e+002,-5.920016e-003
6.055482e+002,-4.875376e-003
6.074767e+002,-3.546988e-003
6.094052e+002,-2.536181e-003
6.113337e+002,-2.700197e-003
6.132622e+002,-4.209196e-003
6.151907e+002,-4.734008e-003
6.171192e+002,-4.509803e-003
6.190477e+002,-4.749903e-003
6.209762e+002,-4.772123e-003
6.229047e+002,-5.634938e-003
6.248332e+002,-6.933454e-003
6.267617e+002,-7.833059e-003
6.286902e+002,-7.665046e-003
6.306187e+002,-6.675177e-003
6.325472e+002,-6.057011e-003
6.344756e+002,-5.996918e-003
6.364042e+002,-5.855163e-003
6.383326e+002,-5.259922e-003
6.402612e+002,-4.673535e-003
6.421896e+002,-4.406661e-003
6.441182e+002,-4.487308e-003
6.460466e+002,-5.097296e-003
6.479752e+002,-4.927304e-003
6.499036e+002,-4.747380e-003
6.518322e+002,-4.548660e-003
6.537606e+002,-4.720177e-003
6.556891e+002,-5.207706e-003
6.576177e+002,-5.035596e-003
6.595461e+002,-5.002744e-003
6.614746e+002,-4.952365e-003
6.634031e+002,-5.129388e-003
6.653317e+002,-4.960456e-003
6.672601e+002,-4.335054e-003
6.691886e+002,-4.559185e-003
6.711171e+002,-5.261363e-003
6.730457e+002,-5.331541e-003
6.749741e+002,-5.071098e-003
6.769026e+002,-5.057899e-003
6.788311e+002,-5.107088e-003
6.807596e+002,-5.044668e-003
6.826881e+002,-5.128831e-003
6.846166e+002,-5.524898e-003
6.865451e+002,-5.444607e-003
6.884736e+002,-5.090387e-003
6.904021e+002,-5.182202e-003
6.923306e+002,-5.700052e-003
6.942591e+002,-5.902856e-003
6.961876e+002,-6.232376e-003
6.981161e+002,-6.313664e-003
7.000446e+002,-6.219246e-003
7.019731e+002,-6.040118e-003
7.039016e+002,-5.822864e-003
7.058301e+002,-6.456804e-003
7.077585e+002,-7.204907e-003
7.096871e+002,-6.965606e-003
7.116156e+002,-6.793016e-003
7.135441e+002,-7.325859e-003
7.154725e+002,-8.044822e-003
7.174011e+002,-8.381562e-003
7.193296e+002,-8.175263e-003
7.212581e+002,-7.753226e-003
7.231865e+002,-7.780468e-003
7.251151e+002,-8.036951e-003
7.270436e+002,-8.238730e-003
7.289720e+002,-8.030965e-003
7.309005e+002,-7.523151e-003
7.328290e+002,-7.548746e-003
7.347576e+002,-7.498368e-003
7.366860e+002,-6.846183e-003
7.386145e+002,-6.471918e-003
7.405430e+002,-6.719321e-003
7.424716e+002,-6.928367e-003
7.444000e+002,-6.355429e-003
7.463285e+002,-5.731216e-003
7.482570e+002,-5.772808e-003
7.501855e+002,-5.363910e-003
7.521140e+002,-4.241090e-003
7.540425e+002,-3.551030e-003
7.559710e+002,-3.581691e-003
7.578995e+002,-3.272153e-003
7.598280e+002,-2.960420e-003
7.617565e+002,-3.032024e-003
7.636850e+002,-2.647047e-003
7.656135e+002,-2.251114e-003
7.675420e+002,-1.896191e-003
7.694705e+002,-1.579639e-003
7.713990e+002,-1.541968e-003
7.733275e+002,-1.893057e-003
7.752560e+002,-2.012167e-003
7.771844e+002,-2.145752e-003
7.791130e+002,-2.096293e-003
7.810415e+002,-1.973215e-003
7.829700e+002,-1.757810e-003
7.848984e+002,-1.603573e-003
7.868270e+002,-1.991125e-003
7.887555e+002,-2.828040e-003
7.906840e+002,-3.403642e-003
7.926124e+002,-3.463931e-003
7.945410e+002,-3.592503e-003
7.964695e+002,-3.763872e-003
7.983979e+002,-3.997786e-003
8.003264e+002,-4.323638e-003
8.022549e+002,-4.299393e-003
8.041835e+002,-4.668454e-003
8.061119e+002,-4.749838e-003
8.080404e+002,-4.090588e-003
8.099689e+002,-4.059470e-003
8.118975e+002,-4.451036e-003
8.138259e+002,-4.251918e-003
8.157545e+002,-3.871535e-003
8.176830e+002,-4.283087e-003
8.196115e+002,-4.819280e-003
8.215399e+002,-5.043129e-003
8.234684e+002,-5.423632e-003
8.253970e+002,-5.943549e-003
8.273254e+002,-6.309060e-003
8.292539e+002,-6.132223e-003
8.311824e+002,-6.241554e-003
8.331110e+002,-6.410217e-003
8.350394e+002,-6.221140e-003
8.369679e+002,-5.772187e-003
8.388964e+002,-5.883505e-003
8.408250e+002,-6.125428e-003
8.427534e+002,-5.982996e-003
8.446819e+002,-5.463160e-003
8.466104e+002,-5.495813e-003
8.485389e+002,-5.755708e-003
8.504674e+002,-5.892755e-003
8.523959e+002,-6.052012e-003
8.543244e+002,-6.109452e-003
8.562529e+002,-5.735565e-003
8.581814e+002,-5.629018e-003
8.601099e+002,-5.331344e-003
8.620384e+002,-5.154404e-003
8.639669e+002,-5.683636e-003
8.658954e+002,-5.907367e-003
8.678239e+002,-5.461426e-003
8.697524e+002,-5.619271e-003
8.716809e+002,-6.059919e-003
8.736094e+002,-6.019564e-003
8.755378e+002,-5.468592e-003
8.774664e+002,-5.053707e-003
8.793949e+002,-4.706608e-003
8.813234e+002,-4.787526e-003
8.832518e+002,-5.123133e-003
8.851804e+002,-5.304243e-003
8.871089e+002,-5.265782e-003
8.890374e+002,-5.088880e-003
8.909658e+002,-5.039427e-003
8.928943e+002,-4.575644e-003
8.948229e+002,-4.236693e-003
8.967513e+002,-4.240795e-003
8.986798e+002,-4.407055e-003
9.006083e+002,-4.624199e-003
9.025369e+002,-4.598889e-003
9.044653e+002,-4.822589e-003
9.063938e+002,-5.373171e-003
9.083223e+002,-5.513611e-003
9.102509e+002,-5.469442e-003
9.121793e+002,-5.835123e-003
9.141078e+002,-6.083053e-003
9.160364e+002,-6.142187e-003
9.179648e+002,-6.249883e-003
9.198933e+002,-6.687609e-003
9.218218e+002,-6.910692e-003
9.237504e+002,-6.964203e-003
9.256788e+002,-7.312143e-003
9.276073e+002,-7.690731e-003
9.295358e+002,-7.572484e-003
9.314644e+002,-7.679174e-003
9.333928e+002,-7.945866e-003
9.353213e+002,-8.025534e-003
9.372498e+002,-7.845880e-003
9.391783e+002,-7.907704e-003
9.411068e+002,-8.146258e-003
9.430353e+002,-8.139852e-003
9.449637e+002,-8.055360e-003
9.468923e+002,-8.166029e-003
9.488208e+002,-7.914699e-003
9.507493e+002,-7.645448e-003
9.526777e+002,-7.488142e-003
9.546063e+002,-7.527612e-003
9.565348e+002,-7.425575e-003
9.584633e+002,-7.243653e-003
9.603917e+002,-7.130206e-003
9.623203e+002,-7.141810e-003
9.642488e+002,-7.040692e-003
9.661772e+002,-6.719224e-003
9.681057e+002,-6.280060e-003
9.700343e+002,-6.032210e-003
9.719628e+002,-5.914133e-003
9.738912e+002,-5.955838e-003
9.758197e+002,-5.990480e-003
9.777483e+002,-5.857974e-003
9.796768e+002,-5.602818e-003
9.816052e+002,-5.407893e-003
9.835337e+002,-5.286960e-003
9.854623e+002,-5.320740e-003
9.873907e+002,-5.311444e-003
9.893192e+002,-5.333243e-003
9.912477e+002,-5.260413e-003
9.931763e+002,-5.046895e-003
9.951047e+002,-4.804108e-003
9.970332e+002,-4.651768e-003
9.989617e+002,-4.726175e-003
1.000890e+003,-4.566529e-003
1.002819e+003,-4.136834e-003
1.004747e+003,-4.170440e-003
1.006676e+003,-4.206735e-003
1.008604e+003,-3.986558e-003
1.010533e+003,-3.947783e-003
1.012461e+003,-3.916064e-003
1.014390e+003,-3.712068e-003
1.016318e+003,-3.523456e-003
1.018247e+003,-2.991715e-003
1.020175e+003,-2.838179e-003
1.022104e+003,-3.053838e-003
1.024032e+003,-2.835842e-003
1.025961e+003,-2.613849e-003
1.027889e+003,-2.568824e-003
1.029818e+003,-2.320165e-003
1.031746e+003,-1.870821e-003
1.033675e+003,-1.604497e-003
1.035603e+003,-1.377581e-003
1.037532e+003,-1.212932e-003
1.039460e+003,-1.174272e-003
1.041389e+003,-9.407492e-004
1.043317e+003,-9.530482e-004
1.045246e+003,-1.057906e-003
1.047174e+003,-9.601233e-004
1.049103e+003,-1.041743e-003
1.051031e+003,-1.071392e-003
1.052960e+003,-9.075864e-004
1.054888e+003,-6.773608e-004
1.056817e+003,-7.551967e-004
1.058745e+003,-1.028124e-003
1.060674e+003,-1.114556e-003
1.062602e+003,-9.100332e-004
1.064531e+003,-7.651857e-004
1.066459e+003,-8.177068e-004
1.068388e+003,-7.908848e-004
1.070316e+003,-6.218119e-004
1.072245e+003,-3.602826e-004
1.074173e+003,-2.159471e-004
1.076102e+003,-2.656537e-004
1.078030e+003,-3.954734e-004
1.079959e+003,-2.740314e-004
1.081887e+003,7.740801e-005
1.083816e+003,3.964972e-004
1.085744e+003,6.247939e-004
1.087673e+003,9.824744e-004
1.089601e+003,1.137854e-003
1.091530e+003,1.327920e-003
1.093458e+003,1.589861e-003
1.095387e+003,1.686313e-003
1.097315e+003,1.963682e-003
1.099244e+003,2.045435e-003
1.101172e+003,2.202828e-003
1.103101e+003,2.396559e-003
1.105029e+003,2.279297e-003
1.106958e+003,2.078594e-003
1.108886e+003,2.199198e-003
1.110815e+003,2.552912e-003
1.112743e+003,2.749733e-003
1.114672e+003,2.696652e-003
1.116600e+003,2.791783e-003
1.118529e+003,2.787981e-003
1.120457e+003,2.544746e-003
1.122386e+003,2.528016e-003
1.124314e+003,2.485758e-003
1.126243e+003,2.190340e-003
1.128171e+003,1.992906e-003
1.130100e+003,1.951600e-003
1.132028e+003,1.632397e-003
1.133957e+003,1.285646e-003
1.135885e+003,1.080519e-003
1.137814e+003,8.759196e-004
1.139742e+003,3.595869e-004
1.141671e+003,-1.832920e-004
1.143599e+003,-4.869629e-004
1.145528e+003,-7.846338e-004
1.147456e+003,-1.205861e-003
1.149385e+003,-1.532658e-003
1.151313e+003,-1.871877e-003
1.153242e+003,-2.094744e-003
1.155170e+003,-2.391216e-003
1.157099e+003,-2.600774e-003
1.159027e+003,-2.917373e-003
1.160956e+003,-3.075125e-003
1.162884e+003,-3.299546e-003
1.164813e+003,-3.473233e-003
1.166741e+003,-3.344692e-003
1.168670e+003,-3.202168e-003
1.170598e+003,-3.209403e-003
1.172526e+003,-3.346599e-003
1.174455e+003,-3.288431e-003
1.176384e+003,-3.232327e-003
1.178312e+003,-3.337623e-003
1.180240e+003,-3.388716e-003
1.182169e+003,-3.428133e-003
1.184098e+003,-3.455713e-003
1.186026e+003,-3.475600e-003
1.187954e+003,-3.494894e-003
1.189883e+003,-3.800726e-003
1.191812e+003,-3.924896e-003
1.193740e+003,-3.629930e-003
1.195668e+003,-3.552377e-003
1.197597e+003,-3.649348e-003
1.199526e+003,-3.526940e-003
1.201454e+003,-3.479840e-003
1.203382e+003,-3.446608e-003
1.205311e+003,-3.355082e-003
1.207240e+003,-3.243641e-003
1.209168e+003,-3.017480e-003
1.211096e+003,-2.801375e-003
1.213025e+003,-2.717220e-003
1.214953e+003,-2.626661e-003
1.216882e+003,-2.610391e-003
1.218810e+003,-2.546788e-003
1.220739e+003,-2.438170e-003
1.222667e+003,-2.263673e-003
1.224596e+003,-2.096161e-003
1.226524e+003,-1.981098e-003
1.228453e+003,-1.947850e-003
1.230381e+003,-1.729099e-003
1.232310e+003,-1.568183e-003
1.234238e+003,-1.486365e-003
1.236167e+003,-1.499738e-003
1.238095e+003,-1.569536e-003
1.240024e+003,-1.610274e-003
1.241952e+003,-1.578813e-003
1.243881e+003,-1.604398e-003
1.245809e+003,-1.597169e-003
1.247738e+003,-1.864652e-003
1.249666e+003,-2.109285e-003
1.251595e+003,-2.104141e-003
1.253523e+003,-1.994225e-003
1.255452e+003,-1.968201e-003
1.257380e+003,-2.070243e-003
1.259309e+003,-2.135729e-003
1.261237e+003,-2.077201e-003
1.263166e+003,-1.847529e-003
1.265094e+003,-1.613410e-003
1.267023e+003,-1.424149e-003
1.268951e+003,-1.063426e-003
1.270880e+003,-7.530468e-004
1.272808e+003,-5.045370e-004
1.274737e+003,-1.490776e-004
1.276665e+003,3.175402e-004
1.278594e+003,7.435012e-004
1.280522e+003,9.601917e-004
1.282451e+003,1.053415e-003
1.284379e+003,1.358298e-003
1.286308e+003,2.025395e-003
1.288236e+003,2.463198e-003
1.290165e+003,2.742497e-003
1.292093e+003,3.119681e-003
1.294022e+003,3.372755e-003
1.295950e+003,3.728830e-003
1.297879e+003,3.984901e-003
1.299807e+003,4.092155e-003
1.301736e+003,4.062420e-003
1.303664e+003,4.106035e-003
1.305593e+003,4.179027e-003
1.307521e+003,4.110685e-003
1.309450e+003,3.931100e-003
1.311378e+003,3.616922e-003
1.313307e+003,3.383941e-003
1.315235e+003,3.259336e-003
1.317164e+003,3.032420e-003
1.319092e+003,2.605609e-003
1.321021e+003,2.079426e-003
1.322949e+003,1.637852e-003
1.324878e+003,1.390839e-003
1.326806e+003,1.246999e-003
1.328735e+003,1.186326e-003
1.330663e+003,9.932010e-004
1.332592e+003,7.476501e-004
1.334520e+003,6.803105e-004
1.336449e+003,6.442057e-004
1.338377e+003,5.868025e-004
1.340306e+003,5.104978e-004
1.342234e+003,5.741947e-004
1.344163e+003,5.977848e-004
1.346091e+003,5.246630e-004
1.348020e+003,5.338523e-004
1.349948e+003,5.513689e-004
1.351877e+003,4.558985e-004
1.353805e+003,2.714526e-004
1.355734e+003,5.971165e-005
1.357662e+003,-1.340728e-004
1.359591e+003,-2.464142e-004
1.361519e+003,-2.959187e-004
1.363448e+003,-3.185994e-004
1.365376e+003,-4.461525e-004
1.367305e+003,-5.652301e-004
1.369233e+003,-5.886247e-004
1.371162e+003,-8.247179e-004
1.373090e+003,-9.311610e-004
1.375019e+003,-8.499835e-004
1.376947e+003,-7.400805e-004
1.378876e+003,-5.633770e-004
1.380804e+003,-5.571227e-004
1.382733e+003,-6.613486e-004
1.384661e+003,-7.783496e-004
1.386590e+003,-1.041346e-003
1.388518e+003,-1.199715e-003
1.390447e+003,-1.328034e-003
1.392375e+003,-1.579738e-003
1.394304e+003,-1.838158e-003
1.396232e+003,-2.005307e-003
1.398161e+003,-2.039738e-003
1.400089e+003,-1.971236e-003
1.402018e+003,-1.982516e-003
1.403946e+003,-2.105328e-003
1.405875e+003,-2.177238e-003
1.407803e+003,-2.139059e-003
1.409732e+003,-2.219568e-003
1.411660e+003,-2.365941e-003
1.413589e+003,-2.350716e-003
1.415517e+003,-2.126299e-003
1.417446e+003,-1.841821e-003
1.419374e+003,-1.389471e-003
1.421303e+003,-6.900312e-004
1.423231e+003,-5.430329e-005
1.425160e+003,6.826999e-004
1.427088e+003,1.283054e-003
1.429017e+003,1.622952e-003
1.430945e+003,1.878050e-003
1.432874e+003,2.129136e-003
1.434802e+003,2.422180e-003
1.436731e+003,2.734028e-003
1.438659e+003,3.301034e-003
1.440588e+003,3.858652e-003
1.442516e+003,4.363534e-003
1.444445e+003,4.830069e-003
1.446373e+003,5.381939e-003
1.448302e+003,5.870929e-003
1.450230e+003,6.415919e-003
1.452159e+003,7.105723e-003
1.454087e+003,7.688890e-003
1.456016e+003,7.677895e-003
1.457944e+003,8.063206e-003
1.459873e+003,8.829107e-003
1.461801e+003,9.139703e-003
1.463730e+003,9.052915e-003
1.465658e+003,9.190734e-003
1.467587e+003,9.286283e-003
1.469515e+003,9.125795e-003
1.471444e+003,8.599566e-003
1.473372e+003,8.200813e-003
1.475301e+003,8.196154e-003
1.477229e+003,7.856169e-003
1.479158e+003,7.351628e-003
1.481086e+003,6.778168e-003
1.483015e+003,6.276658e-003
1.484943e+003,5.718850e-003
1.486872e+003,5.098993e-003
1.488800e+003,4.538610e-003
1.490729e+003,4.004296e-003
1.492657e+003,3.610206e-003
1.494586e+003,3.274826e-003
1.496514e+003,2.731427e-003
1.498443e+003,2.186976e-003
1.500371e+003,1.823877e-003
1.502300e+003,1.578355e-003
1.504228e+003,1.085036e-003
1.506157e+003,2.655179e-004
1.508085e+003,1.900653e-004
1.510014e+003,3.437691e-004
1.511942e+003,3.232766e-004
1.513871e+003,2.998008e-004
1.515799e+003,7.638067e-005
1.517728e+003,9.371318e-005
1.519656e+003,3.823837e-005
1.521585e+003,2.442047e-005
1.523513e+003,3.268577e-004
1.525442e+003,5.048917e-004
1.527370e+003,7.583046e-004
1.529299e+003,1.055740e-003
1.531227e+003,1.268233e-003
1.533156e+003,1.476142e-003
1.535084e+003,1.907002e-003
1.537013e+003,2.044869e-003
1.538941e+003,1.887201e-003
1.540870e+003,2.214184e-003
1.542798e+003,2.909483e-003
1.544727e+003,3.415599e-003
1.546655e+003,3.780066e-003
1.548584e+003,4.236037e-003
1.550512e+003,4.794120e-003
1.552441e+003,5.166150e-003
1.554369e+003,5.463701e-003
1.556298e+003,5.796780e-003
1.558226e+003,5.882214e-003
1.560155e+003,6.874803e-003
1.562083e+003,7.947307e-003
1.564012e+003,8.312693e-003
1.565940e+003,8.468928e-003
1.567869e+003,8.504135e-003
1.569797e+003,8.538128e-003
1.571726e+003,8.764525e-003
1.573654e+003,8.668314e-003
1.575583e+003,8.470414e-003
1.577511e+003,8.596119e-003
1.579440e+003,8.662872e-003
1.581368e+003,8.704078e-003
1.583297e+003,8.597336e-003
1.585225e+003,8.247278e-003
1.587154e+003,8.004848e-003
1.589082e+003,7.644576e-003
1.591010e+003,7.073357e-003
1.592939e+003,6.531343e-003
1.594868e+003,6.071714e-003
1.596796e+003,5.560916e-003
1.598724e+003,4.995848e-003
1.600653e+003,4.349912e-003
1.602582e+003,3.749584e-003
1.604510e+003,3.197614e-003
1.606438e+003,2.752834e-003
1.608367e+003,2.277798e-003
1.610296e+003,1.990210e-003
1.612224e+003,1.588099e-003
1.614152e+003,1.085136e-003
1.616081e+003,4.611724e-004
1.618010e+003,2.886603e-004
1.619938e+003,2.563343e-004
1.621866e+003,-9.256664e-005
1.623795e+003,-4.523091e-004
1.625724e+003,-4.080196e-004
1.627652e+003,-5.071185e-004
1.629580e+003,-6.741518e-004
1.631509e+003,-7.538737e-004
1.633438e+003,-9.957283e-004
1.635366e+003,-1.445648e-003
1.637294e+003,-1.577328e-003
1.639223e+003,-1.688372e-003
1.641151e+003,-1.943760e-003
1.643080e+003,-2.297721e-003
1.645008e+003,-2.801243e-003
1.646937e+003,-3.156579e-003
1.648865e+003,-3.181906e-003
1.650794e+003,-3.468960e-003
1.652722e+003,-3.997294e-003
1.654651e+003,-3.845952e-003
1.656579e+003,-3.602525e-003
1.658508e+003,-3.760752e-003
1.660436e+003,-3.893340e-003
1.662365e+003,-3.991286e-003
1.664293e+003,-4.021128e-003
1.666222e+003,-4.143069e-003
1.668150e+003,-4.571447e-003
1.670079e+003,-4.984532e-003
1.672007e+003,-5.016501e-003
1.673936e+003,-5.264833e-003
1.675864e+003,-5.541255e-003
1.677793e+003,-5.693970e-003
1.679721e+003,-5.940705e-003
1.681650e+003,-6.395296e-003
1.683578e+003,-7.030782e-003
1.685507e+003,-7.152468e-003
1.687435e+003,-7.150382e-003
1.689364e+003,-7.351695e-003
1.691292e+003,-7.492115e-003
1.693221e+003,-7.688159e-003
1.695149e+003,-8.067914e-003
1.697078e+003,-8.038674e-003
1.699006e+003,-8.242892e-003
1.700935e+003,-8.494162e-003
1.702863e+003,-8.169086e-003
1.704792e+003,-8.212818e-003
1.706720e+003,-8.257457e-003
1.708649e+003,-8.297962e-003
1.710577e+003,-8.358681e-003
1.712506e+003,-8.493773e-003
1.714434e+003,-8.731843e-003
1.716363e+003,-9.044785e-003
1.718291e+003,-9.006296e-003
1.720220e+003,-8.843119e-003
1.722148e+003,-8.877564e-003
1.724077e+003,-8.898373e-003
1.726005e+003,-8.881330e-003
1.727934e+003,-8.934470e-003
1.729862e+003,-8.965142e-003
1.731791e+003,-9.178204e-003
1.733719e+003,-9.585408e-003
1.735648e+003,-9.419110e-003
1.737576e+003,-9.278824e-003
1.739505e+003,-9.332661e-003
1.741433e+003,-9.117793e-003
1.743362e+003,-9.002629e-003
1.745290e+003,-8.832178e-003
1.747219e+003,-8.815717e-003
1.749147e+003,-8.918045e-003
1.751076e+003,-8.918240e-003
1.753004e+003,-8.730674e-003
1.754933e+003,-8.627913e-003
1.756861e+003,-8.552190e-003
1.758790e+003,-8.542703e-003
1.760718e+003,-8.710150e-003
1.762647e+003,-8.673742e-003
1.764575e+003,-8.473270e-003
1.766504e+003,-8.495300e-003
1.768432e+003,-8.520773e-003
1.770361e+003,-8.568693e-003
1.772289e+003,-8.684558e-003
1.774218e+003,-8.594617e-003
1.776146e+003,-8.468980e-003
1.778075e+003,-8.448280e-003
1.780003e+003,-8.517361e-003
1.781932e+003,-8.543516e-003
1.783860e+003,-8.529350e-003
1.785789e+003,-8.430765e-003
1.787717e+003,-8.378442e-003
1.789646e+003,-8.396544e-003
1.791574e+003,-8.572202e-003
1.793503e+003,-8.641522e-003
1.795431e+003,-8.551897e-003
1.797360e+003,-8.472392e-003
1.799288e+003,-8.467908e-003
1.801217e+003,-8.593610e-003
1.803145e+003,-8.540786e-003
1.805074e+003,-8.454910e-003
1.807002e+003,-8.421471e-003
1.808931e+003,-8.518401e-003
1.810859e+003,-8.523145e-003
1.812788e+003,-8.449288e-003
1.814716e+003,-8.447046e-003
1.816645e+003,-8.440774e-003
1.818573e+003,-8.521780e-003
1.820502e+003,-8.613262e-003
1.822430e+003,-8.645680e-003
1.824359e+003,-8.710897e-003
1.826287e+003,-8.738501e-003
1.828216e+003,-8.845295e-003
1.830144e+003,-8.893698e-003
1.832073e+003,-8.722978e-003
1.834001e+003,-8.665720e-003
1.835930e+003,-8.776137e-003
1.837858e+003,-8.825912e-003
1.839787e+003,-8.839807e-003
1.841715e+003,-8.868182e-003
1.843644e+003,-8.982441e-003
1.845572e+003,-8.946934e-003
1.847501e+003,-8.810587e-003
1.849429e+003,-8.751036e-003
1.851358e+003,-8.659029e-003
1.853286e+003,-8.592603e-003
1.855215e+003,-8.635221e-003
1.857143e+003,-8.741716e-003
1.859072e+003,-8.794936e-003
1.861000e+003,-8.666694e-003
1.862929e+003,-8.575451e-003
1.864857e+003,-8.525127e-003
1.866786e+003,-8.622650e-003
1.868714e+003,-8.728141e-003
1.870643e+003,-8.623105e-003
1.872571e+003,-8.417149e-003
1.874500e+003,-8.373469e-003
1.876428e+003,-8.415231e-003
1.878357e+003,-8.397129e-003
1.880285e+003,-8.407399e-003
1.882214e+003,-8.431253e-003
1.884142e+003,-8.453253e-003
1.886071e+003,-8.422218e-003
1.887999e+003,-8.413087e-003
1.889928e+003,-8.421601e-003
1.891856e+003,-8.444577e-003
1.893785e+003,-8.439637e-003
1.895713e+003,-8.360566e-003
1.897642e+003,-8.277548e-003
1.899570e+003,-8.252645e-003
1.901499e+003,-8.235934e-003
1.903427e+003,-8.237722e-003
1.905356e+003,-8.273029e-003
1.907284e+003,-8.228001e-003
1.909213e+003,-8.261423e-003
1.911141e+003,-8.266754e-003
1.913070e+003,-8.227286e-003
1.914998e+003,-8.274784e-003
1.916927e+003,-8.349190e-003
1.918855e+003,-8.386372e-003
1.920784e+003,-8.408017e-003
1.922712e+003,-8.467518e-003
1.924641e+003,-8.356861e-003
1.926569e+003,-8.315581e-003
1.928498e+003,-8.383219e-003
1.930426e+003,-8.371097e-003
1.932355e+003,-8.330501e-003
1.934283e+003,-8.308169e-003
1.936212e+003,-8.326600e-003
1.938140e+003,-8.372267e-003
1.940069e+003,-8.395829e-003
1.941997e+003,-8.472489e-003
1.943926e+003,-8.423746e-003
1.945854e+003,-8.414062e-003
1.947783e+003,-8.540624e-003
1.949711e+003,-8.591791e-003
1.951640e+003,-8.576620e-003
1.953568e+003,-8.666434e-003
1.955497e+003,-8.701771e-003
1.957425e+003,-8.596469e-003
1.959354e+003,-8.538642e-003
1.961282e+003,-8.485097e-003
1.963211e+003,-8.497834e-003
1.965139e+003,-8.561904e-003
1.967068e+003,-8.651461e-003
1.968996e+003,-8.612450e-003
1.970925e+003,-8.476552e-003
1.972853e+003,-8.426800e-003
1.974782e+003,-8.433398e-003
1.976710e+003,-8.453058e-003
1.978639e+003,-8.447501e-003
1.980567e+003,-8.420594e-003
1.982496e+003,-8.421764e-003
1.984424e+003,-8.411527e-003
1.986353e+003,-8.382830e-003
1.988281e+003,-8.307747e-003
1.990210e+003,-8.295362e-003
1.992138e+003,-8.251670e-003
1.994067e+003,-8.198935e-003
1.995995e+003,-8.223450e-003
1.997924e+003,-8.123300e-003
1.999852e+003,-7.998470e-003
2.001781e+003,-8.046806e-003
2.003709e+003,-8.046220e-003
2.005638e+003,-7.973226e-003
2.007566e+003,-8.069475e-003
2.009495e+003,-8.126909e-003
2.011423e+003,-8.160956e-003
2.013352e+003,-8.096567e-003
2.015280e+003,-8.002308e-003
2.017208e+003,-8.047879e-003
2.019137e+003,-8.061084e-003
2.021066e+003,-7.967630e-003
2.022994e+003,-7.929794e-003
2.024922e+003,-7.967436e-003
2.026851e+003,-7.999804e-003
2.028780e+003,-8.009301e-003
2.030708e+003,-7.949640e-003
2.032636e+003,-7.845066e-003
2.034565e+003,-7.849264e-003
2.036494e+003,-7.949673e-003
2.038422e+003,-7.946550e-003
2.040350e+003,-7.833222e-003
2.042279e+003,-7.806146e-003
2.044208e+003,-7.844383e-003
2.046136e+003,-7.856651e-003
2.048064e+003,-7.811808e-003
2.049993e+003,-7.810637e-003
2.051921e+003,-7.885057e-003
2.053850e+003,-7.840218e-003
2.055778e+003,-7.814900e-003
2.057707e+003,-7.789190e-003
2.059635e+003,-7.672956e-003
2.061564e+003,-7.633890e-003
2.063492e+003,-7.671036e-003
2.065421e+003,-7.679825e-003
2.067349e+003,-7.694018e-003
2.069278e+003,-7.741216e-003
2.071206e+003,-7.741184e-003
2.073135e+003,-7.686075e-003
2.075063e+003,-7.550765e-003
2.076992e+003,-7.499834e-003
2.078920e+003,-7.495665e-003
2.080849e+003,-7.439287e-003
2.082777e+003,-7.432448e-003
2.084706e+003,-7.452511e-003
2.086634e+003,-7.431633e-003
2.088563e+003,-7.360588e-003
2.090491e+003,-7.241209e-003
2.092420e+003,-7.155043e-003
2.094348e+003,-7.171338e-003
2.096277e+003,-7.082876e-003
2.098205e+003,-7.028923e-003
2.100134e+003,-7.058395e-003
2.102062e+003,-6.973496e-003
2.103991e+003,-6.840279e-003
2.105919e+003,-6.773868e-003
2.107848e+003,-6.795201e-003
2.109776e+003,-6.761634e-003
2.111705e+003,-6.674720e-003
2.113633e+003,-6.599145e-003
2.115562e+003,-6.624534e-003
2.117490e+003,-6.627504e-003
2.119419e+003,-6.521632e-003
2.121347e+003,-6.511644e-003
2.123276e+003,-6.505605e-003
2.125204e+003,-6.504234e-003
2.127133e+003,-6.497706e-003
2.129061e+003,-6.390790e-003
2.130990e+003,-6.357290e-003
2.132918e+003,-6.362123e-003
2.134847e+003,-6.306055e-003
2.136775e+003,-6.227967e-003
2.138704e+003,-6.211636e-003
2.140632e+003,-6.199289e-003
2.142561e+003,-6.255108e-003
2.144489e+003,-6.358498e-003
2.146418e+003,-6.265984e-003
2.148346e+003,-6.151465e-003
2.150275e+003,-6.085569e-003
2.152203e+003,-6.101937e-003
2.154132e+003,-6.144833e-003
2.156060e+003,-6.185569e-003
2.157989e+003,-6.276043e-003
2.159917e+003,-6.301549e-003
2.161846e+003,-6.248282e-003
2.163774e+003,-6.189032e-003
2.165703e+003,-6.167374e-003
2.167631e+003,-6.180147e-003
2.169560e+003,-6.095469e-003
2.171488e+003,-5.957799e-003
2.173417e+003,-5.969923e-003
2.175345e+003,-6.045804e-003
2.177274e+003,-6.125591e-003
2.179202e+003,-6.112686e-003
2.181131e+003,-6.086124e-003
2.183059e+003,-5.992637e-003
2.184988e+003,-6.047078e-003
2.186916e+003,-6.152739e-003
2.188845e+003,-6.130982e-003
2.190773e+003,-5.988715e-003
2.192702e+003,-5.907399e-003
2.194630e+003,-5.991656e-003
2.196559e+003,-6.042569e-003
2.198487e+003,-6.074035e-003
2.200416e+003,-6.098474e-003
2.202344e+003,-6.068415e-003
2.204273e+003,-6.015120e-003
2.206201e+003,-6.002506e-003
2.208130e+003,-5.977212e-003
2.210058e+003,-6.005872e-003
2.211987e+003,-6.035217e-003
2.213915e+003,-6.022472e-003
2.215844e+003,-6.067729e-003
2.217772e+003,-6.057338e-003
2.219701e+003,-5.952308e-003
2.221629e+003,-5.967734e-003
2.223558e+003,-6.023420e-003
2.225486e+003,-6.036393e-003
2.227415e+003,-6.051261e-003
2.229343e+003,-6.087594e-003
2.231272e+003,-6.001003e-003
2.233200e+003,-6.024466e-003
2.235129e+003,-6.029923e-003
2.237057e+003,-5.928383e-003
2.238986e+003,-5.934528e-003
2.240914e+003,-6.093998e-003
2.242843e+003,-6.116444e-003
2.244771e+003,-6.041001e-003
2.246700e+003,-6.052535e-003
2.248628e+003,-6.072238e-003
2.250557e+003,-6.076584e-003
2.252485e+003,-6.074035e-003
2.254414e+003,-6.092136e-003
2.256342e+003,-6.171490e-003
2.258271e+003,-6.286134e-003
2.260199e+003,-6.322579e-003
2.262128e+003,-6.329894e-003
2.264056e+003,-6.271699e-003
2.265985e+003,-6.207748e-003
2.267913e+003,-6.319575e-003
2.269842e+003,-6.345960e-003
2.271770e+003,-6.305794e-003
2.273699e+003,-6.341094e-003
2.275627e+003,-6.294756e-003
2.277556e+003,-6.342629e-003
2.279484e+003,-6.447010e-003
2.281413e+003,-6.447206e-003
2.283341e+003,-6.540465e-003
2.285270e+003,-6.642123e-003
2.287198e+003,-6.540106e-003
2.289127e+003,-6.468295e-003
2.291055e+003,-6.452005e-003
2.292984e+003,-6.474236e-003
2.294912e+003,-6.576856e-003
2.296841e+003,-6.635695e-003
2.298769e+003,-6.658634e-003
2.300698e+003,-6.588082e-003
2.302626e+003,-6.525092e-003
2.304555e+003,-6.548853e-003
2.306483e+003,-6.535602e-003
2.308412e+003,-6.388701e-003
2.310340e+003,-6.359021e-003
2.312269e+003,-6.398659e-003
2.314197e+003,-6.335902e-003
2.316125e+003,-6.193997e-003
2.318054e+003,-6.136666e-003
2.319983e+003,-6.143592e-003
2.321911e+003,-6.168681e-003
2.323840e+003,-6.087594e-003
2.325768e+003,-6.000349e-003
2.327697e+003,-5.867062e-003
2.329625e+003,-5.882491e-003
2.331553e+003,-5.928155e-003
2.333482e+003,-5.793341e-003
2.335411e+003,-5.712152e-003
2.337339e+003,-5.797069e-003
2.339268e+003,-5.785625e-003
2.341196e+003,-5.638896e-003
2.343125e+003,-5.671143e-003
2.345053e+003,-5.720948e-003
2.346981e+003,-5.737560e-003
2.348910e+003,-5.745473e-003
2.350839e+003,-5.685696e-003
2.352767e+003,-5.597748e-003
2.354696e+003,-5.457434e-003
2.356624e+003,-5.257696e-003
2.358552e+003,-5.159119e-003
2.360481e+003,-5.205153e-003
2.362409e+003,-5.257238e-003
2.364338e+003,-5.302279e-003
2.366267e+003,-5.311903e-003
2.368195e+003,-5.362469e-003
2.370124e+003,-5.340967e-003
2.372052e+003,-5.413259e-003
2.373980e+003,-5.528497e-003
2.375909e+003,-5.558430e-003
2.377838e+003,-5.486325e-003
2.379766e+003,-5.424451e-003
2.381695e+003,-5.434169e-003
2.383623e+003,-5.400660e-003
2.385552e+003,-5.307287e-003
2.387480e+003,-5.216612e-003
2.389408e+003,-5.121823e-003
2.391337e+003,-5.104010e-003
2.393266e+003,-5.154961e-003
2.395194e+003,-5.059995e-003
2.397123e+003,-4.997831e-003
2.399051e+003,-5.094022e-003
2.400979e+003,-5.170415e-003
2.402908e+003,-5.181056e-003
2.404836e+003,-5.103715e-003
2.406765e+003,-5.100112e-003
2.408694e+003,-5.102830e-003
2.410622e+003,-5.036676e-003
2.412551e+003,-5.024689e-003
2.414479e+003,-5.050858e-003
2.416407e+003,-4.995177e-003
2.418336e+003,-4.926943e-003
2.420264e+003,-4.855160e-003
2.422193e+003,-4.716604e-003
2.424122e+003,-4.659669e-003
2.426050e+003,-4.634951e-003
2.427979e+003,-4.512361e-003
2.429907e+003,-4.376419e-003
2.431835e+003,-4.323473e-003
2.433764e+003,-4.291683e-003
2.435692e+003,-4.229409e-003
2.437621e+003,-4.159249e-003
2.439550e+003,-4.094067e-003
2.441478e+003,-4.092229e-003
2.443406e+003,-4.099089e-003
2.445335e+003,-4.163220e-003
2.447263e+003,-4.152685e-003
2.449192e+003,-4.077918e-003
2.451121e+003,-3.910088e-003
2.453049e+003,-3.867134e-003
2.454978e+003,-3.863588e-003
2.456906e+003,-3.817904e-003
2.458834e+003,-3.769916e-003
2.460763e+003,-3.648166e-003
2.462691e+003,-3.489471e-003
2.464620e+003,-3.423728e-003
2.466549e+003,-3.368957e-003
2.468477e+003,-3.388486e-003
2.470406e+003,-3.373001e-003
2.472334e+003,-3.362841e-003
2.474262e+003,-3.254033e-003
2.476191e+003,-3.116446e-003
2.478119e+003,-3.088779e-003
2.480048e+003,-3.168552e-003
2.481977e+003,-3.182038e-003
2.483905e+003,-3.112466e-003
2.485833e+003,-3.143520e-003
2.487762e+003,-3.149803e-003
2.489690e+003,-3.047291e-003
2.491619e+003,-3.035939e-003
2.493547e+003,-2.975887e-003
2.495476e+003,-2.987306e-003
2.497405e+003,-3.008793e-003
2.499333e+003,-2.888673e-003
2.501261e+003,-2.781490e-003
2.503190e+003,-2.853189e-003
2.505118e+003,-2.938502e-003
2.507047e+003,-2.869549e-003
2.508975e+003,-2.799334e-003
2.510904e+003,-2.778560e-003
2.512833e+003,-2.741092e-003
2.514761e+003,-2.758444e-003
2.516689e+003,-2.785704e-003
2.518618e+003,-2.831924e-003
2.520546e+003,-2.811844e-003
2.522475e+003,-2.759629e-003
2.524403e+003,-2.686465e-003
2.526332e+003,-2.622346e-003
2.528260e+003,-2.556769e-003
2.530189e+003,-2.533348e-003
2.532117e+003,-2.512199e-003
2.534046e+003,-2.551432e-003
2.535974e+003,-2.443178e-003
2.537903e+003,-2.409076e-003
2.539831e+003,-2.489336e-003
2.541760e+003,-2.435040e-003
2.543688e+003,-2.454611e-003
2.545617e+003,-2.516218e-003
2.547545e+003,-2.366666e-003
2.549474e+003,-2.202162e-003
2.551402e+003,-2.245543e-003
2.553331e+003,-2.293634e-003
2.555259e+003,-2.239511e-003
2.557188e+003,-2.132894e-003
2.559116e+003,-2.179612e-003
2.561045e+003,-2.149478e-003
2.562973e+003,-1.928091e-003
2.564902e+003,-1.996138e-003
2.566830e+003,-2.128673e-003
2.568759e+003,-2.080268e-003
2.570687e+003,-2.041618e-003
2.572616e+003,-1.990861e-003
2.574544e+003,-1.927530e-003
2.576473e+003,-1.882170e-003
2.578401e+003,-1.920075e-003
2.580330e+003,-1.924330e-003
2.582258e+003,-1.861649e-003
2.584187e+003,-1.821793e-003
2.586115e+003,-1.848551e-003
2.588044e+003,-1.740914e-003
2.589972e+003,-1.685633e-003
2.591901e+003,-1.703687e-003
2.593829e+003,-1.650711e-003
2.595758e+003,-1.641337e-003
2.597686e+003,-1.660779e-003
2.599615e+003,-1.595683e-003
2.601543e+003,-1.570956e-003
2.603472e+003,-1.685996e-003
2.605400e+003,-1.620277e-003
2.607329e+003,-1.607402e-003
2.609257e+003,-1.632457e-003
2.611186e+003,-1.572937e-003
2.613114e+003,-1.570362e-003
2.615043e+003,-1.639257e-003
2.616971e+003,-1.576073e-003
2.618900e+003,-1.498747e-003
2.620828e+003,-1.490294e-003
2.622757e+003,-1.451427e-003
2.624685e+003,-1.298502e-003
2.626614e+003,-1.270223e-003
2.628542e+003,-1.417015e-003
2.630471e+003,-1.588090e-003
2.632399e+003,-1.508224e-003
2.634328e+003,-1.507200e-003
2.636256e+003,-1.546723e-003
2.638185e+003,-1.442775e-003
2.640113e+003,-1.280761e-003
2.642042e+003,-1.202293e-003
2.643970e+003,-1.193602e-003
2.645899e+003,-1.165019e-003
2.647827e+003,-1.138153e-003
2.649756e+003,-1.114920e-003
2.651684e+003,-1.194561e-003
2.653613e+003,-1.103088e-003
2.655541e+003,-8.972700e-004
2.657470e+003,-8.431051e-004
2.659398e+003,-8.567958e-004
2.661327e+003,-7.917447e-004
2.663255e+003,-7.434875e-004
2.665184e+003,-7.231775e-004
2.667112e+003,-6.322010e-004
2.669041e+003,-5.234011e-004
2.670969e+003,-5.116856e-004
2.672898e+003,-5.121490e-004
2.674826e+003,-4.975538e-004
2.676755e+003,-4.183145e-004
2.678683e+003,-4.149712e-004
2.680612e+003,-3.385642e-004
2.682540e+003,-2.127678e-004
2.684469e+003,-1.711367e-004
2.686397e+003,-6.000160e-005
2.688326e+003,-2.458476e-005
2.690254e+003,-4.621952e-005
2.692183e+003,5.881690e-005
2.694111e+003,1.632158e-004
2.696040e+003,1.818114e-004
2.697968e+003,2.310720e-004
2.699897e+003,3.012929e-004
2.701825e+003,2.980104e-004
2.703754e+003,3.783898e-004
2.705682e+003,4.986221e-004
2.707611e+003,5.377669e-004
2.709539e+003,5.879637e-004
2.711468e+003,6.092651e-004
2.713396e+003,6.825008e-004
2.715325e+003,7.344734e-004
2.717253e+003,7.425719e-004
2.719182e+003,7.156219e-004
2.721110e+003,7.593667e-004
2.723039e+003,7.894398e-004
2.724967e+003,7.956472e-004
2.726896e+003,8.989949e-004
2.728824e+003,9.817438e-004
2.730753e+003,9.766629e-004
2.732681e+003,1.040030e-003
2.734610e+003,1.150545e-003
2.736538e+003,1.252282e-003
2.738467e+003,1.324563e-003
2.740395e+003,1.469859e-003
2.742324e+003,1.564455e-003
2.744252e+003,1.539648e-003
2.746181e+003,1.486449e-003
2.748109e+003,1.571804e-003
2.750038e+003,1.719877e-003
2.751966e+003,1.777663e-003
2.753895e+003,1.877251e-003
2.755823e+003,1.944011e-003
2.757752e+003,2.047433e-003
2.759680e+003,2.178285e-003
2.761609e+003,2.328696e-003
2.763537e+003,2.566877e-003
2.765466e+003,2.790749e-003
2.767394e+003,3.067789e-003
2.769323e+003,3.374324e-003
2.771251e+003,3.732573e-003
2.773180e+003,4.127008e-003
2.775108e+003,4.423748e-003
2.777037e+003,4.763668e-003
2.778965e+003,5.144657e-003
2.780894e+003,5.685613e-003
2.782822e+003,6.203649e-003
2.784750e+003,6.755115e-003
2.786679e+003,7.449334e-003
2.788608e+003,8.070700e-003
2.790536e+003,8.623022e-003
2.792465e+003,9.258188e-003
2.794393e+003,9.847576e-003
2.796322e+003,1.041442e-002
2.798250e+003,1.099335e-002
2.800178e+003,1.157808e-002
2.802107e+003,1.218675e-002
2.804036e+003,1.272127e-002
2.805964e+003,1.324763e-002
2.807893e+003,1.357262e-002
2.809821e+003,1.367868e-002
2.811750e+003,1.384602e-002
2.813678e+003,1.394353e-002
2.815606e+003,1.392170e-002
2.817535e+003,1.388861e-002
2.819464e+003,1.385960e-002
2.821392e+003,1.374724e-002
2.823321e+003,1.349967e-002
2.825249e+003,1.315773e-002
2.827177e+003,1.296355e-002
2.829106e+003,1.278224e-002
2.831034e+003,1.233668e-002
2.832963e+003,1.186528e-002
2.834892e+003,1.141127e-002
2.836820e+003,1.093004e-002
2.838749e+003,1.048966e-002
2.840677e+003,1.000372e-002
2.842605e+003,9.492310e-003
2.844534e+003,9.075007e-003
2.846462e+003,8.603148e-003
2.848391e+003,8.119682e-003
2.850320e+003,7.823106e-003
2.852248e+003,7.581520e-003
2.854177e+003,7.329049e-003
2.856105e+003,7.046921e-003
2.858033e+003,6.840805e-003
2.859962e+003,6.815022e-003
2.861890e+003,6.713185e-003
2.863819e+003,6.510691e-003
2.865748e+003,6.442250e-003
2.867676e+003,6.447059e-003
2.869604e+003,6.429606e-003
2.871533e+003,6.447631e-003
2.873461e+003,6.541871e-003
2.875390e+003,6.672368e-003
2.877319e+003,6.779615e-003
2.879247e+003,6.913180e-003
2.881176e+003,7.016007e-003
2.883104e+003,7.015131e-003
2.885032e+003,6.925703e-003
2.886961e+003,6.917455e-003
2.888889e+003,6.963210e-003
2.890818e+003,7.044024e-003
2.892747e+003,6.980988e-003
2.894675e+003,6.918230e-003
2.896604e+003,6.893385e-003
2.898532e+003,6.841646e-003
2.900460e+003,6.757235e-003
2.902389e+003,6.737615e-003
2.904317e+003,6.736336e-003
2.906246e+003,6.683708e-003
2.908175e+003,6.667254e-003
2.910103e+003,6.664966e-003
2.912031e+003,6.603633e-003
2.913960e+003,6.620151e-003
2.915888e+003,6.646966e-003
2.917817e+003,6.755249e-003
2.919745e+003,6.916311e-003
2.921674e+003,6.979304e-003
2.923603e+003,6.998328e-003
2.925531e+003,7.135430e-003
2.927459e+003,7.238748e-003
2.929388e+003,7.276450e-003
2.931316e+003,7.487627e-003
2.933245e+003,7.661202e-003
2.935173e+003,7.653378e-003
2.937102e+003,7.599560e-003
2.939031e+003,7.662888e-003
2.940959e+003,7.665721e-003
2.942887e+003,7.448862e-003
2.944816e+003,7.211527e-003
2.946744e+003,7.091847e-003
2.948673e+003,6.873624e-003
2.950601e+003,6.503863e-003
2.952530e+003,6.059517e-003
2.954458e+003,5.648117e-003
2.956387e+003,5.304686e-003
2.958315e+003,4.838579e-003
2.960244e+003,4.250290e-003
2.962172e+003,3.720876e-003
2.964101e+003,3.297161e-003
2.966029e+003,2.818628e-003
2.967958e+003,2.321767e-003
2.969886e+003,1.877883e-003
2.971815e+003,1.393598e-003
2.973743e+003,9.953929e-004
2.975672e+003,7.414102e-004
2.977600e+003,5.510040e-004
2.979529e+003,3.449298e-004
2.981457e+003,1.656702e-007
2.983386e+003,-2.870778e-004
2.985314e+003,-5.675133e-004
2.987243e+003,-7.697501e-004
2.989171e+003,-8.847049e-004
2.991100e+003,-1.052948e-003
2.993028e+003,-1.293315e-003
2.994957e+003,-1.368762e-003
2.996885e+003,-1.364930e-003
2.998814e+003,-1.460410e-003
3.000742e+003,-1.623908e-003
3.002671e+003,-1.716558e-003
3.004599e+003,-1.746161e-003
3.006528e+003,-1.775465e-003
3.008456e+003,-1.874252e-003
3.010385e+003,-2.035154e-003
3.012313e+003,-2.010881e-003
3.014242e+003,-1.949961e-003
3.016170e+003,-2.072617e-003
3.018099e+003,-2.214590e-003
3.020027e+003,-2.145159e-003
3.021956e+003,-2.192074e-003
3.023884e+003,-2.307707e-003
3.025813e+003,-2.411909e-003
3.027741e+003,-2.545800e-003
3.029670e+003,-2.508378e-003
3.031598e+003,-2.366666e-003
3.033527e+003,-2.420411e-003
3.035455e+003,-2.433426e-003
3.037384e+003,-2.371807e-003
3.039312e+003,-2.482154e-003
3.041241e+003,-2.699308e-003
3.043169e+003,-2.782149e-003
3.045098e+003,-2.706585e-003
3.047026e+003,-2.672239e-003
3.048955e+003,-2.778659e-003
3.050883e+003,-2.927806e-003
3.052812e+003,-3.040447e-003
3.054740e+003,-3.063939e-003
3.056669e+003,-3.113749e-003
3.058597e+003,-3.204930e-003
3.060526e+003,-3.263537e-003
3.062454e+003,-3.267286e-003
3.064383e+003,-3.244002e-003
3.066311e+003,-3.270838e-003
3.068240e+003,-3.366064e-003
3.070168e+003,-3.464818e-003
3.072097e+003,-3.510474e-003
3.074025e+003,-3.503473e-003
3.075954e+003,-3.570682e-003
3.077882e+003,-3.672972e-003
3.079811e+003,-3.756087e-003
3.081739e+003,-3.847167e-003
3.083668e+003,-3.888283e-003
3.085596e+003,-3.841058e-003
3.087525e+003,-3.825392e-003
3.089453e+003,-3.785683e-003
3.091382e+003,-3.857381e-003
3.093310e+003,-3.992107e-003
3.095239e+003,-4.008128e-003
3.097167e+003,-4.027694e-003
3.099096e+003,-4.127316e-003
3.101024e+003,-4.242567e-003
3.102953e+003,-4.276427e-003
3.104881e+003,-4.257135e-003
3.106810e+003,-4.218777e-003
3.108738e+003,-4.157247e-003
3.110667e+003,-4.269537e-003
3.112595e+003,-4.332659e-003
3.114524e+003,-4.228228e-003
3.116452e+003,-4.311631e-003
3.118381e+003,-4.471271e-003
3.120309e+003,-4.550857e-003
3.122238e+003,-4.545315e-003
3.124166e+003,-4.607544e-003
3.126095e+003,-4.618199e-003
3.128023e+003,-4.494555e-003
3.129952e+003,-4.432080e-003
3.131880e+003,-4.578923e-003
3.133809e+003,-4.718669e-003
3.135737e+003,-4.781038e-003
3.137666e+003,-4.631837e-003
3.139594e+003,-4.557611e-003
3.141523e+003,-4.670518e-003
3.143451e+003,-4.761407e-003
3.145380e+003,-4.769109e-003
3.147308e+003,-4.677271e-003
3.149237e+003,-4.688121e-003
3.151165e+003,-4.680614e-003
3.153094e+003,-4.780677e-003
3.155022e+003,-4.860861e-003
3.156951e+003,-4.762587e-003
3.158879e+003,-4.640918e-003
3.160808e+003,-4.541643e-003
3.162736e+003,-4.592201e-003
3.164665e+003,-4.700511e-003
3.166593e+003,-4.736466e-003
3.168522e+003,-4.766978e-003
3.170450e+003,-4.750723e-003
3.172379e+003,-4.697200e-003
3.174307e+003,-4.652326e-003
3.176236e+003,-4.660127e-003
3.178164e+003,-4.710967e-003
3.180093e+003,-4.675731e-003
3.182021e+003,-4.612167e-003
3.183950e+003,-4.634853e-003
3.185878e+003,-4.711426e-003
3.187807e+003,-4.757310e-003
3.189735e+003,-4.730829e-003
3.191664e+003,-4.755016e-003
3.193592e+003,-4.835664e-003
3.195521e+003,-4.840775e-003
3.197449e+003,-4.710311e-003
3.199378e+003,-4.561414e-003
3.201306e+003,-4.572988e-003
3.203235e+003,-4.682844e-003
3.205163e+003,-4.621707e-003
3.207092e+003,-4.658325e-003
3.209020e+003,-4.638197e-003
3.210948e+003,-4.495965e-003
3.212877e+003,-4.434015e-003
3.214806e+003,-4.428997e-003
3.216734e+003,-4.442018e-003
3.218663e+003,-4.489472e-003
3.220591e+003,-4.413483e-003
3.222520e+003,-4.271047e-003
3.224448e+003,-4.199253e-003
3.226376e+003,-4.082907e-003
3.228305e+003,-3.969650e-003
3.230234e+003,-3.920530e-003
3.232162e+003,-3.894424e-003
3.234091e+003,-3.852849e-003
3.236019e+003,-3.797376e-003
3.237948e+003,-3.779770e-003
3.239876e+003,-3.564175e-003
3.241804e+003,-3.442104e-003
3.243733e+003,-3.547481e-003
3.245662e+003,-3.451670e-003
3.247590e+003,-3.329600e-003
3.249519e+003,-3.227032e-003
3.251447e+003,-3.269884e-003
3.253375e+003,-3.304215e-003
3.255304e+003,-3.248015e-003
3.257232e+003,-3.040217e-003
3.259161e+003,-2.867212e-003
3.261090e+003,-2.839825e-003
3.263018e+003,-2.782609e-003
3.264947e+003,-2.822575e-003
3.266875e+003,-2.869187e-003
3.268803e+003,-2.809506e-003
3.270732e+003,-2.706124e-003
3.272660e+003,-2.564279e-003
3.274589e+003,-2.439719e-003
3.276518e+003,-2.467197e-003
3.278446e+003,-2.494508e-003
3.280375e+003,-2.579266e-003
3.282303e+003,-2.557757e-003
3.284231e+003,-2.537433e-003
3.286160e+003,-2.529757e-003
3.288088e+003,-2.567112e-003
3.290017e+003,-2.747941e-003
3.291946e+003,-2.847824e-003
3.293874e+003,-3.004976e-003
3.295802e+003,-3.097299e-003
3.297731e+003,-2.985660e-003
3.299659e+003,-2.982106e-003
3.301588e+003,-3.015309e-003
3.303516e+003,-3.033143e-003
3.305445e+003,-3.182893e-003
3.307374e+003,-3.457258e-003
3.309302e+003,-3.628780e-003
3.311230e+003,-3.695641e-003
3.313159e+003,-3.846740e-003
3.315087e+003,-4.033308e-003
3.317016e+003,-4.146680e-003
3.318944e+003,-4.325770e-003
3.320873e+003,-4.325278e-003
3.322802e+003,-4.409941e-003
3.324730e+003,-4.644032e-003
3.326658e+003,-4.778318e-003
3.328587e+003,-4.725683e-003
3.330515e+003,-4.657407e-003
3.332444e+003,-4.674354e-003
3.334372e+003,-4.868987e-003
3.336301e+003,-4.993736e-003
3.338229e+003,-4.980471e-003
3.340158e+003,-5.016697e-003
3.342086e+003,-5.111082e-003
3.344015e+003,-5.085638e-003
3.345943e+003,-5.140488e-003
3.347872e+003,-5.231867e-003
3.349800e+003,-5.139473e-003
3.351729e+003,-5.205676e-003
3.353657e+003,-5.545573e-003
3.355586e+003,-5.673138e-003
3.357514e+003,-5.873044e-003
3.359443e+003,-5.993193e-003
3.361371e+003,-5.959661e-003
3.363300e+003,-5.959498e-003
3.365229e+003,-6.078674e-003
3.367157e+003,-6.275227e-003
3.369085e+003,-6.479916e-003
3.371014e+003,-6.466434e-003
3.372942e+003,-6.405124e-003
3.374871e+003,-6.564715e-003
3.376799e+003,-6.706989e-003
3.378728e+003,-6.783034e-003
3.380656e+003,-6.909518e-003
3.382585e+003,-7.056341e-003
3.384513e+003,-7.308071e-003
3.386442e+003,-7.423458e-003
3.388370e+003,-7.231498e-003
3.390299e+003,-7.207448e-003
3.392227e+003,-7.382317e-003
3.394156e+003,-7.465832e-003
3.396084e+003,-7.519210e-003
3.398013e+003,-7.427562e-003
3.399941e+003,-7.435965e-003
3.401870e+003,-7.570302e-003
3.403798e+003,-7.555258e-003
3.405727e+003,-7.641899e-003
3.407655e+003,-7.679207e-003
3.409584e+003,-7.670873e-003
3.411512e+003,-7.767710e-003
3.413441e+003,-7.878322e-003
3.415369e+003,-7.852226e-003
3.417298e+003,-7.726374e-003
3.419226e+003,-7.688680e-003
3.421155e+003,-7.858083e-003
3.423083e+003,-7.951169e-003
3.425012e+003,-7.911771e-003
3.426940e+003,-8.038902e-003
3.428869e+003,-8.065768e-003
3.430797e+003,-8.008911e-003
3.432726e+003,-8.036495e-003
3.434654e+003,-8.261228e-003
3.436583e+003,-8.331541e-003
3.438511e+003,-8.150420e-003
3.440440e+003,-7.974430e-003
3.442368e+003,-8.016068e-003
3.444297e+003,-8.115007e-003
3.446225e+003,-8.157444e-003
3.448154e+003,-8.298677e-003
3.450082e+003,-8.314345e-003
3.452011e+003,-8.241104e-003
3.453939e+003,-8.310639e-003
3.455868e+003,-8.480061e-003
3.457796e+003,-8.501798e-003
3.459725e+003,-8.443536e-003
3.461653e+003,-8.467908e-003
3.463582e+003,-8.462579e-003
3.465510e+003,-8.511318e-003
3.467439e+003,-8.581882e-003
3.469367e+003,-8.696640e-003
3.471296e+003,-8.689624e-003
3.473224e+003,-8.664876e-003
3.475153e+003,-8.604167e-003
3.477081e+003,-8.549461e-003
3.479010e+003,-8.733467e-003
3.480938e+003,-8.743534e-003
3.482867e+003,-8.740222e-003
3.484795e+003,-8.723692e-003
3.486724e+003,-8.586820e-003
3.488652e+003,-8.565250e-003
3.490581e+003,-8.748048e-003
3.492509e+003,-8.899834e-003
3.494438e+003,-8.689884e-003
3.496366e+003,-8.524282e-003
3.498295e+003,-8.705279e-003
3.500223e+003,-8.837990e-003
3.502152e+003,-8.978093e-003
3.504080e+003,-9.069317e-003
3.506009e+003,-8.917071e-003
3.507937e+003,-8.770227e-003
3.509866e+003,-8.865033e-003
3.511794e+003,-8.899054e-003
3.513723e+003,-8.773214e-003
3.515651e+003,-8.940247e-003
3.517580e+003,-8.904639e-003
3.519508e+003,-8.840165e-003
3.521437e+003,-8.853930e-003
3.523365e+003,-9.008373e-003
3.525294e+003,-9.083010e-003
3.527222e+003,-9.022977e-003
3.529151e+003,-8.967577e-003
3.531079e+003,-8.956476e-003
3.533008e+003,-8.999026e-003
3.534936e+003,-9.010904e-003
3.536865e+003,-8.971764e-003
3.538793e+003,-8.855197e-003
3.540722e+003,-8.771493e-003
3.542650e+003,-8.790813e-003
3.544579e+003,-8.882142e-003
3.546507e+003,-8.970920e-003
3.548436e+003,-9.024730e-003
3.550364e+003,-9.113316e-003
3.552293e+003,-9.099008e-003
3.554221e+003,-8.991627e-003
3.556150e+003,-8.927945e-003
3.558078e+003,-8.820230e-003
3.560007e+003,-8.848963e-003
3.561935e+003,-8.826431e-003
3.563864e+003,-9.008113e-003
3.565792e+003,-9.143036e-003
3.567721e+003,-9.040468e-003
3.569649e+003,-9.058219e-003
3.571578e+003,-9.184594e-003
3.573506e+003,-9.055202e-003
3.575435e+003,-8.700796e-003
3.577363e+003,-8.583962e-003
3.579292e+003,-8.666662e-003
3.581220e+003,-8.909930e-003
3.583149e+003,-9.099721e-003
3.585077e+003,-9.041410e-003
3.587006e+003,-9.143133e-003
3.588934e+003,-9.066883e-003
3.590863e+003,-8.873344e-003
3.592791e+003,-9.025963e-003
3.594720e+003,-9.181447e-003
3.596648e+003,-9.017427e-003
3.598577e+003,-8.951770e-003
3.600505e+003,-9.028689e-003
3.602434e+003,-9.105951e-003
3.604362e+003,-8.891718e-003
3.606291e+003,-8.893698e-003
3.608219e+003,-8.986467e-003
3.610148e+003,-8.932847e-003
3.612076e+003,-8.940572e-003
3.614005e+003,-8.959820e-003
3.615933e+003,-8.964851e-003
3.617862e+003,-9.012981e-003
3.619790e+003,-8.967544e-003
3.621719e+003,-8.884447e-003
3.623647e+003,-8.807957e-003
3.625576e+003,-8.831464e-003
3.627504e+003,-8.937456e-003
3.629433e+003,-8.912169e-003
3.631361e+003,-8.920771e-003
3.633290e+003,-9.002694e-003
3.635218e+003,-8.881460e-003
3.637146e+003,-8.805976e-003
3.639075e+003,-8.851528e-003
3.641004e+003,-8.841398e-003
3.642932e+003,-8.903989e-003
3.644861e+003,-9.092420e-003
3.646789e+003,-9.238118e-003
3.648718e+003,-9.475554e-003
3.650646e+003,-9.523759e-003
3.652574e+003,-9.160912e-003
3.654503e+003,-9.022523e-003
3.656432e+003,-9.057052e-003
3.658360e+003,-9.066559e-003
3.660289e+003,-9.076294e-003
3.662217e+003,-9.117372e-003
3.664146e+003,-9.049036e-003
3.666074e+003,-9.019504e-003
3.668002e+003,-9.174764e-003
3.669931e+003,-9.346345e-003
3.671860e+003,-9.387139e-003
3.673788e+003,-9.633470e-003
3.675717e+003,-9.756373e-003
3.677645e+003,-9.353804e-003
3.679573e+003,-9.293614e-003
3.681502e+003,-9.245351e-003
3.683430e+003,-9.157473e-003
3.685359e+003,-9.309408e-003
3.687288e+003,-9.438920e-003
3.689216e+003,-9.318391e-003
3.691145e+003,-9.209735e-003
3.693073e+003,-9.137910e-003
3.695001e+003,-9.063184e-003
3.696930e+003,-9.049295e-003
3.698858e+003,-9.060751e-003
3.700787e+003,-8.991269e-003
3.702716e+003,-8.993769e-003
3.704644e+003,-8.922362e-003
3.706573e+003,-8.880876e-003
3.708501e+003,-9.062860e-003
3.710429e+003,-9.137552e-003
3.712358e+003,-8.995879e-003
3.714286e+003,-8.774318e-003
3.716215e+003,-8.865488e-003
3.718144e+003,-9.084730e-003
3.720072e+003,-8.991107e-003
3.722000e+003,-8.890193e-003
3.723929e+003,-8.904248e-003
3.725857e+003,-8.823542e-003
3.727786e+003,-8.629536e-003
3.729714e+003,-8.766005e-003
3.731643e+003,-9.128208e-003
3.733572e+003,-9.172818e-003
3.735500e+003,-9.163313e-003
3.737428e+003,-8.997955e-003
3.739357e+003,-8.772207e-003
3.741285e+003,-8.720607e-003
3.743214e+003,-8.899736e-003
3.745142e+003,-8.673742e-003
3.747071e+003,-8.589614e-003
3.749000e+003,-8.800976e-003
3.750928e+003,-8.939436e-003
3.752856e+003,-8.537472e-003
3.754785e+003,-8.270070e-003
3.756713e+003,-8.254888e-003
3.758642e+003,-8.298970e-003
3.760570e+003,-8.101380e-003
3.762499e+003,-7.886001e-003
3.764427e+003,-7.963760e-003
3.766356e+003,-7.965353e-003
3.768284e+003,-7.977325e-003
3.770213e+003,-7.947753e-003
3.772141e+003,-7.724909e-003
3.774070e+003,-7.678979e-003
3.775998e+003,-7.782063e-003
3.777927e+003,-8.057701e-003
3.779855e+003,-8.188335e-003
3.781784e+003,-8.033958e-003
3.783712e+003,-7.861434e-003
3.785641e+003,-7.746294e-003
3.787569e+003,-7.822287e-003
3.789498e+003,-7.851477e-003
3.791426e+003,-7.901750e-003
3.793355e+003,-7.959791e-003
3.795283e+003,-7.866771e-003
3.797212e+003,-7.907508e-003
3.799140e+003,-8.247118e-003
3.801069e+003,-8.488834e-003
3.802997e+003,-8.135039e-003
3.804926e+003,-8.110226e-003
3.806854e+003,-8.117088e-003
3.808783e+003,-8.117251e-003
3.810711e+003,-8.054742e-003
3.812640e+003,-7.923516e-003
3.814568e+003,-8.107495e-003
3.816497e+003,-7.878518e-003
3.818425e+003,-7.652122e-003
3.820354e+003,-7.516735e-003
3.822282e+003,-7.276955e-003
3.824211e+003,-7.505076e-003
3.826139e+003,-7.897845e-003
3.828068e+003,-7.726927e-003
3.829996e+003,-7.538097e-003
3.831925e+003,-7.414305e-003
3.833853e+003,-7.492701e-003
3.835782e+003,-7.642452e-003
3.837710e+003,-7.633597e-003
3.839639e+003,-7.826615e-003
3.841567e+003,-7.665794e-003
3.843496e+003,-7.538749e-003
3.845424e+003,-7.571377e-003
3.847353e+003,-7.691186e-003
3.849281e+003,-7.667683e-003
3.851210e+003,-7.667227e-003
3.853138e+003,-7.836313e-003
3.855067e+003,-7.595537e-003
3.856995e+003,-7.401373e-003
3.858924e+003,-7.382024e-003
3.860852e+003,-7.526309e-003
3.862781e+003,-7.567144e-003
3.864709e+003,-7.396389e-003
3.866638e+003,-7.343582e-003
3.868566e+003,-7.586908e-003
3.870495e+003,-7.354529e-003
3.872423e+003,-7.279138e-003
3.874352e+003,-7.374368e-003
3.876280e+003,-7.320158e-003
3.878209e+003,-7.356874e-003
3.880137e+003,-7.362185e-003
3.882066e+003,-7.424630e-003
3.883994e+003,-7.664167e-003
3.885923e+003,-7.343550e-003
3.887851e+003,-7.162180e-003
3.889780e+003,-7.386095e-003
3.891708e+003,-7.654856e-003
3.893637e+003,-7.644634e-003
3.895565e+003,-7.454237e-003
3.897494e+003,-7.440655e-003
3.899422e+003,-7.325469e-003
3.901351e+003,-7.373880e-003
3.903279e+003,-7.358927e-003
3.905208e+003,-7.032607e-003
3.907136e+003,-7.080888e-003
3.909065e+003,-7.196661e-003
3.910993e+003,-7.222081e-003
3.912922e+003,-7.179226e-003
3.914850e+003,-7.006786e-003
3.916779e+003,-7.123720e-003
3.918707e+003,-7.318040e-003
3.920636e+003,-7.203440e-003
3.922564e+003,-7.290346e-003
3.924493e+003,-7.225665e-003
3.926421e+003,-7.136920e-003
3.928350e+003,-7.240101e-003
3.930278e+003,-7.168894e-003
3.932207e+003,-6.991331e-003
3.934135e+003,-6.810858e-003
3.936064e+003,-6.670935e-003
3.937992e+003,-6.749890e-003
3.939921e+003,-7.171338e-003
3.941849e+003,-7.221103e-003
3.943778e+003,-6.997037e-003
3.945706e+003,-7.012394e-003
3.947635e+003,-6.889658e-003
3.949563e+003,-6.763363e-003
3.951492e+003,-6.848270e-003
3.953420e+003,-7.011709e-003
3.955349e+003,-6.961758e-003
3.957277e+003,-6.903159e-003
3.959206e+003,-6.936617e-003
3.961134e+003,-6.924812e-003
3.963063e+003,-6.909714e-003
3.964991e+003,-7.053244e-003
3.966920e+003,-7.010796e-003
3.968848e+003,-6.878471e-003
3.970777e+003,-6.725487e-003
3.972705e+003,-6.978517e-003
3.974634e+003,-7.219930e-003
3.976562e+003,-6.989147e-003
3.978491e+003,-6.902735e-003
3.980419e+003,-6.894484e-003
3.982348e+003,-6.860534e-003
3.984276e+003,-6.737297e-003
3.986205e+003,-6.859262e-003
3.988133e+003,-6.683269e-003
3.990062e+003,-6.724215e-003
3.991990e+003,-6.951976e-003
3.993919e+003,-6.844813e-003
3.995847e+003,-6.759416e-003
3.997776e+003,-6.880559e-003
3.999704e+003,-6.931236e-003
4.001633e+003,0.000000e+000
