3.991989e+002,1.126132e-002
4.011274e+002,4.501111e-003
4.030559e+002,-1.195156e-003
4.049844e+002,-3.929527e-003
4.069129e+002,-2.064505e-003
4.088414e+002,6.773254e-003
4.107699e+002,5.462191e-003
4.126984e+002,-3.243274e-004
4.146269e+002,7.912382e-003
4.165554e+002,1.475981e-002
4.184839e+002,1.055657e-002
4.204124e+002,1.477842e-002
4.223409e+002,1.889254e-002
4.242694e+002,1.536554e-002
4.261979e+002,8.708134e-003
4.281264e+002,1.578842e-002
4.300549e+002,2.176194e-002
4.319834e+002,1.518031e-002
4.339119e+002,1.151786e-002
4.358404e+002,1.458392e-002
4.377689e+002,2.713176e-002
4.396974e+002,2.892166e-002
4.416259e+002,1.412240e-002
4.435544e+002,1.292948e-002
4.454829e+002,1.710412e-002
4.474114e+002,1.627173e-002
4.493399e+002,1.459252e-002
4.512684e+002,1.501293e-002
4.531969e+002,1.419813e-002
4.551254e+002,1.260678e-002
4.570539e+002,1.179426e-002
4.589824e+002,9.521639e-003
4.609109e+002,9.174727e-003
4.628394e+002,1.167522e-002
4.647679e+002,1.090109e-002
4.666964e+002,1.176855e-002
4.686249e+002,1.500638e-002
4.705533e+002,1.534916e-002
4.724819e+002,1.362906e-002
4.744103e+002,1.397275e-002
4.763389e+002,1.456552e-002
4.782673e+002,1.367837e-002
4.801959e+002,1.412453e-002
4.821243e+002,1.372724e-002
4.840529e+002,1.350856e-002
4.859813e+002,1.328969e-002
4.879099e+002,1.325436e-002
4.898383e+002,1.404875e-002
4.917668e+002,1.323144e-002
4.936953e+002,1.204420e-002
4.956238e+002,1.393856e-002
4.975523e+002,1.435204e-002
4.994808e+002,1.253277e-002
5.014093e+002,1.387914e-002
5.033378e+002,1.493649e-002
5.052663e+002,1.693710e-002
5.071948e+002,1.681137e-002
5.091233e+002,1.365577e-002
5.110518e+002,1.293399e-002
5.129803e+002,1.347069e-002
5.149088e+002,1.443897e-002
5.168373e+002,1.424304e-002
5.187658e+002,1.330557e-002
5.206943e+002,1.213717e-002
5.226228e+002,1.250266e-002
5.245513e+002,1.440376e-002
5.264798e+002,1.453119e-002
5.284083e+002,1.377915e-002
5.303368e+002,1.378226e-002
5.322653e+002,1.373117e-002
5.341938e+002,1.467179e-002
5.361223e+002,1.502552e-002
5.380508e+002,1.451783e-002
5.399792e+002,1.419689e-002
5.419078e+002,1.506061e-002
5.438363e+002,1.520444e-002
5.457648e+002,1.600927e-002
5.476932e+002,1.614478e-002
5.496218e+002,1.629509e-002
5.515503e+002,1.619877e-002
5.534788e+002,1.670076e-002
5.554072e+002,1.711839e-002
5.573358e+002,1.743701e-002
5.592643e+002,1.705494e-002
5.611927e+002,1.686548e-002
5.631212e+002,1.761464e-002
5.650497e+002,1.734679e-002
5.669783e+002,1.627723e-002
5.689067e+002,1.628250e-002
5.708352e+002,1.601178e-002
5.727637e+002,1.704523e-002
5.746923e+002,1.683366e-002
5.766207e+002,1.467453e-002
5.785492e+002,1.715817e-002
5.804777e+002,2.705269e-002
5.824063e+002,2.420156e-002
5.843347e+002,1.650481e-002
5.862632e+002,1.584292e-002
5.881917e+002,1.666385e-002
5.901202e+002,1.789523e-002
5.920487e+002,1.811481e-002
5.939772e+002,1.860992e-002
5.959057e+002,1.919507e-002
5.978342e+002,2.108973e-002
5.997627e+002,2.250588e-002
6.016912e+002,2.293609e-002
6.036197e+002,2.350045e-002
6.055482e+002,2.568106e-002
6.074767e+002,2.706444e-002
6.094052e+002,2.635662e-002
6.113337e+002,2.502221e-002
6.132622e+002,2.443694e-002
6.151907e+002,2.374213e-002
6.171192e+002,2.363572e-002
6.190477e+002,2.527401e-002
6.209762e+002,2.570514e-002
6.229047e+002,2.397401e-002
6.248332e+002,2.068834e-002
6.267617e+002,1.749299e-002
6.286902e+002,1.516268e-002
6.306187e+002,1.469030e-002
6.325472e+002,1.433653e-002
6.344756e+002,1.406292e-002
6.364042e+002,1.409666e-002
6.383326e+002,1.372645e-002
6.402612e+002,1.345511e-002
6.421896e+002,1.376212e-002
6.441182e+002,1.332430e-002
6.460466e+002,1.207540e-002
6.479752e+002,1.180175e-002
6.499036e+002,1.215700e-002
6.518322e+002,1.247098e-002
6.537606e+002,1.254044e-002
6.556891e+002,1.198636e-002
6.576177e+002,1.152531e-002
6.595461e+002,1.115697e-002
6.614746e+002,1.098284e-002
6.634031e+002,1.078103e-002
6.653317e+002,1.130787e-002
6.672601e+002,1.162961e-002
6.691886e+002,1.154031e-002
6.711171e+002,1.156495e-002
6.730457e+002,1.175078e-002
6.749741e+002,1.174500e-002
6.769026e+002,1.246477e-002
6.788311e+002,1.251742e-002
6.807596e+002,1.230263e-002
6.826881e+002,1.241867e-002
6.846166e+002,1.273447e-002
6.865451e+002,1.268729e-002
6.884736e+002,1.287234e-002
6.904021e+002,1.346409e-002
6.923306e+002,1.389268e-002
6.942591e+002,1.357662e-002
6.961876e+002,1.295617e-002
6.981161e+002,1.284050e-002
7.000446e+002,1.310739e-002
7.019731e+002,1.344953e-002
7.039016e+002,1.400488e-002
7.058301e+002,1.402839e-002
7.077585e+002,1.401542e-002
7.096871e+002,1.423294e-002
7.116156e+002,1.490658e-002
7.135441e+002,1.534117e-002
7.154725e+002,1.519198e-002
7.174011e+002,1.485004e-002
7.193296e+002,1.535006e-002
7.212581e+002,1.588515e-002
7.231865e+002,1.629168e-002
7.251151e+002,1.645405e-002
7.270436e+002,1.636782e-002
7.289720e+002,1.631366e-002
7.309005e+002,1.663672e-002
7.328290e+002,1.676081e-002
7.347576e+002,1.739679e-002
7.366860e+002,1.836043e-002
7.386145e+002,1.856251e-002
7.405430e+002,1.775610e-002
7.424716e+002,1.693255e-002
7.444000e+002,1.694830e-002
7.463285e+002,1.730555e-002
7.482570e+002,1.723018e-002
7.501855e+002,1.784047e-002
7.521140e+002,1.856856e-002
7.540425e+002,1.859733e-002
7.559710e+002,1.800463e-002
7.578995e+002,1.858094e-002
7.598280e+002,1.902856e-002
7.617565e+002,1.850034e-002
7.636850e+002,1.825875e-002
7.656135e+002,1.852098e-002
7.675420e+002,1.898436e-002
7.694705e+002,1.919850e-002
7.713990e+002,1.861611e-002
7.733275e+002,1.832134e-002
7.752560e+002,1.803063e-002
7.771844e+002,1.802176e-002
7.791130e+002,1.791999e-002
7.810415e+002,1.770319e-002
7.829700e+002,1.775617e-002
7.848984e+002,1.780906e-002
7.868270e+002,1.742352e-002
7.887555e+002,1.708093e-002
7.906840e+002,1.665355e-002
7.926124e+002,1.629467e-002
7.945410e+002,1.634913e-002
7.964695e+002,1.640140e-002
7.983979e+002,1.593815e-002
8.003264e+002,1.554257e-002
8.022549e+002,1.558113e-002
8.041835e+002,1.585079e-002
8.061119e+002,1.633283e-002
8.080404e+002,1.699078e-002
8.099689e+002,1.695336e-002
8.118975e+002,1.647335e-002
8.138259e+002,1.680576e-002
8.157545e+002,1.759256e-002
8.176830e+002,1.757935e-002
8.196115e+002,1.703371e-002
8.215399e+002,1.669026e-002
8.234684e+002,1.713797e-002
8.253970e+002,1.697858e-002
8.273254e+002,1.636985e-002
8.292539e+002,1.619919e-002
8.311824e+002,1.653668e-002
8.331110e+002,1.625367e-002
8.350394e+002,1.595761e-002
8.369679e+002,1.619427e-002
8.388964e+002,1.609770e-002
8.408250e+002,1.603568e-002
8.427534e+002,1.610785e-002
8.446819e+002,1.627493e-002
8.466104e+002,1.637848e-002
8.485389e+002,1.620307e-002
8.504674e+002,1.596163e-002
8.523959e+002,1.601258e-002
8.543244e+002,1.607694e-002
8.562529e+002,1.586233e-002
8.581814e+002,1.560703e-002
8.601099e+002,1.587041e-002
8.620384e+002,1.629292e-002
8.639669e+002,1.621088e-002
8.658954e+002,1.627039e-002
8.678239e+002,1.644623e-002
8.697524e+002,1.630575e-002
8.716809e+002,1.568095e-002
8.736094e+002,1.549971e-002
8.755378e+002,1.575172e-002
8.774664e+002,1.624672e-002
8.793949e+002,1.669108e-002
8.813234e+002,1.696742e-002
8.832518e+002,1.701304e-002
8.851804e+002,1.652326e-002
8.871089e+002,1.617903e-002
8.890374e+002,1.653035e-002
8.909658e+002,1.677197e-002
8.928943e+002,1.708906e-002
8.948229e+002,1.728793e-002
8.967513e+002,1.728707e-002
8.986798e+002,1.715403e-002
9.006083e+002,1.696336e-002
9.025369e+002,1.680727e-002
9.044653e+002,1.672021e-002
9.063938e+002,1.664650e-002
9.083223e+002,1.682890e-002
9.102509e+002,1.676178e-002
9.121793e+002,1.636111e-002
9.141078e+002,1.610135e-002
9.160364e+002,1.599662e-002
9.179648e+002,1.580426e-002
9.198933e+002,1.547571e-002
9.218218e+002,1.496982e-002
9.237504e+002,1.470229e-002
9.256788e+002,1.449583e-002
9.276073e+002,1.433728e-002
9.295358e+002,1.440198e-002
9.314644e+002,1.449210e-002
9.333928e+002,1.436759e-002
9.353213e+002,1.430060e-002
9.372498e+002,1.423787e-002
9.391783e+002,1.386176e-002
9.411068e+002,1.366073e-002
9.430353e+002,1.397295e-002
9.449637e+002,1.414113e-002
9.468923e+002,1.408972e-002
9.488208e+002,1.437225e-002
9.507493e+002,1.443428e-002
9.526777e+002,1.449690e-002
9.546063e+002,1.477547e-002
9.565348e+002,1.490110e-002
9.584633e+002,1.492256e-002
9.603917e+002,1.482652e-002
9.623203e+002,1.474795e-002
9.642488e+002,1.489808e-002
9.661772e+002,1.491248e-002
9.681057e+002,1.487689e-002
9.700343e+002,1.472786e-002
9.719628e+002,1.450389e-002
9.738912e+002,1.423359e-002
9.758197e+002,1.400864e-002
9.777483e+002,1.397897e-002
9.796768e+002,1.375073e-002
9.816052e+002,1.361566e-002
9.835337e+002,1.352661e-002
9.854623e+002,1.356377e-002
9.873907e+002,1.341362e-002
9.893192e+002,1.308885e-002
9.912477e+002,1.293119e-002
9.931763e+002,1.261909e-002
9.951047e+002,1.244315e-002
9.970332e+002,1.260074e-002
9.989617e+002,1.244673e-002
1.000890e+003,1.223453e-002
1.002819e+003,1.227072e-002
1.004747e+003,1.238717e-002
1.006676e+003,1.239515e-002
1.008604e+003,1.247043e-002
1.010533e+003,1.249532e-002
1.012461e+003,1.266262e-002
1.014390e+003,1.270636e-002
1.016318e+003,1.275471e-002
1.018247e+003,1.293303e-002
1.020175e+003,1.315374e-002
1.022104e+003,1.312409e-002
1.024032e+003,1.342008e-002
1.025961e+003,1.378907e-002
1.027889e+003,1.379612e-002
1.029818e+003,1.387589e-002
1.031746e+003,1.422791e-002
1.033675e+003,1.449368e-002
1.035603e+003,1.510404e-002
1.037532e+003,1.539997e-002
1.039460e+003,1.538356e-002
1.041389e+003,1.553975e-002
1.043317e+003,1.560205e-002
1.045246e+003,1.540608e-002
1.047174e+003,1.556571e-002
1.049103e+003,1.567775e-002
1.051031e+003,1.571826e-002
1.052960e+003,1.587494e-002
1.054888e+003,1.581790e-002
1.056817e+003,1.568390e-002
1.058745e+003,1.584845e-002
1.060674e+003,1.567569e-002
1.062602e+003,1.559796e-002
1.064531e+003,1.571826e-002
1.066459e+003,1.570173e-002
1.068388e+003,1.565158e-002
1.070316e+003,1.578405e-002
1.072245e+003,1.589429e-002
1.074173e+003,1.591024e-002
1.076102e+003,1.568219e-002
1.078030e+003,1.550198e-002
1.079959e+003,1.560961e-002
1.081887e+003,1.591052e-002
1.083816e+003,1.601869e-002
1.085744e+003,1.619647e-002
1.087673e+003,1.632873e-002
1.089601e+003,1.628239e-002
1.091530e+003,1.663600e-002
1.093458e+003,1.711274e-002
1.095387e+003,1.728720e-002
1.097315e+003,1.731569e-002
1.099244e+003,1.725607e-002
1.101172e+003,1.749299e-002
1.103101e+003,1.757948e-002
1.105029e+003,1.739603e-002
1.106958e+003,1.746419e-002
1.108886e+003,1.771389e-002
1.110815e+003,1.793231e-002
1.112743e+003,1.803889e-002
1.114672e+003,1.780332e-002
1.116600e+003,1.776377e-002
1.118529e+003,1.790973e-002
1.120457e+003,1.795472e-002
1.122386e+003,1.808673e-002
1.124314e+003,1.825302e-002
1.126243e+003,1.799827e-002
1.128171e+003,1.784959e-002
1.130100e+003,1.787707e-002
1.132028e+003,1.775648e-002
1.133957e+003,1.753567e-002
1.135885e+003,1.731624e-002
1.137814e+003,1.708820e-002
1.139742e+003,1.681630e-002
1.141671e+003,1.657579e-002
1.143599e+003,1.621009e-002
1.145528e+003,1.569033e-002
1.147456e+003,1.536235e-002
1.149385e+003,1.515753e-002
1.151313e+003,1.495655e-002
1.153242e+003,1.477942e-002
1.155170e+003,1.456662e-002
1.157099e+003,1.443455e-002
1.159027e+003,1.428557e-002
1.160956e+003,1.422404e-002
1.162884e+003,1.416646e-002
1.164813e+003,1.405679e-002
1.166741e+003,1.400132e-002
1.168670e+003,1.404642e-002
1.170598e+003,1.400002e-002
1.172526e+003,1.392252e-002
1.174455e+003,1.395437e-002
1.176384e+003,1.382030e-002
1.178312e+003,1.374871e-002
1.180240e+003,1.378062e-002
1.182169e+003,1.378329e-002
1.184098e+003,1.376359e-002
1.186026e+003,1.366534e-002
1.187954e+003,1.350545e-002
1.189883e+003,1.311040e-002
1.191812e+003,1.290439e-002
1.193740e+003,1.301978e-002
1.195668e+003,1.302022e-002
1.197597e+003,1.283831e-002
1.199526e+003,1.274236e-002
1.201454e+003,1.262043e-002
1.203382e+003,1.245239e-002
1.205311e+003,1.233259e-002
1.207240e+003,1.236112e-002
1.209168e+003,1.266235e-002
1.211096e+003,1.269906e-002
1.213025e+003,1.266354e-002
1.214953e+003,1.259194e-002
1.216882e+003,1.249682e-002
1.218810e+003,1.253816e-002
1.220739e+003,1.258424e-002
1.222667e+003,1.278166e-002
1.224596e+003,1.293508e-002
1.226524e+003,1.286951e-002
1.228453e+003,1.286476e-002
1.230381e+003,1.308031e-002
1.232310e+003,1.330988e-002
1.234238e+003,1.341064e-002
1.236167e+003,1.349031e-002
1.238095e+003,1.350309e-002
1.240024e+003,1.358021e-002
1.241952e+003,1.374321e-002
1.243881e+003,1.383877e-002
1.245809e+003,1.397117e-002
1.247738e+003,1.409204e-002
1.249666e+003,1.403369e-002
1.251595e+003,1.398996e-002
1.253523e+003,1.413928e-002
1.255452e+003,1.429365e-002
1.257380e+003,1.435800e-002
1.259309e+003,1.439989e-002
1.261237e+003,1.446497e-002
1.263166e+003,1.478185e-002
1.265094e+003,1.500076e-002
1.267023e+003,1.522516e-002
1.268951e+003,1.552333e-002
1.270880e+003,1.574983e-002
1.272808e+003,1.596936e-002
1.274737e+003,1.619950e-002
1.276665e+003,1.658260e-002
1.278594e+003,1.686293e-002
1.280522e+003,1.697993e-002
1.282451e+003,1.705422e-002
1.284379e+003,1.724438e-002
1.286308e+003,1.780536e-002
1.288236e+003,1.810856e-002
1.290165e+003,1.826387e-002
1.292093e+003,1.841916e-002
1.294022e+003,1.836395e-002
1.295950e+003,1.860370e-002
1.297879e+003,1.877987e-002
1.299807e+003,1.877558e-002
1.301736e+003,1.869611e-002
1.303664e+003,1.848253e-002
1.305593e+003,1.832168e-002
1.307521e+003,1.828374e-002
1.309450e+003,1.818035e-002
1.311378e+003,1.798898e-002
1.313307e+003,1.771579e-002
1.315235e+003,1.777706e-002
1.317164e+003,1.736048e-002
1.319092e+003,1.678985e-002
1.321021e+003,1.660439e-002
1.322949e+003,1.623018e-002
1.324878e+003,1.591100e-002
1.326806e+003,1.581683e-002
1.328735e+003,1.601337e-002
1.330663e+003,1.599697e-002
1.332592e+003,1.579230e-002
1.334520e+003,1.568057e-002
1.336449e+003,1.562317e-002
1.338377e+003,1.550836e-002
1.340306e+003,1.541865e-002
1.342234e+003,1.548625e-002
1.344163e+003,1.543873e-002
1.346091e+003,1.542541e-002
1.348020e+003,1.553491e-002
1.349948e+003,1.554724e-002
1.351877e+003,1.539781e-002
1.353805e+003,1.535198e-002
1.355734e+003,1.534034e-002
1.357662e+003,1.515273e-002
1.359591e+003,1.507265e-002
1.361519e+003,1.498429e-002
1.363448e+003,1.495686e-002
1.365376e+003,1.490346e-002
1.367305e+003,1.473598e-002
1.369233e+003,1.469701e-002
1.371162e+003,1.462014e-002
1.373090e+003,1.456909e-002
1.375019e+003,1.471113e-002
1.376947e+003,1.484898e-002
1.378876e+003,1.495511e-002
1.380804e+003,1.504864e-002
1.382733e+003,1.500402e-002
1.384661e+003,1.488111e-002
1.386590e+003,1.473814e-002
1.388518e+003,1.458385e-002
1.390447e+003,1.453424e-002
1.392375e+003,1.435855e-002
1.394304e+003,1.417026e-002
1.396232e+003,1.411491e-002
1.398161e+003,1.412620e-002
1.400089e+003,1.410040e-002
1.402018e+003,1.405320e-002
1.403946e+003,1.399926e-002
1.405875e+003,1.390671e-002
1.407803e+003,1.384322e-002
1.409732e+003,1.368723e-002
1.411660e+003,1.360308e-002
1.413589e+003,1.361737e-002
1.415517e+003,1.371667e-002
1.417446e+003,1.390206e-002
1.419374e+003,1.414592e-002
1.421303e+003,1.460568e-002
1.423231e+003,1.505090e-002
1.425160e+003,1.557505e-002
1.427088e+003,1.607649e-002
1.429017e+003,1.638536e-002
1.430945e+003,1.667104e-002
1.432874e+003,1.703375e-002
1.434802e+003,1.733893e-002
1.436731e+003,1.755568e-002
1.438659e+003,1.806010e-002
1.440588e+003,1.857430e-002
1.442516e+003,1.895490e-002
1.444445e+003,1.933688e-002
1.446373e+003,1.980768e-002
1.448302e+003,2.026484e-002
1.450230e+003,2.064661e-002
1.452159e+003,2.102232e-002
1.454087e+003,2.142777e-002
1.456016e+003,2.137267e-002
1.457944e+003,2.159813e-002
1.459873e+003,2.202841e-002
1.461801e+003,2.208649e-002
1.463730e+003,2.180782e-002
1.465658e+003,2.163355e-002
1.467587e+003,2.139975e-002
1.469515e+003,2.105651e-002
1.471444e+003,2.060606e-002
1.473372e+003,2.025008e-002
1.475301e+003,2.005548e-002
1.477229e+003,1.973063e-002
1.479158e+003,1.926940e-002
1.481086e+003,1.863112e-002
1.483015e+003,1.809599e-002
1.484943e+003,1.759749e-002
1.486872e+003,1.715396e-002
1.488800e+003,1.668812e-002
1.490729e+003,1.623637e-002
1.492657e+003,1.592495e-002
1.494586e+003,1.570376e-002
1.496514e+003,1.533478e-002
1.498443e+003,1.501489e-002
1.500371e+003,1.483084e-002
1.502300e+003,1.476546e-002
1.504228e+003,1.450872e-002
1.506157e+003,1.390678e-002
1.508085e+003,1.385071e-002
1.510014e+003,1.400737e-002
1.511942e+003,1.397281e-002
1.513871e+003,1.392820e-002
1.515799e+003,1.374581e-002
1.517728e+003,1.367892e-002
1.519656e+003,1.352972e-002
1.521585e+003,1.344386e-002
1.523513e+003,1.372170e-002
1.525442e+003,1.393234e-002
1.527370e+003,1.402989e-002
1.529299e+003,1.409697e-002
1.531227e+003,1.416054e-002
1.533156e+003,1.421025e-002
1.535084e+003,1.441578e-002
1.537013e+003,1.448837e-002
1.538941e+003,1.427540e-002
1.540870e+003,1.426595e-002
1.542798e+003,1.459910e-002
1.544727e+003,1.497226e-002
1.546655e+003,1.526075e-002
1.548584e+003,1.531975e-002
1.550512e+003,1.538548e-002
1.552441e+003,1.541847e-002
1.554369e+003,1.532294e-002
1.556298e+003,1.531886e-002
1.558226e+003,1.509293e-002
1.560155e+003,1.545174e-002
1.562083e+003,1.625759e-002
1.564012e+003,1.669563e-002
1.565940e+003,1.696070e-002
1.567869e+003,1.708634e-002
1.569797e+003,1.716075e-002
1.571726e+003,1.729072e-002
1.573654e+003,1.731796e-002
1.575583e+003,1.734675e-002
1.577511e+003,1.744508e-002
1.579440e+003,1.746474e-002
1.581368e+003,1.760712e-002
1.583297e+003,1.765702e-002
1.585225e+003,1.747012e-002
1.587154e+003,1.737058e-002
1.589082e+003,1.721442e-002
1.591010e+003,1.686696e-002
1.592939e+003,1.656246e-002
1.594868e+003,1.632739e-002
1.596796e+003,1.617666e-002
1.598724e+003,1.599143e-002
1.600653e+003,1.565845e-002
1.602582e+003,1.536015e-002
1.604510e+003,1.505804e-002
1.606438e+003,1.472721e-002
1.608367e+003,1.449200e-002
1.610296e+003,1.445178e-002
1.612224e+003,1.426160e-002
1.614152e+003,1.397182e-002
1.616081e+003,1.356640e-002
1.618010e+003,1.355146e-002
1.619938e+003,1.360089e-002
1.621866e+003,1.340876e-002
1.623795e+003,1.308219e-002
1.625724e+003,1.307448e-002
1.627652e+003,1.312385e-002
1.629580e+003,1.297031e-002
1.631509e+003,1.282879e-002
1.633438e+003,1.270076e-002
1.635366e+003,1.233279e-002
1.637294e+003,1.212017e-002
1.639223e+003,1.207721e-002
1.641151e+003,1.188013e-002
1.643080e+003,1.153133e-002
1.645008e+003,1.110353e-002
1.646937e+003,1.062325e-002
1.648865e+003,1.052765e-002
1.650794e+003,1.040939e-002
1.652722e+003,9.892895e-003
1.654651e+003,9.830765e-003
1.656579e+003,1.003522e-002
1.658508e+003,9.905233e-003
1.660436e+003,9.789452e-003
1.662365e+003,9.614076e-003
1.664293e+003,9.576001e-003
1.666222e+003,9.774575e-003
1.668150e+003,9.597240e-003
1.670079e+003,9.308489e-003
1.672007e+003,9.300737e-003
1.673936e+003,9.172155e-003
1.675864e+003,9.093819e-003
1.677793e+003,9.173677e-003
1.679721e+003,9.082993e-003
1.681650e+003,8.930731e-003
1.683578e+003,8.590137e-003
1.685507e+003,8.600411e-003
1.687435e+003,8.752151e-003
1.689364e+003,8.787584e-003
1.691292e+003,8.789477e-003
1.693221e+003,8.716789e-003
1.695149e+003,8.509001e-003
1.697078e+003,8.639887e-003
1.699006e+003,8.650568e-003
1.700935e+003,8.527416e-003
1.702863e+003,8.863125e-003
1.704792e+003,9.059985e-003
1.706720e+003,9.215170e-003
1.708649e+003,9.363129e-003
1.710577e+003,9.393838e-003
1.712506e+003,9.381142e-003
1.714434e+003,9.422348e-003
1.716363e+003,9.223292e-003
1.718291e+003,9.082654e-003
1.720220e+003,9.304969e-003
1.722148e+003,9.368513e-003
1.724077e+003,9.353853e-003
1.726005e+003,9.431490e-003
1.727934e+003,9.364449e-003
1.729862e+003,9.359507e-003
1.731791e+003,9.397901e-003
1.733719e+003,9.061880e-003
1.735648e+003,9.028996e-003
1.737576e+003,9.228910e-003
1.739505e+003,9.316444e-003
1.741433e+003,9.507854e-003
1.743362e+003,9.585858e-003
1.745290e+003,9.587247e-003
1.747219e+003,9.570886e-003
1.749147e+003,9.487535e-003
1.751076e+003,9.443782e-003
1.753004e+003,9.615058e-003
1.754933e+003,9.792604e-003
1.756861e+003,9.805143e-003
1.758790e+003,9.791248e-003
1.760718e+003,9.741772e-003
1.762647e+003,9.738417e-003
1.764575e+003,9.753124e-003
1.766504e+003,9.740756e-003
1.768432e+003,9.747567e-003
1.770361e+003,9.711683e-003
1.772289e+003,9.612822e-003
1.774218e+003,9.643006e-003
1.776146e+003,9.713207e-003
1.778075e+003,9.763528e-003
1.780003e+003,9.788232e-003
1.781932e+003,9.838187e-003
1.783860e+003,9.785825e-003
1.785789e+003,9.731539e-003
1.787717e+003,9.772135e-003
1.789646e+003,9.723237e-003
1.791574e+003,9.553137e-003
1.793503e+003,9.576848e-003
1.795431e+003,9.739027e-003
1.797360e+003,9.772406e-003
1.799288e+003,9.799890e-003
1.801217e+003,9.776439e-003
1.803145e+003,9.855134e-003
1.805074e+003,1.000487e-002
1.807002e+003,1.004102e-002
1.808931e+003,9.957033e-003
1.810859e+003,9.991412e-003
1.812788e+003,1.014147e-002
1.814716e+003,1.014357e-002
1.816645e+003,1.009582e-002
1.818573e+003,1.004634e-002
1.820502e+003,1.001647e-002
1.822430e+003,1.006150e-002
1.824359e+003,1.011298e-002
1.826287e+003,1.007466e-002
1.828216e+003,9.957982e-003
1.830144e+003,9.893403e-003
1.832073e+003,1.000189e-002
1.834001e+003,1.010036e-002
1.835930e+003,1.001874e-002
1.837858e+003,9.918996e-003
1.839787e+003,9.926793e-003
1.841715e+003,9.938591e-003
1.843644e+003,9.861812e-003
1.845572e+003,9.849881e-003
1.847501e+003,9.926624e-003
1.849429e+003,9.981783e-003
1.851358e+003,1.001650e-002
1.853286e+003,1.005258e-002
1.855215e+003,1.009382e-002
1.857143e+003,9.996091e-003
1.859072e+003,9.898487e-003
1.861000e+003,1.000443e-002
1.862929e+003,1.019241e-002
1.864857e+003,1.026939e-002
1.866786e+003,1.010915e-002
1.868714e+003,9.889234e-003
1.870643e+003,9.920285e-003
1.872571e+003,1.010375e-002
1.874500e+003,1.020323e-002
1.876428e+003,1.018041e-002
1.878357e+003,1.016487e-002
1.880285e+003,1.017796e-002
1.882214e+003,1.020032e-002
1.884142e+003,1.020530e-002
1.886071e+003,1.016165e-002
1.887999e+003,1.014337e-002
1.889928e+003,1.016345e-002
1.891856e+003,1.014045e-002
1.893785e+003,1.012302e-002
1.895713e+003,1.018431e-002
1.897642e+003,1.019652e-002
1.899570e+003,1.020720e-002
1.901499e+003,1.025856e-002
1.903427e+003,1.028510e-002
1.905356e+003,1.025487e-002
1.907284e+003,1.025127e-002
1.909213e+003,1.030807e-002
1.911141e+003,1.031064e-002
1.913070e+003,1.027824e-002
1.914998e+003,1.021097e-002
1.916927e+003,1.012417e-002
1.918855e+003,1.011342e-002
1.920784e+003,1.013401e-002
1.922712e+003,1.017138e-002
1.924641e+003,1.027241e-002
1.926569e+003,1.024086e-002
1.928498e+003,1.016718e-002
1.930426e+003,1.017389e-002
1.932355e+003,1.016755e-002
1.934283e+003,1.012960e-002
1.936212e+003,1.011339e-002
1.938140e+003,1.015507e-002
1.940069e+003,1.015259e-002
1.941997e+003,1.016033e-002
1.943926e+003,1.021982e-002
1.945854e+003,1.016104e-002
1.947783e+003,1.009684e-002
1.949711e+003,1.009860e-002
1.951640e+003,1.014055e-002
1.953568e+003,1.018953e-002
1.955497e+003,1.024408e-002
1.957425e+003,1.016348e-002
1.959354e+003,1.003675e-002
1.961282e+003,9.996226e-003
1.963211e+003,9.986936e-003
1.965139e+003,1.005268e-002
1.967068e+003,1.008286e-002
1.968996e+003,1.015568e-002
1.970925e+003,1.020480e-002
1.972853e+003,1.019679e-002
1.974782e+003,1.021799e-002
1.976710e+003,1.016840e-002
1.978639e+003,1.010633e-002
1.980567e+003,1.005299e-002
1.982496e+003,1.005099e-002
1.984424e+003,1.003498e-002
1.986353e+003,1.009504e-002
1.988281e+003,1.015147e-002
1.990210e+003,1.018170e-002
1.992138e+003,1.019727e-002
1.994067e+003,1.020310e-002
1.995995e+003,1.012858e-002
1.997924e+003,1.010226e-002
1.999852e+003,1.019632e-002
2.001781e+003,1.022206e-002
2.003709e+003,1.013628e-002
2.005638e+003,1.015744e-002
2.007566e+003,1.014883e-002
2.009495e+003,1.006065e-002
2.011423e+003,9.957000e-003
2.013352e+003,1.005780e-002
2.015280e+003,1.012051e-002
2.017208e+003,1.002820e-002
2.019137e+003,1.005984e-002
2.021066e+003,1.011841e-002
2.022994e+003,1.018743e-002
2.024922e+003,1.023132e-002
2.026851e+003,1.021894e-002
2.028780e+003,1.013750e-002
2.030708e+003,1.011647e-002
2.032636e+003,1.021328e-002
2.034565e+003,1.024004e-002
2.036494e+003,1.020456e-002
2.038422e+003,1.021358e-002
2.040350e+003,1.027940e-002
2.042279e+003,1.025745e-002
2.044208e+003,1.018672e-002
2.046136e+003,1.019360e-002
2.048064e+003,1.026572e-002
2.049993e+003,1.027041e-002
2.051921e+003,1.016599e-002
2.053850e+003,1.015348e-002
2.055778e+003,1.024778e-002
2.057707e+003,1.026067e-002
2.059635e+003,1.037963e-002
2.061564e+003,1.040430e-002
2.063492e+003,1.030688e-002
2.065421e+003,1.025517e-002
2.067349e+003,1.029958e-002
2.069278e+003,1.026830e-002
2.071206e+003,1.026630e-002
2.073135e+003,1.027624e-002
2.075063e+003,1.032143e-002
2.076992e+003,1.034627e-002
2.078920e+003,1.035248e-002
2.080849e+003,1.037393e-002
2.082777e+003,1.038401e-002
2.084706e+003,1.039029e-002
2.086634e+003,1.035594e-002
2.088563e+003,1.034732e-002
2.090491e+003,1.042012e-002
2.092420e+003,1.048552e-002
2.094348e+003,1.041540e-002
2.096277e+003,1.042643e-002
2.098205e+003,1.049292e-002
2.100134e+003,1.048837e-002
2.102062e+003,1.053780e-002
2.103991e+003,1.062454e-002
2.105919e+003,1.060536e-002
2.107848e+003,1.049951e-002
2.109776e+003,1.051319e-002
2.111705e+003,1.059388e-002
2.113633e+003,1.064760e-002
2.115562e+003,1.063300e-002
2.117490e+003,1.062363e-002
2.119419e+003,1.066162e-002
2.121347e+003,1.066196e-002
2.123276e+003,1.065921e-002
2.125204e+003,1.063422e-002
2.127133e+003,1.057249e-002
2.129061e+003,1.063144e-002
2.130990e+003,1.068539e-002
2.132918e+003,1.072924e-002
2.134847e+003,1.075393e-002
2.136775e+003,1.066091e-002
2.138704e+003,1.066057e-002
2.140632e+003,1.077553e-002
2.142561e+003,1.071474e-002
2.144489e+003,1.056143e-002
2.146418e+003,1.068336e-002
2.148346e+003,1.091026e-002
2.150275e+003,1.098087e-002
2.152203e+003,1.085502e-002
2.154132e+003,1.079160e-002
2.156060e+003,1.079598e-002
2.157989e+003,1.068655e-002
2.159917e+003,1.067188e-002
2.161846e+003,1.081127e-002
2.163774e+003,1.082614e-002
2.165703e+003,1.077448e-002
2.167631e+003,1.080682e-002
2.169560e+003,1.090078e-002
2.171488e+003,1.101601e-002
2.173417e+003,1.105353e-002
2.175345e+003,1.099083e-002
2.177274e+003,1.091240e-002
2.179202e+003,1.089569e-002
2.181131e+003,1.090286e-002
2.183059e+003,1.093605e-002
2.184988e+003,1.089246e-002
2.186916e+003,1.086097e-002
2.188845e+003,1.087754e-002
2.190773e+003,1.090975e-002
2.192702e+003,1.094332e-002
2.194630e+003,1.089052e-002
2.196559e+003,1.077506e-002
2.198487e+003,1.079578e-002
2.200416e+003,1.082183e-002
2.202344e+003,1.082696e-002
2.204273e+003,1.088240e-002
2.206201e+003,1.090704e-002
2.208130e+003,1.082431e-002
2.210058e+003,1.074343e-002
2.211987e+003,1.065388e-002
2.213915e+003,1.072058e-002
2.215844e+003,1.078284e-002
2.217772e+003,1.075763e-002
2.219701e+003,1.076127e-002
2.221629e+003,1.075277e-002
2.223558e+003,1.069351e-002
2.225486e+003,1.064743e-002
2.227415e+003,1.070068e-002
2.229343e+003,1.070893e-002
2.231272e+003,1.074639e-002
2.233200e+003,1.072754e-002
2.235129e+003,1.074483e-002
2.237057e+003,1.074017e-002
2.238986e+003,1.070788e-002
2.240914e+003,1.068132e-002
2.242843e+003,1.070611e-002
2.244771e+003,1.073623e-002
2.246700e+003,1.070244e-002
2.248628e+003,1.073657e-002
2.250557e+003,1.075478e-002
2.252485e+003,1.071416e-002
2.254414e+003,1.070845e-002
2.256342e+003,1.078202e-002
2.258271e+003,1.081731e-002
2.260199e+003,1.080057e-002
2.262128e+003,1.065721e-002
2.264056e+003,1.063313e-002
2.265985e+003,1.071620e-002
2.267913e+003,1.068370e-002
2.269842e+003,1.069681e-002
2.271770e+003,1.066848e-002
2.273699e+003,1.058163e-002
2.275627e+003,1.062573e-002
2.277556e+003,1.066033e-002
2.279484e+003,1.062043e-002
2.281413e+003,1.064607e-002
2.283341e+003,1.067578e-002
2.285270e+003,1.066577e-002
2.287198e+003,1.070193e-002
2.289127e+003,1.075875e-002
2.291055e+003,1.078243e-002
2.292984e+003,1.075373e-002
2.294912e+003,1.070336e-002
2.296841e+003,1.067388e-002
2.298769e+003,1.061347e-002
2.300698e+003,1.063887e-002
2.302626e+003,1.068876e-002
2.304555e+003,1.071535e-002
2.306483e+003,1.065368e-002
2.308412e+003,1.074130e-002
2.310340e+003,1.078620e-002
2.312269e+003,1.068105e-002
2.314197e+003,1.062101e-002
2.316125e+003,1.062886e-002
2.318054e+003,1.056326e-002
2.319983e+003,1.047921e-002
2.321911e+003,1.039008e-002
2.323840e+003,1.044656e-002
2.325768e+003,1.048270e-002
2.327697e+003,1.038418e-002
2.329625e+003,1.029734e-002
2.331553e+003,1.021996e-002
2.333482e+003,1.019737e-002
2.335411e+003,1.018878e-002
2.337339e+003,1.016965e-002
2.339268e+003,1.017067e-002
2.341196e+003,1.013004e-002
2.343125e+003,1.003949e-002
2.345053e+003,1.005713e-002
2.346981e+003,1.033372e-002
2.348910e+003,1.051067e-002
2.350839e+003,1.042436e-002
2.352767e+003,1.020273e-002
2.354696e+003,9.971340e-003
2.356624e+003,9.933743e-003
2.358552e+003,9.985580e-003
2.360481e+003,9.959441e-003
2.362409e+003,9.847780e-003
2.364338e+003,9.809413e-003
2.366267e+003,1.002054e-002
2.368195e+003,1.008765e-002
2.370124e+003,1.010799e-002
2.372052e+003,1.024913e-002
2.373980e+003,1.037742e-002
2.375909e+003,1.044194e-002
2.377838e+003,1.062478e-002
2.379766e+003,1.077258e-002
2.381695e+003,1.080305e-002
2.383623e+003,1.088172e-002
2.385552e+003,1.094829e-002
2.387480e+003,1.094271e-002
2.389408e+003,1.101340e-002
2.391337e+003,1.107519e-002
2.393266e+003,1.103838e-002
2.395194e+003,1.103899e-002
2.397123e+003,1.106336e-002
2.399051e+003,1.105268e-002
2.400979e+003,1.101346e-002
2.402908e+003,1.096463e-002
2.404836e+003,1.094985e-002
2.406765e+003,1.094400e-002
2.408694e+003,1.097510e-002
2.410622e+003,1.100976e-002
2.412551e+003,1.101166e-002
2.414479e+003,1.099783e-002
2.416407e+003,1.094951e-002
2.418336e+003,1.096630e-002
2.420264e+003,1.101622e-002
2.422193e+003,1.110911e-002
2.424122e+003,1.122011e-002
2.426050e+003,1.121841e-002
2.427979e+003,1.120358e-002
2.429907e+003,1.126448e-002
2.431835e+003,1.136188e-002
2.433764e+003,1.147196e-002
2.435692e+003,1.149244e-002
2.437621e+003,1.144811e-002
2.439550e+003,1.146693e-002
2.441478e+003,1.141736e-002
2.443406e+003,1.140045e-002
2.445335e+003,1.140205e-002
2.447263e+003,1.139709e-002
2.449192e+003,1.143134e-002
2.451121e+003,1.152405e-002
2.453049e+003,1.158421e-002
2.454978e+003,1.158908e-002
2.456906e+003,1.158033e-002
2.458834e+003,1.163723e-002
2.460763e+003,1.169547e-002
2.462691e+003,1.171541e-002
2.464620e+003,1.176270e-002
2.466549e+003,1.179647e-002
2.468477e+003,1.177060e-002
2.470406e+003,1.170020e-002
2.472334e+003,1.168883e-002
2.474262e+003,1.176025e-002
2.476191e+003,1.179685e-002
2.478119e+003,1.178336e-002
2.480048e+003,1.182858e-002
2.481977e+003,1.179828e-002
2.483905e+003,1.177022e-002
2.485833e+003,1.177206e-002
2.487762e+003,1.177724e-002
2.489690e+003,1.191902e-002
2.491619e+003,1.197648e-002
2.493547e+003,1.193530e-002
2.495476e+003,1.194760e-002
2.497405e+003,1.199398e-002
2.499333e+003,1.200284e-002
2.501261e+003,1.216855e-002
2.503190e+003,1.215905e-002
2.505118e+003,1.197856e-002
2.507047e+003,1.197542e-002
2.508975e+003,1.206065e-002
2.510904e+003,1.207891e-002
2.512833e+003,1.217874e-002
2.514761e+003,1.221514e-002
2.516689e+003,1.217677e-002
2.518618e+003,1.211758e-002
2.520546e+003,1.216269e-002
2.522475e+003,1.215577e-002
2.524403e+003,1.215724e-002
2.526332e+003,1.221091e-002
2.528260e+003,1.223132e-002
2.530189e+003,1.220996e-002
2.532117e+003,1.223903e-002
2.534046e+003,1.225702e-002
2.535974e+003,1.227212e-002
2.537903e+003,1.225460e-002
2.539831e+003,1.222148e-002
2.541760e+003,1.226885e-002
2.543688e+003,1.226169e-002
2.545617e+003,1.219656e-002
2.547545e+003,1.226340e-002
2.549474e+003,1.237329e-002
2.551402e+003,1.229724e-002
2.553331e+003,1.224537e-002
2.555259e+003,1.229867e-002
2.557188e+003,1.232693e-002
2.559116e+003,1.228473e-002
2.561045e+003,1.232789e-002
2.562973e+003,1.233726e-002
2.564902e+003,1.221677e-002
2.566830e+003,1.227587e-002
2.568759e+003,1.246102e-002
2.570687e+003,1.244247e-002
2.572616e+003,1.243978e-002
2.574544e+003,1.253464e-002
2.576473e+003,1.248724e-002
2.578401e+003,1.242287e-002
2.580330e+003,1.242433e-002
2.582258e+003,1.248547e-002
2.584187e+003,1.250399e-002
2.586115e+003,1.247800e-002
2.588044e+003,1.247486e-002
2.589972e+003,1.252874e-002
2.591901e+003,1.254048e-002
2.593829e+003,1.256756e-002
2.595758e+003,1.259812e-002
2.597686e+003,1.263595e-002
2.599615e+003,1.275048e-002
2.601543e+003,1.275143e-002
2.603472e+003,1.257155e-002
2.605400e+003,1.254344e-002
2.607329e+003,1.256418e-002
2.609257e+003,1.260849e-002
2.611186e+003,1.266965e-002
2.613114e+003,1.266941e-002
2.615043e+003,1.269930e-002
2.616971e+003,1.283405e-002
2.618900e+003,1.276982e-002
2.620828e+003,1.271219e-002
2.622757e+003,1.283599e-002
2.624685e+003,1.293190e-002
2.626614e+003,1.293900e-002
2.628542e+003,1.282797e-002
2.630471e+003,1.273239e-002
2.632399e+003,1.278040e-002
2.634328e+003,1.277453e-002
2.636256e+003,1.275242e-002
2.638185e+003,1.276825e-002
2.640113e+003,1.290924e-002
2.642042e+003,1.300352e-002
2.643970e+003,1.296566e-002
2.645899e+003,1.304252e-002
2.647827e+003,1.316231e-002
2.649756e+003,1.318017e-002
2.651684e+003,1.313629e-002
2.653613e+003,1.316354e-002
2.655541e+003,1.323452e-002
2.657470e+003,1.330551e-002
2.659398e+003,1.340015e-002
2.661327e+003,1.340941e-002
2.663255e+003,1.338508e-002
2.665184e+003,1.333178e-002
2.667112e+003,1.333028e-002
2.669041e+003,1.335949e-002
2.670969e+003,1.335081e-002
2.672898e+003,1.338225e-002
2.674826e+003,1.346608e-002
2.676755e+003,1.346679e-002
2.678683e+003,1.349718e-002
2.680612e+003,1.352104e-002
2.682540e+003,1.361799e-002
2.684469e+003,1.365505e-002
2.686397e+003,1.375183e-002
2.688326e+003,1.378155e-002
2.690254e+003,1.373671e-002
2.692183e+003,1.375542e-002
2.694111e+003,1.382334e-002
2.696040e+003,1.389351e-002
2.697968e+003,1.401377e-002
2.699897e+003,1.405080e-002
2.701825e+003,1.397932e-002
2.703754e+003,1.399530e-002
2.705682e+003,1.413527e-002
2.707611e+003,1.435358e-002
2.709539e+003,1.447244e-002
2.711468e+003,1.439036e-002
2.713396e+003,1.433577e-002
2.715325e+003,1.442801e-002
2.717253e+003,1.450282e-002
2.719182e+003,1.443770e-002
2.721110e+003,1.437821e-002
2.723039e+003,1.449436e-002
2.724967e+003,1.468906e-002
2.726896e+003,1.473496e-002
2.728824e+003,1.471892e-002
2.730753e+003,1.480437e-002
2.732681e+003,1.493872e-002
2.734610e+003,1.506758e-002
2.736538e+003,1.517657e-002
2.738467e+003,1.515575e-002
2.740395e+003,1.523168e-002
2.742324e+003,1.532644e-002
2.744252e+003,1.538716e-002
2.746181e+003,1.546747e-002
2.748109e+003,1.564533e-002
2.750038e+003,1.572101e-002
2.751966e+003,1.573904e-002
2.753895e+003,1.581508e-002
2.755823e+003,1.588020e-002
2.757752e+003,1.596950e-002
2.759680e+003,1.618141e-002
2.761609e+003,1.633658e-002
2.763537e+003,1.646867e-002
2.765466e+003,1.665269e-002
2.767394e+003,1.695853e-002
2.769323e+003,1.729507e-002
2.771251e+003,1.768601e-002
2.773180e+003,1.815288e-002
2.775108e+003,1.856521e-002
2.777037e+003,1.893663e-002
2.778965e+003,1.939706e-002
2.780894e+003,2.003316e-002
2.782822e+003,2.062653e-002
2.784750e+003,2.117179e-002
2.786679e+003,2.186841e-002
2.788608e+003,2.259708e-002
2.790536e+003,2.325219e-002
2.792465e+003,2.390798e-002
2.794393e+003,2.455851e-002
2.796322e+003,2.519890e-002
2.798250e+003,2.586639e-002
2.800178e+003,2.654340e-002
2.802107e+003,2.722178e-002
2.804036e+003,2.767703e-002
2.805964e+003,2.810129e-002
2.807893e+003,2.844785e-002
2.809821e+003,2.854076e-002
2.811750e+003,2.855459e-002
2.813678e+003,2.860148e-002
2.815606e+003,2.849218e-002
2.817535e+003,2.831644e-002
2.819464e+003,2.815937e-002
2.821392e+003,2.789603e-002
2.823321e+003,2.741048e-002
2.825249e+003,2.688156e-002
2.827177e+003,2.648268e-002
2.829106e+003,2.614553e-002
2.831034e+003,2.552515e-002
2.832963e+003,2.488103e-002
2.834892e+003,2.441093e-002
2.836820e+003,2.384332e-002
2.838749e+003,2.333546e-002
2.840677e+003,2.283155e-002
2.842605e+003,2.211295e-002
2.844534e+003,2.137918e-002
2.846462e+003,2.073672e-002
2.848391e+003,2.012304e-002
2.850320e+003,1.971059e-002
2.852248e+003,1.949990e-002
2.854177e+003,1.940374e-002
2.856105e+003,1.916384e-002
2.858033e+003,1.895570e-002
2.859962e+003,1.894493e-002
2.861890e+003,1.890153e-002
2.863819e+003,1.891223e-002
2.865748e+003,1.901544e-002
2.867676e+003,1.906194e-002
2.869604e+003,1.905539e-002
2.871533e+003,1.919130e-002
2.873461e+003,1.934311e-002
2.875390e+003,1.945918e-002
2.877319e+003,1.956544e-002
2.879247e+003,1.975144e-002
2.881176e+003,1.980272e-002
2.883104e+003,1.976066e-002
2.885032e+003,1.970629e-002
2.886961e+003,1.971219e-002
2.888889e+003,1.971420e-002
2.890818e+003,1.968223e-002
2.892747e+003,1.962392e-002
2.894675e+003,1.956821e-002
2.896604e+003,1.944106e-002
2.898532e+003,1.938043e-002
2.900460e+003,1.928232e-002
2.902389e+003,1.915951e-002
2.904317e+003,1.906356e-002
2.906246e+003,1.899391e-002
2.908175e+003,1.896453e-002
2.910103e+003,1.889835e-002
2.912031e+003,1.871033e-002
2.913960e+003,1.858516e-002
2.915888e+003,1.853308e-002
2.917817e+003,1.866287e-002
2.919745e+003,1.879025e-002
2.921674e+003,1.898803e-002
2.923603e+003,1.897138e-002
2.925531e+003,1.903570e-002
2.927459e+003,1.931104e-002
2.929388e+003,1.960697e-002
2.931316e+003,1.987147e-002
2.933245e+003,2.014744e-002
2.935173e+003,2.042540e-002
2.937102e+003,2.056958e-002
2.939031e+003,2.054502e-002
2.940959e+003,2.052321e-002
2.942887e+003,2.055259e-002
2.944816e+003,2.047541e-002
2.946744e+003,2.019294e-002
2.948673e+003,1.993959e-002
2.950601e+003,1.959927e-002
2.952530e+003,1.913208e-002
2.954458e+003,1.868460e-002
2.956387e+003,1.814832e-002
2.958315e+003,1.755281e-002
2.960244e+003,1.707197e-002
2.962172e+003,1.657561e-002
2.964101e+003,1.609299e-002
2.966029e+003,1.557732e-002
2.967958e+003,1.504775e-002
2.969886e+003,1.466123e-002
2.971815e+003,1.435697e-002
2.973743e+003,1.405231e-002
2.975672e+003,1.364240e-002
2.977600e+003,1.332054e-002
2.979529e+003,1.328245e-002
2.981457e+003,1.304689e-002
2.983386e+003,1.270117e-002
2.985314e+003,1.247718e-002
2.987243e+003,1.241833e-002
2.989171e+003,1.228906e-002
2.991100e+003,1.209346e-002
2.993028e+003,1.191010e-002
2.994957e+003,1.186491e-002
2.996885e+003,1.182551e-002
2.998814e+003,1.183947e-002
3.000742e+003,1.174095e-002
3.002671e+003,1.156961e-002
3.004599e+003,1.144291e-002
3.006528e+003,1.146349e-002
3.008456e+003,1.149914e-002
3.010385e+003,1.140824e-002
3.012313e+003,1.146655e-002
3.014242e+003,1.152449e-002
3.016170e+003,1.141682e-002
3.018099e+003,1.138556e-002
3.020027e+003,1.144767e-002
3.021956e+003,1.133522e-002
3.023884e+003,1.119311e-002
3.025813e+003,1.109252e-002
3.027741e+003,1.106132e-002
3.029670e+003,1.123650e-002
3.031598e+003,1.137559e-002
3.033527e+003,1.136447e-002
3.035455e+003,1.131209e-002
3.037384e+003,1.125010e-002
3.039312e+003,1.111179e-002
3.041241e+003,1.098995e-002
3.043169e+003,1.086779e-002
3.045098e+003,1.090972e-002
3.047026e+003,1.102781e-002
3.048955e+003,1.094152e-002
3.050883e+003,1.076592e-002
3.052812e+003,1.072866e-002
3.054740e+003,1.071542e-002
3.056669e+003,1.076378e-002
3.058597e+003,1.075773e-002
3.060526e+003,1.068159e-002
3.062454e+003,1.069596e-002
3.064383e+003,1.070288e-002
3.066311e+003,1.065242e-002
3.068240e+003,1.062356e-002
3.070168e+003,1.056645e-002
3.072097e+003,1.049649e-002
3.074025e+003,1.056143e-002
3.075954e+003,1.068302e-002
3.077882e+003,1.066060e-002
3.079811e+003,1.049611e-002
3.081739e+003,1.041123e-002
3.083668e+003,1.054333e-002
3.085596e+003,1.068366e-002
3.087525e+003,1.065395e-002
3.089453e+003,1.056550e-002
3.091382e+003,1.042860e-002
3.093310e+003,1.038577e-002
3.095239e+003,1.033670e-002
3.097167e+003,1.022556e-002
3.099096e+003,1.011179e-002
3.101024e+003,1.003464e-002
3.102953e+003,1.005845e-002
3.104881e+003,1.009806e-002
3.106810e+003,1.015398e-002
3.108738e+003,1.028007e-002
3.110667e+003,1.020520e-002
3.112595e+003,1.008222e-002
3.114524e+003,1.015388e-002
3.116452e+003,1.019506e-002
3.118381e+003,1.013743e-002
3.120309e+003,9.966221e-003
3.122238e+003,9.877302e-003
3.124166e+003,9.887607e-003
3.126095e+003,9.934116e-003
3.128023e+003,9.941744e-003
3.129952e+003,9.944761e-003
3.131880e+003,9.931913e-003
3.133809e+003,9.913844e-003
3.135737e+003,9.876454e-003
3.137666e+003,9.975986e-003
3.139594e+003,1.007157e-002
3.141523e+003,1.005272e-002
3.143451e+003,1.005194e-002
3.145380e+003,1.003471e-002
3.147308e+003,1.004756e-002
3.149237e+003,9.985614e-003
3.151165e+003,9.858287e-003
3.153094e+003,9.779285e-003
3.155022e+003,9.730556e-003
3.156951e+003,9.846457e-003
3.158879e+003,9.982122e-003
3.160808e+003,1.008171e-002
3.162736e+003,1.006791e-002
3.164665e+003,9.990158e-003
3.166593e+003,9.901606e-003
3.168522e+003,9.880319e-003
3.170450e+003,9.921844e-003
3.172379e+003,1.003902e-002
3.174307e+003,1.007625e-002
3.176236e+003,1.011139e-002
3.178164e+003,1.010196e-002
3.180093e+003,1.006842e-002
3.182021e+003,1.005068e-002
3.183950e+003,1.012556e-002
3.185878e+003,1.009056e-002
3.187807e+003,1.002952e-002
3.189735e+003,9.999074e-003
3.191664e+003,9.888115e-003
3.193592e+003,9.853236e-003
3.195521e+003,9.862253e-003
3.197449e+003,9.934421e-003
3.199378e+003,1.008181e-002
3.201306e+003,1.010399e-002
3.203235e+003,9.999719e-003
3.205163e+003,1.001348e-002
3.207092e+003,1.002732e-002
3.209020e+003,1.011094e-002
3.210948e+003,1.022518e-002
3.212877e+003,1.023879e-002
3.214806e+003,1.025996e-002
3.216734e+003,1.029324e-002
3.218663e+003,1.020089e-002
3.220591e+003,1.020904e-002
3.222520e+003,1.047076e-002
3.224448e+003,1.050613e-002
3.226376e+003,1.048080e-002
3.228305e+003,1.061344e-002
3.230234e+003,1.070648e-002
3.232162e+003,1.067072e-002
3.234091e+003,1.069765e-002
3.236019e+003,1.079336e-002
3.237948e+003,1.082720e-002
3.239876e+003,1.095111e-002
3.241804e+003,1.106625e-002
3.243733e+003,1.099015e-002
3.245662e+003,1.103008e-002
3.247590e+003,1.102064e-002
3.249519e+003,1.122239e-002
3.251447e+003,1.131563e-002
3.253375e+003,1.120559e-002
3.255304e+003,1.122908e-002
3.257232e+003,1.145781e-002
3.259161e+003,1.150789e-002
3.261090e+003,1.143542e-002
3.263018e+003,1.149319e-002
3.264947e+003,1.149520e-002
3.266875e+003,1.151241e-002
3.268803e+003,1.164771e-002
3.270732e+003,1.170279e-002
3.272660e+003,1.181932e-002
3.274589e+003,1.182078e-002
3.276518e+003,1.184775e-002
3.278446e+003,1.188568e-002
3.280375e+003,1.181973e-002
3.282303e+003,1.191735e-002
3.284231e+003,1.196967e-002
3.286160e+003,1.186389e-002
3.288088e+003,1.180205e-002
3.290017e+003,1.178006e-002
3.291946e+003,1.178575e-002
3.293874e+003,1.164700e-002
3.295802e+003,1.160919e-002
3.297731e+003,1.167549e-002
3.299659e+003,1.163352e-002
3.301588e+003,1.150330e-002
3.303516e+003,1.138032e-002
3.305445e+003,1.135852e-002
3.307374e+003,1.137028e-002
3.309302e+003,1.119716e-002
3.311230e+003,1.106849e-002
3.313159e+003,1.091410e-002
3.315087e+003,1.081052e-002
3.317016e+003,1.075587e-002
3.318944e+003,1.067612e-002
3.320873e+003,1.057283e-002
3.322802e+003,1.040994e-002
3.324730e+003,1.027346e-002
3.326658e+003,1.022403e-002
3.328587e+003,1.020758e-002
3.330515e+003,1.022593e-002
3.332444e+003,1.016830e-002
3.334372e+003,1.007856e-002
3.336301e+003,1.007415e-002
3.338229e+003,1.001070e-002
3.340158e+003,9.943507e-003
3.342086e+003,9.900386e-003
3.344015e+003,9.920149e-003
3.345943e+003,9.889199e-003
3.347872e+003,9.811650e-003
3.349800e+003,9.869845e-003
3.351729e+003,9.887166e-003
3.353657e+003,9.755394e-003
3.355586e+003,9.568583e-003
3.357514e+003,9.485401e-003
3.359443e+003,9.488686e-003
3.361371e+003,9.563332e-003
3.363300e+003,9.615803e-003
3.365229e+003,9.437755e-003
3.367157e+003,9.399424e-003
3.369085e+003,9.347387e-003
3.371014e+003,9.260659e-003
3.372942e+003,9.226270e-003
3.374871e+003,9.119095e-003
3.376799e+003,9.137469e-003
3.378728e+003,9.023482e-003
3.380656e+003,8.848110e-003
3.382585e+003,8.734909e-003
3.384513e+003,8.607610e-003
3.386442e+003,8.631370e-003
3.388370e+003,8.845879e-003
3.390299e+003,8.786907e-003
3.392227e+003,8.495721e-003
3.394156e+003,8.456833e-003
3.396084e+003,8.591049e-003
3.398013e+003,8.647594e-003
3.399941e+003,8.580606e-003
3.401870e+003,8.445751e-003
3.403798e+003,8.418825e-003
3.405727e+003,8.432711e-003
3.407655e+003,8.611158e-003
3.409584e+003,8.651954e-003
3.411512e+003,8.436494e-003
3.413441e+003,8.205946e-003
3.415369e+003,8.301211e-003
3.417298e+003,8.466867e-003
3.419226e+003,8.420210e-003
3.421155e+003,8.235020e-003
3.423083e+003,8.333702e-003
3.425012e+003,8.432609e-003
3.426940e+003,8.407035e-003
3.428869e+003,8.452170e-003
3.430797e+003,8.423015e-003
3.432726e+003,8.356095e-003
3.434654e+003,8.250655e-003
3.436583e+003,8.025031e-003
3.438511e+003,8.141896e-003
3.440440e+003,8.405549e-003
3.442368e+003,8.647425e-003
3.444297e+003,8.643977e-003
3.446225e+003,8.451326e-003
3.448154e+003,8.247446e-003
3.450082e+003,8.349881e-003
3.452011e+003,8.325562e-003
3.453939e+003,8.079982e-003
3.455868e+003,8.051223e-003
3.457796e+003,8.212699e-003
3.459725e+003,8.311984e-003
3.461653e+003,8.438149e-003
3.463582e+003,8.352144e-003
3.465510e+003,8.207499e-003
3.467439e+003,8.182209e-003
3.469367e+003,8.283919e-003
3.471296e+003,8.295064e-003
3.473224e+003,8.276422e-003
3.475153e+003,8.123598e-003
3.477081e+003,8.143381e-003
3.479010e+003,8.252275e-003
3.480938e+003,8.308236e-003
3.482867e+003,8.335998e-003
3.484795e+003,8.411359e-003
3.486724e+003,8.463286e-003
3.488652e+003,8.361163e-003
3.490581e+003,8.112187e-003
3.492509e+003,8.121944e-003
3.494438e+003,8.311849e-003
3.496366e+003,8.492545e-003
3.498295e+003,8.387138e-003
3.500223e+003,8.153004e-003
3.502152e+003,8.090548e-003
3.504080e+003,8.125759e-003
3.506009e+003,8.269498e-003
3.507937e+003,8.419501e-003
3.509866e+003,8.402880e-003
3.511794e+003,8.425008e-003
3.513723e+003,8.458792e-003
3.515651e+003,8.224754e-003
3.517580e+003,8.228839e-003
3.519508e+003,8.314416e-003
3.521437e+003,8.257003e-003
3.523365e+003,8.172350e-003
3.525294e+003,8.103343e-003
3.527222e+003,8.186260e-003
3.529151e+003,8.266053e-003
3.531079e+003,8.230156e-003
3.533008e+003,8.270140e-003
3.534936e+003,8.316274e-003
3.536865e+003,8.271525e-003
3.538793e+003,8.413352e-003
3.540722e+003,8.585947e-003
3.542650e+003,8.552185e-003
3.544579e+003,8.425751e-003
3.546507e+003,8.410244e-003
3.548436e+003,8.548806e-003
3.550364e+003,8.546509e-003
3.552293e+003,8.568744e-003
3.554221e+003,8.516570e-003
3.556150e+003,8.399874e-003
3.558078e+003,8.423251e-003
3.560007e+003,8.364439e-003
3.561935e+003,8.464502e-003
3.563864e+003,8.399198e-003
3.565792e+003,8.332755e-003
3.567721e+003,8.498627e-003
3.569649e+003,8.496532e-003
3.571578e+003,8.416190e-003
3.573506e+003,8.502918e-003
3.575435e+003,8.582059e-003
3.577363e+003,8.593111e-003
3.579292e+003,8.634885e-003
3.581220e+003,8.547319e-003
3.583149e+003,8.367242e-003
3.585077e+003,8.420683e-003
3.587006e+003,8.368897e-003
3.588934e+003,8.324481e-003
3.590863e+003,8.417305e-003
3.592791e+003,8.304249e-003
3.594720e+003,8.305364e-003
3.596648e+003,8.527281e-003
3.598577e+003,8.721386e-003
3.600505e+003,8.710061e-003
3.602434e+003,8.580539e-003
3.604362e+003,8.833908e-003
3.606291e+003,8.779706e-003
3.608219e+003,8.465549e-003
3.610148e+003,8.521739e-003
3.612076e+003,8.568744e-003
3.614005e+003,8.504473e-003
3.615933e+003,8.425954e-003
3.617862e+003,8.544042e-003
3.619790e+003,8.620217e-003
3.621719e+003,8.497647e-003
3.623647e+003,8.602743e-003
3.625576e+003,8.844458e-003
3.627504e+003,8.767094e-003
3.629433e+003,8.501195e-003
3.631361e+003,8.572022e-003
3.633290e+003,8.463083e-003
3.635218e+003,8.461090e-003
3.637146e+003,8.591218e-003
3.639075e+003,8.544413e-003
3.641004e+003,8.638028e-003
3.642932e+003,8.737580e-003
3.644861e+003,8.496059e-003
3.646789e+003,8.474638e-003
3.648718e+003,8.351434e-003
3.650646e+003,8.297563e-003
3.652574e+003,8.652359e-003
3.654503e+003,8.795598e-003
3.656432e+003,8.657227e-003
3.658360e+003,8.580370e-003
3.660289e+003,8.658985e-003
3.662217e+003,8.661588e-003
3.664146e+003,8.483085e-003
3.666074e+003,8.421224e-003
3.668002e+003,8.414738e-003
3.669931e+003,8.236167e-003
3.671860e+003,8.130587e-003
3.673788e+003,8.077586e-003
3.675717e+003,7.858666e-003
3.677645e+003,8.188017e-003
3.679573e+003,8.273112e-003
3.681502e+003,8.410987e-003
3.683430e+003,8.564386e-003
3.685359e+003,8.505114e-003
3.687288e+003,8.229109e-003
3.689216e+003,8.218371e-003
3.691145e+003,8.397374e-003
3.693073e+003,8.562560e-003
3.695001e+003,8.463015e-003
3.696930e+003,8.485146e-003
3.698858e+003,8.607103e-003
3.700787e+003,8.568001e-003
3.702716e+003,8.615383e-003
3.704644e+003,8.734875e-003
3.706573e+003,8.699041e-003
3.708501e+003,8.616026e-003
3.710429e+003,8.587873e-003
3.712358e+003,8.544954e-003
3.714286e+003,8.534681e-003
3.716215e+003,8.451494e-003
3.718144e+003,8.585845e-003
3.720072e+003,8.720237e-003
3.722000e+003,8.494201e-003
3.723929e+003,8.322859e-003
3.725857e+003,8.446697e-003
3.727786e+003,8.683220e-003
3.729714e+003,8.629308e-003
3.731643e+003,8.351468e-003
3.733572e+003,8.142976e-003
3.735500e+003,8.154321e-003
3.737428e+003,8.297089e-003
3.739357e+003,8.324987e-003
3.741285e+003,8.492444e-003
3.743214e+003,8.209458e-003
3.745142e+003,7.843820e-003
3.747071e+003,8.281419e-003
3.749000e+003,8.316544e-003
3.750928e+003,8.179407e-003
3.752856e+003,8.126332e-003
3.754785e+003,8.167217e-003
3.756713e+003,8.495823e-003
3.758642e+003,8.643065e-003
3.760570e+003,8.392137e-003
3.762499e+003,8.432169e-003
3.764427e+003,8.471529e-003
3.766356e+003,8.494133e-003
3.768284e+003,8.595004e-003
3.770213e+003,8.492714e-003
3.772141e+003,8.477037e-003
3.774070e+003,8.563743e-003
3.775998e+003,8.659593e-003
3.777927e+003,8.476902e-003
3.779855e+003,8.243360e-003
3.781784e+003,8.518158e-003
3.783712e+003,8.666725e-003
3.785641e+003,8.765675e-003
3.787569e+003,8.832352e-003
3.789498e+003,8.710974e-003
3.791426e+003,8.529748e-003
3.793355e+003,8.612240e-003
3.795283e+003,8.629883e-003
3.797212e+003,8.505452e-003
3.799140e+003,8.349509e-003
3.801069e+003,8.255787e-003
3.802997e+003,8.579424e-003
3.804926e+003,8.645092e-003
3.806854e+003,8.316037e-003
3.808783e+003,8.222323e-003
3.810711e+003,8.440041e-003
3.812640e+003,8.574219e-003
3.814568e+003,8.451731e-003
3.816497e+003,8.395448e-003
3.818425e+003,8.603148e-003
3.820354e+003,8.754754e-003
3.822282e+003,8.705971e-003
3.824211e+003,8.615146e-003
3.826139e+003,8.454602e-003
3.828068e+003,8.517516e-003
3.829996e+003,8.629308e-003
3.831925e+003,8.749717e-003
3.833853e+003,8.669936e-003
3.835782e+003,8.669193e-003
3.837710e+003,8.717499e-003
3.839639e+003,8.533127e-003
3.841567e+003,8.441156e-003
3.843496e+003,8.295199e-003
3.845424e+003,8.297901e-003
3.847353e+003,8.358291e-003
3.849281e+003,8.574388e-003
3.851210e+003,8.659864e-003
3.853138e+003,8.349069e-003
3.855067e+003,8.127008e-003
3.856995e+003,8.308708e-003
3.858924e+003,8.474098e-003
3.860852e+003,8.572597e-003
3.862781e+003,8.753909e-003
3.864709e+003,8.589935e-003
3.866638e+003,8.428352e-003
3.868566e+003,8.243461e-003
3.870495e+003,8.270038e-003
3.872423e+003,8.433994e-003
3.874352e+003,8.546339e-003
3.876280e+003,8.614167e-003
3.878209e+003,8.463116e-003
3.880137e+003,8.207466e-003
3.882066e+003,8.195917e-003
3.883994e+003,8.177110e-003
3.885923e+003,8.231508e-003
3.887851e+003,8.524307e-003
3.889780e+003,8.514204e-003
3.891708e+003,8.077384e-003
3.893637e+003,8.051865e-003
3.895565e+003,8.509541e-003
3.897494e+003,8.758000e-003
3.899422e+003,8.617377e-003
3.901351e+003,8.348631e-003
3.903279e+003,8.192473e-003
3.905208e+003,8.302189e-003
3.907136e+003,8.468860e-003
3.909065e+003,8.491532e-003
3.910993e+003,8.378086e-003
3.912922e+003,8.296684e-003
3.914850e+003,8.444197e-003
3.916779e+003,8.264128e-003
3.918707e+003,8.128291e-003
3.920636e+003,8.262136e-003
3.922564e+003,8.286519e-003
3.924493e+003,8.269633e-003
3.926421e+003,8.373052e-003
3.928350e+003,8.529106e-003
3.930278e+003,8.546272e-003
3.932207e+003,8.490079e-003
3.934135e+003,8.678725e-003
3.936064e+003,9.041547e-003
3.937992e+003,8.896064e-003
3.939921e+003,8.508663e-003
3.941849e+003,8.442744e-003
3.943778e+003,8.570908e-003
3.945706e+003,8.558336e-003
3.947635e+003,8.563709e-003
3.949563e+003,8.808210e-003
3.951492e+003,8.788023e-003
3.953420e+003,8.694511e-003
3.955349e+003,8.743665e-003
3.957277e+003,8.731698e-003
3.959206e+003,8.702625e-003
3.961134e+003,8.675446e-003
3.963063e+003,8.744882e-003
3.964991e+003,8.560296e-003
3.966920e+003,8.265141e-003
3.968848e+003,8.367310e-003
3.970777e+003,8.662872e-003
3.972705e+003,8.667706e-003
3.974634e+003,8.492815e-003
3.976562e+003,8.638704e-003
3.978491e+003,8.740318e-003
3.980419e+003,8.666488e-003
3.982348e+003,8.554484e-003
3.984276e+003,8.595172e-003
3.986205e+003,8.594023e-003
3.988133e+003,8.656585e-003
3.990062e+003,8.731325e-003
3.991990e+003,8.625252e-003
3.993919e+003,8.570603e-003
3.995847e+003,8.623528e-003
3.997776e+003,8.606393e-003
3.999704e+003,8.657767e-003
4.001633e+003,0.000000e+000
