3.991989e+002,5.351177e-003
4.011274e+002,1.748054e-003
4.030559e+002,-2.718472e-003
4.049844e+002,-2.104537e-003
4.069129e+002,3.010599e-003
4.088414e+002,2.638510e-003
4.107699e+002,-3.391270e-004
4.126984e+002,-2.572151e-003
4.146269e+002,3.195628e-004
4.165554e+002,7.205631e-003
4.184839e+002,7.513180e-003
4.204124e+002,1.020656e-002
4.223409e+002,1.162831e-002
4.242694e+002,9.180649e-003
4.261979e+002,2.978837e-003
4.281264e+002,8.306783e-003
4.300549e+002,1.352261e-002
4.319834e+002,1.261227e-002
4.339119e+002,1.179184e-002
4.358404e+002,1.205132e-002
4.377689e+002,1.255119e-002
4.396974e+002,6.062709e-003
4.416259e+002,-1.309568e-003
4.435544e+002,2.877895e-003
4.454829e+002,6.918533e-003
4.474114e+002,8.889604e-003
4.493399e+002,9.348842e-003
4.512684e+002,7.821183e-003
4.531969e+002,7.111920e-003
4.551254e+002,7.802055e-003
4.570539e+002,6.948900e-003
4.589824e+002,4.124934e-003
4.609109e+002,2.249087e-003
4.628394e+002,2.897775e-003
4.647679e+002,3.036390e-003
4.666964e+002,5.085181e-003
4.686249e+002,5.131246e-003
4.705533e+002,6.373013e-003
4.724819e+002,5.856656e-003
4.744103e+002,3.873094e-003
4.763389e+002,3.450432e-003
4.782673e+002,2.787047e-003
4.801959e+002,1.949836e-003
4.821243e+002,1.576859e-003
4.840529e+002,8.877725e-004
4.859813e+002,-1.288261e-003
4.879099e+002,-2.132102e-003
4.898383e+002,-8.529928e-004
4.917668e+002,-6.625727e-004
4.936953e+002,-6.026212e-004
4.956238e+002,9.875066e-005
4.975523e+002,1.040860e-003
4.994808e+002,-6.503978e-004
5.014093e+002,-1.363741e-003
5.033378e+002,-1.829276e-004
5.052663e+002,1.926471e-003
5.071948e+002,4.460143e-004
5.091233e+002,-1.574786e-003
5.110518e+002,-1.840996e-003
5.129803e+002,-1.817437e-003
5.149088e+002,-2.523795e-003
5.168373e+002,-2.098568e-003
5.187658e+002,-1.663849e-003
5.206943e+002,-2.715508e-003
5.226228e+002,-3.580804e-003
5.245513e+002,-2.017246e-003
5.264798e+002,-1.790248e-003
5.284083e+002,-2.676982e-003
5.303368e+002,-2.417313e-003
5.322653e+002,-1.560457e-003
5.341938e+002,-4.439679e-004
5.361223e+002,-9.438240e-004
5.380508e+002,-1.579011e-003
5.399792e+002,-1.044586e-003
5.419078e+002,2.737403e-004
5.438363e+002,3.316658e-004
5.457648e+002,-9.585694e-004
5.476932e+002,-6.504970e-004
5.496218e+002,-4.055038e-004
5.515503e+002,1.845958e-004
5.534788e+002,-1.496407e-004
5.554072e+002,-8.085458e-004
5.573358e+002,-4.068941e-004
5.592643e+002,5.012759e-004
5.611927e+002,9.985147e-004
5.631212e+002,1.531635e-003
5.650497e+002,1.351784e-003
5.669783e+002,8.863780e-004
5.689067e+002,9.371796e-004
5.708352e+002,5.610897e-004
5.727637e+002,-4.529187e-005
5.746923e+002,3.313417e-006
5.766207e+002,-8.988571e-004
5.785492e+002,-9.369469e-004
5.804777e+002,-1.508000e-004
5.824063e+002,-4.565458e-004
5.843347e+002,-1.090958e-003
5.862632e+002,-4.670381e-004
5.881917e+002,6.478188e-005
5.901202e+002,-7.104088e-004
5.920487e+002,-1.687745e-003
5.939772e+002,-1.337746e-003
5.959057e+002,-9.140719e-005
5.978342e+002,6.383655e-004
5.997627e+002,1.150279e-003
6.016912e+002,1.358863e-003
6.036197e+002,1.506664e-003
6.055482e+002,2.462865e-003
6.074767e+002,2.846276e-003
6.094052e+002,2.345886e-003
6.113337e+002,7.922281e-004
6.132622e+002,-2.904884e-004
6.151907e+002,6.238648e-004
6.171192e+002,6.259885e-004
6.190477e+002,3.661198e-004
6.209762e+002,5.319613e-004
6.229047e+002,1.491034e-006
6.248332e+002,-1.575809e-003
6.267617e+002,-2.805819e-003
6.286902e+002,-2.721073e-003
6.306187e+002,-2.065593e-003
6.325472e+002,-1.899391e-003
6.344756e+002,-1.745600e-003
6.364042e+002,-1.798036e-003
6.383326e+002,-1.956129e-003
6.402612e+002,-1.765466e-003
6.421896e+002,-1.011365e-003
6.441182e+002,-8.441633e-004
6.460466e+002,-9.747690e-004
6.479752e+002,-9.567841e-004
6.499036e+002,-9.941746e-004
6.518322e+002,-8.382107e-004
6.537606e+002,-8.343415e-004
6.556891e+002,-1.075226e-003
6.576177e+002,-7.852291e-004
6.595461e+002,-7.442483e-004
6.614746e+002,-1.090958e-003
6.634031e+002,-1.541506e-003
6.653317e+002,-1.249937e-003
6.672601e+002,-6.664104e-004
6.691886e+002,-2.101515e-004
6.711171e+002,1.014351e-004
6.730457e+002,1.840986e-004
6.749741e+002,2.280883e-004
6.769026e+002,2.935342e-004
6.788311e+002,3.866475e-004
6.807596e+002,8.926200e-004
6.826881e+002,1.109684e-003
6.846166e+002,1.107292e-003
6.865451e+002,1.555510e-003
6.884736e+002,1.741666e-003
6.904021e+002,1.377610e-003
6.923306e+002,1.046340e-003
6.942591e+002,1.135894e-003
6.961876e+002,8.486625e-004
6.981161e+002,5.620850e-004
7.000446e+002,7.892074e-004
7.019731e+002,1.117025e-003
7.039016e+002,1.033520e-003
7.058301e+002,4.632289e-004
7.077585e+002,-1.203924e-004
7.096871e+002,5.696115e-005
7.116156e+002,3.863490e-004
7.135441e+002,-5.795251e-004
7.154725e+002,-1.594197e-003
7.174011e+002,-1.815821e-003
7.193296e+002,-1.354658e-003
7.212581e+002,-1.177246e-003
7.231865e+002,-1.626945e-003
7.251151e+002,-2.109648e-003
7.270436e+002,-2.297820e-003
7.289720e+002,-2.190063e-003
7.309005e+002,-2.299204e-003
7.328290e+002,-2.284570e-003
7.347576e+002,-1.853005e-003
7.366860e+002,-1.243131e-003
7.386145e+002,-8.901278e-004
7.405430e+002,-1.047362e-003
7.424716e+002,-1.433000e-003
7.444000e+002,-1.150975e-003
7.463285e+002,-7.501029e-004
7.482570e+002,-8.854985e-004
7.501855e+002,-5.234011e-004
7.521140e+002,3.986197e-004
7.540425e+002,1.152272e-003
7.559710e+002,1.631167e-003
7.578995e+002,1.517138e-003
7.598280e+002,1.373754e-003
7.617565e+002,1.255805e-003
7.636850e+002,1.455430e-003
7.656135e+002,2.004090e-003
7.675420e+002,2.349584e-003
7.694705e+002,2.579076e-003
7.713990e+002,2.623643e-003
7.733275e+002,2.696719e-003
7.752560e+002,2.572277e-003
7.771844e+002,2.568077e-003
7.791130e+002,2.605242e-003
7.810415e+002,2.678282e-003
7.829700e+002,2.751367e-003
7.848984e+002,2.811191e-003
7.868270e+002,2.418149e-003
7.887555e+002,2.056055e-003
7.906840e+002,2.155208e-003
7.926124e+002,2.077662e-003
7.945410e+002,1.799289e-003
7.964695e+002,1.654216e-003
7.983979e+002,1.895454e-003
8.003264e+002,1.941814e-003
8.022549e+002,1.504070e-003
8.041835e+002,1.356237e-003
8.061119e+002,1.617631e-003
8.080404e+002,2.140090e-003
8.099689e+002,2.164632e-003
8.118975e+002,1.861345e-003
8.138259e+002,1.928468e-003
8.157545e+002,2.444205e-003
8.176830e+002,2.319269e-003
8.196115e+002,1.367472e-003
8.215399e+002,8.567630e-004
8.234684e+002,1.050824e-003
8.253970e+002,8.313662e-004
8.273254e+002,3.237408e-004
8.292539e+002,1.118418e-004
8.311824e+002,5.765706e-005
8.331110e+002,2.323649e-004
8.350394e+002,4.390491e-004
8.369679e+002,7.235208e-004
8.388964e+002,4.216033e-004
8.408250e+002,1.339484e-004
8.427534e+002,5.165904e-005
8.446819e+002,2.707895e-004
8.466104e+002,1.284797e-004
8.485389e+002,-2.434669e-004
8.504674e+002,-5.712526e-004
8.523959e+002,-5.584133e-004
8.543244e+002,-6.339876e-004
8.562529e+002,-4.754120e-004
8.581814e+002,-5.563947e-004
8.601099e+002,-6.153930e-004
8.620384e+002,-5.830326e-004
8.639669e+002,-7.437852e-004
8.658954e+002,-7.832116e-004
8.678239e+002,-7.294625e-004
8.697524e+002,-7.593643e-004
8.716809e+002,-8.116877e-004
8.736094e+002,-8.453869e-004
8.755378e+002,-6.981691e-004
8.774664e+002,-3.506816e-004
8.793949e+002,-1.124755e-004
8.813234e+002,7.885973e-006
8.832518e+002,-4.612013e-005
8.851804e+002,-3.309161e-004
8.871089e+002,-3.967976e-004
8.890374e+002,-8.163460e-005
8.909658e+002,2.829739e-005
8.928943e+002,6.570810e-004
8.948229e+002,1.051090e-003
8.967513e+002,9.458796e-004
8.986798e+002,7.137301e-004
9.006083e+002,4.446213e-004
9.025369e+002,4.905945e-004
9.044653e+002,6.316958e-004
9.063938e+002,4.975274e-004
9.083223e+002,5.749578e-004
9.102509e+002,6.083692e-004
9.121793e+002,2.153252e-004
9.141078e+002,-4.399977e-005
9.160364e+002,-5.224924e-005
9.179648e+002,-8.680251e-005
9.198933e+002,-3.506816e-004
9.218218e+002,-6.991285e-004
9.237504e+002,-7.388236e-004
9.256788e+002,-1.178502e-003
9.276073e+002,-1.588255e-003
9.295358e+002,-1.358291e-003
9.314644e+002,-1.387225e-003
9.333928e+002,-1.604926e-003
9.353213e+002,-1.744577e-003
9.372498e+002,-1.751012e-003
9.391783e+002,-1.980142e-003
9.411068e+002,-2.200381e-003
9.430353e+002,-2.120562e-003
9.449637e+002,-2.207271e-003
9.468923e+002,-2.390722e-003
9.488208e+002,-2.124288e-003
9.507493e+002,-1.741277e-003
9.526777e+002,-1.704050e-003
9.546063e+002,-1.824334e-003
9.565348e+002,-1.840006e-003
9.584633e+002,-1.733884e-003
9.603917e+002,-1.766027e-003
9.623203e+002,-1.811333e-003
9.642488e+002,-1.842382e-003
9.661772e+002,-1.657676e-003
9.681057e+002,-1.376755e-003
9.700343e+002,-1.556561e-003
9.719628e+002,-1.780217e-003
9.738912e+002,-1.851026e-003
9.758197e+002,-1.608921e-003
9.777483e+002,-1.429334e-003
9.796768e+002,-1.303457e-003
9.816052e+002,-1.133427e-003
9.835337e+002,-1.121596e-003
9.854623e+002,-1.221226e-003
9.873907e+002,-1.267811e-003
9.893192e+002,-1.324830e-003
9.912477e+002,-1.368233e-003
9.931763e+002,-1.315647e-003
9.951047e+002,-1.110590e-003
9.970332e+002,-9.917613e-004
9.989617e+002,-1.065707e-003
1.000890e+003,-1.015662e-003
1.002819e+003,-8.341100e-004
1.004747e+003,-7.844022e-004
1.006676e+003,-6.012315e-004
1.008604e+003,-2.434007e-004
1.010533e+003,-7.620823e-007
1.012461e+003,8.575936e-005
1.014390e+003,2.421116e-004
1.016318e+003,5.315964e-004
1.018247e+003,7.287979e-004
1.020175e+003,6.998907e-004
1.022104e+003,8.808997e-004
1.024032e+003,1.375250e-003
1.025961e+003,1.601268e-003
1.027889e+003,1.686413e-003
1.029818e+003,1.949869e-003
1.031746e+003,2.243326e-003
1.033675e+003,2.484992e-003
1.035603e+003,2.871358e-003
1.037532e+003,3.075631e-003
1.039460e+003,3.146047e-003
1.041389e+003,3.222649e-003
1.043317e+003,3.137169e-003
1.045246e+003,2.967360e-003
1.047174e+003,2.968929e-003
1.049103e+003,3.014236e-003
1.051031e+003,3.101093e-003
1.052960e+003,3.275861e-003
1.054888e+003,3.334355e-003
1.056817e+003,3.238104e-003
1.058745e+003,3.199316e-003
1.060674e+003,3.128625e-003
1.062602e+003,3.244714e-003
1.064531e+003,3.279567e-003
1.066459e+003,3.189536e-003
1.068388e+003,3.167173e-003
1.070316e+003,3.165938e-003
1.072245e+003,3.347344e-003
1.074173e+003,3.559826e-003
1.076102e+003,3.309748e-003
1.078030e+003,3.000323e-003
1.079959e+003,3.004226e-003
1.081887e+003,3.243646e-003
1.083816e+003,3.563567e-003
1.085744e+003,3.732640e-003
1.087673e+003,3.845915e-003
1.089601e+003,3.862463e-003
1.091530e+003,4.010148e-003
1.093458e+003,4.207665e-003
1.095387e+003,4.081986e-003
1.097315e+003,4.100383e-003
1.099244e+003,4.240085e-003
1.101172e+003,4.297304e-003
1.103101e+003,4.279335e-003
1.105029e+003,4.083391e-003
1.106958e+003,3.980888e-003
1.108886e+003,4.050012e-003
1.110815e+003,4.354932e-003
1.112743e+003,4.482966e-003
1.114672e+003,4.231854e-003
1.116600e+003,4.186186e-003
1.118529e+003,4.242160e-003
1.120457e+003,4.141325e-003
1.122386e+003,4.226568e-003
1.124314e+003,4.371901e-003
1.126243e+003,4.075799e-003
1.128171e+003,3.904988e-003
1.130100e+003,3.938222e-003
1.132028e+003,3.753795e-003
1.133957e+003,3.454607e-003
1.135885e+003,3.107066e-003
1.137814e+003,2.969095e-003
1.139742e+003,2.850645e-003
1.141671e+003,2.439707e-003
1.143599e+003,1.912360e-003
1.145528e+003,1.666622e-003
1.147456e+003,1.630235e-003
1.149385e+003,1.381465e-003
1.151313e+003,1.057567e-003
1.153242e+003,8.148341e-004
1.155170e+003,6.416838e-004
1.157099e+003,4.780890e-004
1.159027e+003,1.879769e-004
1.160956e+003,-1.186182e-005
1.162884e+003,-1.102561e-004
1.164813e+003,-9.674062e-005
1.166741e+003,4.622445e-005
1.168670e+003,1.633815e-004
1.170598e+003,2.054465e-004
1.172526e+003,1.582107e-004
1.174455e+003,2.189055e-004
1.176384e+003,3.279852e-004
1.178312e+003,3.066644e-004
1.180240e+003,3.253988e-004
1.182169e+003,2.692312e-004
1.184098e+003,3.241056e-004
1.186026e+003,4.493643e-004
1.187954e+003,2.887929e-004
1.189883e+003,-3.942933e-006
1.191812e+003,-2.054262e-005
1.193740e+003,2.420122e-004
1.195668e+003,4.092325e-004
1.197597e+003,3.579951e-004
1.199526e+003,3.340864e-004
1.201454e+003,3.191318e-004
1.203382e+003,3.601175e-004
1.205311e+003,3.321632e-004
1.207240e+003,3.355123e-004
1.209168e+003,6.089002e-004
1.211096e+003,8.193821e-004
1.213025e+003,8.963718e-004
1.214953e+003,1.122506e-003
1.216882e+003,1.166160e-003
1.218810e+003,1.176791e-003
1.220739e+003,1.296347e-003
1.222667e+003,1.429499e-003
1.224596e+003,1.495659e-003
1.226524e+003,1.682455e-003
1.228453e+003,1.888133e-003
1.230381e+003,2.093509e-003
1.232310e+003,2.264009e-003
1.234238e+003,2.442073e-003
1.236167e+003,2.617842e-003
1.238095e+003,2.662446e-003
1.240024e+003,2.558678e-003
1.241952e+003,2.540114e-003
1.243881e+003,2.461799e-003
1.245809e+003,2.371704e-003
1.247738e+003,2.222943e-003
1.249666e+003,2.109458e-003
1.251595e+003,2.059018e-003
1.253523e+003,2.049730e-003
1.255452e+003,1.987813e-003
1.257380e+003,1.992207e-003
1.259309e+003,1.999064e-003
1.261237e+003,2.061282e-003
1.263166e+003,2.060849e-003
1.265094e+003,2.163666e-003
1.267023e+003,2.451169e-003
1.268951e+003,2.757803e-003
1.270880e+003,3.028749e-003
1.272808e+003,3.291519e-003
1.274737e+003,3.495723e-003
1.276665e+003,3.687625e-003
1.278594e+003,4.035330e-003
1.280522e+003,4.330066e-003
1.282451e+003,4.496993e-003
1.284379e+003,4.721126e-003
1.286308e+003,5.229728e-003
1.288236e+003,5.557393e-003
1.290165e+003,5.773981e-003
1.292093e+003,6.018998e-003
1.294022e+003,6.102493e-003
1.295950e+003,6.365246e-003
1.297879e+003,6.476352e-003
1.299807e+003,6.556503e-003
1.301736e+003,6.580152e-003
1.303664e+003,6.536994e-003
1.305593e+003,6.491957e-003
1.307521e+003,6.328867e-003
1.309450e+003,6.056392e-003
1.311378e+003,5.795504e-003
1.313307e+003,5.656173e-003
1.315235e+003,5.644122e-003
1.317164e+003,5.469170e-003
1.319092e+003,5.002183e-003
1.321021e+003,4.539581e-003
1.322949e+003,4.279134e-003
1.324878e+003,4.091887e-003
1.326806e+003,3.953770e-003
1.328735e+003,3.885296e-003
1.330663e+003,3.859855e-003
1.332592e+003,3.756803e-003
1.334520e+003,3.571886e-003
1.336449e+003,3.450599e-003
1.338377e+003,3.328913e-003
1.340306e+003,3.249254e-003
1.342234e+003,3.369316e-003
1.344163e+003,3.350349e-003
1.346091e+003,3.217275e-003
1.348020e+003,3.169677e-003
1.349948e+003,3.063385e-003
1.351877e+003,2.756936e-003
1.353805e+003,2.602776e-003
1.355734e+003,2.559078e-003
1.357662e+003,2.420048e-003
1.359591e+003,2.237930e-003
1.361519e+003,1.953896e-003
1.363448e+003,1.765320e-003
1.365376e+003,1.751613e-003
1.367305e+003,1.676800e-003
1.369233e+003,1.645668e-003
1.371162e+003,1.503771e-003
1.373090e+003,1.375748e-003
1.375019e+003,1.420624e-003
1.376947e+003,1.492234e-003
1.378876e+003,1.533264e-003
1.380804e+003,1.706305e-003
1.382733e+003,1.706937e-003
1.384661e+003,1.447351e-003
1.386590e+003,1.104468e-003
1.388518e+003,1.039100e-003
1.390447e+003,9.897141e-004
1.392375e+003,7.375601e-004
1.394304e+003,4.816383e-004
1.396232e+003,4.484356e-004
1.398161e+003,4.385847e-004
1.400089e+003,5.322931e-004
1.402018e+003,5.843804e-004
1.403946e+003,3.963314e-004
1.405875e+003,4.105591e-004
1.407803e+003,5.960927e-004
1.409732e+003,6.541276e-004
1.411660e+003,6.794145e-004
1.413589e+003,7.532926e-004
1.415517e+003,1.032822e-003
1.417446e+003,1.327454e-003
1.419374e+003,1.653018e-003
1.421303e+003,2.371338e-003
1.423231e+003,2.880663e-003
1.425160e+003,3.506478e-003
1.427088e+003,4.132795e-003
1.429017e+003,4.395865e-003
1.430945e+003,4.533286e-003
1.432874e+003,4.800653e-003
1.434802e+003,4.976308e-003
1.436731e+003,5.019043e-003
1.438659e+003,5.537827e-003
1.440588e+003,5.976500e-003
1.442516e+003,6.418172e-003
1.444445e+003,6.854673e-003
1.446373e+003,7.155910e-003
1.448302e+003,7.395271e-003
1.450230e+003,7.799592e-003
1.452159e+003,8.254909e-003
1.454087e+003,8.569826e-003
1.456016e+003,8.125320e-003
1.457944e+003,8.185855e-003
1.459873e+003,8.907969e-003
1.461801e+003,9.128400e-003
1.463730e+003,8.892513e-003
1.465658e+003,8.808784e-003
1.467587e+003,8.927315e-003
1.469515e+003,8.754348e-003
1.471444e+003,8.223167e-003
1.473372e+003,7.945080e-003
1.475301e+003,8.034853e-003
1.477229e+003,7.875569e-003
1.479158e+003,7.508056e-003
1.481086e+003,6.935804e-003
1.483015e+003,6.623045e-003
1.484943e+003,6.214270e-003
1.486872e+003,5.733119e-003
1.488800e+003,5.314481e-003
1.490729e+003,4.899865e-003
1.492657e+003,4.572428e-003
1.494586e+003,4.157349e-003
1.496514e+003,3.663031e-003
1.498443e+003,3.458381e-003
1.500371e+003,3.290918e-003
1.502300e+003,3.070759e-003
1.504228e+003,2.574410e-003
1.506157e+003,1.824942e-003
1.508085e+003,1.882243e-003
1.510014e+003,2.138326e-003
1.511942e+003,2.165431e-003
1.513871e+003,2.091179e-003
1.515799e+003,1.766384e-003
1.517728e+003,1.789540e-003
1.519656e+003,1.731087e-003
1.521585e+003,1.579619e-003
1.523513e+003,2.072701e-003
1.525442e+003,2.398491e-003
1.527370e+003,2.585343e-003
1.529299e+003,2.841574e-003
1.531227e+003,2.997420e-003
1.533156e+003,3.147382e-003
1.535084e+003,3.738990e-003
1.537013e+003,4.006503e-003
1.538941e+003,3.584414e-003
1.540870e+003,3.563567e-003
1.542798e+003,4.097974e-003
1.544727e+003,4.616932e-003
1.546655e+003,5.099026e-003
1.548584e+003,5.423976e-003
1.550512e+003,5.656308e-003
1.552441e+003,5.749470e-003
1.554369e+003,5.814007e-003
1.556298e+003,5.844163e-003
1.558226e+003,5.331419e-003
1.560155e+003,5.755648e-003
1.562083e+003,6.829293e-003
1.564012e+003,7.335789e-003
1.565940e+003,7.647038e-003
1.567869e+003,7.724203e-003
1.569797e+003,7.749938e-003
1.571726e+003,8.126434e-003
1.573654e+003,8.176030e-003
1.575583e+003,7.910323e-003
1.577511e+003,8.001709e-003
1.579440e+003,8.234885e-003
1.581368e+003,8.179204e-003
1.583297e+003,7.951830e-003
1.585225e+003,7.668048e-003
1.587154e+003,7.451457e-003
1.589082e+003,7.106329e-003
1.591010e+003,6.591590e-003
1.592939e+003,6.153035e-003
1.594868e+003,5.787445e-003
1.596796e+003,5.352821e-003
1.598724e+003,4.942492e-003
1.600653e+003,4.395564e-003
1.602582e+003,3.862429e-003
1.604510e+003,3.377330e-003
1.606438e+003,3.049170e-003
1.608367e+003,2.648778e-003
1.610296e+003,2.315638e-003
1.612224e+003,1.962117e-003
1.614152e+003,1.498817e-003
1.616081e+003,7.696896e-004
1.618010e+003,7.016828e-004
1.619938e+003,8.381053e-004
1.621866e+003,4.525816e-004
1.623795e+003,6.826148e-005
1.625724e+003,1.924520e-004
1.627652e+003,1.303357e-004
1.629580e+003,2.882671e-006
1.631509e+003,-9.965576e-005
1.633438e+003,-4.743859e-004
1.635366e+003,-1.096445e-003
1.637294e+003,-1.254992e-003
1.639223e+003,-1.243131e-003
1.641151e+003,-1.415992e-003
1.643080e+003,-1.877189e-003
1.645008e+003,-2.595109e-003
1.646937e+003,-3.028931e-003
1.648865e+003,-3.055845e-003
1.650794e+003,-3.598155e-003
1.652722e+003,-4.573349e-003
1.654651e+003,-4.559906e-003
1.656579e+003,-4.301329e-003
1.658508e+003,-4.467172e-003
1.660436e+003,-4.757278e-003
1.662365e+003,-5.095004e-003
1.664293e+003,-5.225975e-003
1.666222e+003,-5.349084e-003
1.668150e+003,-5.794812e-003
1.670079e+003,-6.110171e-003
1.672007e+003,-6.043451e-003
1.673936e+003,-6.147381e-003
1.675864e+003,-6.109550e-003
1.677793e+003,-5.811748e-003
1.679721e+003,-5.709405e-003
1.681650e+003,-5.799684e-003
1.683578e+003,-6.113536e-003
1.685507e+003,-5.769440e-003
1.687435e+003,-5.354189e-003
1.689364e+003,-5.174573e-003
1.691292e+003,-4.962978e-003
1.693221e+003,-4.844576e-003
1.695149e+003,-5.069165e-003
1.697078e+003,-4.894543e-003
1.699006e+003,-5.123722e-003
1.700935e+003,-5.195331e-003
1.702863e+003,-4.604626e-003
1.704792e+003,-4.624264e-003
1.706720e+003,-4.523084e-003
1.708649e+003,-4.390294e-003
1.710577e+003,-4.375172e-003
1.712506e+003,-4.476289e-003
1.714434e+003,-4.766684e-003
1.716363e+003,-5.175850e-003
1.718291e+003,-5.247155e-003
1.720220e+003,-4.858797e-003
1.722148e+003,-4.697463e-003
1.724077e+003,-4.734532e-003
1.726005e+003,-4.674813e-003
1.727934e+003,-4.709885e-003
1.729862e+003,-4.810301e-003
1.731791e+003,-5.033434e-003
1.733719e+003,-5.474873e-003
1.735648e+003,-5.266698e-003
1.737576e+003,-5.005103e-003
1.739505e+003,-4.996193e-003
1.741433e+003,-4.805517e-003
1.743362e+003,-4.710508e-003
1.745290e+003,-4.496851e-003
1.747219e+003,-4.451102e-003
1.749147e+003,-4.503442e-003
1.751076e+003,-4.503934e-003
1.753004e+003,-4.295686e-003
1.754933e+003,-4.144743e-003
1.756861e+003,-4.067808e-003
1.758790e+003,-4.041908e-003
1.760718e+003,-4.157346e-003
1.762647e+003,-4.080117e-003
1.764575e+003,-3.899711e-003
1.766504e+003,-3.899284e-003
1.768432e+003,-3.844178e-003
1.770361e+003,-3.922598e-003
1.772289e+003,-4.117732e-003
1.774218e+003,-3.946108e-003
1.776146e+003,-3.661045e-003
1.778075e+003,-3.577485e-003
1.780003e+003,-3.669522e-003
1.781932e+003,-3.665054e-003
1.783860e+003,-3.686114e-003
1.785789e+003,-3.613763e-003
1.787717e+003,-3.434741e-003
1.789646e+003,-3.583466e-003
1.791574e+003,-3.803387e-003
1.793503e+003,-3.758485e-003
1.795431e+003,-3.535978e-003
1.797360e+003,-3.421559e-003
1.799288e+003,-3.457390e-003
1.801217e+003,-3.603051e-003
1.803145e+003,-3.540908e-003
1.805074e+003,-3.396573e-003
1.807002e+003,-3.408146e-003
1.808931e+003,-3.542649e-003
1.810859e+003,-3.490851e-003
1.812788e+003,-3.371455e-003
1.814716e+003,-3.381319e-003
1.816645e+003,-3.432604e-003
1.818573e+003,-3.429678e-003
1.820502e+003,-3.431683e-003
1.822430e+003,-3.481122e-003
1.824359e+003,-3.553330e-003
1.826287e+003,-3.610083e-003
1.828216e+003,-3.765613e-003
1.830144e+003,-3.848973e-003
1.832073e+003,-3.639919e-003
1.834001e+003,-3.555335e-003
1.835930e+003,-3.688939e-003
1.837858e+003,-3.785289e-003
1.839787e+003,-3.750371e-003
1.841715e+003,-3.764989e-003
1.843644e+003,-3.979598e-003
1.845572e+003,-3.927261e-003
1.847501e+003,-3.739794e-003
1.849429e+003,-3.700931e-003
1.851358e+003,-3.628188e-003
1.853286e+003,-3.577879e-003
1.855215e+003,-3.616589e-003
1.857143e+003,-3.655066e-003
1.859072e+003,-3.683222e-003
1.861000e+003,-3.585832e-003
1.862929e+003,-3.480169e-003
1.864857e+003,-3.479084e-003
1.866786e+003,-3.573147e-003
1.868714e+003,-3.700931e-003
1.870643e+003,-3.629831e-003
1.872571e+003,-3.426785e-003
1.874500e+003,-3.341930e-003
1.876428e+003,-3.353504e-003
1.878357e+003,-3.333644e-003
1.880285e+003,-3.223250e-003
1.882214e+003,-3.201246e-003
1.884142e+003,-3.234070e-003
1.886071e+003,-3.193123e-003
1.887999e+003,-3.166348e-003
1.889928e+003,-3.224565e-003
1.891856e+003,-3.243937e-003
1.893785e+003,-3.187432e-003
1.895713e+003,-3.091147e-003
1.897642e+003,-3.007313e-003
1.899570e+003,-3.037058e-003
1.901499e+003,-3.039954e-003
1.903427e+003,-2.989346e-003
1.905356e+003,-3.017875e-003
1.907284e+003,-2.988786e-003
1.909213e+003,-2.982370e-003
1.911141e+003,-3.009550e-003
1.913070e+003,-2.933730e-003
1.914998e+003,-2.867738e-003
1.916927e+003,-2.995532e-003
1.918855e+003,-3.077428e-003
1.920784e+003,-2.981218e-003
1.922712e+003,-3.051305e-003
1.924641e+003,-3.050482e-003
1.926569e+003,-2.997210e-003
1.928498e+003,-3.029753e-003
1.930426e+003,-3.056503e-003
1.932355e+003,-3.048903e-003
1.934283e+003,-3.130000e-003
1.936212e+003,-3.159605e-003
1.938140e+003,-3.118025e-003
1.940069e+003,-3.141019e-003
1.941997e+003,-3.180525e-003
1.943926e+003,-3.131447e-003
1.945854e+003,-3.168453e-003
1.947783e+003,-3.267056e-003
1.949711e+003,-3.241700e-003
1.951640e+003,-3.184702e-003
1.953568e+003,-3.213416e-003
1.955497e+003,-3.252783e-003
1.957425e+003,-3.279914e-003
1.959354e+003,-3.318815e-003
1.961282e+003,-3.278895e-003
1.963211e+003,-3.295830e-003
1.965139e+003,-3.271134e-003
1.967068e+003,-3.269128e-003
1.968996e+003,-3.291062e-003
1.970925e+003,-3.228479e-003
1.972853e+003,-3.218415e-003
1.974782e+003,-3.182827e-003
1.976710e+003,-3.200326e-003
1.978639e+003,-3.201806e-003
1.980567e+003,-3.149638e-003
1.982496e+003,-3.130263e-003
1.984424e+003,-3.193221e-003
1.986353e+003,-3.125427e-003
1.988281e+003,-3.027615e-003
1.990210e+003,-2.952127e-003
1.992138e+003,-2.925140e-003
1.994067e+003,-2.896473e-003
1.995995e+003,-2.888343e-003
1.997924e+003,-2.854737e-003
1.999852e+003,-2.783334e-003
2.001781e+003,-2.774280e-003
2.003709e+003,-2.782972e-003
2.005638e+003,-2.746196e-003
2.007566e+003,-2.749686e-003
2.009495e+003,-2.824123e-003
2.011423e+003,-2.815827e-003
2.013352e+003,-2.664995e-003
2.015280e+003,-2.657124e-003
2.017208e+003,-2.721534e-003
2.019137e+003,-2.730754e-003
2.021066e+003,-2.704840e-003
2.022994e+003,-2.637562e-003
2.024922e+003,-2.598567e-003
2.026851e+003,-2.610193e-003
2.028780e+003,-2.655181e-003
2.030708e+003,-2.627550e-003
2.032636e+003,-2.567079e-003
2.034565e+003,-2.544515e-003
2.036494e+003,-2.577520e-003
2.038422e+003,-2.536642e-003
2.040350e+003,-2.513319e-003
2.042279e+003,-2.519150e-003
2.044208e+003,-2.534863e-003
2.046136e+003,-2.568297e-003
2.048064e+003,-2.545899e-003
2.049993e+003,-2.417643e-003
2.051921e+003,-2.399157e-003
2.053850e+003,-2.463507e-003
2.055778e+003,-2.528868e-003
2.057707e+003,-2.502613e-003
2.059635e+003,-2.413656e-003
2.061564e+003,-2.371082e-003
2.063492e+003,-2.369137e-003
2.065421e+003,-2.444958e-003
2.067349e+003,-2.431317e-003
2.069278e+003,-2.424068e-003
2.071206e+003,-2.443903e-003
2.073135e+003,-2.387097e-003
2.075063e+003,-2.307180e-003
2.076992e+003,-2.296798e-003
2.078920e+003,-2.264068e-003
2.080849e+003,-2.163029e-003
2.082777e+003,-2.128673e-003
2.084706e+003,-2.119243e-003
2.086634e+003,-2.085741e-003
2.088563e+003,-2.104966e-003
2.090491e+003,-2.043135e-003
2.092420e+003,-1.896389e-003
2.094348e+003,-1.865147e-003
2.096277e+003,-1.874846e-003
2.098205e+003,-1.870953e-003
2.100134e+003,-1.832879e-003
2.102062e+003,-1.735172e-003
2.103991e+003,-1.704908e-003
2.105919e+003,-1.700320e-003
2.107848e+003,-1.691211e-003
2.109776e+003,-1.623380e-003
2.111705e+003,-1.502214e-003
2.113633e+003,-1.361495e-003
2.115562e+003,-1.305439e-003
2.117490e+003,-1.261699e-003
2.119419e+003,-1.201037e-003
2.121347e+003,-1.258659e-003
2.123276e+003,-1.319214e-003
2.125204e+003,-1.317463e-003
2.127133e+003,-1.304646e-003
2.129061e+003,-1.214254e-003
2.130990e+003,-1.086827e-003
2.132918e+003,-9.999598e-004
2.134847e+003,-1.014108e-003
2.136775e+003,-1.048420e-003
2.138704e+003,-1.060451e-003
2.140632e+003,-1.003365e-003
2.142561e+003,-1.063955e-003
2.144489e+003,-1.120208e-003
2.146418e+003,-1.051362e-003
2.148346e+003,-9.739755e-004
2.150275e+003,-9.491800e-004
2.152203e+003,-9.491469e-004
2.154132e+003,-9.311610e-004
2.156060e+003,-1.007133e-003
2.157989e+003,-1.061840e-003
2.159917e+003,-1.022108e-003
2.161846e+003,-1.011596e-003
2.163774e+003,-1.064021e-003
2.165703e+003,-1.068814e-003
2.167631e+003,-9.773476e-004
2.169560e+003,-8.953522e-004
2.171488e+003,-8.411870e-004
2.173417e+003,-8.890366e-004
2.175345e+003,-9.376744e-004
2.177274e+003,-9.791328e-004
2.179202e+003,-9.133396e-004
2.181131e+003,-8.646661e-004
2.183059e+003,-9.321198e-004
2.184988e+003,-1.003927e-003
2.186916e+003,-1.011794e-003
2.188845e+003,-1.041478e-003
2.190773e+003,-9.664379e-004
2.192702e+003,-8.609293e-004
2.194630e+003,-8.990556e-004
2.196559e+003,-9.768187e-004
2.198487e+003,-1.012786e-003
2.200416e+003,-1.004753e-003
2.202344e+003,-9.574122e-004
2.204273e+003,-8.955175e-004
2.206201e+003,-8.303069e-004
2.208130e+003,-8.236927e-004
2.210058e+003,-8.925747e-004
2.211987e+003,-9.249451e-004
2.213915e+003,-8.762728e-004
2.215844e+003,-8.858292e-004
2.217772e+003,-8.660549e-004
2.219701e+003,-7.979625e-004
2.221629e+003,-8.806377e-004
2.223558e+003,-9.022298e-004
2.225486e+003,-8.849032e-004
2.227415e+003,-8.581516e-004
2.229343e+003,-8.707175e-004
2.231272e+003,-8.303069e-004
2.233200e+003,-8.502481e-004
2.235129e+003,-8.601688e-004
2.237057e+003,-8.723047e-004
2.238986e+003,-9.344011e-004
2.240914e+003,-1.034967e-003
2.242843e+003,-1.031529e-003
2.244771e+003,-9.520894e-004
2.246700e+003,-9.991003e-004
2.248628e+003,-9.523869e-004
2.250557e+003,-9.078509e-004
2.252485e+003,-9.904059e-004
2.254414e+003,-1.000257e-003
2.256342e+003,-9.749012e-004
2.258271e+003,-1.009811e-003
2.260199e+003,-1.044024e-003
2.262128e+003,-1.093966e-003
2.264056e+003,-1.033215e-003
2.265985e+003,-9.640575e-004
2.267913e+003,-1.126288e-003
2.269842e+003,-1.216633e-003
2.271770e+003,-1.227074e-003
2.273699e+003,-1.258759e-003
2.275627e+003,-1.233153e-003
2.277556e+003,-1.287270e-003
2.279484e+003,-1.362255e-003
2.281413e+003,-1.374377e-003
2.283341e+003,-1.438218e-003
2.285270e+003,-1.508224e-003
2.287198e+003,-1.407405e-003
2.289127e+003,-1.373716e-003
2.291055e+003,-1.357036e-003
2.292984e+003,-1.271015e-003
2.294912e+003,-1.334607e-003
2.296841e+003,-1.372329e-003
2.298769e+003,-1.376358e-003
2.300698e+003,-1.367474e-003
2.302626e+003,-1.443502e-003
2.304555e+003,-1.456117e-003
2.306483e+003,-1.434981e-003
2.308412e+003,-1.348018e-003
2.310340e+003,-1.290771e-003
2.312269e+003,-1.404102e-003
2.314197e+003,-1.493794e-003
2.316125e+003,-1.444063e-003
2.318054e+003,-1.491252e-003
2.319983e+003,-1.570560e-003
2.321911e+003,-1.594957e-003
2.323840e+003,-1.450965e-003
2.325768e+003,-1.418303e-003
2.327697e+003,-1.521795e-003
2.329625e+003,-1.614335e-003
2.331553e+003,-1.697812e-003
2.333482e+003,-1.593504e-003
2.335411e+003,-1.558542e-003
2.337339e+003,-1.553260e-003
2.339268e+003,-1.435840e-003
2.341196e+003,-1.407834e-003
2.343125e+003,-1.413713e-003
2.345053e+003,-1.363080e-003
2.346981e+003,-1.195519e-003
2.348910e+003,-1.160327e-003
2.350839e+003,-1.212470e-003
2.352767e+003,-1.343691e-003
2.354696e+003,-1.497493e-003
2.356624e+003,-1.528101e-003
2.358552e+003,-1.596805e-003
2.360481e+003,-1.751837e-003
2.362409e+003,-1.752101e-003
2.364338e+003,-1.682860e-003
2.366267e+003,-1.546822e-003
2.368195e+003,-1.494983e-003
2.370124e+003,-1.453145e-003
2.372052e+003,-1.351355e-003
2.373980e+003,-1.162574e-003
2.375909e+003,-1.030967e-003
2.377838e+003,-9.330786e-004
2.379766e+003,-7.669387e-004
2.381695e+003,-5.756205e-004
2.383623e+003,-4.592930e-004
2.385552e+003,-3.435635e-004
2.387480e+003,-2.745613e-004
2.389408e+003,-2.436656e-004
2.391337e+003,-2.299225e-004
2.393266e+003,-1.878956e-004
2.395194e+003,-1.003845e-004
2.397123e+003,-8.511301e-005
2.399051e+003,-1.360933e-004
2.400979e+003,-1.626908e-004
2.402908e+003,-3.091296e-005
2.404836e+003,1.544074e-005
2.406765e+003,-4.519248e-005
2.408694e+003,-1.343378e-004
2.410622e+003,-1.363583e-004
2.412551e+003,-7.355694e-006
2.414479e+003,6.875858e-005
2.416407e+003,5.308398e-005
2.418336e+003,2.766780e-005
2.420264e+003,1.815783e-005
2.422193e+003,2.978852e-005
2.424122e+003,7.594986e-005
2.426050e+003,1.635473e-004
2.427979e+003,2.572626e-004
2.429907e+003,4.312548e-004
2.431835e+003,5.751901e-004
2.433764e+003,5.228384e-004
2.435692e+003,5.257577e-004
2.437621e+003,5.671611e-004
2.439550e+003,6.787508e-004
2.441478e+003,7.409123e-004
2.443406e+003,7.048356e-004
2.445335e+003,7.164516e-004
2.447263e+003,7.615574e-004
2.449192e+003,7.702206e-004
2.451121e+003,8.323953e-004
2.453049e+003,9.566717e-004
2.454978e+003,1.034250e-003
2.456906e+003,9.643427e-004
2.458834e+003,9.657042e-004
2.460763e+003,1.109883e-003
2.462691e+003,1.215665e-003
2.464620e+003,1.182771e-003
2.466549e+003,1.181177e-003
2.468477e+003,1.191476e-003
2.470406e+003,1.168086e-003
2.472334e+003,1.185961e-003
2.474262e+003,1.292858e-003
2.476191e+003,1.412745e-003
2.478119e+003,1.404003e-003
2.480048e+003,1.416568e-003
2.481977e+003,1.405399e-003
2.483905e+003,1.346931e-003
2.485833e+003,1.290299e-003
2.487762e+003,1.326989e-003
2.489690e+003,1.500480e-003
2.491619e+003,1.492367e-003
2.493547e+003,1.500779e-003
2.495476e+003,1.573234e-003
2.497405e+003,1.592854e-003
2.499333e+003,1.636089e-003
2.501261e+003,1.745559e-003
2.503190e+003,1.625612e-003
2.505118e+003,1.559700e-003
2.507047e+003,1.609017e-003
2.508975e+003,1.635856e-003
2.510904e+003,1.652686e-003
2.512833e+003,1.710829e-003
2.514761e+003,1.774003e-003
2.516689e+003,1.785814e-003
2.518618e+003,1.763290e-003
2.520546e+003,1.752645e-003
2.522475e+003,1.676201e-003
2.524403e+003,1.685615e-003
2.526332e+003,1.749617e-003
2.528260e+003,1.786080e-003
2.530189e+003,1.847768e-003
2.532117e+003,1.901178e-003
2.534046e+003,1.918983e-003
2.535974e+003,1.982121e-003
2.537903e+003,1.998665e-003
2.539831e+003,1.995070e-003
2.541760e+003,1.993539e-003
2.543688e+003,1.958955e-003
2.545617e+003,1.941548e-003
2.547545e+003,2.129369e-003
2.549474e+003,2.227506e-003
2.551402e+003,2.106861e-003
2.553331e+003,2.089880e-003
2.555259e+003,2.105495e-003
2.557188e+003,2.120479e-003
2.559116e+003,2.052460e-003
2.561045e+003,2.134163e-003
2.562973e+003,2.252085e-003
2.564902e+003,2.186177e-003
2.566830e+003,2.144253e-003
2.568759e+003,2.223643e-003
2.570687e+003,2.295485e-003
2.572616e+003,2.251186e-003
2.574544e+003,2.280996e-003
2.576473e+003,2.291621e-003
2.578401e+003,2.266507e-003
2.580330e+003,2.280230e-003
2.582258e+003,2.253351e-003
2.584187e+003,2.313340e-003
2.586115e+003,2.385397e-003
2.588044e+003,2.414650e-003
2.589972e+003,2.412751e-003
2.591901e+003,2.394426e-003
2.593829e+003,2.497222e-003
2.595758e+003,2.474895e-003
2.597686e+003,2.372204e-003
2.599615e+003,2.507186e-003
2.601543e+003,2.596342e-003
2.603472e+003,2.479793e-003
2.605400e+003,2.508886e-003
2.607329e+003,2.522950e-003
2.609257e+003,2.530315e-003
2.611186e+003,2.515051e-003
2.613114e+003,2.513185e-003
2.615043e+003,2.540913e-003
2.616971e+003,2.600475e-003
2.618900e+003,2.659846e-003
2.620828e+003,2.645711e-003
2.622757e+003,2.758103e-003
2.624685e+003,2.856148e-003
2.626614e+003,2.758870e-003
2.628542e+003,2.687484e-003
2.630471e+003,2.662379e-003
2.632399e+003,2.703320e-003
2.634328e+003,2.666880e-003
2.636256e+003,2.633910e-003
2.638185e+003,2.711189e-003
2.640113e+003,2.879396e-003
2.642042e+003,2.900410e-003
2.643970e+003,2.859917e-003
2.645899e+003,2.892271e-003
2.647827e+003,3.008530e-003
2.649756e+003,3.081604e-003
2.651684e+003,3.091615e-003
2.653613e+003,3.123252e-003
2.655541e+003,3.206359e-003
2.657470e+003,3.224051e-003
2.659398e+003,3.190471e-003
2.661327e+003,3.212167e-003
2.663255e+003,3.220279e-003
2.665184e+003,3.242244e-003
2.667112e+003,3.333754e-003
2.669041e+003,3.330950e-003
2.670969e+003,3.316058e-003
2.672898e+003,3.423281e-003
2.674826e+003,3.490345e-003
2.676755e+003,3.492550e-003
2.678683e+003,3.489410e-003
2.680612e+003,3.498996e-003
2.682540e+003,3.565371e-003
2.684469e+003,3.624072e-003
2.686397e+003,3.725822e-003
2.688326e+003,3.759978e-003
2.690254e+003,3.672087e-003
2.692183e+003,3.634697e-003
2.694111e+003,3.675662e-003
2.696040e+003,3.734812e-003
2.697968e+003,3.796377e-003
2.699897e+003,3.867912e-003
2.701825e+003,3.917425e-003
2.703754e+003,3.948320e-003
2.705682e+003,3.959822e-003
2.707611e+003,3.985737e-003
2.709539e+003,4.110852e-003
2.711468e+003,4.117910e-003
2.713396e+003,4.204821e-003
2.715325e+003,4.187257e-003
2.717253e+003,4.072588e-003
2.719182e+003,4.083692e-003
2.721110e+003,4.193212e-003
2.723039e+003,4.293255e-003
2.724967e+003,4.396133e-003
2.726896e+003,4.486582e-003
2.728824e+003,4.550530e-003
2.730753e+003,4.549559e-003
2.732681e+003,4.553376e-003
2.734610e+003,4.556557e-003
2.736538e+003,4.618840e-003
2.738467e+003,4.622524e-003
2.740395e+003,4.727256e-003
2.742324e+003,4.813551e-003
2.744252e+003,4.863173e-003
2.746181e+003,4.924261e-003
2.748109e+003,5.020216e-003
2.750038e+003,5.128999e-003
2.751966e+003,5.229795e-003
2.753895e+003,5.274836e-003
2.755823e+003,5.240829e-003
2.757752e+003,5.280538e-003
2.759680e+003,5.441993e-003
2.761609e+003,5.679873e-003
2.763537e+003,5.879091e-003
2.765466e+003,6.005055e-003
2.767394e+003,6.166444e-003
2.769323e+003,6.438955e-003
2.771251e+003,6.692490e-003
2.773180e+003,6.980685e-003
2.775108e+003,7.231606e-003
2.777037e+003,7.470098e-003
2.778965e+003,7.779723e-003
2.780894e+003,8.134198e-003
2.782822e+003,8.473388e-003
2.784750e+003,8.865830e-003
2.786679e+003,9.333235e-003
2.788608e+003,9.766882e-003
2.790536e+003,1.012319e-002
2.792465e+003,1.049754e-002
2.794393e+003,1.082098e-002
2.796322e+003,1.110618e-002
2.798250e+003,1.140420e-002
2.800178e+003,1.178888e-002
2.802107e+003,1.215060e-002
2.804036e+003,1.242055e-002
2.805964e+003,1.262943e-002
2.807893e+003,1.277242e-002
2.809821e+003,1.270793e-002
2.811750e+003,1.266139e-002
2.813678e+003,1.265000e-002
2.815606e+003,1.257513e-002
2.817535e+003,1.245843e-002
2.819464e+003,1.219265e-002
2.821392e+003,1.203268e-002
2.823321e+003,1.187914e-002
2.825249e+003,1.155505e-002
2.827177e+003,1.136283e-002
2.829106e+003,1.115503e-002
2.831034e+003,1.068906e-002
2.832963e+003,1.027159e-002
2.834892e+003,1.001447e-002
2.836820e+003,9.646428e-003
2.838749e+003,9.307574e-003
2.840677e+003,8.826841e-003
2.842605e+003,8.302663e-003
2.844534e+003,7.852154e-003
2.846462e+003,7.308696e-003
2.848391e+003,6.812666e-003
2.850320e+003,6.574299e-003
2.852248e+003,6.546143e-003
2.854177e+003,6.467271e-003
2.856105e+003,6.249833e-003
2.858033e+003,6.169065e-003
2.859962e+003,6.238606e-003
2.861890e+003,6.217161e-003
2.863819e+003,6.243648e-003
2.865748e+003,6.358051e-003
2.867676e+003,6.369348e-003
2.869604e+003,6.372105e-003
2.871533e+003,6.381587e-003
2.873461e+003,6.439627e-003
2.875390e+003,6.598856e-003
2.877319e+003,6.706892e-003
2.879247e+003,6.917758e-003
2.881176e+003,7.049042e-003
2.883104e+003,6.955399e-003
2.885032e+003,6.820239e-003
2.886961e+003,6.739702e-003
2.888889e+003,6.632532e-003
2.890818e+003,6.623247e-003
2.892747e+003,6.500197e-003
2.894675e+003,6.271313e-003
2.896604e+003,6.191886e-003
2.898532e+003,6.161940e-003
2.900460e+003,6.111431e-003
2.902389e+003,6.034015e-003
2.904317e+003,5.949660e-003
2.906246e+003,5.847622e-003
2.908175e+003,5.774249e-003
2.910103e+003,5.630225e-003
2.912031e+003,5.440047e-003
2.913960e+003,5.263332e-003
2.915888e+003,5.102379e-003
2.917817e+003,5.029367e-003
2.919745e+003,5.077102e-003
2.921674e+003,5.160852e-003
2.923603e+003,5.106637e-003
2.925531e+003,5.121388e-003
2.927459e+003,5.237140e-003
2.929388e+003,5.258301e-003
2.931316e+003,5.376873e-003
2.933245e+003,5.621666e-003
2.935173e+003,5.740673e-003
2.937102e+003,5.741244e-003
2.939031e+003,5.819078e-003
2.940959e+003,5.842249e-003
2.942887e+003,5.744165e-003
2.944816e+003,5.670876e-003
2.946744e+003,5.568065e-003
2.948673e+003,5.347118e-003
2.950601e+003,5.020283e-003
2.952530e+003,4.666765e-003
2.954458e+003,4.244268e-003
2.956387e+003,3.941131e-003
2.958315e+003,3.575427e-003
2.960244e+003,3.215238e-003
2.962172e+003,2.840173e-003
2.964101e+003,2.598309e-003
2.966029e+003,2.374703e-003
2.967958e+003,2.113420e-003
2.969886e+003,1.883807e-003
2.971815e+003,1.652752e-003
2.973743e+003,1.513380e-003
2.975672e+003,1.370696e-003
2.977600e+003,1.201544e-003
2.979529e+003,1.190612e-003
2.981457e+003,1.138353e-003
2.983386e+003,9.852640e-004
2.985314e+003,7.563131e-004
2.987243e+003,6.072411e-004
2.989171e+003,5.287102e-004
2.991100e+003,5.459944e-004
2.993028e+003,4.810081e-004
2.994957e+003,4.820695e-004
2.996885e+003,3.909919e-004
2.998814e+003,3.498707e-004
3.000742e+003,2.722152e-004
3.002671e+003,2.058774e-004
3.004599e+003,2.202978e-004
3.006528e+003,2.475818e-004
3.008456e+003,2.401225e-004
3.010385e+003,1.444553e-004
3.012313e+003,1.962973e-004
3.014242e+003,2.107505e-004
3.016170e+003,1.559899e-004
3.018099e+003,2.036564e-004
3.020027e+003,3.083554e-004
3.021956e+003,2.485101e-004
3.023884e+003,9.338176e-005
3.025813e+003,-3.343096e-005
3.027741e+003,-1.179080e-004
3.029670e+003,-3.863257e-005
3.031598e+003,5.904887e-005
3.033527e+003,3.840405e-005
3.035455e+003,1.212723e-005
3.037384e+003,-6.632928e-005
3.039312e+003,-1.928967e-004
3.041241e+003,-2.337971e-004
3.043169e+003,-2.250543e-004
3.045098e+003,-2.348237e-004
3.047026e+003,-2.132977e-004
3.048955e+003,-2.169075e-004
3.050883e+003,-2.252530e-004
3.052812e+003,-2.478713e-004
3.054740e+003,-3.297573e-004
3.056669e+003,-4.262259e-004
3.058597e+003,-4.167256e-004
3.060526e+003,-3.323398e-004
3.062454e+003,-3.117126e-004
3.064383e+003,-3.293600e-004
3.066311e+003,-4.590614e-004
3.068240e+003,-5.223090e-004
3.070168e+003,-4.983150e-004
3.072097e+003,-4.625036e-004
3.074025e+003,-4.269541e-004
3.075954e+003,-4.080196e-004
3.077882e+003,-4.054376e-004
3.079811e+003,-5.332300e-004
3.081739e+003,-6.175768e-004
3.083668e+003,-5.840584e-004
3.085596e+003,-5.785655e-004
3.087525e+003,-6.630028e-004
3.089453e+003,-6.605877e-004
3.091382e+003,-6.301827e-004
3.093310e+003,-6.277013e-004
3.095239e+003,-6.367337e-004
3.097167e+003,-6.373624e-004
3.099096e+003,-6.856975e-004
3.101024e+003,-8.331510e-004
3.102953e+003,-8.195587e-004
3.104881e+003,-7.907855e-004
3.106810e+003,-7.648880e-004
3.108738e+003,-6.753428e-004
3.110667e+003,-7.601251e-004
3.112595e+003,-8.277274e-004
3.114524e+003,-8.260077e-004
3.116452e+003,-8.908552e-004
3.118381e+003,-9.516265e-004
3.120309e+003,-1.028951e-003
3.122238e+003,-1.042668e-003
3.124166e+003,-1.060650e-003
3.126095e+003,-1.035396e-003
3.128023e+003,-9.909680e-004
3.129952e+003,-9.363188e-004
3.131880e+003,-9.129098e-004
3.133809e+003,-8.713127e-004
3.135737e+003,-8.985596e-004
3.137666e+003,-8.726023e-004
3.139594e+003,-7.971356e-004
3.141523e+003,-7.814256e-004
3.143451e+003,-8.025597e-004
3.145380e+003,-9.027919e-004
3.147308e+003,-9.023621e-004
3.149237e+003,-9.323512e-004
3.151165e+003,-1.056353e-003
3.153094e+003,-1.076548e-003
3.155022e+003,-1.027066e-003
3.156951e+003,-9.766204e-004
3.158879e+003,-8.915827e-004
3.160808e+003,-8.453869e-004
3.162736e+003,-8.959805e-004
3.164665e+003,-9.634955e-004
3.166593e+003,-8.834153e-004
3.168522e+003,-7.849645e-004
3.170450e+003,-8.116877e-004
3.172379e+003,-7.889004e-004
3.174307e+003,-7.575782e-004
3.176236e+003,-8.700892e-004
3.178164e+003,-9.654130e-004
3.180093e+003,-9.681900e-004
3.182021e+003,-9.592637e-004
3.183950e+003,-9.754302e-004
3.185878e+003,-9.637930e-004
3.187807e+003,-9.361535e-004
3.189735e+003,-9.837942e-004
3.191664e+003,-9.987366e-004
3.193592e+003,-9.783725e-004
3.195521e+003,-9.675288e-004
3.197449e+003,-9.178694e-004
3.199378e+003,-8.609955e-004
3.201306e+003,-7.433883e-004
3.203235e+003,-7.825501e-004
3.205163e+003,-8.563990e-004
3.207092e+003,-9.128767e-004
3.209020e+003,-8.634094e-004
3.210948e+003,-6.716375e-004
3.212877e+003,-6.048381e-004
3.214806e+003,-6.042094e-004
3.216734e+003,-6.668405e-004
3.218663e+003,-8.006414e-004
3.220591e+003,-6.848043e-004
3.222520e+003,-4.688916e-004
3.224448e+003,-4.055369e-004
3.226376e+003,-2.681041e-004
3.228305e+003,-1.028690e-004
3.230234e+003,-1.007821e-004
3.232162e+003,-1.348346e-004
3.234091e+003,-1.509987e-004
3.236019e+003,-1.672947e-004
3.237948e+003,-7.613535e-005
3.239876e+003,1.035231e-004
3.241804e+003,2.443660e-004
3.243733e+003,2.183088e-004
3.245662e+003,2.711874e-004
3.247590e+003,2.536157e-004
3.249519e+003,3.613445e-004
3.251447e+003,4.403758e-004
3.253375e+003,3.353465e-004
3.255304e+003,3.270235e-004
3.257232e+003,4.963995e-004
3.259161e+003,6.126495e-004
3.261090e+003,5.482172e-004
3.263018e+003,5.771475e-004
3.264947e+003,6.482541e-004
3.266875e+003,6.363745e-004
3.268803e+003,7.343739e-004
3.270732e+003,7.671669e-004
3.272660e+003,8.384374e-004
3.274589e+003,9.477724e-004
3.276518e+003,1.002334e-003
3.278446e+003,9.247941e-004
3.280375e+003,7.344402e-004
3.282303e+003,8.713047e-004
3.284231e+003,8.616766e-004
3.286160e+003,7.935227e-004
3.288088e+003,8.051741e-004
3.290017e+003,7.399166e-004
3.291946e+003,7.117056e-004
3.293874e+003,5.903526e-004
3.295802e+003,5.118912e-004
3.297731e+003,3.844919e-004
3.299659e+003,2.952584e-004
3.301588e+003,2.268949e-004
3.303516e+003,1.165149e-004
3.305445e+003,1.189012e-004
3.307374e+003,8.711813e-005
3.309302e+003,-1.281767e-004
3.311230e+003,-2.303199e-004
3.313159e+003,-3.308499e-004
3.315087e+003,-4.216909e-004
3.317016e+003,-4.695205e-004
3.318944e+003,-5.966653e-004
3.320873e+003,-5.441507e-004
3.322802e+003,-6.199921e-004
3.324730e+003,-8.673115e-004
3.326658e+003,-9.401540e-004
3.328587e+003,-9.556931e-004
3.330515e+003,-9.157533e-004
3.332444e+003,-1.038173e-003
3.334372e+003,-1.160525e-003
3.336301e+003,-1.173181e-003
3.338229e+003,-1.064847e-003
3.340158e+003,-1.035198e-003
3.342086e+003,-1.159732e-003
3.344015e+003,-1.165151e-003
3.345943e+003,-1.117299e-003
3.347872e+003,-1.206786e-003
3.349800e+003,-1.249012e-003
3.351729e+003,-1.302631e-003
3.353657e+003,-1.525262e-003
3.355586e+003,-1.655762e-003
3.357514e+003,-1.779359e-003
3.359443e+003,-1.776554e-003
3.361371e+003,-1.691145e-003
3.363300e+003,-1.656653e-003
3.365229e+003,-1.783517e-003
3.367157e+003,-1.903416e-003
3.369085e+003,-1.981857e-003
3.371014e+003,-2.130651e-003
3.372942e+003,-2.197843e-003
3.374871e+003,-2.196755e-003
3.376799e+003,-2.336084e-003
3.378728e+003,-2.520138e-003
3.380656e+003,-2.527649e-003
3.382585e+003,-2.616583e-003
3.384513e+003,-2.747579e-003
3.386442e+003,-2.806115e-003
3.388370e+003,-2.736219e-003
3.390299e+003,-2.723543e-003
3.392227e+003,-2.755250e-003
3.394156e+003,-2.813687e-003
3.396084e+003,-2.967034e-003
3.398013e+003,-3.048640e-003
3.399941e+003,-2.942155e-003
3.401870e+003,-2.935376e-003
3.403798e+003,-2.972431e-003
3.405727e+003,-3.061998e-003
3.407655e+003,-3.032846e-003
3.409584e+003,-3.044198e-003
3.411512e+003,-3.210949e-003
3.413441e+003,-3.340681e-003
3.415369e+003,-3.249396e-003
3.417298e+003,-3.219862e-003
3.419226e+003,-3.280736e-003
3.421155e+003,-3.425668e-003
3.423083e+003,-3.329140e-003
3.425012e+003,-3.233807e-003
3.426940e+003,-3.360770e-003
3.428869e+003,-3.300006e-003
3.430797e+003,-3.192004e-003
3.432726e+003,-3.253507e-003
3.434654e+003,-3.457653e-003
3.436583e+003,-3.622569e-003
3.438511e+003,-3.450158e-003
3.440440e+003,-3.299250e-003
3.442368e+003,-3.197629e-003
3.444297e+003,-3.189110e-003
3.446225e+003,-3.305958e-003
3.448154e+003,-3.465509e-003
3.450082e+003,-3.469979e-003
3.452011e+003,-3.503111e-003
3.453939e+003,-3.597596e-003
3.455868e+003,-3.791332e-003
3.457796e+003,-3.825524e-003
3.459725e+003,-3.668208e-003
3.461653e+003,-3.623029e-003
3.463582e+003,-3.587015e-003
3.465510e+003,-3.575020e-003
3.467439e+003,-3.539363e-003
3.469367e+003,-3.581001e-003
3.471296e+003,-3.724880e-003
3.473224e+003,-3.768241e-003
3.475153e+003,-3.809758e-003
3.477081e+003,-3.711213e-003
3.479010e+003,-3.649973e-003
3.480938e+003,-3.719229e-003
3.482867e+003,-3.815539e-003
3.484795e+003,-3.744064e-003
3.486724e+003,-3.745904e-003
3.488652e+003,-3.886017e-003
3.490581e+003,-3.873965e-003
3.492509e+003,-3.739662e-003
3.494438e+003,-3.603248e-003
3.496366e+003,-3.527203e-003
3.498295e+003,-3.631638e-003
3.500223e+003,-3.791694e-003
3.502152e+003,-3.830582e-003
3.504080e+003,-3.915013e-003
3.506009e+003,-3.845229e-003
3.507937e+003,-3.752112e-003
3.509866e+003,-3.762887e-003
3.511794e+003,-3.692619e-003
3.513723e+003,-3.751291e-003
3.515651e+003,-3.879449e-003
3.517580e+003,-3.903159e-003
3.519508e+003,-3.760784e-003
3.521437e+003,-3.678097e-003
3.523365e+003,-3.867233e-003
3.525294e+003,-4.012363e-003
3.527222e+003,-4.003794e-003
3.529151e+003,-3.906541e-003
3.531079e+003,-3.860008e-003
3.533008e+003,-3.933894e-003
3.534936e+003,-3.947618e-003
3.536865e+003,-3.900597e-003
3.538793e+003,-3.710195e-003
3.540722e+003,-3.511164e-003
3.542650e+003,-3.593587e-003
3.544579e+003,-3.649611e-003
3.546507e+003,-3.698467e-003
3.548436e+003,-3.728033e-003
3.550364e+003,-3.729183e-003
3.552293e+003,-3.798657e-003
3.554221e+003,-3.870780e-003
3.556150e+003,-3.852192e-003
3.558078e+003,-3.665119e-003
3.560007e+003,-3.693440e-003
3.561935e+003,-3.691239e-003
3.563864e+003,-3.764234e-003
3.565792e+003,-3.849532e-003
3.567721e+003,-3.770967e-003
3.569649e+003,-3.879022e-003
3.571578e+003,-3.987084e-003
3.573506e+003,-3.879384e-003
3.575435e+003,-3.577846e-003
3.577363e+003,-3.402820e-003
3.579292e+003,-3.421559e-003
3.581220e+003,-3.636173e-003
3.583149e+003,-3.831403e-003
3.585077e+003,-3.791891e-003
3.587006e+003,-3.928147e-003
3.588934e+003,-3.873440e-003
3.590863e+003,-3.602788e-003
3.592791e+003,-3.708289e-003
3.594720e+003,-3.888119e-003
3.596648e+003,-3.778391e-003
3.598577e+003,-3.593028e-003
3.600505e+003,-3.519183e-003
3.602434e+003,-3.575053e-003
3.604362e+003,-3.488419e-003
3.606291e+003,-3.605910e-003
3.608219e+003,-3.818232e-003
3.610148e+003,-3.667124e-003
3.612076e+003,-3.639130e-003
3.614005e+003,-3.716437e-003
3.615933e+003,-3.897149e-003
3.617862e+003,-3.805554e-003
3.619790e+003,-3.347783e-003
3.621719e+003,-3.157401e-003
3.623647e+003,-3.232656e-003
3.625576e+003,-3.422019e-003
3.627504e+003,-3.772347e-003
3.629433e+003,-3.848875e-003
3.631361e+003,-3.573147e-003
3.633290e+003,-3.614289e-003
3.635218e+003,-3.720280e-003
3.637146e+003,-3.735589e-003
3.639075e+003,-3.539790e-003
3.641004e+003,-3.291687e-003
3.642932e+003,-3.305958e-003
3.644861e+003,-3.630817e-003
3.646789e+003,-3.968501e-003
3.648718e+003,-4.240467e-003
3.650646e+003,-4.151570e-003
3.652574e+003,-3.739400e-003
3.654503e+003,-3.579719e-003
3.656432e+003,-3.643040e-003
3.658360e+003,-3.825294e-003
3.660289e+003,-3.878891e-003
3.662217e+003,-3.893242e-003
3.664146e+003,-3.818528e-003
3.666074e+003,-3.760226e-003
3.668002e+003,-3.957009e-003
3.669931e+003,-4.247095e-003
3.671860e+003,-4.349357e-003
3.673788e+003,-4.492751e-003
3.675717e+003,-4.493407e-003
3.677645e+003,-4.071649e-003
3.679573e+003,-3.924273e-003
3.681502e+003,-3.704085e-003
3.683430e+003,-3.708289e-003
3.685359e+003,-3.828480e-003
3.687288e+003,-4.041317e-003
3.689216e+003,-4.118126e-003
3.691145e+003,-4.058059e-003
3.693073e+003,-3.966399e-003
3.695001e+003,-3.989841e-003
3.696930e+003,-3.906114e-003
3.698858e+003,-3.830746e-003
3.700787e+003,-3.847988e-003
3.702716e+003,-3.774843e-003
3.704644e+003,-3.591484e-003
3.706573e+003,-3.577518e-003
3.708501e+003,-3.663017e-003
3.710429e+003,-3.617476e-003
3.712358e+003,-3.632361e-003
3.714286e+003,-3.591582e-003
3.716215e+003,-3.758222e-003
3.718144e+003,-3.753656e-003
3.720072e+003,-3.589841e-003
3.722000e+003,-3.586259e-003
3.723929e+003,-3.732403e-003
3.725857e+003,-3.713579e-003
3.727786e+003,-3.391182e-003
3.729714e+003,-3.548401e-003
3.731643e+003,-3.741436e-003
3.733572e+003,-3.917147e-003
3.735500e+003,-4.165452e-003
3.737428e+003,-4.012691e-003
3.739357e+003,-3.619744e-003
3.741285e+003,-3.427114e-003
3.743214e+003,-3.923977e-003
3.745142e+003,-3.812879e-003
3.747071e+003,-3.529142e-003
3.749000e+003,-3.617016e-003
3.750928e+003,-3.590367e-003
3.752856e+003,-3.206739e-003
3.754785e+003,-3.087660e-003
3.756713e+003,-3.155822e-003
3.758642e+003,-3.165723e-003
3.760570e+003,-3.083186e-003
3.762499e+003,-2.983456e-003
3.764427e+003,-2.892622e-003
3.766356e+003,-2.817078e-003
3.768284e+003,-2.771646e-003
3.770213e+003,-2.883900e-003
3.772141e+003,-2.983653e-003
3.774070e+003,-2.778560e-003
3.775998e+003,-2.588521e-003
3.777927e+003,-2.835809e-003
3.779855e+003,-3.017020e-003
3.781784e+003,-2.792025e-003
3.783712e+003,-2.581176e-003
3.785641e+003,-2.487458e-003
3.787569e+003,-2.570043e-003
3.789498e+003,-2.567474e-003
3.791426e+003,-2.589509e-003
3.793355e+003,-2.696114e-003
3.795283e+003,-2.648496e-003
3.797212e+003,-2.664171e-003
3.799140e+003,-2.937054e-003
3.801069e+003,-2.993624e-003
3.802997e+003,-2.852926e-003
3.804926e+003,-3.227591e-003
3.806854e+003,-3.187531e-003
3.808783e+003,-2.965751e-003
3.810711e+003,-2.694994e-003
3.812640e+003,-2.510816e-003
3.814568e+003,-2.883669e-003
3.816497e+003,-2.735429e-003
3.818425e+003,-2.416720e-003
3.820354e+003,-2.474840e-003
3.822282e+003,-2.414809e-003
3.824211e+003,-2.452140e-003
3.826139e+003,-2.582395e-003
3.828068e+003,-2.380935e-003
3.829996e+003,-2.421696e-003
3.831925e+003,-2.441827e-003
3.833853e+003,-2.374542e-003
3.835782e+003,-2.511277e-003
3.837710e+003,-2.482517e-003
3.839639e+003,-2.569384e-003
3.841567e+003,-2.625475e-003
3.843496e+003,-2.486042e-003
3.845424e+003,-2.327317e-003
3.847353e+003,-2.341159e-003
3.849281e+003,-2.386174e-003
3.851210e+003,-2.572513e-003
3.853138e+003,-2.880115e-003
3.855067e+003,-2.662590e-003
3.856995e+003,-2.531240e-003
3.858924e+003,-2.515856e-003
3.860852e+003,-2.600115e-003
3.862781e+003,-2.550345e-003
3.864709e+003,-2.334007e-003
3.866638e+003,-2.329954e-003
3.868566e+003,-2.554265e-003
3.870495e+003,-2.321616e-003
3.872423e+003,-2.478991e-003
3.874352e+003,-2.572942e-003
3.876280e+003,-2.313475e-003
3.878209e+003,-2.381396e-003
3.880137e+003,-2.338555e-003
3.882066e+003,-2.247488e-003
3.883994e+003,-2.530021e-003
3.885923e+003,-2.375069e-003
3.887851e+003,-2.332524e-003
3.889780e+003,-2.545207e-003
3.891708e+003,-2.722818e-003
3.893637e+003,-2.635421e-003
3.895565e+003,-2.483077e-003
3.897494e+003,-2.363898e-003
3.899422e+003,-2.377574e-003
3.901351e+003,-2.578047e-003
3.903279e+003,-2.439982e-003
3.905208e+003,-2.159105e-003
3.907136e+003,-2.091512e-003
3.909065e+003,-2.090589e-003
3.910993e+003,-2.114231e-003
3.912922e+003,-2.346432e-003
3.914850e+003,-2.495365e-003
3.916779e+003,-2.621622e-003
3.918707e+003,-2.459949e-003
3.920636e+003,-2.358526e-003
3.922564e+003,-2.619448e-003
3.924493e+003,-2.635323e-003
3.926421e+003,-2.356351e-003
3.928350e+003,-2.183469e-003
3.930278e+003,-2.222501e-003
3.932207e+003,-2.080729e-003
3.934135e+003,-1.847595e-003
3.936064e+003,-1.732465e-003
3.937992e+003,-1.832780e-003
3.939921e+003,-1.912883e-003
3.941849e+003,-1.923605e-003
3.943778e+003,-2.135465e-003
3.945706e+003,-2.270298e-003
3.947635e+003,-2.286580e-003
3.949563e+003,-2.061405e-003
3.951492e+003,-1.856701e-003
3.953420e+003,-1.920735e-003
3.955349e+003,-2.012464e-003
3.957277e+003,-1.915721e-003
3.959206e+003,-1.871877e-003
3.961134e+003,-1.964243e-003
3.963063e+003,-2.002933e-003
3.964991e+003,-2.178821e-003
3.966920e+003,-2.221117e-003
3.968848e+003,-2.213073e-003
3.970777e+003,-2.211128e-003
3.972705e+003,-2.119111e-003
3.974634e+003,-2.021270e-003
3.976562e+003,-2.043960e-003
3.978491e+003,-2.144433e-003
3.980419e+003,-1.916875e-003
3.982348e+003,-1.879234e-003
3.984276e+003,-1.993038e-003
3.986205e+003,-2.172754e-003
3.988133e+003,-1.969290e-003
3.990062e+003,-1.609251e-003
3.991990e+003,-1.776752e-003
3.993919e+003,-2.028031e-003
3.995847e+003,-1.898830e-003
3.997776e+003,-1.844427e-003
3.999704e+003,-1.874450e-003
4.001633e+003,0.000000e+000
