X,Y
3999.704,1730998733.0 s
3997.776,1730998733.0 s
3995.847,1730998733.0 s
3993.919,1730998733.0 s
3991.99,1730998733.0 s
3990.062,1730998733.0 s
3988.133,1730998733.0 s
3986.205,1730998733.0 s
3984.276,1730998733.0 s
3982.348,1730998733.0 s
3980.419,1730998733.0 s
3978.491,1730998733.0 s
3976.562,1730998733.0 s
3974.634,1730998733.0 s
3972.705,1730998733.0 s
3970.777,1730998733.0 s
3968.848,1730998733.0 s
3966.92,1730998733.0 s
3964.991,1730998733.0 s
3963.063,1730998733.0 s
3961.134,1730998733.0 s
3959.206,1730998733.0 s
3957.277,1730998733.0 s
3955.349,1730998733.0 s
3953.42,1730998733.0 s
3951.492,1730998733.0 s
3949.563,1730998733.0 s
3947.635,1730998733.0 s
3945.706,1730998733.0 s
3943.778,1730998733.0 s
3941.849,1730998733.0 s
3939.921,1730998733.0 s
3937.992,1730998733.0 s
3936.064,1730998733.0 s
3934.135,1730998733.0 s
3932.207,1730998733.0 s
3930.278,1730998733.0 s
3928.35,1730998733.0 s
3926.421,1730998733.0 s
3924.493,1730998733.0 s
3922.564,1730998733.0 s
3920.636,1730998733.0 s
3918.707,1730998733.0 s
3916.779,1730998733.0 s
3914.85,1730998733.0 s
3912.922,1730998733.0 s
3910.993,1730998733.0 s
3909.065,1730998733.0 s
3907.136,1730998733.0 s
3905.208,1730998733.0 s
3903.279,1730998733.0 s
3901.351,1730998733.0 s
3899.422,1730998733.0 s
3897.494,1730998733.0 s
3895.565,1730998733.0 s
3893.637,1730998733.0 s
3891.708,1730998733.0 s
3889.78,1730998733.0 s
3887.851,1730998733.0 s
3885.923,1730998733.0 s
3883.994,1730998733.0 s
3882.066,1730998733.0 s
3880.137,1730998733.0 s
3878.209,1730998733.0 s
3876.28,1730998733.0 s
3874.352,1730998733.0 s
3872.423,1730998733.0 s
3870.495,1730998733.0 s
3868.566,1730998733.0 s
3866.638,1730998733.0 s
3864.709,1730998733.0 s
3862.781,1730998733.0 s
3860.852,1730998733.0 s
3858.924,1730998733.0 s
3856.995,1730998733.0 s
3855.067,1730998733.0 s
3853.138,1730998733.0 s
3851.21,1730998733.0 s
3849.281,1730998733.0 s
3847.353,1730998733.0 s
3845.424,1730998733.0 s
3843.496,1730998733.0 s
3841.567,1730998733.0 s
3839.639,1730998733.0 s
3837.71,1730998733.0 s
3835.782,1730998733.0 s
3833.853,1730998733.0 s
3831.925,1730998733.0 s
3829.996,1730998733.0 s
3828.068,1730998733.0 s
3826.139,1730998733.0 s
3824.211,1730998733.0 s
3822.282,1730998733.0 s
3820.354,1730998733.0 s
3818.425,1730998733.0 s
3816.497,1730998733.0 s
3814.568,1730998733.0 s
3812.64,1730998733.0 s
3810.711,1730998733.0 s
3808.783,1730998733.0 s
3806.854,1730998733.0 s
3804.926,1730998733.0 s
3802.997,1730998733.0 s
3801.069,1730998733.0 s
3799.14,1730998733.0 s
3797.212,1730998733.0 s
3795.283,1730998733.0 s
3793.355,1730998733.0 s
3791.426,1730998733.0 s
3789.498,1730998733.0 s
3787.569,1730998733.0 s
3785.641,1730998733.0 s
3783.712,1730998733.0 s
3781.784,1730998733.0 s
3779.855,1730998733.0 s
3777.927,1730998733.0 s
3775.998,1730998733.0 s
3774.07,1730998733.0 s
3772.141,1730998733.0 s
3770.213,1730998733.0 s
3768.284,1730998733.0 s
3766.356,1730998733.0 s
3764.427,1730998733.0 s
3762.499,1730998733.0 s
3760.57,1730998733.0 s
3758.642,1730998733.0 s
3756.713,1730998733.0 s
3754.785,1730998733.0 s
3752.856,1730998733.0 s
3750.928,1730998733.0 s
3748.999,1730998733.0 s
3747.071,1730998733.0 s
3745.142,1730998733.0 s
3743.214,1730998733.0 s
3741.285,1730998733.0 s
3739.357,1730998733.0 s
3737.428,1730998733.0 s
3735.5,1730998733.0 s
3733.571,1730998733.0 s
3731.643,1730998733.0 s
3729.714,1730998733.0 s
3727.786,1730998733.0 s
3725.857,1730998733.0 s
3723.929,1730998733.0 s
3722.0,1730998733.0 s
3720.072,1730998733.0 s
3718.143,1730998733.0 s
3716.215,1730998733.0 s
3714.286,1730998733.0 s
3712.358,1730998733.0 s
3710.429,1730998733.0 s
3708.501,1730998733.0 s
3706.572,1730998733.0 s
3704.644,1730998733.0 s
3702.715,1730998733.0 s
3700.787,1730998733.0 s
3698.858,1730998733.0 s
3696.93,1730998733.0 s
3695.001,1730998733.0 s
3693.073,1730998733.0 s
3691.144,1730998733.0 s
3689.216,1730998733.0 s
3687.287,1730998733.0 s
3685.359,1730998733.0 s
3683.43,1730998733.0 s
3681.502,1730998733.0 s
3679.573,1730998733.0 s
3677.645,1730998733.0 s
3675.716,1730998733.0 s
3673.788,1730998733.0 s
3671.859,1730998733.0 s
3669.931,1730998733.0 s
3668.002,1730998733.0 s
3666.074,1730998733.0 s
3664.145,1730998733.0 s
3662.217,1730998733.0 s
3660.288,1730998733.0 s
3658.36,1730998733.0 s
3656.431,1730998733.0 s
3654.503,1730998733.0 s
3652.574,1730998733.0 s
3650.646,1730998733.0 s
3648.717,1730998733.0 s
3646.789,1730998733.0 s
3644.86,1730998733.0 s
3642.932,1730998733.0 s
3641.003,1730998733.0 s
3639.075,1730998733.0 s
3637.146,1730998733.0 s
3635.218,1730998733.0 s
3633.289,1730998733.0 s
3631.361,1730998733.0 s
3629.432,1730998733.0 s
3627.504,1730998733.0 s
3625.575,1730998733.0 s
3623.647,1730998733.0 s
3621.718,1730998733.0 s
3619.79,1730998733.0 s
3617.861,1730998733.0 s
3615.933,1730998733.0 s
3614.004,1730998733.0 s
3612.076,1730998733.0 s
3610.147,1730998733.0 s
3608.219,1730998733.0 s
3606.29,1730998733.0 s
3604.362,1730998733.0 s
3602.433,1730998733.0 s
3600.505,1730998733.0 s
3598.577,1730998733.0 s
3596.648,1730998733.0 s
3594.72,1730998733.0 s
3592.791,1730998733.0 s
3590.863,1730998733.0 s
3588.934,1730998733.0 s
3587.006,1730998733.0 s
3585.077,1730998733.0 s
3583.149,1730998733.0 s
3581.22,1730998733.0 s
3579.292,1730998733.0 s
3577.363,1730998733.0 s
3575.435,1730998733.0 s
3573.506,1730998733.0 s
3571.578,1730998733.0 s
3569.649,1730998733.0 s
3567.721,1730998733.0 s
3565.792,1730998733.0 s
3563.864,1730998733.0 s
3561.935,1730998733.0 s
3560.007,1730998733.0 s
3558.078,1730998733.0 s
3556.15,1730998733.0 s
3554.221,1730998733.0 s
3552.293,1730998733.0 s
3550.364,1730998733.0 s
3548.436,1730998733.0 s
3546.507,1730998733.0 s
3544.579,1730998733.0 s
3542.65,1730998733.0 s
3540.722,1730998733.0 s
3538.793,1730998733.0 s
3536.865,1730998733.0 s
3534.936,1730998733.0 s
3533.008,1730998733.0 s
3531.079,1730998733.0 s
3529.151,1730998733.0 s
3527.222,1730998733.0 s
3525.294,1730998733.0 s
3523.365,1730998733.0 s
3521.437,1730998733.0 s
3519.508,1730998733.0 s
3517.58,1730998733.0 s
3515.651,1730998733.0 s
3513.723,1730998733.0 s
3511.794,1730998733.0 s
3509.866,1730998733.0 s
3507.937,1730998733.0 s
3506.009,1730998733.0 s
3504.08,1730998733.0 s
3502.152,1730998733.0 s
3500.223,1730998733.0 s
3498.295,1730998733.0 s
3496.366,1730998733.0 s
3494.438,1730998733.0 s
3492.509,1730998733.0 s
3490.581,1730998733.0 s
3488.652,1730998733.0 s
3486.724,1730998733.0 s
3484.795,1730998733.0 s
3482.867,1730998733.0 s
3480.938,1730998733.0 s
3479.01,1730998733.0 s
3477.081,1730998733.0 s
3475.153,1730998733.0 s
3473.224,1730998733.0 s
3471.296,1730998733.0 s
3469.367,1730998733.0 s
3467.439,1730998733.0 s
3465.51,1730998733.0 s
3463.582,1730998733.0 s
3461.653,1730998733.0 s
3459.725,1730998733.0 s
3457.796,1730998733.0 s
3455.868,1730998733.0 s
3453.939,1730998733.0 s
3452.011,1730998733.0 s
3450.082,1730998733.0 s
3448.154,1730998733.0 s
3446.225,1730998733.0 s
3444.297,1730998733.0 s
3442.368,1730998733.0 s
3440.44,1730998733.0 s
3438.511,1730998733.0 s
3436.583,1730998733.0 s
3434.654,1730998733.0 s
3432.726,1730998733.0 s
3430.797,1730998733.0 s
3428.869,1730998733.0 s
3426.94,1730998733.0 s
3425.012,1730998733.0 s
3423.083,1730998733.0 s
3421.155,1730998733.0 s
3419.226,1730998733.0 s
3417.298,1730998733.0 s
3415.369,1730998733.0 s
3413.441,1730998733.0 s
3411.512,1730998733.0 s
3409.584,1730998733.0 s
3407.655,1730998733.0 s
3405.727,1730998733.0 s
3403.798,1730998733.0 s
3401.87,1730998733.0 s
3399.941,1730998733.0 s
3398.013,1730998733.0 s
3396.084,1730998733.0 s
3394.156,1730998733.0 s
3392.227,1730998733.0 s
3390.299,1730998733.0 s
3388.37,1730998733.0 s
3386.442,1730998733.0 s
3384.513,1730998733.0 s
3382.585,1730998733.0 s
3380.656,1730998733.0 s
3378.728,1730998733.0 s
3376.799,1730998733.0 s
3374.871,1730998733.0 s
3372.942,1730998733.0 s
3371.014,1730998733.0 s
3369.085,1730998733.0 s
3367.157,1730998733.0 s
3365.228,1730998733.0 s
3363.3,1730998733.0 s
3361.371,1730998733.0 s
3359.443,1730998733.0 s
3357.514,1730998733.0 s
3355.586,1730998733.0 s
3353.657,1730998733.0 s
3351.729,1730998733.0 s
3349.8,1730998733.0 s
3347.872,1730998733.0 s
3345.943,1730998733.0 s
3344.015,1730998733.0 s
3342.086,1730998733.0 s
3340.158,1730998733.0 s
3338.229,1730998733.0 s
3336.301,1730998733.0 s
3334.372,1730998733.0 s
3332.444,1730998733.0 s
3330.515,1730998733.0 s
3328.587,1730998733.0 s
3326.658,1730998733.0 s
3324.73,1730998733.0 s
3322.801,1730998733.0 s
3320.873,1730998733.0 s
3318.944,1730998733.0 s
3317.016,1730998733.0 s
3315.087,1730998733.0 s
3313.159,1730998733.0 s
3311.23,1730998733.0 s
3309.302,1730998733.0 s
3307.373,1730998733.0 s
3305.445,1730998733.0 s
3303.516,1730998733.0 s
3301.588,1730998733.0 s
3299.659,1730998733.0 s
3297.731,1730998733.0 s
3295.802,1730998733.0 s
3293.874,1730998733.0 s
3291.945,1730998733.0 s
3290.017,1730998733.0 s
3288.088,1730998733.0 s
3286.16,1730998733.0 s
3284.231,1730998733.0 s
3282.303,1730998733.0 s
3280.374,1730998733.0 s
3278.446,1730998733.0 s
3276.517,1730998733.0 s
3274.589,1730998733.0 s
3272.66,1730998733.0 s
3270.732,1730998733.0 s
3268.803,1730998733.0 s
3266.875,1730998733.0 s
3264.946,1730998733.0 s
3263.018,1730998733.0 s
3261.089,1730998733.0 s
3259.161,1730998733.0 s
3257.232,1730998733.0 s
3255.304,1730998733.0 s
3253.375,1730998733.0 s
3251.447,1730998733.0 s
3249.518,1730998733.0 s
3247.59,1730998733.0 s
3245.661,1730998733.0 s
3243.733,1730998733.0 s
3241.804,1730998733.0 s
3239.876,1730998733.0 s
3237.947,1730998733.0 s
3236.019,1730998733.0 s
3234.09,1730998733.0 s
3232.162,1730998733.0 s
3230.233,1730998733.0 s
3228.305,1730998733.0 s
3226.376,1730998733.0 s
3224.448,1730998733.0 s
3222.519,1730998733.0 s
3220.591,1730998733.0 s
3218.662,1730998733.0 s
3216.734,1730998733.0 s
3214.805,1730998733.0 s
3212.877,1730998733.0 s
3210.948,1730998733.0 s
3209.02,1730998733.0 s
3207.091,1730998733.0 s
3205.163,1730998733.0 s
3203.234,1730998733.0 s
3201.306,1730998733.0 s
3199.378,1730998733.0 s
3197.449,1730998733.0 s
3195.521,1730998733.0 s
3193.592,1730998733.0 s
3191.664,1730998733.0 s
3189.735,1730998733.0 s
3187.807,1730998733.0 s
3185.878,1730998733.0 s
3183.95,1730998733.0 s
3182.021,1730998733.0 s
3180.093,1730998733.0 s
3178.164,1730998733.0 s
3176.236,1730998733.0 s
3174.307,1730998733.0 s
3172.379,1730998733.0 s
3170.45,1730998733.0 s
3168.522,1730998733.0 s
3166.593,1730998733.0 s
3164.665,1730998733.0 s
3162.736,1730998733.0 s
3160.808,1730998733.0 s
3158.879,1730998733.0 s
3156.951,1730998733.0 s
3155.022,1730998733.0 s
3153.094,1730998733.0 s
3151.165,1730998733.0 s
3149.237,1730998733.0 s
3147.308,1730998733.0 s
3145.38,1730998733.0 s
3143.451,1730998733.0 s
3141.523,1730998733.0 s
3139.594,1730998733.0 s
3137.666,1730998733.0 s
3135.737,1730998733.0 s
3133.809,1730998733.0 s
3131.88,1730998733.0 s
3129.952,1730998733.0 s
3128.023,1730998733.0 s
3126.095,1730998733.0 s
3124.166,1730998733.0 s
3122.238,1730998733.0 s
3120.309,1730998733.0 s
3118.381,1730998733.0 s
3116.452,1730998733.0 s
3114.524,1730998733.0 s
3112.595,1730998733.0 s
3110.667,1730998733.0 s
3108.738,1730998733.0 s
3106.81,1730998733.0 s
3104.881,1730998733.0 s
3102.953,1730998733.0 s
3101.024,1730998733.0 s
3099.096,1730998733.0 s
3097.167,1730998733.0 s
3095.239,1730998733.0 s
3093.31,1730998733.0 s
3091.382,1730998733.0 s
3089.453,1730998733.0 s
3087.525,1730998733.0 s
3085.596,1730998733.0 s
3083.668,1730998733.0 s
3081.739,1730998733.0 s
3079.811,1730998733.0 s
3077.882,1730998733.0 s
3075.954,1730998733.0 s
3074.025,1730998733.0 s
3072.097,1730998733.0 s
3070.168,1730998733.0 s
3068.24,1730998733.0 s
3066.311,1730998733.0 s
3064.383,1730998733.0 s
3062.454,1730998733.0 s
3060.526,1730998733.0 s
3058.597,1730998733.0 s
3056.669,1730998733.0 s
3054.74,1730998733.0 s
3052.812,1730998733.0 s
3050.883,1730998733.0 s
3048.955,1730998733.0 s
3047.026,1730998733.0 s
3045.098,1730998733.0 s
3043.169,1730998733.0 s
3041.241,1730998733.0 s
3039.312,1730998733.0 s
3037.384,1730998733.0 s
3035.455,1730998733.0 s
3033.527,1730998733.0 s
3031.598,1730998733.0 s
3029.67,1730998733.0 s
3027.741,1730998733.0 s
3025.813,1730998733.0 s
3023.884,1730998733.0 s
3021.956,1730998733.0 s
3020.027,1730998733.0 s
3018.099,1730998733.0 s
3016.17,1730998733.0 s
3014.242,1730998733.0 s
3012.313,1730998733.0 s
3010.385,1730998733.0 s
3008.456,1730998733.0 s
3006.528,1730998733.0 s
3004.599,1730998733.0 s
3002.671,1730998733.0 s
3000.742,1730998733.0 s
2998.814,1730998733.0 s
2996.885,1730998733.0 s
2994.957,1730998733.0 s
2993.028,1730998733.0 s
2991.1,1730998733.0 s
2989.171,1730998733.0 s
2987.243,1730998733.0 s
2985.314,1730998733.0 s
2983.386,1730998733.0 s
2981.457,1730998733.0 s
2979.529,1730998733.0 s
2977.6,1730998733.0 s
2975.672,1730998733.0 s
2973.743,1730998733.0 s
2971.815,1730998733.0 s
2969.886,1730998733.0 s
2967.958,1730998733.0 s
2966.029,1730998733.0 s
2964.101,1730998733.0 s
2962.172,1730998733.0 s
2960.244,1730998733.0 s
2958.315,1730998733.0 s
2956.387,1730998733.0 s
2954.458,1730998733.0 s
2952.53,1730998733.0 s
2950.601,1730998733.0 s
2948.673,1730998733.0 s
2946.744,1730998733.0 s
2944.816,1730998733.0 s
2942.887,1730998733.0 s
2940.959,1730998733.0 s
2939.03,1730998733.0 s
2937.102,1730998733.0 s
2935.173,1730998733.0 s
2933.245,1730998733.0 s
2931.316,1730998733.0 s
2929.388,1730998733.0 s
2927.459,1730998733.0 s
2925.531,1730998733.0 s
2923.602,1730998733.0 s
2921.674,1730998733.0 s
2919.745,1730998733.0 s
2917.817,1730998733.0 s
2915.888,1730998733.0 s
2913.96,1730998733.0 s
2912.031,1730998733.0 s
2910.103,1730998733.0 s
2908.174,1730998733.0 s
2906.246,1730998733.0 s
2904.317,1730998733.0 s
2902.389,1730998733.0 s
2900.46,1730998733.0 s
2898.532,1730998733.0 s
2896.603,1730998733.0 s
2894.675,1730998733.0 s
2892.746,1730998733.0 s
2890.818,1730998733.0 s
2888.889,1730998733.0 s
2886.961,1730998733.0 s
2885.032,1730998733.0 s
2883.104,1730998733.0 s
2881.175,1730998733.0 s
2879.247,1730998733.0 s
2877.318,1730998733.0 s
2875.39,1730998733.0 s
2873.461,1730998733.0 s
2871.533,1730998733.0 s
2869.604,1730998733.0 s
2867.676,1730998733.0 s
2865.747,1730998733.0 s
2863.819,1730998733.0 s
2861.89,1730998733.0 s
2859.962,1730998733.0 s
2858.033,1730998733.0 s
2856.105,1730998733.0 s
2854.176,1730998733.0 s
2852.248,1730998733.0 s
2850.319,1730998733.0 s
2848.391,1730998733.0 s
2846.462,1730998733.0 s
2844.534,1730998733.0 s
2842.605,1730998733.0 s
2840.677,1730998733.0 s
2838.748,1730998733.0 s
2836.82,1730998733.0 s
2834.891,1730998733.0 s
2832.963,1730998733.0 s
2831.034,1730998733.0 s
2829.106,1730998733.0 s
2827.177,1730998733.0 s
2825.249,1730998733.0 s
2823.32,1730998733.0 s
2821.392,1730998733.0 s
2819.463,1730998733.0 s
2817.535,1730998733.0 s
2815.606,1730998733.0 s
2813.678,1730998733.0 s
2811.749,1730998733.0 s
2809.821,1730998733.0 s
2807.892,1730998733.0 s
2805.964,1730998733.0 s
2804.035,1730998733.0 s
2802.107,1730998733.0 s
2800.178,1730998733.0 s
2798.25,1730998733.0 s
2796.322,1730998733.0 s
2794.393,1730998733.0 s
2792.465,1730998733.0 s
2790.536,1730998733.0 s
2788.608,1730998733.0 s
2786.679,1730998733.0 s
2784.751,1730998733.0 s
2782.822,1730998733.0 s
2780.894,1730998733.0 s
2778.965,1730998733.0 s
2777.037,1730998733.0 s
2775.108,1730998733.0 s
2773.18,1730998733.0 s
2771.251,1730998733.0 s
2769.323,1730998733.0 s
2767.394,1730998733.0 s
2765.466,1730998733.0 s
2763.537,1730998733.0 s
2761.609,1730998733.0 s
2759.68,1730998733.0 s
2757.752,1730998733.0 s
2755.823,1730998733.0 s
2753.895,1730998733.0 s
2751.966,1730998733.0 s
2750.038,1730998733.0 s
2748.109,1730998733.0 s
2746.181,1730998733.0 s
2744.252,1730998733.0 s
2742.324,1730998733.0 s
2740.395,1730998733.0 s
2738.467,1730998733.0 s
2736.538,1730998733.0 s
2734.61,1730998733.0 s
2732.681,1730998733.0 s
2730.753,1730998733.0 s
2728.824,1730998733.0 s
2726.896,1730998733.0 s
2724.967,1730998733.0 s
2723.039,1730998733.0 s
2721.11,1730998733.0 s
2719.182,1730998733.0 s
2717.253,1730998733.0 s
2715.325,1730998733.0 s
2713.396,1730998733.0 s
2711.468,1730998733.0 s
2709.539,1730998733.0 s
2707.611,1730998733.0 s
2705.682,1730998733.0 s
2703.754,1730998733.0 s
2701.825,1730998733.0 s
2699.897,1730998733.0 s
2697.968,1730998733.0 s
2696.04,1730998733.0 s
2694.111,1730998733.0 s
2692.183,1730998733.0 s
2690.254,1730998733.0 s
2688.326,1730998733.0 s
2686.397,1730998733.0 s
2684.469,1730998733.0 s
2682.54,1730998733.0 s
2680.612,1730998733.0 s
2678.683,1730998733.0 s
2676.755,1730998733.0 s
2674.826,1730998733.0 s
2672.898,1730998733.0 s
2670.969,1730998733.0 s
2669.041,1730998733.0 s
2667.112,1730998733.0 s
2665.184,1730998733.0 s
2663.255,1730998733.0 s
2661.327,1730998733.0 s
2659.398,1730998733.0 s
2657.47,1730998733.0 s
2655.541,1730998733.0 s
2653.613,1730998733.0 s
2651.684,1730998733.0 s
2649.756,1730998733.0 s
2647.827,1730998733.0 s
2645.899,1730998733.0 s
2643.97,1730998733.0 s
2642.042,1730998733.0 s
2640.113,1730998733.0 s
2638.185,1730998733.0 s
2636.256,1730998733.0 s
2634.328,1730998733.0 s
2632.399,1730998733.0 s
2630.471,1730998733.0 s
2628.542,1730998733.0 s
2626.614,1730998733.0 s
2624.685,1730998733.0 s
2622.757,1730998733.0 s
2620.828,1730998733.0 s
2618.9,1730998733.0 s
2616.971,1730998733.0 s
2615.043,1730998733.0 s
2613.114,1730998733.0 s
2611.186,1730998733.0 s
2609.257,1730998733.0 s
2607.329,1730998733.0 s
2605.4,1730998733.0 s
2603.472,1730998733.0 s
2601.543,1730998733.0 s
2599.615,1730998733.0 s
2597.686,1730998733.0 s
2595.758,1730998733.0 s
2593.829,1730998733.0 s
2591.901,1730998733.0 s
2589.972,1730998733.0 s
2588.044,1730998733.0 s
2586.115,1730998733.0 s
2584.187,1730998733.0 s
2582.258,1730998733.0 s
2580.33,1730998733.0 s
2578.401,1730998733.0 s
2576.473,1730998733.0 s
2574.544,1730998733.0 s
2572.616,1730998733.0 s
2570.687,1730998733.0 s
2568.759,1730998733.0 s
2566.83,1730998733.0 s
2564.902,1730998733.0 s
2562.973,1730998733.0 s
2561.045,1730998733.0 s
2559.116,1730998733.0 s
2557.188,1730998733.0 s
2555.259,1730998733.0 s
2553.331,1730998733.0 s
2551.402,1730998733.0 s
2549.474,1730998733.0 s
2547.545,1730998733.0 s
2545.617,1730998733.0 s
2543.688,1730998733.0 s
2541.76,1730998733.0 s
2539.831,1730998733.0 s
2537.903,1730998733.0 s
2535.974,1730998733.0 s
2534.046,1730998733.0 s
2532.117,1730998733.0 s
2530.189,1730998733.0 s
2528.26,1730998733.0 s
2526.332,1730998733.0 s
2524.403,1730998733.0 s
2522.475,1730998733.0 s
2520.546,1730998733.0 s
2518.618,1730998733.0 s
2516.689,1730998733.0 s
2514.761,1730998733.0 s
2512.832,1730998733.0 s
2510.904,1730998733.0 s
2508.975,1730998733.0 s
2507.047,1730998733.0 s
2505.118,1730998733.0 s
2503.19,1730998733.0 s
2501.261,1730998733.0 s
2499.333,1730998733.0 s
2497.404,1730998733.0 s
2495.476,1730998733.0 s
2493.547,1730998733.0 s
2491.619,1730998733.0 s
2489.69,1730998733.0 s
2487.762,1730998733.0 s
2485.833,1730998733.0 s
2483.905,1730998733.0 s
2481.976,1730998733.0 s
2480.048,1730998733.0 s
2478.119,1730998733.0 s
2476.191,1730998733.0 s
2474.262,1730998733.0 s
2472.334,1730998733.0 s
2470.405,1730998733.0 s
2468.477,1730998733.0 s
2466.548,1730998733.0 s
2464.62,1730998733.0 s
2462.691,1730998733.0 s
2460.763,1730998733.0 s
2458.834,1730998733.0 s
2456.906,1730998733.0 s
2454.977,1730998733.0 s
2453.049,1730998733.0 s
2451.12,1730998733.0 s
2449.192,1730998733.0 s
2447.263,1730998733.0 s
2445.335,1730998733.0 s
2443.406,1730998733.0 s
2441.478,1730998733.0 s
2439.549,1730998733.0 s
2437.621,1730998733.0 s
2435.692,1730998733.0 s
2433.764,1730998733.0 s
2431.835,1730998733.0 s
2429.907,1730998733.0 s
2427.978,1730998733.0 s
2426.05,1730998733.0 s
2424.121,1730998733.0 s
2422.193,1730998733.0 s
2420.264,1730998733.0 s
2418.336,1730998733.0 s
2416.407,1730998733.0 s
2414.479,1730998733.0 s
2412.55,1730998733.0 s
2410.622,1730998733.0 s
2408.693,1730998733.0 s
2406.765,1730998733.0 s
2404.836,1730998733.0 s
2402.908,1730998733.0 s
2400.979,1730998733.0 s
2399.051,1730998733.0 s
2397.123,1730998733.0 s
2395.194,1730998733.0 s
2393.266,1730998733.0 s
2391.337,1730998733.0 s
2389.409,1730998733.0 s
2387.48,1730998733.0 s
2385.552,1730998733.0 s
2383.623,1730998733.0 s
2381.695,1730998733.0 s
2379.766,1730998733.0 s
2377.838,1730998733.0 s
2375.909,1730998733.0 s
2373.981,1730998733.0 s
2372.052,1730998733.0 s
2370.124,1730998733.0 s
2368.195,1730998733.0 s
2366.267,1730998733.0 s
2364.338,1730998733.0 s
2362.41,1730998733.0 s
2360.481,1730998733.0 s
2358.553,1730998733.0 s
2356.624,1730998733.0 s
2354.696,1730998733.0 s
2352.767,1730998733.0 s
2350.839,1730998733.0 s
2348.91,1730998733.0 s
2346.982,1730998733.0 s
2345.053,1730998733.0 s
2343.125,1730998733.0 s
2341.196,1730998733.0 s
2339.268,1730998733.0 s
2337.339,1730998733.0 s
2335.411,1730998733.0 s
2333.482,1730998733.0 s
2331.554,1730998733.0 s
2329.625,1730998733.0 s
2327.697,1730998733.0 s
2325.768,1730998733.0 s
2323.84,1730998733.0 s
2321.911,1730998733.0 s
2319.983,1730998733.0 s
2318.054,1730998733.0 s
2316.126,1730998733.0 s
2314.197,1730998733.0 s
2312.269,1730998733.0 s
2310.34,1730998733.0 s
2308.412,1730998733.0 s
2306.483,1730998733.0 s
2304.555,1730998733.0 s
2302.626,1730998733.0 s
2300.698,1730998733.0 s
2298.769,1730998733.0 s
2296.841,1730998733.0 s
2294.912,1730998733.0 s
2292.984,1730998733.0 s
2291.055,1730998733.0 s
2289.127,1730998733.0 s
2287.198,1730998733.0 s
2285.27,1730998733.0 s
2283.341,1730998733.0 s
2281.413,1730998733.0 s
2279.484,1730998733.0 s
2277.556,1730998733.0 s
2275.627,1730998733.0 s
2273.699,1730998733.0 s
2271.77,1730998733.0 s
2269.842,1730998733.0 s
2267.913,1730998733.0 s
2265.985,1730998733.0 s
2264.056,1730998733.0 s
2262.128,1730998733.0 s
2260.199,1730998733.0 s
2258.271,1730998733.0 s
2256.342,1730998733.0 s
2254.414,1730998733.0 s
2252.485,1730998733.0 s
2250.557,1730998733.0 s
2248.628,1730998733.0 s
2246.7,1730998733.0 s
2244.771,1730998733.0 s
2242.843,1730998733.0 s
2240.914,1730998733.0 s
2238.986,1730998733.0 s
2237.057,1730998733.0 s
2235.129,1730998733.0 s
2233.2,1730998733.0 s
2231.272,1730998733.0 s
2229.343,1730998733.0 s
2227.415,1730998733.0 s
2225.486,1730998733.0 s
2223.558,1730998733.0 s
2221.629,1730998733.0 s
2219.701,1730998733.0 s
2217.772,1730998733.0 s
2215.844,1730998733.0 s
2213.915,1730998733.0 s
2211.987,1730998733.0 s
2210.058,1730998733.0 s
2208.13,1730998733.0 s
2206.201,1730998733.0 s
2204.273,1730998733.0 s
2202.344,1730998733.0 s
2200.416,1730998733.0 s
2198.487,1730998733.0 s
2196.559,1730998733.0 s
2194.63,1730998733.0 s
2192.702,1730998733.0 s
2190.773,1730998733.0 s
2188.845,1730998733.0 s
2186.916,1730998733.0 s
2184.988,1730998733.0 s
2183.059,1730998733.0 s
2181.131,1730998733.0 s
2179.202,1730998733.0 s
2177.274,1730998733.0 s
2175.345,1730998733.0 s
2173.417,1730998733.0 s
2171.488,1730998733.0 s
2169.56,1730998733.0 s
2167.631,1730998733.0 s
2165.703,1730998733.0 s
2163.774,1730998733.0 s
2161.846,1730998733.0 s
2159.917,1730998733.0 s
2157.989,1730998733.0 s
2156.06,1730998733.0 s
2154.132,1730998733.0 s
2152.203,1730998733.0 s
2150.275,1730998733.0 s
2148.346,1730998733.0 s
2146.418,1730998733.0 s
2144.489,1730998733.0 s
2142.561,1730998733.0 s
2140.632,1730998733.0 s
2138.704,1730998733.0 s
2136.775,1730998733.0 s
2134.847,1730998733.0 s
2132.918,1730998733.0 s
2130.99,1730998733.0 s
2129.061,1730998733.0 s
2127.133,1730998733.0 s
2125.204,1730998733.0 s
2123.276,1730998733.0 s
2121.347,1730998733.0 s
2119.419,1730998733.0 s
2117.49,1730998733.0 s
2115.562,1730998733.0 s
2113.633,1730998733.0 s
2111.705,1730998733.0 s
2109.776,1730998733.0 s
2107.848,1730998733.0 s
2105.919,1730998733.0 s
2103.991,1730998733.0 s
2102.062,1730998733.0 s
2100.134,1730998733.0 s
2098.205,1730998733.0 s
2096.277,1730998733.0 s
2094.348,1730998733.0 s
2092.42,1730998733.0 s
2090.491,1730998733.0 s
2088.563,1730998733.0 s
2086.634,1730998733.0 s
2084.706,1730998733.0 s
2082.777,1730998733.0 s
2080.849,1730998733.0 s
2078.92,1730998733.0 s
2076.992,1730998733.0 s
2075.063,1730998733.0 s
2073.135,1730998733.0 s
2071.206,1730998733.0 s
2069.278,1730998733.0 s
2067.349,1730998733.0 s
2065.421,1730998733.0 s
2063.492,1730998733.0 s
2061.564,1730998733.0 s
2059.635,1730998733.0 s
2057.707,1730998733.0 s
2055.778,1730998733.0 s
2053.85,1730998733.0 s
2051.921,1730998733.0 s
2049.993,1730998733.0 s
2048.064,1730998733.0 s
2046.136,1730998733.0 s
2044.207,1730998733.0 s
2042.279,1730998733.0 s
2040.35,1730998733.0 s
2038.422,1730998733.0 s
2036.493,1730998733.0 s
2034.565,1730998733.0 s
2032.636,1730998733.0 s
2030.708,1730998733.0 s
2028.779,1730998733.0 s
2026.851,1730998733.0 s
2024.922,1730998733.0 s
2022.994,1730998733.0 s
2021.065,1730998733.0 s
2019.137,1730998733.0 s
2017.208,1730998733.0 s
2015.28,1730998733.0 s
2013.351,1730998733.0 s
2011.423,1730998733.0 s
2009.494,1730998733.0 s
2007.566,1730998733.0 s
2005.637,1730998733.0 s
2003.709,1730998733.0 s
2001.78,1730998733.0 s
1999.852,1730998733.0 s
1997.924,1730998733.0 s
1995.995,1730998733.0 s
1994.067,1730998733.0 s
1992.138,1730998733.0 s
1990.21,1730998733.0 s
1988.281,1730998733.0 s
1986.353,1730998733.0 s
1984.424,1730998733.0 s
1982.496,1730998733.0 s
1980.567,1730998733.0 s
1978.639,1730998733.0 s
1976.71,1730998733.0 s
1974.782,1730998733.0 s
1972.853,1730998733.0 s
1970.925,1730998733.0 s
1968.996,1730998733.0 s
1967.068,1730998733.0 s
1965.139,1730998733.0 s
1963.211,1730998733.0 s
1961.282,1730998733.0 s
1959.354,1730998733.0 s
1957.425,1730998733.0 s
1955.497,1730998733.0 s
1953.568,1730998733.0 s
1951.64,1730998733.0 s
1949.711,1730998733.0 s
1947.783,1730998733.0 s
1945.854,1730998733.0 s
1943.926,1730998733.0 s
1941.997,1730998733.0 s
1940.069,1730998733.0 s
1938.14,1730998733.0 s
1936.212,1730998733.0 s
1934.283,1730998733.0 s
1932.355,1730998733.0 s
1930.426,1730998733.0 s
1928.498,1730998733.0 s
1926.569,1730998733.0 s
1924.641,1730998733.0 s
1922.712,1730998733.0 s
1920.784,1730998733.0 s
1918.855,1730998733.0 s
1916.927,1730998733.0 s
1914.998,1730998733.0 s
1913.07,1730998733.0 s
1911.141,1730998733.0 s
1909.213,1730998733.0 s
1907.284,1730998733.0 s
1905.356,1730998733.0 s
1903.427,1730998733.0 s
1901.499,1730998733.0 s
1899.57,1730998733.0 s
1897.642,1730998733.0 s
1895.713,1730998733.0 s
1893.785,1730998733.0 s
1891.856,1730998733.0 s
1889.928,1730998733.0 s
1887.999,1730998733.0 s
1886.071,1730998733.0 s
1884.142,1730998733.0 s
1882.214,1730998733.0 s
1880.285,1730998733.0 s
1878.357,1730998733.0 s
1876.428,1730998733.0 s
1874.5,1730998733.0 s
1872.571,1730998733.0 s
1870.643,1730998733.0 s
1868.714,1730998733.0 s
1866.786,1730998733.0 s
1864.857,1730998733.0 s
1862.929,1730998733.0 s
1861.0,1730998733.0 s
1859.072,1730998733.0 s
1857.143,1730998733.0 s
1855.215,1730998733.0 s
1853.286,1730998733.0 s
1851.358,1730998733.0 s
1849.429,1730998733.0 s
1847.501,1730998733.0 s
1845.572,1730998733.0 s
1843.644,1730998733.0 s
1841.715,1730998733.0 s
1839.787,1730998733.0 s
1837.858,1730998733.0 s
1835.93,1730998733.0 s
1834.001,1730998733.0 s
1832.073,1730998733.0 s
1830.144,1730998733.0 s
1828.216,1730998733.0 s
1826.287,1730998733.0 s
1824.359,1730998733.0 s
1822.43,1730998733.0 s
1820.502,1730998733.0 s
1818.573,1730998733.0 s
1816.645,1730998733.0 s
1814.716,1730998733.0 s
1812.788,1730998733.0 s
1810.859,1730998733.0 s
1808.931,1730998733.0 s
1807.002,1730998733.0 s
1805.074,1730998733.0 s
1803.145,1730998733.0 s
1801.217,1730998733.0 s
1799.288,1730998733.0 s
1797.36,1730998733.0 s
1795.431,1730998733.0 s
1793.503,1730998733.0 s
1791.574,1730998733.0 s
1789.646,1730998733.0 s
1787.717,1730998733.0 s
1785.789,1730998733.0 s
1783.86,1730998733.0 s
1781.932,1730998733.0 s
1780.003,1730998733.0 s
1778.075,1730998733.0 s
1776.146,1730998733.0 s
1774.218,1730998733.0 s
1772.289,1730998733.0 s
1770.361,1730998733.0 s
1768.432,1730998733.0 s
1766.504,1730998733.0 s
1764.575,1730998733.0 s
1762.647,1730998733.0 s
1760.718,1730998733.0 s
1758.79,1730998733.0 s
1756.861,1730998733.0 s
1754.933,1730998733.0 s
1753.004,1730998733.0 s
1751.076,1730998733.0 s
1749.147,1730998733.0 s
1747.219,1730998733.0 s
1745.29,1730998733.0 s
1743.362,1730998733.0 s
1741.433,1730998733.0 s
1739.505,1730998733.0 s
1737.576,1730998733.0 s
1735.648,1730998733.0 s
1733.719,1730998733.0 s
1731.791,1730998733.0 s
1729.862,1730998733.0 s
1727.934,1730998733.0 s
1726.005,1730998733.0 s
1724.077,1730998733.0 s
1722.148,1730998733.0 s
1720.22,1730998733.0 s
1718.291,1730998733.0 s
1716.363,1730998733.0 s
1714.434,1730998733.0 s
1712.506,1730998733.0 s
1710.577,1730998733.0 s
1708.649,1730998733.0 s
1706.72,1730998733.0 s
1704.792,1730998733.0 s
1702.863,1730998733.0 s
1700.935,1730998733.0 s
1699.006,1730998733.0 s
1697.078,1730998733.0 s
1695.149,1730998733.0 s
1693.221,1730998733.0 s
1691.292,1730998733.0 s
1689.364,1730998733.0 s
1687.435,1730998733.0 s
1685.507,1730998733.0 s
1683.578,1730998733.0 s
1681.65,1730998733.0 s
1679.721,1730998733.0 s
1677.793,1730998733.0 s
1675.864,1730998733.0 s
1673.936,1730998733.0 s
1672.007,1730998733.0 s
1670.079,1730998733.0 s
1668.15,1730998733.0 s
1666.222,1730998733.0 s
1664.293,1730998733.0 s
1662.365,1730998733.0 s
1660.436,1730998733.0 s
1658.508,1730998733.0 s
1656.579,1730998733.0 s
1654.651,1730998733.0 s
1652.722,1730998733.0 s
1650.794,1730998733.0 s
1648.865,1730998733.0 s
1646.937,1730998733.0 s
1645.008,1730998733.0 s
1643.08,1730998733.0 s
1641.151,1730998733.0 s
1639.223,1730998733.0 s
1637.294,1730998733.0 s
1635.366,1730998733.0 s
1633.437,1730998733.0 s
1631.509,1730998733.0 s
1629.58,1730998733.0 s
1627.652,1730998733.0 s
1625.723,1730998733.0 s
1623.795,1730998733.0 s
1621.866,1730998733.0 s
1619.938,1730998733.0 s
1618.009,1730998733.0 s
1616.081,1730998733.0 s
1614.152,1730998733.0 s
1612.224,1730998733.0 s
1610.295,1730998733.0 s
1608.367,1730998733.0 s
1606.438,1730998733.0 s
1604.51,1730998733.0 s
1602.581,1730998733.0 s
1600.653,1730998733.0 s
1598.725,1730998733.0 s
1596.796,1730998733.0 s
1594.868,1730998733.0 s
1592.939,1730998733.0 s
1591.011,1730998733.0 s
1589.082,1730998733.0 s
1587.154,1730998733.0 s
1585.225,1730998733.0 s
1583.297,1730998733.0 s
1581.368,1730998733.0 s
1579.44,1730998733.0 s
1577.511,1730998733.0 s
1575.583,1730998733.0 s
1573.654,1730998733.0 s
1571.726,1730998733.0 s
1569.797,1730998733.0 s
1567.869,1730998733.0 s
1565.94,1730998733.0 s
1564.012,1730998733.0 s
1562.083,1730998733.0 s
1560.155,1730998733.0 s
1558.226,1730998733.0 s
1556.298,1730998733.0 s
1554.369,1730998733.0 s
1552.441,1730998733.0 s
1550.512,1730998733.0 s
1548.584,1730998733.0 s
1546.655,1730998733.0 s
1544.727,1730998733.0 s
1542.798,1730998733.0 s
1540.87,1730998733.0 s
1538.941,1730998733.0 s
1537.013,1730998733.0 s
1535.084,1730998733.0 s
1533.156,1730998733.0 s
1531.227,1730998733.0 s
1529.299,1730998733.0 s
1527.37,1730998733.0 s
1525.442,1730998733.0 s
1523.513,1730998733.0 s
1521.585,1730998733.0 s
1519.656,1730998733.0 s
1517.728,1730998733.0 s
1515.799,1730998733.0 s
1513.871,1730998733.0 s
1511.942,1730998733.0 s
1510.014,1730998733.0 s
1508.085,1730998733.0 s
1506.157,1730998733.0 s
1504.228,1730998733.0 s
1502.3,1730998733.0 s
1500.371,1730998733.0 s
1498.443,1730998733.0 s
1496.514,1730998733.0 s
1494.586,1730998733.0 s
1492.657,1730998733.0 s
1490.729,1730998733.0 s
1488.8,1730998733.0 s
1486.872,1730998733.0 s
1484.943,1730998733.0 s
1483.015,1730998733.0 s
1481.086,1730998733.0 s
1479.158,1730998733.0 s
1477.229,1730998733.0 s
1475.301,1730998733.0 s
1473.372,1730998733.0 s
1471.444,1730998733.0 s
1469.515,1730998733.0 s
1467.587,1730998733.0 s
1465.658,1730998733.0 s
1463.73,1730998733.0 s
1461.801,1730998733.0 s
1459.873,1730998733.0 s
1457.944,1730998733.0 s
1456.016,1730998733.0 s
1454.087,1730998733.0 s
1452.159,1730998733.0 s
1450.23,1730998733.0 s
1448.302,1730998733.0 s
1446.373,1730998733.0 s
1444.445,1730998733.0 s
1442.516,1730998733.0 s
1440.588,1730998733.0 s
1438.659,1730998733.0 s
1436.731,1730998733.0 s
1434.802,1730998733.0 s
1432.874,1730998733.0 s
1430.945,1730998733.0 s
1429.017,1730998733.0 s
1427.088,1730998733.0 s
1425.16,1730998733.0 s
1423.231,1730998733.0 s
1421.303,1730998733.0 s
1419.374,1730998733.0 s
1417.446,1730998733.0 s
1415.517,1730998733.0 s
1413.589,1730998733.0 s
1411.66,1730998733.0 s
1409.732,1730998733.0 s
1407.803,1730998733.0 s
1405.875,1730998733.0 s
1403.946,1730998733.0 s
1402.018,1730998733.0 s
1400.089,1730998733.0 s
1398.161,1730998733.0 s
1396.232,1730998733.0 s
1394.304,1730998733.0 s
1392.375,1730998733.0 s
1390.447,1730998733.0 s
1388.518,1730998733.0 s
1386.59,1730998733.0 s
1384.661,1730998733.0 s
1382.733,1730998733.0 s
1380.804,1730998733.0 s
1378.876,1730998733.0 s
1376.947,1730998733.0 s
1375.019,1730998733.0 s
1373.09,1730998733.0 s
1371.162,1730998733.0 s
1369.233,1730998733.0 s
1367.305,1730998733.0 s
1365.376,1730998733.0 s
1363.448,1730998733.0 s
1361.519,1730998733.0 s
1359.591,1730998733.0 s
1357.662,1730998733.0 s
1355.734,1730998733.0 s
1353.805,1730998733.0 s
1351.877,1730998733.0 s
1349.948,1730998733.0 s
1348.02,1730998733.0 s
1346.091,1730998733.0 s
1344.163,1730998733.0 s
1342.234,1730998733.0 s
1340.306,1730998733.0 s
1338.377,1730998733.0 s
1336.449,1730998733.0 s
1334.52,1730998733.0 s
1332.592,1730998733.0 s
1330.663,1730998733.0 s
1328.735,1730998733.0 s
1326.806,1730998733.0 s
1324.878,1730998733.0 s
1322.949,1730998733.0 s
1321.021,1730998733.0 s
1319.092,1730998733.0 s
1317.164,1730998733.0 s
1315.235,1730998733.0 s
1313.307,1730998733.0 s
1311.378,1730998733.0 s
1309.45,1730998733.0 s
1307.521,1730998733.0 s
1305.593,1730998733.0 s
1303.664,1730998733.0 s
1301.736,1730998733.0 s
1299.807,1730998733.0 s
1297.879,1730998733.0 s
1295.95,1730998733.0 s
1294.022,1730998733.0 s
1292.093,1730998733.0 s
1290.165,1730998733.0 s
1288.236,1730998733.0 s
1286.308,1730998733.0 s
1284.379,1730998733.0 s
1282.451,1730998733.0 s
1280.522,1730998733.0 s
1278.594,1730998733.0 s
1276.665,1730998733.0 s
1274.737,1730998733.0 s
1272.808,1730998733.0 s
1270.88,1730998733.0 s
1268.951,1730998733.0 s
1267.023,1730998733.0 s
1265.094,1730998733.0 s
1263.166,1730998733.0 s
1261.237,1730998733.0 s
1259.309,1730998733.0 s
1257.38,1730998733.0 s
1255.452,1730998733.0 s
1253.523,1730998733.0 s
1251.595,1730998733.0 s
1249.666,1730998733.0 s
1247.738,1730998733.0 s
1245.809,1730998733.0 s
1243.881,1730998733.0 s
1241.952,1730998733.0 s
1240.024,1730998733.0 s
1238.095,1730998733.0 s
1236.167,1730998733.0 s
1234.238,1730998733.0 s
1232.31,1730998733.0 s
1230.381,1730998733.0 s
1228.453,1730998733.0 s
1226.524,1730998733.0 s
1224.596,1730998733.0 s
1222.667,1730998733.0 s
1220.739,1730998733.0 s
1218.81,1730998733.0 s
1216.882,1730998733.0 s
1214.953,1730998733.0 s
1213.025,1730998733.0 s
1211.096,1730998733.0 s
1209.168,1730998733.0 s
1207.239,1730998733.0 s
1205.311,1730998733.0 s
1203.382,1730998733.0 s
1201.454,1730998733.0 s
1199.525,1730998733.0 s
1197.597,1730998733.0 s
1195.669,1730998733.0 s
1193.74,1730998733.0 s
1191.812,1730998733.0 s
1189.883,1730998733.0 s
1187.955,1730998733.0 s
1186.026,1730998733.0 s
1184.098,1730998733.0 s
1182.169,1730998733.0 s
1180.241,1730998733.0 s
1178.312,1730998733.0 s
1176.384,1730998733.0 s
1174.455,1730998733.0 s
1172.527,1730998733.0 s
1170.598,1730998733.0 s
1168.67,1730998733.0 s
1166.741,1730998733.0 s
1164.813,1730998733.0 s
1162.884,1730998733.0 s
1160.956,1730998733.0 s
1159.027,1730998733.0 s
1157.099,1730998733.0 s
1155.17,1730998733.0 s
1153.242,1730998733.0 s
1151.313,1730998733.0 s
1149.385,1730998733.0 s
1147.456,1730998733.0 s
1145.528,1730998733.0 s
1143.599,1730998733.0 s
1141.671,1730998733.0 s
1139.742,1730998733.0 s
1137.814,1730998733.0 s
1135.885,1730998733.0 s
1133.957,1730998733.0 s
1132.028,1730998733.0 s
1130.1,1730998733.0 s
1128.171,1730998733.0 s
1126.243,1730998733.0 s
1124.314,1730998733.0 s
1122.386,1730998733.0 s
1120.457,1730998733.0 s
1118.529,1730998733.0 s
1116.6,1730998733.0 s
1114.672,1730998733.0 s
1112.743,1730998733.0 s
1110.815,1730998733.0 s
1108.886,1730998733.0 s
1106.958,1730998733.0 s
1105.029,1730998733.0 s
1103.101,1730998733.0 s
1101.172,1730998733.0 s
1099.244,1730998733.0 s
1097.315,1730998733.0 s
1095.387,1730998733.0 s
1093.458,1730998733.0 s
1091.53,1730998733.0 s
1089.601,1730998733.0 s
1087.673,1730998733.0 s
1085.744,1730998733.0 s
1083.816,1730998733.0 s
1081.887,1730998733.0 s
1079.959,1730998733.0 s
1078.03,1730998733.0 s
1076.102,1730998733.0 s
1074.173,1730998733.0 s
1072.245,1730998733.0 s
1070.316,1730998733.0 s
1068.388,1730998733.0 s
1066.459,1730998733.0 s
1064.531,1730998733.0 s
1062.602,1730998733.0 s
1060.674,1730998733.0 s
1058.745,1730998733.0 s
1056.817,1730998733.0 s
1054.888,1730998733.0 s
1052.96,1730998733.0 s
1051.031,1730998733.0 s
1049.103,1730998733.0 s
1047.174,1730998733.0 s
1045.246,1730998733.0 s
1043.317,1730998733.0 s
1041.389,1730998733.0 s
1039.46,1730998733.0 s
1037.532,1730998733.0 s
1035.603,1730998733.0 s
1033.675,1730998733.0 s
1031.746,1730998733.0 s
1029.818,1730998733.0 s
1027.889,1730998733.0 s
1025.961,1730998733.0 s
1024.032,1730998733.0 s
1022.104,1730998733.0 s
1020.175,1730998733.0 s
1018.247,1730998733.0 s
1016.318,1730998733.0 s
1014.39,1730998733.0 s
1012.461,1730998733.0 s
1010.533,1730998733.0 s
1008.604,1730998733.0 s
1006.676,1730998733.0 s
1004.747,1730998733.0 s
1002.819,1730998733.0 s
1000.89,1730998733.0 s
998.962,1730998733.0 s
997.033,1730998733.0 s
995.105,1730998733.0 s
993.176,1730998733.0 s
991.248,1730998733.0 s
989.319,1730998733.0 s
987.391,1730998733.0 s
985.462,1730998733.0 s
983.534,1730998733.0 s
981.605,1730998733.0 s
979.677,1730998733.0 s
977.748,1730998733.0 s
975.82,1730998733.0 s
973.891,1730998733.0 s
971.963,1730998733.0 s
970.034,1730998733.0 s
968.106,1730998733.0 s
966.177,1730998733.0 s
964.249,1730998733.0 s
962.32,1730998733.0 s
960.392,1730998733.0 s
958.463,1730998733.0 s
956.535,1730998733.0 s
954.606,1730998733.0 s
952.678,1730998733.0 s
950.749,1730998733.0 s
948.821,1730998733.0 s
946.892,1730998733.0 s
944.964,1730998733.0 s
943.035,1730998733.0 s
941.107,1730998733.0 s
939.178,1730998733.0 s
937.25,1730998733.0 s
935.321,1730998733.0 s
933.393,1730998733.0 s
931.464,1730998733.0 s
929.536,1730998733.0 s
927.607,1730998733.0 s
925.679,1730998733.0 s
923.75,1730998733.0 s
921.822,1730998733.0 s
919.893,1730998733.0 s
917.965,1730998733.0 s
916.036,1730998733.0 s
914.108,1730998733.0 s
912.179,1730998733.0 s
910.251,1730998733.0 s
908.322,1730998733.0 s
906.394,1730998733.0 s
904.465,1730998733.0 s
902.537,1730998733.0 s
900.608,1730998733.0 s
898.68,1730998733.0 s
896.751,1730998733.0 s
894.823,1730998733.0 s
892.894,1730998733.0 s
890.966,1730998733.0 s
889.037,1730998733.0 s
887.109,1730998733.0 s
885.18,1730998733.0 s
883.252,1730998733.0 s
881.323,1730998733.0 s
879.395,1730998733.0 s
877.466,1730998733.0 s
875.538,1730998733.0 s
873.609,1730998733.0 s
871.681,1730998733.0 s
869.752,1730998733.0 s
867.824,1730998733.0 s
865.895,1730998733.0 s
863.967,1730998733.0 s
862.038,1730998733.0 s
860.11,1730998733.0 s
858.181,1730998733.0 s
856.253,1730998733.0 s
854.324,1730998733.0 s
852.396,1730998733.0 s
850.467,1730998733.0 s
848.539,1730998733.0 s
846.61,1730998733.0 s
844.682,1730998733.0 s
842.753,1730998733.0 s
840.825,1730998733.0 s
838.896,1730998733.0 s
836.968,1730998733.0 s
835.039,1730998733.0 s
833.111,1730998733.0 s
831.182,1730998733.0 s
829.254,1730998733.0 s
827.325,1730998733.0 s
825.397,1730998733.0 s
823.468,1730998733.0 s
821.54,1730998733.0 s
819.611,1730998733.0 s
817.683,1730998733.0 s
815.754,1730998733.0 s
813.826,1730998733.0 s
811.897,1730998733.0 s
809.969,1730998733.0 s
808.04,1730998733.0 s
806.112,1730998733.0 s
804.183,1730998733.0 s
802.255,1730998733.0 s
800.326,1730998733.0 s
798.398,1730998733.0 s
796.47,1730998733.0 s
794.541,1730998733.0 s
792.613,1730998733.0 s
790.684,1730998733.0 s
788.756,1730998733.0 s
786.827,1730998733.0 s
784.899,1730998733.0 s
782.97,1730998733.0 s
781.042,1730998733.0 s
779.113,1730998733.0 s
777.185,1730998733.0 s
775.256,1730998733.0 s
773.328,1730998733.0 s
771.399,1730998733.0 s
769.471,1730998733.0 s
767.542,1730998733.0 s
765.614,1730998733.0 s
763.685,1730998733.0 s
761.757,1730998733.0 s
759.828,1730998733.0 s
757.9,1730998733.0 s
755.971,1730998733.0 s
754.043,1730998733.0 s
752.114,1730998733.0 s
750.186,1730998733.0 s
748.257,1730998733.0 s
746.329,1730998733.0 s
744.4,1730998733.0 s
742.472,1730998733.0 s
740.543,1730998733.0 s
738.615,1730998733.0 s
736.686,1730998733.0 s
734.758,1730998733.0 s
732.829,1730998733.0 s
730.901,1730998733.0 s
728.972,1730998733.0 s
727.044,1730998733.0 s
725.115,1730998733.0 s
723.187,1730998733.0 s
721.258,1730998733.0 s
719.33,1730998733.0 s
717.401,1730998733.0 s
715.473,1730998733.0 s
713.544,1730998733.0 s
711.616,1730998733.0 s
709.687,1730998733.0 s
707.759,1730998733.0 s
705.83,1730998733.0 s
703.902,1730998733.0 s
701.973,1730998733.0 s
700.045,1730998733.0 s
698.116,1730998733.0 s
696.188,1730998733.0 s
694.259,1730998733.0 s
692.331,1730998733.0 s
690.402,1730998733.0 s
688.474,1730998733.0 s
686.545,1730998733.0 s
684.617,1730998733.0 s
682.688,1730998733.0 s
680.76,1730998733.0 s
678.831,1730998733.0 s
676.903,1730998733.0 s
674.974,1730998733.0 s
673.046,1730998733.0 s
671.117,1730998733.0 s
669.189,1730998733.0 s
667.26,1730998733.0 s
665.332,1730998733.0 s
663.403,1730998733.0 s
661.475,1730998733.0 s
659.546,1730998733.0 s
657.618,1730998733.0 s
655.689,1730998733.0 s
653.761,1730998733.0 s
651.832,1730998733.0 s
649.904,1730998733.0 s
647.975,1730998733.0 s
646.047,1730998733.0 s
644.118,1730998733.0 s
642.19,1730998733.0 s
640.261,1730998733.0 s
638.333,1730998733.0 s
636.404,1730998733.0 s
634.476,1730998733.0 s
632.547,1730998733.0 s
630.619,1730998733.0 s
628.69,1730998733.0 s
626.762,1730998733.0 s
624.833,1730998733.0 s
622.905,1730998733.0 s
620.976,1730998733.0 s
619.048,1730998733.0 s
617.119,1730998733.0 s
615.191,1730998733.0 s
613.262,1730998733.0 s
611.334,1730998733.0 s
609.405,1730998733.0 s
607.477,1730998733.0 s
605.548,1730998733.0 s
603.62,1730998733.0 s
601.691,1730998733.0 s
599.763,1730998733.0 s
597.834,1730998733.0 s
595.906,1730998733.0 s
593.977,1730998733.0 s
592.049,1730998733.0 s
590.12,1730998733.0 s
588.192,1730998733.0 s
586.263,1730998733.0 s
584.335,1730998733.0 s
582.406,1730998733.0 s
580.478,1730998733.0 s
578.549,1730998733.0 s
576.621,1730998733.0 s
574.692,1730998733.0 s
572.764,1730998733.0 s
570.835,1730998733.0 s
568.907,1730998733.0 s
566.978,1730998733.0 s
565.05,1730998733.0 s
563.121,1730998733.0 s
561.193,1730998733.0 s
559.264,1730998733.0 s
557.336,1730998733.0 s
555.407,1730998733.0 s
553.479,1730998733.0 s
551.55,1730998733.0 s
549.622,1730998733.0 s
547.693,1730998733.0 s
545.765,1730998733.0 s
543.836,1730998733.0 s
541.908,1730998733.0 s
539.979,1730998733.0 s
538.051,1730998733.0 s
536.122,1730998733.0 s
534.194,1730998733.0 s
532.265,1730998733.0 s
530.337,1730998733.0 s
528.408,1730998733.0 s
526.48,1730998733.0 s
524.551,1730998733.0 s
522.623,1730998733.0 s
520.694,1730998733.0 s
518.766,1730998733.0 s
516.837,1730998733.0 s
514.909,1730998733.0 s
512.98,1730998733.0 s
511.052,1730998733.0 s
509.123,1730998733.0 s
507.195,1730998733.0 s
505.266,1730998733.0 s
503.338,1730998733.0 s
501.409,1730998733.0 s
499.481,1730998733.0 s
497.552,1730998733.0 s
495.624,1730998733.0 s
493.695,1730998733.0 s
491.767,1730998733.0 s
489.838,1730998733.0 s
487.91,1730998733.0 s
485.981,1730998733.0 s
484.053,1730998733.0 s
482.124,1730998733.0 s
480.196,1730998733.0 s
478.267,1730998733.0 s
476.339,1730998733.0 s
474.41,1730998733.0 s
472.482,1730998733.0 s
470.553,1730998733.0 s
468.625,1730998733.0 s
466.696,1730998733.0 s
464.768,1730998733.0 s
462.839,1730998733.0 s
460.911,1730998733.0 s
458.982,1730998733.0 s
457.054,1730998733.0 s
455.125,1730998733.0 s
453.197,1730998733.0 s
451.268,1730998733.0 s
449.34,1730998733.0 s
447.411,1730998733.0 s
445.483,1730998733.0 s
443.554,1730998733.0 s
441.626,1730998733.0 s
439.697,1730998733.0 s
437.769,1730998733.0 s
435.84,1730998733.0 s
433.912,1730998733.0 s
431.983,1730998733.0 s
430.055,1730998733.0 s
428.126,1730998733.0 s
426.198,1730998733.0 s
424.269,1730998733.0 s
422.341,1730998733.0 s
420.412,1730998733.0 s
418.484,1730998733.0 s
416.555,1730998733.0 s
414.627,1730998733.0 s
412.698,1730998733.0 s
410.77,1730998733.0 s
408.841,1730998733.0 s
406.913,1730998733.0 s
404.984,1730998733.0 s
403.056,1730998733.0 s
401.127,1730998733.0 s
399.199,1730998733.0 s
