3.991989e+002,-8.386112e-003
4.011274e+002,-1.258430e-002
4.030559e+002,-2.143322e-002
4.049844e+002,-2.430676e-002
4.069129e+002,-1.808592e-002
4.088414e+002,-1.232109e-002
4.107699e+002,-1.964922e-002
4.126984e+002,-2.467899e-002
4.146269e+002,-1.497454e-002
4.165554e+002,-6.453833e-003
4.184839e+002,-6.457000e-003
4.204124e+002,-2.419422e-003
4.223409e+002,-1.718010e-003
4.242694e+002,-6.381191e-003
4.261979e+002,-1.447308e-002
4.281264e+002,-9.338011e-003
4.300549e+002,-4.560988e-003
4.319834e+002,-7.184473e-003
4.339119e+002,-7.480586e-003
4.358404e+002,-3.539922e-003
4.377689e+002,-2.632885e-003
4.396974e+002,-1.070835e-002
4.416259e+002,-1.943594e-002
4.435544e+002,-1.537270e-002
4.454829e+002,-1.120438e-002
4.474114e+002,-9.812677e-003
4.493399e+002,-9.461452e-003
4.512684e+002,-9.213693e-003
4.531969e+002,-9.862238e-003
4.551254e+002,-1.164563e-002
4.570539e+002,-1.155943e-002
4.589824e+002,-1.289120e-002
4.609109e+002,-1.413360e-002
4.628394e+002,-1.162760e-002
4.647679e+002,-1.291928e-002
4.666964e+002,-1.295636e-002
4.686249e+002,-1.060848e-002
4.705533e+002,-9.406594e-003
4.724819e+002,-1.138966e-002
4.744103e+002,-1.210963e-002
4.763389e+002,-1.142364e-002
4.782673e+002,-1.130341e-002
4.801959e+002,-1.374755e-002
4.821243e+002,-1.319129e-002
4.840529e+002,-1.306675e-002
4.859813e+002,-1.232579e-002
4.879099e+002,-1.221038e-002
4.898383e+002,-1.531379e-002
4.917668e+002,-1.746619e-002
4.936953e+002,-1.384734e-002
4.956238e+002,-1.168637e-002
4.975523e+002,-1.254725e-002
4.994808e+002,-1.424164e-002
5.014093e+002,-1.511568e-002
5.033378e+002,-1.429525e-002
5.052663e+002,-1.326203e-002
5.071948e+002,-1.329703e-002
5.091233e+002,-1.521110e-002
5.110518e+002,-1.562183e-002
5.129803e+002,-1.503382e-002
5.149088e+002,-1.658991e-002
5.168373e+002,-1.814493e-002
5.187658e+002,-1.795686e-002
5.206943e+002,-1.800985e-002
5.226228e+002,-1.741313e-002
5.245513e+002,-1.578942e-002
5.264798e+002,-1.598482e-002
5.284083e+002,-1.642468e-002
5.303368e+002,-1.560256e-002
5.322653e+002,-1.592707e-002
5.341938e+002,-1.629880e-002
5.361223e+002,-1.718926e-002
5.380508e+002,-1.774282e-002
5.399792e+002,-1.744401e-002
5.419078e+002,-1.603930e-002
5.438363e+002,-1.551110e-002
5.457648e+002,-1.618977e-002
5.476932e+002,-1.578926e-002
5.496218e+002,-1.564536e-002
5.515503e+002,-1.550310e-002
5.534788e+002,-1.576047e-002
5.554072e+002,-1.596077e-002
5.573358e+002,-1.600158e-002
5.592643e+002,-1.553402e-002
5.611927e+002,-1.552305e-002
5.631212e+002,-1.506352e-002
5.650497e+002,-1.535937e-002
5.669783e+002,-1.636023e-002
5.689067e+002,-1.611788e-002
5.708352e+002,-1.572637e-002
5.727637e+002,-1.563299e-002
5.746923e+002,-1.551935e-002
5.766207e+002,-1.707348e-002
5.785492e+002,-1.875223e-002
5.804777e+002,-2.181823e-002
5.824063e+002,-2.006353e-002
5.843347e+002,-1.659970e-002
5.862632e+002,-1.626187e-002
5.881917e+002,-1.531519e-002
5.901202e+002,-1.425170e-002
5.920487e+002,-1.448164e-002
5.939772e+002,-1.516157e-002
5.959057e+002,-1.476757e-002
5.978342e+002,-1.383046e-002
5.997627e+002,-1.286238e-002
6.016912e+002,-1.269897e-002
6.036197e+002,-1.199306e-002
6.055482e+002,-1.004423e-002
6.074767e+002,-8.967902e-003
6.094052e+002,-8.329330e-003
6.113337e+002,-8.843217e-003
6.132622e+002,-1.001762e-002
6.151907e+002,-9.513580e-003
6.171192e+002,-9.538312e-003
6.190477e+002,-1.000369e-002
6.209762e+002,-9.526255e-003
6.229047e+002,-1.060822e-002
6.248332e+002,-1.384398e-002
6.267617e+002,-1.600771e-002
6.286902e+002,-1.617860e-002
6.306187e+002,-1.540238e-002
6.325472e+002,-1.556935e-002
6.344756e+002,-1.579616e-002
6.364042e+002,-1.560972e-002
6.383326e+002,-1.580967e-002
6.402612e+002,-1.615057e-002
6.421896e+002,-1.546630e-002
6.441182e+002,-1.555016e-002
6.460466e+002,-1.630955e-002
6.479752e+002,-1.611909e-002
6.499036e+002,-1.558149e-002
6.518322e+002,-1.590391e-002
6.537606e+002,-1.622313e-002
6.556891e+002,-1.636696e-002
6.576177e+002,-1.654944e-002
6.595461e+002,-1.684590e-002
6.614746e+002,-1.701113e-002
6.634031e+002,-1.724633e-002
6.653317e+002,-1.666712e-002
6.672601e+002,-1.580574e-002
6.691886e+002,-1.576980e-002
6.711171e+002,-1.608355e-002
6.730457e+002,-1.621183e-002
6.749741e+002,-1.626072e-002
6.769026e+002,-1.609684e-002
6.788311e+002,-1.591720e-002
6.807596e+002,-1.566565e-002
6.826881e+002,-1.542013e-002
6.846166e+002,-1.511677e-002
6.865451e+002,-1.486991e-002
6.884736e+002,-1.483229e-002
6.904021e+002,-1.466123e-002
6.923306e+002,-1.424529e-002
6.942591e+002,-1.388460e-002
6.961876e+002,-1.420008e-002
6.981161e+002,-1.481887e-002
7.000446e+002,-1.455557e-002
7.019731e+002,-1.386811e-002
7.039016e+002,-1.360734e-002
7.058301e+002,-1.390049e-002
7.077585e+002,-1.408853e-002
7.096871e+002,-1.404875e-002
7.116156e+002,-1.388361e-002
7.135441e+002,-1.403284e-002
7.154725e+002,-1.466161e-002
7.174011e+002,-1.507943e-002
7.193296e+002,-1.489342e-002
7.212581e+002,-1.460247e-002
7.231865e+002,-1.446498e-002
7.251151e+002,-1.452968e-002
7.270436e+002,-1.460087e-002
7.289720e+002,-1.453336e-002
7.309005e+002,-1.463125e-002
7.328290e+002,-1.457591e-002
7.347576e+002,-1.413982e-002
7.366860e+002,-1.355243e-002
7.386145e+002,-1.336309e-002
7.405430e+002,-1.392513e-002
7.424716e+002,-1.425953e-002
7.444000e+002,-1.372476e-002
7.463285e+002,-1.304692e-002
7.482570e+002,-1.320839e-002
7.501855e+002,-1.290616e-002
7.521140e+002,-1.225503e-002
7.540425e+002,-1.192115e-002
7.559710e+002,-1.211053e-002
7.578995e+002,-1.266477e-002
7.598280e+002,-1.297456e-002
7.617565e+002,-1.277726e-002
7.636850e+002,-1.243576e-002
7.656135e+002,-1.211121e-002
7.675420e+002,-1.188272e-002
7.694705e+002,-1.137762e-002
7.713990e+002,-1.150835e-002
7.733275e+002,-1.182594e-002
7.752560e+002,-1.212091e-002
7.771844e+002,-1.230183e-002
7.791130e+002,-1.226453e-002
7.810415e+002,-1.228437e-002
7.829700e+002,-1.236698e-002
7.848984e+002,-1.231220e-002
7.868270e+002,-1.246484e-002
7.887555e+002,-1.288219e-002
7.906840e+002,-1.345385e-002
7.926124e+002,-1.392026e-002
7.945410e+002,-1.385717e-002
7.964695e+002,-1.369031e-002
7.983979e+002,-1.384093e-002
8.003264e+002,-1.378460e-002
8.022549e+002,-1.356312e-002
8.041835e+002,-1.374945e-002
8.061119e+002,-1.364873e-002
8.080404e+002,-1.323986e-002
8.099689e+002,-1.312781e-002
8.118975e+002,-1.305627e-002
8.138259e+002,-1.271912e-002
8.157545e+002,-1.246806e-002
8.176830e+002,-1.312093e-002
8.196115e+002,-1.381400e-002
8.215399e+002,-1.378286e-002
8.234684e+002,-1.332364e-002
8.253970e+002,-1.338822e-002
8.273254e+002,-1.373507e-002
8.292539e+002,-1.345064e-002
8.311824e+002,-1.357060e-002
8.331110e+002,-1.364873e-002
8.350394e+002,-1.320875e-002
8.369679e+002,-1.288139e-002
8.388964e+002,-1.315320e-002
8.408250e+002,-1.337032e-002
8.427534e+002,-1.345607e-002
8.446819e+002,-1.331284e-002
8.466104e+002,-1.329366e-002
8.485389e+002,-1.340740e-002
8.504674e+002,-1.389574e-002
8.523959e+002,-1.401359e-002
8.543244e+002,-1.393521e-002
8.562529e+002,-1.403445e-002
8.581814e+002,-1.424924e-002
8.601099e+002,-1.402729e-002
8.620384e+002,-1.415425e-002
8.639669e+002,-1.467645e-002
8.658954e+002,-1.468285e-002
8.678239e+002,-1.445100e-002
8.697524e+002,-1.500713e-002
8.716809e+002,-1.539845e-002
8.736094e+002,-1.532783e-002
8.755378e+002,-1.501090e-002
8.774664e+002,-1.483594e-002
8.793949e+002,-1.465739e-002
8.813234e+002,-1.456025e-002
8.832518e+002,-1.462394e-002
8.851804e+002,-1.496839e-002
8.871089e+002,-1.494150e-002
8.890374e+002,-1.440732e-002
8.909658e+002,-1.419206e-002
8.928943e+002,-1.407054e-002
8.948229e+002,-1.396730e-002
8.967513e+002,-1.405138e-002
8.986798e+002,-1.426277e-002
9.006083e+002,-1.417866e-002
9.025369e+002,-1.405761e-002
9.044653e+002,-1.408478e-002
9.063938e+002,-1.423301e-002
9.083223e+002,-1.401225e-002
9.102509e+002,-1.397962e-002
9.121793e+002,-1.429031e-002
9.141078e+002,-1.436953e-002
9.160364e+002,-1.422640e-002
9.179648e+002,-1.426100e-002
9.198933e+002,-1.453077e-002
9.218218e+002,-1.470306e-002
9.237504e+002,-1.472260e-002
9.256788e+002,-1.494960e-002
9.276073e+002,-1.499669e-002
9.295358e+002,-1.471898e-002
9.314644e+002,-1.453096e-002
9.333928e+002,-1.447408e-002
9.353213e+002,-1.458578e-002
9.372498e+002,-1.457604e-002
9.391783e+002,-1.467318e-002
9.411068e+002,-1.474996e-002
9.430353e+002,-1.453593e-002
9.449637e+002,-1.456637e-002
9.468923e+002,-1.467760e-002
9.488208e+002,-1.453397e-002
9.507493e+002,-1.442588e-002
9.526777e+002,-1.434683e-002
9.546063e+002,-1.427864e-002
9.565348e+002,-1.430265e-002
9.584633e+002,-1.439446e-002
9.603917e+002,-1.438789e-002
9.623203e+002,-1.455294e-002
9.642488e+002,-1.450234e-002
9.661772e+002,-1.418828e-002
9.681057e+002,-1.393585e-002
9.700343e+002,-1.418395e-002
9.719628e+002,-1.443584e-002
9.738912e+002,-1.463567e-002
9.758197e+002,-1.485234e-002
9.777483e+002,-1.488711e-002
9.796768e+002,-1.472840e-002
9.816052e+002,-1.453122e-002
9.835337e+002,-1.465934e-002
9.854623e+002,-1.475607e-002
9.873907e+002,-1.459946e-002
9.893192e+002,-1.459334e-002
9.912477e+002,-1.469461e-002
9.931763e+002,-1.470178e-002
9.951047e+002,-1.475031e-002
9.970332e+002,-1.474156e-002
9.989617e+002,-1.482268e-002
1.000890e+003,-1.474867e-002
1.002819e+003,-1.444238e-002
1.004747e+003,-1.403101e-002
1.006676e+003,-1.391448e-002
1.008604e+003,-1.392767e-002
1.010533e+003,-1.375006e-002
1.012461e+003,-1.347415e-002
1.014390e+003,-1.331888e-002
1.016318e+003,-1.309784e-002
1.018247e+003,-1.266924e-002
1.020175e+003,-1.261784e-002
1.022104e+003,-1.238827e-002
1.024032e+003,-1.181485e-002
1.025961e+003,-1.138488e-002
1.027889e+003,-1.108903e-002
1.029818e+003,-1.064075e-002
1.031746e+003,-1.021294e-002
1.033675e+003,-9.753360e-003
1.035603e+003,-9.039950e-003
1.037532e+003,-8.663706e-003
1.039460e+003,-8.589095e-003
1.041389e+003,-8.252645e-003
1.043317e+003,-7.967566e-003
1.045246e+003,-7.826941e-003
1.047174e+003,-7.582513e-003
1.049103e+003,-7.379124e-003
1.051031e+003,-7.161528e-003
1.052960e+003,-6.965834e-003
1.054888e+003,-7.040855e-003
1.056817e+003,-7.360588e-003
1.058745e+003,-7.354333e-003
1.060674e+003,-7.257436e-003
1.062602e+003,-6.967692e-003
1.064531e+003,-6.793342e-003
1.066459e+003,-6.899539e-003
1.068388e+003,-7.058069e-003
1.070316e+003,-7.057808e-003
1.072245e+003,-6.873807e-003
1.074173e+003,-6.906975e-003
1.076102e+003,-7.174695e-003
1.078030e+003,-7.435151e-003
1.079959e+003,-7.459905e-003
1.081887e+003,-7.253787e-003
1.083816e+003,-7.228826e-003
1.085744e+003,-7.069739e-003
1.087673e+003,-6.900126e-003
1.089601e+003,-7.150838e-003
1.091530e+003,-7.112670e-003
1.093458e+003,-6.725031e-003
1.095387e+003,-6.669826e-003
1.097315e+003,-6.510143e-003
1.099244e+003,-6.485367e-003
1.101172e+003,-6.487065e-003
1.103101e+003,-6.478023e-003
1.105029e+003,-6.635238e-003
1.106958e+003,-6.752891e-003
1.108886e+003,-6.724411e-003
1.110815e+003,-6.653381e-003
1.112743e+003,-6.658699e-003
1.114672e+003,-6.781142e-003
1.116600e+003,-6.721768e-003
1.118529e+003,-6.728848e-003
1.120457e+003,-6.721703e-003
1.122386e+003,-6.689599e-003
1.124314e+003,-6.829777e-003
1.126243e+003,-7.132455e-003
1.128171e+003,-7.124502e-003
1.130100e+003,-6.876514e-003
1.132028e+003,-6.998570e-003
1.133957e+003,-7.270633e-003
1.135885e+003,-7.525886e-003
1.137814e+003,-7.818513e-003
1.139742e+003,-8.088274e-003
1.141671e+003,-8.385982e-003
1.143599e+003,-8.622650e-003
1.145528e+003,-8.898146e-003
1.147456e+003,-9.231469e-003
1.149385e+003,-9.435937e-003
1.151313e+003,-9.671839e-003
1.153242e+003,-9.968237e-003
1.155170e+003,-1.013400e-002
1.157099e+003,-1.030291e-002
1.159027e+003,-1.055613e-002
1.160956e+003,-1.062772e-002
1.162884e+003,-1.067153e-002
1.164813e+003,-1.074846e-002
1.166741e+003,-1.087309e-002
1.168670e+003,-1.082167e-002
1.170598e+003,-1.059904e-002
1.172526e+003,-1.062377e-002
1.174455e+003,-1.072503e-002
1.176384e+003,-1.085848e-002
1.178312e+003,-1.095325e-002
1.180240e+003,-1.088420e-002
1.182169e+003,-1.093914e-002
1.184098e+003,-1.100940e-002
1.186026e+003,-1.108005e-002
1.187954e+003,-1.114445e-002
1.189883e+003,-1.149244e-002
1.191812e+003,-1.173104e-002
1.193740e+003,-1.171749e-002
1.195668e+003,-1.173333e-002
1.197597e+003,-1.179347e-002
1.199526e+003,-1.178841e-002
1.201454e+003,-1.185238e-002
1.203382e+003,-1.188723e-002
1.205311e+003,-1.186312e-002
1.207240e+003,-1.200096e-002
1.209168e+003,-1.198288e-002
1.211096e+003,-1.191967e-002
1.213025e+003,-1.180959e-002
1.214953e+003,-1.168417e-002
1.216882e+003,-1.170137e-002
1.218810e+003,-1.175190e-002
1.220739e+003,-1.178896e-002
1.222667e+003,-1.171472e-002
1.224596e+003,-1.169617e-002
1.226524e+003,-1.160360e-002
1.228453e+003,-1.142112e-002
1.230381e+003,-1.117193e-002
1.232310e+003,-1.104406e-002
1.234238e+003,-1.104604e-002
1.236167e+003,-1.104862e-002
1.238095e+003,-1.104817e-002
1.240024e+003,-1.096081e-002
1.241952e+003,-1.076941e-002
1.243881e+003,-1.091161e-002
1.245809e+003,-1.106774e-002
1.247738e+003,-1.115020e-002
1.249666e+003,-1.132552e-002
1.251595e+003,-1.138536e-002
1.253523e+003,-1.121291e-002
1.255452e+003,-1.129763e-002
1.257380e+003,-1.154843e-002
1.259309e+003,-1.158798e-002
1.261237e+003,-1.156166e-002
1.263166e+003,-1.143887e-002
1.265094e+003,-1.133075e-002
1.267023e+003,-1.101838e-002
1.268951e+003,-1.063939e-002
1.270880e+003,-1.040741e-002
1.272808e+003,-1.019016e-002
1.274737e+003,-9.989706e-003
1.276665e+003,-9.738328e-003
1.278594e+003,-9.536368e-003
1.280522e+003,-9.477467e-003
1.282451e+003,-9.346962e-003
1.284379e+003,-9.082783e-003
1.286308e+003,-8.670820e-003
1.288236e+003,-8.573469e-003
1.290165e+003,-8.540884e-003
1.292093e+003,-8.336157e-003
1.294022e+003,-8.279108e-003
1.295950e+003,-8.189603e-003
1.297879e+003,-8.085477e-003
1.299807e+003,-8.108567e-003
1.301736e+003,-8.216362e-003
1.303664e+003,-8.179035e-003
1.305593e+003,-8.233204e-003
1.307521e+003,-8.450296e-003
1.309450e+003,-8.723076e-003
1.311378e+003,-9.043714e-003
1.313307e+003,-9.206394e-003
1.315235e+003,-9.314078e-003
1.317164e+003,-9.466380e-003
1.319092e+003,-9.747723e-003
1.321021e+003,-1.019071e-002
1.322949e+003,-1.048695e-002
1.324878e+003,-1.064317e-002
1.326806e+003,-1.074562e-002
1.328735e+003,-1.076618e-002
1.330663e+003,-1.088895e-002
1.332592e+003,-1.090828e-002
1.334520e+003,-1.093439e-002
1.336449e+003,-1.098404e-002
1.338377e+003,-1.106874e-002
1.340306e+003,-1.113314e-002
1.342234e+003,-1.104352e-002
1.344163e+003,-1.108182e-002
1.346091e+003,-1.122082e-002
1.348020e+003,-1.119389e-002
1.349948e+003,-1.115808e-002
1.351877e+003,-1.135215e-002
1.353805e+003,-1.141958e-002
1.355734e+003,-1.138301e-002
1.357662e+003,-1.158314e-002
1.359591e+003,-1.173207e-002
1.361519e+003,-1.174068e-002
1.363448e+003,-1.180653e-002
1.365376e+003,-1.193685e-002
1.367305e+003,-1.200096e-002
1.369233e+003,-1.206058e-002
1.371162e+003,-1.224939e-002
1.373090e+003,-1.225055e-002
1.375019e+003,-1.209890e-002
1.376947e+003,-1.212526e-002
1.378876e+003,-1.206854e-002
1.380804e+003,-1.196647e-002
1.382733e+003,-1.201859e-002
1.384661e+003,-1.235706e-002
1.386590e+003,-1.252517e-002
1.388518e+003,-1.242520e-002
1.390447e+003,-1.249426e-002
1.392375e+003,-1.269646e-002
1.394304e+003,-1.273463e-002
1.396232e+003,-1.273582e-002
1.398161e+003,-1.278392e-002
1.400089e+003,-1.283365e-002
1.402018e+003,-1.304888e-002
1.403946e+003,-1.309228e-002
1.405875e+003,-1.303566e-002
1.407803e+003,-1.313317e-002
1.409732e+003,-1.331454e-002
1.411660e+003,-1.337791e-002
1.413589e+003,-1.327990e-002
1.415517e+003,-1.307675e-002
1.417446e+003,-1.290506e-002
1.419374e+003,-1.263474e-002
1.421303e+003,-1.222597e-002
1.423231e+003,-1.181501e-002
1.425160e+003,-1.129233e-002
1.427088e+003,-1.086369e-002
1.429017e+003,-1.048368e-002
1.430945e+003,-1.019676e-002
1.432874e+003,-9.844876e-003
1.434802e+003,-9.414052e-003
1.436731e+003,-8.930055e-003
1.438659e+003,-8.634929e-003
1.440588e+003,-8.414419e-003
1.442516e+003,-8.065963e-003
1.444445e+003,-7.668626e-003
1.446373e+003,-7.248997e-003
1.448302e+003,-6.842562e-003
1.450230e+003,-6.583089e-003
1.452159e+003,-6.102297e-003
1.454087e+003,-5.601641e-003
1.456016e+003,-5.301265e-003
1.457944e+003,-4.866791e-003
1.459873e+003,-4.726076e-003
1.461801e+003,-4.814201e-003
1.463730e+003,-4.825276e-003
1.465658e+003,-4.766782e-003
1.467587e+003,-5.001237e-003
1.469515e+003,-5.280512e-003
1.471444e+003,-5.471962e-003
1.473372e+003,-5.575603e-003
1.475301e+003,-5.845094e-003
1.477229e+003,-6.272483e-003
1.479158e+003,-6.814642e-003
1.481086e+003,-7.408442e-003
1.483015e+003,-7.860426e-003
1.484943e+003,-8.243998e-003
1.486872e+003,-8.574768e-003
1.488800e+003,-8.893536e-003
1.490729e+003,-9.264910e-003
1.492657e+003,-9.794342e-003
1.494586e+003,-1.003488e-002
1.496514e+003,-1.007275e-002
1.498443e+003,-1.039563e-002
1.500371e+003,-1.085208e-002
1.502300e+003,-1.110695e-002
1.504228e+003,-1.124222e-002
1.506157e+003,-1.111412e-002
1.508085e+003,-1.118481e-002
1.510014e+003,-1.159718e-002
1.511942e+003,-1.175474e-002
1.513871e+003,-1.181485e-002
1.515799e+003,-1.198626e-002
1.517728e+003,-1.199729e-002
1.519656e+003,-1.193269e-002
1.521585e+003,-1.176068e-002
1.523513e+003,-1.177632e-002
1.525442e+003,-1.181201e-002
1.527370e+003,-1.180959e-002
1.529299e+003,-1.183449e-002
1.531227e+003,-1.180834e-002
1.533156e+003,-1.153726e-002
1.535084e+003,-1.131470e-002
1.537013e+003,-1.135170e-002
1.538941e+003,-1.107656e-002
1.540870e+003,-1.078098e-002
1.542798e+003,-1.073437e-002
1.544727e+003,-1.064547e-002
1.546655e+003,-1.064637e-002
1.548584e+003,-1.057003e-002
1.550512e+003,-1.044082e-002
1.552441e+003,-1.050920e-002
1.554369e+003,-1.027728e-002
1.556298e+003,-1.007797e-002
1.558226e+003,-9.762626e-003
1.560155e+003,-9.338141e-003
1.562083e+003,-9.219467e-003
1.564012e+003,-8.955470e-003
1.565940e+003,-8.673353e-003
1.567869e+003,-8.498321e-003
1.569797e+003,-8.209632e-003
1.571726e+003,-7.999381e-003
1.573654e+003,-8.009660e-003
1.575583e+003,-7.764813e-003
1.577511e+003,-7.673477e-003
1.579440e+003,-7.859742e-003
1.581368e+003,-7.761754e-003
1.583297e+003,-7.809270e-003
1.585225e+003,-7.891468e-003
1.587154e+003,-7.939165e-003
1.589082e+003,-8.041081e-003
1.591010e+003,-8.279986e-003
1.592939e+003,-8.578082e-003
1.594868e+003,-8.840847e-003
1.596796e+003,-9.130058e-003
1.598724e+003,-9.412268e-003
1.600653e+003,-9.850026e-003
1.602582e+003,-1.024133e-002
1.604510e+003,-1.051496e-002
1.606438e+003,-1.071931e-002
1.608367e+003,-1.096779e-002
1.610296e+003,-1.122117e-002
1.612224e+003,-1.155953e-002
1.614152e+003,-1.186180e-002
1.616081e+003,-1.196083e-002
1.618010e+003,-1.206851e-002
1.619938e+003,-1.239007e-002
1.621866e+003,-1.262956e-002
1.623795e+003,-1.275271e-002
1.625724e+003,-1.276452e-002
1.627652e+003,-1.287264e-002
1.629580e+003,-1.309328e-002
1.631509e+003,-1.327428e-002
1.633438e+003,-1.341954e-002
1.635366e+003,-1.348061e-002
1.637294e+003,-1.370055e-002
1.639223e+003,-1.410858e-002
1.641151e+003,-1.447433e-002
1.643080e+003,-1.492873e-002
1.645008e+003,-1.527665e-002
1.646937e+003,-1.536512e-002
1.648865e+003,-1.558133e-002
1.650794e+003,-1.594065e-002
1.652722e+003,-1.574612e-002
1.654651e+003,-1.589149e-002
1.656579e+003,-1.629813e-002
1.658508e+003,-1.656284e-002
1.660436e+003,-1.671606e-002
1.662365e+003,-1.675343e-002
1.664293e+003,-1.673557e-002
1.666222e+003,-1.681457e-002
1.668150e+003,-1.682767e-002
1.670079e+003,-1.693386e-002
1.672007e+003,-1.708648e-002
1.673936e+003,-1.704892e-002
1.675864e+003,-1.696700e-002
1.677793e+003,-1.716955e-002
1.679721e+003,-1.715716e-002
1.681650e+003,-1.725764e-002
1.683578e+003,-1.706733e-002
1.685507e+003,-1.677813e-002
1.687435e+003,-1.704019e-002
1.689364e+003,-1.713283e-002
1.691292e+003,-1.709161e-002
1.693221e+003,-1.713964e-002
1.695149e+003,-1.690292e-002
1.697078e+003,-1.661431e-002
1.699006e+003,-1.664221e-002
1.700935e+003,-1.632924e-002
1.702863e+003,-1.629874e-002
1.704792e+003,-1.622791e-002
1.706720e+003,-1.602898e-002
1.708649e+003,-1.604386e-002
1.710577e+003,-1.614508e-002
1.712506e+003,-1.610692e-002
1.714434e+003,-1.604760e-002
1.716363e+003,-1.594374e-002
1.718291e+003,-1.575580e-002
1.720220e+003,-1.588126e-002
1.722148e+003,-1.605258e-002
1.724077e+003,-1.601078e-002
1.726005e+003,-1.600557e-002
1.727934e+003,-1.611034e-002
1.729862e+003,-1.608381e-002
1.731791e+003,-1.604683e-002
1.733719e+003,-1.590196e-002
1.735648e+003,-1.596601e-002
1.737576e+003,-1.621665e-002
1.739505e+003,-1.597549e-002
1.741433e+003,-1.587072e-002
1.743362e+003,-1.606392e-002
1.745290e+003,-1.601461e-002
1.747219e+003,-1.582037e-002
1.749147e+003,-1.569499e-002
1.751076e+003,-1.557459e-002
1.753004e+003,-1.559517e-002
1.754933e+003,-1.561061e-002
1.756861e+003,-1.541399e-002
1.758790e+003,-1.551586e-002
1.760718e+003,-1.558827e-002
1.762647e+003,-1.548561e-002
1.764575e+003,-1.547992e-002
1.766504e+003,-1.544619e-002
1.768432e+003,-1.540545e-002
1.770361e+003,-1.536336e-002
1.772289e+003,-1.528295e-002
1.774218e+003,-1.538156e-002
1.776146e+003,-1.546589e-002
1.778075e+003,-1.552283e-002
1.780003e+003,-1.557066e-002
1.781932e+003,-1.553603e-002
1.783860e+003,-1.548312e-002
1.785789e+003,-1.535767e-002
1.787717e+003,-1.538294e-002
1.789646e+003,-1.543676e-002
1.791574e+003,-1.548133e-002
1.793503e+003,-1.555710e-002
1.795431e+003,-1.569320e-002
1.797360e+003,-1.557989e-002
1.799288e+003,-1.545738e-002
1.801217e+003,-1.553092e-002
1.803145e+003,-1.554936e-002
1.805074e+003,-1.549805e-002
1.807002e+003,-1.552628e-002
1.808931e+003,-1.558894e-002
1.810859e+003,-1.554978e-002
1.812788e+003,-1.544945e-002
1.814716e+003,-1.545729e-002
1.816645e+003,-1.549796e-002
1.818573e+003,-1.553364e-002
1.820502e+003,-1.552194e-002
1.822430e+003,-1.560102e-002
1.824359e+003,-1.560022e-002
1.826287e+003,-1.561585e-002
1.828216e+003,-1.570969e-002
1.830144e+003,-1.563861e-002
1.832073e+003,-1.558642e-002
1.834001e+003,-1.561464e-002
1.835930e+003,-1.572391e-002
1.837858e+003,-1.580510e-002
1.839787e+003,-1.584188e-002
1.841715e+003,-1.580469e-002
1.843644e+003,-1.573928e-002
1.845572e+003,-1.575877e-002
1.847501e+003,-1.582804e-002
1.849429e+003,-1.575302e-002
1.851358e+003,-1.568585e-002
1.853286e+003,-1.570010e-002
1.855215e+003,-1.564721e-002
1.857143e+003,-1.564075e-002
1.859072e+003,-1.571746e-002
1.861000e+003,-1.572545e-002
1.862929e+003,-1.568243e-002
1.864857e+003,-1.560655e-002
1.866786e+003,-1.564552e-002
1.868714e+003,-1.564047e-002
1.870643e+003,-1.566600e-002
1.872571e+003,-1.566498e-002
1.874500e+003,-1.562989e-002
1.876428e+003,-1.559313e-002
1.878357e+003,-1.559802e-002
1.880285e+003,-1.566169e-002
1.882214e+003,-1.570154e-002
1.884142e+003,-1.573129e-002
1.886071e+003,-1.580692e-002
1.887999e+003,-1.579517e-002
1.889928e+003,-1.573104e-002
1.891856e+003,-1.577123e-002
1.893785e+003,-1.577165e-002
1.895713e+003,-1.569400e-002
1.897642e+003,-1.565114e-002
1.899570e+003,-1.571621e-002
1.901499e+003,-1.570733e-002
1.903427e+003,-1.564766e-002
1.905356e+003,-1.571368e-002
1.907284e+003,-1.571985e-002
1.909213e+003,-1.571068e-002
1.911141e+003,-1.575401e-002
1.913070e+003,-1.573200e-002
1.914998e+003,-1.576226e-002
1.916927e+003,-1.582712e-002
1.918855e+003,-1.583504e-002
1.920784e+003,-1.581063e-002
1.922712e+003,-1.584737e-002
1.924641e+003,-1.590663e-002
1.926569e+003,-1.593352e-002
1.928498e+003,-1.590842e-002
1.930426e+003,-1.582082e-002
1.932355e+003,-1.582156e-002
1.934283e+003,-1.584312e-002
1.936212e+003,-1.583025e-002
1.938140e+003,-1.582482e-002
1.940069e+003,-1.583095e-002
1.941997e+003,-1.581584e-002
1.943926e+003,-1.577149e-002
1.945854e+003,-1.582561e-002
1.947783e+003,-1.588622e-002
1.949711e+003,-1.592397e-002
1.951640e+003,-1.592627e-002
1.953568e+003,-1.591755e-002
1.955497e+003,-1.593812e-002
1.957425e+003,-1.598597e-002
1.959354e+003,-1.603572e-002
1.961282e+003,-1.604227e-002
1.963211e+003,-1.604750e-002
1.965139e+003,-1.596313e-002
1.967068e+003,-1.595882e-002
1.968996e+003,-1.597638e-002
1.970925e+003,-1.597453e-002
1.972853e+003,-1.604182e-002
1.974782e+003,-1.601330e-002
1.976710e+003,-1.596287e-002
1.978639e+003,-1.592650e-002
1.980567e+003,-1.589609e-002
1.982496e+003,-1.588960e-002
1.984424e+003,-1.596387e-002
1.986353e+003,-1.603173e-002
1.988281e+003,-1.600433e-002
1.990210e+003,-1.590922e-002
1.992138e+003,-1.584025e-002
1.994067e+003,-1.587893e-002
1.995995e+003,-1.586654e-002
1.997924e+003,-1.575136e-002
1.999852e+003,-1.566898e-002
2.001781e+003,-1.572845e-002
2.003709e+003,-1.580875e-002
2.005638e+003,-1.580293e-002
2.007566e+003,-1.586858e-002
2.009495e+003,-1.593528e-002
2.011423e+003,-1.591554e-002
2.013352e+003,-1.583510e-002
2.015280e+003,-1.579587e-002
2.017208e+003,-1.584322e-002
2.019137e+003,-1.591465e-002
2.021066e+003,-1.589570e-002
2.022994e+003,-1.581577e-002
2.024922e+003,-1.578376e-002
2.026851e+003,-1.584034e-002
2.028780e+003,-1.587957e-002
2.030708e+003,-1.585890e-002
2.032636e+003,-1.583983e-002
2.034565e+003,-1.587523e-002
2.036494e+003,-1.587309e-002
2.038422e+003,-1.583089e-002
2.040350e+003,-1.581986e-002
2.042279e+003,-1.580954e-002
2.044208e+003,-1.581606e-002
2.046136e+003,-1.579785e-002
2.048064e+003,-1.577299e-002
2.049993e+003,-1.576059e-002
2.051921e+003,-1.578708e-002
2.053850e+003,-1.583168e-002
2.055778e+003,-1.584264e-002
2.057707e+003,-1.582910e-002
2.059635e+003,-1.575318e-002
2.061564e+003,-1.572417e-002
2.063492e+003,-1.576475e-002
2.065421e+003,-1.581204e-002
2.067349e+003,-1.579881e-002
2.069278e+003,-1.577964e-002
2.071206e+003,-1.573449e-002
2.073135e+003,-1.567124e-002
2.075063e+003,-1.566098e-002
2.076992e+003,-1.568166e-002
2.078920e+003,-1.564967e-002
2.080849e+003,-1.566677e-002
2.082777e+003,-1.564846e-002
2.084706e+003,-1.565689e-002
2.086634e+003,-1.574123e-002
2.088563e+003,-1.574644e-002
2.090491e+003,-1.564865e-002
2.092420e+003,-1.561339e-002
2.094348e+003,-1.562957e-002
2.096277e+003,-1.555707e-002
2.098205e+003,-1.550576e-002
2.100134e+003,-1.558482e-002
2.102062e+003,-1.556976e-002
2.103991e+003,-1.546394e-002
2.105919e+003,-1.542486e-002
2.107848e+003,-1.549322e-002
2.109776e+003,-1.557309e-002
2.111705e+003,-1.553897e-002
2.113633e+003,-1.546224e-002
2.115562e+003,-1.547637e-002
2.117490e+003,-1.548456e-002
2.119419e+003,-1.545380e-002
2.121347e+003,-1.549492e-002
2.123276e+003,-1.548107e-002
2.125204e+003,-1.538236e-002
2.127133e+003,-1.536487e-002
2.129061e+003,-1.533451e-002
2.130990e+003,-1.524120e-002
2.132918e+003,-1.519190e-002
2.134847e+003,-1.526401e-002
2.136775e+003,-1.528484e-002
2.138704e+003,-1.529511e-002
2.140632e+003,-1.528551e-002
2.142561e+003,-1.530435e-002
2.144489e+003,-1.536774e-002
2.146418e+003,-1.525551e-002
2.148346e+003,-1.509997e-002
2.150275e+003,-1.506128e-002
2.152203e+003,-1.514112e-002
2.154132e+003,-1.516743e-002
2.156060e+003,-1.516308e-002
2.157989e+003,-1.521078e-002
2.159917e+003,-1.518762e-002
2.161846e+003,-1.510202e-002
2.163774e+003,-1.506390e-002
2.165703e+003,-1.507783e-002
2.167631e+003,-1.502947e-002
2.169560e+003,-1.497310e-002
2.171488e+003,-1.490661e-002
2.173417e+003,-1.500376e-002
2.175345e+003,-1.503846e-002
2.177274e+003,-1.502057e-002
2.179202e+003,-1.501052e-002
2.181131e+003,-1.498360e-002
2.183059e+003,-1.502531e-002
2.184988e+003,-1.509079e-002
2.186916e+003,-1.506272e-002
2.188845e+003,-1.499819e-002
2.190773e+003,-1.493107e-002
2.192702e+003,-1.489162e-002
2.194630e+003,-1.493638e-002
2.196559e+003,-1.500815e-002
2.198487e+003,-1.506397e-002
2.200416e+003,-1.510154e-002
2.202344e+003,-1.509412e-002
2.204273e+003,-1.506778e-002
2.206201e+003,-1.504678e-002
2.208130e+003,-1.508992e-002
2.210058e+003,-1.517002e-002
2.211987e+003,-1.523113e-002
2.213915e+003,-1.516503e-002
2.215844e+003,-1.518867e-002
2.217772e+003,-1.524127e-002
2.219701e+003,-1.516461e-002
2.221629e+003,-1.521276e-002
2.223558e+003,-1.525621e-002
2.225486e+003,-1.525675e-002
2.227415e+003,-1.523762e-002
2.229343e+003,-1.525064e-002
2.231272e+003,-1.525221e-002
2.233200e+003,-1.529655e-002
2.235129e+003,-1.524715e-002
2.237057e+003,-1.521212e-002
2.238986e+003,-1.529575e-002
2.240914e+003,-1.541408e-002
2.242843e+003,-1.545031e-002
2.244771e+003,-1.542432e-002
2.246700e+003,-1.541891e-002
2.248628e+003,-1.543995e-002
2.250557e+003,-1.544226e-002
2.252485e+003,-1.551765e-002
2.254414e+003,-1.556439e-002
2.256342e+003,-1.554371e-002
2.258271e+003,-1.557254e-002
2.260199e+003,-1.561550e-002
2.262128e+003,-1.562918e-002
2.264056e+003,-1.554431e-002
2.265985e+003,-1.551720e-002
2.267913e+003,-1.564945e-002
2.269842e+003,-1.571956e-002
2.271770e+003,-1.565865e-002
2.273699e+003,-1.567559e-002
2.275627e+003,-1.567476e-002
2.277556e+003,-1.564977e-002
2.279484e+003,-1.578248e-002
2.281413e+003,-1.580654e-002
2.283341e+003,-1.579849e-002
2.285270e+003,-1.584996e-002
2.287198e+003,-1.574475e-002
2.289127e+003,-1.569924e-002
2.291055e+003,-1.571442e-002
2.292984e+003,-1.575686e-002
2.294912e+003,-1.583843e-002
2.296841e+003,-1.581549e-002
2.298769e+003,-1.582651e-002
2.300698e+003,-1.584089e-002
2.302626e+003,-1.585152e-002
2.304555e+003,-1.586695e-002
2.306483e+003,-1.583105e-002
2.308412e+003,-1.565673e-002
2.310340e+003,-1.563657e-002
2.312269e+003,-1.567751e-002
2.314197e+003,-1.563053e-002
2.316125e+003,-1.557484e-002
2.318054e+003,-1.555902e-002
2.319983e+003,-1.556151e-002
2.321911e+003,-1.547318e-002
2.323840e+003,-1.535268e-002
2.325768e+003,-1.529274e-002
2.327697e+003,-1.531372e-002
2.329625e+003,-1.533682e-002
2.331553e+003,-1.533317e-002
2.333482e+003,-1.521286e-002
2.335411e+003,-1.515898e-002
2.337339e+003,-1.519987e-002
2.339268e+003,-1.525202e-002
2.341196e+003,-1.525819e-002
2.343125e+003,-1.535572e-002
2.345053e+003,-1.546934e-002
2.346981e+003,-1.556154e-002
2.348910e+003,-1.565399e-002
2.350839e+003,-1.559658e-002
2.352767e+003,-1.544980e-002
2.354696e+003,-1.533643e-002
2.356624e+003,-1.519251e-002
2.358552e+003,-1.508576e-002
2.360481e+003,-1.508218e-002
2.362409e+003,-1.510586e-002
2.364338e+003,-1.512448e-002
2.366267e+003,-1.517367e-002
2.368195e+003,-1.530144e-002
2.370124e+003,-1.530128e-002
2.372052e+003,-1.530729e-002
2.373980e+003,-1.546010e-002
2.375909e+003,-1.561400e-002
2.377838e+003,-1.557590e-002
2.379766e+003,-1.554847e-002
2.381695e+003,-1.564731e-002
2.383623e+003,-1.562707e-002
2.385552e+003,-1.548187e-002
2.387480e+003,-1.538946e-002
2.389408e+003,-1.535642e-002
2.391337e+003,-1.534580e-002
2.393266e+003,-1.532319e-002
2.395194e+003,-1.529380e-002
2.397123e+003,-1.528628e-002
2.399051e+003,-1.538674e-002
2.400979e+003,-1.543788e-002
2.402908e+003,-1.537500e-002
2.404836e+003,-1.527886e-002
2.406765e+003,-1.531910e-002
2.408694e+003,-1.539448e-002
2.410622e+003,-1.533621e-002
2.412551e+003,-1.533912e-002
2.414479e+003,-1.532997e-002
2.416407e+003,-1.528903e-002
2.418336e+003,-1.531363e-002
2.420264e+003,-1.529504e-002
2.422193e+003,-1.523660e-002
2.424122e+003,-1.518118e-002
2.426050e+003,-1.515607e-002
2.427979e+003,-1.509997e-002
2.429907e+003,-1.511114e-002
2.431835e+003,-1.509898e-002
2.433764e+003,-1.508282e-002
2.435692e+003,-1.509488e-002
2.437621e+003,-1.503657e-002
2.439550e+003,-1.496730e-002
2.441478e+003,-1.497496e-002
2.443406e+003,-1.501010e-002
2.445335e+003,-1.505792e-002
2.447263e+003,-1.514292e-002
2.449192e+003,-1.518122e-002
2.451121e+003,-1.510199e-002
2.453049e+003,-1.503161e-002
2.454978e+003,-1.498040e-002
2.456906e+003,-1.495700e-002
2.458834e+003,-1.499906e-002
2.460763e+003,-1.502210e-002
2.462691e+003,-1.500386e-002
2.464620e+003,-1.491733e-002
2.466549e+003,-1.482758e-002
2.468477e+003,-1.487632e-002
2.470406e+003,-1.486831e-002
2.472334e+003,-1.491781e-002
2.474262e+003,-1.492514e-002
2.476191e+003,-1.484913e-002
2.478119e+003,-1.484414e-002
2.480048e+003,-1.482752e-002
2.481977e+003,-1.481141e-002
2.483905e+003,-1.474960e-002
2.485833e+003,-1.471719e-002
2.487762e+003,-1.475111e-002
2.489690e+003,-1.479409e-002
2.491619e+003,-1.474192e-002
2.493547e+003,-1.464896e-002
2.495476e+003,-1.461923e-002
2.497405e+003,-1.461984e-002
2.499333e+003,-1.456335e-002
2.501261e+003,-1.448039e-002
2.503190e+003,-1.451789e-002
2.505118e+003,-1.461468e-002
2.507047e+003,-1.463089e-002
2.508975e+003,-1.461036e-002
2.510904e+003,-1.457028e-002
2.512833e+003,-1.445956e-002
2.514761e+003,-1.443562e-002
2.516689e+003,-1.441821e-002
2.518618e+003,-1.443924e-002
2.520546e+003,-1.438215e-002
2.522475e+003,-1.436545e-002
2.524403e+003,-1.447879e-002
2.526332e+003,-1.444613e-002
2.528260e+003,-1.430861e-002
2.530189e+003,-1.435135e-002
2.532117e+003,-1.443732e-002
2.534046e+003,-1.447645e-002
2.535974e+003,-1.435369e-002
2.537903e+003,-1.426947e-002
2.539831e+003,-1.432753e-002
2.541760e+003,-1.439180e-002
2.543688e+003,-1.441180e-002
2.545617e+003,-1.443011e-002
2.547545e+003,-1.434987e-002
2.549474e+003,-1.423952e-002
2.551402e+003,-1.424362e-002
2.553331e+003,-1.429342e-002
2.555259e+003,-1.437940e-002
2.557188e+003,-1.440719e-002
2.559116e+003,-1.441956e-002
2.561045e+003,-1.439004e-002
2.562973e+003,-1.432775e-002
2.564902e+003,-1.435129e-002
2.566830e+003,-1.437933e-002
2.568759e+003,-1.437587e-002
2.570687e+003,-1.441158e-002
2.572616e+003,-1.439421e-002
2.574544e+003,-1.431390e-002
2.576473e+003,-1.432455e-002
2.578401e+003,-1.436340e-002
2.580330e+003,-1.431557e-002
2.582258e+003,-1.429214e-002
2.584187e+003,-1.432615e-002
2.586115e+003,-1.434968e-002
2.588044e+003,-1.433801e-002
2.589972e+003,-1.420069e-002
2.591901e+003,-1.421848e-002
2.593829e+003,-1.433394e-002
2.595758e+003,-1.427534e-002
2.597686e+003,-1.415072e-002
2.599615e+003,-1.410438e-002
2.601543e+003,-1.413709e-002
2.603472e+003,-1.430602e-002
2.605400e+003,-1.437052e-002
2.607329e+003,-1.432234e-002
2.609257e+003,-1.425908e-002
2.611186e+003,-1.423631e-002
2.613114e+003,-1.417548e-002
2.615043e+003,-1.409446e-002
2.616971e+003,-1.403948e-002
2.618900e+003,-1.411175e-002
2.620828e+003,-1.414437e-002
2.622757e+003,-1.397144e-002
2.624685e+003,-1.383788e-002
2.626614e+003,-1.393640e-002
2.628542e+003,-1.405494e-002
2.630471e+003,-1.410524e-002
2.632399e+003,-1.406454e-002
2.634328e+003,-1.410742e-002
2.636256e+003,-1.409725e-002
2.638185e+003,-1.398379e-002
2.640113e+003,-1.386705e-002
2.642042e+003,-1.383451e-002
2.643970e+003,-1.381284e-002
2.645899e+003,-1.370081e-002
2.647827e+003,-1.369047e-002
2.649756e+003,-1.375102e-002
2.651684e+003,-1.378001e-002
2.653613e+003,-1.373516e-002
2.655541e+003,-1.361476e-002
2.657470e+003,-1.359861e-002
2.659398e+003,-1.356392e-002
2.661327e+003,-1.349458e-002
2.663255e+003,-1.351459e-002
2.665184e+003,-1.355792e-002
2.667112e+003,-1.351604e-002
2.669041e+003,-1.342321e-002
2.670969e+003,-1.347704e-002
2.672898e+003,-1.347785e-002
2.674826e+003,-1.341289e-002
2.676755e+003,-1.336984e-002
2.678683e+003,-1.335095e-002
2.680612e+003,-1.336380e-002
2.682540e+003,-1.333578e-002
2.684469e+003,-1.331329e-002
2.686397e+003,-1.316201e-002
2.688326e+003,-1.306846e-002
2.690254e+003,-1.307450e-002
2.692183e+003,-1.305907e-002
2.694111e+003,-1.293552e-002
2.696040e+003,-1.275773e-002
2.697968e+003,-1.278173e-002
2.699897e+003,-1.289374e-002
2.701825e+003,-1.294774e-002
2.703754e+003,-1.289673e-002
2.705682e+003,-1.278302e-002
2.707611e+003,-1.265501e-002
2.709539e+003,-1.256998e-002
2.711468e+003,-1.261736e-002
2.713396e+003,-1.265437e-002
2.715325e+003,-1.260773e-002
2.717253e+003,-1.252958e-002
2.719182e+003,-1.256077e-002
2.721110e+003,-1.254532e-002
2.723039e+003,-1.243080e-002
2.724967e+003,-1.231652e-002
2.726896e+003,-1.225690e-002
2.728824e+003,-1.216424e-002
2.730753e+003,-1.202958e-002
2.732681e+003,-1.188856e-002
2.734610e+003,-1.183868e-002
2.736538e+003,-1.182240e-002
2.738467e+003,-1.178138e-002
2.740395e+003,-1.169337e-002
2.742324e+003,-1.166792e-002
2.744252e+003,-1.160031e-002
2.746181e+003,-1.148083e-002
2.748109e+003,-1.139204e-002
2.750038e+003,-1.130579e-002
2.751966e+003,-1.124332e-002
2.753895e+003,-1.115611e-002
2.755823e+003,-1.112187e-002
2.757752e+003,-1.107126e-002
2.759680e+003,-1.093833e-002
2.761609e+003,-1.072361e-002
2.763537e+003,-1.045606e-002
2.765466e+003,-1.027505e-002
2.767394e+003,-9.967071e-003
2.769323e+003,-9.685708e-003
2.771251e+003,-9.390836e-003
2.773180e+003,-8.927783e-003
2.775108e+003,-8.522333e-003
2.777037e+003,-8.080371e-003
2.778965e+003,-7.523899e-003
2.780894e+003,-6.898267e-003
2.782822e+003,-6.262686e-003
2.784750e+003,-5.664864e-003
2.786679e+003,-5.002122e-003
2.788608e+003,-4.249916e-003
2.790536e+003,-3.593850e-003
2.792465e+003,-2.922507e-003
2.794393e+003,-2.224974e-003
2.796322e+003,-1.562471e-003
2.798250e+003,-8.369210e-004
2.800178e+003,-8.759757e-005
2.802107e+003,6.504774e-004
2.804036e+003,1.139283e-003
2.805964e+003,1.548593e-003
2.807893e+003,1.808904e-003
2.809821e+003,1.878249e-003
2.811750e+003,2.015908e-003
2.813678e+003,2.023364e-003
2.815606e+003,1.860446e-003
2.817535e+003,1.776532e-003
2.819464e+003,1.567448e-003
2.821392e+003,1.158452e-003
2.823321e+003,7.763282e-004
2.825249e+003,3.062002e-004
2.827177e+003,-1.282098e-004
2.829106e+003,-6.472879e-004
2.831034e+003,-1.286245e-003
2.832963e+003,-1.890055e-003
2.834892e+003,-2.436786e-003
2.836820e+003,-3.083679e-003
2.838749e+003,-3.706943e-003
2.840677e+003,-4.340729e-003
2.842605e+003,-5.121823e-003
2.844534e+003,-5.954596e-003
2.846462e+003,-6.740364e-003
2.848391e+003,-7.339380e-003
2.850320e+003,-7.782551e-003
2.852248e+003,-8.078777e-003
2.854177e+003,-8.232033e-003
2.856105e+003,-8.371454e-003
2.858033e+003,-8.441716e-003
2.859962e+003,-8.490914e-003
2.861890e+003,-8.527076e-003
2.863819e+003,-8.421114e-003
2.865748e+003,-8.385397e-003
2.867676e+003,-8.406522e-003
2.869604e+003,-8.349710e-003
2.871533e+003,-8.218410e-003
2.873461e+003,-8.095201e-003
2.875390e+003,-7.935846e-003
2.877319e+003,-7.853950e-003
2.879247e+003,-7.653163e-003
2.881176e+003,-7.492050e-003
2.883104e+003,-7.504523e-003
2.885032e+003,-7.638871e-003
2.886961e+003,-7.645545e-003
2.888889e+003,-7.575089e-003
2.890818e+003,-7.613444e-003
2.892747e+003,-7.796448e-003
2.894675e+003,-8.018410e-003
2.896604e+003,-8.093315e-003
2.898532e+003,-8.012815e-003
2.900460e+003,-8.021304e-003
2.902389e+003,-8.221954e-003
2.904317e+003,-8.393165e-003
2.906246e+003,-8.428685e-003
2.908175e+003,-8.395732e-003
2.910103e+003,-8.586041e-003
2.912031e+003,-8.832503e-003
2.913960e+003,-9.044558e-003
2.915888e+003,-9.251741e-003
2.917817e+003,-9.275224e-003
2.919745e+003,-9.118346e-003
2.921674e+003,-8.909573e-003
2.923603e+003,-8.764089e-003
2.925531e+003,-8.467518e-003
2.927459e+003,-8.146063e-003
2.929388e+003,-7.921010e-003
2.931316e+003,-7.578996e-003
2.933245e+003,-7.309472e-003
2.935173e+003,-7.097252e-003
2.937102e+003,-6.926378e-003
2.939031e+003,-6.873449e-003
2.940959e+003,-6.853521e-003
2.942887e+003,-6.884798e-003
2.944816e+003,-7.040138e-003
2.946744e+003,-7.297710e-003
2.948673e+003,-7.585150e-003
2.950601e+003,-7.921629e-003
2.952530e+003,-8.345842e-003
2.954458e+003,-8.904963e-003
2.956387e+003,-9.460415e-003
2.958315e+003,-1.003271e-002
2.960244e+003,-1.065714e-002
2.962172e+003,-1.120574e-002
2.964101e+003,-1.165960e-002
2.966029e+003,-1.223509e-002
2.967958e+003,-1.278656e-002
2.969886e+003,-1.326354e-002
2.971815e+003,-1.369712e-002
2.973743e+003,-1.411009e-002
2.975672e+003,-1.452801e-002
2.977600e+003,-1.472385e-002
2.979529e+003,-1.470726e-002
2.981457e+003,-1.503318e-002
2.983386e+003,-1.534657e-002
2.985314e+003,-1.564456e-002
2.987243e+003,-1.585453e-002
2.989171e+003,-1.596917e-002
2.991100e+003,-1.603863e-002
2.993028e+003,-1.614792e-002
2.994957e+003,-1.626277e-002
2.996885e+003,-1.640822e-002
2.998814e+003,-1.649132e-002
3.000742e+003,-1.663590e-002
3.002671e+003,-1.669014e-002
3.004599e+003,-1.665414e-002
3.006528e+003,-1.663788e-002
3.008456e+003,-1.677542e-002
3.010385e+003,-1.692548e-002
3.012313e+003,-1.684845e-002
3.014242e+003,-1.684147e-002
3.016170e+003,-1.690929e-002
3.018099e+003,-1.692086e-002
3.020027e+003,-1.691363e-002
3.021956e+003,-1.701715e-002
3.023884e+003,-1.713741e-002
3.025813e+003,-1.714522e-002
3.027741e+003,-1.723242e-002
3.029670e+003,-1.713560e-002
3.031598e+003,-1.701614e-002
3.033527e+003,-1.713158e-002
3.035455e+003,-1.718433e-002
3.037384e+003,-1.723318e-002
3.039312e+003,-1.737783e-002
3.041241e+003,-1.744900e-002
3.043169e+003,-1.755237e-002
3.045098e+003,-1.753573e-002
3.047026e+003,-1.744566e-002
3.048955e+003,-1.752975e-002
3.050883e+003,-1.766205e-002
3.052812e+003,-1.768810e-002
3.054740e+003,-1.774660e-002
3.056669e+003,-1.785836e-002
3.058597e+003,-1.786074e-002
3.060526e+003,-1.791553e-002
3.062454e+003,-1.790847e-002
3.064383e+003,-1.801078e-002
3.066311e+003,-1.803252e-002
3.068240e+003,-1.797002e-002
3.070168e+003,-1.810270e-002
3.072097e+003,-1.818535e-002
3.074025e+003,-1.807867e-002
3.075954e+003,-1.802228e-002
3.077882e+003,-1.809615e-002
3.079811e+003,-1.818513e-002
3.081739e+003,-1.821382e-002
3.083668e+003,-1.824423e-002
3.085596e+003,-1.828044e-002
3.087525e+003,-1.834773e-002
3.089453e+003,-1.832876e-002
3.091382e+003,-1.839130e-002
3.093310e+003,-1.849845e-002
3.095239e+003,-1.846565e-002
3.097167e+003,-1.844685e-002
3.099096e+003,-1.850985e-002
3.101024e+003,-1.849591e-002
3.102953e+003,-1.847520e-002
3.104881e+003,-1.860950e-002
3.106810e+003,-1.860525e-002
3.108738e+003,-1.850388e-002
3.110667e+003,-1.863360e-002
3.112595e+003,-1.872402e-002
3.114524e+003,-1.857195e-002
3.116452e+003,-1.859960e-002
3.118381e+003,-1.869857e-002
3.120309e+003,-1.882090e-002
3.122238e+003,-1.895976e-002
3.124166e+003,-1.898579e-002
3.126095e+003,-1.895776e-002
3.128023e+003,-1.891500e-002
3.129952e+003,-1.892410e-002
3.131880e+003,-1.892975e-002
3.133809e+003,-1.891852e-002
3.135737e+003,-1.895284e-002
3.137666e+003,-1.891662e-002
3.139594e+003,-1.889159e-002
3.141523e+003,-1.887687e-002
3.143451e+003,-1.889793e-002
3.145380e+003,-1.897685e-002
3.147308e+003,-1.892426e-002
3.149237e+003,-1.895934e-002
3.151165e+003,-1.913084e-002
3.153094e+003,-1.919939e-002
3.155022e+003,-1.911800e-002
3.156951e+003,-1.900575e-002
3.158879e+003,-1.901003e-002
3.160808e+003,-1.897368e-002
3.162736e+003,-1.888911e-002
3.164665e+003,-1.897530e-002
3.166593e+003,-1.922570e-002
3.168522e+003,-1.917808e-002
3.170450e+003,-1.900733e-002
3.172379e+003,-1.897863e-002
3.174307e+003,-1.901469e-002
3.176236e+003,-1.899211e-002
3.178164e+003,-1.898605e-002
3.180093e+003,-1.898040e-002
3.182021e+003,-1.898215e-002
3.183950e+003,-1.900920e-002
3.185878e+003,-1.900958e-002
3.187807e+003,-1.907808e-002
3.189735e+003,-1.911667e-002
3.191664e+003,-1.917323e-002
3.193592e+003,-1.927217e-002
3.195521e+003,-1.930272e-002
3.197449e+003,-1.917127e-002
3.199378e+003,-1.902506e-002
3.201306e+003,-1.897466e-002
3.203235e+003,-1.906391e-002
3.205163e+003,-1.908648e-002
3.207092e+003,-1.913858e-002
3.209020e+003,-1.912612e-002
3.210948e+003,-1.899607e-002
3.212877e+003,-1.900632e-002
3.214806e+003,-1.911718e-002
3.216734e+003,-1.922313e-002
3.218663e+003,-1.916740e-002
3.220591e+003,-1.899943e-002
3.222520e+003,-1.888302e-002
3.224448e+003,-1.892014e-002
3.226376e+003,-1.889822e-002
3.228305e+003,-1.883093e-002
3.230234e+003,-1.877826e-002
3.232162e+003,-1.881595e-002
3.234091e+003,-1.884876e-002
3.236019e+003,-1.875128e-002
3.237948e+003,-1.873072e-002
3.239876e+003,-1.869536e-002
3.241804e+003,-1.851442e-002
3.243733e+003,-1.852963e-002
3.245662e+003,-1.847447e-002
3.247590e+003,-1.846803e-002
3.249519e+003,-1.842271e-002
3.251447e+003,-1.841881e-002
3.253375e+003,-1.855696e-002
3.255304e+003,-1.850264e-002
3.257232e+003,-1.822393e-002
3.259161e+003,-1.807314e-002
3.261090e+003,-1.807508e-002
3.263018e+003,-1.809704e-002
3.264947e+003,-1.819177e-002
3.266875e+003,-1.827994e-002
3.268803e+003,-1.820359e-002
3.270732e+003,-1.816063e-002
3.272660e+003,-1.802934e-002
3.274589e+003,-1.794688e-002
3.276518e+003,-1.796964e-002
3.278446e+003,-1.797864e-002
3.280375e+003,-1.804101e-002
3.282303e+003,-1.802928e-002
3.284231e+003,-1.804638e-002
3.286160e+003,-1.807288e-002
3.288088e+003,-1.813317e-002
3.290017e+003,-1.821659e-002
3.291946e+003,-1.820315e-002
3.293874e+003,-1.830992e-002
3.295802e+003,-1.836631e-002
3.297731e+003,-1.837618e-002
3.299659e+003,-1.856715e-002
3.301588e+003,-1.867730e-002
3.303516e+003,-1.865820e-002
3.305445e+003,-1.869441e-002
3.307374e+003,-1.884876e-002
3.309302e+003,-1.899563e-002
3.311230e+003,-1.910399e-002
3.313159e+003,-1.923039e-002
3.315087e+003,-1.932598e-002
3.317016e+003,-1.933318e-002
3.318944e+003,-1.938873e-002
3.320873e+003,-1.939519e-002
3.322802e+003,-1.950545e-002
3.324730e+003,-1.981677e-002
3.326658e+003,-1.996373e-002
3.328587e+003,-1.992050e-002
3.330515e+003,-1.982545e-002
3.332444e+003,-1.988255e-002
3.334372e+003,-2.006773e-002
3.336301e+003,-2.012003e-002
3.338229e+003,-2.004736e-002
3.340158e+003,-2.010804e-002
3.342086e+003,-2.014603e-002
3.344015e+003,-2.006738e-002
3.345943e+003,-2.008001e-002
3.347872e+003,-2.019309e-002
3.349800e+003,-2.012873e-002
3.351729e+003,-2.010041e-002
3.353657e+003,-2.036503e-002
3.355586e+003,-2.044096e-002
3.357514e+003,-2.049087e-002
3.359443e+003,-2.053044e-002
3.361371e+003,-2.044065e-002
3.363300e+003,-2.043878e-002
3.365229e+003,-2.060780e-002
3.367157e+003,-2.067302e-002
3.369085e+003,-2.082524e-002
3.371014e+003,-2.091622e-002
3.372942e+003,-2.080929e-002
3.374871e+003,-2.084119e-002
3.376799e+003,-2.092639e-002
3.378728e+003,-2.115995e-002
3.380656e+003,-2.130380e-002
3.382585e+003,-2.146281e-002
3.384513e+003,-2.160987e-002
3.386442e+003,-2.158433e-002
3.388370e+003,-2.143376e-002
3.390299e+003,-2.154296e-002
3.392227e+003,-2.162084e-002
3.394156e+003,-2.162812e-002
3.396084e+003,-2.164360e-002
3.398013e+003,-2.164331e-002
3.399941e+003,-2.172930e-002
3.401870e+003,-2.188434e-002
3.403798e+003,-2.187224e-002
3.405727e+003,-2.189710e-002
3.407655e+003,-2.192356e-002
3.409584e+003,-2.189139e-002
3.411512e+003,-2.200937e-002
3.413441e+003,-2.222195e-002
3.415369e+003,-2.219969e-002
3.417298e+003,-2.207427e-002
3.419226e+003,-2.198303e-002
3.421155e+003,-2.204996e-002
3.423083e+003,-2.210658e-002
3.425012e+003,-2.207925e-002
3.426940e+003,-2.210378e-002
3.428869e+003,-2.219131e-002
3.430797e+003,-2.218467e-002
3.432726e+003,-2.228767e-002
3.434654e+003,-2.258090e-002
3.436583e+003,-2.271400e-002
3.438511e+003,-2.243515e-002
3.440440e+003,-2.238543e-002
3.442368e+003,-2.235868e-002
3.444297e+003,-2.234147e-002
3.446225e+003,-2.245403e-002
3.448154e+003,-2.256241e-002
3.450082e+003,-2.259607e-002
3.452011e+003,-2.250937e-002
3.453939e+003,-2.258650e-002
3.455868e+003,-2.274457e-002
3.457796e+003,-2.267337e-002
3.459725e+003,-2.249609e-002
3.461653e+003,-2.243697e-002
3.463582e+003,-2.253385e-002
3.465510e+003,-2.275950e-002
3.467439e+003,-2.270325e-002
3.469367e+003,-2.268916e-002
3.471296e+003,-2.282540e-002
3.473224e+003,-2.285863e-002
3.475153e+003,-2.286935e-002
3.477081e+003,-2.290235e-002
3.479010e+003,-2.291807e-002
3.480938e+003,-2.288969e-002
3.482867e+003,-2.288944e-002
3.484795e+003,-2.276934e-002
3.486724e+003,-2.270350e-002
3.488652e+003,-2.274627e-002
3.490581e+003,-2.290767e-002
3.492509e+003,-2.301468e-002
3.494438e+003,-2.283590e-002
3.496366e+003,-2.260497e-002
3.498295e+003,-2.268970e-002
3.500223e+003,-2.282587e-002
3.502152e+003,-2.285806e-002
3.504080e+003,-2.287692e-002
3.506009e+003,-2.282147e-002
3.507937e+003,-2.274098e-002
3.509866e+003,-2.276576e-002
3.511794e+003,-2.280673e-002
3.513723e+003,-2.293309e-002
3.515651e+003,-2.304918e-002
3.517580e+003,-2.298938e-002
3.519508e+003,-2.299805e-002
3.521437e+003,-2.298137e-002
3.523365e+003,-2.297360e-002
3.525294e+003,-2.298929e-002
3.527222e+003,-2.297062e-002
3.529151e+003,-2.292128e-002
3.531079e+003,-2.285989e-002
3.533008e+003,-2.272359e-002
3.534936e+003,-2.264199e-002
3.536865e+003,-2.266539e-002
3.538793e+003,-2.271580e-002
3.540722e+003,-2.264617e-002
3.542650e+003,-2.254026e-002
3.544579e+003,-2.247624e-002
3.546507e+003,-2.259953e-002
3.548436e+003,-2.289116e-002
3.550364e+003,-2.299287e-002
3.552293e+003,-2.287784e-002
3.554221e+003,-2.290383e-002
3.556150e+003,-2.287045e-002
3.558078e+003,-2.277739e-002
3.560007e+003,-2.277538e-002
3.561935e+003,-2.275828e-002
3.563864e+003,-2.285684e-002
3.565792e+003,-2.271737e-002
3.567721e+003,-2.246356e-002
3.569649e+003,-2.269683e-002
3.571578e+003,-2.298756e-002
3.573506e+003,-2.288724e-002
3.575435e+003,-2.267369e-002
3.577363e+003,-2.254979e-002
3.579292e+003,-2.262887e-002
3.581220e+003,-2.274639e-002
3.583149e+003,-2.281214e-002
3.585077e+003,-2.269492e-002
3.587006e+003,-2.264057e-002
3.588934e+003,-2.252441e-002
3.590863e+003,-2.262834e-002
3.592791e+003,-2.275538e-002
3.594720e+003,-2.277265e-002
3.596648e+003,-2.266190e-002
3.598577e+003,-2.263067e-002
3.600505e+003,-2.264617e-002
3.602434e+003,-2.269020e-002
3.604362e+003,-2.256905e-002
3.606291e+003,-2.265674e-002
3.608219e+003,-2.269948e-002
3.610148e+003,-2.259235e-002
3.612076e+003,-2.258940e-002
3.614005e+003,-2.263029e-002
3.615933e+003,-2.275740e-002
3.617862e+003,-2.250745e-002
3.619790e+003,-2.232623e-002
3.621719e+003,-2.265325e-002
3.623647e+003,-2.290040e-002
3.625576e+003,-2.285206e-002
3.627504e+003,-2.254388e-002
3.629433e+003,-2.211978e-002
3.631361e+003,-2.250088e-002
3.633290e+003,-2.286573e-002
3.635218e+003,-2.297147e-002
3.637146e+003,-2.303869e-002
3.639075e+003,-2.301128e-002
3.641004e+003,-2.282779e-002
3.642932e+003,-2.290968e-002
3.644861e+003,-2.306150e-002
3.646789e+003,-2.289450e-002
3.648718e+003,-2.283791e-002
3.650646e+003,-2.266532e-002
3.652574e+003,-2.280698e-002
3.654503e+003,-2.296540e-002
3.656432e+003,-2.281135e-002
3.658360e+003,-2.311208e-002
3.660289e+003,-2.333678e-002
3.662217e+003,-2.324630e-002
3.664146e+003,-2.327306e-002
3.666074e+003,-2.337801e-002
3.668002e+003,-2.331191e-002
3.669931e+003,-2.305832e-002
3.671860e+003,-2.340190e-002
3.673788e+003,-2.372202e-002
3.675717e+003,-2.308682e-002
3.677645e+003,-2.297090e-002
3.679573e+003,-2.313731e-002
3.681502e+003,-2.312129e-002
3.683430e+003,-2.339085e-002
3.685359e+003,-2.363652e-002
3.687288e+003,-2.334827e-002
3.689216e+003,-2.288070e-002
3.691145e+003,-2.293045e-002
3.693073e+003,-2.317180e-002
3.695001e+003,-2.338981e-002
3.696930e+003,-2.341135e-002
3.698858e+003,-2.361323e-002
3.700787e+003,-2.327457e-002
3.702716e+003,-2.298391e-002
3.704644e+003,-2.312100e-002
3.706573e+003,-2.320353e-002
3.708501e+003,-2.320607e-002
3.710429e+003,-2.300415e-002
3.712358e+003,-2.286394e-002
3.714286e+003,-2.313787e-002
3.716215e+003,-2.354463e-002
3.718144e+003,-2.350436e-002
3.720072e+003,-2.336789e-002
3.722000e+003,-2.338275e-002
3.723929e+003,-2.335474e-002
3.725857e+003,-2.321986e-002
3.727786e+003,-2.315006e-002
3.729714e+003,-2.337455e-002
3.731643e+003,-2.343756e-002
3.733572e+003,-2.341524e-002
3.735500e+003,-2.330965e-002
3.737428e+003,-2.321370e-002
3.739357e+003,-2.322432e-002
3.741285e+003,-2.321788e-002
3.743214e+003,-2.306426e-002
3.745142e+003,-2.246120e-002
3.747071e+003,-2.297794e-002
3.749000e+003,-2.293360e-002
3.750928e+003,-2.261274e-002
3.752856e+003,-2.247571e-002
3.754785e+003,-2.280701e-002
3.756713e+003,-2.282352e-002
3.758642e+003,-2.280534e-002
3.760570e+003,-2.273460e-002
3.762499e+003,-2.282455e-002
3.764427e+003,-2.283678e-002
3.766356e+003,-2.295186e-002
3.768284e+003,-2.289431e-002
3.770213e+003,-2.268429e-002
3.772141e+003,-2.283301e-002
3.774070e+003,-2.278604e-002
3.775998e+003,-2.274186e-002
3.777927e+003,-2.282911e-002
3.779855e+003,-2.279094e-002
3.781784e+003,-2.278353e-002
3.783712e+003,-2.272174e-002
3.785641e+003,-2.263117e-002
3.787569e+003,-2.289230e-002
3.789498e+003,-2.288881e-002
3.791426e+003,-2.293184e-002
3.793355e+003,-2.309998e-002
3.795283e+003,-2.288840e-002
3.797212e+003,-2.279076e-002
3.799140e+003,-2.299585e-002
3.801069e+003,-2.262629e-002
3.802997e+003,-2.252910e-002
3.804926e+003,-2.298102e-002
3.806854e+003,-2.269705e-002
3.808783e+003,-2.283449e-002
3.810711e+003,-2.300468e-002
3.812640e+003,-2.288390e-002
3.814568e+003,-2.274586e-002
3.816497e+003,-2.235966e-002
3.818425e+003,-2.249364e-002
3.820354e+003,-2.243181e-002
3.822282e+003,-2.248873e-002
3.824211e+003,-2.277809e-002
3.826139e+003,-2.267432e-002
3.828068e+003,-2.257845e-002
3.829996e+003,-2.261733e-002
3.831925e+003,-2.248184e-002
3.833853e+003,-2.241813e-002
3.835782e+003,-2.262478e-002
3.837710e+003,-2.246435e-002
3.839639e+003,-2.255549e-002
3.841567e+003,-2.263368e-002
3.843496e+003,-2.257411e-002
3.845424e+003,-2.265561e-002
3.847353e+003,-2.288261e-002
3.849281e+003,-2.303818e-002
3.851210e+003,-2.284291e-002
3.853138e+003,-2.213017e-002
3.855067e+003,-2.204303e-002
3.856995e+003,-2.253621e-002
3.858924e+003,-2.265809e-002
3.860852e+003,-2.268098e-002
3.862781e+003,-2.265897e-002
3.864709e+003,-2.238820e-002
3.866638e+003,-2.253907e-002
3.868566e+003,-2.279572e-002
3.870495e+003,-2.237741e-002
3.872423e+003,-2.251384e-002
3.874352e+003,-2.253322e-002
3.876280e+003,-2.281710e-002
3.878209e+003,-2.299189e-002
3.880137e+003,-2.279443e-002
3.882066e+003,-2.289283e-002
3.883994e+003,-2.304745e-002
3.885923e+003,-2.256228e-002
3.887851e+003,-2.262573e-002
3.889780e+003,-2.275686e-002
3.891708e+003,-2.289160e-002
3.893637e+003,-2.316621e-002
3.895565e+003,-2.311177e-002
3.897494e+003,-2.302901e-002
3.899422e+003,-2.276601e-002
3.901351e+003,-2.265721e-002
3.903279e+003,-2.270130e-002
3.905208e+003,-2.275120e-002
3.907136e+003,-2.288566e-002
3.909065e+003,-2.293149e-002
3.910993e+003,-2.305135e-002
3.912922e+003,-2.317877e-002
3.914850e+003,-2.322746e-002
3.916779e+003,-2.309483e-002
3.918707e+003,-2.301355e-002
3.920636e+003,-2.308846e-002
3.922564e+003,-2.340419e-002
3.924493e+003,-2.329916e-002
3.926421e+003,-2.305653e-002
3.928350e+003,-2.313259e-002
3.930278e+003,-2.307230e-002
3.932207e+003,-2.284794e-002
3.934135e+003,-2.277189e-002
3.936064e+003,-2.269617e-002
3.937992e+003,-2.286341e-002
3.939921e+003,-2.319285e-002
3.941849e+003,-2.315217e-002
3.943778e+003,-2.301358e-002
3.945706e+003,-2.315594e-002
3.947635e+003,-2.304330e-002
3.949563e+003,-2.287667e-002
3.951492e+003,-2.286548e-002
3.953420e+003,-2.293709e-002
3.955349e+003,-2.301421e-002
3.957277e+003,-2.294934e-002
3.959206e+003,-2.296295e-002
3.961134e+003,-2.310039e-002
3.963063e+003,-2.298668e-002
3.964991e+003,-2.306373e-002
3.966920e+003,-2.325139e-002
3.968848e+003,-2.322111e-002
3.970777e+003,-2.308311e-002
3.972705e+003,-2.317381e-002
3.974634e+003,-2.321464e-002
3.976562e+003,-2.310554e-002
3.978491e+003,-2.315594e-002
3.980419e+003,-2.319517e-002
3.982348e+003,-2.322020e-002
3.984276e+003,-2.319363e-002
3.986205e+003,-2.316627e-002
3.988133e+003,-2.291760e-002
3.990062e+003,-2.290569e-002
3.991990e+003,-2.320337e-002
3.993919e+003,-2.322046e-002
3.995847e+003,-2.318707e-002
3.997776e+003,-2.316882e-002
3.999704e+003,-2.309744e-002
4.001633e+003,0.000000e+000
