3.991989e+002,5.931185e-003
4.011274e+002,3.222155e-004
4.030559e+002,-3.830910e-003
4.049844e+002,-5.346924e-003
4.069129e+002,-6.881407e-003
4.088414e+002,-5.052528e-003
4.107699e+002,-8.319091e-003
4.126984e+002,-8.663641e-003
4.146269e+002,-1.476557e-003
4.165554e+002,-8.907430e-003
4.184839e+002,-7.298654e-003
4.204124e+002,9.719239e-003
4.223409e+002,1.185510e-002
4.242694e+002,8.322927e-003
4.261979e+002,2.970330e-003
4.281264e+002,1.163886e-002
4.300549e+002,1.690572e-002
4.319834e+002,1.205356e-002
4.339119e+002,9.961712e-003
4.358404e+002,1.401299e-002
4.377689e+002,1.794885e-002
4.396974e+002,1.144992e-002
4.416259e+002,1.907202e-003
4.435544e+002,2.497389e-003
4.454829e+002,6.153673e-003
4.474114e+002,9.356561e-003
4.493399e+002,9.361640e-003
4.512684e+002,8.448758e-003
4.531969e+002,9.002812e-003
4.551254e+002,8.851154e-003
4.570539e+002,8.408454e-003
4.589824e+002,9.022162e-003
4.609109e+002,6.978732e-003
4.628394e+002,8.283311e-003
4.647679e+002,7.416302e-003
4.666964e+002,7.599425e-003
4.686249e+002,1.024540e-002
4.705533e+002,1.225396e-002
4.724819e+002,1.047154e-002
4.744103e+002,1.325279e-002
4.763389e+002,9.933947e-003
4.782673e+002,-2.257167e-004
4.801959e+002,-1.006274e-003
4.821243e+002,5.161388e-003
4.840529e+002,7.435514e-003
4.859813e+002,5.860989e-003
4.879099e+002,7.955777e-003
4.898383e+002,1.070102e-002
4.917668e+002,9.823885e-003
4.936953e+002,9.106948e-003
4.956238e+002,1.054900e-002
4.975523e+002,1.105520e-002
4.994808e+002,9.785690e-003
5.014093e+002,1.073698e-002
5.033378e+002,1.159456e-002
5.052663e+002,1.322082e-002
5.071948e+002,1.312952e-002
5.091233e+002,1.035065e-002
5.110518e+002,9.680511e-003
5.129803e+002,9.754716e-003
5.149088e+002,9.565535e-003
5.168373e+002,9.631149e-003
5.187658e+002,1.052880e-002
5.206943e+002,1.066356e-002
5.226228e+002,9.856015e-003
5.245513e+002,1.054730e-002
5.264798e+002,1.036545e-002
5.284083e+002,1.027214e-002
5.303368e+002,1.132723e-002
5.322653e+002,1.200540e-002
5.341938e+002,1.192941e-002
5.361223e+002,1.144335e-002
5.380508e+002,1.106903e-002
5.399792e+002,1.142233e-002
5.419078e+002,1.219067e-002
5.438363e+002,1.229301e-002
5.457648e+002,1.227239e-002
5.476932e+002,1.285084e-002
5.496218e+002,1.269097e-002
5.515503e+002,1.375880e-002
5.534788e+002,1.334944e-002
5.554072e+002,1.355895e-002
5.573358e+002,1.411255e-002
5.592643e+002,1.410639e-002
5.611927e+002,1.399653e-002
5.631212e+002,1.448086e-002
5.650497e+002,1.468892e-002
5.669783e+002,1.441777e-002
5.689067e+002,1.412391e-002
5.708352e+002,1.471854e-002
5.727637e+002,1.452434e-002
5.746923e+002,1.428691e-002
5.766207e+002,1.248158e-002
5.785492e+002,1.032445e-002
5.804777e+002,7.355099e-003
5.824063e+002,9.323688e-003
5.843347e+002,1.339988e-002
5.862632e+002,1.484764e-002
5.881917e+002,1.481747e-002
5.901202e+002,1.403362e-002
5.920487e+002,1.504456e-002
5.939772e+002,1.570376e-002
5.959057e+002,1.615458e-002
5.978342e+002,1.754112e-002
5.997627e+002,1.834546e-002
6.016912e+002,1.922742e-002
6.036197e+002,2.107098e-002
6.055482e+002,2.349192e-002
6.074767e+002,2.361669e-002
6.094052e+002,2.194887e-002
6.113337e+002,2.099311e-002
6.132622e+002,2.020437e-002
6.151907e+002,2.057775e-002
6.171192e+002,2.060693e-002
6.190477e+002,1.948749e-002
6.209762e+002,1.946428e-002
6.229047e+002,1.946587e-002
6.248332e+002,1.771662e-002
6.267617e+002,1.556032e-002
6.286902e+002,1.341119e-002
6.306187e+002,1.223862e-002
6.325472e+002,1.152572e-002
6.344756e+002,1.165789e-002
6.364042e+002,1.235403e-002
6.383326e+002,1.195972e-002
6.402612e+002,1.178973e-002
6.421896e+002,1.166334e-002
6.441182e+002,1.144335e-002
6.460466e+002,1.070465e-002
6.479752e+002,1.053403e-002
6.499036e+002,1.017294e-002
6.518322e+002,1.049866e-002
6.537606e+002,1.068312e-002
6.556891e+002,1.018919e-002
6.576177e+002,9.682849e-003
6.595461e+002,9.745873e-003
6.614746e+002,9.793383e-003
6.634031e+002,9.355783e-003
6.653317e+002,9.462914e-003
6.672601e+002,9.872760e-003
6.691886e+002,9.989445e-003
6.711171e+002,9.960932e-003
6.730457e+002,9.830596e-003
6.749741e+002,9.763528e-003
6.769026e+002,9.558219e-003
6.788311e+002,9.632098e-003
6.807596e+002,9.889776e-003
6.826881e+002,1.003203e-002
6.846166e+002,1.032652e-002
6.865451e+002,1.090707e-002
6.884736e+002,1.137056e-002
6.904021e+002,1.177652e-002
6.923306e+002,1.210947e-002
6.942591e+002,1.184829e-002
6.961876e+002,1.113195e-002
6.981161e+002,1.096585e-002
7.000446e+002,1.101894e-002
7.019731e+002,1.124228e-002
7.039016e+002,1.169104e-002
7.058301e+002,1.191231e-002
7.077585e+002,1.191579e-002
7.096871e+002,1.220246e-002
7.116156e+002,1.271230e-002
7.135441e+002,1.302404e-002
7.154725e+002,1.285882e-002
7.174011e+002,1.264959e-002
7.193296e+002,1.318000e-002
7.212581e+002,1.355416e-002
7.231865e+002,1.376366e-002
7.251151e+002,1.401634e-002
7.270436e+002,1.387517e-002
7.289720e+002,1.439393e-002
7.309005e+002,1.521120e-002
7.328290e+002,1.542562e-002
7.347576e+002,1.551767e-002
7.366860e+002,1.655097e-002
7.386145e+002,1.702176e-002
7.405430e+002,1.657159e-002
7.424716e+002,1.579931e-002
7.444000e+002,1.543756e-002
7.463285e+002,1.557598e-002
7.482570e+002,1.553745e-002
7.501855e+002,1.594802e-002
7.521140e+002,1.613680e-002
7.540425e+002,1.618715e-002
7.559710e+002,1.617030e-002
7.578995e+002,1.607972e-002
7.598280e+002,1.627135e-002
7.617565e+002,1.629705e-002
7.636850e+002,1.620620e-002
7.656135e+002,1.664587e-002
7.675420e+002,1.734682e-002
7.694705e+002,1.766499e-002
7.713990e+002,1.713955e-002
7.733275e+002,1.648667e-002
7.752560e+002,1.619286e-002
7.771844e+002,1.609502e-002
7.791130e+002,1.616002e-002
7.810415e+002,1.604726e-002
7.829700e+002,1.597998e-002
7.848984e+002,1.608220e-002
7.868270e+002,1.601887e-002
7.887555e+002,1.532723e-002
7.906840e+002,1.480029e-002
7.926124e+002,1.449515e-002
7.945410e+002,1.464770e-002
7.964695e+002,1.461935e-002
7.983979e+002,1.398500e-002
8.003264e+002,1.357067e-002
8.022549e+002,1.370980e-002
8.041835e+002,1.409444e-002
8.061119e+002,1.479885e-002
8.080404e+002,1.501293e-002
8.099689e+002,1.506469e-002
8.118975e+002,1.494064e-002
8.138259e+002,1.532974e-002
8.157545e+002,1.590577e-002
8.176830e+002,1.568947e-002
8.196115e+002,1.512600e-002
8.215399e+002,1.528855e-002
8.234684e+002,1.561483e-002
8.253970e+002,1.521964e-002
8.273254e+002,1.495576e-002
8.292539e+002,1.481377e-002
8.311824e+002,1.442715e-002
8.331110e+002,1.471261e-002
8.350394e+002,1.504737e-002
8.369679e+002,1.502305e-002
8.388964e+002,1.474671e-002
8.408250e+002,1.459890e-002
8.427534e+002,1.478271e-002
8.446819e+002,1.500251e-002
8.466104e+002,1.480228e-002
8.485389e+002,1.485025e-002
8.504674e+002,1.492935e-002
8.523959e+002,1.487476e-002
8.543244e+002,1.463930e-002
8.562529e+002,1.458731e-002
8.581814e+002,1.433502e-002
8.601099e+002,1.442174e-002
8.620384e+002,1.445133e-002
8.639669e+002,1.436814e-002
8.658954e+002,1.459640e-002
8.678239e+002,1.489945e-002
8.697524e+002,1.461894e-002
8.716809e+002,1.429793e-002
8.736094e+002,1.420768e-002
8.755378e+002,1.437800e-002
8.774664e+002,1.449525e-002
8.793949e+002,1.472971e-002
8.813234e+002,1.494822e-002
8.832518e+002,1.516645e-002
8.851804e+002,1.476330e-002
8.871089e+002,1.454414e-002
8.890374e+002,1.493433e-002
8.909658e+002,1.514291e-002
8.928943e+002,1.544024e-002
8.948229e+002,1.564801e-002
8.967513e+002,1.545679e-002
8.986798e+002,1.521706e-002
9.006083e+002,1.511770e-002
9.025369e+002,1.536430e-002
9.044653e+002,1.559930e-002
9.063938e+002,1.558058e-002
9.083223e+002,1.532586e-002
9.102509e+002,1.499349e-002
9.121793e+002,1.473019e-002
9.141078e+002,1.457601e-002
9.160364e+002,1.449155e-002
9.179648e+002,1.432211e-002
9.198933e+002,1.425547e-002
9.218218e+002,1.397364e-002
9.237504e+002,1.354326e-002
9.256788e+002,1.314913e-002
9.276073e+002,1.296286e-002
9.295358e+002,1.331661e-002
9.314644e+002,1.348313e-002
9.333928e+002,1.333895e-002
9.353213e+002,1.312584e-002
9.372498e+002,1.286145e-002
9.391783e+002,1.283425e-002
9.411068e+002,1.287022e-002
9.430353e+002,1.282354e-002
9.449637e+002,1.293924e-002
9.468923e+002,1.308189e-002
9.488208e+002,1.328255e-002
9.507493e+002,1.326635e-002
9.526777e+002,1.330284e-002
9.546063e+002,1.333526e-002
9.565348e+002,1.357412e-002
9.584633e+002,1.371585e-002
9.603917e+002,1.353437e-002
9.623203e+002,1.324364e-002
9.642488e+002,1.308062e-002
9.661772e+002,1.342571e-002
9.681057e+002,1.377033e-002
9.700343e+002,1.345206e-002
9.719628e+002,1.312218e-002
9.738912e+002,1.319780e-002
9.758197e+002,1.322912e-002
9.777483e+002,1.311228e-002
9.796768e+002,1.304866e-002
9.816052e+002,1.276873e-002
9.835337e+002,1.248905e-002
9.854623e+002,1.240858e-002
9.873907e+002,1.218597e-002
9.893192e+002,1.182187e-002
9.912477e+002,1.155358e-002
9.931763e+002,1.142461e-002
9.951047e+002,1.133988e-002
9.970332e+002,1.122925e-002
9.989617e+002,1.113528e-002
1.000890e+003,1.102730e-002
1.002819e+003,1.112420e-002
1.004747e+003,1.118757e-002
1.006676e+003,1.125534e-002
1.008604e+003,1.133903e-002
1.010533e+003,1.129250e-002
1.012461e+003,1.136783e-002
1.014390e+003,1.159939e-002
1.016318e+003,1.161882e-002
1.018247e+003,1.174952e-002
1.020175e+003,1.184703e-002
1.022104e+003,1.199555e-002
1.024032e+003,1.227822e-002
1.025961e+003,1.246695e-002
1.027889e+003,1.263216e-002
1.029818e+003,1.291709e-002
1.031746e+003,1.308752e-002
1.033675e+003,1.333608e-002
1.035603e+003,1.383473e-002
1.037532e+003,1.392789e-002
1.039460e+003,1.396159e-002
1.041389e+003,1.430341e-002
1.043317e+003,1.459454e-002
1.045246e+003,1.484075e-002
1.047174e+003,1.502967e-002
1.049103e+003,1.480355e-002
1.051031e+003,1.457323e-002
1.052960e+003,1.459280e-002
1.054888e+003,1.472251e-002
1.056817e+003,1.471439e-002
1.058745e+003,1.477290e-002
1.060674e+003,1.464451e-002
1.062602e+003,1.456535e-002
1.064531e+003,1.469054e-002
1.066459e+003,1.474336e-002
1.068388e+003,1.458605e-002
1.070316e+003,1.430560e-002
1.072245e+003,1.425085e-002
1.074173e+003,1.436947e-002
1.076102e+003,1.442335e-002
1.078030e+003,1.432923e-002
1.079959e+003,1.446267e-002
1.081887e+003,1.472077e-002
1.083816e+003,1.481864e-002
1.085744e+003,1.486791e-002
1.087673e+003,1.502878e-002
1.089601e+003,1.516460e-002
1.091530e+003,1.539084e-002
1.093458e+003,1.570658e-002
1.095387e+003,1.591385e-002
1.097315e+003,1.601285e-002
1.099244e+003,1.592024e-002
1.101172e+003,1.626192e-002
1.103101e+003,1.674043e-002
1.105029e+003,1.663489e-002
1.106958e+003,1.649438e-002
1.108886e+003,1.665469e-002
1.110815e+003,1.696721e-002
1.112743e+003,1.707217e-002
1.114672e+003,1.707286e-002
1.116600e+003,1.716454e-002
1.118529e+003,1.706080e-002
1.120457e+003,1.684440e-002
1.122386e+003,1.699337e-002
1.124314e+003,1.719212e-002
1.126243e+003,1.704733e-002
1.128171e+003,1.682260e-002
1.130100e+003,1.688109e-002
1.132028e+003,1.672900e-002
1.133957e+003,1.653234e-002
1.135885e+003,1.639844e-002
1.137814e+003,1.618880e-002
1.139742e+003,1.566532e-002
1.141671e+003,1.525869e-002
1.143599e+003,1.508576e-002
1.145528e+003,1.486989e-002
1.147456e+003,1.454116e-002
1.149385e+003,1.417721e-002
1.151313e+003,1.387520e-002
1.153242e+003,1.372303e-002
1.155170e+003,1.359662e-002
1.157099e+003,1.343313e-002
1.159027e+003,1.327660e-002
1.160956e+003,1.317440e-002
1.162884e+003,1.312051e-002
1.164813e+003,1.305996e-002
1.166741e+003,1.301571e-002
1.168670e+003,1.310453e-002
1.170598e+003,1.313909e-002
1.172526e+003,1.304876e-002
1.174455e+003,1.312587e-002
1.176384e+003,1.324388e-002
1.178312e+003,1.310067e-002
1.180240e+003,1.298427e-002
1.182169e+003,1.293641e-002
1.184098e+003,1.288685e-002
1.186026e+003,1.267937e-002
1.187954e+003,1.252264e-002
1.189883e+003,1.218951e-002
1.191812e+003,1.208245e-002
1.193740e+003,1.215530e-002
1.195668e+003,1.202607e-002
1.197597e+003,1.191371e-002
1.199526e+003,1.196112e-002
1.201454e+003,1.184748e-002
1.203382e+003,1.163080e-002
1.205311e+003,1.160790e-002
1.207240e+003,1.157421e-002
1.209168e+003,1.173312e-002
1.211096e+003,1.190513e-002
1.213025e+003,1.180709e-002
1.214953e+003,1.176934e-002
1.216882e+003,1.167668e-002
1.218810e+003,1.156903e-002
1.220739e+003,1.157550e-002
1.222667e+003,1.177785e-002
1.224596e+003,1.193602e-002
1.226524e+003,1.199024e-002
1.228453e+003,1.209135e-002
1.230381e+003,1.232066e-002
1.232310e+003,1.245983e-002
1.234238e+003,1.254781e-002
1.236167e+003,1.266215e-002
1.238095e+003,1.263213e-002
1.240024e+003,1.280071e-002
1.241952e+003,1.311641e-002
1.243881e+003,1.311972e-002
1.245809e+003,1.290644e-002
1.247738e+003,1.267269e-002
1.249666e+003,1.292368e-002
1.251595e+003,1.362401e-002
1.253523e+003,1.358783e-002
1.255452e+003,1.339738e-002
1.257380e+003,1.339991e-002
1.259309e+003,1.326854e-002
1.261237e+003,1.330868e-002
1.263166e+003,1.360055e-002
1.265094e+003,1.387794e-002
1.267023e+003,1.413616e-002
1.268951e+003,1.439886e-002
1.270880e+003,1.453427e-002
1.272808e+003,1.472299e-002
1.274737e+003,1.502374e-002
1.276665e+003,1.544512e-002
1.278594e+003,1.578574e-002
1.280522e+003,1.581841e-002
1.282451e+003,1.586845e-002
1.284379e+003,1.605431e-002
1.286308e+003,1.642776e-002
1.288236e+003,1.663968e-002
1.290165e+003,1.675344e-002
1.292093e+003,1.695516e-002
1.294022e+003,1.704033e-002
1.295950e+003,1.725049e-002
1.297879e+003,1.734469e-002
1.299807e+003,1.739893e-002
1.301736e+003,1.724876e-002
1.303664e+003,1.707376e-002
1.305593e+003,1.710388e-002
1.307521e+003,1.694179e-002
1.309450e+003,1.664822e-002
1.311378e+003,1.639262e-002
1.313307e+003,1.629835e-002
1.315235e+003,1.618161e-002
1.317164e+003,1.593554e-002
1.319092e+003,1.570562e-002
1.321021e+003,1.524699e-002
1.322949e+003,1.494437e-002
1.324878e+003,1.489674e-002
1.326806e+003,1.480643e-002
1.328735e+003,1.482419e-002
1.330663e+003,1.481898e-002
1.332592e+003,1.471443e-002
1.334520e+003,1.457549e-002
1.336449e+003,1.446096e-002
1.338377e+003,1.437797e-002
1.340306e+003,1.439660e-002
1.342234e+003,1.446415e-002
1.344163e+003,1.444301e-002
1.346091e+003,1.440239e-002
1.348020e+003,1.435502e-002
1.349948e+003,1.437255e-002
1.351877e+003,1.424174e-002
1.353805e+003,1.418481e-002
1.355734e+003,1.417961e-002
1.357662e+003,1.407527e-002
1.359591e+003,1.413784e-002
1.361519e+003,1.418087e-002
1.363448e+003,1.401326e-002
1.365376e+003,1.375593e-002
1.367305e+003,1.360742e-002
1.369233e+003,1.362975e-002
1.371162e+003,1.361088e-002
1.373090e+003,1.362206e-002
1.375019e+003,1.368042e-002
1.376947e+003,1.374297e-002
1.378876e+003,1.384626e-002
1.380804e+003,1.388550e-002
1.382733e+003,1.382728e-002
1.384661e+003,1.369013e-002
1.386590e+003,1.367037e-002
1.388518e+003,1.354459e-002
1.390447e+003,1.334517e-002
1.392375e+003,1.327595e-002
1.394304e+003,1.328572e-002
1.396232e+003,1.315415e-002
1.398161e+003,1.320193e-002
1.400089e+003,1.319329e-002
1.402018e+003,1.292033e-002
1.403946e+003,1.281343e-002
1.405875e+003,1.273707e-002
1.407803e+003,1.263830e-002
1.409732e+003,1.254041e-002
1.411660e+003,1.243006e-002
1.413589e+003,1.239443e-002
1.415517e+003,1.266027e-002
1.417446e+003,1.321590e-002
1.419374e+003,1.372228e-002
1.421303e+003,1.382434e-002
1.423231e+003,1.395844e-002
1.425160e+003,1.443356e-002
1.427088e+003,1.490590e-002
1.429017e+003,1.532562e-002
1.430945e+003,1.568627e-002
1.432874e+003,1.596349e-002
1.434802e+003,1.643818e-002
1.436731e+003,1.693914e-002
1.438659e+003,1.711932e-002
1.440588e+003,1.738279e-002
1.442516e+003,1.778800e-002
1.444445e+003,1.816124e-002
1.446373e+003,1.862483e-002
1.448302e+003,1.911120e-002
1.450230e+003,1.939165e-002
1.452159e+003,1.982693e-002
1.454087e+003,2.035747e-002
1.456016e+003,2.079817e-002
1.457944e+003,2.086165e-002
1.459873e+003,2.072470e-002
1.461801e+003,2.061579e-002
1.463730e+003,2.067274e-002
1.465658e+003,2.054711e-002
1.467587e+003,2.015820e-002
1.469515e+003,1.989727e-002
1.471444e+003,1.986612e-002
1.473372e+003,1.960648e-002
1.475301e+003,1.905962e-002
1.477229e+003,1.847665e-002
1.479158e+003,1.794133e-002
1.481086e+003,1.737179e-002
1.483015e+003,1.687737e-002
1.484943e+003,1.648867e-002
1.486872e+003,1.612803e-002
1.488800e+003,1.589704e-002
1.490729e+003,1.544742e-002
1.492657e+003,1.480331e-002
1.494586e+003,1.470078e-002
1.496514e+003,1.472337e-002
1.498443e+003,1.430375e-002
1.500371e+003,1.385088e-002
1.502300e+003,1.366486e-002
1.504228e+003,1.381985e-002
1.506157e+003,1.405378e-002
1.508085e+003,1.371236e-002
1.510014e+003,1.320084e-002
1.511942e+003,1.300824e-002
1.513871e+003,1.294583e-002
1.515799e+003,1.293924e-002
1.517728e+003,1.305593e-002
1.519656e+003,1.313202e-002
1.521585e+003,1.318448e-002
1.523513e+003,1.314417e-002
1.525442e+003,1.328842e-002
1.527370e+003,1.321884e-002
1.529299e+003,1.310162e-002
1.531227e+003,1.319250e-002
1.533156e+003,1.358165e-002
1.535084e+003,1.366059e-002
1.537013e+003,1.377655e-002
1.538941e+003,1.423582e-002
1.540870e+003,1.446558e-002
1.542798e+003,1.428780e-002
1.544727e+003,1.419518e-002
1.546655e+003,1.414640e-002
1.548584e+003,1.422524e-002
1.550512e+003,1.434358e-002
1.552441e+003,1.436098e-002
1.554369e+003,1.453636e-002
1.556298e+003,1.487679e-002
1.558226e+003,1.548611e-002
1.560155e+003,1.540378e-002
1.562083e+003,1.513516e-002
1.564012e+003,1.542071e-002
1.565940e+003,1.565931e-002
1.567869e+003,1.587570e-002
1.569797e+003,1.612346e-002
1.571726e+003,1.614041e-002
1.573654e+003,1.626251e-002
1.575583e+003,1.661324e-002
1.577511e+003,1.652715e-002
1.579440e+003,1.625611e-002
1.581368e+003,1.625274e-002
1.583297e+003,1.617862e-002
1.585225e+003,1.613151e-002
1.587154e+003,1.619736e-002
1.589082e+003,1.606497e-002
1.591010e+003,1.576900e-002
1.592939e+003,1.550956e-002
1.594868e+003,1.533142e-002
1.596796e+003,1.512665e-002
1.598724e+003,1.489839e-002
1.600653e+003,1.455370e-002
1.602582e+003,1.428225e-002
1.604510e+003,1.413017e-002
1.606438e+003,1.392827e-002
1.608367e+003,1.367423e-002
1.610296e+003,1.355190e-002
1.612224e+003,1.332177e-002
1.614152e+003,1.317857e-002
1.616081e+003,1.314738e-002
1.618010e+003,1.296150e-002
1.619938e+003,1.273597e-002
1.621866e+003,1.269046e-002
1.623795e+003,1.254136e-002
1.625724e+003,1.235979e-002
1.627652e+003,1.230191e-002
1.629580e+003,1.211625e-002
1.631509e+003,1.191858e-002
1.633438e+003,1.198057e-002
1.635366e+003,1.216664e-002
1.637294e+003,1.172729e-002
1.639223e+003,1.122470e-002
1.641151e+003,1.094587e-002
1.643080e+003,1.075902e-002
1.645008e+003,1.072234e-002
1.646937e+003,1.068655e-002
1.648865e+003,1.028883e-002
1.650794e+003,1.030783e-002
1.652722e+003,1.064458e-002
1.654651e+003,1.003793e-002
1.656579e+003,9.502165e-003
1.658508e+003,9.256936e-003
1.660436e+003,9.246815e-003
1.662365e+003,9.401761e-003
1.664293e+003,9.231516e-003
1.666222e+003,9.206674e-003
1.668150e+003,9.331407e-003
1.670079e+003,9.206268e-003
1.672007e+003,9.076902e-003
1.673936e+003,9.171174e-003
1.675864e+003,9.072809e-003
1.677793e+003,8.726728e-003
1.679721e+003,8.760232e-003
1.681650e+003,8.868637e-003
1.683578e+003,9.115711e-003
1.685507e+003,8.884734e-003
1.687435e+003,8.403995e-003
1.689364e+003,8.315969e-003
1.691292e+003,8.343598e-003
1.693221e+003,8.435615e-003
1.695149e+003,8.835058e-003
1.697078e+003,9.011641e-003
1.699006e+003,9.185894e-003
1.700935e+003,9.273284e-003
1.702863e+003,8.929039e-003
1.704792e+003,8.882232e-003
1.706720e+003,8.943381e-003
1.708649e+003,8.903910e-003
1.710577e+003,8.897958e-003
1.712506e+003,8.990533e-003
1.714434e+003,9.250504e-003
1.716363e+003,9.433590e-003
1.718291e+003,9.391163e-003
1.720220e+003,9.185726e-003
1.722148e+003,9.009104e-003
1.724077e+003,8.949604e-003
1.726005e+003,8.970034e-003
1.727934e+003,9.091519e-003
1.729862e+003,9.213443e-003
1.731791e+003,9.332626e-003
1.733719e+003,9.483572e-003
1.735648e+003,9.144845e-003
1.737576e+003,8.946221e-003
1.739505e+003,9.109654e-003
1.741433e+003,9.211243e-003
1.743362e+003,9.262960e-003
1.745290e+003,9.329816e-003
1.747219e+003,9.536948e-003
1.749147e+003,9.609367e-003
1.751076e+003,9.521368e-003
1.753004e+003,9.368072e-003
1.754933e+003,9.450791e-003
1.756861e+003,9.631759e-003
1.758790e+003,9.548667e-003
1.760718e+003,9.555847e-003
1.762647e+003,9.565467e-003
1.764575e+003,9.475647e-003
1.766504e+003,9.528209e-003
1.768432e+003,9.670347e-003
1.770361e+003,9.711005e-003
1.772289e+003,9.787588e-003
1.774218e+003,9.593175e-003
1.776146e+003,9.419943e-003
1.778075e+003,9.443478e-003
1.780003e+003,9.485029e-003
1.781932e+003,9.455566e-003
1.783860e+003,9.496679e-003
1.785789e+003,9.630709e-003
1.787717e+003,9.590363e-003
1.789646e+003,9.547820e-003
1.791574e+003,9.674006e-003
1.793503e+003,9.592701e-003
1.795431e+003,9.515712e-003
1.797360e+003,9.560115e-003
1.799288e+003,9.630845e-003
1.801217e+003,9.581726e-003
1.803145e+003,9.604658e-003
1.805074e+003,9.602185e-003
1.807002e+003,9.585147e-003
1.808931e+003,9.593615e-003
1.810859e+003,9.662691e-003
1.812788e+003,9.704839e-003
1.814716e+003,9.706024e-003
1.816645e+003,9.691963e-003
1.818573e+003,9.639145e-003
1.820502e+003,9.608791e-003
1.822430e+003,9.617464e-003
1.824359e+003,9.756004e-003
1.826287e+003,9.748278e-003
1.828216e+003,9.672821e-003
1.830144e+003,9.698706e-003
1.832073e+003,9.693081e-003
1.834001e+003,9.642702e-003
1.835930e+003,9.611907e-003
1.837858e+003,9.647478e-003
1.839787e+003,9.599204e-003
1.841715e+003,9.658014e-003
1.843644e+003,9.821174e-003
1.845572e+003,9.729065e-003
1.847501e+003,9.600119e-003
1.849429e+003,9.584266e-003
1.851358e+003,9.597646e-003
1.853286e+003,9.606183e-003
1.855215e+003,9.606522e-003
1.857143e+003,9.572580e-003
1.859072e+003,9.547074e-003
1.861000e+003,9.582538e-003
1.862929e+003,9.681053e-003
1.864857e+003,9.768678e-003
1.866786e+003,9.760139e-003
1.868714e+003,9.793180e-003
1.870643e+003,9.789892e-003
1.872571e+003,9.758952e-003
1.874500e+003,9.763832e-003
1.876428e+003,9.762205e-003
1.878357e+003,9.754683e-003
1.880285e+003,9.750040e-003
1.882214e+003,9.740552e-003
1.884142e+003,9.696842e-003
1.886071e+003,9.712767e-003
1.887999e+003,9.818598e-003
1.889928e+003,9.852829e-003
1.891856e+003,9.756919e-003
1.893785e+003,9.761698e-003
1.895713e+003,9.812192e-003
1.897642e+003,9.868422e-003
1.899570e+003,9.802703e-003
1.901499e+003,9.793112e-003
1.903427e+003,9.816700e-003
1.905356e+003,9.814802e-003
1.907284e+003,9.830053e-003
1.909213e+003,9.898861e-003
1.911141e+003,9.848390e-003
1.913070e+003,9.736181e-003
1.914998e+003,9.759258e-003
1.916927e+003,9.882352e-003
1.918855e+003,9.897166e-003
1.920784e+003,9.840424e-003
1.922712e+003,9.779557e-003
1.924641e+003,9.718290e-003
1.926569e+003,9.701585e-003
1.928498e+003,9.726320e-003
1.930426e+003,9.768814e-003
1.932355e+003,9.732420e-003
1.934283e+003,9.726320e-003
1.936212e+003,9.770305e-003
1.938140e+003,9.816022e-003
1.940069e+003,9.843746e-003
1.941997e+003,9.829375e-003
1.943926e+003,9.773524e-003
1.945854e+003,9.729878e-003
1.947783e+003,9.667772e-003
1.949711e+003,9.656321e-003
1.951640e+003,9.694267e-003
1.953568e+003,9.723203e-003
1.955497e+003,9.690302e-003
1.957425e+003,9.709989e-003
1.959354e+003,9.655778e-003
1.961282e+003,9.723237e-003
1.963211e+003,9.750379e-003
1.965139e+003,9.691082e-003
1.967068e+003,9.682070e-003
1.968996e+003,9.759901e-003
1.970925e+003,9.773863e-003
1.972853e+003,9.696910e-003
1.974782e+003,9.717782e-003
1.976710e+003,9.687931e-003
1.978639e+003,9.583724e-003
1.980567e+003,9.636841e-003
1.982496e+003,9.694572e-003
1.984424e+003,9.612111e-003
1.986353e+003,9.624171e-003
1.988281e+003,9.621054e-003
1.990210e+003,9.676412e-003
1.992138e+003,9.755361e-003
1.994067e+003,9.789249e-003
1.995995e+003,9.772236e-003
1.997924e+003,9.745025e-003
1.999852e+003,9.773897e-003
2.001781e+003,9.751023e-003
2.003709e+003,9.639584e-003
2.005638e+003,9.600492e-003
2.007566e+003,9.637519e-003
2.009495e+003,9.552156e-003
2.011423e+003,9.562689e-003
2.013352e+003,9.710903e-003
2.015280e+003,9.742992e-003
2.017208e+003,9.734928e-003
2.019137e+003,9.654152e-003
2.021066e+003,9.639145e-003
2.022994e+003,9.691725e-003
2.024922e+003,9.800195e-003
2.026851e+003,9.775659e-003
2.028780e+003,9.740959e-003
2.030708e+003,9.758749e-003
2.032636e+003,9.822224e-003
2.034565e+003,9.826325e-003
2.036494e+003,9.713071e-003
2.038422e+003,9.780607e-003
2.040350e+003,9.915098e-003
2.042279e+003,9.957779e-003
2.044208e+003,9.883607e-003
2.046136e+003,9.782775e-003
2.048064e+003,9.798162e-003
2.049993e+003,9.872116e-003
2.051921e+003,9.834527e-003
2.053850e+003,9.793180e-003
2.055778e+003,9.812362e-003
2.057707e+003,9.859880e-003
2.059635e+003,9.914454e-003
2.061564e+003,9.887979e-003
2.063492e+003,9.853948e-003
2.065421e+003,9.830019e-003
2.067349e+003,9.792841e-003
2.069278e+003,9.786571e-003
2.071206e+003,9.794129e-003
2.073135e+003,9.829951e-003
2.075063e+003,9.844051e-003
2.076992e+003,9.837510e-003
2.078920e+003,9.895708e-003
2.080849e+003,9.932116e-003
2.082777e+003,9.980427e-003
2.084706e+003,9.957135e-003
2.086634e+003,9.788469e-003
2.088563e+003,9.784199e-003
2.090491e+003,9.949134e-003
2.092420e+003,9.990158e-003
2.094348e+003,9.967171e-003
2.096277e+003,9.961983e-003
2.098205e+003,9.949202e-003
2.100134e+003,9.933269e-003
2.102062e+003,9.960254e-003
2.103991e+003,1.000979e-002
2.105919e+003,1.008219e-002
2.107848e+003,1.009260e-002
2.109776e+003,1.007540e-002
2.111705e+003,1.009389e-002
2.113633e+003,1.011288e-002
2.115562e+003,1.011152e-002
2.117490e+003,1.010684e-002
2.119419e+003,1.017800e-002
2.121347e+003,1.019269e-002
2.123276e+003,1.012034e-002
2.125204e+003,1.007611e-002
2.127133e+003,1.012610e-002
2.129061e+003,1.027034e-002
2.130990e+003,1.029066e-002
2.132918e+003,1.027190e-002
2.134847e+003,1.024642e-002
2.136775e+003,1.020249e-002
2.138704e+003,1.023617e-002
2.140632e+003,1.030813e-002
2.142561e+003,1.024924e-002
2.144489e+003,1.019740e-002
2.146418e+003,1.029327e-002
2.148346e+003,1.032751e-002
2.150275e+003,1.037447e-002
2.152203e+003,1.037318e-002
2.154132e+003,1.030542e-002
2.156060e+003,1.029643e-002
2.157989e+003,1.025890e-002
2.159917e+003,1.024499e-002
2.161846e+003,1.033039e-002
2.163774e+003,1.040946e-002
2.165703e+003,1.041632e-002
2.167631e+003,1.036772e-002
2.169560e+003,1.039653e-002
2.171488e+003,1.052958e-002
2.173417e+003,1.047266e-002
2.175345e+003,1.038581e-002
2.177274e+003,1.037966e-002
2.179202e+003,1.038214e-002
2.181131e+003,1.041435e-002
2.183059e+003,1.045514e-002
2.184988e+003,1.043128e-002
2.186916e+003,1.044554e-002
2.188845e+003,1.046539e-002
2.190773e+003,1.048532e-002
2.192702e+003,1.053254e-002
2.194630e+003,1.047575e-002
2.196559e+003,1.035347e-002
2.198487e+003,1.028649e-002
2.200416e+003,1.024761e-002
2.202344e+003,1.028320e-002
2.204273e+003,1.032642e-002
2.206201e+003,1.031485e-002
2.208130e+003,1.030267e-002
2.210058e+003,1.027085e-002
2.211987e+003,1.019553e-002
2.213915e+003,1.023058e-002
2.215844e+003,1.028934e-002
2.217772e+003,1.023227e-002
2.219701e+003,1.026861e-002
2.221629e+003,1.029779e-002
2.223558e+003,1.030522e-002
2.225486e+003,1.036809e-002
2.227415e+003,1.036870e-002
2.229343e+003,1.032809e-002
2.231272e+003,1.033219e-002
2.233200e+003,1.030980e-002
2.235129e+003,1.036843e-002
2.237057e+003,1.037848e-002
2.238986e+003,1.031299e-002
2.240914e+003,1.025745e-002
2.242843e+003,1.027421e-002
2.244771e+003,1.028791e-002
2.246700e+003,1.021782e-002
2.248628e+003,1.028625e-002
2.250557e+003,1.038065e-002
2.252485e+003,1.028265e-002
2.254414e+003,1.023231e-002
2.256342e+003,1.028415e-002
2.258271e+003,1.027875e-002
2.260199e+003,1.026501e-002
2.262128e+003,1.023024e-002
2.264056e+003,1.030399e-002
2.265985e+003,1.034675e-002
2.267913e+003,1.022946e-002
2.269842e+003,1.019815e-002
2.271770e+003,1.024561e-002
2.273699e+003,1.025894e-002
2.275627e+003,1.030498e-002
2.277556e+003,1.027237e-002
2.279484e+003,1.013150e-002
2.281413e+003,1.011023e-002
2.283341e+003,1.007930e-002
2.285270e+003,1.000701e-002
2.287198e+003,1.009297e-002
2.289127e+003,1.019214e-002
2.291055e+003,1.025965e-002
2.292984e+003,1.022433e-002
2.294912e+003,1.012434e-002
2.296841e+003,1.014415e-002
2.298769e+003,1.023943e-002
2.300698e+003,1.030691e-002
2.302626e+003,1.030142e-002
2.304555e+003,1.027722e-002
2.306483e+003,1.026060e-002
2.308412e+003,1.035425e-002
2.310340e+003,1.044944e-002
2.312269e+003,1.044242e-002
2.314197e+003,1.044489e-002
2.316125e+003,1.049957e-002
2.318054e+003,1.054941e-002
2.319983e+003,1.058920e-002
2.321911e+003,1.064957e-002
2.323840e+003,1.065673e-002
2.325768e+003,1.069385e-002
2.327697e+003,1.079639e-002
2.329625e+003,1.087017e-002
2.331553e+003,1.088234e-002
2.333482e+003,1.083583e-002
2.335411e+003,1.089766e-002
2.337339e+003,1.087089e-002
2.339268e+003,1.077489e-002
2.341196e+003,1.076830e-002
2.343125e+003,1.072397e-002
2.345053e+003,1.059636e-002
2.346981e+003,1.052256e-002
2.348910e+003,1.044981e-002
2.350839e+003,1.059483e-002
2.352767e+003,1.079588e-002
2.354696e+003,1.089953e-002
2.356624e+003,1.106676e-002
2.358552e+003,1.120902e-002
2.360481e+003,1.122324e-002
2.362409e+003,1.118121e-002
2.364338e+003,1.107359e-002
2.366267e+003,1.108022e-002
2.368195e+003,1.099766e-002
2.370124e+003,1.091988e-002
2.372052e+003,1.094186e-002
2.373980e+003,1.084449e-002
2.375909e+003,1.063385e-002
2.377838e+003,1.057093e-002
2.379766e+003,1.062886e-002
2.381695e+003,1.061887e-002
2.383623e+003,1.060672e-002
2.385552e+003,1.062913e-002
2.387480e+003,1.066071e-002
2.389408e+003,1.071681e-002
2.391337e+003,1.071304e-002
2.393266e+003,1.065514e-002
2.395194e+003,1.069266e-002
2.397123e+003,1.069463e-002
2.399051e+003,1.060998e-002
2.400979e+003,1.051835e-002
2.402908e+003,1.055043e-002
2.404836e+003,1.065015e-002
2.406765e+003,1.061976e-002
2.408694e+003,1.054836e-002
2.410622e+003,1.055128e-002
2.412551e+003,1.057541e-002
2.414479e+003,1.059935e-002
2.416407e+003,1.061385e-002
2.418336e+003,1.060091e-002
2.420264e+003,1.060095e-002
2.422193e+003,1.066926e-002
2.424122e+003,1.074880e-002
2.426050e+003,1.078779e-002
2.427979e+003,1.078572e-002
2.429907e+003,1.081796e-002
2.431835e+003,1.091930e-002
2.433764e+003,1.097302e-002
2.435692e+003,1.090758e-002
2.437621e+003,1.088859e-002
2.439550e+003,1.101543e-002
2.441478e+003,1.104296e-002
2.443406e+003,1.091349e-002
2.445335e+003,1.091288e-002
2.447263e+003,1.095848e-002
2.449192e+003,1.092209e-002
2.451121e+003,1.092800e-002
2.453049e+003,1.094699e-002
2.454978e+003,1.094438e-002
2.456906e+003,1.094947e-002
2.458834e+003,1.099443e-002
2.460763e+003,1.111631e-002
2.462691e+003,1.118359e-002
2.464620e+003,1.117931e-002
2.466549e+003,1.119274e-002
2.468477e+003,1.113001e-002
2.470406e+003,1.112362e-002
2.472334e+003,1.107236e-002
2.474262e+003,1.108759e-002
2.476191e+003,1.117693e-002
2.478119e+003,1.116993e-002
2.480048e+003,1.119097e-002
2.481977e+003,1.118295e-002
2.483905e+003,1.124075e-002
2.485833e+003,1.121062e-002
2.487762e+003,1.115004e-002
2.489690e+003,1.123660e-002
2.491619e+003,1.129465e-002
2.493547e+003,1.142120e-002
2.495476e+003,1.140780e-002
2.497405e+003,1.136096e-002
2.499333e+003,1.141205e-002
2.501261e+003,1.156886e-002
2.503190e+003,1.154991e-002
2.505118e+003,1.137763e-002
2.507047e+003,1.137144e-002
2.508975e+003,1.143821e-002
2.510904e+003,1.145451e-002
2.512833e+003,1.156199e-002
2.514761e+003,1.160994e-002
2.516689e+003,1.157210e-002
2.518618e+003,1.156413e-002
2.520546e+003,1.160242e-002
2.522475e+003,1.159112e-002
2.524403e+003,1.157516e-002
2.526332e+003,1.159381e-002
2.528260e+003,1.165881e-002
2.530189e+003,1.171538e-002
2.532117e+003,1.176123e-002
2.534046e+003,1.164945e-002
2.535974e+003,1.168880e-002
2.537903e+003,1.177226e-002
2.539831e+003,1.173822e-002
2.541760e+003,1.166851e-002
2.543688e+003,1.155658e-002
2.545617e+003,1.157645e-002
2.547545e+003,1.169778e-002
2.549474e+003,1.175174e-002
2.551402e+003,1.174905e-002
2.553331e+003,1.175878e-002
2.555259e+003,1.173373e-002
2.557188e+003,1.173856e-002
2.559116e+003,1.170081e-002
2.561045e+003,1.172934e-002
2.562973e+003,1.177700e-002
2.564902e+003,1.171273e-002
2.566830e+003,1.168869e-002
2.568759e+003,1.176655e-002
2.570687e+003,1.182817e-002
2.572616e+003,1.188177e-002
2.574544e+003,1.191316e-002
2.576473e+003,1.180658e-002
2.578401e+003,1.172280e-002
2.580330e+003,1.175409e-002
2.582258e+003,1.179756e-002
2.584187e+003,1.185735e-002
2.586115e+003,1.184411e-002
2.588044e+003,1.188398e-002
2.589972e+003,1.194276e-002
2.591901e+003,1.193571e-002
2.593829e+003,1.193690e-002
2.595758e+003,1.193877e-002
2.597686e+003,1.198152e-002
2.599615e+003,1.201858e-002
2.601543e+003,1.201817e-002
2.603472e+003,1.196210e-002
2.605400e+003,1.196871e-002
2.607329e+003,1.200543e-002
2.609257e+003,1.201793e-002
2.611186e+003,1.202675e-002
2.613114e+003,1.206031e-002
2.615043e+003,1.206593e-002
2.616971e+003,1.215135e-002
2.618900e+003,1.210620e-002
2.620828e+003,1.205479e-002
2.622757e+003,1.216279e-002
2.624685e+003,1.228783e-002
2.626614e+003,1.224608e-002
2.628542e+003,1.210967e-002
2.630471e+003,1.209138e-002
2.632399e+003,1.213390e-002
2.634328e+003,1.209124e-002
2.636256e+003,1.206879e-002
2.638185e+003,1.216031e-002
2.640113e+003,1.226186e-002
2.642042e+003,1.227338e-002
2.643970e+003,1.226265e-002
2.645899e+003,1.239184e-002
2.647827e+003,1.244759e-002
2.649756e+003,1.242096e-002
2.651684e+003,1.244878e-002
2.653613e+003,1.249822e-002
2.655541e+003,1.257117e-002
2.657470e+003,1.271322e-002
2.659398e+003,1.277115e-002
2.661327e+003,1.278057e-002
2.663255e+003,1.272966e-002
2.665184e+003,1.269012e-002
2.667112e+003,1.279671e-002
2.669041e+003,1.281040e-002
2.670969e+003,1.277951e-002
2.672898e+003,1.281889e-002
2.674826e+003,1.287067e-002
2.676755e+003,1.289306e-002
2.678683e+003,1.291033e-002
2.680612e+003,1.292989e-002
2.682540e+003,1.296860e-002
2.684469e+003,1.297096e-002
2.686397e+003,1.303422e-002
2.688326e+003,1.304221e-002
2.690254e+003,1.309459e-002
2.692183e+003,1.321136e-002
2.694111e+003,1.323612e-002
2.696040e+003,1.332782e-002
2.697968e+003,1.341943e-002
2.699897e+003,1.343679e-002
2.701825e+003,1.339130e-002
2.703754e+003,1.340227e-002
2.705682e+003,1.342459e-002
2.707611e+003,1.353379e-002
2.709539e+003,1.365953e-002
2.711468e+003,1.363990e-002
2.713396e+003,1.373503e-002
2.715325e+003,1.380080e-002
2.717253e+003,1.375511e-002
2.719182e+003,1.371995e-002
2.721110e+003,1.386634e-002
2.723039e+003,1.408212e-002
2.724967e+003,1.421192e-002
2.726896e+003,1.428359e-002
2.728824e+003,1.429940e-002
2.730753e+003,1.433584e-002
2.732681e+003,1.442516e-002
2.734610e+003,1.451146e-002
2.736538e+003,1.456240e-002
2.738467e+003,1.458252e-002
2.740395e+003,1.466216e-002
2.742324e+003,1.481798e-002
2.744252e+003,1.487665e-002
2.746181e+003,1.484425e-002
2.748109e+003,1.497901e-002
2.750038e+003,1.512950e-002
2.751966e+003,1.510102e-002
2.753895e+003,1.518031e-002
2.755823e+003,1.529404e-002
2.757752e+003,1.536595e-002
2.759680e+003,1.552928e-002
2.761609e+003,1.581285e-002
2.763537e+003,1.612625e-002
2.765466e+003,1.636991e-002
2.767394e+003,1.661572e-002
2.769323e+003,1.686683e-002
2.771251e+003,1.719774e-002
2.773180e+003,1.758721e-002
2.775108e+003,1.795044e-002
2.777037e+003,1.833675e-002
2.778965e+003,1.880357e-002
2.780894e+003,1.936588e-002
2.782822e+003,2.004493e-002
2.784750e+003,2.060554e-002
2.786679e+003,2.128285e-002
2.788608e+003,2.206034e-002
2.790536e+003,2.270404e-002
2.792465e+003,2.341088e-002
2.794393e+003,2.410386e-002
2.796322e+003,2.475326e-002
2.798250e+003,2.546454e-002
2.800178e+003,2.618808e-002
2.802107e+003,2.678248e-002
2.804036e+003,2.725046e-002
2.805964e+003,2.766986e-002
2.807893e+003,2.791550e-002
2.809821e+003,2.803530e-002
2.811750e+003,2.818249e-002
2.813678e+003,2.826021e-002
2.815606e+003,2.815499e-002
2.817535e+003,2.789303e-002
2.819464e+003,2.760520e-002
2.821392e+003,2.727840e-002
2.823321e+003,2.691483e-002
2.825249e+003,2.645627e-002
2.827177e+003,2.605546e-002
2.829106e+003,2.574522e-002
2.831034e+003,2.515374e-002
2.832963e+003,2.451995e-002
2.834892e+003,2.403091e-002
2.836820e+003,2.338504e-002
2.838749e+003,2.286725e-002
2.840677e+003,2.231745e-002
2.842605e+003,2.159144e-002
2.844534e+003,2.084461e-002
2.846462e+003,2.021311e-002
2.848391e+003,1.964409e-002
2.850320e+003,1.927667e-002
2.852248e+003,1.902884e-002
2.854177e+003,1.877883e-002
2.856105e+003,1.850348e-002
2.858033e+003,1.838670e-002
2.859962e+003,1.845421e-002
2.861890e+003,1.851036e-002
2.863819e+003,1.849833e-002
2.865748e+003,1.847354e-002
2.867676e+003,1.852900e-002
2.869604e+003,1.858319e-002
2.871533e+003,1.855511e-002
2.873461e+003,1.872109e-002
2.875390e+003,1.898578e-002
2.877319e+003,1.908929e-002
2.879247e+003,1.923424e-002
2.881176e+003,1.927567e-002
2.883104e+003,1.922638e-002
2.885032e+003,1.926618e-002
2.886961e+003,1.934866e-002
2.888889e+003,1.924536e-002
2.890818e+003,1.913309e-002
2.892747e+003,1.904376e-002
2.894675e+003,1.897758e-002
2.896604e+003,1.897657e-002
2.898532e+003,1.886437e-002
2.900460e+003,1.870078e-002
2.902389e+003,1.860774e-002
2.904317e+003,1.866104e-002
2.906246e+003,1.862016e-002
2.908175e+003,1.854563e-002
2.910103e+003,1.841906e-002
2.912031e+003,1.828218e-002
2.913960e+003,1.811944e-002
2.915888e+003,1.798411e-002
2.917817e+003,1.805208e-002
2.919745e+003,1.819963e-002
2.921674e+003,1.836738e-002
2.923603e+003,1.842528e-002
2.925531e+003,1.859515e-002
2.927459e+003,1.896082e-002
2.929388e+003,1.922808e-002
2.931316e+003,1.949197e-002
2.933245e+003,1.970501e-002
2.935173e+003,1.991521e-002
2.937102e+003,2.007671e-002
2.939031e+003,2.017524e-002
2.940959e+003,2.025137e-002
2.942887e+003,2.012662e-002
2.944816e+003,2.000575e-002
2.946744e+003,1.987160e-002
2.948673e+003,1.952576e-002
2.950601e+003,1.911041e-002
2.952530e+003,1.868494e-002
2.954458e+003,1.822879e-002
2.956387e+003,1.772594e-002
2.958315e+003,1.715358e-002
2.960244e+003,1.654074e-002
2.962172e+003,1.600212e-002
2.964101e+003,1.555520e-002
2.966029e+003,1.517424e-002
2.967958e+003,1.473221e-002
2.969886e+003,1.422819e-002
2.971815e+003,1.376906e-002
2.973743e+003,1.349827e-002
2.975672e+003,1.317959e-002
2.977600e+003,1.284514e-002
2.979529e+003,1.271496e-002
2.981457e+003,1.244759e-002
2.983386e+003,1.209261e-002
2.985314e+003,1.186675e-002
2.987243e+003,1.188575e-002
2.989171e+003,1.191466e-002
2.991100e+003,1.175936e-002
2.993028e+003,1.146641e-002
2.994957e+003,1.134413e-002
2.996885e+003,1.134008e-002
2.998814e+003,1.136426e-002
3.000742e+003,1.124598e-002
3.002671e+003,1.109252e-002
3.004599e+003,1.105472e-002
3.006528e+003,1.102196e-002
3.008456e+003,1.096246e-002
3.010385e+003,1.087418e-002
3.012313e+003,1.093734e-002
3.014242e+003,1.093874e-002
3.016170e+003,1.079044e-002
3.018099e+003,1.071572e-002
3.020027e+003,1.090157e-002
3.021956e+003,1.096395e-002
3.023884e+003,1.083909e-002
3.025813e+003,1.076055e-002
3.027741e+003,1.065052e-002
3.029670e+003,1.067959e-002
3.031598e+003,1.084116e-002
3.033527e+003,1.078572e-002
3.035455e+003,1.075430e-002
3.037384e+003,1.078436e-002
3.039312e+003,1.056486e-002
3.041241e+003,1.038201e-002
3.043169e+003,1.049564e-002
3.045098e+003,1.058214e-002
3.047026e+003,1.055314e-002
3.048955e+003,1.042412e-002
3.050883e+003,1.027251e-002
3.052812e+003,1.030376e-002
3.054740e+003,1.042582e-002
3.056669e+003,1.043542e-002
3.058597e+003,1.036086e-002
3.060526e+003,1.032771e-002
3.062454e+003,1.039802e-002
3.064383e+003,1.036948e-002
3.066311e+003,1.032062e-002
3.068240e+003,1.021009e-002
3.070168e+003,1.008578e-002
3.072097e+003,1.000202e-002
3.074025e+003,1.008581e-002
3.075954e+003,1.014544e-002
3.077882e+003,1.014971e-002
3.079811e+003,1.011630e-002
3.081739e+003,1.001257e-002
3.083668e+003,9.918725e-003
3.085596e+003,9.974934e-003
3.087525e+003,9.987479e-003
3.089453e+003,1.002406e-002
3.091382e+003,9.964899e-003
3.093310e+003,9.962322e-003
3.095239e+003,1.003698e-002
3.097167e+003,1.008887e-002
3.099096e+003,1.011064e-002
3.101024e+003,9.992870e-003
3.102953e+003,9.805448e-003
3.104881e+003,9.735876e-003
3.106810e+003,9.716630e-003
3.108738e+003,9.799382e-003
3.110667e+003,9.754344e-003
3.112595e+003,9.665773e-003
3.114524e+003,9.721509e-003
3.116452e+003,9.800500e-003
3.118381e+003,9.685797e-003
3.120309e+003,9.651103e-003
3.122238e+003,9.620716e-003
3.124166e+003,9.618716e-003
3.126095e+003,9.660318e-003
3.128023e+003,9.660047e-003
3.129952e+003,9.741366e-003
3.131880e+003,9.787859e-003
3.133809e+003,9.710328e-003
3.135737e+003,9.641211e-003
3.137666e+003,9.770948e-003
3.139594e+003,9.874895e-003
3.141523e+003,9.674141e-003
3.143451e+003,9.592396e-003
3.145380e+003,9.641821e-003
3.147308e+003,9.676784e-003
3.149237e+003,9.619361e-003
3.151165e+003,9.541621e-003
3.153094e+003,9.555170e-003
3.155022e+003,9.628202e-003
3.156951e+003,9.682103e-003
3.158879e+003,9.789960e-003
3.160808e+003,9.777456e-003
3.162736e+003,9.800602e-003
3.164665e+003,9.842932e-003
3.166593e+003,9.792943e-003
3.168522e+003,9.760918e-003
3.170450e+003,9.734487e-003
3.172379e+003,9.793417e-003
3.174307e+003,9.904657e-003
3.176236e+003,9.910861e-003
3.178164e+003,9.903844e-003
3.180093e+003,9.896013e-003
3.182021e+003,9.857574e-003
3.183950e+003,9.763528e-003
3.185878e+003,9.711445e-003
3.187807e+003,9.784911e-003
3.189735e+003,9.853236e-003
3.191664e+003,9.850931e-003
3.193592e+003,9.774778e-003
3.195521e+003,9.705584e-003
3.197449e+003,9.910488e-003
3.199378e+003,1.001382e-002
3.201306e+003,9.915674e-003
3.203235e+003,9.787757e-003
3.205163e+003,9.863710e-003
3.207092e+003,9.922353e-003
3.209020e+003,9.970968e-003
3.210948e+003,1.002366e-002
3.212877e+003,1.011176e-002
3.214806e+003,1.013770e-002
3.216734e+003,1.002027e-002
3.218663e+003,9.903945e-003
3.220591e+003,9.975579e-003
3.222520e+003,1.008938e-002
3.224448e+003,1.014374e-002
3.226376e+003,1.027760e-002
3.228305e+003,1.040651e-002
3.230234e+003,1.041659e-002
3.232162e+003,1.042993e-002
3.234091e+003,1.049292e-002
3.236019e+003,1.059779e-002
3.237948e+003,1.062621e-002
3.239876e+003,1.076402e-002
3.241804e+003,1.094394e-002
3.243733e+003,1.086100e-002
3.245662e+003,1.089212e-002
3.247590e+003,1.085438e-002
3.249519e+003,1.086732e-002
3.251447e+003,1.093432e-002
3.253375e+003,1.099990e-002
3.255304e+003,1.110720e-002
3.257232e+003,1.130889e-002
3.259161e+003,1.141529e-002
3.261090e+003,1.138743e-002
3.263018e+003,1.143338e-002
3.264947e+003,1.139144e-002
3.266875e+003,1.132110e-002
3.268803e+003,1.141977e-002
3.270732e+003,1.149693e-002
3.272660e+003,1.161201e-002
3.274589e+003,1.173543e-002
3.276518e+003,1.167624e-002
3.278446e+003,1.158775e-002
3.280375e+003,1.148254e-002
3.282303e+003,1.151554e-002
3.284231e+003,1.158520e-002
3.286160e+003,1.151047e-002
3.288088e+003,1.141467e-002
3.290017e+003,1.142243e-002
3.291946e+003,1.138178e-002
3.293874e+003,1.127710e-002
3.295802e+003,1.130716e-002
3.297731e+003,1.135892e-002
3.299659e+003,1.127207e-002
3.301588e+003,1.119073e-002
3.303516e+003,1.106302e-002
3.305445e+003,1.112604e-002
3.307374e+003,1.113831e-002
3.309302e+003,1.088189e-002
3.311230e+003,1.067884e-002
3.313159e+003,1.066128e-002
3.315087e+003,1.061707e-002
3.317016e+003,1.052558e-002
3.318944e+003,1.029287e-002
3.320873e+003,1.032632e-002
3.322802e+003,1.030365e-002
3.324730e+003,1.016507e-002
3.326658e+003,1.011525e-002
3.328587e+003,1.011678e-002
3.330515e+003,1.025073e-002
3.332444e+003,1.020602e-002
3.334372e+003,9.956390e-003
3.336301e+003,9.878523e-003
3.338229e+003,9.961101e-003
3.340158e+003,1.009796e-002
3.342086e+003,1.002888e-002
3.344015e+003,9.898487e-003
3.345943e+003,9.793044e-003
3.347872e+003,9.740111e-003
3.349800e+003,9.868625e-003
3.351729e+003,1.001982e-002
3.353657e+003,9.847813e-003
3.355586e+003,9.671669e-003
3.357514e+003,9.571021e-003
3.359443e+003,9.548226e-003
3.361371e+003,9.569260e-003
3.363300e+003,9.495120e-003
3.365229e+003,9.332084e-003
3.367157e+003,9.199601e-003
3.369085e+003,9.116862e-003
3.371014e+003,9.101974e-003
3.372942e+003,9.147486e-003
3.374871e+003,9.068917e-003
3.376799e+003,8.958669e-003
3.378728e+003,8.870159e-003
3.380656e+003,8.787720e-003
3.382585e+003,8.632722e-003
3.384513e+003,8.515117e-003
3.386442e+003,8.416629e-003
3.388370e+003,8.505182e-003
3.390299e+003,8.575943e-003
3.392227e+003,8.573240e-003
3.394156e+003,8.547827e-003
3.396084e+003,8.564859e-003
3.398013e+003,8.655909e-003
3.399941e+003,8.623190e-003
3.401870e+003,8.587603e-003
3.403798e+003,8.553131e-003
3.405727e+003,8.455380e-003
3.407655e+003,8.493930e-003
3.409584e+003,8.614437e-003
3.411512e+003,8.459096e-003
3.413441e+003,8.230764e-003
3.415369e+003,8.290977e-003
3.417298e+003,8.444332e-003
3.419226e+003,8.356838e-003
3.421155e+003,8.166745e-003
3.423083e+003,8.190853e-003
3.425012e+003,8.337417e-003
3.426940e+003,8.266560e-003
3.428869e+003,8.288444e-003
3.430797e+003,8.348698e-003
3.432726e+003,8.210234e-003
3.434654e+003,8.045687e-003
3.436583e+003,7.952200e-003
3.438511e+003,8.125995e-003
3.440440e+003,8.303371e-003
3.442368e+003,8.289559e-003
3.444297e+003,8.298441e-003
3.446225e+003,8.342281e-003
3.448154e+003,8.217122e-003
3.450082e+003,8.215738e-003
3.452011e+003,8.180689e-003
3.453939e+003,8.101554e-003
3.455868e+003,8.020677e-003
3.457796e+003,8.104828e-003
3.459725e+003,8.189266e-003
3.461653e+003,8.322049e-003
3.463582e+003,8.149324e-003
3.465510e+003,7.968432e-003
3.467439e+003,7.981460e-003
3.469367e+003,8.229954e-003
3.471296e+003,8.284627e-003
3.473224e+003,8.125860e-003
3.475153e+003,8.026786e-003
3.477081e+003,8.062598e-003
3.479010e+003,8.223065e-003
3.480938e+003,8.352312e-003
3.482867e+003,8.175287e-003
3.484795e+003,8.237282e-003
3.486724e+003,8.388794e-003
3.488652e+003,8.283986e-003
3.490581e+003,8.136359e-003
3.492509e+003,8.018686e-003
3.494438e+003,8.078768e-003
3.496366e+003,8.376329e-003
3.498295e+003,8.398117e-003
3.500223e+003,8.283074e-003
3.502152e+003,8.233061e-003
3.504080e+003,8.169446e-003
3.506009e+003,8.362851e-003
3.507937e+003,8.584053e-003
3.509866e+003,8.504641e-003
3.511794e+003,8.303034e-003
3.513723e+003,8.234547e-003
3.515651e+003,8.300433e-003
3.517580e+003,8.411731e-003
3.519508e+003,8.467508e-003
3.521437e+003,8.440481e-003
3.523365e+003,8.248325e-003
3.525294e+003,8.304588e-003
3.527222e+003,8.454197e-003
3.529151e+003,8.562425e-003
3.531079e+003,8.585439e-003
3.533008e+003,8.491937e-003
3.534936e+003,8.567055e-003
3.536865e+003,8.650973e-003
3.538793e+003,8.586352e-003
3.540722e+003,8.720000e-003
3.542650e+003,8.877734e-003
3.544579e+003,8.825488e-003
3.546507e+003,8.600411e-003
3.548436e+003,8.501465e-003
3.550364e+003,8.617648e-003
3.552293e+003,8.602710e-003
3.554221e+003,8.435514e-003
3.556150e+003,8.387679e-003
3.558078e+003,8.514880e-003
3.560007e+003,8.626300e-003
3.561935e+003,8.738594e-003
3.563864e+003,8.690624e-003
3.565792e+003,8.753436e-003
3.567721e+003,8.704416e-003
3.569649e+003,8.431899e-003
3.571578e+003,8.377139e-003
3.573506e+003,8.486970e-003
3.575435e+003,8.698737e-003
3.577363e+003,8.819706e-003
3.579292e+003,8.684506e-003
3.581220e+003,8.430683e-003
3.583149e+003,8.351265e-003
3.585077e+003,8.636677e-003
3.587006e+003,8.817406e-003
3.588934e+003,8.735315e-003
3.590863e+003,8.633296e-003
3.592791e+003,8.555532e-003
3.594720e+003,8.586284e-003
3.596648e+003,8.634783e-003
3.598577e+003,8.717499e-003
3.600505e+003,8.747147e-003
3.602434e+003,8.627381e-003
3.604362e+003,8.736431e-003
3.606291e+003,8.807905e-003
3.608219e+003,8.768954e-003
3.610148e+003,8.868806e-003
3.612076e+003,8.964892e-003
3.614005e+003,8.897078e-003
3.615933e+003,8.945309e-003
3.617862e+003,9.223969e-003
3.619790e+003,9.117843e-003
3.621719e+003,8.763511e-003
3.623647e+003,8.683931e-003
3.625576e+003,8.912941e-003
3.627504e+003,9.490820e-003
3.629433e+003,9.415136e-003
3.631361e+003,8.833130e-003
3.633290e+003,8.701779e-003
3.635218e+003,8.797017e-003
3.637146e+003,8.777069e-003
3.639075e+003,8.665407e-003
3.641004e+003,8.706444e-003
3.642932e+003,8.656247e-003
3.644861e+003,8.681497e-003
3.646789e+003,9.115170e-003
3.648718e+003,9.216015e-003
3.650646e+003,8.943989e-003
3.652574e+003,8.785860e-003
3.654503e+003,8.896369e-003
3.656432e+003,8.892513e-003
3.658360e+003,8.559418e-003
3.660289e+003,8.439366e-003
3.662217e+003,8.481497e-003
3.664146e+003,8.575132e-003
3.666074e+003,8.685215e-003
3.668002e+003,8.964757e-003
3.669931e+003,9.018306e-003
3.671860e+003,8.662061e-003
3.673788e+003,8.982144e-003
3.675717e+003,9.289566e-003
3.677645e+003,9.092974e-003
3.679573e+003,8.897146e-003
3.681502e+003,8.675074e-003
3.683430e+003,8.684911e-003
3.685359e+003,8.891464e-003
3.687288e+003,9.165488e-003
3.689216e+003,9.271118e-003
3.691145e+003,9.260625e-003
3.693073e+003,9.116624e-003
3.695001e+003,8.816629e-003
3.696930e+003,8.701339e-003
3.698858e+003,8.811252e-003
3.700787e+003,9.047535e-003
3.702716e+003,9.182984e-003
3.704644e+003,9.101433e-003
3.706573e+003,9.096933e-003
3.708501e+003,9.146673e-003
3.710429e+003,9.441615e-003
3.712358e+003,9.439448e-003
3.714286e+003,8.984039e-003
3.716215e+003,8.554687e-003
3.718144e+003,8.712123e-003
3.720072e+003,9.000648e-003
3.722000e+003,9.208198e-003
3.723929e+003,9.093143e-003
3.725857e+003,9.109079e-003
3.727786e+003,9.210465e-003
3.729714e+003,9.125017e-003
3.731643e+003,9.187011e-003
3.733572e+003,9.217098e-003
3.735500e+003,9.359304e-003
3.737428e+003,9.103226e-003
3.739357e+003,9.147316e-003
3.741285e+003,9.576949e-003
3.743214e+003,9.831070e-003
3.745142e+003,9.601745e-003
3.747071e+003,9.535627e-003
3.749000e+003,9.707583e-003
3.750928e+003,9.699620e-003
3.752856e+003,9.390926e-003
3.754785e+003,9.053963e-003
3.756713e+003,9.156960e-003
3.758642e+003,9.266040e-003
3.760570e+003,9.079812e-003
3.762499e+003,8.877667e-003
3.764427e+003,8.945782e-003
3.766356e+003,9.008631e-003
3.768284e+003,9.118994e-003
3.770213e+003,8.991954e-003
3.772141e+003,8.846555e-003
3.774070e+003,8.957654e-003
3.775998e+003,9.073586e-003
3.777927e+003,9.185319e-003
3.779855e+003,9.123900e-003
3.781784e+003,9.033428e-003
3.783712e+003,9.151546e-003
3.785641e+003,9.296506e-003
3.787569e+003,9.134153e-003
3.789498e+003,8.879662e-003
3.791426e+003,8.814769e-003
3.793355e+003,8.910066e-003
3.795283e+003,9.270035e-003
3.797212e+003,9.279716e-003
3.799140e+003,9.142274e-003
3.801069e+003,9.177569e-003
3.802997e+003,9.035762e-003
3.804926e+003,8.974905e-003
3.806854e+003,9.168568e-003
3.808783e+003,9.010153e-003
3.810711e+003,8.855280e-003
3.812640e+003,8.959109e-003
3.814568e+003,9.278598e-003
3.816497e+003,9.259203e-003
3.818425e+003,9.332119e-003
3.820354e+003,9.873303e-003
3.822282e+003,9.648698e-003
3.824211e+003,9.210804e-003
3.826139e+003,8.999227e-003
3.828068e+003,9.061779e-003
3.829996e+003,9.382800e-003
3.831925e+003,9.499997e-003
3.833853e+003,9.453569e-003
3.835782e+003,9.615431e-003
3.837710e+003,9.595004e-003
3.839639e+003,9.369054e-003
3.841567e+003,9.318983e-003
3.843496e+003,9.256360e-003
3.845424e+003,9.229519e-003
3.847353e+003,9.062185e-003
3.849281e+003,9.360353e-003
3.851210e+003,1.006635e-002
3.853138e+003,1.049856e-002
3.855067e+003,9.787961e-003
3.856995e+003,9.358965e-003
3.858924e+003,9.385001e-003
3.860852e+003,9.534678e-003
3.862781e+003,9.589382e-003
3.864709e+003,9.474293e-003
3.866638e+003,9.325077e-003
3.868566e+003,9.486451e-003
3.870495e+003,9.576916e-003
3.872423e+003,9.421162e-003
3.874352e+003,9.262317e-003
3.876280e+003,9.142071e-003
3.878209e+003,9.293323e-003
3.880137e+003,9.466031e-003
3.882066e+003,9.324806e-003
3.883994e+003,9.305104e-003
3.885923e+003,9.456413e-003
3.887851e+003,9.377993e-003
3.889780e+003,9.608113e-003
3.891708e+003,9.423363e-003
3.893637e+003,9.133510e-003
3.895565e+003,9.311163e-003
3.897494e+003,9.488889e-003
3.899422e+003,9.673870e-003
3.901351e+003,9.667569e-003
3.903279e+003,9.704737e-003
3.905208e+003,9.587586e-003
3.907136e+003,9.258391e-003
3.909065e+003,9.222480e-003
3.910993e+003,9.238489e-003
3.912922e+003,9.204170e-003
3.914850e+003,9.282729e-003
3.916779e+003,9.287569e-003
3.918707e+003,9.455533e-003
3.920636e+003,9.462779e-003
3.922564e+003,9.174862e-003
3.924493e+003,9.255412e-003
3.926421e+003,9.329883e-003
3.928350e+003,9.250911e-003
3.930278e+003,9.211175e-003
3.932207e+003,9.395632e-003
3.934135e+003,9.636638e-003
3.936064e+003,9.758512e-003
3.937992e+003,9.634300e-003
3.939921e+003,9.473379e-003
3.941849e+003,9.530004e-003
3.943778e+003,9.653780e-003
3.945706e+003,9.492275e-003
3.947635e+003,9.461695e-003
3.949563e+003,9.691895e-003
3.951492e+003,9.492039e-003
3.953420e+003,9.297216e-003
3.955349e+003,9.455126e-003
3.957277e+003,9.575391e-003
3.959206e+003,9.484317e-003
3.961134e+003,9.459393e-003
3.963063e+003,9.597375e-003
3.964991e+003,9.487907e-003
3.966920e+003,9.367733e-003
3.968848e+003,9.495053e-003
3.970777e+003,9.530445e-003
3.972705e+003,9.545686e-003
3.974634e+003,9.563502e-003
3.976562e+003,9.509311e-003
3.978491e+003,9.411546e-003
3.980419e+003,9.556389e-003
3.982348e+003,9.494985e-003
3.984276e+003,9.537083e-003
3.986205e+003,9.512122e-003
3.988133e+003,9.727946e-003
3.990062e+003,9.960084e-003
3.991990e+003,9.659437e-003
3.993919e+003,9.578406e-003
3.995847e+003,9.665536e-003
3.997776e+003,9.554153e-003
3.999704e+003,9.496170e-003
4.001633e+003,0.000000e+000
