3.991989e+002,-1.246625e-002
4.011274e+002,1.167130e-002
4.030559e+002,-1.062501e-003
4.049844e+002,-1.577270e-002
4.069129e+002,-7.576066e-003
4.088414e+002,-1.199154e-003
4.107699e+002,-8.667163e-004
4.126984e+002,-2.222963e-003
4.146269e+002,3.705403e-003
4.165554e+002,7.799626e-003
4.184839e+002,7.934113e-003
4.204124e+002,1.232213e-002
4.223409e+002,1.061388e-002
4.242694e+002,1.005156e-002
4.261979e+002,7.124888e-003
4.281264e+002,1.115208e-002
4.300549e+002,1.558244e-002
4.319834e+002,1.262568e-002
4.339119e+002,1.215714e-002
4.358404e+002,1.283296e-002
4.377689e+002,1.436838e-002
4.396974e+002,9.535593e-003
4.416259e+002,3.445757e-003
4.435544e+002,6.916176e-003
4.454829e+002,9.460205e-003
4.474114e+002,1.057416e-002
4.493399e+002,1.218266e-002
4.512684e+002,9.462305e-003
4.531969e+002,8.765100e-003
4.551254e+002,8.408961e-003
4.570539e+002,8.729973e-003
4.589824e+002,8.320360e-003
4.609109e+002,7.545511e-003
4.628394e+002,9.333405e-003
4.647679e+002,9.647987e-003
4.666964e+002,1.069619e-002
4.686249e+002,1.191088e-002
4.705533e+002,1.247872e-002
4.724819e+002,1.128291e-002
4.744103e+002,1.008822e-002
4.763389e+002,1.111241e-002
4.782673e+002,1.029103e-002
4.801959e+002,9.918454e-003
4.821243e+002,1.115765e-002
4.840529e+002,1.099216e-002
4.859813e+002,1.100048e-002
4.879099e+002,1.146567e-002
4.898383e+002,1.222066e-002
4.917668e+002,9.831917e-003
4.936953e+002,8.079814e-003
4.956238e+002,9.535390e-003
4.975523e+002,1.130767e-002
4.994808e+002,1.008185e-002
5.014093e+002,1.071912e-002
5.033378e+002,1.324500e-002
5.052663e+002,1.486965e-002
5.071948e+002,1.394931e-002
5.091233e+002,1.123810e-002
5.110518e+002,1.139644e-002
5.129803e+002,1.188326e-002
5.149088e+002,1.040240e-002
5.168373e+002,9.991141e-003
5.187658e+002,1.049238e-002
5.206943e+002,1.015965e-002
5.226228e+002,1.115806e-002
5.245513e+002,1.271083e-002
5.264798e+002,1.261759e-002
5.284083e+002,1.140022e-002
5.303368e+002,1.171218e-002
5.322653e+002,1.160146e-002
5.341938e+002,1.261190e-002
5.361223e+002,1.225024e-002
5.380508e+002,1.166235e-002
5.399792e+002,1.175647e-002
5.419078e+002,1.280289e-002
5.438363e+002,1.447884e-002
5.457648e+002,1.487651e-002
5.476932e+002,1.427913e-002
5.496218e+002,1.279555e-002
5.515503e+002,1.307919e-002
5.534788e+002,1.335310e-002
5.554072e+002,1.345740e-002
5.573358e+002,1.390599e-002
5.592643e+002,1.398195e-002
5.611927e+002,1.514271e-002
5.631212e+002,1.620503e-002
5.650497e+002,1.633991e-002
5.669783e+002,1.511962e-002
5.689067e+002,1.534693e-002
5.708352e+002,1.506394e-002
5.727637e+002,1.465441e-002
5.746923e+002,1.423507e-002
5.766207e+002,1.306891e-002
5.785492e+002,1.457025e-002
5.804777e+002,2.007703e-002
5.824063e+002,1.909753e-002
5.843347e+002,1.566985e-002
5.862632e+002,1.484000e-002
5.881917e+002,1.450522e-002
5.901202e+002,1.556997e-002
5.920487e+002,1.699078e-002
5.939772e+002,1.634108e-002
5.959057e+002,1.585041e-002
5.978342e+002,1.785887e-002
5.997627e+002,1.925949e-002
6.016912e+002,2.052137e-002
6.036197e+002,2.195247e-002
6.055482e+002,2.377293e-002
6.074767e+002,2.508286e-002
6.094052e+002,2.516312e-002
6.113337e+002,2.343117e-002
6.132622e+002,2.179918e-002
6.151907e+002,2.237386e-002
6.171192e+002,2.300351e-002
6.190477e+002,2.288953e-002
6.209762e+002,2.284524e-002
6.229047e+002,2.166517e-002
6.248332e+002,1.939016e-002
6.267617e+002,1.721825e-002
6.286902e+002,1.516655e-002
6.306187e+002,1.379513e-002
6.325472e+002,1.354141e-002
6.344756e+002,1.341276e-002
6.364042e+002,1.274457e-002
6.383326e+002,1.242102e-002
6.402612e+002,1.247217e-002
6.421896e+002,1.303391e-002
6.441182e+002,1.294276e-002
6.460466e+002,1.204045e-002
6.479752e+002,1.167576e-002
6.499036e+002,1.200431e-002
6.518322e+002,1.180543e-002
6.537606e+002,1.139542e-002
6.556891e+002,1.136100e-002
6.576177e+002,1.099447e-002
6.595461e+002,1.054014e-002
6.614746e+002,1.077044e-002
6.634031e+002,1.068916e-002
6.653317e+002,1.136634e-002
6.672601e+002,1.250484e-002
6.691886e+002,1.191143e-002
6.711171e+002,1.062291e-002
6.730457e+002,1.007584e-002
6.749741e+002,1.043648e-002
6.769026e+002,1.116126e-002
6.788311e+002,1.138117e-002
6.807596e+002,1.156219e-002
6.826881e+002,1.183515e-002
6.846166e+002,1.219353e-002
6.865451e+002,1.220788e-002
6.884736e+002,1.251371e-002
6.904021e+002,1.270227e-002
6.923306e+002,1.302848e-002
6.942591e+002,1.304788e-002
6.961876e+002,1.271728e-002
6.981161e+002,1.238495e-002
7.000446e+002,1.272120e-002
7.019731e+002,1.304494e-002
7.039016e+002,1.304470e-002
7.058301e+002,1.322229e-002
7.077585e+002,1.311784e-002
7.096871e+002,1.310999e-002
7.116156e+002,1.396799e-002
7.135441e+002,1.424407e-002
7.154725e+002,1.390124e-002
7.174011e+002,1.432187e-002
7.193296e+002,1.529040e-002
7.212581e+002,1.507077e-002
7.231865e+002,1.522750e-002
7.251151e+002,1.552224e-002
7.270436e+002,1.533523e-002
7.289720e+002,1.566776e-002
7.309005e+002,1.606212e-002
7.328290e+002,1.624579e-002
7.347576e+002,1.647776e-002
7.366860e+002,1.696380e-002
7.386145e+002,1.745087e-002
7.405430e+002,1.730886e-002
7.424716e+002,1.674745e-002
7.444000e+002,1.656873e-002
7.463285e+002,1.657640e-002
7.482570e+002,1.649008e-002
7.501855e+002,1.680252e-002
7.521140e+002,1.707714e-002
7.540425e+002,1.737824e-002
7.559710e+002,1.757758e-002
7.578995e+002,1.736503e-002
7.598280e+002,1.726859e-002
7.617565e+002,1.701401e-002
7.636850e+002,1.716578e-002
7.656135e+002,1.756199e-002
7.675420e+002,1.791474e-002
7.694705e+002,1.800117e-002
7.713990e+002,1.785649e-002
7.733275e+002,1.816003e-002
7.752560e+002,1.871327e-002
7.771844e+002,1.801222e-002
7.791130e+002,1.753253e-002
7.810415e+002,1.786070e-002
7.829700e+002,1.769688e-002
7.848984e+002,1.758293e-002
7.868270e+002,1.642807e-002
7.887555e+002,1.570211e-002
7.906840e+002,1.569452e-002
7.926124e+002,1.582769e-002
7.945410e+002,1.571918e-002
7.964695e+002,1.547059e-002
7.983979e+002,1.474030e-002
8.003264e+002,1.424061e-002
8.022549e+002,1.450217e-002
8.041835e+002,1.504782e-002
8.061119e+002,1.546994e-002
8.080404e+002,1.608760e-002
8.099689e+002,1.624411e-002
8.118975e+002,1.607398e-002
8.138259e+002,1.623819e-002
8.157545e+002,1.662026e-002
8.176830e+002,1.634580e-002
8.196115e+002,1.590268e-002
8.215399e+002,1.566892e-002
8.234684e+002,1.571912e-002
8.253970e+002,1.560748e-002
8.273254e+002,1.554552e-002
8.292539e+002,1.524932e-002
8.311824e+002,1.510078e-002
8.331110e+002,1.525749e-002
8.350394e+002,1.535122e-002
8.369679e+002,1.574025e-002
8.388964e+002,1.568401e-002
8.408250e+002,1.535802e-002
8.427534e+002,1.516463e-002
8.446819e+002,1.517040e-002
8.466104e+002,1.526476e-002
8.485389e+002,1.541312e-002
8.504674e+002,1.533660e-002
8.523959e+002,1.516902e-002
8.543244e+002,1.547073e-002
8.562529e+002,1.557811e-002
8.581814e+002,1.542184e-002
8.601099e+002,1.556564e-002
8.620384e+002,1.558244e-002
8.639669e+002,1.524531e-002
8.658954e+002,1.517702e-002
8.678239e+002,1.547973e-002
8.697524e+002,1.507663e-002
8.716809e+002,1.455627e-002
8.736094e+002,1.464139e-002
8.755378e+002,1.493295e-002
8.774664e+002,1.517541e-002
8.793949e+002,1.530698e-002
8.813234e+002,1.530039e-002
8.832518e+002,1.559573e-002
8.851804e+002,1.556977e-002
8.871089e+002,1.517156e-002
8.890374e+002,1.530520e-002
8.909658e+002,1.542620e-002
8.928943e+002,1.579488e-002
8.948229e+002,1.619712e-002
8.967513e+002,1.629350e-002
8.986798e+002,1.608605e-002
9.006083e+002,1.602591e-002
9.025369e+002,1.615462e-002
9.044653e+002,1.611937e-002
9.063938e+002,1.552921e-002
9.083223e+002,1.519116e-002
9.102509e+002,1.521648e-002
9.121793e+002,1.502055e-002
9.141078e+002,1.461277e-002
9.160364e+002,1.486544e-002
9.179648e+002,1.472553e-002
9.198933e+002,1.433896e-002
9.218218e+002,1.405552e-002
9.237504e+002,1.380159e-002
9.256788e+002,1.352927e-002
9.276073e+002,1.350179e-002
9.295358e+002,1.368490e-002
9.314644e+002,1.362862e-002
9.333928e+002,1.348723e-002
9.353213e+002,1.335149e-002
9.372498e+002,1.342729e-002
9.391783e+002,1.332266e-002
9.411068e+002,1.310780e-002
9.430353e+002,1.329061e-002
9.449637e+002,1.329625e-002
9.468923e+002,1.321197e-002
9.488208e+002,1.354192e-002
9.507493e+002,1.379619e-002
9.526777e+002,1.371339e-002
9.546063e+002,1.378722e-002
9.565348e+002,1.389409e-002
9.584633e+002,1.405861e-002
9.603917e+002,1.421898e-002
9.623203e+002,1.404255e-002
9.642488e+002,1.394472e-002
9.661772e+002,1.399225e-002
9.681057e+002,1.409779e-002
9.700343e+002,1.388143e-002
9.719628e+002,1.362571e-002
9.738912e+002,1.370744e-002
9.758197e+002,1.345439e-002
9.777483e+002,1.323117e-002
9.796768e+002,1.329649e-002
9.816052e+002,1.321279e-002
9.835337e+002,1.296416e-002
9.854623e+002,1.271632e-002
9.873907e+002,1.233600e-002
9.893192e+002,1.205510e-002
9.912477e+002,1.215152e-002
9.931763e+002,1.203145e-002
9.951047e+002,1.169652e-002
9.970332e+002,1.159115e-002
9.989617e+002,1.154828e-002
1.000890e+003,1.165432e-002
1.002819e+003,1.167780e-002
1.004747e+003,1.172185e-002
1.006676e+003,1.174959e-002
1.008604e+003,1.174803e-002
1.010533e+003,1.181744e-002
1.012461e+003,1.203806e-002
1.014390e+003,1.208957e-002
1.016318e+003,1.202226e-002
1.018247e+003,1.211240e-002
1.020175e+003,1.212337e-002
1.022104e+003,1.227110e-002
1.024032e+003,1.278542e-002
1.025961e+003,1.301336e-002
1.027889e+003,1.301605e-002
1.029818e+003,1.320528e-002
1.031746e+003,1.362797e-002
1.033675e+003,1.382338e-002
1.035603e+003,1.433485e-002
1.037532e+003,1.468378e-002
1.039460e+003,1.471610e-002
1.041389e+003,1.493957e-002
1.043317e+003,1.510641e-002
1.045246e+003,1.508473e-002
1.047174e+003,1.521768e-002
1.049103e+003,1.521634e-002
1.051031e+003,1.517105e-002
1.052960e+003,1.528793e-002
1.054888e+003,1.525567e-002
1.056817e+003,1.515763e-002
1.058745e+003,1.529109e-002
1.060674e+003,1.523961e-002
1.062602e+003,1.512761e-002
1.064531e+003,1.529377e-002
1.066459e+003,1.533156e-002
1.068388e+003,1.511087e-002
1.070316e+003,1.507481e-002
1.072245e+003,1.525481e-002
1.074173e+003,1.537982e-002
1.076102e+003,1.515914e-002
1.078030e+003,1.502134e-002
1.079959e+003,1.513142e-002
1.081887e+003,1.514466e-002
1.083816e+003,1.510826e-002
1.085744e+003,1.536159e-002
1.087673e+003,1.575615e-002
1.089601e+003,1.592681e-002
1.091530e+003,1.602811e-002
1.093458e+003,1.648822e-002
1.095387e+003,1.664977e-002
1.097315e+003,1.681723e-002
1.099244e+003,1.700060e-002
1.101172e+003,1.713555e-002
1.103101e+003,1.722746e-002
1.105029e+003,1.709409e-002
1.106958e+003,1.700891e-002
1.108886e+003,1.723539e-002
1.110815e+003,1.755457e-002
1.112743e+003,1.772801e-002
1.114672e+003,1.745557e-002
1.116600e+003,1.746219e-002
1.118529e+003,1.747564e-002
1.120457e+003,1.746091e-002
1.122386e+003,1.746788e-002
1.124314e+003,1.742776e-002
1.126243e+003,1.724428e-002
1.128171e+003,1.717781e-002
1.130100e+003,1.719653e-002
1.132028e+003,1.704722e-002
1.133957e+003,1.691361e-002
1.135885e+003,1.676219e-002
1.137814e+003,1.659585e-002
1.139742e+003,1.634005e-002
1.141671e+003,1.593437e-002
1.143599e+003,1.550119e-002
1.145528e+003,1.527300e-002
1.147456e+003,1.503465e-002
1.149385e+003,1.463138e-002
1.151313e+003,1.424774e-002
1.153242e+003,1.402709e-002
1.155170e+003,1.392662e-002
1.157099e+003,1.384489e-002
1.159027e+003,1.363122e-002
1.160956e+003,1.345702e-002
1.162884e+003,1.338700e-002
1.164813e+003,1.369075e-002
1.166741e+003,1.380337e-002
1.168670e+003,1.373216e-002
1.170598e+003,1.367615e-002
1.172526e+003,1.335956e-002
1.174455e+003,1.348016e-002
1.176384e+003,1.348026e-002
1.178312e+003,1.328972e-002
1.180240e+003,1.319315e-002
1.182169e+003,1.307195e-002
1.184098e+003,1.306591e-002
1.186026e+003,1.307168e-002
1.187954e+003,1.294167e-002
1.189883e+003,1.246307e-002
1.191812e+003,1.222144e-002
1.193740e+003,1.249601e-002
1.195668e+003,1.256152e-002
1.197597e+003,1.229820e-002
1.199526e+003,1.211519e-002
1.201454e+003,1.207128e-002
1.203382e+003,1.197668e-002
1.205311e+003,1.184427e-002
1.207240e+003,1.184240e-002
1.209168e+003,1.212184e-002
1.211096e+003,1.216337e-002
1.213025e+003,1.204586e-002
1.214953e+003,1.221118e-002
1.216882e+003,1.227689e-002
1.218810e+003,1.214886e-002
1.220739e+003,1.209335e-002
1.222667e+003,1.226370e-002
1.224596e+003,1.247391e-002
1.226524e+003,1.243139e-002
1.228453e+003,1.246232e-002
1.230381e+003,1.272315e-002
1.232310e+003,1.292593e-002
1.234238e+003,1.297058e-002
1.236167e+003,1.301250e-002
1.238095e+003,1.319998e-002
1.240024e+003,1.337070e-002
1.241952e+003,1.342537e-002
1.243881e+003,1.337340e-002
1.245809e+003,1.349321e-002
1.247738e+003,1.356855e-002
1.249666e+003,1.359850e-002
1.251595e+003,1.359590e-002
1.253523e+003,1.364134e-002
1.255452e+003,1.371209e-002
1.257380e+003,1.383278e-002
1.259309e+003,1.388615e-002
1.261237e+003,1.393918e-002
1.263166e+003,1.424972e-002
1.265094e+003,1.442513e-002
1.267023e+003,1.486094e-002
1.268951e+003,1.514861e-002
1.270880e+003,1.528831e-002
1.272808e+003,1.561987e-002
1.274737e+003,1.584721e-002
1.276665e+003,1.600948e-002
1.278594e+003,1.628332e-002
1.280522e+003,1.657778e-002
1.282451e+003,1.687313e-002
1.284379e+003,1.697000e-002
1.286308e+003,1.733820e-002
1.288236e+003,1.765246e-002
1.290165e+003,1.779715e-002
1.292093e+003,1.798546e-002
1.294022e+003,1.813177e-002
1.295950e+003,1.838234e-002
1.297879e+003,1.849792e-002
1.299807e+003,1.846946e-002
1.301736e+003,1.842970e-002
1.303664e+003,1.838255e-002
1.305593e+003,1.835009e-002
1.307521e+003,1.820447e-002
1.309450e+003,1.786364e-002
1.311378e+003,1.754243e-002
1.313307e+003,1.754077e-002
1.315235e+003,1.744056e-002
1.317164e+003,1.701738e-002
1.319092e+003,1.663245e-002
1.321021e+003,1.622484e-002
1.322949e+003,1.591423e-002
1.324878e+003,1.582989e-002
1.326806e+003,1.570455e-002
1.328735e+003,1.568377e-002
1.330663e+003,1.557766e-002
1.332592e+003,1.540594e-002
1.334520e+003,1.537446e-002
1.336449e+003,1.538318e-002
1.338377e+003,1.531003e-002
1.340306e+003,1.526157e-002
1.342234e+003,1.528271e-002
1.344163e+003,1.518906e-002
1.346091e+003,1.503345e-002
1.348020e+003,1.510802e-002
1.349948e+003,1.513705e-002
1.351877e+003,1.505056e-002
1.353805e+003,1.505433e-002
1.355734e+003,1.507770e-002
1.357662e+003,1.492771e-002
1.359591e+003,1.480756e-002
1.361519e+003,1.482861e-002
1.363448e+003,1.481864e-002
1.365376e+003,1.465979e-002
1.367305e+003,1.456261e-002
1.369233e+003,1.445897e-002
1.371162e+003,1.430108e-002
1.373090e+003,1.446548e-002
1.375019e+003,1.455922e-002
1.376947e+003,1.445096e-002
1.378876e+003,1.450118e-002
1.380804e+003,1.466792e-002
1.382733e+003,1.467031e-002
1.384661e+003,1.462288e-002
1.386590e+003,1.474099e-002
1.388518e+003,1.461178e-002
1.390447e+003,1.431759e-002
1.392375e+003,1.414767e-002
1.394304e+003,1.422839e-002
1.396232e+003,1.417512e-002
1.398161e+003,1.410512e-002
1.400089e+003,1.406169e-002
1.402018e+003,1.392409e-002
1.403946e+003,1.382885e-002
1.405875e+003,1.376496e-002
1.407803e+003,1.369581e-002
1.409732e+003,1.353208e-002
1.411660e+003,1.333492e-002
1.413589e+003,1.342404e-002
1.415517e+003,1.364384e-002
1.417446e+003,1.400265e-002
1.419374e+003,1.439067e-002
1.421303e+003,1.455439e-002
1.423231e+003,1.486156e-002
1.425160e+003,1.542970e-002
1.427088e+003,1.590124e-002
1.429017e+003,1.624596e-002
1.430945e+003,1.651021e-002
1.432874e+003,1.680035e-002
1.434802e+003,1.737452e-002
1.436731e+003,1.796115e-002
1.438659e+003,1.801150e-002
1.440588e+003,1.823401e-002
1.442516e+003,1.870923e-002
1.444445e+003,1.907083e-002
1.446373e+003,1.954714e-002
1.448302e+003,2.004517e-002
1.450230e+003,2.031754e-002
1.452159e+003,2.076484e-002
1.454087e+003,2.130286e-002
1.456016e+003,2.192099e-002
1.457944e+003,2.217788e-002
1.459873e+003,2.193609e-002
1.461801e+003,2.180597e-002
1.463730e+003,2.196665e-002
1.465658e+003,2.185757e-002
1.467587e+003,2.140654e-002
1.469515e+003,2.115436e-002
1.471444e+003,2.119697e-002
1.473372e+003,2.094801e-002
1.475301e+003,2.042352e-002
1.477229e+003,1.981403e-002
1.479158e+003,1.912987e-002
1.481086e+003,1.852029e-002
1.483015e+003,1.797092e-002
1.484943e+003,1.755847e-002
1.486872e+003,1.729975e-002
1.488800e+003,1.710940e-002
1.490729e+003,1.672528e-002
1.492657e+003,1.609939e-002
1.494586e+003,1.591505e-002
1.496514e+003,1.579677e-002
1.498443e+003,1.535239e-002
1.500371e+003,1.485124e-002
1.502300e+003,1.453321e-002
1.504228e+003,1.463152e-002
1.506157e+003,1.495391e-002
1.508085e+003,1.471775e-002
1.510014e+003,1.428773e-002
1.511942e+003,1.410105e-002
1.513871e+003,1.395112e-002
1.515799e+003,1.389874e-002
1.517728e+003,1.397206e-002
1.519656e+003,1.410796e-002
1.521585e+003,1.423003e-002
1.523513e+003,1.424068e-002
1.525442e+003,1.429382e-002
1.527370e+003,1.418871e-002
1.529299e+003,1.411491e-002
1.531227e+003,1.427502e-002
1.533156e+003,1.469845e-002
1.535084e+003,1.467456e-002
1.537013e+003,1.482063e-002
1.538941e+003,1.548670e-002
1.540870e+003,1.564677e-002
1.542798e+003,1.536588e-002
1.544727e+003,1.526325e-002
1.546655e+003,1.515286e-002
1.548584e+003,1.521085e-002
1.550512e+003,1.538658e-002
1.552441e+003,1.550390e-002
1.554369e+003,1.572214e-002
1.556298e+003,1.601127e-002
1.558226e+003,1.659475e-002
1.560155e+003,1.658811e-002
1.562083e+003,1.642542e-002
1.564012e+003,1.674249e-002
1.565940e+003,1.704371e-002
1.567869e+003,1.720794e-002
1.569797e+003,1.738783e-002
1.571726e+003,1.741887e-002
1.573654e+003,1.758818e-002
1.575583e+003,1.795790e-002
1.577511e+003,1.782580e-002
1.579440e+003,1.749758e-002
1.581368e+003,1.755278e-002
1.583297e+003,1.745353e-002
1.585225e+003,1.728617e-002
1.587154e+003,1.724256e-002
1.589082e+003,1.704478e-002
1.591010e+003,1.668943e-002
1.592939e+003,1.650632e-002
1.594868e+003,1.632299e-002
1.596796e+003,1.602499e-002
1.598724e+003,1.571407e-002
1.600653e+003,1.533241e-002
1.602582e+003,1.507077e-002
1.604510e+003,1.486026e-002
1.606438e+003,1.462518e-002
1.608367e+003,1.436516e-002
1.610296e+003,1.422565e-002
1.612224e+003,1.391075e-002
1.614152e+003,1.376356e-002
1.616081e+003,1.381951e-002
1.618010e+003,1.361809e-002
1.619938e+003,1.332549e-002
1.621866e+003,1.329000e-002
1.623795e+003,1.309295e-002
1.625724e+003,1.296942e-002
1.627652e+003,1.306478e-002
1.629580e+003,1.280746e-002
1.631509e+003,1.251354e-002
1.633438e+003,1.262639e-002
1.635366e+003,1.285903e-002
1.637294e+003,1.243722e-002
1.639223e+003,1.191391e-002
1.641151e+003,1.145410e-002
1.643080e+003,1.113450e-002
1.645008e+003,1.118601e-002
1.646937e+003,1.118033e-002
1.648865e+003,1.074011e-002
1.650794e+003,1.073148e-002
1.652722e+003,1.129638e-002
1.654651e+003,1.066600e-002
1.656579e+003,9.959813e-003
1.658508e+003,9.546804e-003
1.660436e+003,9.373387e-003
1.662365e+003,9.531732e-003
1.664293e+003,9.548294e-003
1.666222e+003,9.530987e-003
1.668150e+003,9.685729e-003
1.670079e+003,9.593954e-003
1.672007e+003,9.343865e-003
1.673936e+003,9.317053e-003
1.675864e+003,9.206065e-003
1.677793e+003,8.892784e-003
1.679721e+003,8.807026e-003
1.681650e+003,8.870091e-003
1.683578e+003,9.225052e-003
1.685507e+003,9.041851e-003
1.687435e+003,8.604974e-003
1.689364e+003,8.490957e-003
1.691292e+003,8.405278e-003
1.693221e+003,8.433048e-003
1.695149e+003,8.855483e-003
1.697078e+003,9.019287e-003
1.699006e+003,9.309437e-003
1.700935e+003,9.419334e-003
1.702863e+003,8.997637e-003
1.704792e+003,8.980893e-003
1.706720e+003,9.020708e-003
1.708649e+003,9.024091e-003
1.710577e+003,9.040736e-003
1.712506e+003,9.127486e-003
1.714434e+003,9.319017e-003
1.716363e+003,9.498134e-003
1.718291e+003,9.365669e-003
1.720220e+003,9.105594e-003
1.722148e+003,9.064823e-003
1.724077e+003,9.102245e-003
1.726005e+003,9.075142e-003
1.727934e+003,9.113918e-003
1.729862e+003,9.266007e-003
1.731791e+003,9.417302e-003
1.733719e+003,9.596020e-003
1.735648e+003,9.316511e-003
1.737576e+003,9.161393e-003
1.739505e+003,9.401287e-003
1.741433e+003,9.386355e-003
1.743362e+003,9.329579e-003
1.745290e+003,9.433623e-003
1.747219e+003,9.520758e-003
1.749147e+003,9.569463e-003
1.751076e+003,9.560487e-003
1.753004e+003,9.373523e-003
1.754933e+003,9.405045e-003
1.756861e+003,9.513171e-003
1.758790e+003,9.473921e-003
1.760718e+003,9.532510e-003
1.762647e+003,9.539082e-003
1.764575e+003,9.450284e-003
1.766504e+003,9.590634e-003
1.768432e+003,9.742890e-003
1.770361e+003,9.840459e-003
1.772289e+003,9.875540e-003
1.774218e+003,9.624070e-003
1.776146e+003,9.474631e-003
1.778075e+003,9.454008e-003
1.780003e+003,9.389504e-003
1.781932e+003,9.339701e-003
1.783860e+003,9.462678e-003
1.785789e+003,9.487331e-003
1.787717e+003,9.475072e-003
1.789646e+003,9.617158e-003
1.791574e+003,9.818259e-003
1.793503e+003,9.711005e-003
1.795431e+003,9.440430e-003
1.797360e+003,9.416456e-003
1.799288e+003,9.612856e-003
1.801217e+003,9.708870e-003
1.803145e+003,9.668483e-003
1.805074e+003,9.643854e-003
1.807002e+003,9.633657e-003
1.808931e+003,9.562554e-003
1.810859e+003,9.673634e-003
1.812788e+003,9.767356e-003
1.814716e+003,9.676412e-003
1.816645e+003,9.722593e-003
1.818573e+003,9.744450e-003
1.820502e+003,9.745059e-003
1.822430e+003,9.726252e-003
1.824359e+003,9.796467e-003
1.826287e+003,9.725202e-003
1.828216e+003,9.694640e-003
1.830144e+003,9.806735e-003
1.832073e+003,9.791417e-003
1.834001e+003,9.760647e-003
1.835930e+003,9.629354e-003
1.837858e+003,9.585418e-003
1.839787e+003,9.594259e-003
1.841715e+003,9.656185e-003
1.843644e+003,9.747838e-003
1.845572e+003,9.620851e-003
1.847501e+003,9.583893e-003
1.849429e+003,9.651206e-003
1.851358e+003,9.649172e-003
1.853286e+003,9.569531e-003
1.855215e+003,9.599272e-003
1.857143e+003,9.647885e-003
1.859072e+003,9.649172e-003
1.861000e+003,9.676445e-003
1.862929e+003,9.705753e-003
1.864857e+003,9.753598e-003
1.866786e+003,9.795044e-003
1.868714e+003,9.844255e-003
1.870643e+003,9.768576e-003
1.872571e+003,9.791587e-003
1.874500e+003,9.832324e-003
1.876428e+003,9.758952e-003
1.878357e+003,9.709582e-003
1.880285e+003,9.738620e-003
1.882214e+003,9.751734e-003
1.884142e+003,9.723948e-003
1.886071e+003,9.770880e-003
1.887999e+003,9.833849e-003
1.889928e+003,9.831036e-003
1.891856e+003,9.763629e-003
1.893785e+003,9.785690e-003
1.895713e+003,9.826087e-003
1.897642e+003,9.834730e-003
1.899570e+003,9.846525e-003
1.901499e+003,9.894996e-003
1.903427e+003,9.908352e-003
1.905356e+003,9.818292e-003
1.907284e+003,9.744043e-003
1.909213e+003,9.761969e-003
1.911141e+003,9.809549e-003
1.913070e+003,9.797179e-003
1.914998e+003,9.729472e-003
1.916927e+003,9.778912e-003
1.918855e+003,9.810972e-003
1.920784e+003,9.795383e-003
1.922712e+003,9.767865e-003
1.924641e+003,9.762240e-003
1.926569e+003,9.754276e-003
1.928498e+003,9.718968e-003
1.930426e+003,9.702771e-003
1.932355e+003,9.769796e-003
1.934283e+003,9.806838e-003
1.936212e+003,9.804092e-003
1.938140e+003,9.822733e-003
1.940069e+003,9.811345e-003
1.941997e+003,9.780471e-003
1.943926e+003,9.791960e-003
1.945854e+003,9.802500e-003
1.947783e+003,9.695351e-003
1.949711e+003,9.698435e-003
1.951640e+003,9.722525e-003
1.953568e+003,9.687423e-003
1.955497e+003,9.741602e-003
1.957425e+003,9.726659e-003
1.959354e+003,9.619123e-003
1.961282e+003,9.654627e-003
1.963211e+003,9.620817e-003
1.965139e+003,9.714258e-003
1.967068e+003,9.837476e-003
1.968996e+003,9.757360e-003
1.970925e+003,9.734995e-003
1.972853e+003,9.770983e-003
1.974782e+003,9.764442e-003
1.976710e+003,9.689354e-003
1.978639e+003,9.652933e-003
1.980567e+003,9.752717e-003
1.982496e+003,9.781962e-003
1.984424e+003,9.665536e-003
1.986353e+003,9.633419e-003
1.988281e+003,9.720831e-003
1.990210e+003,9.785453e-003
1.992138e+003,9.794942e-003
1.994067e+003,9.776269e-003
1.995995e+003,9.760647e-003
1.997924e+003,9.818462e-003
1.999852e+003,9.829308e-003
2.001781e+003,9.751124e-003
2.003709e+003,9.667535e-003
2.005638e+003,9.697384e-003
2.007566e+003,9.690879e-003
2.009495e+003,9.699010e-003
2.011423e+003,9.768576e-003
2.013352e+003,9.857405e-003
2.015280e+003,9.842628e-003
2.017208e+003,9.754954e-003
2.019137e+003,9.667027e-003
2.021066e+003,9.696977e-003
2.022994e+003,9.742144e-003
2.024922e+003,9.758716e-003
2.026851e+003,9.774812e-003
2.028780e+003,9.752480e-003
2.030708e+003,9.765526e-003
2.032636e+003,9.827274e-003
2.034565e+003,9.812430e-003
2.036494e+003,9.735944e-003
2.038422e+003,9.760986e-003
2.040350e+003,9.852389e-003
2.042279e+003,9.893470e-003
2.044208e+003,9.844153e-003
2.046136e+003,9.840763e-003
2.048064e+003,9.866625e-003
2.049993e+003,9.899471e-003
2.051921e+003,9.821478e-003
2.053850e+003,9.788300e-003
2.055778e+003,9.821648e-003
2.057707e+003,9.851474e-003
2.059635e+003,9.957304e-003
2.061564e+003,9.985208e-003
2.063492e+003,9.968866e-003
2.065421e+003,9.948795e-003
2.067349e+003,9.898725e-003
2.069278e+003,9.883844e-003
2.071206e+003,9.875201e-003
2.073135e+003,9.921810e-003
2.075063e+003,9.922556e-003
2.076992e+003,9.874760e-003
2.078920e+003,9.944286e-003
2.080849e+003,9.974019e-003
2.082777e+003,9.974087e-003
2.084706e+003,9.969340e-003
2.086634e+003,9.934455e-003
2.088563e+003,9.901166e-003
2.090491e+003,1.003597e-002
2.092420e+003,1.010169e-002
2.094348e+003,1.007225e-002
2.096277e+003,1.010972e-002
2.098205e+003,1.013563e-002
2.100134e+003,1.008788e-002
2.102062e+003,1.014327e-002
2.103991e+003,1.023322e-002
2.105919e+003,1.028683e-002
2.107848e+003,1.026111e-002
2.109776e+003,1.016965e-002
2.111705e+003,1.015738e-002
2.113633e+003,1.021545e-002
2.115562e+003,1.023746e-002
2.117490e+003,1.032547e-002
2.119419e+003,1.036545e-002
2.121347e+003,1.031102e-002
2.123276e+003,1.032730e-002
2.125204e+003,1.031556e-002
2.127133e+003,1.028455e-002
2.129061e+003,1.033867e-002
2.130990e+003,1.036735e-002
2.132918e+003,1.042690e-002
2.134847e+003,1.038207e-002
2.136775e+003,1.033090e-002
2.138704e+003,1.039697e-002
2.140632e+003,1.045569e-002
2.142561e+003,1.040305e-002
2.144489e+003,1.028391e-002
2.146418e+003,1.032866e-002
2.148346e+003,1.045392e-002
2.150275e+003,1.049241e-002
2.152203e+003,1.047530e-002
2.154132e+003,1.047697e-002
2.156060e+003,1.043773e-002
2.157989e+003,1.033538e-002
2.159917e+003,1.040559e-002
2.161846e+003,1.047595e-002
2.163774e+003,1.051427e-002
2.165703e+003,1.057236e-002
2.167631e+003,1.053749e-002
2.169560e+003,1.055888e-002
2.171488e+003,1.066223e-002
2.173417e+003,1.060213e-002
2.175345e+003,1.055484e-002
2.177274e+003,1.054469e-002
2.179202e+003,1.054221e-002
2.181131e+003,1.054791e-002
2.183059e+003,1.057521e-002
2.184988e+003,1.058091e-002
2.186916e+003,1.056475e-002
2.188845e+003,1.060519e-002
2.190773e+003,1.066064e-002
2.192702e+003,1.069660e-002
2.194630e+003,1.056869e-002
2.196559e+003,1.046118e-002
2.198487e+003,1.042870e-002
2.200416e+003,1.039358e-002
2.202344e+003,1.041163e-002
2.204273e+003,1.045348e-002
2.206201e+003,1.046061e-002
2.208130e+003,1.045552e-002
2.210058e+003,1.042667e-002
2.211987e+003,1.039456e-002
2.213915e+003,1.045334e-002
2.215844e+003,1.040837e-002
2.217772e+003,1.041347e-002
2.219701e+003,1.048562e-002
2.221629e+003,1.042582e-002
2.223558e+003,1.036697e-002
2.225486e+003,1.041268e-002
2.227415e+003,1.042718e-002
2.229343e+003,1.044849e-002
2.231272e+003,1.050575e-002
2.233200e+003,1.043838e-002
2.235129e+003,1.038642e-002
2.237057e+003,1.044255e-002
2.238986e+003,1.045932e-002
2.240914e+003,1.040702e-002
2.242843e+003,1.037071e-002
2.244771e+003,1.036392e-002
2.246700e+003,1.030634e-002
2.248628e+003,1.031624e-002
2.250557e+003,1.038391e-002
2.252485e+003,1.044099e-002
2.254414e+003,1.038557e-002
2.256342e+003,1.039724e-002
2.258271e+003,1.038648e-002
2.260199e+003,1.034339e-002
2.262128e+003,1.029331e-002
2.264056e+003,1.037057e-002
2.265985e+003,1.043926e-002
2.267913e+003,1.031981e-002
2.269842e+003,1.026335e-002
2.271770e+003,1.028825e-002
2.273699e+003,1.026603e-002
2.275627e+003,1.028781e-002
2.277556e+003,1.035201e-002
2.279484e+003,1.031068e-002
2.281413e+003,1.030376e-002
2.283341e+003,1.029979e-002
2.285270e+003,1.029385e-002
2.287198e+003,1.034848e-002
2.289127e+003,1.036789e-002
2.291055e+003,1.048467e-002
2.292984e+003,1.049245e-002
2.294912e+003,1.038618e-002
2.296841e+003,1.037732e-002
2.298769e+003,1.044011e-002
2.300698e+003,1.042908e-002
2.302626e+003,1.048501e-002
2.304555e+003,1.053267e-002
2.306483e+003,1.062634e-002
2.308412e+003,1.077163e-002
2.310340e+003,1.086148e-002
2.312269e+003,1.090986e-002
2.314197e+003,1.095100e-002
2.316125e+003,1.111835e-002
2.318054e+003,1.126333e-002
2.319983e+003,1.138270e-002
2.321911e+003,1.146869e-002
2.323840e+003,1.151333e-002
2.325768e+003,1.159721e-002
2.327697e+003,1.169002e-002
2.329625e+003,1.171303e-002
2.331553e+003,1.167835e-002
2.333482e+003,1.173203e-002
2.335411e+003,1.182112e-002
2.337339e+003,1.186358e-002
2.339268e+003,1.190891e-002
2.341196e+003,1.193387e-002
2.343125e+003,1.175163e-002
2.345053e+003,1.142552e-002
2.346981e+003,1.107406e-002
2.348910e+003,1.096419e-002
2.350839e+003,1.128937e-002
2.352767e+003,1.166494e-002
2.354696e+003,1.192869e-002
2.356624e+003,1.227188e-002
2.358552e+003,1.246245e-002
2.360481e+003,1.253321e-002
2.362409e+003,1.252984e-002
2.364338e+003,1.236937e-002
2.366267e+003,1.229284e-002
2.368195e+003,1.204454e-002
2.370124e+003,1.175279e-002
2.372052e+003,1.162406e-002
2.373980e+003,1.143617e-002
2.375909e+003,1.111917e-002
2.377838e+003,1.092409e-002
2.379766e+003,1.085519e-002
2.381695e+003,1.078786e-002
2.383623e+003,1.072757e-002
2.385552e+003,1.068550e-002
2.387480e+003,1.064638e-002
2.389408e+003,1.069259e-002
2.391337e+003,1.073097e-002
2.393266e+003,1.070777e-002
2.395194e+003,1.073362e-002
2.397123e+003,1.073627e-002
2.399051e+003,1.069830e-002
2.400979e+003,1.064040e-002
2.402908e+003,1.064852e-002
2.404836e+003,1.063327e-002
2.406765e+003,1.056435e-002
2.408694e+003,1.060889e-002
2.410622e+003,1.066516e-002
2.412551e+003,1.064610e-002
2.414479e+003,1.063045e-002
2.416407e+003,1.060723e-002
2.418336e+003,1.063212e-002
2.420264e+003,1.066726e-002
2.422193e+003,1.074704e-002
2.424122e+003,1.076195e-002
2.426050e+003,1.081286e-002
2.427979e+003,1.096725e-002
2.429907e+003,1.100041e-002
2.431835e+003,1.099083e-002
2.433764e+003,1.104517e-002
2.435692e+003,1.107270e-002
2.437621e+003,1.105924e-002
2.439550e+003,1.114392e-002
2.441478e+003,1.112403e-002
2.443406e+003,1.107566e-002
2.445335e+003,1.108627e-002
2.447263e+003,1.110245e-002
2.449192e+003,1.116925e-002
2.451121e+003,1.120933e-002
2.453049e+003,1.118271e-002
2.454978e+003,1.117411e-002
2.456906e+003,1.115415e-002
2.458834e+003,1.118621e-002
2.460763e+003,1.128288e-002
2.462691e+003,1.131903e-002
2.464620e+003,1.138124e-002
2.466549e+003,1.143536e-002
2.468477e+003,1.136967e-002
2.470406e+003,1.133488e-002
2.472334e+003,1.127866e-002
2.474262e+003,1.131580e-002
2.476191e+003,1.140297e-002
2.478119e+003,1.144141e-002
2.480048e+003,1.144859e-002
2.481977e+003,1.142005e-002
2.483905e+003,1.141977e-002
2.485833e+003,1.142005e-002
2.487762e+003,1.150768e-002
2.489690e+003,1.158013e-002
2.491619e+003,1.153017e-002
2.493547e+003,1.157836e-002
2.495476e+003,1.161140e-002
2.497405e+003,1.153582e-002
2.499333e+003,1.153616e-002
2.501261e+003,1.176467e-002
2.503190e+003,1.186440e-002
2.505118e+003,1.175099e-002
2.507047e+003,1.163584e-002
2.508975e+003,1.167767e-002
2.510904e+003,1.177771e-002
2.512833e+003,1.180917e-002
2.514761e+003,1.182259e-002
2.516689e+003,1.182405e-002
2.518618e+003,1.183620e-002
2.520546e+003,1.189532e-002
2.522475e+003,1.187196e-002
2.524403e+003,1.176229e-002
2.526332e+003,1.180822e-002
2.528260e+003,1.191487e-002
2.530189e+003,1.192737e-002
2.532117e+003,1.193585e-002
2.534046e+003,1.194358e-002
2.535974e+003,1.199647e-002
2.537903e+003,1.196939e-002
2.539831e+003,1.195076e-002
2.541760e+003,1.204001e-002
2.543688e+003,1.203173e-002
2.545617e+003,1.197018e-002
2.547545e+003,1.205578e-002
2.549474e+003,1.213431e-002
2.551402e+003,1.208187e-002
2.553331e+003,1.196067e-002
2.555259e+003,1.191357e-002
2.557188e+003,1.194490e-002
2.559116e+003,1.191514e-002
2.561045e+003,1.195441e-002
2.562973e+003,1.204031e-002
2.564902e+003,1.201538e-002
2.566830e+003,1.204896e-002
2.568759e+003,1.213939e-002
2.570687e+003,1.214334e-002
2.572616e+003,1.215850e-002
2.574544e+003,1.222894e-002
2.576473e+003,1.217002e-002
2.578401e+003,1.204416e-002
2.580330e+003,1.204842e-002
2.582258e+003,1.211199e-002
2.584187e+003,1.215448e-002
2.586115e+003,1.217380e-002
2.588044e+003,1.219936e-002
2.589972e+003,1.219343e-002
2.591901e+003,1.226994e-002
2.593829e+003,1.231449e-002
2.595758e+003,1.231780e-002
2.597686e+003,1.229237e-002
2.599615e+003,1.228886e-002
2.601543e+003,1.229414e-002
2.603472e+003,1.223017e-002
2.605400e+003,1.221537e-002
2.607329e+003,1.222775e-002
2.609257e+003,1.223238e-002
2.611186e+003,1.221473e-002
2.613114e+003,1.224489e-002
2.615043e+003,1.229152e-002
2.616971e+003,1.241008e-002
2.618900e+003,1.240790e-002
2.620828e+003,1.243725e-002
2.622757e+003,1.254447e-002
2.624685e+003,1.268681e-002
2.626614e+003,1.272414e-002
2.628542e+003,1.257182e-002
2.630471e+003,1.237220e-002
2.632399e+003,1.233245e-002
2.634328e+003,1.235011e-002
2.636256e+003,1.241908e-002
2.638185e+003,1.250034e-002
2.640113e+003,1.265880e-002
2.642042e+003,1.274884e-002
2.643970e+003,1.273028e-002
2.645899e+003,1.275286e-002
2.647827e+003,1.284278e-002
2.649756e+003,1.287930e-002
2.651684e+003,1.284743e-002
2.653613e+003,1.289135e-002
2.655541e+003,1.294382e-002
2.657470e+003,1.298396e-002
2.659398e+003,1.296959e-002
2.661327e+003,1.299308e-002
2.663255e+003,1.301288e-002
2.665184e+003,1.296973e-002
2.667112e+003,1.302565e-002
2.669041e+003,1.304289e-002
2.670969e+003,1.301667e-002
2.672898e+003,1.305860e-002
2.674826e+003,1.315210e-002
2.676755e+003,1.326400e-002
2.678683e+003,1.332515e-002
2.680612e+003,1.328214e-002
2.682540e+003,1.329471e-002
2.684469e+003,1.330749e-002
2.686397e+003,1.336174e-002
2.688326e+003,1.342288e-002
2.690254e+003,1.344325e-002
2.692183e+003,1.349195e-002
2.694111e+003,1.352579e-002
2.696040e+003,1.360137e-002
2.697968e+003,1.369837e-002
2.699897e+003,1.372778e-002
2.701825e+003,1.375049e-002
2.703754e+003,1.371503e-002
2.705682e+003,1.375702e-002
2.707611e+003,1.387510e-002
2.709539e+003,1.399403e-002
2.711468e+003,1.406069e-002
2.713396e+003,1.408636e-002
2.715325e+003,1.409834e-002
2.717253e+003,1.412449e-002
2.719182e+003,1.412819e-002
2.721110e+003,1.412600e-002
2.723039e+003,1.426058e-002
2.724967e+003,1.436338e-002
2.726896e+003,1.445116e-002
2.728824e+003,1.455668e-002
2.730753e+003,1.457940e-002
2.732681e+003,1.463793e-002
2.734610e+003,1.466397e-002
2.736538e+003,1.474661e-002
2.738467e+003,1.487394e-002
2.740395e+003,1.499942e-002
2.742324e+003,1.501053e-002
2.744252e+003,1.499496e-002
2.746181e+003,1.507993e-002
2.748109e+003,1.523130e-002
2.750038e+003,1.529421e-002
2.751966e+003,1.525941e-002
2.753895e+003,1.538665e-002
2.755823e+003,1.550023e-002
2.757752e+003,1.551451e-002
2.759680e+003,1.567535e-002
2.761609e+003,1.590825e-002
2.763537e+003,1.613807e-002
2.765466e+003,1.636152e-002
2.767394e+003,1.670172e-002
2.769323e+003,1.707938e-002
2.771251e+003,1.738362e-002
2.773180e+003,1.776511e-002
2.775108e+003,1.818287e-002
2.777037e+003,1.853650e-002
2.778965e+003,1.902572e-002
2.780894e+003,1.960395e-002
2.782822e+003,2.017455e-002
2.784750e+003,2.074211e-002
2.786679e+003,2.145496e-002
2.788608e+003,2.213513e-002
2.790536e+003,2.280204e-002
2.792465e+003,2.358975e-002
2.794393e+003,2.429174e-002
2.796322e+003,2.476448e-002
2.798250e+003,2.536646e-002
2.800178e+003,2.611854e-002
2.802107e+003,2.678463e-002
2.804036e+003,2.735554e-002
2.805964e+003,2.784212e-002
2.807893e+003,2.799522e-002
2.809821e+003,2.803265e-002
2.811750e+003,2.816110e-002
2.813678e+003,2.824203e-002
2.815606e+003,2.806785e-002
2.817535e+003,2.779566e-002
2.819464e+003,2.759782e-002
2.821392e+003,2.732830e-002
2.823321e+003,2.694173e-002
2.825249e+003,2.652135e-002
2.827177e+003,2.614184e-002
2.829106e+003,2.569688e-002
2.831034e+003,2.507925e-002
2.832963e+003,2.448352e-002
2.834892e+003,2.402611e-002
2.836820e+003,2.353728e-002
2.838749e+003,2.305700e-002
2.840677e+003,2.240456e-002
2.842605e+003,2.161606e-002
2.844534e+003,2.086311e-002
2.846462e+003,2.028945e-002
2.848391e+003,1.981611e-002
2.850320e+003,1.938787e-002
2.852248e+003,1.908444e-002
2.854177e+003,1.891299e-002
2.856105e+003,1.869864e-002
2.858033e+003,1.853747e-002
2.859962e+003,1.855044e-002
2.861890e+003,1.848882e-002
2.863819e+003,1.852872e-002
2.865748e+003,1.863251e-002
2.867676e+003,1.866408e-002
2.869604e+003,1.864039e-002
2.871533e+003,1.866810e-002
2.873461e+003,1.881360e-002
2.875390e+003,1.898983e-002
2.877319e+003,1.915625e-002
2.879247e+003,1.939141e-002
2.881176e+003,1.952409e-002
2.883104e+003,1.948205e-002
2.885032e+003,1.936930e-002
2.886961e+003,1.941532e-002
2.888889e+003,1.938261e-002
2.890818e+003,1.925042e-002
2.892747e+003,1.911758e-002
2.894675e+003,1.899246e-002
2.896604e+003,1.893974e-002
2.898532e+003,1.891839e-002
2.900460e+003,1.886655e-002
2.902389e+003,1.878125e-002
2.904317e+003,1.859380e-002
2.906246e+003,1.847907e-002
2.908175e+003,1.848993e-002
2.910103e+003,1.840367e-002
2.912031e+003,1.830195e-002
2.913960e+003,1.823708e-002
2.915888e+003,1.814570e-002
2.917817e+003,1.820488e-002
2.919745e+003,1.825616e-002
2.921674e+003,1.835680e-002
2.923603e+003,1.844491e-002
2.925531e+003,1.859806e-002
2.927459e+003,1.891929e-002
2.929388e+003,1.920636e-002
2.931316e+003,1.949221e-002
2.933245e+003,1.975490e-002
2.935173e+003,1.999260e-002
2.937102e+003,2.013571e-002
2.939031e+003,2.022689e-002
2.940959e+003,2.021030e-002
2.942887e+003,2.004260e-002
2.944816e+003,1.989908e-002
2.946744e+003,1.982104e-002
2.948673e+003,1.958260e-002
2.950601e+003,1.915283e-002
2.952530e+003,1.878627e-002
2.954458e+003,1.826801e-002
2.956387e+003,1.768342e-002
2.958315e+003,1.711477e-002
2.960244e+003,1.667235e-002
2.962172e+003,1.624307e-002
2.964101e+003,1.578910e-002
2.966029e+003,1.532067e-002
2.967958e+003,1.482656e-002
2.969886e+003,1.438879e-002
2.971815e+003,1.407986e-002
2.973743e+003,1.368117e-002
2.975672e+003,1.334931e-002
2.977600e+003,1.313181e-002
2.979529e+003,1.298007e-002
2.981457e+003,1.276952e-002
2.983386e+003,1.249959e-002
2.985314e+003,1.220106e-002
2.987243e+003,1.202621e-002
2.989171e+003,1.184942e-002
2.991100e+003,1.172481e-002
2.993028e+003,1.160936e-002
2.994957e+003,1.160548e-002
2.996885e+003,1.159476e-002
2.998814e+003,1.147727e-002
3.000742e+003,1.124262e-002
3.002671e+003,1.108705e-002
3.004599e+003,1.109928e-002
3.006528e+003,1.118148e-002
3.008456e+003,1.111784e-002
3.010385e+003,1.099195e-002
3.012313e+003,1.106835e-002
3.014242e+003,1.104014e-002
3.016170e+003,1.095111e-002
3.018099e+003,1.091444e-002
3.020027e+003,1.098920e-002
3.021956e+003,1.099939e-002
3.023884e+003,1.101176e-002
3.025813e+003,1.091648e-002
3.027741e+003,1.072751e-002
3.029670e+003,1.070726e-002
3.031598e+003,1.079815e-002
3.033527e+003,1.075430e-002
3.035455e+003,1.073454e-002
3.037384e+003,1.070798e-002
3.039312e+003,1.059453e-002
3.041241e+003,1.045409e-002
3.043169e+003,1.038000e-002
3.045098e+003,1.053498e-002
3.047026e+003,1.065643e-002
3.048955e+003,1.054995e-002
3.050883e+003,1.047402e-002
3.052812e+003,1.053766e-002
3.054740e+003,1.050256e-002
3.056669e+003,1.033083e-002
3.058597e+003,1.018804e-002
3.060526e+003,1.021782e-002
3.062454e+003,1.024170e-002
3.064383e+003,1.023702e-002
3.066311e+003,1.036908e-002
3.068240e+003,1.031797e-002
3.070168e+003,1.014500e-002
3.072097e+003,1.010423e-002
3.074025e+003,1.011447e-002
3.075954e+003,1.018424e-002
3.077882e+003,1.021372e-002
3.079811e+003,1.008059e-002
3.081739e+003,9.982427e-003
3.083668e+003,9.999820e-003
3.085596e+003,1.000965e-002
3.087525e+003,9.942829e-003
3.089453e+003,9.940421e-003
3.091382e+003,9.851541e-003
3.093310e+003,9.786368e-003
3.095239e+003,9.878658e-003
3.097167e+003,9.880217e-003
3.099096e+003,9.729641e-003
3.101024e+003,9.609706e-003
3.102953e+003,9.612382e-003
3.104881e+003,9.664689e-003
3.106810e+003,9.626847e-003
3.108738e+003,9.684035e-003
3.110667e+003,9.653204e-003
3.112595e+003,9.662588e-003
3.114524e+003,9.761291e-003
3.116452e+003,9.814022e-003
3.118381e+003,9.752683e-003
3.120309e+003,9.603371e-003
3.122238e+003,9.517405e-003
3.124166e+003,9.501996e-003
3.126095e+003,9.494646e-003
3.128023e+003,9.556355e-003
3.129952e+003,9.601745e-003
3.131880e+003,9.533087e-003
3.133809e+003,9.644023e-003
3.135737e+003,9.631352e-003
3.137666e+003,9.564145e-003
3.139594e+003,9.439684e-003
3.141523e+003,9.395091e-003
3.143451e+003,9.490582e-003
3.145380e+003,9.544264e-003
3.147308e+003,9.547244e-003
3.149237e+003,9.448117e-003
3.151165e+003,9.394041e-003
3.153094e+003,9.324772e-003
3.155022e+003,9.377045e-003
3.156951e+003,9.448556e-003
3.158879e+003,9.558252e-003
3.160808e+003,9.619733e-003
3.162736e+003,9.534103e-003
3.164665e+003,9.515136e-003
3.166593e+003,9.518895e-003
3.168522e+003,9.483504e-003
3.170450e+003,9.464744e-003
3.172379e+003,9.555272e-003
3.174307e+003,9.577322e-003
3.176236e+003,9.659065e-003
3.178164e+003,9.676886e-003
3.180093e+003,9.679190e-003
3.182021e+003,9.645277e-003
3.183950e+003,9.579964e-003
3.185878e+003,9.447947e-003
3.187807e+003,9.423431e-003
3.189735e+003,9.567499e-003
3.191664e+003,9.558083e-003
3.193592e+003,9.407957e-003
3.195521e+003,9.423329e-003
3.197449e+003,9.572376e-003
3.199378e+003,9.560590e-003
3.201306e+003,9.566788e-003
3.203235e+003,9.573901e-003
3.205163e+003,9.724152e-003
3.207092e+003,9.687795e-003
3.209020e+003,9.661606e-003
3.210948e+003,9.762918e-003
3.212877e+003,9.859507e-003
3.214806e+003,9.865405e-003
3.216734e+003,9.739976e-003
3.218663e+003,9.541994e-003
3.220591e+003,9.656219e-003
3.222520e+003,9.970697e-003
3.224448e+003,9.917505e-003
3.226376e+003,1.008042e-002
3.228305e+003,1.022182e-002
3.230234e+003,1.021216e-002
3.232162e+003,1.022281e-002
3.234091e+003,1.031346e-002
3.236019e+003,1.031964e-002
3.237948e+003,1.035564e-002
3.239876e+003,1.053400e-002
3.241804e+003,1.073100e-002
3.243733e+003,1.058326e-002
3.245662e+003,1.048365e-002
3.247590e+003,1.059286e-002
3.249519e+003,1.074520e-002
3.251447e+003,1.073719e-002
3.253375e+003,1.071059e-002
3.255304e+003,1.076062e-002
3.257232e+003,1.094098e-002
3.259161e+003,1.107464e-002
3.261090e+003,1.110377e-002
3.263018e+003,1.104786e-002
3.264947e+003,1.096698e-002
3.266875e+003,1.093690e-002
3.268803e+003,1.100415e-002
3.270732e+003,1.109157e-002
3.272660e+003,1.130607e-002
3.274589e+003,1.133335e-002
3.276518e+003,1.135702e-002
3.278446e+003,1.141345e-002
3.280375e+003,1.131359e-002
3.282303e+003,1.135120e-002
3.284231e+003,1.136889e-002
3.286160e+003,1.132352e-002
3.288088e+003,1.137236e-002
3.290017e+003,1.125374e-002
3.291946e+003,1.116166e-002
3.293874e+003,1.116061e-002
3.295802e+003,1.114042e-002
3.297731e+003,1.111948e-002
3.299659e+003,1.104307e-002
3.301588e+003,1.095083e-002
3.303516e+003,1.089946e-002
3.305445e+003,1.084751e-002
3.307374e+003,1.069888e-002
3.309302e+003,1.054377e-002
3.311230e+003,1.045304e-002
3.313159e+003,1.034179e-002
3.315087e+003,1.033511e-002
3.317016e+003,1.024428e-002
3.318944e+003,1.013923e-002
3.320873e+003,1.020615e-002
3.322802e+003,1.009178e-002
3.324730e+003,9.701246e-003
3.326658e+003,9.614110e-003
3.328587e+003,9.779997e-003
3.330515e+003,9.803110e-003
3.332444e+003,9.701823e-003
3.334372e+003,9.601542e-003
3.336301e+003,9.600594e-003
3.338229e+003,9.568482e-003
3.340158e+003,9.561402e-003
3.342086e+003,9.655610e-003
3.344015e+003,9.630370e-003
3.345943e+003,9.477274e-003
3.347872e+003,9.367023e-003
3.349800e+003,9.379245e-003
3.351729e+003,9.448252e-003
3.353657e+003,9.290818e-003
3.355586e+003,9.114899e-003
3.357514e+003,9.040465e-003
3.359443e+003,9.002474e-003
3.361371e+003,9.082248e-003
3.363300e+003,9.017088e-003
3.365229e+003,8.884498e-003
3.367157e+003,8.808413e-003
3.369085e+003,8.714558e-003
3.371014e+003,8.764762e-003
3.372942e+003,8.688596e-003
3.374871e+003,8.542251e-003
3.376799e+003,8.498763e-003
3.378728e+003,8.420480e-003
3.380656e+003,8.390956e-003
3.382585e+003,8.269228e-003
3.384513e+003,8.062058e-003
3.386442e+003,8.083561e-003
3.388370e+003,8.174106e-003
3.390299e+003,8.146117e-003
3.392227e+003,8.061147e-003
3.394156e+003,8.070295e-003
3.396084e+003,8.095038e-003
3.398013e+003,8.082751e-003
3.399941e+003,8.054970e-003
3.401870e+003,7.966341e-003
3.403798e+003,7.915756e-003
3.405727e+003,7.858125e-003
3.407655e+003,8.019462e-003
3.409584e+003,8.206554e-003
3.411512e+003,8.162525e-003
3.413441e+003,8.082481e-003
3.415369e+003,8.076877e-003
3.417298e+003,8.066717e-003
3.419226e+003,8.006164e-003
3.421155e+003,7.923247e-003
3.423083e+003,7.902022e-003
3.425012e+003,7.866594e-003
3.426940e+003,7.851715e-003
3.428869e+003,7.975081e-003
3.430797e+003,8.045722e-003
3.432726e+003,7.992461e-003
3.434654e+003,7.850029e-003
3.436583e+003,7.568168e-003
3.438511e+003,7.487964e-003
3.440440e+003,7.733781e-003
3.442368e+003,8.008493e-003
3.444297e+003,7.932999e-003
3.446225e+003,7.704708e-003
3.448154e+003,7.660426e-003
3.450082e+003,7.720728e-003
3.452011e+003,7.550636e-003
3.453939e+003,7.456615e-003
3.455868e+003,7.460794e-003
3.457796e+003,7.648185e-003
3.459725e+003,7.890956e-003
3.461653e+003,7.926183e-003
3.463582e+003,7.779892e-003
3.465510e+003,7.721605e-003
3.467439e+003,7.662517e-003
3.469367e+003,7.645453e-003
3.471296e+003,7.708721e-003
3.473224e+003,7.755301e-003
3.475153e+003,7.623399e-003
3.477081e+003,7.627345e-003
3.479010e+003,7.642688e-003
3.480938e+003,7.690576e-003
3.482867e+003,7.637225e-003
3.484795e+003,7.742450e-003
3.486724e+003,7.833396e-003
3.488652e+003,7.707541e-003
3.490581e+003,7.547568e-003
3.492509e+003,7.655166e-003
3.494438e+003,7.892541e-003
3.496366e+003,8.113808e-003
3.498295e+003,7.997085e-003
3.500223e+003,7.876143e-003
3.502152e+003,7.861163e-003
3.504080e+003,7.740055e-003
3.506009e+003,7.818147e-003
3.507937e+003,7.930434e-003
3.509866e+003,7.955474e-003
3.511794e+003,7.858362e-003
3.513723e+003,7.677525e-003
3.515651e+003,7.586106e-003
3.517580e+003,7.754627e-003
3.519508e+003,7.845406e-003
3.521437e+003,7.936982e-003
3.523365e+003,7.923011e-003
3.525294e+003,7.855460e-003
3.527222e+003,7.893114e-003
3.529151e+003,7.923416e-003
3.531079e+003,7.865042e-003
3.533008e+003,7.785290e-003
3.534936e+003,7.830697e-003
3.536865e+003,7.877560e-003
3.538793e+003,8.104930e-003
3.540722e+003,8.284932e-003
3.542650e+003,8.159520e-003
3.544579e+003,8.042785e-003
3.546507e+003,8.061282e-003
3.548436e+003,7.942751e-003
3.550364e+003,7.844158e-003
3.552293e+003,7.923483e-003
3.554221e+003,7.897636e-003
3.556150e+003,7.818889e-003
3.558078e+003,7.879821e-003
3.560007e+003,7.944979e-003
3.561935e+003,8.195951e-003
3.563864e+003,8.290572e-003
3.565792e+003,8.261191e-003
3.567721e+003,8.299049e-003
3.569649e+003,8.154152e-003
3.571578e+003,8.009776e-003
3.573506e+003,8.069451e-003
3.575435e+003,8.357920e-003
3.577363e+003,8.500553e-003
3.579292e+003,8.382510e-003
3.581220e+003,8.053654e-003
3.583149e+003,7.834442e-003
3.585077e+003,8.158743e-003
3.587006e+003,8.454265e-003
3.588934e+003,8.321711e-003
3.590863e+003,8.110736e-003
3.592791e+003,8.020542e-003
3.594720e+003,7.977039e-003
3.596648e+003,8.034009e-003
3.598577e+003,8.253220e-003
3.600505e+003,8.283614e-003
3.602434e+003,8.219520e-003
3.604362e+003,8.283986e-003
3.606291e+003,8.265108e-003
3.608219e+003,8.281656e-003
3.610148e+003,8.342146e-003
3.612076e+003,8.349002e-003
3.614005e+003,8.218371e-003
3.615933e+003,8.103106e-003
3.617862e+003,8.358358e-003
3.619790e+003,8.670950e-003
3.621719e+003,8.530694e-003
3.623647e+003,8.390009e-003
3.625576e+003,8.432879e-003
3.627504e+003,8.814397e-003
3.629433e+003,8.798437e-003
3.631361e+003,8.406866e-003
3.633290e+003,8.219283e-003
3.635218e+003,8.123868e-003
3.637146e+003,8.156751e-003
3.639075e+003,8.256395e-003
3.641004e+003,8.526470e-003
3.642932e+003,8.457812e-003
3.644861e+003,8.250553e-003
3.646789e+003,8.529478e-003
3.648718e+003,8.824744e-003
3.650646e+003,8.622177e-003
3.652574e+003,8.193858e-003
3.654503e+003,8.343058e-003
3.656432e+003,8.423082e-003
3.658360e+003,8.118635e-003
3.660289e+003,7.945890e-003
3.662217e+003,7.994757e-003
3.664146e+003,8.082717e-003
3.666074e+003,8.126231e-003
3.668002e+003,8.326372e-003
3.669931e+003,8.442136e-003
3.671860e+003,8.124915e-003
3.673788e+003,8.272098e-003
3.675717e+003,8.557626e-003
3.677645e+003,8.235120e-003
3.679573e+003,8.016627e-003
3.681502e+003,7.989053e-003
3.683430e+003,8.100710e-003
3.685359e+003,8.419805e-003
3.687288e+003,8.740318e-003
3.689216e+003,8.788531e-003
3.691145e+003,8.666421e-003
3.693073e+003,8.495789e-003
3.695001e+003,8.193283e-003
3.696930e+003,7.957600e-003
3.698858e+003,8.030735e-003
3.700787e+003,8.296211e-003
3.702716e+003,8.355859e-003
3.704644e+003,8.341268e-003
3.706573e+003,8.416426e-003
3.708501e+003,8.479841e-003
3.710429e+003,8.736396e-003
3.712358e+003,8.670072e-003
3.714286e+003,8.313064e-003
3.716215e+003,8.131127e-003
3.718144e+003,8.149661e-003
3.720072e+003,8.264398e-003
3.722000e+003,8.315969e-003
3.723929e+003,8.374066e-003
3.725857e+003,8.612375e-003
3.727786e+003,8.723618e-003
3.729714e+003,8.670917e-003
3.731643e+003,8.603723e-003
3.733572e+003,8.532417e-003
3.735500e+003,8.673147e-003
3.737428e+003,8.332790e-003
3.739357e+003,8.116947e-003
3.741285e+003,8.418724e-003
3.743214e+003,9.123291e-003
3.745142e+003,9.031161e-003
3.747071e+003,8.592975e-003
3.749000e+003,8.711718e-003
3.750928e+003,8.857985e-003
3.752856e+003,8.697148e-003
3.754785e+003,8.453116e-003
3.756713e+003,8.547286e-003
3.758642e+003,8.382882e-003
3.760570e+003,8.168467e-003
3.762499e+003,8.201758e-003
3.764427e+003,8.291349e-003
3.766356e+003,8.247176e-003
3.768284e+003,8.415886e-003
3.770213e+003,8.498188e-003
3.772141e+003,8.397003e-003
3.774070e+003,8.434872e-003
3.775998e+003,8.354778e-003
3.777927e+003,8.381599e-003
3.779855e+003,8.274767e-003
3.781784e+003,8.221141e-003
3.783712e+003,8.352650e-003
3.785641e+003,8.456325e-003
3.787569e+003,8.488085e-003
3.789498e+003,8.486227e-003
3.791426e+003,8.432339e-003
3.793355e+003,8.262102e-003
3.795283e+003,8.393387e-003
3.797212e+003,8.328635e-003
3.799140e+003,8.379504e-003
3.801069e+003,8.637015e-003
3.802997e+003,8.453149e-003
3.804926e+003,8.240186e-003
3.806854e+003,8.291754e-003
3.808783e+003,8.193318e-003
3.810711e+003,8.148919e-003
3.812640e+003,8.486835e-003
3.814568e+003,8.872865e-003
3.816497e+003,8.780889e-003
3.818425e+003,8.720608e-003
3.820354e+003,9.115203e-003
3.822282e+003,8.791675e-003
3.824211e+003,8.414670e-003
3.826139e+003,8.438588e-003
3.828068e+003,8.492782e-003
3.829996e+003,8.443183e-003
3.831925e+003,8.682782e-003
3.833853e+003,8.887237e-003
3.835782e+003,9.039450e-003
3.837710e+003,9.119568e-003
3.839639e+003,8.790830e-003
3.841567e+003,8.668888e-003
3.843496e+003,8.644957e-003
3.845424e+003,8.441865e-003
3.847353e+003,8.261899e-003
3.849281e+003,8.368053e-003
3.851210e+003,8.954914e-003
3.853138e+003,9.498473e-003
3.855067e+003,8.965367e-003
3.856995e+003,8.524375e-003
3.858924e+003,8.493965e-003
3.860852e+003,8.596592e-003
3.862781e+003,8.753469e-003
3.864709e+003,8.726728e-003
3.866638e+003,8.555092e-003
3.868566e+003,8.727843e-003
3.870495e+003,8.904384e-003
3.872423e+003,8.827348e-003
3.874352e+003,8.775243e-003
3.876280e+003,8.485856e-003
3.878209e+003,8.314011e-003
3.880137e+003,8.486970e-003
3.882066e+003,8.541981e-003
3.883994e+003,8.602878e-003
3.885923e+003,8.764356e-003
3.887851e+003,8.480584e-003
3.889780e+003,8.539784e-003
3.891708e+003,8.379504e-003
3.893637e+003,8.120695e-003
3.895565e+003,8.330695e-003
3.897494e+003,8.592807e-003
3.899422e+003,8.780213e-003
3.901351e+003,8.777745e-003
3.903279e+003,8.858966e-003
3.905208e+003,8.700901e-003
3.907136e+003,8.284087e-003
3.909065e+003,8.239442e-003
3.910993e+003,8.263081e-003
3.912922e+003,8.330425e-003
3.914850e+003,8.476294e-003
3.916779e+003,8.439196e-003
3.918707e+003,8.340288e-003
3.920636e+003,8.273010e-003
3.922564e+003,8.161276e-003
3.924493e+003,8.317016e-003
3.926421e+003,8.360183e-003
3.928350e+003,8.342111e-003
3.930278e+003,8.418184e-003
3.932207e+003,8.455785e-003
3.934135e+003,8.493795e-003
3.936064e+003,8.585237e-003
3.937992e+003,8.503188e-003
3.939921e+003,8.356500e-003
3.941849e+003,8.529511e-003
3.943778e+003,8.613287e-003
3.945706e+003,8.425481e-003
3.947635e+003,8.451596e-003
3.949563e+003,8.420278e-003
3.951492e+003,8.355555e-003
3.953420e+003,8.408792e-003
3.955349e+003,8.642930e-003
3.957277e+003,8.458049e-003
3.959206e+003,8.302324e-003
3.961134e+003,8.273382e-003
3.963063e+003,8.386868e-003
3.964991e+003,8.286282e-003
3.966920e+003,8.253761e-003
3.968848e+003,8.345118e-003
3.970777e+003,8.441156e-003
3.972705e+003,8.376093e-003
3.974634e+003,8.301548e-003
3.976562e+003,8.293611e-003
3.978491e+003,8.348158e-003
3.980419e+003,8.552693e-003
3.982348e+003,8.509574e-003
3.984276e+003,8.544143e-003
3.986205e+003,8.571448e-003
3.988133e+003,8.732914e-003
3.990062e+003,8.739304e-003
3.991990e+003,8.668923e-003
3.993919e+003,8.764085e-003
3.995847e+003,8.762598e-003
3.997776e+003,8.652461e-003
3.999704e+003,8.674263e-003
4.001633e+003,0.000000e+000
