3.991989e+002,2.971531e-003
4.011274e+002,5.387508e-003
4.030559e+002,-1.991455e-003
4.049844e+002,-6.298152e-003
4.069129e+002,-3.317006e-003
4.088414e+002,5.533330e-003
4.107699e+002,5.343831e-003
4.126984e+002,-1.892265e-003
4.146269e+002,-9.345341e-003
4.165554e+002,-7.434499e-003
4.184839e+002,-3.599699e-003
4.204124e+002,-3.850615e-003
4.223409e+002,-3.432966e-003
4.242694e+002,-1.013612e-003
4.261979e+002,-4.417812e-003
4.281264e+002,-9.184496e-003
4.300549e+002,-7.532041e-003
4.319834e+002,-1.062070e-002
4.339119e+002,-1.175916e-002
4.358404e+002,-4.576202e-003
4.377689e+002,-2.622544e-003
4.396974e+002,-7.547411e-003
4.416259e+002,-1.008486e-002
4.435544e+002,-7.474756e-003
4.454829e+002,-3.304380e-003
4.474114e+002,-1.162442e-003
4.493399e+002,-4.976278e-003
4.512684e+002,-9.407924e-003
4.531969e+002,-8.179653e-003
4.551254e+002,-4.152423e-003
4.570539e+002,-6.166002e-003
4.589824e+002,-1.069396e-002
4.609109e+002,-1.035406e-002
4.628394e+002,-8.613555e-003
4.647679e+002,-8.837437e-003
4.666964e+002,-7.781737e-003
4.686249e+002,-9.228484e-003
4.705533e+002,-1.003468e-002
4.724819e+002,-8.904995e-003
4.744103e+002,-8.117999e-003
4.763389e+002,-9.040306e-003
4.782673e+002,-9.256574e-003
4.801959e+002,-9.441707e-003
4.821243e+002,-8.273516e-003
4.840529e+002,-7.645545e-003
4.859813e+002,-7.864689e-003
4.879099e+002,-8.641068e-003
4.898383e+002,-8.488346e-003
4.917668e+002,-8.827795e-003
4.936953e+002,-7.708992e-003
4.956238e+002,-8.077607e-003
4.975523e+002,-9.256347e-003
4.994808e+002,-9.683537e-003
5.014093e+002,-8.291753e-003
5.033378e+002,-7.666413e-003
5.052663e+002,-6.432320e-003
5.071948e+002,-8.279400e-003
5.091233e+002,-1.084051e-002
5.110518e+002,-1.287814e-002
5.129803e+002,-1.330185e-002
5.149088e+002,-1.324847e-002
5.168373e+002,-1.180050e-002
5.187658e+002,-1.172833e-002
5.206943e+002,-1.260252e-002
5.226228e+002,-1.380559e-002
5.245513e+002,-1.343445e-002
5.264798e+002,-1.230157e-002
5.284083e+002,-1.091778e-002
5.303368e+002,-1.130686e-002
5.322653e+002,-1.229484e-002
5.341938e+002,-1.336872e-002
5.361223e+002,-1.520192e-002
5.380508e+002,-1.679557e-002
5.399792e+002,-1.408362e-002
5.419078e+002,-1.286325e-002
5.438363e+002,-1.305364e-002
5.457648e+002,-1.283224e-002
5.476932e+002,-1.337511e-002
5.496218e+002,-1.373118e-002
5.515503e+002,-1.249230e-002
5.534788e+002,-1.306997e-002
5.554072e+002,-1.269186e-002
5.573358e+002,-1.164186e-002
5.592643e+002,-1.105033e-002
5.611927e+002,-1.169327e-002
5.631212e+002,-1.250756e-002
5.650497e+002,-1.266200e-002
5.669783e+002,-1.214704e-002
5.689067e+002,-1.130140e-002
5.708352e+002,-1.107940e-002
5.727637e+002,-1.287583e-002
5.746923e+002,-1.470601e-002
5.766207e+002,-1.384189e-002
5.785492e+002,-1.240086e-002
5.804777e+002,-1.819768e-002
5.824063e+002,-2.065368e-002
5.843347e+002,-1.449776e-002
5.862632e+002,-1.150696e-002
5.881917e+002,-1.200309e-002
5.901202e+002,-1.309289e-002
5.920487e+002,-1.423824e-002
5.939772e+002,-1.427950e-002
5.959057e+002,-1.384603e-002
5.978342e+002,-1.267912e-002
5.997627e+002,-1.126366e-002
6.016912e+002,-1.008693e-002
6.036197e+002,-9.099883e-003
6.055482e+002,-7.081214e-003
6.074767e+002,-5.149198e-003
6.094052e+002,-4.768420e-003
6.113337e+002,-4.172934e-003
6.132622e+002,-4.458940e-003
6.151907e+002,-5.538933e-003
6.171192e+002,-5.844735e-003
6.190477e+002,-6.940432e-003
6.209762e+002,-6.905376e-003
6.229047e+002,-8.322537e-003
6.248332e+002,-1.155572e-002
6.267617e+002,-1.463643e-002
6.286902e+002,-1.581018e-002
6.306187e+002,-1.515546e-002
6.325472e+002,-1.433756e-002
6.344756e+002,-1.380739e-002
6.364042e+002,-1.404304e-002
6.383326e+002,-1.430916e-002
6.402612e+002,-1.467673e-002
6.421896e+002,-1.412939e-002
6.441182e+002,-1.416262e-002
6.460466e+002,-1.463941e-002
6.479752e+002,-1.461042e-002
6.499036e+002,-1.479066e-002
6.518322e+002,-1.494374e-002
6.537606e+002,-1.481308e-002
6.556891e+002,-1.485470e-002
6.576177e+002,-1.515578e-002
6.595461e+002,-1.525586e-002
6.614746e+002,-1.566198e-002
6.634031e+002,-1.603224e-002
6.653317e+002,-1.540974e-002
6.672601e+002,-1.303933e-002
6.691886e+002,-1.345064e-002
6.711171e+002,-1.495985e-002
6.730457e+002,-1.497620e-002
6.749741e+002,-1.498171e-002
6.769026e+002,-1.527630e-002
6.788311e+002,-1.529770e-002
6.807596e+002,-1.503536e-002
6.826881e+002,-1.474710e-002
6.846166e+002,-1.420559e-002
6.865451e+002,-1.393024e-002
6.884736e+002,-1.391037e-002
6.904021e+002,-1.381008e-002
6.923306e+002,-1.368203e-002
6.942591e+002,-1.313379e-002
6.961876e+002,-1.259270e-002
6.981161e+002,-1.258778e-002
7.000446e+002,-1.278186e-002
7.019731e+002,-1.281631e-002
7.039016e+002,-1.281455e-002
7.058301e+002,-1.296109e-002
7.077585e+002,-1.291516e-002
7.096871e+002,-1.290732e-002
7.116156e+002,-1.282867e-002
7.135441e+002,-1.320997e-002
7.154725e+002,-1.349979e-002
7.174011e+002,-1.352853e-002
7.193296e+002,-1.332695e-002
7.212581e+002,-1.313391e-002
7.231865e+002,-1.309942e-002
7.251151e+002,-1.313170e-002
7.270436e+002,-1.290220e-002
7.289720e+002,-1.236373e-002
7.309005e+002,-1.197827e-002
7.328290e+002,-1.208852e-002
7.347576e+002,-1.228125e-002
7.366860e+002,-1.243583e-002
7.386145e+002,-1.285263e-002
7.405430e+002,-1.280460e-002
7.424716e+002,-1.265453e-002
7.444000e+002,-1.250193e-002
7.463285e+002,-1.200625e-002
7.482570e+002,-1.206719e-002
7.501855e+002,-1.213895e-002
7.521140e+002,-1.140560e-002
7.540425e+002,-1.097784e-002
7.559710e+002,-1.081679e-002
7.578995e+002,-1.041841e-002
7.598280e+002,-1.048695e-002
7.617565e+002,-1.028818e-002
7.636850e+002,-1.024198e-002
7.656135e+002,-1.011814e-002
7.675420e+002,-9.847435e-003
7.694705e+002,-1.009189e-002
7.713990e+002,-1.044357e-002
7.733275e+002,-1.036306e-002
7.752560e+002,-1.042811e-002
7.771844e+002,-1.054041e-002
7.791130e+002,-1.041417e-002
7.810415e+002,-1.047042e-002
7.829700e+002,-1.086330e-002
7.848984e+002,-1.116311e-002
7.868270e+002,-1.110963e-002
7.887555e+002,-1.123767e-002
7.906840e+002,-1.157508e-002
7.926124e+002,-1.197388e-002
7.945410e+002,-1.219427e-002
7.964695e+002,-1.237709e-002
7.983979e+002,-1.243773e-002
8.003264e+002,-1.248316e-002
8.022549e+002,-1.234695e-002
8.041835e+002,-1.214871e-002
8.061119e+002,-1.245605e-002
8.080404e+002,-1.266885e-002
8.099689e+002,-1.246757e-002
8.118975e+002,-1.237690e-002
8.138259e+002,-1.231706e-002
8.157545e+002,-1.225048e-002
8.176830e+002,-1.233503e-002
8.196115e+002,-1.253322e-002
8.215399e+002,-1.266679e-002
8.234684e+002,-1.258678e-002
8.253970e+002,-1.210202e-002
8.273254e+002,-1.190619e-002
8.292539e+002,-1.202181e-002
8.311824e+002,-1.196386e-002
8.331110e+002,-1.172939e-002
8.350394e+002,-1.176606e-002
8.369679e+002,-1.165153e-002
8.388964e+002,-1.153326e-002
8.408250e+002,-1.155536e-002
8.427534e+002,-1.190577e-002
8.446819e+002,-1.245750e-002
8.466104e+002,-1.250228e-002
8.485389e+002,-1.208865e-002
8.504674e+002,-1.213450e-002
8.523959e+002,-1.217262e-002
8.543244e+002,-1.206864e-002
8.562529e+002,-1.233352e-002
8.581814e+002,-1.243528e-002
8.601099e+002,-1.245138e-002
8.620384e+002,-1.267835e-002
8.639669e+002,-1.285993e-002
8.658954e+002,-1.317686e-002
8.678239e+002,-1.340187e-002
8.697524e+002,-1.328646e-002
8.716809e+002,-1.336929e-002
8.736094e+002,-1.352680e-002
8.755378e+002,-1.366090e-002
8.774664e+002,-1.348861e-002
8.793949e+002,-1.331968e-002
8.813234e+002,-1.333096e-002
8.832518e+002,-1.307605e-002
8.851804e+002,-1.287753e-002
8.871089e+002,-1.292751e-002
8.890374e+002,-1.322954e-002
8.909658e+002,-1.318265e-002
8.928943e+002,-1.260970e-002
8.948229e+002,-1.250640e-002
8.967513e+002,-1.284205e-002
8.986798e+002,-1.300058e-002
9.006083e+002,-1.306431e-002
9.025369e+002,-1.290593e-002
9.044653e+002,-1.276442e-002
9.063938e+002,-1.275898e-002
9.083223e+002,-1.297267e-002
9.102509e+002,-1.313337e-002
9.121793e+002,-1.276915e-002
9.141078e+002,-1.287686e-002
9.160364e+002,-1.323632e-002
9.179648e+002,-1.296376e-002
9.198933e+002,-1.300949e-002
9.218218e+002,-1.327016e-002
9.237504e+002,-1.324400e-002
9.256788e+002,-1.345466e-002
9.276073e+002,-1.367124e-002
9.295358e+002,-1.361983e-002
9.314644e+002,-1.385864e-002
9.333928e+002,-1.401417e-002
9.353213e+002,-1.389654e-002
9.372498e+002,-1.392568e-002
9.391783e+002,-1.423888e-002
9.411068e+002,-1.419588e-002
9.430353e+002,-1.394654e-002
9.449637e+002,-1.390107e-002
9.468923e+002,-1.377638e-002
9.488208e+002,-1.399637e-002
9.507493e+002,-1.388377e-002
9.526777e+002,-1.365287e-002
9.546063e+002,-1.373795e-002
9.565348e+002,-1.378013e-002
9.584633e+002,-1.379910e-002
9.603917e+002,-1.394371e-002
9.623203e+002,-1.386535e-002
9.642488e+002,-1.371298e-002
9.661772e+002,-1.384895e-002
9.681057e+002,-1.381027e-002
9.700343e+002,-1.409912e-002
9.719628e+002,-1.411756e-002
9.738912e+002,-1.411025e-002
9.758197e+002,-1.429980e-002
9.777483e+002,-1.441530e-002
9.796768e+002,-1.435122e-002
9.816052e+002,-1.434083e-002
9.835337e+002,-1.453003e-002
9.854623e+002,-1.478964e-002
9.873907e+002,-1.469147e-002
9.893192e+002,-1.467360e-002
9.912477e+002,-1.488125e-002
9.931763e+002,-1.480350e-002
9.951047e+002,-1.473734e-002
9.970332e+002,-1.484737e-002
9.989617e+002,-1.475316e-002
1.000890e+003,-1.442100e-002
1.002819e+003,-1.422233e-002
1.004747e+003,-1.414787e-002
1.006676e+003,-1.390402e-002
1.008604e+003,-1.381214e-002
1.010533e+003,-1.374367e-002
1.012461e+003,-1.357658e-002
1.014390e+003,-1.346516e-002
1.016318e+003,-1.313629e-002
1.018247e+003,-1.265646e-002
1.020175e+003,-1.231400e-002
1.022104e+003,-1.195825e-002
1.024032e+003,-1.148825e-002
1.025961e+003,-1.089551e-002
1.027889e+003,-1.056780e-002
1.029818e+003,-1.027466e-002
1.031746e+003,-9.840957e-003
1.033675e+003,-9.522754e-003
1.035603e+003,-9.377476e-003
1.037532e+003,-9.009737e-003
1.039460e+003,-8.488476e-003
1.041389e+003,-8.025111e-003
1.043317e+003,-7.832961e-003
1.045246e+003,-7.805137e-003
1.047174e+003,-7.598532e-003
1.049103e+003,-7.347166e-003
1.051031e+003,-7.272718e-003
1.052960e+003,-7.165700e-003
1.054888e+003,-7.208719e-003
1.056817e+003,-7.310709e-003
1.058745e+003,-7.194250e-003
1.060674e+003,-7.060155e-003
1.062602e+003,-7.108661e-003
1.064531e+003,-7.099860e-003
1.066459e+003,-7.089494e-003
1.068388e+003,-7.254667e-003
1.070316e+003,-7.082844e-003
1.072245e+003,-6.726499e-003
1.074173e+003,-6.801725e-003
1.076102e+003,-6.973301e-003
1.078030e+003,-7.016469e-003
1.079959e+003,-7.330095e-003
1.081887e+003,-7.490943e-003
1.083816e+003,-7.239026e-003
1.085744e+003,-7.131412e-003
1.087673e+003,-7.278128e-003
1.089601e+003,-7.172512e-003
1.091530e+003,-6.981159e-003
1.093458e+003,-7.013241e-003
1.095387e+003,-7.091221e-003
1.097315e+003,-7.163875e-003
1.099244e+003,-7.129424e-003
1.101172e+003,-7.169807e-003
1.103101e+003,-7.371697e-003
1.105029e+003,-7.209632e-003
1.106958e+003,-7.060024e-003
1.108886e+003,-7.118179e-003
1.110815e+003,-7.206699e-003
1.112743e+003,-7.380395e-003
1.114672e+003,-7.600714e-003
1.116600e+003,-7.428897e-003
1.118529e+003,-7.219017e-003
1.120457e+003,-7.181898e-003
1.122386e+003,-7.185613e-003
1.124314e+003,-7.296602e-003
1.126243e+003,-7.389190e-003
1.128171e+003,-7.580624e-003
1.130100e+003,-7.576880e-003
1.132028e+003,-7.541419e-003
1.133957e+003,-7.677839e-003
1.135885e+003,-7.978594e-003
1.137814e+003,-8.543450e-003
1.139742e+003,-9.121265e-003
1.141671e+003,-9.251351e-003
1.143599e+003,-9.290370e-003
1.145528e+003,-9.577922e-003
1.147456e+003,-1.003679e-002
1.149385e+003,-1.032527e-002
1.151313e+003,-1.058856e-002
1.153242e+003,-1.082507e-002
1.155170e+003,-1.085919e-002
1.157099e+003,-1.092175e-002
1.159027e+003,-1.111629e-002
1.160956e+003,-1.128510e-002
1.162884e+003,-1.143194e-002
1.164813e+003,-1.147741e-002
1.166741e+003,-1.141406e-002
1.168670e+003,-1.143691e-002
1.170598e+003,-1.151523e-002
1.172526e+003,-1.158117e-002
1.174455e+003,-1.172107e-002
1.176384e+003,-1.166624e-002
1.178312e+003,-1.162644e-002
1.180240e+003,-1.170111e-002
1.182169e+003,-1.170746e-002
1.184098e+003,-1.182407e-002
1.186026e+003,-1.203783e-002
1.187954e+003,-1.210138e-002
1.189883e+003,-1.208491e-002
1.191812e+003,-1.216985e-002
1.193740e+003,-1.226514e-002
1.195668e+003,-1.252968e-002
1.197597e+003,-1.281580e-002
1.199526e+003,-1.278080e-002
1.201454e+003,-1.263889e-002
1.203382e+003,-1.259576e-002
1.205311e+003,-1.271693e-002
1.207240e+003,-1.280052e-002
1.209168e+003,-1.276728e-002
1.211096e+003,-1.256550e-002
1.213025e+003,-1.229378e-002
1.214953e+003,-1.221824e-002
1.216882e+003,-1.243596e-002
1.218810e+003,-1.261414e-002
1.220739e+003,-1.262325e-002
1.222667e+003,-1.252977e-002
1.224596e+003,-1.235204e-002
1.226524e+003,-1.236859e-002
1.228453e+003,-1.240649e-002
1.230381e+003,-1.230202e-002
1.232310e+003,-1.213090e-002
1.234238e+003,-1.210199e-002
1.236167e+003,-1.209958e-002
1.238095e+003,-1.197482e-002
1.240024e+003,-1.191428e-002
1.241952e+003,-1.207773e-002
1.243881e+003,-1.225532e-002
1.245809e+003,-1.239951e-002
1.247738e+003,-1.247859e-002
1.249666e+003,-1.241715e-002
1.251595e+003,-1.262344e-002
1.253523e+003,-1.279605e-002
1.255452e+003,-1.292944e-002
1.257380e+003,-1.317821e-002
1.259309e+003,-1.329918e-002
1.261237e+003,-1.333279e-002
1.263166e+003,-1.315706e-002
1.265094e+003,-1.290085e-002
1.267023e+003,-1.276667e-002
1.268951e+003,-1.265646e-002
1.270880e+003,-1.255588e-002
1.272808e+003,-1.254931e-002
1.274737e+003,-1.250299e-002
1.276665e+003,-1.243879e-002
1.278594e+003,-1.238369e-002
1.280522e+003,-1.244990e-002
1.282451e+003,-1.242652e-002
1.284379e+003,-1.234891e-002
1.286308e+003,-1.234656e-002
1.288236e+003,-1.222365e-002
1.290165e+003,-1.203335e-002
1.292093e+003,-1.205833e-002
1.294022e+003,-1.209349e-002
1.295950e+003,-1.201179e-002
1.297879e+003,-1.195777e-002
1.299807e+003,-1.201079e-002
1.301736e+003,-1.211114e-002
1.303664e+003,-1.236106e-002
1.305593e+003,-1.266493e-002
1.307521e+003,-1.266361e-002
1.309450e+003,-1.260487e-002
1.311378e+003,-1.289043e-002
1.313307e+003,-1.325888e-002
1.315235e+003,-1.337791e-002
1.317164e+003,-1.329668e-002
1.319092e+003,-1.348565e-002
1.321021e+003,-1.368951e-002
1.322949e+003,-1.378065e-002
1.324878e+003,-1.383531e-002
1.326806e+003,-1.389975e-002
1.328735e+003,-1.380678e-002
1.330663e+003,-1.370148e-002
1.332592e+003,-1.359485e-002
1.334520e+003,-1.362764e-002
1.336449e+003,-1.361656e-002
1.338377e+003,-1.348585e-002
1.340306e+003,-1.353467e-002
1.342234e+003,-1.359003e-002
1.344163e+003,-1.372553e-002
1.346091e+003,-1.383993e-002
1.348020e+003,-1.364851e-002
1.349948e+003,-1.368107e-002
1.351877e+003,-1.378947e-002
1.353805e+003,-1.375041e-002
1.355734e+003,-1.374059e-002
1.357662e+003,-1.375988e-002
1.359591e+003,-1.380979e-002
1.361519e+003,-1.386570e-002
1.363448e+003,-1.395520e-002
1.365376e+003,-1.424093e-002
1.367305e+003,-1.445777e-002
1.369233e+003,-1.451459e-002
1.371162e+003,-1.461237e-002
1.373090e+003,-1.457342e-002
1.375019e+003,-1.466450e-002
1.376947e+003,-1.483181e-002
1.378876e+003,-1.483428e-002
1.380804e+003,-1.486915e-002
1.382733e+003,-1.494179e-002
1.384661e+003,-1.495959e-002
1.386590e+003,-1.480049e-002
1.388518e+003,-1.482787e-002
1.390447e+003,-1.516291e-002
1.392375e+003,-1.543116e-002
1.394304e+003,-1.536419e-002
1.396232e+003,-1.554476e-002
1.398161e+003,-1.561509e-002
1.400089e+003,-1.558248e-002
1.402018e+003,-1.574484e-002
1.403946e+003,-1.587925e-002
1.405875e+003,-1.588845e-002
1.407803e+003,-1.600554e-002
1.409732e+003,-1.603748e-002
1.411660e+003,-1.595483e-002
1.413589e+003,-1.587951e-002
1.415517e+003,-1.573410e-002
1.417446e+003,-1.526654e-002
1.419374e+003,-1.467065e-002
1.421303e+003,-1.468554e-002
1.423231e+003,-1.450488e-002
1.425160e+003,-1.411807e-002
1.427088e+003,-1.389041e-002
1.429017e+003,-1.350476e-002
1.430945e+003,-1.310530e-002
1.432874e+003,-1.263345e-002
1.434802e+003,-1.209671e-002
1.436731e+003,-1.148128e-002
1.438659e+003,-1.139072e-002
1.440588e+003,-1.125730e-002
1.442516e+003,-1.094553e-002
1.444445e+003,-1.062070e-002
1.446373e+003,-1.013300e-002
1.448302e+003,-9.725011e-003
1.450230e+003,-9.638526e-003
1.452159e+003,-9.495265e-003
1.454087e+003,-9.182096e-003
1.456016e+003,-8.432325e-003
1.457944e+003,-8.059719e-003
1.459873e+003,-8.562488e-003
1.461801e+003,-8.927166e-003
1.463730e+003,-8.945441e-003
1.465658e+003,-9.126554e-003
1.467587e+003,-9.612049e-003
1.469515e+003,-9.839434e-003
1.471444e+003,-9.773447e-003
1.473372e+003,-9.928049e-003
1.475301e+003,-1.045208e-002
1.477229e+003,-1.110140e-002
1.479158e+003,-1.171104e-002
1.481086e+003,-1.197453e-002
1.483015e+003,-1.243824e-002
1.484943e+003,-1.286415e-002
1.486872e+003,-1.291822e-002
1.488800e+003,-1.300331e-002
1.490729e+003,-1.315545e-002
1.492657e+003,-1.354254e-002
1.494586e+003,-1.375693e-002
1.496514e+003,-1.367545e-002
1.498443e+003,-1.383447e-002
1.500371e+003,-1.422926e-002
1.502300e+003,-1.441087e-002
1.504228e+003,-1.413494e-002
1.506157e+003,-1.341498e-002
1.508085e+003,-1.372990e-002
1.510014e+003,-1.447225e-002
1.511942e+003,-1.469961e-002
1.513871e+003,-1.473817e-002
1.515799e+003,-1.458678e-002
1.517728e+003,-1.454999e-002
1.519656e+003,-1.446821e-002
1.521585e+003,-1.418286e-002
1.523513e+003,-1.446933e-002
1.525442e+003,-1.447514e-002
1.527370e+003,-1.464057e-002
1.529299e+003,-1.484875e-002
1.531227e+003,-1.478349e-002
1.533156e+003,-1.434693e-002
1.535084e+003,-1.439908e-002
1.537013e+003,-1.451125e-002
1.538941e+003,-1.375998e-002
1.540870e+003,-1.335092e-002
1.542798e+003,-1.372723e-002
1.544727e+003,-1.402925e-002
1.546655e+003,-1.434818e-002
1.548584e+003,-1.440027e-002
1.550512e+003,-1.426783e-002
1.552441e+003,-1.430531e-002
1.554369e+003,-1.415781e-002
1.556298e+003,-1.395581e-002
1.558226e+003,-1.311311e-002
1.560155e+003,-1.287891e-002
1.562083e+003,-1.346294e-002
1.564012e+003,-1.342735e-002
1.565940e+003,-1.333745e-002
1.567869e+003,-1.314828e-002
1.569797e+003,-1.266502e-002
1.571726e+003,-1.276255e-002
1.573654e+003,-1.283002e-002
1.575583e+003,-1.226273e-002
1.577511e+003,-1.212284e-002
1.579440e+003,-1.240794e-002
1.581368e+003,-1.232035e-002
1.583297e+003,-1.238073e-002
1.585225e+003,-1.234173e-002
1.587154e+003,-1.232705e-002
1.589082e+003,-1.244954e-002
1.591010e+003,-1.263390e-002
1.592939e+003,-1.274508e-002
1.594868e+003,-1.274502e-002
1.596796e+003,-1.276300e-002
1.598724e+003,-1.289944e-002
1.600653e+003,-1.303923e-002
1.602582e+003,-1.306891e-002
1.604510e+003,-1.320794e-002
1.606438e+003,-1.338777e-002
1.608367e+003,-1.354494e-002
1.610296e+003,-1.386490e-002
1.612224e+003,-1.414110e-002
1.614152e+003,-1.409357e-002
1.616081e+003,-1.379297e-002
1.618010e+003,-1.401847e-002
1.619938e+003,-1.454823e-002
1.621866e+003,-1.455807e-002
1.623795e+003,-1.468747e-002
1.625724e+003,-1.492764e-002
1.627652e+003,-1.507031e-002
1.629580e+003,-1.538246e-002
1.631509e+003,-1.569675e-002
1.633438e+003,-1.555077e-002
1.635366e+003,-1.501833e-002
1.637294e+003,-1.529754e-002
1.639223e+003,-1.609390e-002
1.641151e+003,-1.644880e-002
1.643080e+003,-1.670241e-002
1.645008e+003,-1.650294e-002
1.646937e+003,-1.636683e-002
1.648865e+003,-1.696710e-002
1.650794e+003,-1.712626e-002
1.652722e+003,-1.615609e-002
1.654651e+003,-1.661023e-002
1.656579e+003,-1.755291e-002
1.658508e+003,-1.778750e-002
1.660436e+003,-1.782932e-002
1.662365e+003,-1.761948e-002
1.664293e+003,-1.755724e-002
1.666222e+003,-1.769357e-002
1.668150e+003,-1.745098e-002
1.670079e+003,-1.716496e-002
1.672007e+003,-1.726219e-002
1.673936e+003,-1.710387e-002
1.675864e+003,-1.695904e-002
1.677793e+003,-1.745948e-002
1.679721e+003,-1.759781e-002
1.681650e+003,-1.732692e-002
1.683578e+003,-1.648612e-002
1.685507e+003,-1.636636e-002
1.687435e+003,-1.700849e-002
1.689364e+003,-1.719168e-002
1.691292e+003,-1.721216e-002
1.693221e+003,-1.715343e-002
1.695149e+003,-1.655655e-002
1.697078e+003,-1.631520e-002
1.699006e+003,-1.614093e-002
1.700935e+003,-1.565709e-002
1.702863e+003,-1.619721e-002
1.704792e+003,-1.617496e-002
1.706720e+003,-1.606826e-002
1.708649e+003,-1.620832e-002
1.710577e+003,-1.632002e-002
1.712506e+003,-1.617250e-002
1.714434e+003,-1.593157e-002
1.716363e+003,-1.565447e-002
1.718291e+003,-1.550707e-002
1.720220e+003,-1.586954e-002
1.722148e+003,-1.610686e-002
1.724077e+003,-1.617425e-002
1.726005e+003,-1.618035e-002
1.727934e+003,-1.607988e-002
1.729862e+003,-1.593882e-002
1.731791e+003,-1.573938e-002
1.733719e+003,-1.528765e-002
1.735648e+003,-1.554943e-002
1.737576e+003,-1.597124e-002
1.739505e+003,-1.574743e-002
1.741433e+003,-1.582641e-002
1.743362e+003,-1.590477e-002
1.745290e+003,-1.587973e-002
1.747219e+003,-1.573129e-002
1.749147e+003,-1.550915e-002
1.751076e+003,-1.522655e-002
1.753004e+003,-1.540833e-002
1.754933e+003,-1.557129e-002
1.756861e+003,-1.546864e-002
1.758790e+003,-1.553802e-002
1.760718e+003,-1.535131e-002
1.762647e+003,-1.520467e-002
1.764575e+003,-1.550710e-002
1.766504e+003,-1.552913e-002
1.768432e+003,-1.531075e-002
1.770361e+003,-1.528100e-002
1.772289e+003,-1.502377e-002
1.774218e+003,-1.510666e-002
1.776146e+003,-1.545495e-002
1.778075e+003,-1.563609e-002
1.780003e+003,-1.560591e-002
1.781932e+003,-1.553923e-002
1.783860e+003,-1.549031e-002
1.785789e+003,-1.537449e-002
1.787717e+003,-1.547989e-002
1.789646e+003,-1.548936e-002
1.791574e+003,-1.521907e-002
1.793503e+003,-1.517763e-002
1.795431e+003,-1.549338e-002
1.797360e+003,-1.555106e-002
1.799288e+003,-1.538850e-002
1.801217e+003,-1.536531e-002
1.803145e+003,-1.555557e-002
1.805074e+003,-1.560457e-002
1.807002e+003,-1.554773e-002
1.808931e+003,-1.552283e-002
1.810859e+003,-1.551215e-002
1.812788e+003,-1.551803e-002
1.814716e+003,-1.561116e-002
1.816645e+003,-1.561135e-002
1.818573e+003,-1.563161e-002
1.820502e+003,-1.569755e-002
1.822430e+003,-1.571896e-002
1.824359e+003,-1.553223e-002
1.826287e+003,-1.546419e-002
1.828216e+003,-1.543266e-002
1.830144e+003,-1.542067e-002
1.832073e+003,-1.567422e-002
1.834001e+003,-1.571627e-002
1.835930e+003,-1.566309e-002
1.837858e+003,-1.572810e-002
1.839787e+003,-1.572915e-002
1.841715e+003,-1.570483e-002
1.843644e+003,-1.547075e-002
1.845572e+003,-1.551279e-002
1.847501e+003,-1.570560e-002
1.849429e+003,-1.574168e-002
1.851358e+003,-1.571717e-002
1.853286e+003,-1.565993e-002
1.855215e+003,-1.568780e-002
1.857143e+003,-1.568537e-002
1.859072e+003,-1.571963e-002
1.861000e+003,-1.576312e-002
1.862929e+003,-1.575401e-002
1.864857e+003,-1.568805e-002
1.866786e+003,-1.563756e-002
1.868714e+003,-1.556305e-002
1.870643e+003,-1.564756e-002
1.872571e+003,-1.579731e-002
1.874500e+003,-1.578402e-002
1.876428e+003,-1.577529e-002
1.878357e+003,-1.570928e-002
1.880285e+003,-1.565440e-002
1.882214e+003,-1.574858e-002
1.884142e+003,-1.574033e-002
1.886071e+003,-1.576111e-002
1.887999e+003,-1.575826e-002
1.889928e+003,-1.571084e-002
1.891856e+003,-1.584309e-002
1.893785e+003,-1.587558e-002
1.895713e+003,-1.586350e-002
1.897642e+003,-1.586584e-002
1.899570e+003,-1.574794e-002
1.901499e+003,-1.571985e-002
1.903427e+003,-1.583124e-002
1.905356e+003,-1.580488e-002
1.907284e+003,-1.577919e-002
1.909213e+003,-1.579846e-002
1.911141e+003,-1.582724e-002
1.913070e+003,-1.584069e-002
1.914998e+003,-1.581044e-002
1.916927e+003,-1.576791e-002
1.918855e+003,-1.564651e-002
1.920784e+003,-1.568512e-002
1.922712e+003,-1.571541e-002
1.924641e+003,-1.573458e-002
1.926569e+003,-1.575312e-002
1.928498e+003,-1.586261e-002
1.930426e+003,-1.584117e-002
1.932355e+003,-1.591346e-002
1.934283e+003,-1.599743e-002
1.936212e+003,-1.596262e-002
1.938140e+003,-1.594486e-002
1.940069e+003,-1.589229e-002
1.941997e+003,-1.574040e-002
1.943926e+003,-1.572487e-002
1.945854e+003,-1.590302e-002
1.947783e+003,-1.598913e-002
1.949711e+003,-1.596387e-002
1.951640e+003,-1.596655e-002
1.953568e+003,-1.601825e-002
1.955497e+003,-1.603109e-002
1.957425e+003,-1.607768e-002
1.959354e+003,-1.599357e-002
1.961282e+003,-1.593949e-002
1.963211e+003,-1.596217e-002
1.965139e+003,-1.596006e-002
1.967068e+003,-1.603122e-002
1.968996e+003,-1.620554e-002
1.970925e+003,-1.614488e-002
1.972853e+003,-1.600190e-002
1.974782e+003,-1.602617e-002
1.976710e+003,-1.600822e-002
1.978639e+003,-1.594611e-002
1.980567e+003,-1.604559e-002
1.982496e+003,-1.615574e-002
1.984424e+003,-1.616027e-002
1.986353e+003,-1.608627e-002
1.988281e+003,-1.607353e-002
1.990210e+003,-1.602972e-002
1.992138e+003,-1.592352e-002
1.994067e+003,-1.593323e-002
1.995995e+003,-1.605533e-002
1.997924e+003,-1.613515e-002
1.999852e+003,-1.605558e-002
2.001781e+003,-1.602892e-002
2.003709e+003,-1.604460e-002
2.005638e+003,-1.602499e-002
2.007566e+003,-1.601142e-002
2.009495e+003,-1.603119e-002
2.011423e+003,-1.604265e-002
2.013352e+003,-1.598411e-002
2.015280e+003,-1.594853e-002
2.017208e+003,-1.592305e-002
2.019137e+003,-1.592694e-002
2.021066e+003,-1.600165e-002
2.022994e+003,-1.609275e-002
2.024922e+003,-1.610038e-002
2.026851e+003,-1.606861e-002
2.028780e+003,-1.605255e-002
2.030708e+003,-1.606187e-002
2.032636e+003,-1.604699e-002
2.034565e+003,-1.606037e-002
2.036494e+003,-1.608221e-002
2.038422e+003,-1.600838e-002
2.040350e+003,-1.596051e-002
2.042279e+003,-1.597664e-002
2.044208e+003,-1.603147e-002
2.046136e+003,-1.612078e-002
2.048064e+003,-1.609719e-002
2.049993e+003,-1.601056e-002
2.051921e+003,-1.607822e-002
2.053850e+003,-1.610865e-002
2.055778e+003,-1.605798e-002
2.057707e+003,-1.600244e-002
2.059635e+003,-1.604505e-002
2.061564e+003,-1.602240e-002
2.063492e+003,-1.605673e-002
2.065421e+003,-1.612771e-002
2.067349e+003,-1.608585e-002
2.069278e+003,-1.612308e-002
2.071206e+003,-1.611660e-002
2.073135e+003,-1.605105e-002
2.075063e+003,-1.600018e-002
2.076992e+003,-1.599555e-002
2.078920e+003,-1.607279e-002
2.080849e+003,-1.614865e-002
2.082777e+003,-1.615708e-002
2.084706e+003,-1.610926e-002
2.086634e+003,-1.614888e-002
2.088563e+003,-1.619941e-002
2.090491e+003,-1.618019e-002
2.092420e+003,-1.614386e-002
2.094348e+003,-1.607100e-002
2.096277e+003,-1.613269e-002
2.098205e+003,-1.624397e-002
2.100134e+003,-1.623880e-002
2.102062e+003,-1.612803e-002
2.103991e+003,-1.612972e-002
2.105919e+003,-1.612094e-002
2.107848e+003,-1.602793e-002
2.109776e+003,-1.609773e-002
2.111705e+003,-1.615580e-002
2.113633e+003,-1.606519e-002
2.115562e+003,-1.595652e-002
2.117490e+003,-1.601560e-002
2.119419e+003,-1.601832e-002
2.121347e+003,-1.602110e-002
2.123276e+003,-1.602953e-002
2.125204e+003,-1.599334e-002
2.127133e+003,-1.598763e-002
2.129061e+003,-1.588133e-002
2.130990e+003,-1.583050e-002
2.132918e+003,-1.597795e-002
2.134847e+003,-1.607433e-002
2.136775e+003,-1.601915e-002
2.138704e+003,-1.596061e-002
2.140632e+003,-1.594096e-002
2.142561e+003,-1.593767e-002
2.144489e+003,-1.595923e-002
2.146418e+003,-1.595358e-002
2.148346e+003,-1.592988e-002
2.150275e+003,-1.587433e-002
2.152203e+003,-1.583095e-002
2.154132e+003,-1.583114e-002
2.156060e+003,-1.588721e-002
2.157989e+003,-1.587197e-002
2.159917e+003,-1.582865e-002
2.161846e+003,-1.587063e-002
2.163774e+003,-1.585402e-002
2.165703e+003,-1.577635e-002
2.167631e+003,-1.573676e-002
2.169560e+003,-1.566920e-002
2.171488e+003,-1.570199e-002
2.173417e+003,-1.577475e-002
2.175345e+003,-1.576839e-002
2.177274e+003,-1.569454e-002
2.179202e+003,-1.571113e-002
2.181131e+003,-1.579299e-002
2.183059e+003,-1.585108e-002
2.184988e+003,-1.575615e-002
2.186916e+003,-1.567259e-002
2.188845e+003,-1.571308e-002
2.190773e+003,-1.581549e-002
2.192702e+003,-1.583504e-002
2.194630e+003,-1.577309e-002
2.196559e+003,-1.570384e-002
2.198487e+003,-1.566428e-002
2.200416e+003,-1.574768e-002
2.202344e+003,-1.579456e-002
2.204273e+003,-1.580168e-002
2.206201e+003,-1.585306e-002
2.208130e+003,-1.587382e-002
2.210058e+003,-1.589216e-002
2.211987e+003,-1.593122e-002
2.213915e+003,-1.596256e-002
2.215844e+003,-1.582111e-002
2.217772e+003,-1.572318e-002
2.219701e+003,-1.575222e-002
2.221629e+003,-1.584044e-002
2.223558e+003,-1.585890e-002
2.225486e+003,-1.585680e-002
2.227415e+003,-1.589724e-002
2.229343e+003,-1.597249e-002
2.231272e+003,-1.599395e-002
2.233200e+003,-1.596185e-002
2.235129e+003,-1.596291e-002
2.237057e+003,-1.605105e-002
2.238986e+003,-1.609658e-002
2.240914e+003,-1.604830e-002
2.242843e+003,-1.600283e-002
2.244771e+003,-1.603138e-002
2.246700e+003,-1.598507e-002
2.248628e+003,-1.595537e-002
2.250557e+003,-1.615047e-002
2.252485e+003,-1.625102e-002
2.254414e+003,-1.614546e-002
2.256342e+003,-1.606171e-002
2.258271e+003,-1.608442e-002
2.260199e+003,-1.613141e-002
2.262128e+003,-1.615740e-002
2.264056e+003,-1.622083e-002
2.265985e+003,-1.617968e-002
2.267913e+003,-1.615561e-002
2.269842e+003,-1.615759e-002
2.271770e+003,-1.611545e-002
2.273699e+003,-1.611165e-002
2.275627e+003,-1.618195e-002
2.277556e+003,-1.625501e-002
2.279484e+003,-1.629274e-002
2.281413e+003,-1.625434e-002
2.283341e+003,-1.628693e-002
2.285270e+003,-1.628313e-002
2.287198e+003,-1.626551e-002
2.289127e+003,-1.621489e-002
2.291055e+003,-1.619031e-002
2.292984e+003,-1.623321e-002
2.294912e+003,-1.626210e-002
2.296841e+003,-1.614447e-002
2.298769e+003,-1.596147e-002
2.300698e+003,-1.588995e-002
2.302626e+003,-1.582961e-002
2.304555e+003,-1.575321e-002
2.306483e+003,-1.567581e-002
2.308412e+003,-1.564162e-002
2.310340e+003,-1.554121e-002
2.312269e+003,-1.522642e-002
2.314197e+003,-1.490251e-002
2.316125e+003,-1.454493e-002
2.318054e+003,-1.429223e-002
2.319983e+003,-1.400920e-002
2.321911e+003,-1.357410e-002
2.323840e+003,-1.327691e-002
2.325768e+003,-1.308730e-002
2.327697e+003,-1.274582e-002
2.329625e+003,-1.234524e-002
2.331553e+003,-1.228369e-002
2.333482e+003,-1.230347e-002
2.335411e+003,-1.214491e-002
2.337339e+003,-1.201382e-002
2.339268e+003,-1.198017e-002
2.341196e+003,-1.208775e-002
2.343125e+003,-1.231329e-002
2.345053e+003,-1.289053e-002
2.346981e+003,-1.389670e-002
2.348910e+003,-1.466142e-002
2.350839e+003,-1.416592e-002
2.352767e+003,-1.294993e-002
2.354696e+003,-1.187824e-002
2.356624e+003,-1.114125e-002
2.358552e+003,-1.084517e-002
2.360481e+003,-1.078370e-002
2.362409e+003,-1.079879e-002
2.364338e+003,-1.094408e-002
2.366267e+003,-1.121362e-002
2.368195e+003,-1.175248e-002
2.370124e+003,-1.244996e-002
2.372052e+003,-1.320013e-002
2.373980e+003,-1.388797e-002
2.375909e+003,-1.456162e-002
2.377838e+003,-1.528919e-002
2.379766e+003,-1.594454e-002
2.381695e+003,-1.630936e-002
2.383623e+003,-1.637523e-002
2.385552e+003,-1.641970e-002
2.387480e+003,-1.645368e-002
2.389408e+003,-1.639865e-002
2.391337e+003,-1.635334e-002
2.393266e+003,-1.639077e-002
2.395194e+003,-1.639772e-002
2.397123e+003,-1.630107e-002
2.399051e+003,-1.621195e-002
2.400979e+003,-1.627314e-002
2.402908e+003,-1.624987e-002
2.404836e+003,-1.620643e-002
2.406765e+003,-1.632181e-002
2.408694e+003,-1.643620e-002
2.410622e+003,-1.635452e-002
2.412551e+003,-1.627569e-002
2.414479e+003,-1.620902e-002
2.416407e+003,-1.619960e-002
2.418336e+003,-1.621859e-002
2.420264e+003,-1.626025e-002
2.422193e+003,-1.632816e-002
2.424122e+003,-1.624422e-002
2.426050e+003,-1.618856e-002
2.427979e+003,-1.621805e-002
2.429907e+003,-1.615670e-002
2.431835e+003,-1.604556e-002
2.433764e+003,-1.604769e-002
2.435692e+003,-1.610386e-002
2.437621e+003,-1.618453e-002
2.439550e+003,-1.628757e-002
2.441478e+003,-1.625581e-002
2.443406e+003,-1.619047e-002
2.445335e+003,-1.615220e-002
2.447263e+003,-1.613010e-002
2.449192e+003,-1.609693e-002
2.451121e+003,-1.609019e-002
2.453049e+003,-1.608984e-002
2.454978e+003,-1.610622e-002
2.456906e+003,-1.610162e-002
2.458834e+003,-1.606171e-002
2.460763e+003,-1.612343e-002
2.462691e+003,-1.627189e-002
2.464620e+003,-1.624901e-002
2.466549e+003,-1.611076e-002
2.468477e+003,-1.610303e-002
2.470406e+003,-1.614536e-002
2.472334e+003,-1.617579e-002
2.474262e+003,-1.614364e-002
2.476191e+003,-1.614358e-002
2.478119e+003,-1.615884e-002
2.480048e+003,-1.614923e-002
2.481977e+003,-1.610683e-002
2.483905e+003,-1.616832e-002
2.485833e+003,-1.618217e-002
2.487762e+003,-1.602030e-002
2.489690e+003,-1.601816e-002
2.491619e+003,-1.609939e-002
2.493547e+003,-1.604409e-002
2.495476e+003,-1.595422e-002
2.497405e+003,-1.595713e-002
2.499333e+003,-1.603850e-002
2.501261e+003,-1.609300e-002
2.503190e+003,-1.611545e-002
2.505118e+003,-1.603224e-002
2.507047e+003,-1.611449e-002
2.508975e+003,-1.613556e-002
2.510904e+003,-1.606325e-002
2.512833e+003,-1.607180e-002
2.514761e+003,-1.607988e-002
2.516689e+003,-1.606497e-002
2.518618e+003,-1.597814e-002
2.520546e+003,-1.587587e-002
2.522475e+003,-1.595764e-002
2.524403e+003,-1.606676e-002
2.526332e+003,-1.603885e-002
2.528260e+003,-1.595269e-002
2.530189e+003,-1.595342e-002
2.532117e+003,-1.602640e-002
2.534046e+003,-1.610830e-002
2.535974e+003,-1.606551e-002
2.537903e+003,-1.598472e-002
2.539831e+003,-1.597009e-002
2.541760e+003,-1.599299e-002
2.543688e+003,-1.595722e-002
2.545617e+003,-1.599864e-002
2.547545e+003,-1.601238e-002
2.549474e+003,-1.592103e-002
2.551402e+003,-1.593141e-002
2.553331e+003,-1.600053e-002
2.555259e+003,-1.596422e-002
2.557188e+003,-1.595304e-002
2.559116e+003,-1.598763e-002
2.561045e+003,-1.599280e-002
2.562973e+003,-1.603891e-002
2.564902e+003,-1.597380e-002
2.566830e+003,-1.584277e-002
2.568759e+003,-1.594729e-002
2.570687e+003,-1.604875e-002
2.572616e+003,-1.592014e-002
2.574544e+003,-1.581184e-002
2.576473e+003,-1.583229e-002
2.578401e+003,-1.587299e-002
2.580330e+003,-1.596387e-002
2.582258e+003,-1.598258e-002
2.584187e+003,-1.594818e-002
2.586115e+003,-1.596591e-002
2.588044e+003,-1.596751e-002
2.589972e+003,-1.593327e-002
2.591901e+003,-1.585715e-002
2.593829e+003,-1.593202e-002
2.595758e+003,-1.606711e-002
2.597686e+003,-1.609834e-002
2.599615e+003,-1.604900e-002
2.601543e+003,-1.596402e-002
2.603472e+003,-1.595649e-002
2.605400e+003,-1.592321e-002
2.607329e+003,-1.586778e-002
2.609257e+003,-1.583124e-002
2.611186e+003,-1.579392e-002
2.613114e+003,-1.576165e-002
2.615043e+003,-1.577465e-002
2.616971e+003,-1.579632e-002
2.618900e+003,-1.571244e-002
2.620828e+003,-1.566693e-002
2.622757e+003,-1.560396e-002
2.624685e+003,-1.563417e-002
2.626614e+003,-1.571014e-002
2.628542e+003,-1.566121e-002
2.630471e+003,-1.563426e-002
2.632399e+003,-1.556356e-002
2.634328e+003,-1.556714e-002
2.636256e+003,-1.560176e-002
2.638185e+003,-1.551714e-002
2.640113e+003,-1.546208e-002
2.642042e+003,-1.544267e-002
2.643970e+003,-1.536100e-002
2.645899e+003,-1.528970e-002
2.647827e+003,-1.531654e-002
2.649756e+003,-1.539800e-002
2.651684e+003,-1.539231e-002
2.653613e+003,-1.539829e-002
2.655541e+003,-1.530720e-002
2.657470e+003,-1.522095e-002
2.659398e+003,-1.517802e-002
2.661327e+003,-1.512592e-002
2.663255e+003,-1.511456e-002
2.665184e+003,-1.515501e-002
2.667112e+003,-1.513178e-002
2.669041e+003,-1.506403e-002
2.670969e+003,-1.505056e-002
2.672898e+003,-1.507648e-002
2.674826e+003,-1.503180e-002
2.676755e+003,-1.495799e-002
2.678683e+003,-1.500447e-002
2.680612e+003,-1.497736e-002
2.682540e+003,-1.486879e-002
2.684469e+003,-1.479726e-002
2.686397e+003,-1.469272e-002
2.688326e+003,-1.464425e-002
2.690254e+003,-1.456550e-002
2.692183e+003,-1.455877e-002
2.694111e+003,-1.462593e-002
2.696040e+003,-1.463772e-002
2.697968e+003,-1.458383e-002
2.699897e+003,-1.445370e-002
2.701825e+003,-1.444299e-002
2.703754e+003,-1.447139e-002
2.705682e+003,-1.436747e-002
2.707611e+003,-1.430910e-002
2.709539e+003,-1.426196e-002
2.711468e+003,-1.423708e-002
2.713396e+003,-1.410348e-002
2.715325e+003,-1.402380e-002
2.717253e+003,-1.401857e-002
2.719182e+003,-1.395696e-002
2.721110e+003,-1.395446e-002
2.723039e+003,-1.382103e-002
2.724967e+003,-1.365413e-002
2.726896e+003,-1.365910e-002
2.728824e+003,-1.357086e-002
2.730753e+003,-1.337389e-002
2.732681e+003,-1.329864e-002
2.734610e+003,-1.334237e-002
2.736538e+003,-1.332341e-002
2.738467e+003,-1.319531e-002
2.740395e+003,-1.310562e-002
2.742324e+003,-1.298839e-002
2.744252e+003,-1.286370e-002
2.746181e+003,-1.280303e-002
2.748109e+003,-1.277629e-002
2.750038e+003,-1.266422e-002
2.751966e+003,-1.252929e-002
2.753895e+003,-1.241564e-002
2.755823e+003,-1.231210e-002
2.757752e+003,-1.223100e-002
2.759680e+003,-1.211614e-002
2.761609e+003,-1.192047e-002
2.763537e+003,-1.155269e-002
2.765466e+003,-1.125530e-002
2.767394e+003,-1.102226e-002
2.769323e+003,-1.070754e-002
2.771251e+003,-1.031378e-002
2.773180e+003,-9.913832e-003
2.775108e+003,-9.427994e-003
2.777037e+003,-8.851983e-003
2.778965e+003,-8.391897e-003
2.780894e+003,-7.834133e-003
2.782822e+003,-7.134183e-003
2.784750e+003,-6.328816e-003
2.786679e+003,-5.583290e-003
2.788608e+003,-4.861779e-003
2.790536e+003,-4.068038e-003
2.792465e+003,-3.289385e-003
2.794393e+003,-2.478497e-003
2.796322e+003,-1.703257e-003
2.798250e+003,-9.659089e-004
2.800178e+003,-2.795944e-004
2.802107e+003,2.966509e-004
2.804036e+003,8.594190e-004
2.805964e+003,1.265840e-003
2.807893e+003,1.640446e-003
2.809821e+003,1.869564e-003
2.811750e+003,1.942846e-003
2.813678e+003,1.823811e-003
2.815606e+003,1.660269e-003
2.817535e+003,1.382695e-003
2.819464e+003,1.112375e-003
2.821392e+003,7.364316e-004
2.823321e+003,3.125664e-004
2.825249e+003,-1.840206e-004
2.827177e+003,-8.344407e-004
2.829106e+003,-1.484813e-003
2.831034e+003,-2.117693e-003
2.832963e+003,-2.815893e-003
2.834892e+003,-3.371521e-003
2.836820e+003,-3.985147e-003
2.838749e+003,-4.709230e-003
2.840677e+003,-5.453377e-003
2.842605e+003,-6.103669e-003
2.844534e+003,-6.817545e-003
2.846462e+003,-7.749158e-003
2.848391e+003,-8.506509e-003
2.850320e+003,-8.939436e-003
2.852248e+003,-9.160717e-003
2.854177e+003,-9.249828e-003
2.856105e+003,-9.279473e-003
2.858033e+003,-9.332661e-003
2.859962e+003,-9.335061e-003
2.861890e+003,-9.352540e-003
2.863819e+003,-9.472409e-003
2.865748e+003,-9.512867e-003
2.867676e+003,-9.387041e-003
2.869604e+003,-9.168633e-003
2.871533e+003,-9.062373e-003
2.873461e+003,-8.991886e-003
2.875390e+003,-8.889186e-003
2.877319e+003,-8.640093e-003
2.879247e+003,-8.374152e-003
2.881176e+003,-8.335896e-003
2.883104e+003,-8.329103e-003
2.885032e+003,-8.228522e-003
2.886961e+003,-8.281090e-003
2.888889e+003,-8.293086e-003
2.890818e+003,-8.321464e-003
2.892747e+003,-8.506704e-003
2.894675e+003,-8.724406e-003
2.896604e+003,-8.854125e-003
2.898532e+003,-8.940214e-003
2.900460e+003,-9.012365e-003
2.902389e+003,-9.052540e-003
2.904317e+003,-9.149102e-003
2.906246e+003,-9.237047e-003
2.908175e+003,-9.334704e-003
2.910103e+003,-9.437719e-003
2.912031e+003,-9.606734e-003
2.913960e+003,-9.827644e-003
2.915888e+003,-1.008282e-002
2.917817e+003,-1.008554e-002
2.919745e+003,-9.742605e-003
2.921674e+003,-9.365575e-003
2.923603e+003,-8.993639e-003
2.925531e+003,-8.629407e-003
2.927459e+003,-8.272801e-003
2.929388e+003,-7.966980e-003
2.931316e+003,-7.749549e-003
2.933245e+003,-7.601658e-003
2.935173e+003,-7.445737e-003
2.937102e+003,-7.302369e-003
2.939031e+003,-7.217062e-003
2.940959e+003,-7.365637e-003
2.942887e+003,-7.580787e-003
2.944816e+003,-7.714819e-003
2.946744e+003,-7.856098e-003
2.948673e+003,-8.184563e-003
2.950601e+003,-8.781949e-003
2.952530e+003,-9.364505e-003
2.954458e+003,-9.995826e-003
2.956387e+003,-1.062985e-002
2.958315e+003,-1.118543e-002
2.960244e+003,-1.191715e-002
2.962172e+003,-1.266888e-002
2.964101e+003,-1.317120e-002
2.966029e+003,-1.361816e-002
2.967958e+003,-1.411897e-002
2.969886e+003,-1.455781e-002
2.971815e+003,-1.502870e-002
2.973743e+003,-1.551864e-002
2.975672e+003,-1.601851e-002
2.977600e+003,-1.626277e-002
2.979529e+003,-1.637937e-002
2.981457e+003,-1.650967e-002
2.983386e+003,-1.670331e-002
2.985314e+003,-1.696197e-002
2.987243e+003,-1.718452e-002
2.989171e+003,-1.727709e-002
2.991100e+003,-1.749515e-002
2.993028e+003,-1.761442e-002
2.994957e+003,-1.758922e-002
2.996885e+003,-1.761973e-002
2.998814e+003,-1.769882e-002
3.000742e+003,-1.778426e-002
3.002671e+003,-1.779116e-002
3.004599e+003,-1.780394e-002
3.006528e+003,-1.781272e-002
3.008456e+003,-1.793085e-002
3.010385e+003,-1.799828e-002
3.012313e+003,-1.798121e-002
3.014242e+003,-1.800763e-002
3.016170e+003,-1.800207e-002
3.018099e+003,-1.794402e-002
3.020027e+003,-1.812167e-002
3.021956e+003,-1.821868e-002
3.023884e+003,-1.809663e-002
3.025813e+003,-1.810600e-002
3.027741e+003,-1.824410e-002
3.029670e+003,-1.823209e-002
3.031598e+003,-1.816838e-002
3.033527e+003,-1.823139e-002
3.035455e+003,-1.827914e-002
3.037384e+003,-1.826183e-002
3.039312e+003,-1.823997e-002
3.041241e+003,-1.833508e-002
3.043169e+003,-1.852201e-002
3.045098e+003,-1.856833e-002
3.047026e+003,-1.851232e-002
3.048955e+003,-1.847105e-002
3.050883e+003,-1.840207e-002
3.052812e+003,-1.836326e-002
3.054740e+003,-1.848578e-002
3.056669e+003,-1.854369e-002
3.058597e+003,-1.861988e-002
3.060526e+003,-1.871250e-002
3.062454e+003,-1.861179e-002
3.064383e+003,-1.852576e-002
3.066311e+003,-1.858043e-002
3.068240e+003,-1.857430e-002
3.070168e+003,-1.854868e-002
3.072097e+003,-1.875903e-002
3.074025e+003,-1.889790e-002
3.075954e+003,-1.881446e-002
3.077882e+003,-1.870127e-002
3.079811e+003,-1.867159e-002
3.081739e+003,-1.876540e-002
3.083668e+003,-1.882725e-002
3.085596e+003,-1.890637e-002
3.087525e+003,-1.894174e-002
3.089453e+003,-1.892896e-002
3.091382e+003,-1.893743e-002
3.093310e+003,-1.884451e-002
3.095239e+003,-1.877426e-002
3.097167e+003,-1.886313e-002
3.099096e+003,-1.888137e-002
3.101024e+003,-1.888064e-002
3.102953e+003,-1.887592e-002
3.104881e+003,-1.879288e-002
3.106810e+003,-1.870358e-002
3.108738e+003,-1.869854e-002
3.110667e+003,-1.871691e-002
3.112595e+003,-1.872773e-002
3.114524e+003,-1.878432e-002
3.116452e+003,-1.895642e-002
3.118381e+003,-1.894072e-002
3.120309e+003,-1.886059e-002
3.122238e+003,-1.879339e-002
3.124166e+003,-1.876848e-002
3.126095e+003,-1.881579e-002
3.128023e+003,-1.888248e-002
3.129952e+003,-1.889460e-002
3.131880e+003,-1.890437e-002
3.133809e+003,-1.885234e-002
3.135737e+003,-1.887182e-002
3.137666e+003,-1.882728e-002
3.139594e+003,-1.875138e-002
3.141523e+003,-1.878029e-002
3.143451e+003,-1.877200e-002
3.145380e+003,-1.873196e-002
3.147308e+003,-1.881684e-002
3.149237e+003,-1.885079e-002
3.151165e+003,-1.873875e-002
3.153094e+003,-1.866966e-002
3.155022e+003,-1.867407e-002
3.156951e+003,-1.865210e-002
3.158879e+003,-1.852645e-002
3.160808e+003,-1.848949e-002
3.162736e+003,-1.847393e-002
3.164665e+003,-1.852626e-002
3.166593e+003,-1.867026e-002
3.168522e+003,-1.876791e-002
3.170450e+003,-1.869184e-002
3.172379e+003,-1.867578e-002
3.174307e+003,-1.880767e-002
3.176236e+003,-1.871990e-002
3.178164e+003,-1.853445e-002
3.180093e+003,-1.849778e-002
3.182021e+003,-1.854433e-002
3.183950e+003,-1.854541e-002
3.185878e+003,-1.849159e-002
3.187807e+003,-1.840480e-002
3.189735e+003,-1.838139e-002
3.191664e+003,-1.851455e-002
3.193592e+003,-1.859312e-002
3.195521e+003,-1.857547e-002
3.197449e+003,-1.860573e-002
3.199378e+003,-1.875674e-002
3.201306e+003,-1.878603e-002
3.203235e+003,-1.859233e-002
3.205163e+003,-1.849766e-002
3.207092e+003,-1.856103e-002
3.209020e+003,-1.850308e-002
3.210948e+003,-1.841096e-002
3.212877e+003,-1.841909e-002
3.214806e+003,-1.848032e-002
3.216734e+003,-1.850127e-002
3.218663e+003,-1.845288e-002
3.220591e+003,-1.841106e-002
3.222520e+003,-1.842179e-002
3.224448e+003,-1.847333e-002
3.226376e+003,-1.846196e-002
3.228305e+003,-1.842881e-002
3.230234e+003,-1.833667e-002
3.232162e+003,-1.831082e-002
3.234091e+003,-1.818675e-002
3.236019e+003,-1.823698e-002
3.237948e+003,-1.839092e-002
3.239876e+003,-1.826777e-002
3.241804e+003,-1.795800e-002
3.243733e+003,-1.787435e-002
3.245662e+003,-1.786939e-002
3.247590e+003,-1.772650e-002
3.249519e+003,-1.772469e-002
3.251447e+003,-1.777074e-002
3.253375e+003,-1.797908e-002
3.255304e+003,-1.798442e-002
3.257232e+003,-1.771349e-002
3.259161e+003,-1.750658e-002
3.261090e+003,-1.736796e-002
3.263018e+003,-1.740011e-002
3.264947e+003,-1.756825e-002
3.266875e+003,-1.771552e-002
3.268803e+003,-1.767586e-002
3.270732e+003,-1.746893e-002
3.272660e+003,-1.735503e-002
3.274589e+003,-1.743029e-002
3.276518e+003,-1.741154e-002
3.278446e+003,-1.732552e-002
3.280375e+003,-1.726604e-002
3.282303e+003,-1.733737e-002
3.284231e+003,-1.740527e-002
3.286160e+003,-1.758639e-002
3.288088e+003,-1.768273e-002
3.290017e+003,-1.775633e-002
3.291946e+003,-1.767493e-002
3.293874e+003,-1.752408e-002
3.295802e+003,-1.758012e-002
3.297731e+003,-1.767735e-002
3.299659e+003,-1.778839e-002
3.301588e+003,-1.788812e-002
3.303516e+003,-1.808569e-002
3.305445e+003,-1.823934e-002
3.307374e+003,-1.817023e-002
3.309302e+003,-1.818611e-002
3.311230e+003,-1.831355e-002
3.313159e+003,-1.841995e-002
3.315087e+003,-1.859008e-002
3.317016e+003,-1.855696e-002
3.318944e+003,-1.862080e-002
3.320873e+003,-1.877051e-002
3.322802e+003,-1.885253e-002
3.324730e+003,-1.895960e-002
3.326658e+003,-1.902699e-002
3.328587e+003,-1.906885e-002
3.330515e+003,-1.921391e-002
3.332444e+003,-1.934069e-002
3.334372e+003,-1.920142e-002
3.336301e+003,-1.900257e-002
3.338229e+003,-1.898738e-002
3.340158e+003,-1.916610e-002
3.342086e+003,-1.921521e-002
3.344015e+003,-1.936157e-002
3.345943e+003,-1.929993e-002
3.347872e+003,-1.915992e-002
3.349800e+003,-1.927049e-002
3.351729e+003,-1.941664e-002
3.353657e+003,-1.946778e-002
3.355586e+003,-1.942482e-002
3.357514e+003,-1.934554e-002
3.359443e+003,-1.948470e-002
3.361371e+003,-1.964095e-002
3.363300e+003,-1.963810e-002
3.365229e+003,-1.966318e-002
3.367157e+003,-1.976837e-002
3.369085e+003,-1.994335e-002
3.371014e+003,-2.002938e-002
3.372942e+003,-2.002511e-002
3.374871e+003,-2.013638e-002
3.376799e+003,-2.013926e-002
3.378728e+003,-2.018854e-002
3.380656e+003,-2.025859e-002
3.382585e+003,-2.034014e-002
3.384513e+003,-2.045319e-002
3.386442e+003,-2.058657e-002
3.388370e+003,-2.069333e-002
3.390299e+003,-2.087129e-002
3.392227e+003,-2.084893e-002
3.394156e+003,-2.089551e-002
3.396084e+003,-2.093943e-002
3.398013e+003,-2.105311e-002
3.399941e+003,-2.113044e-002
3.401870e+003,-2.119040e-002
3.403798e+003,-2.123124e-002
3.405727e+003,-2.111151e-002
3.407655e+003,-2.103247e-002
3.409584e+003,-2.104036e-002
3.411512e+003,-2.114506e-002
3.413441e+003,-2.130838e-002
3.415369e+003,-2.134068e-002
3.417298e+003,-2.123508e-002
3.419226e+003,-2.120353e-002
3.421155e+003,-2.125544e-002
3.423083e+003,-2.130021e-002
3.425012e+003,-2.128768e-002
3.426940e+003,-2.124256e-002
3.428869e+003,-2.127468e-002
3.430797e+003,-2.141629e-002
3.432726e+003,-2.143171e-002
3.434654e+003,-2.136330e-002
3.436583e+003,-2.152215e-002
3.438511e+003,-2.154558e-002
3.440440e+003,-2.145369e-002
3.442368e+003,-2.162276e-002
3.444297e+003,-2.160425e-002
3.446225e+003,-2.151462e-002
3.448154e+003,-2.139298e-002
3.450082e+003,-2.133816e-002
3.452011e+003,-2.142032e-002
3.453939e+003,-2.147870e-002
3.455868e+003,-2.146643e-002
3.457796e+003,-2.144145e-002
3.459725e+003,-2.151462e-002
3.461653e+003,-2.150774e-002
3.463582e+003,-2.149459e-002
3.465510e+003,-2.165075e-002
3.467439e+003,-2.173753e-002
3.469367e+003,-2.173633e-002
3.471296e+003,-2.170305e-002
3.473224e+003,-2.168631e-002
3.475153e+003,-2.170985e-002
3.477081e+003,-2.171505e-002
3.479010e+003,-2.178965e-002
3.480938e+003,-2.181221e-002
3.482867e+003,-2.188645e-002
3.484795e+003,-2.178681e-002
3.486724e+003,-2.158896e-002
3.488652e+003,-2.169989e-002
3.490581e+003,-2.179488e-002
3.492509e+003,-2.173097e-002
3.494438e+003,-2.180711e-002
3.496366e+003,-2.175319e-002
3.498295e+003,-2.172911e-002
3.500223e+003,-2.172196e-002
3.502152e+003,-2.157809e-002
3.504080e+003,-2.145773e-002
3.506009e+003,-2.172999e-002
3.507937e+003,-2.192309e-002
3.509866e+003,-2.181395e-002
3.511794e+003,-2.168385e-002
3.513723e+003,-2.172189e-002
3.515651e+003,-2.182003e-002
3.517580e+003,-2.175354e-002
3.519508e+003,-2.168842e-002
3.521437e+003,-2.178366e-002
3.523365e+003,-2.182019e-002
3.525294e+003,-2.177131e-002
3.527222e+003,-2.169517e-002
3.529151e+003,-2.164016e-002
3.531079e+003,-2.169309e-002
3.533008e+003,-2.169725e-002
3.534936e+003,-2.165025e-002
3.536865e+003,-2.160769e-002
3.538793e+003,-2.183244e-002
3.540722e+003,-2.197289e-002
3.542650e+003,-2.193887e-002
3.544579e+003,-2.171493e-002
3.546507e+003,-2.143786e-002
3.548436e+003,-2.149595e-002
3.550364e+003,-2.159921e-002
3.552293e+003,-2.153026e-002
3.554221e+003,-2.155671e-002
3.556150e+003,-2.159281e-002
3.558078e+003,-2.165227e-002
3.560007e+003,-2.174566e-002
3.561935e+003,-2.190667e-002
3.563864e+003,-2.180897e-002
3.565792e+003,-2.150418e-002
3.567721e+003,-2.147334e-002
3.569649e+003,-2.167619e-002
3.571578e+003,-2.176554e-002
3.573506e+003,-2.182422e-002
3.575435e+003,-2.184048e-002
3.577363e+003,-2.174938e-002
3.579292e+003,-2.175801e-002
3.581220e+003,-2.189070e-002
3.583149e+003,-2.178814e-002
3.585077e+003,-2.165403e-002
3.587006e+003,-2.139670e-002
3.588934e+003,-2.146044e-002
3.590863e+003,-2.176037e-002
3.592791e+003,-2.163291e-002
3.594720e+003,-2.145530e-002
3.596648e+003,-2.149819e-002
3.598577e+003,-2.165375e-002
3.600505e+003,-2.162046e-002
3.602434e+003,-2.153675e-002
3.604362e+003,-2.161463e-002
3.606291e+003,-2.163723e-002
3.608219e+003,-2.135614e-002
3.610148e+003,-2.133096e-002
3.612076e+003,-2.139052e-002
3.614005e+003,-2.149806e-002
3.615933e+003,-2.172933e-002
3.617862e+003,-2.157645e-002
3.619790e+003,-2.148882e-002
3.621719e+003,-2.171234e-002
3.623647e+003,-2.191783e-002
3.625576e+003,-2.190365e-002
3.627504e+003,-2.140282e-002
3.629433e+003,-2.084198e-002
3.631361e+003,-2.156349e-002
3.633290e+003,-2.182715e-002
3.635218e+003,-2.183103e-002
3.637146e+003,-2.189754e-002
3.639075e+003,-2.184722e-002
3.641004e+003,-2.201601e-002
3.642932e+003,-2.202285e-002
3.644861e+003,-2.202672e-002
3.646789e+003,-2.179977e-002
3.648718e+003,-2.141238e-002
3.650646e+003,-2.138386e-002
3.652574e+003,-2.193944e-002
3.654503e+003,-2.195522e-002
3.656432e+003,-2.158083e-002
3.658360e+003,-2.191575e-002
3.660289e+003,-2.222078e-002
3.662217e+003,-2.229076e-002
3.664146e+003,-2.251890e-002
3.666074e+003,-2.269168e-002
3.668002e+003,-2.234833e-002
3.669931e+003,-2.166336e-002
3.671860e+003,-2.198174e-002
3.673788e+003,-2.208879e-002
3.675717e+003,-2.128882e-002
3.677645e+003,-2.183752e-002
3.679573e+003,-2.234320e-002
3.681502e+003,-2.255027e-002
3.683430e+003,-2.257452e-002
3.685359e+003,-2.263073e-002
3.687288e+003,-2.225972e-002
3.689216e+003,-2.175310e-002
3.691145e+003,-2.206993e-002
3.693073e+003,-2.244204e-002
3.695001e+003,-2.257719e-002
3.696930e+003,-2.241227e-002
3.698858e+003,-2.233114e-002
3.700787e+003,-2.214261e-002
3.702716e+003,-2.214138e-002
3.704644e+003,-2.234383e-002
3.706573e+003,-2.236586e-002
3.708501e+003,-2.237284e-002
3.710429e+003,-2.207786e-002
3.712358e+003,-2.189284e-002
3.714286e+003,-2.234257e-002
3.716215e+003,-2.258198e-002
3.718144e+003,-2.243849e-002
3.720072e+003,-2.235874e-002
3.722000e+003,-2.226643e-002
3.723929e+003,-2.234619e-002
3.725857e+003,-2.241104e-002
3.727786e+003,-2.265535e-002
3.729714e+003,-2.276472e-002
3.731643e+003,-2.218606e-002
3.733572e+003,-2.192643e-002
3.735500e+003,-2.180705e-002
3.737428e+003,-2.200518e-002
3.739357e+003,-2.245104e-002
3.741285e+003,-2.262787e-002
3.743214e+003,-2.196609e-002
3.745142e+003,-2.120353e-002
3.747071e+003,-2.202968e-002
3.749000e+003,-2.181407e-002
3.750928e+003,-2.168886e-002
3.752856e+003,-2.188632e-002
3.754785e+003,-2.240227e-002
3.756713e+003,-2.252501e-002
3.758642e+003,-2.243682e-002
3.760570e+003,-2.222743e-002
3.762499e+003,-2.251610e-002
3.764427e+003,-2.267146e-002
3.766356e+003,-2.248417e-002
3.768284e+003,-2.238716e-002
3.770213e+003,-2.204760e-002
3.772141e+003,-2.218159e-002
3.774070e+003,-2.248725e-002
3.775998e+003,-2.249021e-002
3.777927e+003,-2.242757e-002
3.779855e+003,-2.222402e-002
3.781784e+003,-2.237920e-002
3.783712e+003,-2.245422e-002
3.785641e+003,-2.242171e-002
3.787569e+003,-2.252073e-002
3.789498e+003,-2.296223e-002
3.791426e+003,-2.310687e-002
3.793355e+003,-2.291961e-002
3.795283e+003,-2.255801e-002
3.797212e+003,-2.232973e-002
3.799140e+003,-2.242876e-002
3.801069e+003,-2.205276e-002
3.802997e+003,-2.222088e-002
3.804926e+003,-2.255854e-002
3.806854e+003,-2.201434e-002
3.808783e+003,-2.230691e-002
3.810711e+003,-2.269240e-002
3.812640e+003,-2.289918e-002
3.814568e+003,-2.279852e-002
3.816497e+003,-2.199941e-002
3.818425e+003,-2.221612e-002
3.820354e+003,-2.199047e-002
3.822282e+003,-2.195267e-002
3.824211e+003,-2.271265e-002
3.826139e+003,-2.274605e-002
3.828068e+003,-2.277846e-002
3.829996e+003,-2.270592e-002
3.831925e+003,-2.258059e-002
3.833853e+003,-2.258025e-002
3.835782e+003,-2.263422e-002
3.837710e+003,-2.219028e-002
3.839639e+003,-2.232658e-002
3.841567e+003,-2.258572e-002
3.843496e+003,-2.248691e-002
3.845424e+003,-2.284385e-002
3.847353e+003,-2.327256e-002
3.849281e+003,-2.324558e-002
3.851210e+003,-2.281896e-002
3.853138e+003,-2.159615e-002
3.855067e+003,-2.157125e-002
3.856995e+003,-2.257307e-002
3.858924e+003,-2.304604e-002
3.860852e+003,-2.292854e-002
3.862781e+003,-2.271023e-002
3.864709e+003,-2.254885e-002
3.866638e+003,-2.281729e-002
3.868566e+003,-2.269529e-002
3.870495e+003,-2.225028e-002
3.872423e+003,-2.259594e-002
3.874352e+003,-2.257559e-002
3.876280e+003,-2.273457e-002
3.878209e+003,-2.289415e-002
3.880137e+003,-2.269860e-002
3.882066e+003,-2.294026e-002
3.883994e+003,-2.316175e-002
3.885923e+003,-2.270838e-002
3.887851e+003,-2.290408e-002
3.889780e+003,-2.286797e-002
3.891708e+003,-2.265501e-002
3.893637e+003,-2.288881e-002
3.895565e+003,-2.316326e-002
3.897494e+003,-2.313831e-002
3.899422e+003,-2.287727e-002
3.901351e+003,-2.287677e-002
3.903279e+003,-2.274312e-002
3.905208e+003,-2.270941e-002
3.907136e+003,-2.318254e-002
3.909065e+003,-2.324075e-002
3.910993e+003,-2.313351e-002
3.912922e+003,-2.316872e-002
3.914850e+003,-2.305879e-002
3.916779e+003,-2.286470e-002
3.918707e+003,-2.302030e-002
3.920636e+003,-2.324279e-002
3.922564e+003,-2.321304e-002
3.924493e+003,-2.311419e-002
3.926421e+003,-2.324009e-002
3.928350e+003,-2.339217e-002
3.930278e+003,-2.335744e-002
3.932207e+003,-2.326687e-002
3.934135e+003,-2.342208e-002
3.936064e+003,-2.364367e-002
3.937992e+003,-2.353845e-002
3.939921e+003,-2.330918e-002
3.941849e+003,-2.326037e-002
3.943778e+003,-2.352392e-002
3.945706e+003,-2.357533e-002
3.947635e+003,-2.348989e-002
3.949563e+003,-2.350926e-002
3.951492e+003,-2.356917e-002
3.953420e+003,-2.365255e-002
3.955349e+003,-2.370646e-002
3.957277e+003,-2.367518e-002
3.959206e+003,-2.370153e-002
3.961134e+003,-2.382607e-002
3.963063e+003,-2.374859e-002
3.964991e+003,-2.354642e-002
3.966920e+003,-2.342334e-002
3.968848e+003,-2.333876e-002
3.970777e+003,-2.349827e-002
3.972705e+003,-2.365171e-002
3.974634e+003,-2.356287e-002
3.976562e+003,-2.345583e-002
3.978491e+003,-2.358543e-002
3.980419e+003,-2.363307e-002
3.982348e+003,-2.357228e-002
3.984276e+003,-2.360360e-002
3.986205e+003,-2.374668e-002
3.988133e+003,-2.376352e-002
3.990062e+003,-2.378244e-002
3.991990e+003,-2.385420e-002
3.993919e+003,-2.395571e-002
3.995847e+003,-2.402215e-002
3.997776e+003,-2.386233e-002
3.999704e+003,-2.385119e-002
4.001633e+003,0.000000e+000
