3.991989e+002,4.736903e-003
4.011274e+002,3.764123e-003
4.030559e+002,-9.853362e-003
4.049844e+002,-1.200470e-002
4.069129e+002,-1.985881e-003
4.088414e+002,8.232926e-003
4.107699e+002,5.915331e-003
4.126984e+002,1.535492e-003
4.146269e+002,5.069190e-003
4.165554e+002,1.088006e-002
4.184839e+002,1.153531e-002
4.204124e+002,1.600034e-002
4.223409e+002,1.694289e-002
4.242694e+002,1.299574e-002
4.261979e+002,8.147974e-003
4.281264e+002,1.517853e-002
4.300549e+002,1.965546e-002
4.319834e+002,1.665152e-002
4.339119e+002,1.893133e-002
4.358404e+002,2.085334e-002
4.377689e+002,2.085504e-002
4.396974e+002,1.792907e-002
4.416259e+002,1.177492e-002
4.435544e+002,1.124898e-002
4.454829e+002,1.096368e-002
4.474114e+002,1.404303e-002
4.493399e+002,1.478843e-002
4.512684e+002,1.321850e-002
4.531969e+002,1.674890e-002
4.551254e+002,1.760253e-002
4.570539e+002,1.398274e-002
4.589824e+002,1.120698e-002
4.609109e+002,1.068940e-002
4.628394e+002,1.205179e-002
4.647679e+002,1.050229e-002
4.666964e+002,1.050341e-002
4.686249e+002,1.346037e-002
4.705533e+002,1.495957e-002
4.724819e+002,1.347756e-002
4.744103e+002,1.340378e-002
4.763389e+002,1.466301e-002
4.782673e+002,1.501907e-002
4.801959e+002,1.441020e-002
4.821243e+002,1.542551e-002
4.840529e+002,1.402733e-002
4.859813e+002,1.291204e-002
4.879099e+002,1.376024e-002
4.898383e+002,1.360722e-002
4.917668e+002,1.314417e-002
4.936953e+002,1.311289e-002
4.956238e+002,1.418782e-002
4.975523e+002,1.422606e-002
4.994808e+002,1.209080e-002
5.014093e+002,1.278661e-002
5.033378e+002,1.495754e-002
5.052663e+002,1.848654e-002
5.071948e+002,1.780937e-002
5.091233e+002,1.266794e-002
5.110518e+002,1.291152e-002
5.129803e+002,1.467402e-002
5.149088e+002,1.454846e-002
5.168373e+002,1.423945e-002
5.187658e+002,1.515231e-002
5.206943e+002,1.409126e-002
5.226228e+002,1.273307e-002
5.245513e+002,1.430971e-002
5.264798e+002,1.433714e-002
5.284083e+002,1.360551e-002
5.303368e+002,1.416848e-002
5.322653e+002,1.416999e-002
5.341938e+002,1.448850e-002
5.361223e+002,1.355748e-002
5.380508e+002,1.332160e-002
5.399792e+002,1.447864e-002
5.419078e+002,1.540701e-002
5.438363e+002,1.565209e-002
5.457648e+002,1.580109e-002
5.476932e+002,1.596641e-002
5.496218e+002,1.570390e-002
5.515503e+002,1.590550e-002
5.534788e+002,1.645694e-002
5.554072e+002,1.682570e-002
5.573358e+002,1.604744e-002
5.592643e+002,1.615307e-002
5.611927e+002,1.632395e-002
5.631212e+002,1.720667e-002
5.650497e+002,1.792392e-002
5.669783e+002,1.801841e-002
5.689067e+002,1.822658e-002
5.708352e+002,1.666801e-002
5.727637e+002,1.645738e-002
5.746923e+002,1.672135e-002
5.766207e+002,1.512765e-002
5.785492e+002,1.388707e-002
5.804777e+002,1.245372e-002
5.824063e+002,1.371670e-002
5.843347e+002,1.635515e-002
5.862632e+002,1.705008e-002
5.881917e+002,1.722649e-002
5.901202e+002,1.790148e-002
5.920487e+002,1.833658e-002
5.939772e+002,1.754881e-002
5.959057e+002,1.744035e-002
5.978342e+002,1.937700e-002
5.997627e+002,2.123298e-002
6.016912e+002,2.242835e-002
6.036197e+002,2.457506e-002
6.055482e+002,2.643711e-002
6.074767e+002,2.721271e-002
6.094052e+002,2.740046e-002
6.113337e+002,2.591612e-002
6.132622e+002,2.455539e-002
6.151907e+002,2.481959e-002
6.171192e+002,2.465435e-002
6.190477e+002,2.460543e-002
6.209762e+002,2.483033e-002
6.229047e+002,2.424080e-002
6.248332e+002,2.180116e-002
6.267617e+002,1.833302e-002
6.286902e+002,1.625188e-002
6.306187e+002,1.575612e-002
6.325472e+002,1.545490e-002
6.344756e+002,1.468467e-002
6.364042e+002,1.412223e-002
6.383326e+002,1.388461e-002
6.402612e+002,1.354045e-002
6.421896e+002,1.373404e-002
6.441182e+002,1.335064e-002
6.460466e+002,1.286784e-002
6.479752e+002,1.291944e-002
6.499036e+002,1.269466e-002
6.518322e+002,1.252735e-002
6.537606e+002,1.294409e-002
6.556891e+002,1.294982e-002
6.576177e+002,1.181240e-002
6.595461e+002,1.144859e-002
6.614746e+002,1.206245e-002
6.634031e+002,1.158043e-002
6.653317e+002,1.158635e-002
6.672601e+002,1.165830e-002
6.691886e+002,1.183760e-002
6.711171e+002,1.174918e-002
6.730457e+002,1.137423e-002
6.749741e+002,1.118900e-002
6.769026e+002,1.157982e-002
6.788311e+002,1.174009e-002
6.807596e+002,1.211622e-002
6.826881e+002,1.224005e-002
6.846166e+002,1.232864e-002
6.865451e+002,1.272867e-002
6.884736e+002,1.351253e-002
6.904021e+002,1.382297e-002
6.923306e+002,1.397740e-002
6.942591e+002,1.387565e-002
6.961876e+002,1.355173e-002
6.981161e+002,1.351201e-002
7.000446e+002,1.360602e-002
7.019731e+002,1.368456e-002
7.039016e+002,1.387229e-002
7.058301e+002,1.369116e-002
7.077585e+002,1.363228e-002
7.096871e+002,1.396433e-002
7.116156e+002,1.461353e-002
7.135441e+002,1.494118e-002
7.154725e+002,1.508720e-002
7.174011e+002,1.511876e-002
7.193296e+002,1.562434e-002
7.212581e+002,1.613732e-002
7.231865e+002,1.624321e-002
7.251151e+002,1.634576e-002
7.270436e+002,1.635502e-002
7.289720e+002,1.624579e-002
7.309005e+002,1.674990e-002
7.328290e+002,1.702365e-002
7.347576e+002,1.725462e-002
7.366860e+002,1.800504e-002
7.386145e+002,1.823553e-002
7.405430e+002,1.789606e-002
7.424716e+002,1.770630e-002
7.444000e+002,1.757320e-002
7.463285e+002,1.768735e-002
7.482570e+002,1.767848e-002
7.501855e+002,1.804500e-002
7.521140e+002,1.852267e-002
7.540425e+002,1.839002e-002
7.559710e+002,1.790497e-002
7.578995e+002,1.773999e-002
7.598280e+002,1.769115e-002
7.617565e+002,1.798363e-002
7.636850e+002,1.824344e-002
7.656135e+002,1.852399e-002
7.675420e+002,1.872531e-002
7.694705e+002,1.905920e-002
7.713990e+002,1.887281e-002
7.733275e+002,1.847292e-002
7.752560e+002,1.799275e-002
7.771844e+002,1.796481e-002
7.791130e+002,1.787755e-002
7.810415e+002,1.748347e-002
7.829700e+002,1.729138e-002
7.848984e+002,1.758549e-002
7.868270e+002,1.739310e-002
7.887555e+002,1.669515e-002
7.906840e+002,1.630210e-002
7.926124e+002,1.620194e-002
7.945410e+002,1.618629e-002
7.964695e+002,1.620538e-002
7.983979e+002,1.590316e-002
8.003264e+002,1.555410e-002
8.022549e+002,1.541099e-002
8.041835e+002,1.561383e-002
8.061119e+002,1.613773e-002
8.080404e+002,1.649252e-002
8.099689e+002,1.630685e-002
8.118975e+002,1.649356e-002
8.138259e+002,1.724728e-002
8.157545e+002,1.794758e-002
8.176830e+002,1.768645e-002
8.196115e+002,1.728938e-002
8.215399e+002,1.723121e-002
8.234684e+002,1.724652e-002
8.253970e+002,1.687830e-002
8.273254e+002,1.660133e-002
8.292539e+002,1.644672e-002
8.311824e+002,1.629096e-002
8.331110e+002,1.612336e-002
8.350394e+002,1.588611e-002
8.369679e+002,1.616486e-002
8.388964e+002,1.621841e-002
8.408250e+002,1.594946e-002
8.427534e+002,1.605937e-002
8.446819e+002,1.646145e-002
8.466104e+002,1.649507e-002
8.485389e+002,1.605926e-002
8.504674e+002,1.590498e-002
8.523959e+002,1.597892e-002
8.543244e+002,1.583814e-002
8.562529e+002,1.582917e-002
8.581814e+002,1.596022e-002
8.601099e+002,1.629540e-002
8.620384e+002,1.634315e-002
8.639669e+002,1.611328e-002
8.658954e+002,1.628167e-002
8.678239e+002,1.643650e-002
8.697524e+002,1.601821e-002
8.716809e+002,1.575835e-002
8.736094e+002,1.586127e-002
8.755378e+002,1.570568e-002
8.774664e+002,1.566429e-002
8.793949e+002,1.608684e-002
8.813234e+002,1.629643e-002
8.832518e+002,1.643946e-002
8.851804e+002,1.626519e-002
8.871089e+002,1.620528e-002
8.890374e+002,1.630283e-002
8.909658e+002,1.622199e-002
8.928943e+002,1.688453e-002
8.948229e+002,1.720384e-002
8.967513e+002,1.708782e-002
8.986798e+002,1.700990e-002
9.006083e+002,1.698461e-002
9.025369e+002,1.696628e-002
9.044653e+002,1.691492e-002
9.063938e+002,1.666912e-002
9.083223e+002,1.664178e-002
9.102509e+002,1.648998e-002
9.121793e+002,1.622976e-002
9.141078e+002,1.581457e-002
9.160364e+002,1.562382e-002
9.179648e+002,1.539784e-002
9.198933e+002,1.524551e-002
9.218218e+002,1.500916e-002
9.237504e+002,1.498412e-002
9.256788e+002,1.458793e-002
9.276073e+002,1.422281e-002
9.295358e+002,1.434118e-002
9.314644e+002,1.441938e-002
9.333928e+002,1.449337e-002
9.353213e+002,1.434375e-002
9.372498e+002,1.415708e-002
9.391783e+002,1.407873e-002
9.411068e+002,1.409334e-002
9.430353e+002,1.416701e-002
9.449637e+002,1.410375e-002
9.468923e+002,1.394438e-002
9.488208e+002,1.411128e-002
9.507493e+002,1.438077e-002
9.526777e+002,1.436286e-002
9.546063e+002,1.432937e-002
9.565348e+002,1.457577e-002
9.584633e+002,1.477462e-002
9.603917e+002,1.477379e-002
9.623203e+002,1.466113e-002
9.642488e+002,1.469369e-002
9.661772e+002,1.483900e-002
9.681057e+002,1.499208e-002
9.700343e+002,1.471720e-002
9.719628e+002,1.445288e-002
9.738912e+002,1.429331e-002
9.758197e+002,1.405399e-002
9.777483e+002,1.398654e-002
9.796768e+002,1.399519e-002
9.816052e+002,1.392768e-002
9.835337e+002,1.360876e-002
9.854623e+002,1.326085e-002
9.873907e+002,1.306386e-002
9.893192e+002,1.295034e-002
9.912477e+002,1.273823e-002
9.931763e+002,1.258280e-002
9.951047e+002,1.243749e-002
9.970332e+002,1.245154e-002
9.989617e+002,1.232836e-002
1.000890e+003,1.217533e-002
1.002819e+003,1.224414e-002
1.004747e+003,1.233958e-002
1.006676e+003,1.237527e-002
1.008604e+003,1.233856e-002
1.010533e+003,1.214951e-002
1.012461e+003,1.230788e-002
1.014390e+003,1.249832e-002
1.016318e+003,1.258731e-002
1.018247e+003,1.279108e-002
1.020175e+003,1.282449e-002
1.022104e+003,1.284231e-002
1.024032e+003,1.324787e-002
1.025961e+003,1.359105e-002
1.027889e+003,1.365717e-002
1.029818e+003,1.385499e-002
1.031746e+003,1.417512e-002
1.033675e+003,1.437899e-002
1.035603e+003,1.478250e-002
1.037532e+003,1.498320e-002
1.039460e+003,1.497339e-002
1.041389e+003,1.518570e-002
1.043317e+003,1.542689e-002
1.045246e+003,1.534051e-002
1.047174e+003,1.539235e-002
1.049103e+003,1.556527e-002
1.051031e+003,1.559343e-002
1.052960e+003,1.566649e-002
1.054888e+003,1.580391e-002
1.056817e+003,1.565632e-002
1.058745e+003,1.543935e-002
1.060674e+003,1.546517e-002
1.062602e+003,1.573547e-002
1.064531e+003,1.575653e-002
1.066459e+003,1.553044e-002
1.068388e+003,1.538624e-002
1.070316e+003,1.539966e-002
1.072245e+003,1.557076e-002
1.074173e+003,1.561393e-002
1.076102e+003,1.539740e-002
1.078030e+003,1.533571e-002
1.079959e+003,1.545236e-002
1.081887e+003,1.580364e-002
1.083816e+003,1.601948e-002
1.085744e+003,1.615389e-002
1.087673e+003,1.624559e-002
1.089601e+003,1.607439e-002
1.091530e+003,1.611187e-002
1.093458e+003,1.664577e-002
1.095387e+003,1.693197e-002
1.097315e+003,1.714228e-002
1.099244e+003,1.724859e-002
1.101172e+003,1.745370e-002
1.103101e+003,1.770109e-002
1.105029e+003,1.758624e-002
1.106958e+003,1.738938e-002
1.108886e+003,1.743856e-002
1.110815e+003,1.765332e-002
1.112743e+003,1.788097e-002
1.114672e+003,1.790096e-002
1.116600e+003,1.784296e-002
1.118529e+003,1.774896e-002
1.120457e+003,1.770250e-002
1.122386e+003,1.783329e-002
1.124314e+003,1.796488e-002
1.126243e+003,1.765847e-002
1.128171e+003,1.769463e-002
1.130100e+003,1.761378e-002
1.132028e+003,1.744853e-002
1.133957e+003,1.738934e-002
1.135885e+003,1.713886e-002
1.137814e+003,1.677280e-002
1.139742e+003,1.649882e-002
1.141671e+003,1.627943e-002
1.143599e+003,1.609946e-002
1.145528e+003,1.571864e-002
1.147456e+003,1.519407e-002
1.149385e+003,1.490789e-002
1.151313e+003,1.470167e-002
1.153242e+003,1.454233e-002
1.155170e+003,1.432971e-002
1.157099e+003,1.405843e-002
1.159027e+003,1.384325e-002
1.160956e+003,1.397565e-002
1.162884e+003,1.403414e-002
1.164813e+003,1.388198e-002
1.166741e+003,1.369595e-002
1.168670e+003,1.373691e-002
1.170598e+003,1.384992e-002
1.172526e+003,1.389953e-002
1.174455e+003,1.399358e-002
1.176384e+003,1.394004e-002
1.178312e+003,1.381513e-002
1.180240e+003,1.380446e-002
1.182169e+003,1.363676e-002
1.184098e+003,1.346334e-002
1.186026e+003,1.348511e-002
1.187954e+003,1.336629e-002
1.189883e+003,1.292450e-002
1.191812e+003,1.262745e-002
1.193740e+003,1.267020e-002
1.195668e+003,1.260398e-002
1.197597e+003,1.258512e-002
1.199526e+003,1.255354e-002
1.201454e+003,1.242358e-002
1.203382e+003,1.239852e-002
1.205311e+003,1.235993e-002
1.207240e+003,1.238870e-002
1.209168e+003,1.247340e-002
1.211096e+003,1.240940e-002
1.213025e+003,1.240684e-002
1.214953e+003,1.246637e-002
1.216882e+003,1.248557e-002
1.218810e+003,1.240254e-002
1.220739e+003,1.228340e-002
1.222667e+003,1.248704e-002
1.224596e+003,1.276993e-002
1.226524e+003,1.273505e-002
1.228453e+003,1.270083e-002
1.230381e+003,1.298615e-002
1.232310e+003,1.316228e-002
1.234238e+003,1.324849e-002
1.236167e+003,1.327428e-002
1.238095e+003,1.335590e-002
1.240024e+003,1.351909e-002
1.241952e+003,1.369369e-002
1.243881e+003,1.365594e-002
1.245809e+003,1.371910e-002
1.247738e+003,1.380032e-002
1.249666e+003,1.384270e-002
1.251595e+003,1.385105e-002
1.253523e+003,1.392519e-002
1.255452e+003,1.393442e-002
1.257380e+003,1.394777e-002
1.259309e+003,1.400156e-002
1.261237e+003,1.421720e-002
1.263166e+003,1.448306e-002
1.265094e+003,1.459568e-002
1.267023e+003,1.484342e-002
1.268951e+003,1.527142e-002
1.270880e+003,1.553240e-002
1.272808e+003,1.568047e-002
1.274737e+003,1.593881e-002
1.276665e+003,1.621742e-002
1.278594e+003,1.647583e-002
1.280522e+003,1.665021e-002
1.282451e+003,1.681227e-002
1.284379e+003,1.696938e-002
1.286308e+003,1.733941e-002
1.288236e+003,1.750051e-002
1.290165e+003,1.769795e-002
1.292093e+003,1.803170e-002
1.294022e+003,1.811191e-002
1.295950e+003,1.818598e-002
1.297879e+003,1.833426e-002
1.299807e+003,1.838290e-002
1.301736e+003,1.823729e-002
1.303664e+003,1.814805e-002
1.305593e+003,1.814276e-002
1.307521e+003,1.795866e-002
1.309450e+003,1.766230e-002
1.311378e+003,1.747761e-002
1.313307e+003,1.719609e-002
1.315235e+003,1.702427e-002
1.317164e+003,1.711198e-002
1.319092e+003,1.682132e-002
1.321021e+003,1.621587e-002
1.322949e+003,1.583666e-002
1.324878e+003,1.564182e-002
1.326806e+003,1.553584e-002
1.328735e+003,1.553408e-002
1.330663e+003,1.538239e-002
1.332592e+003,1.534038e-002
1.334520e+003,1.532143e-002
1.336449e+003,1.528337e-002
1.338377e+003,1.514490e-002
1.340306e+003,1.506833e-002
1.342234e+003,1.519874e-002
1.344163e+003,1.524390e-002
1.346091e+003,1.509440e-002
1.348020e+003,1.505087e-002
1.349948e+003,1.509852e-002
1.351877e+003,1.507468e-002
1.353805e+003,1.509289e-002
1.355734e+003,1.500865e-002
1.357662e+003,1.483139e-002
1.359591e+003,1.469886e-002
1.361519e+003,1.463868e-002
1.363448e+003,1.459016e-002
1.365376e+003,1.447134e-002
1.367305e+003,1.446719e-002
1.369233e+003,1.449936e-002
1.371162e+003,1.439471e-002
1.373090e+003,1.427732e-002
1.375019e+003,1.424842e-002
1.376947e+003,1.433872e-002
1.378876e+003,1.450505e-002
1.380804e+003,1.464965e-002
1.382733e+003,1.453081e-002
1.384661e+003,1.434064e-002
1.386590e+003,1.416738e-002
1.388518e+003,1.411392e-002
1.390447e+003,1.417279e-002
1.392375e+003,1.401083e-002
1.394304e+003,1.381048e-002
1.396232e+003,1.365953e-002
1.398161e+003,1.364767e-002
1.400089e+003,1.365987e-002
1.402018e+003,1.361891e-002
1.403946e+003,1.350309e-002
1.405875e+003,1.340630e-002
1.407803e+003,1.336574e-002
1.409732e+003,1.324791e-002
1.411660e+003,1.321218e-002
1.413589e+003,1.331722e-002
1.415517e+003,1.339349e-002
1.417446e+003,1.348190e-002
1.419374e+003,1.368918e-002
1.421303e+003,1.412014e-002
1.423231e+003,1.453157e-002
1.425160e+003,1.507807e-002
1.427088e+003,1.559868e-002
1.429017e+003,1.597610e-002
1.430945e+003,1.633159e-002
1.432874e+003,1.664691e-002
1.434802e+003,1.687892e-002
1.436731e+003,1.712614e-002
1.438659e+003,1.766192e-002
1.440588e+003,1.816269e-002
1.442516e+003,1.851047e-002
1.444445e+003,1.886039e-002
1.446373e+003,1.930750e-002
1.448302e+003,1.966909e-002
1.450230e+003,2.003344e-002
1.452159e+003,2.050657e-002
1.454087e+003,2.094561e-002
1.456016e+003,2.085024e-002
1.457944e+003,2.094815e-002
1.459873e+003,2.139422e-002
1.461801e+003,2.154082e-002
1.463730e+003,2.134455e-002
1.465658e+003,2.115185e-002
1.467587e+003,2.100146e-002
1.469515e+003,2.065384e-002
1.471444e+003,2.020798e-002
1.473372e+003,1.995548e-002
1.475301e+003,1.975757e-002
1.477229e+003,1.928336e-002
1.479158e+003,1.880665e-002
1.481086e+003,1.816404e-002
1.483015e+003,1.762082e-002
1.484943e+003,1.715558e-002
1.486872e+003,1.677256e-002
1.488800e+003,1.638966e-002
1.490729e+003,1.596225e-002
1.492657e+003,1.565831e-002
1.494586e+003,1.534268e-002
1.496514e+003,1.502460e-002
1.498443e+003,1.473804e-002
1.500371e+003,1.445459e-002
1.502300e+003,1.431732e-002
1.504228e+003,1.405197e-002
1.506157e+003,1.360821e-002
1.508085e+003,1.353064e-002
1.510014e+003,1.350685e-002
1.511942e+003,1.353491e-002
1.513871e+003,1.354657e-002
1.515799e+003,1.335785e-002
1.517728e+003,1.328894e-002
1.519656e+003,1.314151e-002
1.521585e+003,1.295539e-002
1.523513e+003,1.323619e-002
1.525442e+003,1.349653e-002
1.527370e+003,1.360270e-002
1.529299e+003,1.362219e-002
1.531227e+003,1.371578e-002
1.533156e+003,1.385143e-002
1.535084e+003,1.406418e-002
1.537013e+003,1.415526e-002
1.538941e+003,1.396015e-002
1.540870e+003,1.402928e-002
1.542798e+003,1.429180e-002
1.544727e+003,1.456600e-002
1.546655e+003,1.476845e-002
1.548584e+003,1.490336e-002
1.550512e+003,1.495213e-002
1.552441e+003,1.496787e-002
1.554369e+003,1.495086e-002
1.556298e+003,1.497387e-002
1.558226e+003,1.481246e-002
1.560155e+003,1.506960e-002
1.562083e+003,1.571510e-002
1.564012e+003,1.616923e-002
1.565940e+003,1.648468e-002
1.567869e+003,1.663049e-002
1.569797e+003,1.669508e-002
1.571726e+003,1.688918e-002
1.573654e+003,1.697610e-002
1.575583e+003,1.697652e-002
1.577511e+003,1.712335e-002
1.579440e+003,1.715813e-002
1.581368e+003,1.714565e-002
1.583297e+003,1.702872e-002
1.585225e+003,1.687285e-002
1.587154e+003,1.687303e-002
1.589082e+003,1.675561e-002
1.591010e+003,1.644906e-002
1.592939e+003,1.626440e-002
1.594868e+003,1.616301e-002
1.596796e+003,1.589041e-002
1.598724e+003,1.560250e-002
1.600653e+003,1.528275e-002
1.602582e+003,1.495579e-002
1.604510e+003,1.468461e-002
1.606438e+003,1.450176e-002
1.608367e+003,1.426153e-002
1.610296e+003,1.409885e-002
1.612224e+003,1.388485e-002
1.614152e+003,1.356216e-002
1.616081e+003,1.321593e-002
1.618010e+003,1.330366e-002
1.619938e+003,1.324203e-002
1.621866e+003,1.293020e-002
1.623795e+003,1.273812e-002
1.625724e+003,1.277443e-002
1.627652e+003,1.267197e-002
1.629580e+003,1.253597e-002
1.631509e+003,1.243927e-002
1.633438e+003,1.223927e-002
1.635366e+003,1.194582e-002
1.637294e+003,1.187935e-002
1.639223e+003,1.169029e-002
1.641151e+003,1.143923e-002
1.643080e+003,1.112896e-002
1.645008e+003,1.062247e-002
1.646937e+003,1.038906e-002
1.648865e+003,1.045677e-002
1.650794e+003,1.020938e-002
1.652722e+003,9.703889e-003
1.654651e+003,9.550563e-003
1.656579e+003,9.639991e-003
1.658508e+003,9.539454e-003
1.660436e+003,9.477646e-003
1.662365e+003,9.416828e-003
1.664293e+003,9.399052e-003
1.666222e+003,9.473683e-003
1.668150e+003,9.331339e-003
1.670079e+003,9.122648e-003
1.672007e+003,9.097677e-003
1.673936e+003,8.978897e-003
1.675864e+003,8.862955e-003
1.677793e+003,8.933268e-003
1.679721e+003,8.977577e-003
1.681650e+003,8.758811e-003
1.683578e+003,8.490889e-003
1.685507e+003,8.612679e-003
1.687435e+003,8.590914e-003
1.689364e+003,8.495992e-003
1.691292e+003,8.540899e-003
1.693221e+003,8.527889e-003
1.695149e+003,8.450278e-003
1.697078e+003,8.641509e-003
1.699006e+003,8.473151e-003
1.700935e+003,8.433183e-003
1.702863e+003,8.843038e-003
1.704792e+003,8.987353e-003
1.706720e+003,9.149008e-003
1.708649e+003,9.180581e-003
1.710577e+003,9.106576e-003
1.712506e+003,9.129314e-003
1.714434e+003,9.102515e-003
1.716363e+003,8.934215e-003
1.718291e+003,8.845473e-003
1.720220e+003,9.102007e-003
1.722148e+003,9.212732e-003
1.724077e+003,9.288415e-003
1.726005e+003,9.343900e-003
1.727934e+003,9.329985e-003
1.729862e+003,9.333676e-003
1.731791e+003,9.197266e-003
1.733719e+003,8.980182e-003
1.735648e+003,9.040668e-003
1.737576e+003,9.108030e-003
1.739505e+003,9.206742e-003
1.741433e+003,9.400203e-003
1.743362e+003,9.416693e-003
1.745290e+003,9.424447e-003
1.747219e+003,9.404131e-003
1.749147e+003,9.365905e-003
1.751076e+003,9.330662e-003
1.753004e+003,9.432269e-003
1.754933e+003,9.520927e-003
1.756861e+003,9.596020e-003
1.758790e+003,9.632064e-003
1.760718e+003,9.529666e-003
1.762647e+003,9.542807e-003
1.764575e+003,9.598832e-003
1.766504e+003,9.598256e-003
1.768432e+003,9.634368e-003
1.770361e+003,9.571902e-003
1.772289e+003,9.462305e-003
1.774218e+003,9.489059e-003
1.776146e+003,9.550292e-003
1.778075e+003,9.627965e-003
1.780003e+003,9.623121e-003
1.781932e+003,9.625119e-003
1.783860e+003,9.635790e-003
1.785789e+003,9.620716e-003
1.787717e+003,9.612856e-003
1.789646e+003,9.656084e-003
1.791574e+003,9.582302e-003
1.793503e+003,9.507515e-003
1.795431e+003,9.566788e-003
1.797360e+003,9.624848e-003
1.799288e+003,9.669906e-003
1.801217e+003,9.670516e-003
1.803145e+003,9.766306e-003
1.805074e+003,9.829273e-003
1.807002e+003,9.817072e-003
1.808931e+003,9.769661e-003
1.810859e+003,9.831002e-003
1.812788e+003,9.919438e-003
1.814716e+003,9.932149e-003
1.816645e+003,9.935371e-003
1.818573e+003,9.882285e-003
1.820502e+003,9.908047e-003
1.822430e+003,9.933743e-003
1.824359e+003,9.855779e-003
1.826287e+003,9.828291e-003
1.828216e+003,9.791146e-003
1.830144e+003,9.752175e-003
1.832073e+003,9.948456e-003
1.834001e+003,1.003630e-002
1.835930e+003,9.914318e-003
1.837858e+003,9.803313e-003
1.839787e+003,9.786876e-003
1.841715e+003,9.806464e-003
1.843644e+003,9.736893e-003
1.845572e+003,9.704839e-003
1.847501e+003,9.736554e-003
1.849429e+003,9.801212e-003
1.851358e+003,9.889335e-003
1.853286e+003,9.920658e-003
1.855215e+003,9.849779e-003
1.857143e+003,9.791994e-003
1.859072e+003,9.801415e-003
1.861000e+003,9.856050e-003
1.862929e+003,9.941167e-003
1.864857e+003,1.002640e-002
1.866786e+003,9.955609e-003
1.868714e+003,9.816768e-003
1.870643e+003,9.907844e-003
1.872571e+003,1.001576e-002
1.874500e+003,1.010230e-002
1.876428e+003,1.007673e-002
1.878357e+003,1.001389e-002
1.880285e+003,9.991514e-003
1.882214e+003,1.000277e-002
1.884142e+003,9.994395e-003
1.886071e+003,1.001806e-002
1.887999e+003,1.002016e-002
1.889928e+003,1.002759e-002
1.891856e+003,1.006665e-002
1.893785e+003,1.008632e-002
1.895713e+003,1.008256e-002
1.897642e+003,1.009277e-002
1.899570e+003,1.011600e-002
1.901499e+003,1.016504e-002
1.903427e+003,1.009938e-002
1.905356e+003,9.980393e-003
1.907284e+003,9.999787e-003
1.909213e+003,1.011749e-002
1.911141e+003,1.013909e-002
1.913070e+003,1.013808e-002
1.914998e+003,1.004926e-002
1.916927e+003,9.966560e-003
1.918855e+003,9.991073e-003
1.920784e+003,9.991615e-003
1.922712e+003,9.955745e-003
1.924641e+003,1.007791e-002
1.926569e+003,1.006211e-002
1.928498e+003,9.997311e-003
1.930426e+003,1.004437e-002
1.932355e+003,1.008568e-002
1.934283e+003,1.004634e-002
1.936212e+003,1.001799e-002
1.938140e+003,1.002227e-002
1.940069e+003,1.001240e-002
1.941997e+003,9.929607e-003
1.943926e+003,9.933811e-003
1.945854e+003,9.996125e-003
1.947783e+003,9.897267e-003
1.949711e+003,9.880115e-003
1.951640e+003,9.955915e-003
1.953568e+003,9.970290e-003
1.955497e+003,9.992124e-003
1.957425e+003,1.006866e-002
1.959354e+003,1.005607e-002
1.961282e+003,1.000226e-002
1.963211e+003,1.001026e-002
1.965139e+003,1.004010e-002
1.967068e+003,1.006794e-002
1.968996e+003,1.009711e-002
1.970925e+003,1.011464e-002
1.972853e+003,1.011003e-002
1.974782e+003,1.006204e-002
1.976710e+003,9.952355e-003
1.978639e+003,9.909979e-003
1.980567e+003,9.934964e-003
1.982496e+003,9.917743e-003
1.984424e+003,9.807820e-003
1.986353e+003,9.822834e-003
1.988281e+003,9.917979e-003
1.990210e+003,9.967204e-003
1.992138e+003,9.989106e-003
1.994067e+003,1.002020e-002
1.995995e+003,1.005462e-002
1.997924e+003,1.007299e-002
1.999852e+003,1.005133e-002
2.001781e+003,9.990191e-003
2.003709e+003,9.976596e-003
2.005638e+003,1.001426e-002
2.007566e+003,9.975375e-003
2.009495e+003,9.888353e-003
2.011423e+003,9.920522e-003
2.013352e+003,1.001125e-002
2.015280e+003,1.001565e-002
2.017208e+003,9.983173e-003
2.019137e+003,9.878658e-003
2.021066e+003,9.909979e-003
2.022994e+003,1.002152e-002
2.024922e+003,1.007923e-002
2.026851e+003,1.011227e-002
2.028780e+003,1.006028e-002
2.030708e+003,1.005346e-002
2.032636e+003,1.010911e-002
2.034565e+003,1.010464e-002
2.036494e+003,1.006272e-002
2.038422e+003,1.006360e-002
2.040350e+003,1.007228e-002
2.042279e+003,1.008907e-002
2.044208e+003,1.009578e-002
2.046136e+003,1.011237e-002
2.048064e+003,1.011752e-002
2.049993e+003,1.011813e-002
2.051921e+003,1.005363e-002
2.053850e+003,1.000311e-002
2.055778e+003,1.000701e-002
2.057707e+003,1.002556e-002
2.059635e+003,1.016094e-002
2.061564e+003,1.023811e-002
2.063492e+003,1.019682e-002
2.065421e+003,1.013224e-002
2.067349e+003,1.017722e-002
2.069278e+003,1.017050e-002
2.071206e+003,1.011566e-002
2.073135e+003,1.016904e-002
2.075063e+003,1.021270e-002
2.076992e+003,1.014143e-002
2.078920e+003,1.019038e-002
2.080849e+003,1.028449e-002
2.082777e+003,1.025650e-002
2.084706e+003,1.028778e-002
2.086634e+003,1.029161e-002
2.088563e+003,1.026871e-002
2.090491e+003,1.033273e-002
2.092420e+003,1.037977e-002
2.094348e+003,1.034763e-002
2.096277e+003,1.031044e-002
2.098205e+003,1.035255e-002
2.100134e+003,1.032259e-002
2.102062e+003,1.029147e-002
2.103991e+003,1.033161e-002
2.105919e+003,1.037563e-002
2.107848e+003,1.035214e-002
2.109776e+003,1.029826e-002
2.111705e+003,1.035184e-002
2.113633e+003,1.045399e-002
2.115562e+003,1.051668e-002
2.117490e+003,1.054700e-002
2.119419e+003,1.048837e-002
2.121347e+003,1.045396e-002
2.123276e+003,1.050426e-002
2.125204e+003,1.051322e-002
2.127133e+003,1.054924e-002
2.129061e+003,1.060529e-002
2.130990e+003,1.060719e-002
2.132918e+003,1.067072e-002
2.134847e+003,1.069762e-002
2.136775e+003,1.063286e-002
2.138704e+003,1.061561e-002
2.140632e+003,1.067898e-002
2.142561e+003,1.063711e-002
2.144489e+003,1.054686e-002
2.146418e+003,1.060553e-002
2.148346e+003,1.067303e-002
2.150275e+003,1.068651e-002
2.152203e+003,1.075644e-002
2.154132e+003,1.074619e-002
2.156060e+003,1.068913e-002
2.157989e+003,1.055905e-002
2.159917e+003,1.056937e-002
2.161846e+003,1.073525e-002
2.163774e+003,1.082866e-002
2.165703e+003,1.079945e-002
2.167631e+003,1.074700e-002
2.169560e+003,1.080233e-002
2.171488e+003,1.093225e-002
2.173417e+003,1.088553e-002
2.175345e+003,1.085298e-002
2.177274e+003,1.083090e-002
2.179202e+003,1.077767e-002
2.181131e+003,1.082261e-002
2.183059e+003,1.084075e-002
2.184988e+003,1.076436e-002
2.186916e+003,1.068444e-002
2.188845e+003,1.076677e-002
2.190773e+003,1.091302e-002
2.192702e+003,1.088393e-002
2.194630e+003,1.072988e-002
2.196559e+003,1.071321e-002
2.198487e+003,1.074445e-002
2.200416e+003,1.077394e-002
2.202344e+003,1.076001e-002
2.204273e+003,1.075396e-002
2.206201e+003,1.078331e-002
2.208130e+003,1.079761e-002
2.210058e+003,1.074612e-002
2.211987e+003,1.066590e-002
2.213915e+003,1.065127e-002
2.215844e+003,1.061330e-002
2.217772e+003,1.067198e-002
2.219701e+003,1.080763e-002
2.221629e+003,1.073668e-002
2.223558e+003,1.063446e-002
2.225486e+003,1.063062e-002
2.227415e+003,1.065751e-002
2.229343e+003,1.065052e-002
2.231272e+003,1.072132e-002
2.233200e+003,1.064037e-002
2.235129e+003,1.069847e-002
2.237057e+003,1.085862e-002
2.238986e+003,1.081782e-002
2.240914e+003,1.066930e-002
2.242843e+003,1.066733e-002
2.244771e+003,1.071997e-002
2.246700e+003,1.069229e-002
2.248628e+003,1.066926e-002
2.250557e+003,1.064166e-002
2.252485e+003,1.065269e-002
2.254414e+003,1.066909e-002
2.256342e+003,1.066621e-002
2.258271e+003,1.059595e-002
2.260199e+003,1.057056e-002
2.262128e+003,1.054937e-002
2.264056e+003,1.062077e-002
2.265985e+003,1.067144e-002
2.267913e+003,1.055467e-002
2.269842e+003,1.059843e-002
2.271770e+003,1.065945e-002
2.273699e+003,1.062074e-002
2.275627e+003,1.069694e-002
2.277556e+003,1.063069e-002
2.279484e+003,1.055606e-002
2.281413e+003,1.054140e-002
2.283341e+003,1.048691e-002
2.285270e+003,1.047996e-002
2.287198e+003,1.060645e-002
2.289127e+003,1.066926e-002
2.291055e+003,1.061208e-002
2.292984e+003,1.052619e-002
2.294912e+003,1.047154e-002
2.296841e+003,1.049625e-002
2.298769e+003,1.053152e-002
2.300698e+003,1.062987e-002
2.302626e+003,1.067045e-002
2.304555e+003,1.062852e-002
2.306483e+003,1.058265e-002
2.308412e+003,1.060451e-002
2.310340e+003,1.054618e-002
2.312269e+003,1.043342e-002
2.314197e+003,1.044666e-002
2.316125e+003,1.048169e-002
2.318054e+003,1.035638e-002
2.319983e+003,1.019655e-002
2.321911e+003,1.024482e-002
2.323840e+003,1.028014e-002
2.325768e+003,1.025029e-002
2.327697e+003,1.022294e-002
2.329625e+003,1.019859e-002
2.331553e+003,1.015975e-002
2.333482e+003,1.017973e-002
2.335411e+003,1.014238e-002
2.337339e+003,1.016579e-002
2.339268e+003,1.031295e-002
2.341196e+003,1.035241e-002
2.343125e+003,1.022973e-002
2.345053e+003,1.011562e-002
2.346981e+003,1.026783e-002
2.348910e+003,1.040702e-002
2.350839e+003,1.035859e-002
2.352767e+003,1.022125e-002
2.354696e+003,9.999651e-003
2.356624e+003,9.974290e-003
2.358552e+003,1.004048e-002
2.360481e+003,1.002742e-002
2.362409e+003,9.988699e-003
2.364338e+003,9.960695e-003
2.366267e+003,1.005933e-002
2.368195e+003,1.016891e-002
2.370124e+003,1.027098e-002
2.372052e+003,1.040400e-002
2.373980e+003,1.059337e-002
2.375909e+003,1.064926e-002
2.377838e+003,1.068984e-002
2.379766e+003,1.082129e-002
2.381695e+003,1.085094e-002
2.383623e+003,1.086538e-002
2.385552e+003,1.101176e-002
2.387480e+003,1.106319e-002
2.389408e+003,1.108035e-002
2.391337e+003,1.109177e-002
2.393266e+003,1.106057e-002
2.395194e+003,1.103263e-002
2.397123e+003,1.104079e-002
2.399051e+003,1.096782e-002
2.400979e+003,1.090751e-002
2.402908e+003,1.099657e-002
2.404836e+003,1.110482e-002
2.406765e+003,1.105357e-002
2.408694e+003,1.098685e-002
2.410622e+003,1.105330e-002
2.412551e+003,1.108385e-002
2.414479e+003,1.104310e-002
2.416407e+003,1.104942e-002
2.418336e+003,1.107260e-002
2.420264e+003,1.104181e-002
2.422193e+003,1.106971e-002
2.424122e+003,1.122041e-002
2.426050e+003,1.133780e-002
2.427979e+003,1.131063e-002
2.429907e+003,1.131471e-002
2.431835e+003,1.139807e-002
2.433764e+003,1.143321e-002
2.435692e+003,1.142617e-002
2.437621e+003,1.143920e-002
2.439550e+003,1.149605e-002
2.441478e+003,1.152745e-002
2.443406e+003,1.152330e-002
2.445335e+003,1.146050e-002
2.447263e+003,1.143246e-002
2.449192e+003,1.139760e-002
2.451121e+003,1.147278e-002
2.453049e+003,1.154834e-002
2.454978e+003,1.158448e-002
2.456906e+003,1.153259e-002
2.458834e+003,1.147250e-002
2.460763e+003,1.156760e-002
2.462691e+003,1.157754e-002
2.464620e+003,1.159211e-002
2.466549e+003,1.169625e-002
2.468477e+003,1.164935e-002
2.470406e+003,1.164336e-002
2.472334e+003,1.166834e-002
2.474262e+003,1.166630e-002
2.476191e+003,1.172491e-002
2.478119e+003,1.178622e-002
2.480048e+003,1.178088e-002
2.481977e+003,1.176988e-002
2.483905e+003,1.176712e-002
2.485833e+003,1.177397e-002
2.487762e+003,1.181326e-002
2.489690e+003,1.187431e-002
2.491619e+003,1.189069e-002
2.493547e+003,1.199974e-002
2.495476e+003,1.203248e-002
2.497405e+003,1.194906e-002
2.499333e+003,1.195761e-002
2.501261e+003,1.217090e-002
2.503190e+003,1.216576e-002
2.505118e+003,1.198847e-002
2.507047e+003,1.193046e-002
2.508975e+003,1.206746e-002
2.510904e+003,1.214824e-002
2.512833e+003,1.217963e-002
2.514761e+003,1.223017e-002
2.516689e+003,1.219483e-002
2.518618e+003,1.212780e-002
2.520546e+003,1.222022e-002
2.522475e+003,1.222768e-002
2.524403e+003,1.209356e-002
2.526332e+003,1.207755e-002
2.528260e+003,1.220106e-002
2.530189e+003,1.226462e-002
2.532117e+003,1.230426e-002
2.534046e+003,1.224111e-002
2.535974e+003,1.223916e-002
2.537903e+003,1.230188e-002
2.539831e+003,1.233051e-002
2.541760e+003,1.230031e-002
2.543688e+003,1.222867e-002
2.545617e+003,1.225672e-002
2.547545e+003,1.239787e-002
2.549474e+003,1.240527e-002
2.551402e+003,1.233382e-002
2.553331e+003,1.235369e-002
2.555259e+003,1.237340e-002
2.557188e+003,1.235223e-002
2.559116e+003,1.237326e-002
2.561045e+003,1.241837e-002
2.562973e+003,1.245052e-002
2.564902e+003,1.235284e-002
2.566830e+003,1.232509e-002
2.568759e+003,1.234871e-002
2.570687e+003,1.234360e-002
2.572616e+003,1.235870e-002
2.574544e+003,1.239467e-002
2.576473e+003,1.242832e-002
2.578401e+003,1.244748e-002
2.580330e+003,1.241523e-002
2.582258e+003,1.242911e-002
2.584187e+003,1.247780e-002
2.586115e+003,1.247353e-002
2.588044e+003,1.250259e-002
2.589972e+003,1.262384e-002
2.591901e+003,1.256326e-002
2.593829e+003,1.252070e-002
2.595758e+003,1.260576e-002
2.597686e+003,1.266477e-002
2.599615e+003,1.275327e-002
2.601543e+003,1.274665e-002
2.603472e+003,1.258352e-002
2.605400e+003,1.255998e-002
2.607329e+003,1.261231e-002
2.609257e+003,1.262936e-002
2.611186e+003,1.260702e-002
2.613114e+003,1.267235e-002
2.615043e+003,1.277938e-002
2.616971e+003,1.285999e-002
2.618900e+003,1.280071e-002
2.620828e+003,1.276689e-002
2.622757e+003,1.287910e-002
2.624685e+003,1.298642e-002
2.626614e+003,1.294904e-002
2.628542e+003,1.278125e-002
2.630471e+003,1.268313e-002
2.632399e+003,1.276552e-002
2.634328e+003,1.280504e-002
2.636256e+003,1.279060e-002
2.638185e+003,1.283217e-002
2.640113e+003,1.294999e-002
2.642042e+003,1.302859e-002
2.643970e+003,1.304972e-002
2.645899e+003,1.313854e-002
2.647827e+003,1.323008e-002
2.649756e+003,1.322205e-002
2.651684e+003,1.315203e-002
2.653613e+003,1.320422e-002
2.655541e+003,1.336943e-002
2.657470e+003,1.344523e-002
2.659398e+003,1.344485e-002
2.661327e+003,1.341133e-002
2.663255e+003,1.333707e-002
2.665184e+003,1.328337e-002
2.667112e+003,1.340268e-002
2.669041e+003,1.345189e-002
2.670969e+003,1.342865e-002
2.672898e+003,1.351772e-002
2.674826e+003,1.367146e-002
2.676755e+003,1.372754e-002
2.678683e+003,1.362999e-002
2.680612e+003,1.362165e-002
2.682540e+003,1.371886e-002
2.684469e+003,1.369266e-002
2.686397e+003,1.370894e-002
2.688326e+003,1.374598e-002
2.690254e+003,1.380884e-002
2.692183e+003,1.388194e-002
2.694111e+003,1.395783e-002
2.696040e+003,1.405778e-002
2.697968e+003,1.414260e-002
2.699897e+003,1.411607e-002
2.701825e+003,1.405501e-002
2.703754e+003,1.411107e-002
2.705682e+003,1.420497e-002
2.707611e+003,1.428071e-002
2.709539e+003,1.432944e-002
2.711468e+003,1.438434e-002
2.713396e+003,1.452900e-002
2.715325e+003,1.458954e-002
2.717253e+003,1.458701e-002
2.719182e+003,1.459040e-002
2.721110e+003,1.467741e-002
2.723039e+003,1.481973e-002
2.724967e+003,1.498570e-002
2.726896e+003,1.503571e-002
2.728824e+003,1.503437e-002
2.730753e+003,1.502374e-002
2.732681e+003,1.506634e-002
2.734610e+003,1.511231e-002
2.736538e+003,1.515043e-002
2.738467e+003,1.528168e-002
2.740395e+003,1.544062e-002
2.742324e+003,1.549037e-002
2.744252e+003,1.550840e-002
2.746181e+003,1.551228e-002
2.748109e+003,1.562060e-002
2.750038e+003,1.574475e-002
2.751966e+003,1.584477e-002
2.753895e+003,1.596761e-002
2.755823e+003,1.609162e-002
2.757752e+003,1.617886e-002
2.759680e+003,1.628263e-002
2.761609e+003,1.644696e-002
2.763537e+003,1.668864e-002
2.765466e+003,1.687261e-002
2.767394e+003,1.712701e-002
2.769323e+003,1.746909e-002
2.771251e+003,1.779211e-002
2.773180e+003,1.820554e-002
2.775108e+003,1.865872e-002
2.777037e+003,1.910619e-002
2.778965e+003,1.960627e-002
2.780894e+003,2.014852e-002
2.782822e+003,2.064140e-002
2.784750e+003,2.120459e-002
2.786679e+003,2.193455e-002
2.788608e+003,2.261195e-002
2.790536e+003,2.336004e-002
2.792465e+003,2.411738e-002
2.794393e+003,2.475813e-002
2.796322e+003,2.527282e-002
2.798250e+003,2.585334e-002
2.800178e+003,2.659902e-002
2.802107e+003,2.728102e-002
2.804036e+003,2.777013e-002
2.805964e+003,2.824317e-002
2.807893e+003,2.847778e-002
2.809821e+003,2.851351e-002
2.811750e+003,2.872596e-002
2.813678e+003,2.885672e-002
2.815606e+003,2.868582e-002
2.817535e+003,2.839500e-002
2.819464e+003,2.826124e-002
2.821392e+003,2.810546e-002
2.823321e+003,2.771139e-002
2.825249e+003,2.713772e-002
2.827177e+003,2.663773e-002
2.829106e+003,2.623130e-002
2.831034e+003,2.573580e-002
2.832963e+003,2.521407e-002
2.834892e+003,2.465445e-002
2.836820e+003,2.403606e-002
2.838749e+003,2.353886e-002
2.840677e+003,2.300379e-002
2.842605e+003,2.229122e-002
2.844534e+003,2.161467e-002
2.846462e+003,2.100542e-002
2.848391e+003,2.040755e-002
2.850320e+003,1.993144e-002
2.852248e+003,1.970061e-002
2.854177e+003,1.954319e-002
2.856105e+003,1.927369e-002
2.858033e+003,1.908112e-002
2.859962e+003,1.908693e-002
2.861890e+003,1.907215e-002
2.863819e+003,1.914919e-002
2.865748e+003,1.925218e-002
2.867676e+003,1.931093e-002
2.869604e+003,1.935126e-002
2.871533e+003,1.939879e-002
2.873461e+003,1.958035e-002
2.875390e+003,1.971444e-002
2.877319e+003,1.976597e-002
2.879247e+003,1.999229e-002
2.881176e+003,2.012092e-002
2.883104e+003,2.003372e-002
2.885032e+003,1.994566e-002
2.886961e+003,2.000097e-002
2.888889e+003,2.003816e-002
2.890818e+003,1.989353e-002
2.892747e+003,1.973798e-002
2.894675e+003,1.965061e-002
2.896604e+003,1.959570e-002
2.898532e+003,1.952725e-002
2.900460e+003,1.948739e-002
2.902389e+003,1.938753e-002
2.904317e+003,1.928422e-002
2.906246e+003,1.932042e-002
2.908175e+003,1.934966e-002
2.910103e+003,1.917554e-002
2.912031e+003,1.890852e-002
2.913960e+003,1.874655e-002
2.915888e+003,1.872496e-002
2.917817e+003,1.888842e-002
2.919745e+003,1.898585e-002
2.921674e+003,1.910892e-002
2.923603e+003,1.928471e-002
2.925531e+003,1.941504e-002
2.927459e+003,1.959442e-002
2.929388e+003,1.985163e-002
2.931316e+003,2.012370e-002
2.933245e+003,2.041001e-002
2.935173e+003,2.064644e-002
2.937102e+003,2.083328e-002
2.939031e+003,2.092371e-002
2.940959e+003,2.102156e-002
2.942887e+003,2.089248e-002
2.944816e+003,2.060419e-002
2.946744e+003,2.046016e-002
2.948673e+003,2.027747e-002
2.950601e+003,1.987122e-002
2.952530e+003,1.945492e-002
2.954458e+003,1.896144e-002
2.956387e+003,1.844056e-002
2.958315e+003,1.782455e-002
2.960244e+003,1.725645e-002
2.962172e+003,1.679143e-002
2.964101e+003,1.639655e-002
2.966029e+003,1.590010e-002
2.967958e+003,1.528223e-002
2.969886e+003,1.485618e-002
2.971815e+003,1.456556e-002
2.973743e+003,1.430012e-002
2.975672e+003,1.392156e-002
2.977600e+003,1.361320e-002
2.979529e+003,1.349451e-002
2.981457e+003,1.333766e-002
2.983386e+003,1.303989e-002
2.985314e+003,1.274730e-002
2.987243e+003,1.257148e-002
2.989171e+003,1.245110e-002
2.991100e+003,1.240254e-002
2.993028e+003,1.219183e-002
2.994957e+003,1.199480e-002
2.996885e+003,1.196149e-002
2.998814e+003,1.199174e-002
3.000742e+003,1.197355e-002
3.002671e+003,1.191316e-002
3.004599e+003,1.184216e-002
3.006528e+003,1.175698e-002
3.008456e+003,1.163754e-002
3.010385e+003,1.156165e-002
3.012313e+003,1.162147e-002
3.014242e+003,1.165615e-002
3.016170e+003,1.157747e-002
3.018099e+003,1.163325e-002
3.020027e+003,1.174809e-002
3.021956e+003,1.163573e-002
3.023884e+003,1.148162e-002
3.025813e+003,1.138273e-002
3.027741e+003,1.130162e-002
3.029670e+003,1.149180e-002
3.031598e+003,1.160157e-002
3.033527e+003,1.154270e-002
3.035455e+003,1.155341e-002
3.037384e+003,1.148523e-002
3.039312e+003,1.135501e-002
3.041241e+003,1.124813e-002
3.043169e+003,1.111540e-002
3.045098e+003,1.116452e-002
3.047026e+003,1.122987e-002
3.048955e+003,1.122681e-002
3.050883e+003,1.117353e-002
3.052812e+003,1.110469e-002
3.054740e+003,1.106784e-002
3.056669e+003,1.107600e-002
3.058597e+003,1.112223e-002
3.060526e+003,1.110863e-002
3.062454e+003,1.104680e-002
3.064383e+003,1.106818e-002
3.066311e+003,1.104521e-002
3.068240e+003,1.097928e-002
3.070168e+003,1.093361e-002
3.072097e+003,1.090085e-002
3.074025e+003,1.088206e-002
3.075954e+003,1.097676e-002
3.077882e+003,1.094329e-002
3.079811e+003,1.076898e-002
3.081739e+003,1.070910e-002
3.083668e+003,1.073970e-002
3.085596e+003,1.082774e-002
3.087525e+003,1.082577e-002
3.089453e+003,1.076184e-002
3.091382e+003,1.064987e-002
3.093310e+003,1.065375e-002
3.095239e+003,1.068913e-002
3.097167e+003,1.065982e-002
3.099096e+003,1.059008e-002
3.101024e+003,1.054194e-002
3.102953e+003,1.055929e-002
3.104881e+003,1.049659e-002
3.106810e+003,1.042816e-002
3.108738e+003,1.046960e-002
3.110667e+003,1.039490e-002
3.112595e+003,1.032350e-002
3.114524e+003,1.041482e-002
3.116452e+003,1.043556e-002
3.118381e+003,1.038048e-002
3.120309e+003,1.031441e-002
3.122238e+003,1.031312e-002
3.124166e+003,1.035744e-002
3.126095e+003,1.034027e-002
3.128023e+003,1.036429e-002
3.129952e+003,1.050134e-002
3.131880e+003,1.045592e-002
3.133809e+003,1.038214e-002
3.135737e+003,1.041211e-002
3.137666e+003,1.037698e-002
3.139594e+003,1.040070e-002
3.141523e+003,1.046994e-002
3.143451e+003,1.053026e-002
3.145380e+003,1.034322e-002
3.147308e+003,1.043692e-002
3.149237e+003,1.052836e-002
3.151165e+003,1.040871e-002
3.153094e+003,1.025480e-002
3.155022e+003,1.019801e-002
3.156951e+003,1.027726e-002
3.158879e+003,1.048881e-002
3.160808e+003,1.063785e-002
3.162736e+003,1.046702e-002
3.164665e+003,1.029606e-002
3.166593e+003,1.028048e-002
3.168522e+003,1.035126e-002
3.170450e+003,1.038669e-002
3.172379e+003,1.047249e-002
3.174307e+003,1.057358e-002
3.176236e+003,1.059531e-002
3.178164e+003,1.045477e-002
3.180093e+003,1.039565e-002
3.182021e+003,1.039212e-002
3.183950e+003,1.036901e-002
3.185878e+003,1.039324e-002
3.187807e+003,1.039239e-002
3.189735e+003,1.036690e-002
3.191664e+003,1.044330e-002
3.193592e+003,1.043770e-002
3.195521e+003,1.036853e-002
3.197449e+003,1.047792e-002
3.199378e+003,1.055138e-002
3.201306e+003,1.053159e-002
3.203235e+003,1.047018e-002
3.205163e+003,1.055647e-002
3.207092e+003,1.059371e-002
3.209020e+003,1.059833e-002
3.210948e+003,1.062906e-002
3.212877e+003,1.071046e-002
3.214806e+003,1.070672e-002
3.216734e+003,1.053437e-002
3.218663e+003,1.051210e-002
3.220591e+003,1.064994e-002
3.222520e+003,1.076368e-002
3.224448e+003,1.082373e-002
3.226376e+003,1.108837e-002
3.228305e+003,1.127904e-002
3.230234e+003,1.124615e-002
3.232162e+003,1.118563e-002
3.234091e+003,1.119328e-002
3.236019e+003,1.124840e-002
3.237948e+003,1.127951e-002
3.239876e+003,1.139974e-002
3.241804e+003,1.159221e-002
3.243733e+003,1.157659e-002
3.245662e+003,1.154521e-002
3.247590e+003,1.147805e-002
3.249519e+003,1.154076e-002
3.251447e+003,1.160647e-002
3.253375e+003,1.165336e-002
3.255304e+003,1.176127e-002
3.257232e+003,1.194933e-002
3.259161e+003,1.197338e-002
3.261090e+003,1.193084e-002
3.263018e+003,1.198676e-002
3.264947e+003,1.196660e-002
3.266875e+003,1.187526e-002
3.268803e+003,1.191333e-002
3.270732e+003,1.202873e-002
3.272660e+003,1.231197e-002
3.274589e+003,1.232816e-002
3.276518e+003,1.222799e-002
3.278446e+003,1.225528e-002
3.280375e+003,1.216055e-002
3.282303e+003,1.224267e-002
3.284231e+003,1.240081e-002
3.286160e+003,1.239457e-002
3.288088e+003,1.228855e-002
3.290017e+003,1.219149e-002
3.291946e+003,1.213448e-002
3.293874e+003,1.202437e-002
3.295802e+003,1.200022e-002
3.297731e+003,1.201762e-002
3.299659e+003,1.194286e-002
3.301588e+003,1.190761e-002
3.303516e+003,1.185153e-002
3.305445e+003,1.193138e-002
3.307374e+003,1.189249e-002
3.309302e+003,1.159602e-002
3.311230e+003,1.142501e-002
3.313159e+003,1.136940e-002
3.315087e+003,1.134212e-002
3.317016e+003,1.129213e-002
3.318944e+003,1.098291e-002
3.320873e+003,1.100925e-002
3.322802e+003,1.100582e-002
3.324730e+003,1.077047e-002
3.326658e+003,1.076721e-002
3.328587e+003,1.079846e-002
3.330515e+003,1.069025e-002
3.332444e+003,1.055104e-002
3.334372e+003,1.065582e-002
3.336301e+003,1.071409e-002
3.338229e+003,1.053074e-002
3.340158e+003,1.045412e-002
3.342086e+003,1.049431e-002
3.344015e+003,1.055739e-002
3.345943e+003,1.046967e-002
3.347872e+003,1.030382e-002
3.349800e+003,1.031984e-002
3.351729e+003,1.039107e-002
3.353657e+003,1.032401e-002
3.355586e+003,1.025700e-002
3.357514e+003,1.015595e-002
3.359443e+003,1.007222e-002
3.361371e+003,1.019842e-002
3.363300e+003,1.026898e-002
3.365229e+003,1.016569e-002
3.367157e+003,9.968256e-003
3.369085e+003,9.889844e-003
3.371014e+003,9.922251e-003
3.372942e+003,9.937845e-003
3.374871e+003,9.745263e-003
3.376799e+003,9.522993e-003
3.378728e+003,9.427426e-003
3.380656e+003,9.361402e-003
3.382585e+003,9.294949e-003
3.384513e+003,9.308963e-003
3.386442e+003,9.256056e-003
3.388370e+003,9.295185e-003
3.390299e+003,9.218892e-003
3.392227e+003,9.174050e-003
3.394156e+003,9.159972e-003
3.396084e+003,9.217030e-003
3.398013e+003,9.250199e-003
3.399941e+003,9.214289e-003
3.401870e+003,9.189177e-003
3.403798e+003,9.098522e-003
3.405727e+003,8.924440e-003
3.407655e+003,9.042562e-003
3.409584e+003,9.151952e-003
3.411512e+003,8.994356e-003
3.413441e+003,8.832149e-003
3.415369e+003,8.897180e-003
3.417298e+003,8.937631e-003
3.419226e+003,8.858728e-003
3.421155e+003,8.800703e-003
3.423083e+003,8.863936e-003
3.425012e+003,8.873067e-003
3.426940e+003,8.818624e-003
3.428869e+003,8.830965e-003
3.430797e+003,8.915138e-003
3.432726e+003,8.859134e-003
3.434654e+003,8.705599e-003
3.436583e+003,8.537351e-003
3.438511e+003,8.702083e-003
3.440440e+003,8.953663e-003
3.442368e+003,9.043747e-003
3.444297e+003,9.010694e-003
3.446225e+003,8.911858e-003
3.448154e+003,8.687176e-003
3.450082e+003,8.712158e-003
3.452011e+003,8.785758e-003
3.453939e+003,8.713712e-003
3.455868e+003,8.630559e-003
3.457796e+003,8.786671e-003
3.459725e+003,8.971455e-003
3.461653e+003,9.027001e-003
3.463582e+003,8.960732e-003
3.465510e+003,8.885512e-003
3.467439e+003,8.846250e-003
3.469367e+003,8.721353e-003
3.471296e+003,8.716214e-003
3.473224e+003,8.819233e-003
3.475153e+003,8.651008e-003
3.477081e+003,8.682680e-003
3.479010e+003,8.830830e-003
3.480938e+003,8.912467e-003
3.482867e+003,8.773823e-003
3.484795e+003,8.812537e-003
3.486724e+003,8.897316e-003
3.488652e+003,8.958365e-003
3.490581e+003,8.860994e-003
3.492509e+003,8.762328e-003
3.494438e+003,8.887102e-003
3.496366e+003,9.145048e-003
3.498295e+003,9.048652e-003
3.500223e+003,8.820720e-003
3.502152e+003,8.814397e-003
3.504080e+003,8.848144e-003
3.506009e+003,8.934282e-003
3.507937e+003,9.058971e-003
3.509866e+003,9.123054e-003
3.511794e+003,9.134424e-003
3.513723e+003,8.939424e-003
3.515651e+003,8.732171e-003
3.517580e+003,8.837256e-003
3.519508e+003,8.833333e-003
3.521437e+003,8.864004e-003
3.523365e+003,8.899277e-003
3.525294e+003,8.824778e-003
3.527222e+003,8.881556e-003
3.529151e+003,9.008191e-003
3.531079e+003,9.068308e-003
3.533008e+003,8.929445e-003
3.534936e+003,8.820247e-003
3.536865e+003,8.847603e-003
3.538793e+003,9.056535e-003
3.540722e+003,9.228335e-003
3.542650e+003,9.193881e-003
3.544579e+003,9.244412e-003
3.546507e+003,9.254871e-003
3.548436e+003,9.125829e-003
3.550364e+003,9.015464e-003
3.552293e+003,8.776358e-003
3.554221e+003,8.712901e-003
3.556150e+003,8.850173e-003
3.558078e+003,8.943955e-003
3.560007e+003,9.021147e-003
3.561935e+003,9.166537e-003
3.563864e+003,8.958804e-003
3.565792e+003,8.908983e-003
3.567721e+003,9.013367e-003
3.569649e+003,8.950889e-003
3.571578e+003,8.866575e-003
3.573506e+003,8.965163e-003
3.575435e+003,9.163187e-003
3.577363e+003,9.131039e-003
3.579292e+003,9.093583e-003
3.581220e+003,8.993003e-003
3.583149e+003,8.911081e-003
3.585077e+003,9.097203e-003
3.587006e+003,9.052035e-003
3.588934e+003,8.900629e-003
3.590863e+003,8.785825e-003
3.592791e+003,8.764660e-003
3.594720e+003,8.900190e-003
3.596648e+003,9.082925e-003
3.598577e+003,9.266684e-003
3.600505e+003,9.297250e-003
3.602434e+003,9.116624e-003
3.604362e+003,9.142985e-003
3.606291e+003,9.068308e-003
3.608219e+003,9.021588e-003
3.610148e+003,9.017562e-003
3.612076e+003,8.982448e-003
3.614005e+003,9.010660e-003
3.615933e+003,9.034341e-003
3.617862e+003,9.157366e-003
3.619790e+003,9.211717e-003
3.621719e+003,8.962525e-003
3.623647e+003,8.910032e-003
3.625576e+003,9.095037e-003
3.627504e+003,9.233784e-003
3.629433e+003,9.096188e-003
3.631361e+003,9.117234e-003
3.633290e+003,9.002170e-003
3.635218e+003,9.017122e-003
3.637146e+003,9.096730e-003
3.639075e+003,9.113174e-003
3.641004e+003,9.215440e-003
3.642932e+003,9.114121e-003
3.644861e+003,8.996757e-003
3.646789e+003,9.056129e-003
3.648718e+003,8.753571e-003
3.650646e+003,8.577633e-003
3.652574e+003,8.948860e-003
3.654503e+003,9.265533e-003
3.656432e+003,9.128130e-003
3.658360e+003,8.933572e-003
3.660289e+003,8.946526e-003
3.662217e+003,9.059884e-003
3.664146e+003,9.249895e-003
3.666074e+003,9.273183e-003
3.668002e+003,9.029571e-003
3.669931e+003,8.863328e-003
3.671860e+003,8.883754e-003
3.673788e+003,8.874690e-003
3.675717e+003,8.807804e-003
3.677645e+003,9.036405e-003
3.679573e+003,8.953088e-003
3.681502e+003,9.028083e-003
3.683430e+003,9.098083e-003
3.685359e+003,9.160108e-003
3.687288e+003,9.152493e-003
3.689216e+003,9.054910e-003
3.691145e+003,9.161698e-003
3.693073e+003,9.202952e-003
3.695001e+003,9.119704e-003
3.696930e+003,9.066143e-003
3.698858e+003,8.968715e-003
3.700787e+003,9.122411e-003
3.702716e+003,9.275823e-003
3.704644e+003,9.217403e-003
3.706573e+003,9.164372e-003
3.708501e+003,9.059377e-003
3.710429e+003,9.122817e-003
3.712358e+003,9.224070e-003
3.714286e+003,9.194592e-003
3.716215e+003,9.057177e-003
3.718144e+003,9.091113e-003
3.720072e+003,9.175234e-003
3.722000e+003,8.994254e-003
3.723929e+003,8.908679e-003
3.725857e+003,9.133577e-003
3.727786e+003,9.398781e-003
3.729714e+003,9.172933e-003
3.731643e+003,8.869990e-003
3.733572e+003,8.780518e-003
3.735500e+003,8.669903e-003
3.737428e+003,8.543366e-003
3.739357e+003,8.935703e-003
3.741285e+003,9.385373e-003
3.743214e+003,9.229689e-003
3.745142e+003,8.926232e-003
3.747071e+003,9.087052e-003
3.749000e+003,9.004943e-003
3.750928e+003,8.926300e-003
3.752856e+003,8.965400e-003
3.754785e+003,9.078695e-003
3.756713e+003,9.186774e-003
3.758642e+003,9.028319e-003
3.760570e+003,8.967058e-003
3.762499e+003,9.174016e-003
3.764427e+003,9.246578e-003
3.766356e+003,9.234563e-003
3.768284e+003,9.105188e-003
3.770213e+003,8.982719e-003
3.772141e+003,9.146944e-003
3.774070e+003,9.299484e-003
3.775998e+003,9.087932e-003
3.777927e+003,8.963337e-003
3.779855e+003,8.890315e-003
3.781784e+003,9.012555e-003
3.783712e+003,9.330730e-003
3.785641e+003,9.420723e-003
3.787569e+003,9.316714e-003
3.789498e+003,9.285369e-003
3.791426e+003,9.144338e-003
3.793355e+003,8.977882e-003
3.795283e+003,9.049566e-003
3.797212e+003,9.120720e-003
3.799140e+003,8.950145e-003
3.801069e+003,8.750799e-003
3.802997e+003,8.831067e-003
3.804926e+003,8.797051e-003
3.806854e+003,8.655165e-003
3.808783e+003,8.761212e-003
3.810711e+003,9.125727e-003
3.812640e+003,9.202105e-003
3.814568e+003,8.848685e-003
3.816497e+003,8.694647e-003
3.818425e+003,8.935533e-003
3.820354e+003,9.094530e-003
3.822282e+003,9.009104e-003
3.824211e+003,8.815310e-003
3.826139e+003,8.686568e-003
3.828068e+003,9.091722e-003
3.829996e+003,9.256360e-003
3.831925e+003,9.164168e-003
3.833853e+003,9.201226e-003
3.835782e+003,9.233344e-003
3.837710e+003,9.158213e-003
3.839639e+003,9.150362e-003
3.841567e+003,9.312348e-003
3.843496e+003,9.212022e-003
3.845424e+003,8.996453e-003
3.847353e+003,8.721759e-003
3.849281e+003,8.718716e-003
3.851210e+003,9.005011e-003
3.853138e+003,8.957654e-003
3.855067e+003,8.889436e-003
3.856995e+003,9.004267e-003
3.858924e+003,8.919130e-003
3.860852e+003,8.852946e-003
3.862781e+003,8.946323e-003
3.864709e+003,9.109147e-003
3.866638e+003,9.151816e-003
3.868566e+003,8.969222e-003
3.870495e+003,9.058327e-003
3.872423e+003,9.308489e-003
3.874352e+003,9.180210e-003
3.876280e+003,8.962728e-003
3.878209e+003,8.797153e-003
3.880137e+003,8.876110e-003
3.882066e+003,9.110129e-003
3.883994e+003,8.987861e-003
3.885923e+003,8.843681e-003
3.887851e+003,8.991581e-003
3.889780e+003,8.985357e-003
3.891708e+003,8.796510e-003
3.893637e+003,8.749785e-003
3.895565e+003,8.974770e-003
3.897494e+003,9.059850e-003
3.899422e+003,9.042935e-003
3.901351e+003,8.938375e-003
3.903279e+003,8.742245e-003
3.905208e+003,8.921193e-003
3.907136e+003,8.957045e-003
3.909065e+003,8.952715e-003
3.910993e+003,8.876821e-003
3.912922e+003,8.825522e-003
3.914850e+003,8.971184e-003
3.916779e+003,8.830391e-003
3.918707e+003,8.832995e-003
3.920636e+003,8.879222e-003
3.922564e+003,8.714659e-003
3.924493e+003,8.646952e-003
3.926421e+003,8.766148e-003
3.928350e+003,8.908848e-003
3.930278e+003,9.073079e-003
3.932207e+003,9.181969e-003
3.934135e+003,9.508363e-003
3.936064e+003,9.584063e-003
3.937992e+003,9.241095e-003
3.939921e+003,8.967802e-003
3.941849e+003,8.928397e-003
3.943778e+003,9.260591e-003
3.945706e+003,9.243837e-003
3.947635e+003,9.176318e-003
3.949563e+003,9.271118e-003
3.951492e+003,9.057516e-003
3.953420e+003,8.973180e-003
3.955349e+003,9.080590e-003
3.957277e+003,9.043476e-003
3.959206e+003,8.952344e-003
3.961134e+003,8.804794e-003
3.963063e+003,9.072098e-003
3.964991e+003,9.239707e-003
3.966920e+003,8.943989e-003
3.968848e+003,9.020809e-003
3.970777e+003,9.232329e-003
3.972705e+003,8.993206e-003
3.974634e+003,9.099774e-003
3.976562e+003,9.474598e-003
3.978491e+003,9.339430e-003
3.980419e+003,9.092567e-003
3.982348e+003,8.858763e-003
3.984276e+003,9.065297e-003
3.986205e+003,9.215203e-003
3.988133e+003,9.343797e-003
3.990062e+003,9.346608e-003
3.991990e+003,9.310858e-003
3.993919e+003,9.291259e-003
3.995847e+003,9.174016e-003
3.997776e+003,9.044761e-003
3.999704e+003,8.984207e-003
4.001633e+003,0.000000e+000
