3.991989e+002,-1.261337e-002
4.011274e+002,-1.575363e-002
4.030559e+002,-2.289446e-002
4.049844e+002,-2.667748e-002
4.069129e+002,-2.195380e-002
4.088414e+002,-1.383435e-002
4.107699e+002,-1.736430e-002
4.126984e+002,-1.910231e-002
4.146269e+002,-1.369256e-002
4.165554e+002,-7.568381e-003
4.184839e+002,-8.520611e-003
4.204124e+002,-4.360083e-003
4.223409e+002,-1.512120e-003
4.242694e+002,-3.118584e-003
4.261979e+002,-9.581001e-003
4.281264e+002,-4.452152e-003
4.300549e+002,2.826099e-003
4.319834e+002,1.947839e-003
4.339119e+002,9.280482e-004
4.358404e+002,1.351817e-003
4.377689e+002,3.119681e-003
4.396974e+002,-1.928091e-003
4.416259e+002,-9.275678e-003
4.435544e+002,-7.153217e-003
4.454829e+002,-5.510405e-003
4.474114e+002,-2.644017e-003
4.493399e+002,-9.203661e-005
4.512684e+002,-7.141138e-004
4.531969e+002,-2.519809e-003
4.551254e+002,-3.361658e-003
4.570539e+002,-3.806540e-003
4.589824e+002,-5.248694e-003
4.609109e+002,-7.131412e-003
4.628394e+002,-6.001918e-003
4.647679e+002,-5.364335e-003
4.666964e+002,-5.898835e-003
4.686249e+002,-5.525585e-003
4.705533e+002,-4.180843e-003
4.724819e+002,-5.901908e-003
4.744103e+002,-5.739555e-003
4.763389e+002,-5.404882e-003
4.782673e+002,-5.543415e-003
4.801959e+002,-6.672665e-003
4.821243e+002,-7.091645e-003
4.840529e+002,-8.500759e-003
4.859813e+002,-9.096703e-003
4.879099e+002,-8.570773e-003
4.898383e+002,-8.254660e-003
4.917668e+002,-7.983473e-003
4.936953e+002,-8.391442e-003
4.956238e+002,-8.340317e-003
4.975523e+002,-8.940605e-003
4.994808e+002,-1.024744e-002
5.014093e+002,-8.858995e-003
5.033378e+002,-7.131217e-003
5.052663e+002,-5.801057e-003
5.071948e+002,-7.862704e-003
5.091233e+002,-1.052146e-002
5.110518e+002,-1.010862e-002
5.129803e+002,-9.620540e-003
5.149088e+002,-9.762367e-003
5.168373e+002,-9.138169e-003
5.187658e+002,-8.802339e-003
5.206943e+002,-9.412884e-003
5.226228e+002,-8.749671e-003
5.245513e+002,-7.074694e-003
5.264798e+002,-7.998697e-003
5.284083e+002,-8.964753e-003
5.303368e+002,-8.629147e-003
5.322653e+002,-8.653215e-003
5.341938e+002,-7.949933e-003
5.361223e+002,-7.435118e-003
5.380508e+002,-8.225205e-003
5.399792e+002,-9.462133e-003
5.419078e+002,-8.657405e-003
5.438363e+002,-6.688881e-003
5.457648e+002,-6.537854e-003
5.476932e+002,-6.655534e-003
5.496218e+002,-6.362874e-003
5.515503e+002,-6.430426e-003
5.534788e+002,-7.182387e-003
5.554072e+002,-8.024753e-003
5.573358e+002,-7.581861e-003
5.592643e+002,-7.274674e-003
5.611927e+002,-6.313795e-003
5.631212e+002,-5.486456e-003
5.650497e+002,-6.616442e-003
5.669783e+002,-7.356939e-003
5.689067e+002,-7.224035e-003
5.708352e+002,-7.766636e-003
5.727637e+002,-7.945509e-003
5.746923e+002,-7.272718e-003
5.766207e+002,-9.464662e-003
5.785492e+002,-9.992879e-003
5.804777e+002,-8.779546e-003
5.824063e+002,-9.299841e-003
5.843347e+002,-9.784591e-003
5.862632e+002,-9.356398e-003
5.881917e+002,-8.780163e-003
5.901202e+002,-8.346167e-003
5.920487e+002,-8.696575e-003
5.939772e+002,-9.748987e-003
5.959057e+002,-1.011908e-002
5.978342e+002,-9.350172e-003
5.997627e+002,-8.492798e-003
6.016912e+002,-8.121966e-003
6.036197e+002,-8.068110e-003
6.055482e+002,-6.869405e-003
6.074767e+002,-5.350884e-003
6.094052e+002,-4.264681e-003
6.113337e+002,-5.751522e-003
6.132622e+002,-7.690926e-003
6.151907e+002,-7.938351e-003
6.171192e+002,-7.415445e-003
6.190477e+002,-6.628711e-003
6.209762e+002,-5.859544e-003
6.229047e+002,-6.915290e-003
6.248332e+002,-8.180661e-003
6.267617e+002,-8.615699e-003
6.286902e+002,-8.203779e-003
6.306187e+002,-7.173490e-003
6.325472e+002,-7.252060e-003
6.344756e+002,-7.251506e-003
6.364042e+002,-6.673676e-003
6.383326e+002,-6.733480e-003
6.402612e+002,-6.353045e-003
6.421896e+002,-5.976721e-003
6.441182e+002,-6.189783e-003
6.460466e+002,-6.338384e-003
6.479752e+002,-5.890042e-003
6.499036e+002,-6.013061e-003
6.518322e+002,-5.853333e-003
6.537606e+002,-5.504876e-003
6.556891e+002,-5.834012e-003
6.576177e+002,-6.427586e-003
6.595461e+002,-6.483213e-003
6.614746e+002,-6.362841e-003
6.634031e+002,-6.584036e-003
6.653317e+002,-6.066618e-003
6.672601e+002,-5.776176e-003
6.691886e+002,-5.849017e-003
6.711171e+002,-5.818483e-003
6.730457e+002,-5.840812e-003
6.749741e+002,-5.934789e-003
6.769026e+002,-5.972473e-003
6.788311e+002,-5.888473e-003
6.807596e+002,-5.783860e-003
6.826881e+002,-6.053613e-003
6.846166e+002,-6.221402e-003
6.865451e+002,-6.192821e-003
6.884736e+002,-6.311934e-003
6.904021e+002,-6.162017e-003
6.923306e+002,-5.982473e-003
6.942591e+002,-6.322285e-003
6.961876e+002,-7.212989e-003
6.981161e+002,-7.735716e-003
7.000446e+002,-7.600583e-003
7.019731e+002,-7.255123e-003
7.039016e+002,-7.047539e-003
7.058301e+002,-7.625198e-003
7.077585e+002,-8.077770e-003
7.096871e+002,-7.843797e-003
7.116156e+002,-7.616049e-003
7.135441e+002,-7.751599e-003
7.154725e+002,-8.475804e-003
7.174011e+002,-8.949076e-003
7.193296e+002,-8.628855e-003
7.212581e+002,-8.846560e-003
7.231865e+002,-9.106308e-003
7.251151e+002,-9.352702e-003
7.270436e+002,-9.639855e-003
7.289720e+002,-9.128371e-003
7.309005e+002,-8.677867e-003
7.328290e+002,-8.626451e-003
7.347576e+002,-8.246436e-003
7.366860e+002,-7.462673e-003
7.386145e+002,-7.141614e-003
7.405430e+002,-7.406487e-003
7.424716e+002,-7.800711e-003
7.444000e+002,-7.539009e-003
7.463285e+002,-6.603486e-003
7.482570e+002,-6.153001e-003
7.501855e+002,-5.862453e-003
7.521140e+002,-5.193759e-003
7.540425e+002,-4.898474e-003
7.559710e+002,-4.697660e-003
7.578995e+002,-4.285581e-003
7.598280e+002,-4.147632e-003
7.617565e+002,-4.178283e-003
7.636850e+002,-4.056385e-003
7.656135e+002,-3.797376e-003
7.675420e+002,-3.353241e-003
7.694705e+002,-2.585952e-003
7.713990e+002,-2.264793e-003
7.733275e+002,-2.380506e-003
7.752560e+002,-2.629855e-003
7.771844e+002,-2.868726e-003
7.791130e+002,-2.923692e-003
7.810415e+002,-2.933960e-003
7.829700e+002,-2.967199e-003
7.848984e+002,-2.848252e-003
7.868270e+002,-3.095260e-003
7.887555e+002,-3.776716e-003
7.906840e+002,-4.191410e-003
7.926124e+002,-4.482848e-003
7.945410e+002,-4.817576e-003
7.964695e+002,-4.795424e-003
7.983979e+002,-4.563283e-003
8.003264e+002,-4.843200e-003
8.022549e+002,-5.396275e-003
8.041835e+002,-5.380927e-003
8.061119e+002,-5.198441e-003
8.080404e+002,-5.112720e-003
8.099689e+002,-5.225614e-003
8.118975e+002,-5.132596e-003
8.138259e+002,-4.561251e-003
8.157545e+002,-4.283022e-003
8.176830e+002,-4.705231e-003
8.196115e+002,-5.486260e-003
8.215399e+002,-5.912498e-003
8.234684e+002,-6.294560e-003
8.253970e+002,-6.683171e-003
8.273254e+002,-6.824721e-003
8.292539e+002,-6.759840e-003
8.311824e+002,-6.956638e-003
8.331110e+002,-6.841682e-003
8.350394e+002,-6.916921e-003
8.369679e+002,-6.781436e-003
8.388964e+002,-6.665127e-003
8.408250e+002,-6.655273e-003
8.427534e+002,-6.619476e-003
8.446819e+002,-6.518466e-003
8.466104e+002,-6.398463e-003
8.485389e+002,-6.469796e-003
8.504674e+002,-6.505670e-003
8.523959e+002,-6.565400e-003
8.543244e+002,-6.641111e-003
8.562529e+002,-6.553912e-003
8.581814e+002,-6.492712e-003
8.601099e+002,-6.069363e-003
8.620384e+002,-6.002604e-003
8.639669e+002,-6.474464e-003
8.658954e+002,-6.424060e-003
8.678239e+002,-6.055607e-003
8.697524e+002,-6.020022e-003
8.716809e+002,-6.220357e-003
8.736094e+002,-6.505311e-003
8.755378e+002,-6.562985e-003
8.774664e+002,-6.209382e-003
8.793949e+002,-5.894586e-003
8.813234e+002,-5.737920e-003
8.832518e+002,-5.449287e-003
8.851804e+002,-5.588230e-003
8.871089e+002,-5.780230e-003
8.890374e+002,-5.511452e-003
8.909658e+002,-5.462276e-003
8.928943e+002,-5.190518e-003
8.948229e+002,-4.720407e-003
8.967513e+002,-4.959276e-003
8.986798e+002,-5.308826e-003
9.006083e+002,-5.608902e-003
9.025369e+002,-5.737102e-003
9.044653e+002,-5.735369e-003
9.063938e+002,-5.973192e-003
9.083223e+002,-5.930638e-003
9.102509e+002,-5.880661e-003
9.121793e+002,-6.501689e-003
9.141078e+002,-6.983343e-003
9.160364e+002,-7.152761e-003
9.179648e+002,-7.369807e-003
9.198933e+002,-7.519568e-003
9.218218e+002,-7.602309e-003
9.237504e+002,-7.919091e-003
9.256788e+002,-8.364856e-003
9.276073e+002,-8.557322e-003
9.295358e+002,-8.347793e-003
9.314644e+002,-8.356666e-003
9.333928e+002,-8.470800e-003
9.353213e+002,-8.566907e-003
9.372498e+002,-8.591531e-003
9.391783e+002,-8.680693e-003
9.411068e+002,-8.738955e-003
9.430353e+002,-8.599002e-003
9.449637e+002,-8.635579e-003
9.468923e+002,-8.847729e-003
9.488208e+002,-8.494779e-003
9.507493e+002,-8.103364e-003
9.526777e+002,-8.231806e-003
9.546063e+002,-8.322277e-003
9.565348e+002,-7.902563e-003
9.584633e+002,-7.561543e-003
9.603917e+002,-7.468699e-003
9.623203e+002,-7.511492e-003
9.642488e+002,-7.320288e-003
9.661772e+002,-7.064099e-003
9.681057e+002,-6.879450e-003
9.700343e+002,-6.782382e-003
9.719628e+002,-6.733742e-003
9.738912e+002,-6.747411e-003
9.758197e+002,-6.603519e-003
9.777483e+002,-6.476488e-003
9.796768e+002,-6.180212e-003
9.816052e+002,-5.954890e-003
9.835337e+002,-6.020022e-003
9.854623e+002,-5.892102e-003
9.873907e+002,-5.651716e-003
9.893192e+002,-5.656001e-003
9.912477e+002,-5.538311e-003
9.931763e+002,-5.422814e-003
9.951047e+002,-5.367607e-003
9.970332e+002,-5.400628e-003
9.989617e+002,-5.407729e-003
1.000890e+003,-5.143238e-003
1.002819e+003,-4.798177e-003
1.004747e+003,-4.774975e-003
1.006676e+003,-4.744758e-003
1.008604e+003,-4.553677e-003
1.010533e+003,-4.584660e-003
1.012461e+003,-4.425815e-003
1.014390e+003,-4.035901e-003
1.016318e+003,-3.872356e-003
1.018247e+003,-3.711115e-003
1.020175e+003,-3.732370e-003
1.022104e+003,-3.658384e-003
1.024032e+003,-3.224467e-003
1.025961e+003,-2.975558e-003
1.027889e+003,-2.855592e-003
1.029818e+003,-2.586842e-003
1.031746e+003,-2.440279e-003
1.033675e+003,-2.377475e-003
1.035603e+003,-2.071430e-003
1.037532e+003,-1.802061e-003
1.039460e+003,-1.733884e-003
1.041389e+003,-1.511856e-003
1.043317e+003,-1.440331e-003
1.045246e+003,-1.670318e-003
1.047174e+003,-1.629454e-003
1.049103e+003,-1.443502e-003
1.051031e+003,-1.441157e-003
1.052960e+003,-1.236920e-003
1.054888e+003,-1.174470e-003
1.056817e+003,-1.392708e-003
1.058745e+003,-1.529191e-003
1.060674e+003,-1.527375e-003
1.062602e+003,-1.223142e-003
1.064531e+003,-1.040255e-003
1.066459e+003,-1.203053e-003
1.068388e+003,-1.376854e-003
1.070316e+003,-1.338010e-003
1.072245e+003,-1.111350e-003
1.074173e+003,-9.544037e-004
1.076102e+003,-9.173073e-004
1.078030e+003,-8.469411e-004
1.079959e+003,-6.573124e-004
1.081887e+003,-4.192083e-004
1.083816e+003,-2.363802e-004
1.085744e+003,2.398573e-004
1.087673e+003,4.841925e-004
1.089601e+003,4.381867e-004
1.091530e+003,7.233217e-004
1.093458e+003,1.228989e-003
1.095387e+003,1.359029e-003
1.097315e+003,1.511119e-003
1.099244e+003,1.562061e-003
1.101172e+003,1.618462e-003
1.103101e+003,1.712093e-003
1.105029e+003,1.601734e-003
1.106958e+003,1.617664e-003
1.108886e+003,1.635756e-003
1.110815e+003,1.774802e-003
1.112743e+003,1.951566e-003
1.114672e+003,1.980757e-003
1.116600e+003,2.089547e-003
1.118529e+003,2.091612e-003
1.120457e+003,2.077062e-003
1.122386e+003,2.085885e-003
1.124314e+003,2.019503e-003
1.126243e+003,1.620757e-003
1.128171e+003,1.513580e-003
1.130100e+003,1.545733e-003
1.132028e+003,1.248029e-003
1.133957e+003,9.354197e-004
1.135885e+003,6.464621e-004
1.137814e+003,3.346833e-004
1.139742e+003,-9.462051e-005
1.141671e+003,-5.964006e-004
1.143599e+003,-9.895795e-004
1.145528e+003,-1.243329e-003
1.147456e+003,-1.468368e-003
1.149385e+003,-1.844955e-003
1.151313e+003,-2.261003e-003
1.153242e+003,-2.443739e-003
1.155170e+003,-2.795482e-003
1.157099e+003,-3.302736e-003
1.159027e+003,-3.666039e-003
1.160956e+003,-3.807000e-003
1.162884e+003,-3.884408e-003
1.164813e+003,-3.826936e-003
1.166741e+003,-3.780132e-003
1.168670e+003,-3.834490e-003
1.170598e+003,-3.795537e-003
1.172526e+003,-3.818594e-003
1.174455e+003,-3.765416e-003
1.176384e+003,-3.732468e-003
1.178312e+003,-3.861650e-003
1.180240e+003,-3.922598e-003
1.182169e+003,-4.021817e-003
1.184098e+003,-4.029860e-003
1.186026e+003,-4.034785e-003
1.187954e+003,-4.166141e-003
1.189883e+003,-4.432703e-003
1.191812e+003,-4.350997e-003
1.193740e+003,-3.993748e-003
1.195668e+003,-3.860468e-003
1.197597e+003,-3.948406e-003
1.199526e+003,-3.931070e-003
1.201454e+003,-3.889235e-003
1.203382e+003,-3.810514e-003
1.205311e+003,-3.647443e-003
1.207240e+003,-3.565096e-003
1.209168e+003,-3.314869e-003
1.211096e+003,-3.190656e-003
1.213025e+003,-3.192399e-003
1.214953e+003,-3.211410e-003
1.216882e+003,-3.131710e-003
1.218810e+003,-2.983752e-003
1.220739e+003,-2.960617e-003
1.222667e+003,-2.823299e-003
1.224596e+003,-2.661306e-003
1.226524e+003,-2.603771e-003
1.228453e+003,-2.474050e-003
1.230381e+003,-2.122837e-003
1.232310e+003,-1.971599e-003
1.234238e+003,-2.051512e-003
1.236167e+003,-1.965662e-003
1.238095e+003,-1.923011e-003
1.240024e+003,-2.067077e-003
1.241952e+003,-2.070276e-003
1.243881e+003,-2.151127e-003
1.245809e+003,-2.244554e-003
1.247738e+003,-2.478135e-003
1.249666e+003,-2.791861e-003
1.251595e+003,-2.870602e-003
1.253523e+003,-2.668716e-003
1.255452e+003,-2.581209e-003
1.257380e+003,-2.611676e-003
1.259309e+003,-2.609567e-003
1.261237e+003,-2.537795e-003
1.263166e+003,-2.424496e-003
1.265094e+003,-2.259190e-003
1.267023e+003,-2.044454e-003
1.268951e+003,-1.766852e-003
1.270880e+003,-1.425074e-003
1.272808e+003,-9.846868e-004
1.274737e+003,-6.803713e-004
1.276665e+003,-3.738561e-004
1.278594e+003,-7.434642e-005
1.280522e+003,1.103504e-004
1.282451e+003,4.627645e-004
1.284379e+003,8.430519e-004
1.286308e+003,1.314725e-003
1.288236e+003,1.596080e-003
1.290165e+003,1.925972e-003
1.292093e+003,2.434909e-003
1.294022e+003,2.678982e-003
1.295950e+003,2.987511e-003
1.297879e+003,3.212301e-003
1.299807e+003,3.281570e-003
1.301736e+003,3.293188e-003
1.303664e+003,3.333420e-003
1.305593e+003,3.444087e-003
1.307521e+003,3.398802e-003
1.309450e+003,3.152722e-003
1.311378e+003,2.864553e-003
1.313307e+003,2.706054e-003
1.315235e+003,2.651811e-003
1.317164e+003,2.443139e-003
1.319092e+003,1.977728e-003
1.321021e+003,1.378873e-003
1.322949e+003,9.620513e-004
1.324878e+003,7.031763e-004
1.326806e+003,5.178623e-004
1.328735e+003,4.596798e-004
1.330663e+003,3.392262e-004
1.332592e+003,1.539349e-004
1.334520e+003,4.122070e-005
1.336449e+003,6.504699e-005
1.338377e+003,4.917370e-005
1.340306e+003,-8.855826e-005
1.342234e+003,-6.500412e-005
1.344163e+003,-1.189496e-005
1.346091e+003,-1.119786e-004
1.348020e+003,-2.074027e-004
1.349948e+003,-1.743826e-004
1.351877e+003,-2.005140e-004
1.353805e+003,-2.766474e-004
1.355734e+003,-4.204000e-004
1.357662e+003,-6.579741e-004
1.359591e+003,-8.368549e-004
1.361519e+003,-8.989233e-004
1.363448e+003,-8.383099e-004
1.365376e+003,-9.643220e-004
1.367305e+003,-1.186597e-003
1.369233e+003,-1.242801e-003
1.371162e+003,-1.387918e-003
1.373090e+003,-1.526747e-003
1.375019e+003,-1.429697e-003
1.376947e+003,-1.279275e-003
1.378876e+003,-1.144630e-003
1.380804e+003,-1.018406e-003
1.382733e+003,-1.115812e-003
1.384661e+003,-1.404432e-003
1.386590e+003,-1.683157e-003
1.388518e+003,-1.834694e-003
1.390447e+003,-1.942341e-003
1.392375e+003,-2.166457e-003
1.394304e+003,-2.378496e-003
1.396232e+003,-2.560491e-003
1.398161e+003,-2.634038e-003
1.400089e+003,-2.611214e-003
1.402018e+003,-2.647541e-003
1.403946e+003,-2.628472e-003
1.405875e+003,-2.625936e-003
1.407803e+003,-2.685840e-003
1.409732e+003,-2.865994e-003
1.411660e+003,-3.035775e-003
1.413589e+003,-2.972958e-003
1.415517e+003,-2.811613e-003
1.417446e+003,-2.585195e-003
1.419374e+003,-2.037034e-003
1.421303e+003,-1.254133e-003
1.423231e+003,-5.673148e-004
1.425160e+003,1.743863e-004
1.427088e+003,8.560659e-004
1.429017e+003,1.209717e-003
1.430945e+003,1.438242e-003
1.432874e+003,1.648961e-003
1.434802e+003,1.958323e-003
1.436731e+003,2.186343e-003
1.438659e+003,2.612376e-003
1.440588e+003,3.155692e-003
1.442516e+003,3.789993e-003
1.444445e+003,4.316613e-003
1.446373e+003,4.811307e-003
1.448302e+003,5.331419e-003
1.450230e+003,5.839797e-003
1.452159e+003,6.446185e-003
1.454087e+003,7.000989e-003
1.456016e+003,6.953143e-003
1.457944e+003,7.359884e-003
1.459873e+003,8.067290e-003
1.461801e+003,8.355420e-003
1.463730e+003,8.303473e-003
1.465658e+003,8.390179e-003
1.467587e+003,8.455177e-003
1.469515e+003,8.287161e-003
1.471444e+003,7.848781e-003
1.473372e+003,7.526631e-003
1.475301e+003,7.425739e-003
1.477229e+003,7.028971e-003
1.479158e+003,6.583583e-003
1.481086e+003,5.993028e-003
1.483015e+003,5.487524e-003
1.484943e+003,5.006406e-003
1.486872e+003,4.409120e-003
1.488800e+003,3.828131e-003
1.490729e+003,3.335424e-003
1.492657e+003,2.937603e-003
1.494586e+003,2.529615e-003
1.496514e+003,1.993039e-003
1.498443e+003,1.470790e-003
1.500371e+003,1.184366e-003
1.502300e+003,1.009674e-003
1.504228e+003,5.267530e-004
1.506157e+003,-1.742832e-004
1.508085e+003,-3.233010e-004
1.510014e+003,-2.890645e-004
1.511942e+003,-4.023921e-004
1.513871e+003,-4.177518e-004
1.515799e+003,-5.966653e-004
1.517728e+003,-6.488428e-004
1.519656e+003,-7.072001e-004
1.521585e+003,-6.862268e-004
1.523513e+003,-3.405837e-004
1.525442e+003,-1.460303e-004
1.527370e+003,1.699115e-004
1.529299e+003,4.967644e-004
1.531227e+003,5.942678e-004
1.533156e+003,7.295613e-004
1.535084e+003,1.189051e-003
1.537013e+003,1.422186e-003
1.538941e+003,1.359129e-003
1.540870e+003,1.590560e-003
1.542798e+003,2.074765e-003
1.544727e+003,2.571910e-003
1.546655e+003,3.198448e-003
1.548584e+003,3.714126e-003
1.550512e+003,4.063022e-003
1.552441e+003,4.337763e-003
1.554369e+003,4.695602e-003
1.556298e+003,5.120450e-003
1.558226e+003,5.314212e-003
1.560155e+003,6.157908e-003
1.562083e+003,7.044563e-003
1.564012e+003,7.449030e-003
1.565940e+003,7.753885e-003
1.567869e+003,7.781950e-003
1.569797e+003,7.661910e-003
1.571726e+003,7.851412e-003
1.573654e+003,7.939107e-003
1.575583e+003,7.794668e-003
1.577511e+003,7.849995e-003
1.579440e+003,7.914811e-003
1.581368e+003,7.883667e-003
1.583297e+003,7.707676e-003
1.585225e+003,7.412291e-003
1.587154e+003,7.207484e-003
1.589082e+003,6.915570e-003
1.591010e+003,6.445815e-003
1.592939e+003,5.854070e-003
1.594868e+003,5.339839e-003
1.596796e+003,4.949999e-003
1.598724e+003,4.481259e-003
1.600653e+003,3.841904e-003
1.602582e+003,3.288514e-003
1.604510e+003,2.833136e-003
1.606438e+003,2.347318e-003
1.608367e+003,1.769645e-003
1.610296e+003,1.374818e-003
1.612224e+003,9.247941e-004
1.614152e+003,5.041619e-004
1.616081e+003,2.680626e-005
1.618010e+003,-7.593658e-005
1.619938e+003,-1.822652e-004
1.621866e+003,-4.904050e-004
1.623795e+003,-8.248832e-004
1.625724e+003,-9.024944e-004
1.627652e+003,-1.083225e-003
1.629580e+003,-1.277359e-003
1.631509e+003,-1.390297e-003
1.633438e+003,-1.558939e-003
1.635366e+003,-1.950159e-003
1.637294e+003,-2.065131e-003
1.639223e+003,-2.127717e-003
1.641151e+003,-2.374838e-003
1.643080e+003,-2.772831e-003
1.645008e+003,-3.236866e-003
1.646937e+003,-3.427114e-003
1.648865e+003,-3.430336e-003
1.650794e+003,-3.776978e-003
1.652722e+003,-4.331576e-003
1.654651e+003,-4.258940e-003
1.656579e+003,-4.078214e-003
1.658508e+003,-4.174181e-003
1.660436e+003,-4.208704e-003
1.662365e+003,-4.385964e-003
1.664293e+003,-4.517509e-003
1.666222e+003,-4.571152e-003
1.668150e+003,-4.874622e-003
1.670079e+003,-5.231900e-003
1.672007e+003,-5.291347e-003
1.673936e+003,-5.628102e-003
1.675864e+003,-5.894586e-003
1.677793e+003,-5.931979e-003
1.679721e+003,-6.150093e-003
1.681650e+003,-6.565335e-003
1.683578e+003,-7.131966e-003
1.685507e+003,-7.267342e-003
1.687435e+003,-7.342833e-003
1.689364e+003,-7.613053e-003
1.691292e+003,-7.744536e-003
1.693221e+003,-7.979765e-003
1.695149e+003,-8.365766e-003
1.697078e+003,-8.347208e-003
1.699006e+003,-8.604590e-003
1.700935e+003,-8.755549e-003
1.702863e+003,-8.435899e-003
1.704792e+003,-8.526199e-003
1.706720e+003,-8.541176e-003
1.708649e+003,-8.519343e-003
1.710577e+003,-8.626711e-003
1.712506e+003,-8.692840e-003
1.714434e+003,-8.871526e-003
1.716363e+003,-9.240194e-003
1.718291e+003,-9.365089e-003
1.720220e+003,-9.174051e-003
1.722148e+003,-9.112213e-003
1.724077e+003,-9.103517e-003
1.726005e+003,-9.053287e-003
1.727934e+003,-9.138039e-003
1.729862e+003,-9.209572e-003
1.731791e+003,-9.388468e-003
1.733719e+003,-9.636355e-003
1.735648e+003,-9.541684e-003
1.737576e+003,-9.502947e-003
1.739505e+003,-9.498020e-003
1.741433e+003,-9.230917e-003
1.743362e+003,-9.181382e-003
1.745290e+003,-9.108255e-003
1.747219e+003,-9.038035e-003
1.749147e+003,-9.098164e-003
1.751076e+003,-9.185049e-003
1.753004e+003,-9.112505e-003
1.754933e+003,-8.945019e-003
1.756861e+003,-8.855131e-003
1.758790e+003,-8.868442e-003
1.760718e+003,-8.938527e-003
1.762647e+003,-8.886232e-003
1.764575e+003,-8.736715e-003
1.766504e+003,-8.766719e-003
1.768432e+003,-8.826983e-003
1.770361e+003,-8.894511e-003
1.772289e+003,-9.006686e-003
1.774218e+003,-8.899867e-003
1.776146e+003,-8.763829e-003
1.778075e+003,-8.707162e-003
1.780003e+003,-8.762595e-003
1.781932e+003,-8.807697e-003
1.783860e+003,-8.817080e-003
1.785789e+003,-8.695308e-003
1.787717e+003,-8.542866e-003
1.789646e+003,-8.556576e-003
1.791574e+003,-8.746002e-003
1.793503e+003,-8.843574e-003
1.795431e+003,-8.776104e-003
1.797360e+003,-8.710150e-003
1.799288e+003,-8.668026e-003
1.801217e+003,-8.750483e-003
1.803145e+003,-8.759868e-003
1.805074e+003,-8.684753e-003
1.807002e+003,-8.670592e-003
1.808931e+003,-8.792697e-003
1.810859e+003,-8.772695e-003
1.812788e+003,-8.713884e-003
1.814716e+003,-8.765356e-003
1.816645e+003,-8.828704e-003
1.818573e+003,-8.822568e-003
1.820502e+003,-8.852501e-003
1.822430e+003,-8.839711e-003
1.824359e+003,-8.862663e-003
1.826287e+003,-8.920674e-003
1.828216e+003,-9.035147e-003
1.830144e+003,-9.088462e-003
1.832073e+003,-8.946090e-003
1.834001e+003,-8.814191e-003
1.835930e+003,-8.903794e-003
1.837858e+003,-8.982896e-003
1.839787e+003,-8.941123e-003
1.841715e+003,-8.988543e-003
1.843644e+003,-9.190077e-003
1.845572e+003,-9.274770e-003
1.847501e+003,-9.197214e-003
1.849429e+003,-8.980527e-003
1.851358e+003,-8.862859e-003
1.853286e+003,-8.888375e-003
1.855215e+003,-8.847989e-003
1.857143e+003,-8.849353e-003
1.859072e+003,-8.860618e-003
1.861000e+003,-8.849320e-003
1.862929e+003,-8.807145e-003
1.864857e+003,-8.725316e-003
1.866786e+003,-8.839970e-003
1.868714e+003,-8.950050e-003
1.870643e+003,-8.795846e-003
1.872571e+003,-8.592181e-003
1.874500e+003,-8.512488e-003
1.876428e+003,-8.551020e-003
1.878357e+003,-8.590361e-003
1.880285e+003,-8.557680e-003
1.882214e+003,-8.515185e-003
1.884142e+003,-8.539909e-003
1.886071e+003,-8.561026e-003
1.887999e+003,-8.574476e-003
1.889928e+003,-8.615602e-003
1.891856e+003,-8.565867e-003
1.893785e+003,-8.519343e-003
1.895713e+003,-8.491628e-003
1.897642e+003,-8.463164e-003
1.899570e+003,-8.485844e-003
1.901499e+003,-8.520870e-003
1.903427e+003,-8.476259e-003
1.905356e+003,-8.478599e-003
1.907284e+003,-8.452375e-003
1.909213e+003,-8.432650e-003
1.911141e+003,-8.454455e-003
1.913070e+003,-8.479086e-003
1.914998e+003,-8.532664e-003
1.916927e+003,-8.562196e-003
1.918855e+003,-8.494423e-003
1.920784e+003,-8.464659e-003
1.922712e+003,-8.543710e-003
1.924641e+003,-8.513300e-003
1.926569e+003,-8.523664e-003
1.928498e+003,-8.613165e-003
1.930426e+003,-8.607123e-003
1.932355e+003,-8.646394e-003
1.934283e+003,-8.638729e-003
1.936212e+003,-8.640321e-003
1.938140e+003,-8.601341e-003
1.940069e+003,-8.600431e-003
1.941997e+003,-8.684623e-003
1.943926e+003,-8.683713e-003
1.945854e+003,-8.717132e-003
1.947783e+003,-8.796592e-003
1.949711e+003,-8.746814e-003
1.951640e+003,-8.720445e-003
1.953568e+003,-8.715281e-003
1.955497e+003,-8.669390e-003
1.957425e+003,-8.690956e-003
1.959354e+003,-8.793768e-003
1.961282e+003,-8.767239e-003
1.963211e+003,-8.759608e-003
1.965139e+003,-8.755906e-003
1.967068e+003,-8.768018e-003
1.968996e+003,-8.718398e-003
1.970925e+003,-8.624730e-003
1.972853e+003,-8.644478e-003
1.974782e+003,-8.636455e-003
1.976710e+003,-8.669910e-003
1.978639e+003,-8.636715e-003
1.980567e+003,-8.523924e-003
1.982496e+003,-8.524736e-003
1.984424e+003,-8.580356e-003
1.986353e+003,-8.557063e-003
1.988281e+003,-8.464528e-003
1.990210e+003,-8.418417e-003
1.992138e+003,-8.385104e-003
1.994067e+003,-8.341129e-003
1.995995e+003,-8.386079e-003
1.997924e+003,-8.321172e-003
1.999852e+003,-8.209111e-003
2.001781e+003,-8.225108e-003
2.003709e+003,-8.246338e-003
2.005638e+003,-8.229595e-003
2.007566e+003,-8.277644e-003
2.009495e+003,-8.338496e-003
2.011423e+003,-8.326893e-003
2.013352e+003,-8.209762e-003
2.015280e+003,-8.157965e-003
2.017208e+003,-8.184758e-003
2.019137e+003,-8.203162e-003
2.021066e+003,-8.179686e-003
2.022994e+003,-8.171427e-003
2.024922e+003,-8.188172e-003
2.026851e+003,-8.117609e-003
2.028780e+003,-8.110649e-003
2.030708e+003,-8.112926e-003
2.032636e+003,-8.031779e-003
2.034565e+003,-8.026998e-003
2.036494e+003,-8.167004e-003
2.038422e+003,-8.138844e-003
2.040350e+003,-7.970331e-003
2.042279e+003,-7.940792e-003
2.044208e+003,-8.029502e-003
2.046136e+003,-8.056271e-003
2.048064e+003,-8.033047e-003
2.049993e+003,-7.972576e-003
2.051921e+003,-7.938644e-003
2.053850e+003,-7.945216e-003
2.055778e+003,-7.975145e-003
2.057707e+003,-7.934025e-003
2.059635e+003,-7.739914e-003
2.061564e+003,-7.678751e-003
2.063492e+003,-7.766245e-003
2.065421e+003,-7.876272e-003
2.067349e+003,-7.906793e-003
2.069278e+003,-7.878550e-003
2.071206e+003,-7.865990e-003
2.073135e+003,-7.781510e-003
2.075063e+003,-7.677449e-003
2.076992e+003,-7.655116e-003
2.078920e+003,-7.660195e-003
2.080849e+003,-7.624644e-003
2.082777e+003,-7.557603e-003
2.084706e+003,-7.453130e-003
2.086634e+003,-7.494883e-003
2.088563e+003,-7.514586e-003
2.090491e+003,-7.417301e-003
2.092420e+003,-7.330746e-003
2.094348e+003,-7.366224e-003
2.096277e+003,-7.360132e-003
2.098205e+003,-7.297775e-003
2.100134e+003,-7.218300e-003
2.102062e+003,-7.153413e-003
2.103991e+003,-7.112051e-003
2.105919e+003,-6.991788e-003
2.107848e+003,-6.991331e-003
2.109776e+003,-7.046365e-003
2.111705e+003,-6.996125e-003
2.113633e+003,-6.884766e-003
2.115562e+003,-6.758731e-003
2.117490e+003,-6.730642e-003
2.119419e+003,-6.720169e-003
2.121347e+003,-6.647442e-003
2.123276e+003,-6.651978e-003
2.125204e+003,-6.664312e-003
2.127133e+003,-6.613994e-003
2.129061e+003,-6.513178e-003
2.130990e+003,-6.511677e-003
2.132918e+003,-6.497086e-003
2.134847e+003,-6.451907e-003
2.136775e+003,-6.462908e-003
2.138704e+003,-6.403752e-003
2.140632e+003,-6.335739e-003
2.142561e+003,-6.352784e-003
2.144489e+003,-6.452658e-003
2.146418e+003,-6.433038e-003
2.148346e+003,-6.310758e-003
2.150275e+003,-6.239823e-003
2.152203e+003,-6.331298e-003
2.154132e+003,-6.329992e-003
2.156060e+003,-6.308896e-003
2.157989e+003,-6.434507e-003
2.159917e+003,-6.430067e-003
2.161846e+003,-6.407834e-003
2.163774e+003,-6.434768e-003
2.165703e+003,-6.419881e-003
2.167631e+003,-6.391933e-003
2.169560e+003,-6.292339e-003
2.171488e+003,-6.154438e-003
2.173417e+003,-6.184883e-003
2.175345e+003,-6.294560e-003
2.177274e+003,-6.333551e-003
2.179202e+003,-6.335837e-003
2.181131e+003,-6.334008e-003
2.183059e+003,-6.274965e-003
2.184988e+003,-6.321501e-003
2.186916e+003,-6.329927e-003
2.188845e+003,-6.286102e-003
2.190773e+003,-6.246355e-003
2.192702e+003,-6.196185e-003
2.194630e+003,-6.219801e-003
2.196559e+003,-6.244396e-003
2.198487e+003,-6.303181e-003
2.200416e+003,-6.364572e-003
2.202344e+003,-6.314840e-003
2.204273e+003,-6.221042e-003
2.206201e+003,-6.157476e-003
2.208130e+003,-6.242175e-003
2.210058e+003,-6.361666e-003
2.211987e+003,-6.341910e-003
2.213915e+003,-6.253998e-003
2.215844e+003,-6.292927e-003
2.217772e+003,-6.310170e-003
2.219701e+003,-6.196675e-003
2.221629e+003,-6.171229e-003
2.223558e+003,-6.186745e-003
2.225486e+003,-6.173711e-003
2.227415e+003,-6.159795e-003
2.229343e+003,-6.188673e-003
2.231272e+003,-6.147218e-003
2.233200e+003,-6.169432e-003
2.235129e+003,-6.179428e-003
2.237057e+003,-6.175443e-003
2.238986e+003,-6.231494e-003
2.240914e+003,-6.240411e-003
2.242843e+003,-6.173679e-003
2.244771e+003,-6.159926e-003
2.246700e+003,-6.256186e-003
2.248628e+003,-6.279276e-003
2.250557e+003,-6.243089e-003
2.252485e+003,-6.294625e-003
2.254414e+003,-6.382595e-003
2.256342e+003,-6.380636e-003
2.258271e+003,-6.381714e-003
2.260199e+003,-6.408258e-003
2.262128e+003,-6.482299e-003
2.264056e+003,-6.457979e-003
2.265985e+003,-6.399965e-003
2.267913e+003,-6.446390e-003
2.269842e+003,-6.507662e-003
2.271770e+003,-6.524537e-003
2.273699e+003,-6.509033e-003
2.275627e+003,-6.545948e-003
2.277556e+003,-6.578912e-003
2.279484e+003,-6.643200e-003
2.281413e+003,-6.703824e-003
2.283341e+003,-6.728685e-003
2.285270e+003,-6.684150e-003
2.287198e+003,-6.655077e-003
2.289127e+003,-6.615854e-003
2.291055e+003,-6.570231e-003
2.292984e+003,-6.621532e-003
2.294912e+003,-6.726466e-003
2.296841e+003,-6.763624e-003
2.298769e+003,-6.781142e-003
2.300698e+003,-6.762580e-003
2.302626e+003,-6.720953e-003
2.304555e+003,-6.672306e-003
2.306483e+003,-6.601495e-003
2.308412e+003,-6.517128e-003
2.310340e+003,-6.484453e-003
2.312269e+003,-6.508674e-003
2.314197e+003,-6.473746e-003
2.316125e+003,-6.353143e-003
2.318054e+003,-6.266082e-003
2.319983e+003,-6.266507e-003
2.321911e+003,-6.258375e-003
2.323840e+003,-6.157541e-003
2.325768e+003,-6.096743e-003
2.327697e+003,-6.061978e-003
2.329625e+003,-5.998715e-003
2.331553e+003,-6.018617e-003
2.333482e+003,-6.021394e-003
2.335411e+003,-5.979042e-003
2.337339e+003,-5.872619e-003
2.339268e+003,-5.838295e-003
2.341196e+003,-5.845977e-003
2.343125e+003,-5.937535e-003
2.345053e+003,-6.036491e-003
2.346981e+003,-6.017669e-003
2.348910e+003,-5.992571e-003
2.350839e+003,-5.868174e-003
2.352767e+003,-5.748024e-003
2.354696e+003,-5.745768e-003
2.356624e+003,-5.598108e-003
2.358552e+003,-5.499412e-003
2.360481e+003,-5.529511e-003
2.362409e+003,-5.630097e-003
2.364338e+003,-5.648184e-003
2.366267e+003,-5.592580e-003
2.368195e+003,-5.721472e-003
2.370124e+003,-5.724938e-003
2.372052e+003,-5.727946e-003
2.373980e+003,-5.757996e-003
2.375909e+003,-5.829206e-003
2.377838e+003,-5.715586e-003
2.379766e+003,-5.588230e-003
2.381695e+003,-5.533862e-003
2.383623e+003,-5.488353e-003
2.385552e+003,-5.369637e-003
2.387480e+003,-5.369473e-003
2.389408e+003,-5.376280e-003
2.391337e+003,-5.323653e-003
2.393266e+003,-5.293638e-003
2.395194e+003,-5.282084e-003
2.397123e+003,-5.257434e-003
2.399051e+003,-5.260511e-003
2.400979e+003,-5.318711e-003
2.402908e+003,-5.309349e-003
2.404836e+003,-5.190322e-003
2.406765e+003,-5.131221e-003
2.408694e+003,-5.189045e-003
2.410622e+003,-5.181482e-003
2.412551e+003,-5.120448e-003
2.414479e+003,-5.073423e-003
2.416407e+003,-5.021839e-003
2.418336e+003,-4.960194e-003
2.420264e+003,-4.971888e-003
2.422193e+003,-4.912463e-003
2.424122e+003,-4.780513e-003
2.426050e+003,-4.682549e-003
2.427979e+003,-4.575644e-003
2.429907e+003,-4.533905e-003
2.431835e+003,-4.496785e-003
2.433764e+003,-4.393279e-003
2.435692e+003,-4.353358e-003
2.437621e+003,-4.365824e-003
2.439550e+003,-4.302411e-003
2.441478e+003,-4.269275e-003
2.443406e+003,-4.274065e-003
2.445335e+003,-4.252279e-003
2.447263e+003,-4.215365e-003
2.449192e+003,-4.179662e-003
2.451121e+003,-4.082743e-003
2.453049e+003,-4.060783e-003
2.454978e+003,-4.003138e-003
2.456906e+003,-3.902469e-003
2.458834e+003,-3.816984e-003
2.460763e+003,-3.804668e-003
2.462691e+003,-3.772807e-003
2.464620e+003,-3.657760e-003
2.466549e+003,-3.533940e-003
2.468477e+003,-3.611660e-003
2.470406e+003,-3.620236e-003
2.472334e+003,-3.627268e-003
2.474262e+003,-3.578701e-003
2.476191e+003,-3.474548e-003
2.478119e+003,-3.472872e-003
2.480048e+003,-3.468336e-003
2.481977e+003,-3.421098e-003
2.483905e+003,-3.344100e-003
2.485833e+003,-3.300828e-003
2.487762e+003,-3.287379e-003
2.489690e+003,-3.287741e-003
2.491619e+003,-3.312074e-003
2.493547e+003,-3.209732e-003
2.495476e+003,-3.161612e-003
2.497405e+003,-3.124966e-003
2.499333e+003,-3.047620e-003
2.501261e+003,-2.923067e-003
2.503190e+003,-2.983324e-003
2.505118e+003,-3.163256e-003
2.507047e+003,-3.147237e-003
2.508975e+003,-3.026990e-003
2.510904e+003,-2.992143e-003
2.512833e+003,-2.840516e-003
2.514761e+003,-2.784519e-003
2.516689e+003,-2.847560e-003
2.518618e+003,-2.860431e-003
2.520546e+003,-2.843051e-003
2.522475e+003,-2.839693e-003
2.524403e+003,-2.841306e-003
2.526332e+003,-2.819349e-003
2.528260e+003,-2.733322e-003
2.530189e+003,-2.679451e-003
2.532117e+003,-2.649418e-003
2.534046e+003,-2.633709e-003
2.535974e+003,-2.588225e-003
2.537903e+003,-2.601136e-003
2.539831e+003,-2.621984e-003
2.541760e+003,-2.640460e-003
2.543688e+003,-2.679155e-003
2.545617e+003,-2.615693e-003
2.547545e+003,-2.433953e-003
2.549474e+003,-2.352594e-003
2.551402e+003,-2.421893e-003
2.553331e+003,-2.424496e-003
2.555259e+003,-2.422486e-003
2.557188e+003,-2.441169e-003
2.559116e+003,-2.414249e-003
2.561045e+003,-2.340697e-003
2.562973e+003,-2.316870e-003
2.564902e+003,-2.379485e-003
2.566830e+003,-2.329954e-003
2.568759e+003,-2.179546e-003
2.570687e+003,-2.123299e-003
2.572616e+003,-2.026481e-003
2.574544e+003,-1.970115e-003
2.576473e+003,-2.111461e-003
2.578401e+003,-2.165897e-003
2.580330e+003,-2.117364e-003
2.582258e+003,-2.068264e-003
2.584187e+003,-2.077860e-003
2.586115e+003,-2.129069e-003
2.588044e+003,-2.043036e-003
2.589972e+003,-1.921229e-003
2.591901e+003,-1.868611e-003
2.593829e+003,-1.813511e-003
2.595758e+003,-1.779425e-003
2.597686e+003,-1.851158e-003
2.599615e+003,-1.818559e-003
2.601543e+003,-1.823806e-003
2.603472e+003,-1.896356e-003
2.605400e+003,-1.823608e-003
2.607329e+003,-1.773749e-003
2.609257e+003,-1.804998e-003
2.611186e+003,-1.773914e-003
2.613114e+003,-1.738967e-003
2.615043e+003,-1.760351e-003
2.616971e+003,-1.753388e-003
2.618900e+003,-1.812125e-003
2.620828e+003,-1.760252e-003
2.622757e+003,-1.554779e-003
2.624685e+003,-1.475336e-003
2.626614e+003,-1.555274e-003
2.628542e+003,-1.664344e-003
2.630471e+003,-1.692069e-003
2.632399e+003,-1.632986e-003
2.634328e+003,-1.678305e-003
2.636256e+003,-1.708571e-003
2.638185e+003,-1.579936e-003
2.640113e+003,-1.464835e-003
2.642042e+003,-1.425800e-003
2.643970e+003,-1.435179e-003
2.645899e+003,-1.420880e-003
2.647827e+003,-1.257536e-003
2.649756e+003,-1.168357e-003
2.651684e+003,-1.222845e-003
2.653613e+003,-1.095420e-003
2.655541e+003,-9.797610e-004
2.657470e+003,-1.013844e-003
2.659398e+003,-9.818437e-004
2.661327e+003,-8.872510e-004
2.663255e+003,-8.951869e-004
2.665184e+003,-8.490576e-004
2.667112e+003,-7.653511e-004
2.669041e+003,-7.431567e-004
2.670969e+003,-7.592982e-004
2.672898e+003,-7.210936e-004
2.674826e+003,-6.539047e-004
2.676755e+003,-5.477577e-004
2.678683e+003,-4.011011e-004
2.680612e+003,-3.619379e-004
2.682540e+003,-3.879588e-004
2.684469e+003,-3.797819e-004
2.686397e+003,-2.860513e-004
2.688326e+003,-1.746807e-004
2.690254e+003,-1.375507e-004
2.692183e+003,-9.995390e-005
2.694111e+003,-7.335257e-005
2.696040e+003,-1.812394e-005
2.697968e+003,6.673708e-005
2.699897e+003,1.177743e-004
2.701825e+003,2.048166e-004
2.703754e+003,2.614731e-004
2.705682e+003,3.764001e-004
2.707611e+003,5.773134e-004
2.709539e+003,6.483204e-004
2.711468e+003,6.022641e-004
2.713396e+003,6.043212e-004
2.715325e+003,5.521320e-004
2.717253e+003,5.501083e-004
2.719182e+003,5.336864e-004
2.721110e+003,6.533312e-004
2.723039e+003,7.853237e-004
2.724967e+003,7.533258e-004
2.726896e+003,7.636485e-004
2.728824e+003,9.063991e-004
2.730753e+003,9.573691e-004
2.732681e+003,9.927362e-004
2.734610e+003,1.033752e-003
2.736538e+003,1.138386e-003
2.738467e+003,1.140313e-003
2.740395e+003,1.238625e-003
2.742324e+003,1.279498e-003
2.744252e+003,1.314426e-003
2.746181e+003,1.455430e-003
2.748109e+003,1.592821e-003
2.750038e+003,1.655413e-003
2.751966e+003,1.703311e-003
2.753895e+003,1.744760e-003
2.755823e+003,1.782321e-003
2.757752e+003,1.908500e-003
2.759680e+003,2.068872e-003
2.761609e+003,2.305645e-003
2.763537e+003,2.586876e-003
2.765466e+003,2.783446e-003
2.767394e+003,2.993550e-003
2.769323e+003,3.277597e-003
2.771251e+003,3.592298e-003
2.773180e+003,3.990084e-003
2.775108e+003,4.412200e-003
2.777037e+003,4.755863e-003
2.778965e+003,5.138086e-003
2.780894e+003,5.673092e-003
2.782822e+003,6.329909e-003
2.784750e+003,6.835755e-003
2.786679e+003,7.411213e-003
2.788608e+003,8.025942e-003
2.790536e+003,8.647121e-003
2.792465e+003,9.249692e-003
2.794393e+003,9.799347e-003
2.796322e+003,1.040763e-002
2.798250e+003,1.109347e-002
2.800178e+003,1.171133e-002
2.802107e+003,1.228344e-002
2.804036e+003,1.287487e-002
2.805964e+003,1.341649e-002
2.807893e+003,1.365194e-002
2.809821e+003,1.378582e-002
2.811750e+003,1.396737e-002
2.813678e+003,1.403297e-002
2.815606e+003,1.400139e-002
2.817535e+003,1.397548e-002
2.819464e+003,1.388906e-002
2.821392e+003,1.369321e-002
2.823321e+003,1.353324e-002
2.825249e+003,1.322389e-002
2.827177e+003,1.298482e-002
2.829106e+003,1.270568e-002
2.831034e+003,1.221292e-002
2.832963e+003,1.183083e-002
2.834892e+003,1.153773e-002
2.836820e+003,1.105003e-002
2.838749e+003,1.062247e-002
2.840677e+003,1.013357e-002
2.842605e+003,9.536270e-003
2.844534e+003,8.963100e-003
2.846462e+003,8.507513e-003
2.848391e+003,8.086228e-003
2.850320e+003,7.811434e-003
2.852248e+003,7.591163e-003
2.854177e+003,7.308460e-003
2.856105e+003,7.002942e-003
2.858033e+003,6.791226e-003
2.859962e+003,6.689798e-003
2.861890e+003,6.612380e-003
2.863819e+003,6.570699e-003
2.865748e+003,6.558757e-003
2.867676e+003,6.522598e-003
2.869604e+003,6.489872e-003
2.871533e+003,6.462697e-003
2.873461e+003,6.602927e-003
2.875390e+003,6.693095e-003
2.877319e+003,6.689226e-003
2.879247e+003,6.938059e-003
2.881176e+003,7.217995e-003
2.883104e+003,7.241915e-003
2.885032e+003,7.060189e-003
2.886961e+003,6.958934e-003
2.888889e+003,6.973749e-003
2.890818e+003,7.068912e-003
2.892747e+003,7.048368e-003
2.894675e+003,6.940214e-003
2.896604e+003,6.840704e-003
2.898532e+003,6.817479e-003
2.900460e+003,6.759860e-003
2.902389e+003,6.760432e-003
2.904317e+003,6.725702e-003
2.906246e+003,6.683910e-003
2.908175e+003,6.730750e-003
2.910103e+003,6.782274e-003
2.912031e+003,6.795029e-003
2.913960e+003,6.877159e-003
2.915888e+003,6.828317e-003
2.917817e+003,6.841343e-003
2.919745e+003,6.897189e-003
2.921674e+003,7.007656e-003
2.923603e+003,7.062344e-003
2.925531e+003,7.206945e-003
2.927459e+003,7.355705e-003
2.929388e+003,7.457120e-003
2.931316e+003,7.591366e-003
2.933245e+003,7.714894e-003
2.935173e+003,7.826784e-003
2.937102e+003,7.830933e-003
2.939031e+003,7.713983e-003
2.940959e+003,7.636214e-003
2.942887e+003,7.583678e-003
2.944816e+003,7.427795e-003
2.946744e+003,7.152845e-003
2.948673e+003,6.800280e-003
2.950601e+003,6.452272e-003
2.952530e+003,6.149808e-003
2.954458e+003,5.673763e-003
2.956387e+003,5.233350e-003
2.958315e+003,4.714494e-003
2.960244e+003,4.122660e-003
2.962172e+003,3.676899e-003
2.964101e+003,3.287813e-003
2.966029e+003,2.833936e-003
2.967958e+003,2.349317e-003
2.969886e+003,1.943811e-003
2.971815e+003,1.469792e-003
2.973743e+003,9.954594e-004
2.975672e+003,6.748349e-004
2.977600e+003,4.909262e-004
2.979529e+003,3.554417e-004
2.981457e+003,-3.992468e-005
2.983386e+003,-3.803116e-004
2.985314e+003,-6.631682e-004
2.987243e+003,-8.440972e-004
2.989171e+003,-9.061976e-004
2.991100e+003,-9.776452e-004
2.993028e+003,-1.190001e-003
2.994957e+003,-1.365921e-003
2.996885e+003,-1.515983e-003
2.998814e+003,-1.575248e-003
3.000742e+003,-1.631797e-003
3.002671e+003,-1.784573e-003
3.004599e+003,-1.865839e-003
3.006528e+003,-1.846704e-003
3.008456e+003,-1.878706e-003
3.010385e+003,-1.942638e-003
3.012313e+003,-1.990663e-003
3.014242e+003,-1.997820e-003
3.016170e+003,-2.025755e-003
3.018099e+003,-2.093458e-003
3.020027e+003,-2.065032e-003
3.021956e+003,-2.093787e-003
3.023884e+003,-2.173678e-003
3.025813e+003,-2.261299e-003
3.027741e+003,-2.405649e-003
3.029670e+003,-2.359251e-003
3.031598e+003,-2.234863e-003
3.033527e+003,-2.309619e-003
3.035455e+003,-2.379781e-003
3.037384e+003,-2.375893e-003
3.039312e+003,-2.541188e-003
3.041241e+003,-2.691339e-003
3.043169e+003,-2.782972e-003
3.045098e+003,-2.813226e-003
3.047026e+003,-2.779054e-003
3.048955e+003,-2.759826e-003
3.050883e+003,-2.844861e-003
3.052812e+003,-2.904405e-003
3.054740e+003,-2.971806e-003
3.056669e+003,-3.017118e-003
3.058597e+003,-3.060419e-003
3.060526e+003,-3.086048e-003
3.062454e+003,-3.159243e-003
3.064383e+003,-3.201872e-003
3.066311e+003,-3.189110e-003
3.068240e+003,-3.185623e-003
3.070168e+003,-3.315527e-003
3.072097e+003,-3.514976e-003
3.074025e+003,-3.540415e-003
3.075954e+003,-3.439737e-003
3.077882e+003,-3.557635e-003
3.079811e+003,-3.722054e-003
3.081739e+003,-3.795438e-003
3.083668e+003,-3.819546e-003
3.085596e+003,-3.773891e-003
3.087525e+003,-3.818331e-003
3.089453e+003,-3.840599e-003
3.091382e+003,-3.893242e-003
3.093310e+003,-3.874622e-003
3.095239e+003,-3.820236e-003
3.097167e+003,-3.826115e-003
3.099096e+003,-3.933204e-003
3.101024e+003,-4.060685e-003
3.102953e+003,-4.112743e-003
3.104881e+003,-4.177857e-003
3.106810e+003,-4.178677e-003
3.108738e+003,-4.031338e-003
3.110667e+003,-4.047259e-003
3.112595e+003,-4.119373e-003
3.114524e+003,-4.120555e-003
3.116452e+003,-4.169357e-003
3.118381e+003,-4.298672e-003
3.120309e+003,-4.439098e-003
3.122238e+003,-4.486684e-003
3.124166e+003,-4.530724e-003
3.126095e+003,-4.511410e-003
3.128023e+003,-4.438213e-003
3.129952e+003,-4.342631e-003
3.131880e+003,-4.495965e-003
3.133809e+003,-4.548430e-003
3.135737e+003,-4.401019e-003
3.137666e+003,-4.240893e-003
3.139594e+003,-4.294702e-003
3.141523e+003,-4.420174e-003
3.143451e+003,-4.385898e-003
3.145380e+003,-4.336596e-003
3.147308e+003,-4.289190e-003
3.149237e+003,-4.445395e-003
3.151165e+003,-4.692841e-003
3.153094e+003,-4.744365e-003
3.155022e+003,-4.621740e-003
3.156951e+003,-4.580923e-003
3.158879e+003,-4.520001e-003
3.160808e+003,-4.387538e-003
3.162736e+003,-4.456677e-003
3.164665e+003,-4.480913e-003
3.166593e+003,-4.552791e-003
3.168522e+003,-4.593381e-003
3.170450e+003,-4.458809e-003
3.172379e+003,-4.364282e-003
3.174307e+003,-4.325048e-003
3.176236e+003,-4.259694e-003
3.178164e+003,-4.320750e-003
3.180093e+003,-4.321734e-003
3.182021e+003,-4.372417e-003
3.183950e+003,-4.446314e-003
3.185878e+003,-4.473239e-003
3.187807e+003,-4.415058e-003
3.189735e+003,-4.370678e-003
3.191664e+003,-4.504163e-003
3.193592e+003,-4.614986e-003
3.195521e+003,-4.527215e-003
3.197449e+003,-4.376517e-003
3.199378e+003,-4.311565e-003
3.201306e+003,-4.291585e-003
3.203235e+003,-4.424635e-003
3.205163e+003,-4.459858e-003
3.207092e+003,-4.434179e-003
3.209020e+003,-4.392524e-003
3.210948e+003,-4.327968e-003
3.212877e+003,-4.134996e-003
3.214806e+003,-4.113564e-003
3.216734e+003,-4.263074e-003
3.218663e+003,-4.307989e-003
3.220591e+003,-4.247587e-003
3.222520e+003,-4.079526e-003
3.224448e+003,-3.917870e-003
3.226376e+003,-3.699814e-003
3.228305e+003,-3.535781e-003
3.230234e+003,-3.506595e-003
3.232162e+003,-3.532231e-003
3.234091e+003,-3.526480e-003
3.236019e+003,-3.497787e-003
3.237948e+003,-3.419192e-003
3.239876e+003,-3.223645e-003
3.241804e+003,-3.168157e-003
3.243733e+003,-3.285044e-003
3.245662e+003,-3.190458e-003
3.247590e+003,-3.150296e-003
3.249519e+003,-3.087759e-003
3.251447e+003,-3.064005e-003
3.253375e+003,-3.135625e-003
3.255304e+003,-3.017217e-003
3.257232e+003,-2.703127e-003
3.259161e+003,-2.532492e-003
3.261090e+003,-2.577158e-003
3.263018e+003,-2.545141e-003
3.264947e+003,-2.579562e-003
3.266875e+003,-2.663085e-003
3.268803e+003,-2.590234e-003
3.270732e+003,-2.456950e-003
3.272660e+003,-2.279725e-003
3.274589e+003,-2.170480e-003
3.276518e+003,-2.278505e-003
3.278446e+003,-2.293502e-003
3.280375e+003,-2.320528e-003
3.282303e+003,-2.252169e-003
3.284231e+003,-2.275242e-003
3.286160e+003,-2.376025e-003
3.288088e+003,-2.381132e-003
3.290017e+003,-2.445748e-003
3.291946e+003,-2.470491e-003
3.293874e+003,-2.534237e-003
3.295802e+003,-2.638352e-003
3.297731e+003,-2.572777e-003
3.299659e+003,-2.628242e-003
3.301588e+003,-2.740993e-003
3.303516e+003,-2.910889e-003
3.305445e+003,-3.091345e-003
3.307374e+003,-3.340451e-003
3.309302e+003,-3.540612e-003
3.311230e+003,-3.596413e-003
3.313159e+003,-3.662130e-003
3.315087e+003,-3.729676e-003
3.317016e+003,-3.789986e-003
3.318944e+003,-3.912682e-003
3.320873e+003,-3.992008e-003
3.322802e+003,-4.147369e-003
3.324730e+003,-4.380519e-003
3.326658e+003,-4.525018e-003
3.328587e+003,-4.472649e-003
3.330515e+003,-4.351882e-003
3.332444e+003,-4.398756e-003
3.334372e+003,-4.607544e-003
3.336301e+003,-4.682647e-003
3.338229e+003,-4.644852e-003
3.340158e+003,-4.693562e-003
3.342086e+003,-4.881797e-003
3.344015e+003,-4.862172e-003
3.345943e+003,-4.824752e-003
3.347872e+003,-4.972380e-003
3.349800e+003,-5.066414e-003
3.351729e+003,-5.028750e-003
3.353657e+003,-5.149493e-003
3.355586e+003,-5.266960e-003
3.357514e+003,-5.403900e-003
3.359443e+003,-5.469508e-003
3.361371e+003,-5.463160e-003
3.363300e+003,-5.590945e-003
3.365229e+003,-5.836725e-003
3.367157e+003,-5.924363e-003
3.369085e+003,-6.001330e-003
3.371014e+003,-6.036589e-003
3.372942e+003,-6.077139e-003
3.374871e+003,-6.211799e-003
3.376799e+003,-6.309354e-003
3.378728e+003,-6.458795e-003
3.380656e+003,-6.625611e-003
3.382585e+003,-6.871851e-003
3.384513e+003,-7.106216e-003
3.386442e+003,-7.100805e-003
3.388370e+003,-6.939258e-003
3.390299e+003,-6.947997e-003
3.392227e+003,-7.047343e-003
3.394156e+003,-7.137083e-003
3.396084e+003,-7.256622e-003
3.398013e+003,-7.221722e-003
3.399941e+003,-7.193500e-003
3.401870e+003,-7.345309e-003
3.403798e+003,-7.382186e-003
3.405727e+003,-7.356125e-003
3.407655e+003,-7.309374e-003
3.409584e+003,-7.198323e-003
3.411512e+003,-7.289792e-003
3.413441e+003,-7.502341e-003
3.415369e+003,-7.528491e-003
3.417298e+003,-7.451632e-003
3.419226e+003,-7.478665e-003
3.421155e+003,-7.670417e-003
3.423083e+003,-7.660390e-003
3.425012e+003,-7.562064e-003
3.426940e+003,-7.682071e-003
3.428869e+003,-7.608202e-003
3.430797e+003,-7.560501e-003
3.432726e+003,-7.635843e-003
3.434654e+003,-7.745936e-003
3.436583e+003,-7.960962e-003
3.438511e+003,-7.979115e-003
3.440440e+003,-7.746912e-003
3.442368e+003,-7.692358e-003
3.444297e+003,-7.789418e-003
3.446225e+003,-7.792673e-003
3.448154e+003,-7.879526e-003
3.450082e+003,-7.936269e-003
3.452011e+003,-7.957156e-003
3.453939e+003,-8.107754e-003
3.455868e+003,-8.336513e-003
3.457796e+003,-8.276572e-003
3.459725e+003,-8.064499e-003
3.461653e+003,-8.062158e-003
3.463582e+003,-8.167232e-003
3.465510e+003,-8.227156e-003
3.467439e+003,-8.310054e-003
3.469367e+003,-8.450458e-003
3.471296e+003,-8.411819e-003
3.473224e+003,-8.242274e-003
3.475153e+003,-8.281838e-003
3.477081e+003,-8.328940e-003
3.479010e+003,-8.407595e-003
3.480938e+003,-8.410844e-003
3.482867e+003,-8.451206e-003
3.484795e+003,-8.373665e-003
3.486724e+003,-8.249849e-003
3.488652e+003,-8.351628e-003
3.490581e+003,-8.476291e-003
3.492509e+003,-8.539292e-003
3.494438e+003,-8.455982e-003
3.496366e+003,-8.217045e-003
3.498295e+003,-8.329038e-003
3.500223e+003,-8.637657e-003
3.502152e+003,-8.767531e-003
3.504080e+003,-8.777175e-003
3.506009e+003,-8.615991e-003
3.507937e+003,-8.451887e-003
3.509866e+003,-8.515704e-003
3.511794e+003,-8.542053e-003
3.513723e+003,-8.547836e-003
3.515651e+003,-8.683940e-003
3.517580e+003,-8.643114e-003
3.519508e+003,-8.570057e-003
3.521437e+003,-8.578147e-003
3.523365e+003,-8.768700e-003
3.525294e+003,-8.782858e-003
3.527222e+003,-8.771428e-003
3.529151e+003,-8.747593e-003
3.531079e+003,-8.691248e-003
3.533008e+003,-8.645843e-003
3.534936e+003,-8.657211e-003
3.536865e+003,-8.585099e-003
3.538793e+003,-8.452700e-003
3.540722e+003,-8.398039e-003
3.542650e+003,-8.517361e-003
3.544579e+003,-8.578147e-003
3.546507e+003,-8.673255e-003
3.548436e+003,-8.730025e-003
3.550364e+003,-8.743274e-003
3.552293e+003,-8.793768e-003
3.554221e+003,-8.778182e-003
3.556150e+003,-8.806203e-003
3.558078e+003,-8.804905e-003
3.560007e+003,-8.796592e-003
3.561935e+003,-8.637202e-003
3.563864e+003,-8.781851e-003
3.565792e+003,-8.885031e-003
3.567721e+003,-8.684980e-003
3.569649e+003,-8.683259e-003
3.571578e+003,-8.801074e-003
3.573506e+003,-8.677575e-003
3.575435e+003,-8.453058e-003
3.577363e+003,-8.388647e-003
3.579292e+003,-8.513755e-003
3.581220e+003,-8.714794e-003
3.583149e+003,-8.881200e-003
3.585077e+003,-8.883181e-003
3.587006e+003,-8.867176e-003
3.588934e+003,-8.749477e-003
3.590863e+003,-8.530974e-003
3.592791e+003,-8.665396e-003
3.594720e+003,-8.873604e-003
3.596648e+003,-8.777889e-003
3.598577e+003,-8.591238e-003
3.600505e+003,-8.524477e-003
3.602434e+003,-8.540331e-003
3.604362e+003,-8.463391e-003
3.606291e+003,-8.679394e-003
3.608219e+003,-8.872954e-003
3.610148e+003,-8.774643e-003
3.612076e+003,-8.821496e-003
3.614005e+003,-8.882954e-003
3.615933e+003,-8.874026e-003
3.617862e+003,-8.756815e-003
3.619790e+003,-8.522462e-003
3.621719e+003,-8.657665e-003
3.623647e+003,-8.765810e-003
3.625576e+003,-8.662635e-003
3.627504e+003,-8.787014e-003
3.629433e+003,-8.890257e-003
3.631361e+003,-8.691670e-003
3.633290e+003,-8.596469e-003
3.635218e+003,-8.568889e-003
3.637146e+003,-8.677607e-003
3.639075e+003,-8.716743e-003
3.641004e+003,-8.538642e-003
3.642932e+003,-8.554594e-003
3.644861e+003,-8.789287e-003
3.646789e+003,-8.944564e-003
3.648718e+003,-9.131810e-003
3.650646e+003,-9.073049e-003
3.652574e+003,-8.825198e-003
3.654503e+003,-8.804873e-003
3.656432e+003,-8.758244e-003
3.658360e+003,-8.867825e-003
3.660289e+003,-8.924829e-003
3.662217e+003,-9.009866e-003
3.664146e+003,-9.022555e-003
3.666074e+003,-8.995684e-003
3.668002e+003,-9.076261e-003
3.669931e+003,-9.333731e-003
3.671860e+003,-9.507810e-003
3.673788e+003,-9.532543e-003
3.675717e+003,-9.227674e-003
3.677645e+003,-8.926809e-003
3.679573e+003,-9.047608e-003
3.681502e+003,-9.089792e-003
3.683430e+003,-9.052767e-003
3.685359e+003,-8.941838e-003
3.687288e+003,-8.942065e-003
3.689216e+003,-9.014994e-003
3.691145e+003,-8.960598e-003
3.693073e+003,-8.934729e-003
3.695001e+003,-9.001623e-003
3.696930e+003,-8.914896e-003
3.698858e+003,-8.848606e-003
3.700787e+003,-8.753926e-003
3.702716e+003,-8.754802e-003
3.704644e+003,-8.744151e-003
3.706573e+003,-8.810651e-003
3.708501e+003,-8.898211e-003
3.710429e+003,-8.949076e-003
3.712358e+003,-8.889738e-003
3.714286e+003,-8.747334e-003
3.716215e+003,-8.782695e-003
3.718144e+003,-8.608780e-003
3.720072e+003,-8.528733e-003
3.722000e+003,-8.568889e-003
3.723929e+003,-8.628952e-003
3.725857e+003,-8.705733e-003
3.727786e+003,-8.547934e-003
3.729714e+003,-8.646654e-003
3.731643e+003,-8.957190e-003
3.733572e+003,-8.864968e-003
3.735500e+003,-8.672801e-003
3.737428e+003,-8.602381e-003
3.739357e+003,-8.557063e-003
3.741285e+003,-8.469532e-003
3.743214e+003,-8.753113e-003
3.745142e+003,-8.682902e-003
3.747071e+003,-8.636163e-003
3.749000e+003,-8.622942e-003
3.750928e+003,-8.417863e-003
3.752856e+003,-8.136047e-003
3.754785e+003,-8.200463e-003
3.756713e+003,-8.034414e-003
3.758642e+003,-7.887010e-003
3.760570e+003,-7.961059e-003
3.762499e+003,-8.028005e-003
3.764427e+003,-8.098811e-003
3.766356e+003,-8.106941e-003
3.768284e+003,-8.055815e-003
3.770213e+003,-7.837224e-003
3.772141e+003,-7.798173e-003
3.774070e+003,-7.813631e-003
3.775998e+003,-7.829446e-003
3.777927e+003,-8.025208e-003
3.779855e+003,-8.096502e-003
3.781784e+003,-8.021467e-003
3.783712e+003,-7.934480e-003
3.785641e+003,-7.670059e-003
3.787569e+003,-7.710847e-003
3.789498e+003,-7.732981e-003
3.791426e+003,-7.692488e-003
3.793355e+003,-7.745643e-003
3.795283e+003,-7.636429e-003
3.797212e+003,-7.827527e-003
3.799140e+003,-8.128471e-003
3.801069e+003,-8.090680e-003
3.802997e+003,-7.754073e-003
3.804926e+003,-7.843993e-003
3.806854e+003,-7.898951e-003
3.808783e+003,-7.889645e-003
3.810711e+003,-7.912876e-003
3.812640e+003,-7.958034e-003
3.814568e+003,-8.044236e-003
3.816497e+003,-7.702677e-003
3.818425e+003,-7.625393e-003
3.820354e+003,-7.538260e-003
3.822282e+003,-7.363292e-003
3.824211e+003,-7.428539e-003
3.826139e+003,-7.561543e-003
3.828068e+003,-7.530315e-003
3.829996e+003,-7.536665e-003
3.831925e+003,-7.477752e-003
3.833853e+003,-7.407106e-003
3.835782e+003,-7.611523e-003
3.837710e+003,-7.801980e-003
3.839639e+003,-7.718790e-003
3.841567e+003,-7.442838e-003
3.843496e+003,-7.524876e-003
3.845424e+003,-7.332995e-003
3.847353e+003,-7.224264e-003
3.849281e+003,-7.261510e-003
3.851210e+003,-7.356712e-003
3.853138e+003,-7.698152e-003
3.855067e+003,-7.552295e-003
3.856995e+003,-7.421503e-003
3.858924e+003,-7.425933e-003
3.860852e+003,-7.364465e-003
3.862781e+003,-7.336773e-003
3.864709e+003,-7.260565e-003
3.866638e+003,-7.312437e-003
3.868566e+003,-7.520936e-003
3.870495e+003,-7.376583e-003
3.872423e+003,-7.485439e-003
3.874352e+003,-7.503090e-003
3.876280e+003,-7.326642e-003
3.878209e+003,-7.313055e-003
3.880137e+003,-7.401373e-003
3.882066e+003,-7.491399e-003
3.883994e+003,-7.747530e-003
3.885923e+003,-7.418148e-003
3.887851e+003,-7.256948e-003
3.889780e+003,-7.353910e-003
3.891708e+003,-7.417692e-003
3.893637e+003,-7.451176e-003
3.895565e+003,-7.371013e-003
3.897494e+003,-7.321689e-003
3.899422e+003,-7.182289e-003
3.901351e+003,-7.201289e-003
3.903279e+003,-7.199822e-003
3.905208e+003,-7.107390e-003
3.907136e+003,-7.141288e-003
3.909065e+003,-7.028597e-003
3.910993e+003,-7.093014e-003
3.912922e+003,-7.217388e-003
3.914850e+003,-7.288456e-003
3.916779e+003,-7.440688e-003
3.918707e+003,-7.289890e-003
3.920636e+003,-7.156770e-003
3.922564e+003,-7.253135e-003
3.924493e+003,-7.197835e-003
3.926421e+003,-7.226252e-003
3.928350e+003,-7.283927e-003
3.930278e+003,-7.163712e-003
3.932207e+003,-7.049169e-003
3.934135e+003,-6.889755e-003
3.936064e+003,-6.729566e-003
3.937992e+003,-6.819633e-003
3.939921e+003,-6.991234e-003
3.941849e+003,-6.998113e-003
3.943778e+003,-7.015426e-003
3.945706e+003,-7.142722e-003
3.947635e+003,-7.100903e-003
3.949563e+003,-6.846933e-003
3.951492e+003,-6.755208e-003
3.953420e+003,-6.792168e-003
3.955349e+003,-6.758372e-003
3.957277e+003,-6.752891e-003
3.959206e+003,-6.907529e-003
3.961134e+003,-7.073358e-003
3.963063e+003,-6.795103e-003
3.964991e+003,-6.895495e-003
3.966920e+003,-7.068631e-003
3.968848e+003,-7.037498e-003
3.970777e+003,-7.011350e-003
3.972705e+003,-6.893767e-003
3.974634e+003,-6.784600e-003
3.976562e+003,-6.737722e-003
3.978491e+003,-6.819372e-003
3.980419e+003,-6.740169e-003
3.982348e+003,-6.873253e-003
3.984276e+003,-7.049625e-003
3.986205e+003,-7.103217e-003
3.988133e+003,-6.789460e-003
3.990062e+003,-6.651064e-003
3.991990e+003,-6.736253e-003
3.993919e+003,-6.593337e-003
3.995847e+003,-6.682421e-003
3.997776e+003,-6.927454e-003
3.999704e+003,-6.968834e-003
4.001633e+003,0.000000e+000
