3.991989e+002,3.600863e-002
4.011274e+002,3.389714e-002
4.030559e+002,2.540387e-002
4.049844e+002,2.317833e-002
4.069129e+002,1.700729e-002
4.088414e+002,1.776383e-002
4.107699e+002,2.230726e-002
4.126984e+002,2.147153e-002
4.146269e+002,1.800618e-002
4.165554e+002,2.199791e-002
4.184839e+002,2.541033e-002
4.204124e+002,2.319668e-002
4.223409e+002,2.344809e-002
4.242694e+002,2.333690e-002
4.261979e+002,1.783467e-002
4.281264e+002,1.564862e-002
4.300549e+002,1.452287e-002
4.319834e+002,8.895388e-003
4.339119e+002,1.115225e-002
4.358404e+002,1.826248e-002
4.377689e+002,1.779387e-002
4.396974e+002,1.382358e-002
4.416259e+002,1.107485e-002
4.435544e+002,1.290405e-002
4.454829e+002,1.672393e-002
4.474114e+002,2.135872e-002
4.493399e+002,1.885032e-002
4.512684e+002,1.279354e-002
4.531969e+002,1.098842e-002
4.551254e+002,1.349403e-002
4.570539e+002,1.507883e-002
4.589824e+002,1.232059e-002
4.609109e+002,1.419963e-002
4.628394e+002,1.646682e-002
4.647679e+002,1.498035e-002
4.666964e+002,1.276501e-002
4.686249e+002,1.104385e-002
4.705533e+002,1.193251e-002
4.724819e+002,1.340118e-002
4.744103e+002,1.343474e-002
4.763389e+002,1.589618e-002
4.782673e+002,1.499064e-002
4.801959e+002,1.396819e-002
4.821243e+002,1.705243e-002
4.840529e+002,1.434879e-002
4.859813e+002,9.180819e-003
4.879099e+002,6.959237e-003
4.898383e+002,6.861136e-003
4.917668e+002,6.371265e-003
4.936953e+002,9.663943e-003
4.956238e+002,1.375295e-002
4.975523e+002,1.424726e-002
4.994808e+002,1.062872e-002
5.014093e+002,9.759258e-003
5.033378e+002,1.252626e-002
5.052663e+002,1.405618e-002
5.071948e+002,1.049893e-002
5.091233e+002,8.969425e-003
5.110518e+002,1.028031e-002
5.129803e+002,1.068628e-002
5.149088e+002,8.434534e-003
5.168373e+002,7.356110e-003
5.187658e+002,7.710104e-003
5.206943e+002,7.989424e-003
5.226228e+002,7.367804e-003
5.245513e+002,7.575249e-003
5.264798e+002,9.027169e-003
5.284083e+002,1.011515e-002
5.303368e+002,8.823019e-003
5.322653e+002,7.050894e-003
5.341938e+002,5.571791e-003
5.361223e+002,5.091853e-003
5.380508e+002,5.446757e-003
5.399792e+002,6.880390e-003
5.419078e+002,6.491251e-003
5.438363e+002,6.211783e-003
5.457648e+002,6.504906e-003
5.476932e+002,7.195828e-003
5.496218e+002,7.443064e-003
5.515503e+002,7.693983e-003
5.534788e+002,7.387182e-003
5.554072e+002,7.482571e-003
5.573358e+002,7.357289e-003
5.592643e+002,7.619892e-003
5.611927e+002,6.648615e-003
5.631212e+002,6.011640e-003
5.650497e+002,6.601413e-003
5.669783e+002,8.023783e-003
5.689067e+002,9.379414e-003
5.708352e+002,9.468434e-003
5.727637e+002,7.265365e-003
5.746923e+002,5.482760e-003
5.766207e+002,6.761610e-003
5.785492e+002,8.842193e-003
5.804777e+002,4.421606e-003
5.824063e+002,1.589629e-003
5.843347e+002,6.050680e-003
5.862632e+002,9.107050e-003
5.881917e+002,9.357950e-003
5.901202e+002,7.627008e-003
5.920487e+002,5.397572e-003
5.939772e+002,5.759744e-003
5.959057e+002,6.686635e-003
5.978342e+002,7.557649e-003
5.997627e+002,7.824455e-003
6.016912e+002,6.846527e-003
6.036197e+002,6.361111e-003
6.055482e+002,6.997386e-003
6.074767e+002,7.017489e-003
6.094052e+002,7.540218e-003
6.113337e+002,8.902084e-003
6.132622e+002,7.395372e-003
6.151907e+002,6.964388e-003
6.171192e+002,7.392305e-003
6.190477e+002,6.830707e-003
6.209762e+002,7.451828e-003
6.229047e+002,7.616689e-003
6.248332e+002,5.528263e-003
6.267617e+002,4.328761e-003
6.286902e+002,4.393623e-003
6.306187e+002,4.956902e-003
6.325472e+002,5.974988e-003
6.344756e+002,6.603835e-003
6.364042e+002,5.916037e-003
6.383326e+002,5.211486e-003
6.402612e+002,5.208266e-003
6.421896e+002,6.162344e-003
6.441182e+002,6.025280e-003
6.460466e+002,5.269738e-003
6.479752e+002,5.307403e-003
6.499036e+002,5.172085e-003
6.518322e+002,5.211620e-003
6.537606e+002,5.572764e-003
6.556891e+002,5.522659e-003
6.576177e+002,5.089673e-003
6.595461e+002,5.323973e-003
6.614746e+002,4.975403e-003
6.634031e+002,4.677650e-003
6.653317e+002,5.878889e-003
6.672601e+002,1.092280e-002
6.691886e+002,9.971036e-003
6.711171e+002,6.157941e-003
6.730457e+002,5.815014e-003
6.749741e+002,5.738289e-003
6.769026e+002,5.547090e-003
6.788311e+002,5.583772e-003
6.807596e+002,5.957016e-003
6.826881e+002,5.788117e-003
6.846166e+002,5.834659e-003
6.865451e+002,5.823410e-003
6.884736e+002,5.762531e-003
6.904021e+002,5.427230e-003
6.923306e+002,5.031679e-003
6.942591e+002,5.362281e-003
6.961876e+002,6.131728e-003
6.981161e+002,6.054746e-003
7.000446e+002,5.462124e-003
7.019731e+002,5.141774e-003
7.039016e+002,5.109688e-003
7.058301e+002,5.034428e-003
7.077585e+002,4.988240e-003
7.096871e+002,5.016696e-003
7.116156e+002,5.209339e-003
7.135441e+002,4.842633e-003
7.154725e+002,4.845481e-003
7.174011e+002,5.176578e-003
7.193296e+002,5.638651e-003
7.212581e+002,6.012144e-003
7.231865e+002,5.993028e-003
7.251151e+002,5.854507e-003
7.270436e+002,6.007541e-003
7.289720e+002,6.199616e-003
7.309005e+002,6.345880e-003
7.328290e+002,6.224052e-003
7.347576e+002,6.070605e-003
7.366860e+002,5.788654e-003
7.386145e+002,5.603004e-003
7.405430e+002,5.851652e-003
7.424716e+002,6.335793e-003
7.444000e+002,6.445243e-003
7.463285e+002,6.500332e-003
7.482570e+002,6.224758e-003
7.501855e+002,6.425907e-003
7.521140e+002,7.292354e-003
7.540425e+002,7.542882e-003
7.559710e+002,7.582599e-003
7.578995e+002,7.969985e-003
7.598280e+002,7.850096e-003
7.617565e+002,7.631627e-003
7.636850e+002,7.900538e-003
7.656135e+002,7.904924e-003
7.675420e+002,8.034280e-003
7.694705e+002,8.092912e-003
7.713990e+002,7.707878e-003
7.733275e+002,7.639080e-003
7.752560e+002,7.469896e-003
7.771844e+002,7.388126e-003
7.791130e+002,7.068070e-003
7.810415e+002,7.210651e-003
7.829700e+002,7.229113e-003
7.848984e+002,6.950921e-003
7.868270e+002,7.183700e-003
7.887555e+002,7.552828e-003
7.906840e+002,7.382767e-003
7.926124e+002,7.548141e-003
7.945410e+002,7.585229e-003
7.964695e+002,7.437098e-003
7.983979e+002,7.541229e-003
8.003264e+002,7.560245e-003
8.022549e+002,7.339765e-003
8.041835e+002,7.473368e-003
8.061119e+002,7.739853e-003
8.080404e+002,8.270477e-003
8.099689e+002,8.656450e-003
8.118975e+002,9.031465e-003
8.138259e+002,9.089590e-003
8.157545e+002,9.018983e-003
8.176830e+002,9.118959e-003
8.196115e+002,8.556038e-003
8.215399e+002,7.765151e-003
8.234684e+002,7.311931e-003
8.253970e+002,7.055037e-003
8.273254e+002,6.722169e-003
8.292539e+002,6.024709e-003
8.311824e+002,5.624989e-003
8.331110e+002,5.756319e-003
8.350394e+002,5.769481e-003
8.369679e+002,5.752995e-003
8.388964e+002,5.789829e-003
8.408250e+002,5.845741e-003
8.427534e+002,5.709920e-003
8.446819e+002,5.463399e-003
8.466104e+002,5.281409e-003
8.485389e+002,4.971113e-003
8.504674e+002,5.016327e-003
8.523959e+002,5.257127e-003
8.543244e+002,5.289962e-003
8.562529e+002,5.273192e-003
8.581814e+002,5.520913e-003
8.601099e+002,5.786337e-003
8.620384e+002,5.747623e-003
8.639669e+002,5.578435e-003
8.658954e+002,5.426089e-003
8.678239e+002,5.305022e-003
8.697524e+002,5.472022e-003
8.716809e+002,5.432330e-003
8.736094e+002,5.537424e-003
8.755378e+002,5.659933e-003
8.774664e+002,5.774484e-003
8.793949e+002,5.464036e-003
8.813234e+002,5.216851e-003
8.832518e+002,5.434041e-003
8.851804e+002,5.132419e-003
8.871089e+002,4.910488e-003
8.890374e+002,4.887030e-003
8.909658e+002,4.785008e-003
8.928943e+002,4.805075e-003
8.948229e+002,4.586827e-003
8.967513e+002,4.465993e-003
8.986798e+002,4.429739e-003
9.006083e+002,4.226936e-003
9.025369e+002,4.408016e-003
9.044653e+002,4.584315e-003
9.063938e+002,4.508310e-003
9.083223e+002,4.286630e-003
9.102509e+002,4.035096e-003
9.121793e+002,4.280539e-003
9.141078e+002,4.121455e-003
9.160364e+002,3.793168e-003
9.179648e+002,3.908966e-003
9.198933e+002,4.163003e-003
9.218218e+002,4.527527e-003
9.237504e+002,4.649182e-003
9.256788e+002,4.404401e-003
9.276073e+002,4.125135e-003
9.295358e+002,3.922374e-003
9.314644e+002,3.921036e-003
9.333928e+002,4.130153e-003
9.353213e+002,4.381842e-003
9.372498e+002,4.443732e-003
9.391783e+002,4.203985e-003
9.411068e+002,4.294895e-003
9.430353e+002,4.529838e-003
9.449637e+002,4.812211e-003
9.468923e+002,5.013579e-003
9.488208e+002,4.738410e-003
9.507493e+002,4.685085e-003
9.526777e+002,4.782395e-003
9.546063e+002,5.016160e-003
9.565348e+002,5.108615e-003
9.584633e+002,4.596170e-003
9.603917e+002,4.642752e-003
9.623203e+002,4.647675e-003
9.642488e+002,4.370462e-003
9.661772e+002,4.369357e-003
9.681057e+002,4.360789e-003
9.700343e+002,4.230215e-003
9.719628e+002,4.562215e-003
9.738912e+002,4.255142e-003
9.758197e+002,3.561195e-003
9.777483e+002,3.340265e-003
9.796768e+002,3.482864e-003
9.816052e+002,3.682513e-003
9.835337e+002,3.885296e-003
9.854623e+002,3.989850e-003
9.873907e+002,4.131725e-003
9.893192e+002,4.022488e-003
9.912477e+002,3.720208e-003
9.931763e+002,3.641546e-003
9.951047e+002,3.886466e-003
9.970332e+002,3.956378e-003
9.989617e+002,4.204921e-003
1.000890e+003,4.557595e-003
1.002819e+003,4.761993e-003
1.004747e+003,4.732146e-003
1.006676e+003,4.980396e-003
1.008604e+003,5.316996e-003
1.010533e+003,5.551620e-003
1.012461e+003,5.818876e-003
1.014390e+003,5.946133e-003
1.016318e+003,6.346418e-003
1.018247e+003,6.659516e-003
1.020175e+003,6.574500e-003
1.022104e+003,6.702417e-003
1.024032e+003,7.181141e-003
1.025961e+003,7.688351e-003
1.027889e+003,7.605899e-003
1.029818e+003,7.639721e-003
1.031746e+003,7.758067e-003
1.033675e+003,7.818788e-003
1.035603e+003,7.980481e-003
1.037532e+003,8.375823e-003
1.039460e+003,8.661959e-003
1.041389e+003,8.585879e-003
1.043317e+003,8.687547e-003
1.045246e+003,8.846352e-003
1.047174e+003,8.977950e-003
1.049103e+003,8.929953e-003
1.051031e+003,8.742414e-003
1.052960e+003,8.670072e-003
1.054888e+003,8.884363e-003
1.056817e+003,9.069797e-003
1.058745e+003,9.109722e-003
1.060674e+003,9.320100e-003
1.062602e+003,9.463829e-003
1.064531e+003,9.238658e-003
1.066459e+003,9.259542e-003
1.068388e+003,9.332999e-003
1.070316e+003,9.350196e-003
1.072245e+003,9.519031e-003
1.074173e+003,9.555881e-003
1.076102e+003,9.556017e-003
1.078030e+003,9.657574e-003
1.079959e+003,9.519878e-003
1.081887e+003,9.374370e-003
1.083816e+003,9.651578e-003
1.085744e+003,9.853846e-003
1.087673e+003,9.720527e-003
1.089601e+003,9.782945e-003
1.091530e+003,1.015368e-002
1.093458e+003,1.049951e-002
1.095387e+003,1.045338e-002
1.097315e+003,1.023278e-002
1.099244e+003,1.027186e-002
1.101172e+003,1.047782e-002
1.103101e+003,1.033236e-002
1.105029e+003,1.032435e-002
1.106958e+003,1.036653e-002
1.108886e+003,1.042232e-002
1.110815e+003,1.034505e-002
1.112743e+003,1.007160e-002
1.114672e+003,1.006262e-002
1.116600e+003,1.042833e-002
1.118529e+003,1.072425e-002
1.120457e+003,1.070845e-002
1.122386e+003,1.068298e-002
1.124314e+003,1.063700e-002
1.126243e+003,1.035805e-002
1.128171e+003,1.010603e-002
1.130100e+003,1.021083e-002
1.132028e+003,1.020819e-002
1.133957e+003,1.000772e-002
1.135885e+003,1.000728e-002
1.137814e+003,9.774507e-003
1.139742e+003,9.201394e-003
1.141671e+003,9.024699e-003
1.143599e+003,8.811590e-003
1.145528e+003,8.398320e-003
1.147456e+003,8.209660e-003
1.149385e+003,7.967016e-003
1.151313e+003,7.638068e-003
1.153242e+003,7.374072e-003
1.155170e+003,7.201555e-003
1.157099e+003,7.052982e-003
1.159027e+003,6.817075e-003
1.160956e+003,6.603936e-003
1.162884e+003,6.588259e-003
1.164813e+003,6.371466e-003
1.166741e+003,6.221699e-003
1.168670e+003,6.152799e-003
1.170598e+003,6.123730e-003
1.172526e+003,6.032201e-003
1.174455e+003,5.906061e-003
1.176384e+003,5.975392e-003
1.178312e+003,5.941464e-003
1.180240e+003,5.644760e-003
1.182169e+003,5.479337e-003
1.184098e+003,5.392372e-003
1.186026e+003,5.254579e-003
1.187954e+003,5.275674e-003
1.189883e+003,5.221143e-003
1.191812e+003,5.176678e-003
1.193740e+003,5.156124e-003
1.195668e+003,4.910588e-003
1.197597e+003,4.725648e-003
1.199526e+003,4.710273e-003
1.201454e+003,4.716771e-003
1.203382e+003,4.902780e-003
1.205311e+003,5.078945e-003
1.207240e+003,5.076163e-003
1.209168e+003,4.970510e-003
1.211096e+003,4.913939e-003
1.213025e+003,5.196798e-003
1.214953e+003,5.335546e-003
1.216882e+003,5.123937e-003
1.218810e+003,4.958980e-003
1.220739e+003,4.970308e-003
1.222667e+003,5.079884e-003
1.224596e+003,5.134330e-003
1.226524e+003,5.065938e-003
1.228453e+003,5.064597e-003
1.230381e+003,5.080789e-003
1.232310e+003,5.073682e-003
1.234238e+003,5.034897e-003
1.236167e+003,5.030439e-003
1.238095e+003,5.084443e-003
1.240024e+003,5.237810e-003
1.241952e+003,5.531518e-003
1.243881e+003,5.502088e-003
1.245809e+003,5.492357e-003
1.247738e+003,5.664431e-003
1.249666e+003,5.945999e-003
1.251595e+003,6.190239e-003
1.253523e+003,6.317806e-003
1.255452e+003,6.465018e-003
1.257380e+003,6.746701e-003
1.259309e+003,7.138630e-003
1.261237e+003,7.570562e-003
1.263166e+003,7.903372e-003
1.265094e+003,8.252140e-003
1.267023e+003,8.639312e-003
1.268951e+003,8.947710e-003
1.270880e+003,9.285639e-003
1.272808e+003,9.583013e-003
1.274737e+003,9.877065e-003
1.276665e+003,1.026701e-002
1.278594e+003,1.066054e-002
1.280522e+003,1.104704e-002
1.282451e+003,1.135974e-002
1.284379e+003,1.173696e-002
1.286308e+003,1.213537e-002
1.288236e+003,1.258495e-002
1.290165e+003,1.312345e-002
1.292093e+003,1.357464e-002
1.294022e+003,1.394353e-002
1.295950e+003,1.430773e-002
1.297879e+003,1.454366e-002
1.299807e+003,1.453482e-002
1.301736e+003,1.450145e-002
1.303664e+003,1.429519e-002
1.305593e+003,1.404067e-002
1.307521e+003,1.399553e-002
1.309450e+003,1.383884e-002
1.311378e+003,1.336742e-002
1.313307e+003,1.294211e-002
1.315235e+003,1.264942e-002
1.317164e+003,1.244216e-002
1.319092e+003,1.192263e-002
1.321021e+003,1.135607e-002
1.322949e+003,1.106570e-002
1.324878e+003,1.081375e-002
1.326806e+003,1.040267e-002
1.328735e+003,1.016460e-002
1.330663e+003,1.014255e-002
1.332592e+003,1.014194e-002
1.334520e+003,1.004417e-002
1.336449e+003,1.000440e-002
1.338377e+003,1.007747e-002
1.340306e+003,1.005394e-002
1.342234e+003,1.000358e-002
1.344163e+003,9.968730e-003
1.346091e+003,9.831714e-003
1.348020e+003,9.816903e-003
1.349948e+003,9.669432e-003
1.351877e+003,9.581624e-003
1.353805e+003,9.648698e-003
1.355734e+003,9.570547e-003
1.357662e+003,9.462847e-003
1.359591e+003,9.389369e-003
1.361519e+003,9.355376e-003
1.363448e+003,9.247188e-003
1.365376e+003,8.926300e-003
1.367305e+003,8.794785e-003
1.369233e+003,8.737478e-003
1.371162e+003,8.747553e-003
1.373090e+003,9.050884e-003
1.375019e+003,9.088913e-003
1.376947e+003,8.953189e-003
1.378876e+003,9.009612e-003
1.380804e+003,9.086139e-003
1.382733e+003,9.078357e-003
1.384661e+003,9.017088e-003
1.386590e+003,9.028354e-003
1.388518e+003,8.721488e-003
1.390447e+003,8.234513e-003
1.392375e+003,8.060304e-003
1.394304e+003,8.115631e-003
1.396232e+003,7.972786e-003
1.398161e+003,7.845238e-003
1.400089e+003,7.784749e-003
1.402018e+003,7.707507e-003
1.403946e+003,7.603471e-003
1.405875e+003,7.466963e-003
1.407803e+003,7.273889e-003
1.409732e+003,7.117983e-003
1.411660e+003,7.110001e-003
1.413589e+003,7.163220e-003
1.415517e+003,7.421931e-003
1.417446e+003,8.089367e-003
1.419374e+003,8.845168e-003
1.421303e+003,9.196622e-003
1.423231e+003,9.764849e-003
1.425160e+003,1.034298e-002
1.427088e+003,1.061015e-002
1.429017e+003,1.110636e-002
1.430945e+003,1.144798e-002
1.432874e+003,1.170210e-002
1.434802e+003,1.250228e-002
1.436731e+003,1.326014e-002
1.438659e+003,1.325365e-002
1.440588e+003,1.346707e-002
1.442516e+003,1.400943e-002
1.444445e+003,1.461462e-002
1.446373e+003,1.527921e-002
1.448302e+003,1.587271e-002
1.450230e+003,1.631308e-002
1.452159e+003,1.684192e-002
1.454087e+003,1.769757e-002
1.456016e+003,1.901620e-002
1.457944e+003,1.955002e-002
1.459873e+003,1.923099e-002
1.461801e+003,1.919130e-002
1.463730e+003,1.941234e-002
1.465658e+003,1.949411e-002
1.467587e+003,1.924325e-002
1.469515e+003,1.928758e-002
1.471444e+003,1.956447e-002
1.473372e+003,1.934769e-002
1.475301e+003,1.873742e-002
1.477229e+003,1.803163e-002
1.479158e+003,1.733913e-002
1.481086e+003,1.685188e-002
1.483015e+003,1.612133e-002
1.484943e+003,1.554514e-002
1.486872e+003,1.533605e-002
1.488800e+003,1.505828e-002
1.490729e+003,1.446613e-002
1.492657e+003,1.362544e-002
1.494586e+003,1.317870e-002
1.496514e+003,1.307625e-002
1.498443e+003,1.261510e-002
1.500371e+003,1.175705e-002
1.502300e+003,1.122521e-002
1.504228e+003,1.148832e-002
1.506157e+003,1.205196e-002
1.508085e+003,1.137229e-002
1.510014e+003,1.047744e-002
1.511942e+003,1.010813e-002
1.513871e+003,9.926522e-003
1.515799e+003,1.009558e-002
1.517728e+003,1.013957e-002
1.519656e+003,1.033684e-002
1.521585e+003,1.062909e-002
1.523513e+003,1.032147e-002
1.525442e+003,1.038424e-002
1.527370e+003,1.036779e-002
1.529299e+003,1.038275e-002
1.531227e+003,1.061833e-002
1.533156e+003,1.126288e-002
1.535084e+003,1.139334e-002
1.537013e+003,1.168689e-002
1.538941e+003,1.288965e-002
1.540870e+003,1.353666e-002
1.542798e+003,1.337469e-002
1.544727e+003,1.319906e-002
1.546655e+003,1.300923e-002
1.548584e+003,1.329263e-002
1.550512e+003,1.368237e-002
1.552441e+003,1.407342e-002
1.554369e+003,1.475395e-002
1.556298e+003,1.540962e-002
1.558226e+003,1.670317e-002
1.560155e+003,1.681857e-002
1.562083e+003,1.621927e-002
1.564012e+003,1.645381e-002
1.565940e+003,1.679553e-002
1.567869e+003,1.733368e-002
1.569797e+003,1.802973e-002
1.571726e+003,1.792257e-002
1.573654e+003,1.801447e-002
1.575583e+003,1.866436e-002
1.577511e+003,1.849639e-002
1.579440e+003,1.804172e-002
1.581368e+003,1.796004e-002
1.583297e+003,1.762744e-002
1.585225e+003,1.738038e-002
1.587154e+003,1.712435e-002
1.589082e+003,1.671925e-002
1.591010e+003,1.620307e-002
1.592939e+003,1.574646e-002
1.594868e+003,1.534299e-002
1.596796e+003,1.481037e-002
1.598724e+003,1.416557e-002
1.600653e+003,1.353755e-002
1.602582e+003,1.301080e-002
1.604510e+003,1.241581e-002
1.606438e+003,1.186045e-002
1.608367e+003,1.150860e-002
1.610296e+003,1.099273e-002
1.612224e+003,1.039734e-002
1.614152e+003,1.023702e-002
1.616081e+003,1.040658e-002
1.618010e+003,1.001518e-002
1.619938e+003,9.424684e-003
1.621866e+003,9.340513e-003
1.623795e+003,9.141969e-003
1.625724e+003,8.790559e-003
1.627652e+003,8.558945e-003
1.629580e+003,8.262946e-003
1.631509e+003,7.958848e-003
1.633438e+003,8.161748e-003
1.635366e+003,8.544616e-003
1.637294e+003,8.008999e-003
1.639223e+003,7.262703e-003
1.641151e+003,6.866656e-003
1.643080e+003,6.455803e-003
1.645008e+003,6.544731e-003
1.646937e+003,6.574736e-003
1.648865e+003,5.858940e-003
1.650794e+003,5.808768e-003
1.652722e+003,6.583045e-003
1.654651e+003,5.507155e-003
1.656579e+003,4.333748e-003
1.658508e+003,3.944541e-003
1.660436e+003,3.876604e-003
1.662365e+003,3.903985e-003
1.664293e+003,3.540417e-003
1.666222e+003,3.136468e-003
1.668150e+003,3.322235e-003
1.670079e+003,3.331117e-003
1.672007e+003,2.872592e-003
1.673936e+003,2.758336e-003
1.675864e+003,2.539814e-003
1.677793e+003,1.865737e-003
1.679721e+003,1.667420e-003
1.681650e+003,1.759431e-003
1.683578e+003,2.398691e-003
1.685507e+003,2.110923e-003
1.687435e+003,1.332041e-003
1.689364e+003,1.063545e-003
1.691292e+003,9.242296e-004
1.693221e+003,1.098921e-003
1.695149e+003,1.790006e-003
1.697078e+003,1.821215e-003
1.699006e+003,2.052460e-003
1.700935e+003,2.183546e-003
1.702863e+003,1.330545e-003
1.704792e+003,1.301665e-003
1.706720e+003,1.242878e-003
1.708649e+003,9.448502e-004
1.710577e+003,7.222265e-004
1.712506e+003,7.790832e-004
1.714434e+003,1.105399e-003
1.716363e+003,1.463176e-003
1.718291e+003,1.406662e-003
1.720220e+003,9.278489e-004
1.722148e+003,6.796468e-004
1.724077e+003,6.046199e-004
1.726005e+003,6.135123e-004
1.727934e+003,6.718482e-004
1.729862e+003,7.186088e-004
1.731791e+003,1.031859e-003
1.733719e+003,1.540546e-003
1.735648e+003,1.077131e-003
1.737576e+003,6.937179e-004
1.739505e+003,9.469754e-004
1.741433e+003,8.850831e-004
1.743362e+003,8.443798e-004
1.745290e+003,7.426383e-004
1.747219e+003,8.031160e-004
1.749147e+003,1.004227e-003
1.751076e+003,1.154299e-003
1.753004e+003,8.614110e-004
1.754933e+003,6.257894e-004
1.756861e+003,7.425055e-004
1.758790e+003,6.479222e-004
1.760718e+003,7.051344e-004
1.762647e+003,6.981317e-004
1.764575e+003,4.157329e-004
1.766504e+003,5.277813e-004
1.768432e+003,7.138628e-004
1.770361e+003,7.713824e-004
1.772289e+003,1.043185e-003
1.774218e+003,9.256906e-004
1.776146e+003,5.490798e-004
1.778075e+003,3.947727e-004
1.780003e+003,5.261558e-004
1.781932e+003,4.788851e-004
1.783860e+003,3.706630e-004
1.785789e+003,4.120515e-004
1.787717e+003,3.963645e-004
1.789646e+003,4.998163e-004
1.791574e+003,7.991326e-004
1.793503e+003,7.554833e-004
1.795431e+003,5.214119e-004
1.797360e+003,4.814393e-004
1.799288e+003,5.581369e-004
1.801217e+003,5.449660e-004
1.803145e+003,3.852215e-004
1.805074e+003,2.918764e-004
1.807002e+003,2.853447e-004
1.808931e+003,3.001656e-004
1.810859e+003,3.601838e-004
1.812788e+003,3.699997e-004
1.814716e+003,3.093170e-004
1.816645e+003,1.694143e-004
1.818573e+003,1.185698e-004
1.820502e+003,1.573158e-004
1.822430e+003,1.996785e-004
1.824359e+003,3.659208e-004
1.826287e+003,4.314206e-004
1.828216e+003,5.266534e-004
1.830144e+003,5.749578e-004
1.832073e+003,2.377687e-004
1.834001e+003,2.179773e-004
1.835930e+003,2.807360e-004
1.837858e+003,2.243422e-004
1.839787e+003,2.227178e-004
1.841715e+003,3.015913e-004
1.843644e+003,6.051839e-004
1.845572e+003,5.009110e-004
1.847501e+003,1.855903e-004
1.849429e+003,2.030597e-004
1.851358e+003,2.909149e-004
1.853286e+003,3.092838e-004
1.855215e+003,3.891016e-004
1.857143e+003,4.219018e-004
1.859072e+003,2.614068e-004
1.861000e+003,2.237787e-004
1.862929e+003,2.796751e-004
1.864857e+003,3.561050e-004
1.866786e+003,4.004438e-004
1.868714e+003,5.075123e-004
1.870643e+003,3.992167e-004
1.872571e+003,2.274916e-004
1.874500e+003,2.180767e-004
1.876428e+003,2.770226e-004
1.878357e+003,2.898870e-004
1.880285e+003,2.719499e-004
1.882214e+003,2.421116e-004
1.884142e+003,2.186734e-004
1.886071e+003,2.497699e-004
1.887999e+003,3.757037e-004
1.889928e+003,3.411495e-004
1.891856e+003,1.980542e-004
1.893785e+003,2.456258e-004
1.895713e+003,3.169433e-004
1.897642e+003,3.020224e-004
1.899570e+003,3.893338e-004
1.901499e+003,4.062144e-004
1.903427e+003,4.205088e-004
1.905356e+003,4.258154e-004
1.907284e+003,3.547122e-004
1.909213e+003,3.226134e-004
1.911141e+003,3.555744e-004
1.913070e+003,3.569671e-004
1.914998e+003,4.202435e-004
1.916927e+003,6.548244e-004
1.918855e+003,7.040391e-004
1.920784e+003,6.064448e-004
1.922712e+003,5.937701e-004
1.924641e+003,5.168008e-004
1.926569e+003,5.629475e-004
1.928498e+003,4.800461e-004
1.930426e+003,4.579550e-004
1.932355e+003,4.308899e-004
1.934283e+003,3.769970e-004
1.936212e+003,3.977574e-004
1.938140e+003,4.624660e-004
1.940069e+003,6.080375e-004
1.941997e+003,7.780874e-004
1.943926e+003,7.698223e-004
1.945854e+003,6.187881e-004
1.947783e+003,5.092041e-004
1.949711e+003,5.276818e-004
1.951640e+003,5.624831e-004
1.953568e+003,5.146113e-004
1.955497e+003,4.424985e-004
1.957425e+003,4.682707e-004
1.959354e+003,5.869020e-004
1.961282e+003,6.035913e-004
1.963211e+003,5.109623e-004
1.965139e+003,5.068820e-004
1.967068e+003,5.101661e-004
1.968996e+003,3.444323e-004
1.970925e+003,3.877751e-004
1.972853e+003,5.899877e-004
1.974782e+003,5.895232e-004
1.976710e+003,5.303689e-004
1.978639e+003,5.592317e-004
1.980567e+003,5.730335e-004
1.982496e+003,5.654027e-004
1.984424e+003,6.061130e-004
1.986353e+003,6.730428e-004
1.988281e+003,6.169631e-004
1.990210e+003,6.400246e-004
1.992138e+003,7.608936e-004
1.994067e+003,6.615940e-004
1.995995e+003,5.589331e-004
1.997924e+003,5.834846e-004
1.999852e+003,6.640829e-004
2.001781e+003,6.761291e-004
2.003709e+003,6.562182e-004
2.005638e+003,6.370381e-004
2.007566e+003,6.834964e-004
2.009495e+003,7.133982e-004
2.011423e+003,6.967711e-004
2.013352e+003,7.765605e-004
2.015280e+003,8.801693e-004
2.017208e+003,9.079596e-004
2.019137e+003,9.166923e-004
2.021066e+003,8.788744e-004
2.022994e+003,8.161952e-004
2.024922e+003,7.927592e-004
2.026851e+003,8.532107e-004
2.028780e+003,8.989949e-004
2.030708e+003,9.196806e-004
2.032636e+003,1.040793e-003
2.034565e+003,1.045277e-003
2.036494e+003,1.025947e-003
2.038422e+003,1.100416e-003
2.040350e+003,1.073111e-003
2.042279e+003,1.070654e-003
2.044208e+003,1.034416e-003
2.046136e+003,1.032258e-003
2.048064e+003,1.137655e-003
2.049993e+003,1.176990e-003
2.051921e+003,1.111843e-003
2.053850e+003,1.161409e-003
2.055778e+003,1.196460e-003
2.057707e+003,1.205265e-003
2.059635e+003,1.269130e-003
2.061564e+003,1.298973e-003
2.063492e+003,1.280961e-003
2.065421e+003,1.315822e-003
2.067349e+003,1.452039e-003
2.069278e+003,1.465171e-003
2.071206e+003,1.475909e-003
2.073135e+003,1.547396e-003
2.075063e+003,1.583543e-003
2.076992e+003,1.637419e-003
2.078920e+003,1.690172e-003
2.080849e+003,1.718247e-003
2.082777e+003,1.671911e-003
2.084706e+003,1.633428e-003
2.086634e+003,1.639881e-003
2.088563e+003,1.691070e-003
2.090491e+003,1.790106e-003
2.092420e+003,1.842477e-003
2.094348e+003,1.871228e-003
2.096277e+003,1.924275e-003
2.098205e+003,1.923376e-003
2.100134e+003,1.950934e-003
2.102062e+003,1.988779e-003
2.103991e+003,2.043904e-003
2.105919e+003,2.135063e-003
2.107848e+003,2.290322e-003
2.109776e+003,2.259812e-003
2.111705e+003,2.145052e-003
2.113633e+003,2.169926e-003
2.115562e+003,2.306145e-003
2.117490e+003,2.334559e-003
2.119419e+003,2.373137e-003
2.121347e+003,2.418449e-003
2.123276e+003,2.444638e-003
2.125204e+003,2.446471e-003
2.127133e+003,2.482793e-003
2.129061e+003,2.573277e-003
2.130990e+003,2.646178e-003
2.132918e+003,2.622576e-003
2.134847e+003,2.593776e-003
2.136775e+003,2.607776e-003
2.138704e+003,2.656279e-003
2.140632e+003,2.761904e-003
2.142561e+003,2.837171e-003
2.144489e+003,2.801654e-003
2.146418e+003,2.764872e-003
2.148346e+003,2.847677e-003
2.150275e+003,2.917889e-003
2.152203e+003,2.953483e-003
2.154132e+003,2.970163e-003
2.156060e+003,2.951447e-003
2.157989e+003,3.004193e-003
2.159917e+003,2.976468e-003
2.161846e+003,2.898175e-003
2.163774e+003,2.912518e-003
2.165703e+003,3.015804e-003
2.167631e+003,3.113240e-003
2.169560e+003,3.173148e-003
2.171488e+003,3.194376e-003
2.173417e+003,3.200017e-003
2.175345e+003,3.206660e-003
2.177274e+003,3.204623e-003
2.179202e+003,3.203088e-003
2.181131e+003,3.108067e-003
2.183059e+003,3.069758e-003
2.184988e+003,3.188001e-003
2.186916e+003,3.297629e-003
2.188845e+003,3.249254e-003
2.190773e+003,3.175217e-003
2.192702e+003,3.222081e-003
2.194630e+003,3.265545e-003
2.196559e+003,3.252993e-003
2.198487e+003,3.268683e-003
2.200416e+003,3.185898e-003
2.202344e+003,3.149150e-003
2.204273e+003,3.168475e-003
2.206201e+003,3.125188e-003
2.208130e+003,3.141841e-003
2.210058e+003,3.196212e-003
2.211987e+003,3.249287e-003
2.213915e+003,3.207728e-003
2.215844e+003,3.188168e-003
2.217772e+003,3.100092e-003
2.219701e+003,3.003359e-003
2.221629e+003,2.949880e-003
2.223558e+003,2.925894e-003
2.225486e+003,2.931966e-003
2.227415e+003,2.911150e-003
2.229343e+003,2.916921e-003
2.231272e+003,2.964758e-003
2.233200e+003,2.995018e-003
2.235129e+003,2.997553e-003
2.237057e+003,2.909182e-003
2.238986e+003,2.822197e-003
2.240914e+003,2.883265e-003
2.242843e+003,2.932333e-003
2.244771e+003,2.864787e-003
2.246700e+003,2.788048e-003
2.248628e+003,2.767573e-003
2.250557e+003,2.660112e-003
2.252485e+003,2.654345e-003
2.254414e+003,2.721125e-003
2.256342e+003,2.756836e-003
2.258271e+003,2.667047e-003
2.260199e+003,2.655678e-003
2.262128e+003,2.694018e-003
2.264056e+003,2.700753e-003
2.265985e+003,2.791282e-003
2.267913e+003,2.815393e-003
2.269842e+003,2.737963e-003
2.271770e+003,2.730594e-003
2.273699e+003,2.717957e-003
2.275627e+003,2.692885e-003
2.277556e+003,2.662846e-003
2.279484e+003,2.662780e-003
2.281413e+003,2.681516e-003
2.283341e+003,2.638343e-003
2.285270e+003,2.663146e-003
2.287198e+003,2.711222e-003
2.289127e+003,2.863319e-003
2.291055e+003,2.958487e-003
2.292984e+003,2.943074e-003
2.294912e+003,2.967627e-003
2.296841e+003,3.097155e-003
2.298769e+003,3.321500e-003
2.300698e+003,3.440313e-003
2.302626e+003,3.594537e-003
2.304555e+003,3.775052e-003
2.306483e+003,4.045865e-003
2.308412e+003,4.332208e-003
2.310340e+003,4.714494e-003
2.312269e+003,5.264204e-003
2.314197e+003,5.800910e-003
2.316125e+003,6.400216e-003
2.318054e+003,7.092924e-003
2.319983e+003,7.786402e-003
2.321911e+003,8.528599e-003
2.323840e+003,9.249828e-003
2.325768e+003,9.749159e-003
2.327697e+003,1.032225e-002
2.329625e+003,1.112090e-002
2.331553e+003,1.152861e-002
2.333482e+003,1.162726e-002
2.335411e+003,1.186705e-002
2.337339e+003,1.220941e-002
2.339268e+003,1.231544e-002
2.341196e+003,1.205101e-002
2.343125e+003,1.148605e-002
2.345053e+003,1.019051e-002
2.346981e+003,8.072894e-003
2.348910e+003,6.805968e-003
2.350839e+003,8.151755e-003
2.352767e+003,1.084694e-002
2.354696e+003,1.303336e-002
2.356624e+003,1.437728e-002
2.358552e+003,1.513756e-002
2.360481e+003,1.537669e-002
2.362409e+003,1.519702e-002
2.364338e+003,1.485892e-002
2.366267e+003,1.431769e-002
2.368195e+003,1.336431e-002
2.370124e+003,1.202437e-002
2.372052e+003,1.053104e-002
2.373980e+003,8.984512e-003
2.375909e+003,7.475660e-003
2.377838e+003,6.187147e-003
2.379766e+003,5.124976e-003
2.381695e+003,4.414208e-003
2.383623e+003,4.089846e-003
2.385552e+003,3.903049e-003
2.387480e+003,3.842606e-003
2.389408e+003,3.912644e-003
2.391337e+003,3.918361e-003
2.393266e+003,3.930197e-003
2.395194e+003,4.079779e-003
2.397123e+003,4.142496e-003
2.399051e+003,4.147581e-003
2.400979e+003,4.075564e-003
2.402908e+003,4.124767e-003
2.404836e+003,4.297505e-003
2.406765e+003,4.313534e-003
2.408694e+003,4.287031e-003
2.410622e+003,4.462043e-003
2.412551e+003,4.501011e-003
2.414479e+003,4.506635e-003
2.416407e+003,4.573734e-003
2.418336e+003,4.632906e-003
2.420264e+003,4.603269e-003
2.422193e+003,4.582339e-003
2.424122e+003,4.665324e-003
2.426050e+003,4.742229e-003
2.427979e+003,4.719685e-003
2.429907e+003,4.734357e-003
2.431835e+003,4.809129e-003
2.433764e+003,4.924193e-003
2.435692e+003,4.993803e-003
2.437621e+003,4.930527e-003
2.439550e+003,4.897553e-003
2.441478e+003,5.015221e-003
2.443406e+003,5.117600e-003
2.445335e+003,5.116594e-003
2.447263e+003,5.148479e-003
2.449192e+003,5.182580e-003
2.451121e+003,5.152402e-003
2.453049e+003,5.158337e-003
2.454978e+003,5.227984e-003
2.456906e+003,5.365870e-003
2.458834e+003,5.470345e-003
2.460763e+003,5.422398e-003
2.462691e+003,5.319881e-003
2.464620e+003,5.438939e-003
2.466549e+003,5.596291e-003
2.468477e+003,5.572227e-003
2.470406e+003,5.547895e-003
2.472334e+003,5.537693e-003
2.474262e+003,5.616329e-003
2.476191e+003,5.707502e-003
2.478119e+003,5.787378e-003
2.480048e+003,5.811421e-003
2.481977e+003,5.904516e-003
2.483905e+003,5.953187e-003
2.485833e+003,5.893499e-003
2.487762e+003,6.007004e-003
2.489690e+003,6.060827e-003
2.491619e+003,6.135156e-003
2.493547e+003,6.219245e-003
2.495476e+003,6.293399e-003
2.497405e+003,6.339626e-003
2.499333e+003,6.254438e-003
2.501261e+003,6.247110e-003
2.503190e+003,6.334986e-003
2.505118e+003,6.386833e-003
2.507047e+003,6.293366e-003
2.508975e+003,6.249765e-003
2.510904e+003,6.353781e-003
2.512833e+003,6.487046e-003
2.514761e+003,6.521959e-003
2.516689e+003,6.539079e-003
2.518618e+003,6.603330e-003
2.520546e+003,6.599462e-003
2.522475e+003,6.549372e-003
2.524403e+003,6.564039e-003
2.526332e+003,6.576586e-003
2.528260e+003,6.679165e-003
2.530189e+003,6.749494e-003
2.532117e+003,6.612817e-003
2.534046e+003,6.536893e-003
2.535974e+003,6.707363e-003
2.537903e+003,6.788366e-003
2.539831e+003,6.856019e-003
2.541760e+003,6.993008e-003
2.543688e+003,7.025200e-003
2.545617e+003,6.908400e-003
2.547545e+003,6.882006e-003
2.549474e+003,6.892812e-003
2.551402e+003,6.833467e-003
2.553331e+003,6.830101e-003
2.555259e+003,6.945096e-003
2.557188e+003,6.987621e-003
2.559116e+003,6.967957e-003
2.561045e+003,6.976106e-003
2.562973e+003,6.945567e-003
2.564902e+003,7.067396e-003
2.566830e+003,7.170529e-003
2.568759e+003,7.085145e-003
2.570687e+003,7.104881e-003
2.572616e+003,7.108855e-003
2.574544e+003,7.149005e-003
2.576473e+003,7.214761e-003
2.578401e+003,7.218500e-003
2.580330e+003,7.242252e-003
2.582258e+003,7.286423e-003
2.584187e+003,7.209337e-003
2.586115e+003,7.177670e-003
2.588044e+003,7.188080e-003
2.589972e+003,7.214828e-003
2.591901e+003,7.334980e-003
2.593829e+003,7.393788e-003
2.595758e+003,7.304046e-003
2.597686e+003,7.267050e-003
2.599615e+003,7.212908e-003
2.601543e+003,7.208259e-003
2.603472e+003,7.351526e-003
2.605400e+003,7.443772e-003
2.607329e+003,7.499257e-003
2.609257e+003,7.595108e-003
2.611186e+003,7.622455e-003
2.613114e+003,7.644104e-003
2.615043e+003,7.668149e-003
2.616971e+003,7.624040e-003
2.618900e+003,7.634123e-003
2.620828e+003,7.656380e-003
2.622757e+003,7.778779e-003
2.624685e+003,7.849185e-003
2.626614e+003,7.791294e-003
2.628542e+003,7.842269e-003
2.630471e+003,7.900301e-003
2.632399e+003,7.951458e-003
2.634328e+003,7.966509e-003
2.636256e+003,7.916026e-003
2.638185e+003,7.986994e-003
2.640113e+003,8.081063e-003
2.642042e+003,8.063206e-003
2.643970e+003,8.157460e-003
2.645899e+003,8.238970e-003
2.647827e+003,8.237180e-003
2.649756e+003,8.272842e-003
2.651684e+003,8.353427e-003
2.653613e+003,8.316307e-003
2.655541e+003,8.386023e-003
2.657470e+003,8.384132e-003
2.659398e+003,8.390449e-003
2.661327e+003,8.561715e-003
2.663255e+003,8.614335e-003
2.665184e+003,8.552760e-003
2.667112e+003,8.628227e-003
2.669041e+003,8.736802e-003
2.670969e+003,8.792114e-003
2.672898e+003,8.711752e-003
2.674826e+003,8.718614e-003
2.676755e+003,8.774769e-003
2.678683e+003,8.789545e-003
2.680612e+003,8.875772e-003
2.682540e+003,8.925522e-003
2.684469e+003,8.938307e-003
2.686397e+003,9.000140e-003
2.688326e+003,9.106948e-003
2.690254e+003,9.231246e-003
2.692183e+003,9.195946e-003
2.694111e+003,9.217842e-003
2.696040e+003,9.255209e-003
2.697968e+003,9.265601e-003
2.699897e+003,9.308659e-003
2.701825e+003,9.327108e-003
2.703754e+003,9.405926e-003
2.705682e+003,9.559709e-003
2.707611e+003,9.593107e-003
2.709539e+003,9.582471e-003
2.711468e+003,9.640703e-003
2.713396e+003,9.725778e-003
2.715325e+003,9.838832e-003
2.717253e+003,9.857067e-003
2.719182e+003,9.887437e-003
2.721110e+003,9.888827e-003
2.723039e+003,1.000579e-002
2.724967e+003,1.016033e-002
2.726896e+003,1.019157e-002
2.728824e+003,1.022237e-002
2.730753e+003,1.034244e-002
2.732681e+003,1.044462e-002
2.734610e+003,1.048844e-002
2.736538e+003,1.045803e-002
2.738467e+003,1.052412e-002
2.740395e+003,1.074863e-002
2.742324e+003,1.085845e-002
2.744252e+003,1.089586e-002
2.746181e+003,1.102441e-002
2.748109e+003,1.107950e-002
2.750038e+003,1.116812e-002
2.751966e+003,1.131328e-002
2.753895e+003,1.137406e-002
2.755823e+003,1.144008e-002
2.757752e+003,1.158965e-002
2.759680e+003,1.178033e-002
2.761609e+003,1.193881e-002
2.763537e+003,1.224499e-002
2.765466e+003,1.250426e-002
2.767394e+003,1.266975e-002
2.769323e+003,1.287159e-002
2.771251e+003,1.321204e-002
2.773180e+003,1.355201e-002
2.775108e+003,1.392392e-002
2.777037e+003,1.438732e-002
2.778965e+003,1.484534e-002
2.780894e+003,1.542129e-002
2.782822e+003,1.609492e-002
2.784750e+003,1.665961e-002
2.786679e+003,1.728645e-002
2.788608e+003,1.787289e-002
2.790536e+003,1.838860e-002
2.792465e+003,1.901697e-002
2.794393e+003,1.975754e-002
2.796322e+003,2.039164e-002
2.798250e+003,2.098501e-002
2.800178e+003,2.154162e-002
2.802107e+003,2.208890e-002
2.804036e+003,2.260629e-002
2.805964e+003,2.298800e-002
2.807893e+003,2.335553e-002
2.809821e+003,2.367467e-002
2.811750e+003,2.392576e-002
2.813678e+003,2.398035e-002
2.815606e+003,2.394264e-002
2.817535e+003,2.383030e-002
2.819464e+003,2.375753e-002
2.821392e+003,2.368170e-002
2.823321e+003,2.348650e-002
2.825249e+003,2.318302e-002
2.827177e+003,2.280906e-002
2.829106e+003,2.245204e-002
2.831034e+003,2.199614e-002
2.832963e+003,2.152271e-002
2.834892e+003,2.119238e-002
2.836820e+003,2.077408e-002
2.838749e+003,2.024845e-002
2.840677e+003,1.968372e-002
2.842605e+003,1.919684e-002
2.844534e+003,1.869300e-002
2.846462e+003,1.812797e-002
2.848391e+003,1.765533e-002
2.850320e+003,1.727262e-002
2.852248e+003,1.698062e-002
2.854177e+003,1.669088e-002
2.856105e+003,1.655527e-002
2.858033e+003,1.652825e-002
2.859962e+003,1.642253e-002
2.861890e+003,1.618622e-002
2.863819e+003,1.598727e-002
2.865748e+003,1.597796e-002
2.867676e+003,1.601034e-002
2.869604e+003,1.611541e-002
2.871533e+003,1.606401e-002
2.873461e+003,1.603963e-002
2.875390e+003,1.611036e-002
2.877319e+003,1.623437e-002
2.879247e+003,1.640862e-002
2.881176e+003,1.641888e-002
2.883104e+003,1.644135e-002
2.885032e+003,1.659148e-002
2.886961e+003,1.663665e-002
2.888889e+003,1.661579e-002
2.890818e+003,1.653503e-002
2.892747e+003,1.643185e-002
2.894675e+003,1.621143e-002
2.896604e+003,1.616029e-002
2.898532e+003,1.618278e-002
2.900460e+003,1.617415e-002
2.902389e+003,1.615885e-002
2.904317e+003,1.600835e-002
2.906246e+003,1.592159e-002
2.908175e+003,1.591839e-002
2.910103e+003,1.587728e-002
2.912031e+003,1.580831e-002
2.913960e+003,1.569404e-002
2.915888e+003,1.569232e-002
2.917817e+003,1.571778e-002
2.919745e+003,1.589601e-002
2.921674e+003,1.608894e-002
2.923603e+003,1.621563e-002
2.925531e+003,1.627393e-002
2.927459e+003,1.639864e-002
2.929388e+003,1.648444e-002
2.931316e+003,1.664867e-002
2.933245e+003,1.686810e-002
2.935173e+003,1.686145e-002
2.937102e+003,1.686011e-002
2.939031e+003,1.694740e-002
2.940959e+003,1.678537e-002
2.942887e+003,1.653348e-002
2.944816e+003,1.629657e-002
2.946744e+003,1.617466e-002
2.948673e+003,1.601220e-002
2.950601e+003,1.561187e-002
2.952530e+003,1.518501e-002
2.954458e+003,1.473622e-002
2.956387e+003,1.426992e-002
2.958315e+003,1.388225e-002
2.960244e+003,1.333379e-002
2.962172e+003,1.275454e-002
2.964101e+003,1.225539e-002
2.966029e+003,1.180774e-002
2.967958e+003,1.139545e-002
2.969886e+003,1.091332e-002
2.971815e+003,1.039287e-002
2.973743e+003,9.844220e-003
2.975672e+003,9.354089e-003
2.977600e+003,9.093819e-003
2.979529e+003,8.972639e-003
2.981457e+003,8.719324e-003
2.983386e+003,8.456596e-003
2.985314e+003,8.075122e-003
2.987243e+003,7.728250e-003
2.989171e+003,7.625794e-003
2.991100e+003,7.446873e-003
2.993028e+003,7.313447e-003
2.994957e+003,7.346000e-003
2.996885e+003,7.261760e-003
2.998814e+003,7.105083e-003
3.000742e+003,6.995264e-003
3.002671e+003,6.866656e-003
3.004599e+003,6.802871e-003
3.006528e+003,6.850802e-003
3.008456e+003,6.799640e-003
3.010385e+003,6.717795e-003
3.012313e+003,6.594853e-003
3.014242e+003,6.469020e-003
3.016170e+003,6.379738e-003
3.018099e+003,6.406739e-003
3.020027e+003,6.396248e-003
3.021956e+003,6.315050e-003
3.023884e+003,6.272288e-003
3.025813e+003,6.292794e-003
3.027741e+003,6.192592e-003
3.029670e+003,6.120471e-003
3.031598e+003,6.159823e-003
3.033527e+003,6.093218e-003
3.035455e+003,6.026859e-003
3.037384e+003,6.015134e-003
3.039312e+003,5.918186e-003
3.041241e+003,5.862769e-003
3.043169e+003,5.762463e-003
3.045098e+003,5.702299e-003
3.047026e+003,5.612839e-003
3.048955e+003,5.489739e-003
3.050883e+003,5.502491e-003
3.052812e+003,5.548835e-003
3.054740e+003,5.436759e-003
3.056669e+003,5.309584e-003
3.058597e+003,5.247637e-003
3.060526e+003,5.128094e-003
3.062454e+003,5.145764e-003
3.064383e+003,5.183586e-003
3.066311e+003,5.101776e-003
3.068240e+003,5.129335e-003
3.070168e+003,5.125915e-003
3.072097e+003,4.930662e-003
3.074025e+003,4.748459e-003
3.075954e+003,4.698349e-003
3.077882e+003,4.741994e-003
3.079811e+003,4.674233e-003
3.081739e+003,4.647775e-003
3.083668e+003,4.675975e-003
3.085596e+003,4.534927e-003
3.087525e+003,4.441188e-003
3.089453e+003,4.421204e-003
3.091382e+003,4.361324e-003
3.093310e+003,4.323239e-003
3.095239e+003,4.343252e-003
3.097167e+003,4.380034e-003
3.099096e+003,4.263206e-003
3.101024e+003,4.187156e-003
3.102953e+003,4.128815e-003
3.104881e+003,4.047571e-003
3.106810e+003,4.047638e-003
3.108738e+003,4.023157e-003
3.110667e+003,4.002290e-003
3.112595e+003,3.914617e-003
3.114524e+003,3.859421e-003
3.116452e+003,3.798282e-003
3.118381e+003,3.811853e-003
3.120309e+003,3.840165e-003
3.122238e+003,3.844010e-003
3.124166e+003,3.795909e-003
3.126095e+003,3.796544e-003
3.128023e+003,3.734912e-003
3.129952e+003,3.589024e-003
3.131880e+003,3.482396e-003
3.133809e+003,3.431162e-003
3.135737e+003,3.476785e-003
3.137666e+003,3.546430e-003
3.139594e+003,3.505777e-003
3.141523e+003,3.517334e-003
3.143451e+003,3.596742e-003
3.145380e+003,3.631857e-003
3.147308e+003,3.446658e-003
3.149237e+003,3.385177e-003
3.151165e+003,3.508750e-003
3.153094e+003,3.618926e-003
3.155022e+003,3.646057e-003
3.156951e+003,3.489109e-003
3.158879e+003,3.354523e-003
3.160808e+003,3.398768e-003
3.162736e+003,3.514495e-003
3.164665e+003,3.572988e-003
3.166593e+003,3.420676e-003
3.168522e+003,3.278365e-003
3.170450e+003,3.353855e-003
3.172379e+003,3.401774e-003
3.174307e+003,3.348145e-003
3.176236e+003,3.410356e-003
3.178164e+003,3.373757e-003
3.180093e+003,3.358163e-003
3.182021e+003,3.421176e-003
3.183950e+003,3.418839e-003
3.185878e+003,3.411325e-003
3.187807e+003,3.521677e-003
3.189735e+003,3.503773e-003
3.191664e+003,3.336592e-003
3.193592e+003,3.309314e-003
3.195521e+003,3.311584e-003
3.197449e+003,3.323871e-003
3.199378e+003,3.376294e-003
3.201306e+003,3.322235e-003
3.203235e+003,3.315557e-003
3.205163e+003,3.288214e-003
3.207092e+003,3.218610e-003
3.209020e+003,3.352753e-003
3.210948e+003,3.526320e-003
3.212877e+003,3.556953e-003
3.214806e+003,3.611977e-003
3.216734e+003,3.599080e-003
3.218663e+003,3.610674e-003
3.220591e+003,3.627780e-003
3.222520e+003,3.729030e-003
3.224448e+003,3.708344e-003
3.226376e+003,3.614917e-003
3.228305e+003,3.712755e-003
3.230234e+003,3.907027e-003
3.232162e+003,3.943204e-003
3.234091e+003,4.024094e-003
3.236019e+003,4.059109e-003
3.237948e+003,4.016970e-003
3.239876e+003,4.148384e-003
3.241804e+003,4.484473e-003
3.243733e+003,4.583445e-003
3.245662e+003,4.571692e-003
3.247590e+003,4.686057e-003
3.249519e+003,4.667267e-003
3.251447e+003,4.666966e-003
3.253375e+003,4.788793e-003
3.255304e+003,4.914475e-003
3.257232e+003,5.100904e-003
3.259161e+003,5.199480e-003
3.261090e+003,5.295899e-003
3.263018e+003,5.305659e-003
3.264947e+003,5.295664e-003
3.266875e+003,5.302875e-003
3.268803e+003,5.354196e-003
3.270732e+003,5.425083e-003
3.272660e+003,5.578671e-003
3.274589e+003,5.726639e-003
3.276518e+003,5.693335e-003
3.278446e+003,5.631803e-003
3.280375e+003,5.712907e-003
3.282303e+003,5.720931e-003
3.284231e+003,5.759307e-003
3.286160e+003,5.634589e-003
3.288088e+003,5.474573e-003
3.290017e+003,5.366239e-003
3.291946e+003,5.442630e-003
3.293874e+003,5.567360e-003
3.295802e+003,5.439342e-003
3.297731e+003,5.387541e-003
3.299659e+003,5.285132e-003
3.301588e+003,5.106403e-003
3.303516e+003,4.932873e-003
3.305445e+003,4.741659e-003
3.307374e+003,4.715766e-003
3.309302e+003,4.507539e-003
3.311230e+003,4.326151e-003
3.313159e+003,4.232791e-003
3.315087e+003,4.144135e-003
3.317016e+003,4.125503e-003
3.318944e+003,4.107273e-003
3.320873e+003,3.905121e-003
3.322802e+003,3.696481e-003
3.324730e+003,3.578902e-003
3.326658e+003,3.478087e-003
3.328587e+003,3.478789e-003
3.330515e+003,3.361769e-003
3.332444e+003,3.079736e-003
3.334372e+003,2.943441e-003
3.336301e+003,2.949313e-003
3.338229e+003,2.915253e-003
3.340158e+003,2.761637e-003
3.342086e+003,2.747866e-003
3.344015e+003,2.673048e-003
3.345943e+003,2.584376e-003
3.347872e+003,2.558645e-003
3.349800e+003,2.391728e-003
3.351729e+003,2.250187e-003
3.353657e+003,2.198532e-003
3.355586e+003,2.061149e-003
3.357514e+003,2.067374e-003
3.359443e+003,2.035715e-003
3.361371e+003,1.701648e-003
3.363300e+003,1.651588e-003
3.365229e+003,1.773005e-003
3.367157e+003,1.550888e-003
3.369085e+003,1.187157e-003
3.371014e+003,1.089022e-003
3.372942e+003,1.173934e-003
3.374871e+003,1.092012e-003
3.376799e+003,1.161209e-003
3.378728e+003,1.087594e-003
3.380656e+003,8.008920e-004
3.382585e+003,6.183899e-004
3.384513e+003,5.669620e-004
3.386442e+003,3.931144e-004
3.388370e+003,2.776526e-004
3.390299e+003,2.755638e-004
3.392227e+003,2.963857e-004
3.394156e+003,7.956212e-005
3.396084e+003,-2.915786e-006
3.398013e+003,-1.001527e-004
3.399941e+003,-2.433014e-004
3.401870e+003,-1.721966e-004
3.403798e+003,-6.162888e-006
3.405727e+003,2.753526e-005
3.407655e+003,-9.581307e-005
3.409584e+003,-1.767673e-004
3.411512e+003,-2.071046e-004
3.413441e+003,-3.929244e-004
3.415369e+003,-4.753127e-004
3.417298e+003,-4.748162e-004
3.419226e+003,-4.075562e-004
3.421155e+003,-2.802567e-004
3.423083e+003,-4.235115e-004
3.425012e+003,-5.634762e-004
3.426940e+003,-5.991139e-004
3.428869e+003,-6.484127e-004
3.430797e+003,-6.429869e-004
3.432726e+003,-5.659250e-004
3.434654e+003,-5.155577e-004
3.436583e+003,-7.913809e-004
3.438511e+003,-8.469411e-004
3.440440e+003,-7.045206e-004
3.442368e+003,-8.858292e-004
3.444297e+003,-1.047891e-003
3.446225e+003,-8.757768e-004
3.448154e+003,-8.053377e-004
3.450082e+003,-8.707505e-004
3.452011e+003,-1.014307e-003
3.453939e+003,-1.086695e-003
3.455868e+003,-1.093702e-003
3.457796e+003,-1.085075e-003
3.459725e+003,-1.102691e-003
3.461653e+003,-1.091983e-003
3.463582e+003,-1.069805e-003
3.465510e+003,-1.073970e-003
3.467439e+003,-1.166407e-003
3.469367e+003,-1.235598e-003
3.471296e+003,-1.230543e-003
3.473224e+003,-1.172851e-003
3.475153e+003,-1.212139e-003
3.477081e+003,-1.285188e-003
3.479010e+003,-1.396473e-003
3.480938e+003,-1.451493e-003
3.482867e+003,-1.493893e-003
3.484795e+003,-1.466915e-003
3.486724e+003,-1.420153e-003
3.488652e+003,-1.505549e-003
3.490581e+003,-1.525988e-003
3.492509e+003,-1.469061e-003
3.494438e+003,-1.342700e-003
3.496366e+003,-1.210025e-003
3.498295e+003,-1.365095e-003
3.500223e+003,-1.473420e-003
3.502152e+003,-1.432174e-003
3.504080e+003,-1.424909e-003
3.506009e+003,-1.529389e-003
3.507937e+003,-1.564881e-003
3.509866e+003,-1.563164e-003
3.511794e+003,-1.606610e-003
3.513723e+003,-1.754378e-003
3.515651e+003,-1.732135e-003
3.517580e+003,-1.675830e-003
3.519508e+003,-1.645661e-003
3.521437e+003,-1.669064e-003
3.523365e+003,-1.688933e-003
3.525294e+003,-1.795363e-003
3.527222e+003,-1.773452e-003
3.529151e+003,-1.634999e-003
3.531079e+003,-1.674444e-003
3.533008e+003,-1.635857e-003
3.534936e+003,-1.592184e-003
3.536865e+003,-1.709495e-003
3.538793e+003,-1.856800e-003
3.540722e+003,-1.983308e-003
3.542650e+003,-2.037265e-003
3.544579e+003,-1.862276e-003
3.546507e+003,-1.581553e-003
3.548436e+003,-1.606973e-003
3.550364e+003,-1.617141e-003
3.552293e+003,-1.696855e-003
3.554221e+003,-1.794637e-003
3.556150e+003,-1.829943e-003
3.558078e+003,-1.783979e-003
3.560007e+003,-1.775201e-003
3.561935e+003,-1.913114e-003
3.563864e+003,-1.857591e-003
3.565792e+003,-1.587793e-003
3.567721e+003,-1.640545e-003
3.569649e+003,-1.965464e-003
3.571578e+003,-2.072485e-003
3.573506e+003,-2.009166e-003
3.575435e+003,-1.951181e-003
3.577363e+003,-1.848452e-003
3.579292e+003,-1.971566e-003
3.581220e+003,-2.123826e-003
3.583149e+003,-2.045279e-003
3.585077e+003,-1.905065e-003
3.587006e+003,-1.522389e-003
3.588934e+003,-1.621927e-003
3.590863e+003,-2.051215e-003
3.592791e+003,-1.971137e-003
3.594720e+003,-1.925320e-003
3.596648e+003,-1.967674e-003
3.598577e+003,-1.962165e-003
3.600505e+003,-1.932181e-003
3.602434e+003,-2.088280e-003
3.604362e+003,-2.254048e-003
3.606291e+003,-2.249037e-003
3.608219e+003,-1.986408e-003
3.610148e+003,-1.856305e-003
3.612076e+003,-1.843305e-003
3.614005e+003,-1.970477e-003
3.615933e+003,-2.018236e-003
3.617862e+003,-1.935678e-003
3.619790e+003,-1.997886e-003
3.621719e+003,-2.313673e-003
3.623647e+003,-2.619679e-003
3.625576e+003,-2.479552e-003
3.627504e+003,-1.727911e-003
3.629433e+003,-1.308842e-003
3.631361e+003,-2.066022e-003
3.633290e+003,-2.329327e-003
3.635218e+003,-2.314596e-003
3.637146e+003,-2.397773e-003
3.639075e+003,-2.546755e-003
3.641004e+003,-2.699209e-003
3.642932e+003,-2.679616e-003
3.644861e+003,-2.665456e-003
3.646789e+003,-2.380210e-003
3.648718e+003,-1.788136e-003
3.650646e+003,-1.855678e-003
3.652574e+003,-2.591716e-003
3.654503e+003,-2.703292e-003
3.656432e+003,-2.377211e-003
3.658360e+003,-2.657947e-003
3.660289e+003,-2.832287e-003
3.662217e+003,-2.872873e-003
3.664146e+003,-3.081179e-003
3.666074e+003,-3.259887e-003
3.668002e+003,-3.083383e-003
3.669931e+003,-2.675302e-003
3.671860e+003,-2.776683e-003
3.673788e+003,-2.493323e-003
3.675717e+003,-1.962066e-003
3.677645e+003,-2.504589e-003
3.679573e+003,-2.870043e-003
3.681502e+003,-2.834031e-003
3.683430e+003,-2.795976e-003
3.685359e+003,-2.961934e-003
3.687288e+003,-2.639209e-003
3.689216e+003,-2.185184e-003
3.691145e+003,-2.360273e-003
3.693073e+003,-2.631963e-003
3.695001e+003,-2.689594e-003
3.696930e+003,-2.632951e-003
3.698858e+003,-2.651888e-003
3.700787e+003,-2.317759e-003
3.702716e+003,-2.302302e-003
3.704644e+003,-2.599292e-003
3.706573e+003,-2.559437e-003
3.708501e+003,-2.354044e-003
3.710429e+003,-2.135498e-003
3.712358e+003,-2.168567e-003
3.714286e+003,-2.646684e-003
3.716215e+003,-2.723971e-003
3.718144e+003,-2.425188e-003
3.720072e+003,-2.393127e-003
3.722000e+003,-2.314332e-003
3.723929e+003,-2.210766e-003
3.725857e+003,-2.248477e-003
3.727786e+003,-2.638978e-003
3.729714e+003,-2.683469e-003
3.731643e+003,-2.286910e-003
3.733572e+003,-1.903878e-003
3.735500e+003,-1.584591e-003
3.737428e+003,-1.937723e-003
3.739357e+003,-2.426506e-003
3.741285e+003,-2.410954e-003
3.743214e+003,-1.663915e-003
3.745142e+003,-1.212734e-003
3.747071e+003,-1.808133e-003
3.749000e+003,-1.382535e-003
3.750928e+003,-1.052320e-003
3.752856e+003,-1.272337e-003
3.754785e+003,-1.864223e-003
3.756713e+003,-1.904405e-003
3.758642e+003,-1.751012e-003
3.760570e+003,-1.798234e-003
3.762499e+003,-2.032318e-003
3.764427e+003,-2.150599e-003
3.766356e+003,-2.154094e-003
3.768284e+003,-2.213073e-003
3.770213e+003,-2.065065e-003
3.772141e+003,-2.071001e-003
3.774070e+003,-2.137509e-003
3.775998e+003,-2.157622e-003
3.777927e+003,-2.025030e-003
3.779855e+003,-1.740089e-003
3.781784e+003,-1.969950e-003
3.783712e+003,-2.080894e-003
3.785641e+003,-1.942341e-003
3.787569e+003,-2.002900e-003
3.789498e+003,-2.213040e-003
3.791426e+003,-2.436984e-003
3.793355e+003,-2.449966e-003
3.795283e+003,-2.138136e-003
3.797212e+003,-1.947124e-003
3.799140e+003,-1.972061e-003
3.801069e+003,-1.786123e-003
3.802997e+003,-1.985056e-003
3.804926e+003,-2.115121e-003
3.806854e+003,-1.770416e-003
3.808783e+003,-1.968004e-003
3.810711e+003,-2.249334e-003
3.812640e+003,-2.370225e-003
3.814568e+003,-2.176579e-003
3.816497e+003,-1.557057e-003
3.818425e+003,-1.657511e-003
3.820354e+003,-1.467542e-003
3.822282e+003,-1.467278e-003
3.824211e+003,-2.093326e-003
3.826139e+003,-2.249697e-003
3.828068e+003,-2.166227e-003
3.829996e+003,-1.937690e-003
3.831925e+003,-1.924198e-003
3.833853e+003,-2.088841e-003
3.835782e+003,-1.915951e-003
3.837710e+003,-1.525328e-003
3.839639e+003,-1.764113e-003
3.841567e+003,-1.944452e-003
3.843496e+003,-1.859802e-003
3.845424e+003,-2.046565e-003
3.847353e+003,-2.617143e-003
3.849281e+003,-2.487491e-003
3.851210e+003,-1.497261e-003
3.853138e+003,-6.388181e-004
3.855067e+003,-1.217096e-003
3.856995e+003,-2.128970e-003
3.858924e+003,-2.265222e-003
3.860852e+003,-2.017774e-003
3.862781e+003,-1.728835e-003
3.864709e+003,-1.619352e-003
3.866638e+003,-2.063581e-003
3.868566e+003,-2.131970e-003
3.870495e+003,-1.833110e-003
3.872423e+003,-1.889032e-003
3.874352e+003,-1.733521e-003
3.876280e+003,-2.030603e-003
3.878209e+003,-2.233940e-003
3.880137e+003,-2.144466e-003
3.882066e+003,-2.269177e-003
3.883994e+003,-2.129135e-003
3.885923e+003,-1.792624e-003
3.887851e+003,-2.227446e-003
3.889780e+003,-2.278901e-003
3.891708e+003,-1.993203e-003
3.893637e+003,-2.141730e-003
3.895565e+003,-2.453656e-003
3.897494e+003,-2.432668e-003
3.899422e+003,-2.196854e-003
3.901351e+003,-2.058173e-003
3.903279e+003,-2.001547e-003
3.905208e+003,-2.141993e-003
3.907136e+003,-2.497210e-003
3.909065e+003,-2.583284e-003
3.910993e+003,-2.549094e-003
3.912922e+003,-2.538849e-003
3.914850e+003,-2.324582e-003
3.916779e+003,-2.175952e-003
3.918707e+003,-2.374806e-003
3.920636e+003,-2.545141e-003
3.922564e+003,-2.440707e-003
3.924493e+003,-2.283153e-003
3.926421e+003,-2.445320e-003
3.928350e+003,-2.569319e-003
3.930278e+003,-2.501921e-003
3.932207e+003,-2.422124e-003
3.934135e+003,-2.595076e-003
3.936064e+003,-2.728350e-003
3.937992e+003,-2.582922e-003
3.939921e+003,-2.408153e-003
3.941849e+003,-2.295018e-003
3.943778e+003,-2.361459e-003
3.945706e+003,-2.456852e-003
3.947635e+003,-2.458301e-003
3.949563e+003,-2.495629e-003
3.951492e+003,-2.600115e-003
3.953420e+003,-2.614969e-003
3.955349e+003,-2.764041e-003
3.957277e+003,-2.852663e-003
3.959206e+003,-2.857929e-003
3.961134e+003,-2.753966e-003
3.963063e+003,-2.484460e-003
3.964991e+003,-2.338094e-003
3.966920e+003,-2.270628e-003
3.968848e+003,-2.222732e-003
3.970777e+003,-2.325274e-003
3.972705e+003,-2.433030e-003
3.974634e+003,-2.405418e-003
3.976562e+003,-2.465253e-003
3.978491e+003,-2.443178e-003
3.980419e+003,-2.416720e-003
3.982348e+003,-2.472369e-003
3.984276e+003,-2.481067e-003
3.986205e+003,-2.491445e-003
3.988133e+003,-2.391677e-003
3.990062e+003,-2.437346e-003
3.991990e+003,-2.557230e-003
3.993919e+003,-2.603441e-003
3.995847e+003,-2.565926e-003
3.997776e+003,-2.334897e-003
3.999704e+003,-2.428351e-003
4.001633e+003,0.000000e+000
