3.991989e+002,4.801266e-002
4.011274e+002,3.984379e-002
4.030559e+002,3.446707e-002
4.049844e+002,2.056052e-002
4.069129e+002,2.068709e-002
4.088414e+002,3.040467e-002
4.107699e+002,3.081415e-002
4.126984e+002,2.623531e-002
4.146269e+002,2.643324e-002
4.165554e+002,2.856857e-002
4.184839e+002,2.983589e-002
4.204124e+002,3.805494e-002
4.223409e+002,3.739725e-002
4.242694e+002,3.142450e-002
4.261979e+002,2.437245e-002
4.281264e+002,2.949361e-002
4.300549e+002,2.623813e-002
4.319834e+002,1.893618e-002
4.339119e+002,2.333137e-002
4.358404e+002,2.761223e-002
4.377689e+002,2.896363e-002
4.396974e+002,2.409941e-002
4.416259e+002,1.732837e-002
4.435544e+002,1.984212e-002
4.454829e+002,2.252365e-002
4.474114e+002,2.656038e-002
4.493399e+002,2.477097e-002
4.512684e+002,2.332987e-002
4.531969e+002,2.398070e-002
4.551254e+002,2.334588e-002
4.570539e+002,2.223932e-002
4.589824e+002,2.122056e-002
4.609109e+002,1.996971e-002
4.628394e+002,2.130261e-002
4.647679e+002,2.211818e-002
4.666964e+002,2.259931e-002
4.686249e+002,2.154712e-002
4.705533e+002,2.045697e-002
4.724819e+002,2.161223e-002
4.744103e+002,2.214248e-002
4.763389e+002,2.180503e-002
4.782673e+002,2.110367e-002
4.801959e+002,2.074051e-002
4.821243e+002,2.099210e-002
4.840529e+002,1.908029e-002
4.859813e+002,1.698913e-002
4.879099e+002,1.848944e-002
4.898383e+002,2.085928e-002
4.917668e+002,2.079532e-002
4.936953e+002,1.991441e-002
4.956238e+002,1.935295e-002
4.975523e+002,2.005867e-002
4.994808e+002,1.993522e-002
5.014093e+002,2.045457e-002
5.033378e+002,2.196240e-002
5.052663e+002,2.320343e-002
5.071948e+002,2.238767e-002
5.091233e+002,1.983321e-002
5.110518e+002,1.814843e-002
5.129803e+002,1.871749e-002
5.149088e+002,1.960620e-002
5.168373e+002,2.043495e-002
5.187658e+002,2.027747e-002
5.206943e+002,1.889382e-002
5.226228e+002,1.840862e-002
5.245513e+002,1.920051e-002
5.264798e+002,1.938285e-002
5.284083e+002,1.858640e-002
5.303368e+002,1.910733e-002
5.322653e+002,2.016792e-002
5.341938e+002,2.041105e-002
5.361223e+002,1.929611e-002
5.380508e+002,1.862756e-002
5.399792e+002,1.942599e-002
5.419078e+002,2.133585e-002
5.438363e+002,2.278853e-002
5.457648e+002,2.201189e-002
5.476932e+002,2.077513e-002
5.496218e+002,2.052494e-002
5.515503e+002,2.068692e-002
5.534788e+002,2.063633e-002
5.554072e+002,2.102851e-002
5.573358e+002,2.092795e-002
5.592643e+002,2.072987e-002
5.611927e+002,2.124328e-002
5.631212e+002,2.179158e-002
5.650497e+002,2.174790e-002
5.669783e+002,2.191012e-002
5.689067e+002,2.202318e-002
5.708352e+002,2.115958e-002
5.727637e+002,2.068042e-002
5.746923e+002,2.012943e-002
5.766207e+002,1.805799e-002
5.785492e+002,1.737193e-002
5.804777e+002,1.838964e-002
5.824063e+002,1.871964e-002
5.843347e+002,1.911481e-002
5.862632e+002,2.056753e-002
5.881917e+002,2.150394e-002
5.901202e+002,2.173585e-002
5.920487e+002,2.296093e-002
5.939772e+002,2.553921e-002
5.959057e+002,2.770182e-002
5.978342e+002,2.703101e-002
5.997627e+002,2.811946e-002
6.016912e+002,2.977269e-002
6.036197e+002,3.067598e-002
6.055482e+002,3.234319e-002
6.074767e+002,3.329460e-002
6.094052e+002,3.418436e-002
6.113337e+002,3.325271e-002
6.132622e+002,3.170763e-002
6.151907e+002,3.178445e-002
6.171192e+002,3.138300e-002
6.190477e+002,3.076332e-002
6.209762e+002,3.120727e-002
6.229047e+002,3.006422e-002
6.248332e+002,2.653660e-002
6.267617e+002,2.288300e-002
6.286902e+002,2.034521e-002
6.306187e+002,1.909722e-002
6.325472e+002,1.807194e-002
6.344756e+002,1.728848e-002
6.364042e+002,1.731096e-002
6.383326e+002,1.702510e-002
6.402612e+002,1.686820e-002
6.421896e+002,1.677469e-002
6.441182e+002,1.668544e-002
6.460466e+002,1.629550e-002
6.479752e+002,1.568902e-002
6.499036e+002,1.572815e-002
6.518322e+002,1.615692e-002
6.537606e+002,1.616559e-002
6.556891e+002,1.569146e-002
6.576177e+002,1.502909e-002
6.595461e+002,1.429410e-002
6.614746e+002,1.427643e-002
6.634031e+002,1.410601e-002
6.653317e+002,1.469945e-002
6.672601e+002,1.590447e-002
6.691886e+002,1.550232e-002
6.711171e+002,1.443917e-002
6.730457e+002,1.429934e-002
6.749741e+002,1.417248e-002
6.769026e+002,1.458975e-002
6.788311e+002,1.509787e-002
6.807596e+002,1.543773e-002
6.826881e+002,1.547925e-002
6.846166e+002,1.516796e-002
6.865451e+002,1.547135e-002
6.884736e+002,1.598964e-002
6.904021e+002,1.586965e-002
6.923306e+002,1.616197e-002
6.942591e+002,1.596974e-002
6.961876e+002,1.548381e-002
6.981161e+002,1.531940e-002
7.000446e+002,1.568974e-002
7.019731e+002,1.611748e-002
7.039016e+002,1.635681e-002
7.058301e+002,1.623847e-002
7.077585e+002,1.596262e-002
7.096871e+002,1.625749e-002
7.116156e+002,1.717630e-002
7.135441e+002,1.757431e-002
7.154725e+002,1.774185e-002
7.174011e+002,1.786481e-002
7.193296e+002,1.822665e-002
7.212581e+002,1.850338e-002
7.231865e+002,1.848772e-002
7.251151e+002,1.885056e-002
7.270436e+002,1.904078e-002
7.289720e+002,1.930539e-002
7.309005e+002,1.971444e-002
7.328290e+002,1.980508e-002
7.347576e+002,2.009629e-002
7.366860e+002,2.082476e-002
7.386145e+002,2.113662e-002
7.405430e+002,2.058914e-002
7.424716e+002,2.001758e-002
7.444000e+002,2.001346e-002
7.463285e+002,2.021440e-002
7.482570e+002,2.011669e-002
7.501855e+002,2.035025e-002
7.521140e+002,2.065745e-002
7.540425e+002,2.071205e-002
7.559710e+002,2.082928e-002
7.578995e+002,2.074979e-002
7.598280e+002,2.047604e-002
7.617565e+002,2.074200e-002
7.636850e+002,2.068612e-002
7.656135e+002,2.075896e-002
7.675420e+002,2.127439e-002
7.694705e+002,2.137720e-002
7.713990e+002,2.084951e-002
7.733275e+002,2.105414e-002
7.752560e+002,2.107338e-002
7.771844e+002,2.063188e-002
7.791130e+002,2.043269e-002
7.810415e+002,2.020832e-002
7.829700e+002,2.018982e-002
7.848984e+002,2.014744e-002
7.868270e+002,1.956104e-002
7.887555e+002,1.898187e-002
7.906840e+002,1.860076e-002
7.926124e+002,1.843185e-002
7.945410e+002,1.862521e-002
7.964695e+002,1.841795e-002
7.983979e+002,1.772003e-002
8.003264e+002,1.765136e-002
8.022549e+002,1.797807e-002
8.041835e+002,1.840488e-002
8.061119e+002,1.881395e-002
8.080404e+002,1.923151e-002
8.099689e+002,1.904040e-002
8.118975e+002,1.895919e-002
8.138259e+002,1.977817e-002
8.157545e+002,2.078938e-002
8.176830e+002,2.009528e-002
8.196115e+002,1.906609e-002
8.215399e+002,1.896359e-002
8.234684e+002,1.937724e-002
8.253970e+002,1.928298e-002
8.273254e+002,1.872164e-002
8.292539e+002,1.830914e-002
8.311824e+002,1.817814e-002
8.331110e+002,1.801592e-002
8.350394e+002,1.825488e-002
8.369679e+002,1.848464e-002
8.388964e+002,1.823380e-002
8.408250e+002,1.811906e-002
8.427534e+002,1.814093e-002
8.446819e+002,1.845304e-002
8.466104e+002,1.837920e-002
8.485389e+002,1.798266e-002
8.504674e+002,1.802518e-002
8.523959e+002,1.813409e-002
8.543244e+002,1.808607e-002
8.562529e+002,1.805923e-002
8.581814e+002,1.797013e-002
8.601099e+002,1.833122e-002
8.620384e+002,1.840405e-002
8.639669e+002,1.808279e-002
8.658954e+002,1.808801e-002
8.678239e+002,1.837972e-002
8.697524e+002,1.828571e-002
8.716809e+002,1.784979e-002
8.736094e+002,1.762527e-002
8.755378e+002,1.782687e-002
8.774664e+002,1.821162e-002
8.793949e+002,1.852661e-002
8.813234e+002,1.870165e-002
8.832518e+002,1.870130e-002
8.851804e+002,1.846020e-002
8.871089e+002,1.838660e-002
8.890374e+002,1.858803e-002
8.909658e+002,1.857216e-002
8.928943e+002,1.873759e-002
8.948229e+002,1.903604e-002
8.967513e+002,1.912627e-002
8.986798e+002,1.905629e-002
9.006083e+002,1.882807e-002
9.025369e+002,1.896934e-002
9.044653e+002,1.882841e-002
9.063938e+002,1.866031e-002
9.083223e+002,1.884658e-002
9.102509e+002,1.846825e-002
9.121793e+002,1.776746e-002
9.141078e+002,1.738334e-002
9.160364e+002,1.739169e-002
9.179648e+002,1.738793e-002
9.198933e+002,1.724593e-002
9.218218e+002,1.690582e-002
9.237504e+002,1.660122e-002
9.256788e+002,1.618471e-002
9.276073e+002,1.620441e-002
9.295358e+002,1.640099e-002
9.314644e+002,1.628879e-002
9.333928e+002,1.602492e-002
9.353213e+002,1.577038e-002
9.372498e+002,1.586594e-002
9.391783e+002,1.585470e-002
9.411068e+002,1.585704e-002
9.430353e+002,1.598256e-002
9.449637e+002,1.591272e-002
9.468923e+002,1.568023e-002
9.488208e+002,1.582158e-002
9.507493e+002,1.602145e-002
9.526777e+002,1.619678e-002
9.546063e+002,1.617422e-002
9.565348e+002,1.635773e-002
9.584633e+002,1.657517e-002
9.603917e+002,1.663217e-002
9.623203e+002,1.650374e-002
9.642488e+002,1.640511e-002
9.661772e+002,1.640649e-002
9.681057e+002,1.648660e-002
9.700343e+002,1.647077e-002
9.719628e+002,1.626733e-002
9.738912e+002,1.592406e-002
9.758197e+002,1.573911e-002
9.777483e+002,1.562094e-002
9.796768e+002,1.563736e-002
9.816052e+002,1.556451e-002
9.835337e+002,1.518663e-002
9.854623e+002,1.495034e-002
9.873907e+002,1.473263e-002
9.893192e+002,1.452818e-002
9.912477e+002,1.436505e-002
9.931763e+002,1.426301e-002
9.951047e+002,1.409334e-002
9.970332e+002,1.402271e-002
9.989617e+002,1.379964e-002
1.000890e+003,1.377453e-002
1.002819e+003,1.387879e-002
1.004747e+003,1.382382e-002
1.006676e+003,1.397808e-002
1.008604e+003,1.411453e-002
1.010533e+003,1.394708e-002
1.012461e+003,1.391150e-002
1.014390e+003,1.393832e-002
1.016318e+003,1.427937e-002
1.018247e+003,1.465167e-002
1.020175e+003,1.451245e-002
1.022104e+003,1.463056e-002
1.024032e+003,1.497339e-002
1.025961e+003,1.514391e-002
1.027889e+003,1.525543e-002
1.029818e+003,1.537728e-002
1.031746e+003,1.560390e-002
1.033675e+003,1.575591e-002
1.035603e+003,1.610596e-002
1.037532e+003,1.644517e-002
1.039460e+003,1.663159e-002
1.041389e+003,1.696460e-002
1.043317e+003,1.700060e-002
1.045246e+003,1.688212e-002
1.047174e+003,1.703578e-002
1.049103e+003,1.711701e-002
1.051031e+003,1.716358e-002
1.052960e+003,1.736372e-002
1.054888e+003,1.733534e-002
1.056817e+003,1.700687e-002
1.058745e+003,1.694944e-002
1.060674e+003,1.704330e-002
1.062602e+003,1.716565e-002
1.064531e+003,1.719022e-002
1.066459e+003,1.721515e-002
1.068388e+003,1.710874e-002
1.070316e+003,1.694785e-002
1.072245e+003,1.698992e-002
1.074173e+003,1.710757e-002
1.076102e+003,1.697635e-002
1.078030e+003,1.678385e-002
1.079959e+003,1.682374e-002
1.081887e+003,1.702379e-002
1.083816e+003,1.707273e-002
1.085744e+003,1.714355e-002
1.087673e+003,1.754167e-002
1.089601e+003,1.769232e-002
1.091530e+003,1.795541e-002
1.093458e+003,1.834864e-002
1.095387e+003,1.845923e-002
1.097315e+003,1.870957e-002
1.099244e+003,1.883229e-002
1.101172e+003,1.901655e-002
1.103101e+003,1.916650e-002
1.105029e+003,1.911647e-002
1.106958e+003,1.914985e-002
1.108886e+003,1.917814e-002
1.110815e+003,1.932908e-002
1.112743e+003,1.953511e-002
1.114672e+003,1.933601e-002
1.116600e+003,1.933369e-002
1.118529e+003,1.937066e-002
1.120457e+003,1.934675e-002
1.122386e+003,1.954700e-002
1.124314e+003,1.956253e-002
1.126243e+003,1.925828e-002
1.128171e+003,1.901610e-002
1.130100e+003,1.899969e-002
1.132028e+003,1.885935e-002
1.133957e+003,1.866813e-002
1.135885e+003,1.859125e-002
1.137814e+003,1.852257e-002
1.139742e+003,1.815927e-002
1.141671e+003,1.769305e-002
1.143599e+003,1.738214e-002
1.145528e+003,1.712253e-002
1.147456e+003,1.673475e-002
1.149385e+003,1.634913e-002
1.151313e+003,1.608818e-002
1.153242e+003,1.592547e-002
1.155170e+003,1.575890e-002
1.157099e+003,1.552358e-002
1.159027e+003,1.528055e-002
1.160956e+003,1.526603e-002
1.162884e+003,1.523868e-002
1.164813e+003,1.509087e-002
1.166741e+003,1.507783e-002
1.168670e+003,1.521181e-002
1.170598e+003,1.523278e-002
1.172526e+003,1.507639e-002
1.174455e+003,1.509649e-002
1.176384e+003,1.499232e-002
1.178312e+003,1.495566e-002
1.180240e+003,1.514422e-002
1.182169e+003,1.512964e-002
1.184098e+003,1.505461e-002
1.186026e+003,1.500045e-002
1.187954e+003,1.479371e-002
1.189883e+003,1.428958e-002
1.191812e+003,1.402907e-002
1.193740e+003,1.411162e-002
1.195668e+003,1.407363e-002
1.197597e+003,1.401487e-002
1.199526e+003,1.384318e-002
1.201454e+003,1.358612e-002
1.203382e+003,1.352299e-002
1.205311e+003,1.349137e-002
1.207240e+003,1.344988e-002
1.209168e+003,1.346389e-002
1.211096e+003,1.351868e-002
1.213025e+003,1.365464e-002
1.214953e+003,1.383686e-002
1.216882e+003,1.375196e-002
1.218810e+003,1.360571e-002
1.220739e+003,1.364045e-002
1.222667e+003,1.375682e-002
1.224596e+003,1.384777e-002
1.226524e+003,1.391930e-002
1.228453e+003,1.402127e-002
1.230381e+003,1.427355e-002
1.232310e+003,1.445014e-002
1.234238e+003,1.447514e-002
1.236167e+003,1.452804e-002
1.238095e+003,1.462096e-002
1.240024e+003,1.481006e-002
1.241952e+003,1.500216e-002
1.243881e+003,1.497133e-002
1.245809e+003,1.488625e-002
1.247738e+003,1.500131e-002
1.249666e+003,1.499184e-002
1.251595e+003,1.504044e-002
1.253523e+003,1.528429e-002
1.255452e+003,1.533598e-002
1.257380e+003,1.533231e-002
1.259309e+003,1.539225e-002
1.261237e+003,1.549971e-002
1.263166e+003,1.571248e-002
1.265094e+003,1.580006e-002
1.267023e+003,1.621659e-002
1.268951e+003,1.659795e-002
1.270880e+003,1.671384e-002
1.272808e+003,1.705615e-002
1.274737e+003,1.742311e-002
1.276665e+003,1.775617e-002
1.278594e+003,1.805940e-002
1.280522e+003,1.821943e-002
1.282451e+003,1.831418e-002
1.284379e+003,1.846946e-002
1.286308e+003,1.891984e-002
1.288236e+003,1.908157e-002
1.290165e+003,1.911668e-002
1.292093e+003,1.944401e-002
1.294022e+003,2.018625e-002
1.295950e+003,2.066426e-002
1.297879e+003,2.014755e-002
1.299807e+003,1.985176e-002
1.301736e+003,1.987140e-002
1.303664e+003,1.989762e-002
1.305593e+003,1.992034e-002
1.307521e+003,1.967477e-002
1.309450e+003,1.930061e-002
1.311378e+003,1.899793e-002
1.313307e+003,1.887233e-002
1.315235e+003,1.877475e-002
1.317164e+003,1.863109e-002
1.319092e+003,1.830838e-002
1.321021e+003,1.767700e-002
1.322949e+003,1.728541e-002
1.324878e+003,1.728172e-002
1.326806e+003,1.715007e-002
1.328735e+003,1.706762e-002
1.330663e+003,1.697514e-002
1.332592e+003,1.681234e-002
1.334520e+003,1.675255e-002
1.336449e+003,1.674886e-002
1.338377e+003,1.669711e-002
1.340306e+003,1.662866e-002
1.342234e+003,1.655988e-002
1.344163e+003,1.647721e-002
1.346091e+003,1.641623e-002
1.348020e+003,1.649366e-002
1.349948e+003,1.654735e-002
1.351877e+003,1.640494e-002
1.353805e+003,1.647655e-002
1.355734e+003,1.647511e-002
1.357662e+003,1.625229e-002
1.359591e+003,1.614939e-002
1.361519e+003,1.619988e-002
1.363448e+003,1.617033e-002
1.365376e+003,1.592014e-002
1.367305e+003,1.581271e-002
1.369233e+003,1.577862e-002
1.371162e+003,1.575962e-002
1.373090e+003,1.595977e-002
1.375019e+003,1.611215e-002
1.376947e+003,1.595338e-002
1.378876e+003,1.594025e-002
1.380804e+003,1.603919e-002
1.382733e+003,1.591746e-002
1.384661e+003,1.575832e-002
1.386590e+003,1.589474e-002
1.388518e+003,1.582182e-002
1.390447e+003,1.561421e-002
1.392375e+003,1.553467e-002
1.394304e+003,1.568342e-002
1.396232e+003,1.563794e-002
1.398161e+003,1.561129e-002
1.400089e+003,1.546730e-002
1.402018e+003,1.523278e-002
1.403946e+003,1.523268e-002
1.405875e+003,1.511560e-002
1.407803e+003,1.499640e-002
1.409732e+003,1.490895e-002
1.411660e+003,1.477167e-002
1.413589e+003,1.467021e-002
1.415517e+003,1.484404e-002
1.417446e+003,1.549391e-002
1.419374e+003,1.606807e-002
1.421303e+003,1.601051e-002
1.423231e+003,1.621140e-002
1.425160e+003,1.670861e-002
1.427088e+003,1.714841e-002
1.429017e+003,1.764218e-002
1.430945e+003,1.791753e-002
1.432874e+003,1.811930e-002
1.434802e+003,1.875281e-002
1.436731e+003,1.937772e-002
1.438659e+003,1.940250e-002
1.440588e+003,1.958752e-002
1.442516e+003,1.997491e-002
1.444445e+003,2.039303e-002
1.446373e+003,2.104451e-002
1.448302e+003,2.154572e-002
1.450230e+003,2.178778e-002
1.452159e+003,2.227612e-002
1.454087e+003,2.297906e-002
1.456016e+003,2.387447e-002
1.457944e+003,2.403399e-002
1.459873e+003,2.352340e-002
1.461801e+003,2.331026e-002
1.463730e+003,2.349251e-002
1.465658e+003,2.336819e-002
1.467587e+003,2.282150e-002
1.469515e+003,2.252801e-002
1.471444e+003,2.273696e-002
1.473372e+003,2.263265e-002
1.475301e+003,2.201590e-002
1.477229e+003,2.130644e-002
1.479158e+003,2.064737e-002
1.481086e+003,1.996683e-002
1.483015e+003,1.931405e-002
1.484943e+003,1.899876e-002
1.486872e+003,1.884724e-002
1.488800e+003,1.860892e-002
1.490729e+003,1.802980e-002
1.492657e+003,1.729234e-002
1.494586e+003,1.720132e-002
1.496514e+003,1.725428e-002
1.498443e+003,1.684909e-002
1.500371e+003,1.627266e-002
1.502300e+003,1.597277e-002
1.504228e+003,1.639431e-002
1.506157e+003,1.706890e-002
1.508085e+003,1.655713e-002
1.510014e+003,1.577931e-002
1.511942e+003,1.552667e-002
1.513871e+003,1.544814e-002
1.515799e+003,1.554384e-002
1.517728e+003,1.561218e-002
1.519656e+003,1.577082e-002
1.521585e+003,1.595881e-002
1.523513e+003,1.563949e-002
1.525442e+003,1.576914e-002
1.527370e+003,1.574536e-002
1.529299e+003,1.545161e-002
1.531227e+003,1.553408e-002
1.533156e+003,1.601391e-002
1.535084e+003,1.601636e-002
1.537013e+003,1.632337e-002
1.538941e+003,1.736245e-002
1.540870e+003,1.765602e-002
1.542798e+003,1.724593e-002
1.544727e+003,1.704085e-002
1.546655e+003,1.677800e-002
1.548584e+003,1.682970e-002
1.550512e+003,1.700239e-002
1.552441e+003,1.706394e-002
1.554369e+003,1.729665e-002
1.556298e+003,1.776090e-002
1.558226e+003,1.892275e-002
1.560155e+003,1.872389e-002
1.562083e+003,1.794464e-002
1.564012e+003,1.813264e-002
1.565940e+003,1.847672e-002
1.567869e+003,1.886482e-002
1.569797e+003,1.915660e-002
1.571726e+003,1.890247e-002
1.573654e+003,1.903871e-002
1.575583e+003,1.962253e-002
1.577511e+003,1.931110e-002
1.579440e+003,1.885637e-002
1.581368e+003,1.899678e-002
1.583297e+003,1.889731e-002
1.585225e+003,1.865042e-002
1.587154e+003,1.855995e-002
1.589082e+003,1.847810e-002
1.591010e+003,1.814100e-002
1.592939e+003,1.780219e-002
1.594868e+003,1.755067e-002
1.596796e+003,1.726169e-002
1.598724e+003,1.696277e-002
1.600653e+003,1.668292e-002
1.602582e+003,1.646902e-002
1.604510e+003,1.617931e-002
1.606438e+003,1.586570e-002
1.608367e+003,1.560146e-002
1.610296e+003,1.546513e-002
1.612224e+003,1.517249e-002
1.614152e+003,1.511550e-002
1.616081e+003,1.538555e-002
1.618010e+003,1.511523e-002
1.619938e+003,1.461020e-002
1.621866e+003,1.462950e-002
1.623795e+003,1.456597e-002
1.625724e+003,1.441492e-002
1.627652e+003,1.436906e-002
1.629580e+003,1.407767e-002
1.631509e+003,1.390972e-002
1.633438e+003,1.420018e-002
1.635366e+003,1.455973e-002
1.637294e+003,1.390791e-002
1.639223e+003,1.318178e-002
1.641151e+003,1.279647e-002
1.643080e+003,1.259467e-002
1.645008e+003,1.271325e-002
1.646937e+003,1.277747e-002
1.648865e+003,1.223027e-002
1.650794e+003,1.234909e-002
1.652722e+003,1.327630e-002
1.654651e+003,1.227795e-002
1.656579e+003,1.125653e-002
1.658508e+003,1.091077e-002
1.660436e+003,1.086905e-002
1.662365e+003,1.101880e-002
1.664293e+003,1.075868e-002
1.666222e+003,1.066556e-002
1.668150e+003,1.098237e-002
1.670079e+003,1.085896e-002
1.672007e+003,1.057032e-002
1.673936e+003,1.066926e-002
1.675864e+003,1.065575e-002
1.677793e+003,1.021307e-002
1.679721e+003,1.018726e-002
1.681650e+003,1.049516e-002
1.683578e+003,1.115602e-002
1.685507e+003,1.068037e-002
1.687435e+003,9.910725e-003
1.689364e+003,9.819987e-003
1.691292e+003,9.773084e-003
1.693221e+003,9.921573e-003
1.695149e+003,1.050599e-002
1.697078e+003,1.070173e-002
1.699006e+003,1.112400e-002
1.700935e+003,1.117931e-002
1.702863e+003,1.042514e-002
1.704792e+003,1.054598e-002
1.706720e+003,1.053821e-002
1.708649e+003,1.038346e-002
1.710577e+003,1.027203e-002
1.712506e+003,1.033972e-002
1.714434e+003,1.058553e-002
1.716363e+003,1.096799e-002
1.718291e+003,1.101210e-002
1.720220e+003,1.049842e-002
1.722148e+003,1.022512e-002
1.724077e+003,1.029263e-002
1.726005e+003,1.032652e-002
1.727934e+003,1.041163e-002
1.729862e+003,1.060631e-002
1.731791e+003,1.093211e-002
1.733719e+003,1.134484e-002
1.735648e+003,1.082669e-002
1.737576e+003,1.051529e-002
1.739505e+003,1.081928e-002
1.741433e+003,1.070349e-002
1.743362e+003,1.059449e-002
1.745290e+003,1.069208e-002
1.747219e+003,1.090574e-002
1.749147e+003,1.106156e-002
1.751076e+003,1.114235e-002
1.753004e+003,1.089144e-002
1.754933e+003,1.082122e-002
1.756861e+003,1.089766e-002
1.758790e+003,1.076986e-002
1.760718e+003,1.087224e-002
1.762647e+003,1.087265e-002
1.764575e+003,1.069307e-002
1.766504e+003,1.086980e-002
1.768432e+003,1.111322e-002
1.770361e+003,1.126846e-002
1.772289e+003,1.144406e-002
1.774218e+003,1.107342e-002
1.776146e+003,1.078253e-002
1.778075e+003,1.076514e-002
1.780003e+003,1.082917e-002
1.781932e+003,1.080199e-002
1.783860e+003,1.078260e-002
1.785789e+003,1.079666e-002
1.787717e+003,1.080586e-002
1.789646e+003,1.091655e-002
1.791574e+003,1.127118e-002
1.793503e+003,1.114120e-002
1.795431e+003,1.071575e-002
1.797360e+003,1.072316e-002
1.799288e+003,1.092086e-002
1.801217e+003,1.094326e-002
1.803145e+003,1.083338e-002
1.805074e+003,1.084924e-002
1.807002e+003,1.083450e-002
1.808931e+003,1.080145e-002
1.810859e+003,1.092841e-002
1.812788e+003,1.093860e-002
1.814716e+003,1.083124e-002
1.816645e+003,1.084575e-002
1.818573e+003,1.085390e-002
1.820502e+003,1.087965e-002
1.822430e+003,1.091186e-002
1.824359e+003,1.105347e-002
1.826287e+003,1.103403e-002
1.828216e+003,1.105194e-002
1.830144e+003,1.113794e-002
1.832073e+003,1.102325e-002
1.834001e+003,1.095073e-002
1.835930e+003,1.087065e-002
1.837858e+003,1.080264e-002
1.839787e+003,1.080468e-002
1.841715e+003,1.097557e-002
1.843644e+003,1.121229e-002
1.845572e+003,1.107671e-002
1.847501e+003,1.088169e-002
1.849429e+003,1.086942e-002
1.851358e+003,1.089103e-002
1.853286e+003,1.084575e-002
1.855215e+003,1.081949e-002
1.857143e+003,1.078898e-002
1.859072e+003,1.080216e-002
1.861000e+003,1.085176e-002
1.862929e+003,1.092209e-002
1.864857e+003,1.099443e-002
1.866786e+003,1.105309e-002
1.868714e+003,1.114069e-002
1.870643e+003,1.103725e-002
1.872571e+003,1.095481e-002
1.874500e+003,1.096337e-002
1.876428e+003,1.096541e-002
1.878357e+003,1.090778e-002
1.880285e+003,1.088869e-002
1.882214e+003,1.094825e-002
1.884142e+003,1.097921e-002
1.886071e+003,1.101176e-002
1.887999e+003,1.106750e-002
1.889928e+003,1.107192e-002
1.891856e+003,1.099137e-002
1.893785e+003,1.105418e-002
1.895713e+003,1.107916e-002
1.897642e+003,1.102872e-002
1.899570e+003,1.099392e-002
1.901499e+003,1.103919e-002
1.903427e+003,1.103875e-002
1.905356e+003,1.100279e-002
1.907284e+003,1.104504e-002
1.909213e+003,1.109609e-002
1.911141e+003,1.100079e-002
1.913070e+003,1.091726e-002
1.914998e+003,1.091138e-002
1.916927e+003,1.103413e-002
1.918855e+003,1.106947e-002
1.920784e+003,1.104820e-002
1.922712e+003,1.110574e-002
1.924641e+003,1.104079e-002
1.926569e+003,1.089202e-002
1.928498e+003,1.083715e-002
1.930426e+003,1.093374e-002
1.932355e+003,1.099783e-002
1.934283e+003,1.097017e-002
1.936212e+003,1.101751e-002
1.938140e+003,1.101557e-002
1.940069e+003,1.103885e-002
1.941997e+003,1.112903e-002
1.943926e+003,1.110969e-002
1.945854e+003,1.100351e-002
1.947783e+003,1.090507e-002
1.949711e+003,1.091835e-002
1.951640e+003,1.098206e-002
1.953568e+003,1.101299e-002
1.955497e+003,1.098655e-002
1.957425e+003,1.099379e-002
1.959354e+003,1.092973e-002
1.961282e+003,1.092926e-002
1.963211e+003,1.095746e-002
1.965139e+003,1.098736e-002
1.967068e+003,1.098230e-002
1.968996e+003,1.094526e-002
1.970925e+003,1.099970e-002
1.972853e+003,1.098502e-002
1.974782e+003,1.093758e-002
1.976710e+003,1.088995e-002
1.978639e+003,1.087765e-002
1.980567e+003,1.091859e-002
1.982496e+003,1.096762e-002
1.984424e+003,1.089783e-002
1.986353e+003,1.085917e-002
1.988281e+003,1.095600e-002
1.990210e+003,1.101673e-002
1.992138e+003,1.103270e-002
1.994067e+003,1.099566e-002
1.995995e+003,1.096330e-002
1.997924e+003,1.101496e-002
1.999852e+003,1.105044e-002
2.001781e+003,1.092786e-002
2.003709e+003,1.084758e-002
2.005638e+003,1.086599e-002
2.007566e+003,1.085675e-002
2.009495e+003,1.087659e-002
2.011423e+003,1.092596e-002
2.013352e+003,1.104041e-002
2.015280e+003,1.106111e-002
2.017208e+003,1.098101e-002
2.019137e+003,1.084996e-002
2.021066e+003,1.085349e-002
2.022994e+003,1.097598e-002
2.024922e+003,1.108096e-002
2.026851e+003,1.108008e-002
2.028780e+003,1.100898e-002
2.030708e+003,1.095831e-002
2.032636e+003,1.108294e-002
2.034565e+003,1.105078e-002
2.036494e+003,1.093184e-002
2.038422e+003,1.093408e-002
2.040350e+003,1.103406e-002
2.042279e+003,1.112566e-002
2.044208e+003,1.106652e-002
2.046136e+003,1.098689e-002
2.048064e+003,1.104701e-002
2.049993e+003,1.111618e-002
2.051921e+003,1.104276e-002
2.053850e+003,1.102954e-002
2.055778e+003,1.103766e-002
2.057707e+003,1.096684e-002
2.059635e+003,1.109721e-002
2.061564e+003,1.116931e-002
2.063492e+003,1.114541e-002
2.065421e+003,1.109813e-002
2.067349e+003,1.104007e-002
2.069278e+003,1.101125e-002
2.071206e+003,1.101686e-002
2.073135e+003,1.107202e-002
2.075063e+003,1.112998e-002
2.076992e+003,1.117220e-002
2.078920e+003,1.120535e-002
2.080849e+003,1.119801e-002
2.082777e+003,1.119882e-002
2.084706e+003,1.119257e-002
2.086634e+003,1.111349e-002
2.088563e+003,1.104990e-002
2.090491e+003,1.115327e-002
2.092420e+003,1.126166e-002
2.094348e+003,1.129152e-002
2.096277e+003,1.130784e-002
2.098205e+003,1.131032e-002
2.100134e+003,1.128104e-002
2.102062e+003,1.128108e-002
2.103991e+003,1.134066e-002
2.105919e+003,1.142906e-002
2.107848e+003,1.142359e-002
2.109776e+003,1.141073e-002
2.111705e+003,1.143505e-002
2.113633e+003,1.148247e-002
2.115562e+003,1.140328e-002
2.117490e+003,1.141008e-002
2.119419e+003,1.152368e-002
2.121347e+003,1.155284e-002
2.123276e+003,1.155784e-002
2.125204e+003,1.152677e-002
2.127133e+003,1.143760e-002
2.129061e+003,1.151197e-002
2.130990e+003,1.160150e-002
2.132918e+003,1.163441e-002
2.134847e+003,1.159296e-002
2.136775e+003,1.155076e-002
2.138704e+003,1.164006e-002
2.140632e+003,1.169448e-002
2.142561e+003,1.161106e-002
2.144489e+003,1.150238e-002
2.146418e+003,1.155236e-002
2.148346e+003,1.169206e-002
2.150275e+003,1.173172e-002
2.152203e+003,1.170381e-002
2.154132e+003,1.167280e-002
2.156060e+003,1.169778e-002
2.157989e+003,1.167705e-002
2.159917e+003,1.164982e-002
2.161846e+003,1.172243e-002
2.163774e+003,1.178343e-002
2.165703e+003,1.171974e-002
2.167631e+003,1.172192e-002
2.169560e+003,1.182946e-002
2.171488e+003,1.187914e-002
2.173417e+003,1.180917e-002
2.175345e+003,1.175231e-002
2.177274e+003,1.174333e-002
2.179202e+003,1.179991e-002
2.181131e+003,1.176917e-002
2.183059e+003,1.177335e-002
2.184988e+003,1.180920e-002
2.186916e+003,1.173519e-002
2.188845e+003,1.168849e-002
2.190773e+003,1.177645e-002
2.192702e+003,1.186743e-002
2.194630e+003,1.180212e-002
2.196559e+003,1.170401e-002
2.198487e+003,1.166385e-002
2.200416e+003,1.165990e-002
2.202344e+003,1.172818e-002
2.204273e+003,1.171695e-002
2.206201e+003,1.170466e-002
2.208130e+003,1.165418e-002
2.210058e+003,1.156158e-002
2.211987e+003,1.154106e-002
2.213915e+003,1.161647e-002
2.215844e+003,1.159149e-002
2.217772e+003,1.156233e-002
2.219701e+003,1.164642e-002
2.221629e+003,1.165677e-002
2.223558e+003,1.164628e-002
2.225486e+003,1.166708e-002
2.227415e+003,1.170088e-002
2.229343e+003,1.167498e-002
2.231272e+003,1.166150e-002
2.233200e+003,1.160606e-002
2.235129e+003,1.160490e-002
2.237057e+003,1.169897e-002
2.238986e+003,1.167957e-002
2.240914e+003,1.164526e-002
2.242843e+003,1.164091e-002
2.244771e+003,1.160500e-002
2.246700e+003,1.163298e-002
2.248628e+003,1.173145e-002
2.250557e+003,1.168999e-002
2.252485e+003,1.166238e-002
2.254414e+003,1.171449e-002
2.256342e+003,1.173904e-002
2.258271e+003,1.163713e-002
2.260199e+003,1.151037e-002
2.262128e+003,1.146652e-002
2.264056e+003,1.159047e-002
2.265985e+003,1.166650e-002
2.267913e+003,1.158302e-002
2.269842e+003,1.156032e-002
2.271770e+003,1.164094e-002
2.273699e+003,1.160681e-002
2.275627e+003,1.164741e-002
2.277556e+003,1.166419e-002
2.279484e+003,1.157648e-002
2.281413e+003,1.152585e-002
2.283341e+003,1.148877e-002
2.285270e+003,1.146407e-002
2.287198e+003,1.153803e-002
2.289127e+003,1.157550e-002
2.291055e+003,1.163584e-002
2.292984e+003,1.169077e-002
2.294912e+003,1.160630e-002
2.296841e+003,1.161177e-002
2.298769e+003,1.162736e-002
2.300698e+003,1.161970e-002
2.302626e+003,1.169063e-002
2.304555e+003,1.176454e-002
2.306483e+003,1.186992e-002
2.308412e+003,1.199300e-002
2.310340e+003,1.207141e-002
2.312269e+003,1.210698e-002
2.314197e+003,1.223524e-002
2.316125e+003,1.242597e-002
2.318054e+003,1.259327e-002
2.319983e+003,1.278743e-002
2.321911e+003,1.292313e-002
2.323840e+003,1.295443e-002
2.325768e+003,1.311532e-002
2.327697e+003,1.336116e-002
2.329625e+003,1.347424e-002
2.331553e+003,1.357426e-002
2.333482e+003,1.366322e-002
2.335411e+003,1.370579e-002
2.337339e+003,1.368418e-002
2.339268e+003,1.361238e-002
2.341196e+003,1.353437e-002
2.343125e+003,1.335173e-002
2.345053e+003,1.306662e-002
2.346981e+003,1.265519e-002
2.348910e+003,1.242068e-002
2.350839e+003,1.282637e-002
2.352767e+003,1.350159e-002
2.354696e+003,1.405559e-002
2.356624e+003,1.445592e-002
2.358552e+003,1.465064e-002
2.360481e+003,1.462446e-002
2.362409e+003,1.450159e-002
2.364338e+003,1.440924e-002
2.366267e+003,1.430006e-002
2.368195e+003,1.403407e-002
2.370124e+003,1.378374e-002
2.372052e+003,1.349185e-002
2.373980e+003,1.306481e-002
2.375909e+003,1.258290e-002
2.377838e+003,1.239484e-002
2.379766e+003,1.230873e-002
2.381695e+003,1.207159e-002
2.383623e+003,1.200669e-002
2.385552e+003,1.208399e-002
2.387480e+003,1.207036e-002
2.389408e+003,1.204307e-002
2.391337e+003,1.202280e-002
2.393266e+003,1.195213e-002
2.395194e+003,1.194814e-002
2.397123e+003,1.201275e-002
2.399051e+003,1.191831e-002
2.400979e+003,1.183168e-002
2.402908e+003,1.193510e-002
2.404836e+003,1.208964e-002
2.406765e+003,1.207932e-002
2.408694e+003,1.196585e-002
2.410622e+003,1.196367e-002
2.412551e+003,1.195924e-002
2.414479e+003,1.191599e-002
2.416407e+003,1.190366e-002
2.418336e+003,1.192675e-002
2.420264e+003,1.198169e-002
2.422193e+003,1.203592e-002
2.424122e+003,1.203357e-002
2.426050e+003,1.204890e-002
2.427979e+003,1.213874e-002
2.429907e+003,1.220580e-002
2.431835e+003,1.228371e-002
2.433764e+003,1.229636e-002
2.435692e+003,1.226725e-002
2.437621e+003,1.231135e-002
2.439550e+003,1.240009e-002
2.441478e+003,1.239873e-002
2.443406e+003,1.227280e-002
2.445335e+003,1.225692e-002
2.447263e+003,1.229857e-002
2.449192e+003,1.230402e-002
2.451121e+003,1.239511e-002
2.453049e+003,1.241768e-002
2.454978e+003,1.237752e-002
2.456906e+003,1.240517e-002
2.458834e+003,1.244854e-002
2.460763e+003,1.247159e-002
2.462691e+003,1.246112e-002
2.464620e+003,1.261139e-002
2.466549e+003,1.269561e-002
2.468477e+003,1.263243e-002
2.470406e+003,1.263700e-002
2.472334e+003,1.263902e-002
2.474262e+003,1.263414e-002
2.476191e+003,1.266525e-002
2.478119e+003,1.267334e-002
2.480048e+003,1.269462e-002
2.481977e+003,1.267050e-002
2.483905e+003,1.267572e-002
2.485833e+003,1.269377e-002
2.487762e+003,1.274423e-002
2.489690e+003,1.280385e-002
2.491619e+003,1.277047e-002
2.493547e+003,1.282459e-002
2.495476e+003,1.288251e-002
2.497405e+003,1.286551e-002
2.499333e+003,1.294600e-002
2.501261e+003,1.310623e-002
2.503190e+003,1.301725e-002
2.505118e+003,1.273379e-002
2.507047e+003,1.272618e-002
2.508975e+003,1.290651e-002
2.510904e+003,1.297785e-002
2.512833e+003,1.300929e-002
2.514761e+003,1.301971e-002
2.516689e+003,1.297498e-002
2.518618e+003,1.293545e-002
2.520546e+003,1.300428e-002
2.522475e+003,1.303343e-002
2.524403e+003,1.303227e-002
2.526332e+003,1.306628e-002
2.528260e+003,1.311638e-002
2.530189e+003,1.314691e-002
2.532117e+003,1.319940e-002
2.534046e+003,1.316436e-002
2.535974e+003,1.317679e-002
2.537903e+003,1.311702e-002
2.539831e+003,1.306608e-002
2.541760e+003,1.313755e-002
2.543688e+003,1.313386e-002
2.545617e+003,1.309691e-002
2.547545e+003,1.318246e-002
2.549474e+003,1.322212e-002
2.551402e+003,1.317758e-002
2.553331e+003,1.318277e-002
2.555259e+003,1.316658e-002
2.557188e+003,1.314158e-002
2.559116e+003,1.314947e-002
2.561045e+003,1.325067e-002
2.562973e+003,1.329878e-002
2.564902e+003,1.318342e-002
2.566830e+003,1.318769e-002
2.568759e+003,1.330762e-002
2.570687e+003,1.338645e-002
2.572616e+003,1.342339e-002
2.574544e+003,1.337664e-002
2.576473e+003,1.329447e-002
2.578401e+003,1.320377e-002
2.580330e+003,1.316033e-002
2.582258e+003,1.328057e-002
2.584187e+003,1.331634e-002
2.586115e+003,1.336660e-002
2.588044e+003,1.344868e-002
2.589972e+003,1.348381e-002
2.591901e+003,1.347018e-002
2.593829e+003,1.342445e-002
2.595758e+003,1.344102e-002
2.597686e+003,1.347770e-002
2.599615e+003,1.354753e-002
2.601543e+003,1.355098e-002
2.603472e+003,1.345439e-002
2.605400e+003,1.346242e-002
2.607329e+003,1.350959e-002
2.609257e+003,1.354743e-002
2.611186e+003,1.350224e-002
2.613114e+003,1.346884e-002
2.615043e+003,1.352483e-002
2.616971e+003,1.363183e-002
2.618900e+003,1.361518e-002
2.620828e+003,1.351198e-002
2.622757e+003,1.358818e-002
2.624685e+003,1.377826e-002
2.626614e+003,1.379170e-002
2.628542e+003,1.364219e-002
2.630471e+003,1.357915e-002
2.632399e+003,1.359207e-002
2.634328e+003,1.347992e-002
2.636256e+003,1.348696e-002
2.638185e+003,1.365447e-002
2.640113e+003,1.380019e-002
2.642042e+003,1.388146e-002
2.643970e+003,1.394021e-002
2.645899e+003,1.399184e-002
2.647827e+003,1.400717e-002
2.649756e+003,1.395926e-002
2.651684e+003,1.390001e-002
2.653613e+003,1.397015e-002
2.655541e+003,1.415475e-002
2.657470e+003,1.427211e-002
2.659398e+003,1.423137e-002
2.661327e+003,1.412524e-002
2.663255e+003,1.411036e-002
2.665184e+003,1.414643e-002
2.667112e+003,1.420966e-002
2.669041e+003,1.419453e-002
2.670969e+003,1.416625e-002
2.672898e+003,1.418796e-002
2.674826e+003,1.430187e-002
2.676755e+003,1.440006e-002
2.678683e+003,1.437666e-002
2.680612e+003,1.441523e-002
2.682540e+003,1.453530e-002
2.684469e+003,1.460558e-002
2.686397e+003,1.470315e-002
2.688326e+003,1.469530e-002
2.690254e+003,1.466555e-002
2.692183e+003,1.465027e-002
2.694111e+003,1.469437e-002
2.696040e+003,1.475199e-002
2.697968e+003,1.482481e-002
2.699897e+003,1.489342e-002
2.701825e+003,1.489698e-002
2.703754e+003,1.487850e-002
2.705682e+003,1.500556e-002
2.707611e+003,1.513502e-002
2.709539e+003,1.516408e-002
2.711468e+003,1.516899e-002
2.713396e+003,1.522252e-002
2.715325e+003,1.520162e-002
2.717253e+003,1.521946e-002
2.719182e+003,1.524184e-002
2.721110e+003,1.536959e-002
2.723039e+003,1.548220e-002
2.724967e+003,1.549779e-002
2.726896e+003,1.557643e-002
2.728824e+003,1.563935e-002
2.730753e+003,1.575736e-002
2.732681e+003,1.588653e-002
2.734610e+003,1.596586e-002
2.736538e+003,1.606212e-002
2.738467e+003,1.617652e-002
2.740395e+003,1.620428e-002
2.742324e+003,1.612061e-002
2.744252e+003,1.622123e-002
2.746181e+003,1.636155e-002
2.748109e+003,1.650571e-002
2.750038e+003,1.661943e-002
2.751966e+003,1.665211e-002
2.753895e+003,1.664205e-002
2.755823e+003,1.667104e-002
2.757752e+003,1.676484e-002
2.759680e+003,1.690861e-002
2.761609e+003,1.715207e-002
2.763537e+003,1.744974e-002
2.765466e+003,1.758497e-002
2.767394e+003,1.781158e-002
2.769323e+003,1.818391e-002
2.771251e+003,1.852444e-002
2.773180e+003,1.894843e-002
2.775108e+003,1.940319e-002
2.777037e+003,1.979676e-002
2.778965e+003,2.017694e-002
2.780894e+003,2.067406e-002
2.782822e+003,2.125960e-002
2.784750e+003,2.186137e-002
2.786679e+003,2.252169e-002
2.788608e+003,2.325404e-002
2.790536e+003,2.390181e-002
2.792465e+003,2.453646e-002
2.794393e+003,2.525838e-002
2.796322e+003,2.589368e-002
2.798250e+003,2.648754e-002
2.800178e+003,2.713388e-002
2.802107e+003,2.784452e-002
2.804036e+003,2.846285e-002
2.805964e+003,2.887010e-002
2.807893e+003,2.915288e-002
2.809821e+003,2.929893e-002
2.811750e+003,2.948496e-002
2.813678e+003,2.943393e-002
2.815606e+003,2.924970e-002
2.817535e+003,2.910693e-002
2.819464e+003,2.885268e-002
2.821392e+003,2.851556e-002
2.823321e+003,2.813865e-002
2.825249e+003,2.765849e-002
2.827177e+003,2.719765e-002
2.829106e+003,2.674996e-002
2.831034e+003,2.628111e-002
2.832963e+003,2.571340e-002
2.834892e+003,2.522253e-002
2.836820e+003,2.467458e-002
2.838749e+003,2.414624e-002
2.840677e+003,2.353154e-002
2.842605e+003,2.287692e-002
2.844534e+003,2.226021e-002
2.846462e+003,2.165375e-002
2.848391e+003,2.102156e-002
2.850320e+003,2.058407e-002
2.852248e+003,2.032275e-002
2.854177e+003,2.006193e-002
2.856105e+003,1.977165e-002
2.858033e+003,1.966836e-002
2.859962e+003,1.976753e-002
2.861890e+003,1.973400e-002
2.863819e+003,1.970216e-002
2.865748e+003,1.980959e-002
2.867676e+003,1.986925e-002
2.869604e+003,1.988146e-002
2.871533e+003,1.987261e-002
2.873461e+003,1.999836e-002
2.875390e+003,2.019152e-002
2.877319e+003,2.033969e-002
2.879247e+003,2.059724e-002
2.881176e+003,2.063900e-002
2.883104e+003,2.053269e-002
2.885032e+003,2.046773e-002
2.886961e+003,2.045339e-002
2.888889e+003,2.040768e-002
2.890818e+003,2.035140e-002
2.892747e+003,2.023915e-002
2.894675e+003,2.014272e-002
2.896604e+003,2.009108e-002
2.898532e+003,2.002022e-002
2.900460e+003,1.989252e-002
2.902389e+003,1.985308e-002
2.904317e+003,1.978760e-002
2.906246e+003,1.974454e-002
2.908175e+003,1.972442e-002
2.910103e+003,1.973237e-002
2.912031e+003,1.958610e-002
2.913960e+003,1.942190e-002
2.915888e+003,1.925468e-002
2.917817e+003,1.925963e-002
2.919745e+003,1.938420e-002
2.921674e+003,1.962638e-002
2.923603e+003,1.973018e-002
2.925531e+003,1.991867e-002
2.927459e+003,2.022304e-002
2.929388e+003,2.045384e-002
2.931316e+003,2.070450e-002
2.933245e+003,2.095103e-002
2.935173e+003,2.116194e-002
2.937102e+003,2.130550e-002
2.939031e+003,2.135207e-002
2.940959e+003,2.141047e-002
2.942887e+003,2.127763e-002
2.944816e+003,2.111912e-002
2.946744e+003,2.098014e-002
2.948673e+003,2.072369e-002
2.950601e+003,2.038970e-002
2.952530e+003,1.997009e-002
2.954458e+003,1.946902e-002
2.956387e+003,1.910386e-002
2.958315e+003,1.869068e-002
2.960244e+003,1.813955e-002
2.962172e+003,1.750645e-002
2.964101e+003,1.697286e-002
2.966029e+003,1.646998e-002
2.967958e+003,1.601141e-002
2.969886e+003,1.559120e-002
2.971815e+003,1.511207e-002
2.973743e+003,1.468461e-002
2.975672e+003,1.442482e-002
2.977600e+003,1.425647e-002
2.979529e+003,1.406689e-002
2.981457e+003,1.379909e-002
2.983386e+003,1.357300e-002
2.985314e+003,1.336786e-002
2.987243e+003,1.323844e-002
2.989171e+003,1.306949e-002
2.991100e+003,1.288954e-002
2.993028e+003,1.272727e-002
2.994957e+003,1.260231e-002
2.996885e+003,1.254764e-002
2.998814e+003,1.254781e-002
3.000742e+003,1.244175e-002
3.002671e+003,1.229567e-002
3.004599e+003,1.228330e-002
3.006528e+003,1.233037e-002
3.008456e+003,1.222131e-002
3.010385e+003,1.209939e-002
3.012313e+003,1.214453e-002
3.014242e+003,1.212214e-002
3.016170e+003,1.199855e-002
3.018099e+003,1.206256e-002
3.020027e+003,1.224915e-002
3.021956e+003,1.217922e-002
3.023884e+003,1.201432e-002
3.025813e+003,1.191442e-002
3.027741e+003,1.184400e-002
3.029670e+003,1.195488e-002
3.031598e+003,1.204106e-002
3.033527e+003,1.190949e-002
3.035455e+003,1.181445e-002
3.037384e+003,1.185469e-002
3.039312e+003,1.179671e-002
3.041241e+003,1.168298e-002
3.043169e+003,1.163413e-002
3.045098e+003,1.158601e-002
3.047026e+003,1.158465e-002
3.048955e+003,1.157472e-002
3.050883e+003,1.158128e-002
3.052812e+003,1.152728e-002
3.054740e+003,1.143076e-002
3.056669e+003,1.144573e-002
3.058597e+003,1.146390e-002
3.060526e+003,1.149122e-002
3.062454e+003,1.145213e-002
3.064383e+003,1.144570e-002
3.066311e+003,1.144559e-002
3.068240e+003,1.139617e-002
3.070168e+003,1.132607e-002
3.072097e+003,1.124347e-002
3.074025e+003,1.126856e-002
3.075954e+003,1.133365e-002
3.077882e+003,1.126894e-002
3.079811e+003,1.113851e-002
3.081739e+003,1.109096e-002
3.083668e+003,1.112288e-002
3.085596e+003,1.117591e-002
3.087525e+003,1.114929e-002
3.089453e+003,1.105670e-002
3.091382e+003,1.094016e-002
3.093310e+003,1.096055e-002
3.095239e+003,1.108005e-002
3.097167e+003,1.108593e-002
3.099096e+003,1.084819e-002
3.101024e+003,1.075101e-002
3.102953e+003,1.080019e-002
3.104881e+003,1.076582e-002
3.106810e+003,1.082614e-002
3.108738e+003,1.096966e-002
3.110667e+003,1.084948e-002
3.112595e+003,1.074836e-002
3.114524e+003,1.079520e-002
3.116452e+003,1.074771e-002
3.118381e+003,1.062780e-002
3.120309e+003,1.044544e-002
3.122238e+003,1.045565e-002
3.124166e+003,1.051353e-002
3.126095e+003,1.049632e-002
3.128023e+003,1.055705e-002
3.129952e+003,1.061290e-002
3.131880e+003,1.061378e-002
3.133809e+003,1.051400e-002
3.135737e+003,1.044034e-002
3.137666e+003,1.051149e-002
3.139594e+003,1.061137e-002
3.141523e+003,1.058526e-002
3.143451e+003,1.061008e-002
3.145380e+003,1.064312e-002
3.147308e+003,1.058950e-002
3.149237e+003,1.045036e-002
3.151165e+003,1.032303e-002
3.153094e+003,1.032727e-002
3.155022e+003,1.037878e-002
3.156951e+003,1.047456e-002
3.158879e+003,1.063653e-002
3.160808e+003,1.070102e-002
3.162736e+003,1.050389e-002
3.164665e+003,1.045117e-002
3.166593e+003,1.047880e-002
3.168522e+003,1.045406e-002
3.170450e+003,1.048189e-002
3.172379e+003,1.051733e-002
3.174307e+003,1.063120e-002
3.176236e+003,1.072920e-002
3.178164e+003,1.059983e-002
3.180093e+003,1.050253e-002
3.182021e+003,1.055165e-002
3.183950e+003,1.051522e-002
3.185878e+003,1.044313e-002
3.187807e+003,1.051536e-002
3.189735e+003,1.050378e-002
3.191664e+003,1.041251e-002
3.193592e+003,1.035394e-002
3.195521e+003,1.043797e-002
3.197449e+003,1.060709e-002
3.199378e+003,1.067273e-002
3.201306e+003,1.071100e-002
3.203235e+003,1.061066e-002
3.205163e+003,1.061076e-002
3.207092e+003,1.054724e-002
3.209020e+003,1.055311e-002
3.210948e+003,1.061385e-002
3.212877e+003,1.067921e-002
3.214806e+003,1.073987e-002
3.216734e+003,1.064040e-002
3.218663e+003,1.058346e-002
3.220591e+003,1.060760e-002
3.222520e+003,1.074816e-002
3.224448e+003,1.089718e-002
3.226376e+003,1.104494e-002
3.228305e+003,1.109068e-002
3.230234e+003,1.113437e-002
3.232162e+003,1.117479e-002
3.234091e+003,1.123153e-002
3.236019e+003,1.124255e-002
3.237948e+003,1.118879e-002
3.239876e+003,1.129461e-002
3.241804e+003,1.146546e-002
3.243733e+003,1.150071e-002
3.245662e+003,1.151687e-002
3.247590e+003,1.151238e-002
3.249519e+003,1.155147e-002
3.251447e+003,1.156451e-002
3.253375e+003,1.158139e-002
3.255304e+003,1.167940e-002
3.257232e+003,1.193312e-002
3.259161e+003,1.206998e-002
3.261090e+003,1.208133e-002
3.263018e+003,1.203472e-002
3.264947e+003,1.192134e-002
3.266875e+003,1.189552e-002
3.268803e+003,1.193312e-002
3.270732e+003,1.202737e-002
3.272660e+003,1.222529e-002
3.274589e+003,1.236341e-002
3.276518e+003,1.233896e-002
3.278446e+003,1.226970e-002
3.280375e+003,1.214286e-002
3.282303e+003,1.224499e-002
3.284231e+003,1.239303e-002
3.286160e+003,1.236007e-002
3.288088e+003,1.227843e-002
3.290017e+003,1.226680e-002
3.291946e+003,1.227400e-002
3.293874e+003,1.216218e-002
3.295802e+003,1.208950e-002
3.297731e+003,1.209802e-002
3.299659e+003,1.210845e-002
3.301588e+003,1.208606e-002
3.303516e+003,1.195914e-002
3.305445e+003,1.182354e-002
3.307374e+003,1.169608e-002
3.309302e+003,1.153473e-002
3.311230e+003,1.148523e-002
3.313159e+003,1.137107e-002
3.315087e+003,1.128084e-002
3.317016e+003,1.114824e-002
3.318944e+003,1.090979e-002
3.320873e+003,1.089915e-002
3.322802e+003,1.092650e-002
3.324730e+003,1.075203e-002
3.326658e+003,1.066685e-002
3.328587e+003,1.064016e-002
3.330515e+003,1.073892e-002
3.332444e+003,1.071593e-002
3.334372e+003,1.053199e-002
3.336301e+003,1.046129e-002
3.338229e+003,1.048905e-002
3.340158e+003,1.055586e-002
3.342086e+003,1.043478e-002
3.344015e+003,1.039857e-002
3.345943e+003,1.039273e-002
3.347872e+003,1.019014e-002
3.349800e+003,1.015510e-002
3.351729e+003,1.014774e-002
3.353657e+003,1.005356e-002
3.355586e+003,1.007201e-002
3.357514e+003,1.002651e-002
3.359443e+003,1.009263e-002
3.361371e+003,1.017457e-002
3.363300e+003,9.984462e-003
3.365229e+003,9.756275e-003
3.367157e+003,9.711751e-003
3.369085e+003,9.638738e-003
3.371014e+003,9.550055e-003
3.372942e+003,9.613026e-003
3.374871e+003,9.521232e-003
3.376799e+003,9.489566e-003
3.378728e+003,9.470873e-003
3.380656e+003,9.292240e-003
3.382585e+003,9.150430e-003
3.384513e+003,9.137875e-003
3.386442e+003,9.089319e-003
3.388370e+003,9.204712e-003
3.390299e+003,9.213612e-003
3.392227e+003,9.089963e-003
3.394156e+003,9.036676e-003
3.396084e+003,8.987658e-003
3.398013e+003,8.949029e-003
3.399941e+003,8.838033e-003
3.401870e+003,8.693396e-003
3.403798e+003,8.696134e-003
3.405727e+003,8.627078e-003
3.407655e+003,8.739304e-003
3.409584e+003,8.838676e-003
3.411512e+003,8.786299e-003
3.413441e+003,8.694477e-003
3.415369e+003,8.662635e-003
3.417298e+003,8.759724e-003
3.419226e+003,8.753740e-003
3.421155e+003,8.618088e-003
3.423083e+003,8.599397e-003
3.425012e+003,8.585237e-003
3.426940e+003,8.536878e-003
3.428869e+003,8.627179e-003
3.430797e+003,8.611327e-003
3.432726e+003,8.592807e-003
3.434654e+003,8.502750e-003
3.436583e+003,8.276489e-003
3.438511e+003,8.365992e-003
3.440440e+003,8.545055e-003
3.442368e+003,8.651041e-003
3.444297e+003,8.712834e-003
3.446225e+003,8.745356e-003
3.448154e+003,8.710974e-003
3.450082e+003,8.704315e-003
3.452011e+003,8.540730e-003
3.453939e+003,8.387206e-003
3.455868e+003,8.354373e-003
3.457796e+003,8.417609e-003
3.459725e+003,8.634378e-003
3.461653e+003,8.876246e-003
3.463582e+003,8.642828e-003
3.465510e+003,8.381937e-003
3.467439e+003,8.443352e-003
3.469367e+003,8.510859e-003
3.471296e+003,8.523057e-003
3.473224e+003,8.559316e-003
3.475153e+003,8.468793e-003
3.477081e+003,8.534039e-003
3.479010e+003,8.572902e-003
3.480938e+003,8.526301e-003
3.482867e+003,8.509609e-003
3.484795e+003,8.592604e-003
3.486724e+003,8.679604e-003
3.488652e+003,8.534749e-003
3.490581e+003,8.347279e-003
3.492509e+003,8.394063e-003
3.494438e+003,8.636068e-003
3.496366e+003,8.885445e-003
3.498295e+003,8.693498e-003
3.500223e+003,8.489808e-003
3.502152e+003,8.578309e-003
3.504080e+003,8.444028e-003
3.506009e+003,8.397610e-003
3.507937e+003,8.562459e-003
3.509866e+003,8.636102e-003
3.511794e+003,8.624576e-003
3.513723e+003,8.546745e-003
3.515651e+003,8.458184e-003
3.517580e+003,8.568880e-003
3.519508e+003,8.643268e-003
3.521437e+003,8.678962e-003
3.523365e+003,8.615383e-003
3.525294e+003,8.486632e-003
3.527222e+003,8.598789e-003
3.529151e+003,8.646343e-003
3.531079e+003,8.635696e-003
3.533008e+003,8.558032e-003
3.534936e+003,8.510487e-003
3.536865e+003,8.485821e-003
3.538793e+003,8.571584e-003
3.540722e+003,8.854231e-003
3.542650e+003,8.960529e-003
3.544579e+003,9.041277e-003
3.546507e+003,8.898702e-003
3.548436e+003,8.619878e-003
3.550364e+003,8.642727e-003
3.552293e+003,8.662432e-003
3.554221e+003,8.557322e-003
3.556150e+003,8.543164e-003
3.558078e+003,8.657903e-003
3.560007e+003,8.686095e-003
3.561935e+003,8.780889e-003
3.563864e+003,8.756478e-003
3.565792e+003,8.937123e-003
3.567721e+003,9.160616e-003
3.569649e+003,8.921328e-003
3.571578e+003,8.660912e-003
3.573506e+003,8.734571e-003
3.575435e+003,8.860115e-003
3.577363e+003,8.871173e-003
3.579292e+003,8.818150e-003
3.581220e+003,8.539277e-003
3.583149e+003,8.463015e-003
3.585077e+003,8.903200e-003
3.587006e+003,9.206945e-003
3.588934e+003,8.965400e-003
3.590863e+003,8.664967e-003
3.592791e+003,8.665880e-003
3.594720e+003,8.717634e-003
3.596648e+003,8.780483e-003
3.598577e+003,8.922207e-003
3.600505e+003,8.989822e-003
3.602434e+003,8.814566e-003
3.604362e+003,8.913245e-003
3.606291e+003,9.016479e-003
3.608219e+003,9.043780e-003
3.610148e+003,9.033867e-003
3.612076e+003,9.036575e-003
3.614005e+003,8.903707e-003
3.615933e+003,8.825995e-003
3.617862e+003,9.141225e-003
3.619790e+003,9.204170e-003
3.621719e+003,8.837898e-003
3.623647e+003,8.695695e-003
3.625576e+003,8.889131e-003
3.627504e+003,9.498067e-003
3.629433e+003,9.589889e-003
3.631361e+003,9.048144e-003
3.633290e+003,8.839183e-003
3.635218e+003,8.787381e-003
3.637146e+003,8.705498e-003
3.639075e+003,8.711481e-003
3.641004e+003,8.822851e-003
3.642932e+003,8.835802e-003
3.644861e+003,8.902422e-003
3.646789e+003,9.291631e-003
3.648718e+003,9.517473e-003
3.650646e+003,9.347285e-003
3.652574e+003,9.111820e-003
3.654503e+003,9.160141e-003
3.656432e+003,8.959109e-003
3.658360e+003,8.567663e-003
3.660289e+003,8.429467e-003
3.662217e+003,8.379234e-003
3.664146e+003,8.593922e-003
3.666074e+003,8.860183e-003
3.668002e+003,9.116489e-003
3.669931e+003,9.153238e-003
3.671860e+003,8.809089e-003
3.673788e+003,9.197435e-003
3.675717e+003,9.452011e-003
3.677645e+003,9.062252e-003
3.679573e+003,8.761516e-003
3.681502e+003,8.633736e-003
3.683430e+003,8.583580e-003
3.685359e+003,8.726592e-003
3.687288e+003,9.319356e-003
3.689216e+003,9.440769e-003
3.691145e+003,9.115812e-003
3.693073e+003,8.942299e-003
3.695001e+003,8.721724e-003
3.696930e+003,8.588887e-003
3.698858e+003,8.580066e-003
3.700787e+003,8.801616e-003
3.702716e+003,8.916560e-003
3.704644e+003,8.761584e-003
3.706573e+003,8.851492e-003
3.708501e+003,9.030756e-003
3.710429e+003,9.355275e-003
3.712358e+003,9.257646e-003
3.714286e+003,8.875231e-003
3.716215e+003,8.644281e-003
3.718144e+003,8.539750e-003
3.720072e+003,8.623528e-003
3.722000e+003,8.761516e-003
3.723929e+003,8.706342e-003
3.725857e+003,8.945918e-003
3.727786e+003,9.006364e-003
3.729714e+003,8.827212e-003
3.731643e+003,8.849835e-003
3.733572e+003,9.030248e-003
3.735500e+003,9.239707e-003
3.737428e+003,8.900934e-003
3.739357e+003,8.725139e-003
3.741285e+003,9.014179e-003
3.743214e+003,9.537117e-003
3.745142e+003,9.426478e-003
3.747071e+003,9.101940e-003
3.749000e+003,9.527972e-003
3.750928e+003,9.681731e-003
3.752856e+003,9.147553e-003
3.754785e+003,8.710907e-003
3.756713e+003,8.929919e-003
3.758642e+003,9.003455e-003
3.760570e+003,8.774161e-003
3.762499e+003,8.733117e-003
3.764427e+003,8.891364e-003
3.766356e+003,8.694714e-003
3.768284e+003,8.905466e-003
3.770213e+003,8.985188e-003
3.772141e+003,8.745998e-003
3.774070e+003,8.604805e-003
3.775998e+003,8.553436e-003
3.777927e+003,8.614808e-003
3.779855e+003,8.515725e-003
3.781784e+003,8.498965e-003
3.783712e+003,8.579559e-003
3.785641e+003,8.499371e-003
3.787569e+003,8.430041e-003
3.789498e+003,8.424467e-003
3.791426e+003,8.343666e-003
3.793355e+003,8.312693e-003
3.795283e+003,8.608185e-003
3.797212e+003,8.462441e-003
3.799140e+003,8.448184e-003
3.801069e+003,8.857511e-003
3.802997e+003,8.900291e-003
3.804926e+003,8.837830e-003
3.806854e+003,8.805301e-003
3.808783e+003,8.423048e-003
3.810711e+003,8.364911e-003
3.812640e+003,8.486531e-003
3.814568e+003,8.540493e-003
3.816497e+003,8.454502e-003
3.818425e+003,8.574760e-003
3.820354e+003,9.224206e-003
3.822282e+003,9.028489e-003
3.824211e+003,8.643301e-003
3.826139e+003,8.488930e-003
3.828068e+003,8.345996e-003
3.829996e+003,8.487510e-003
3.831925e+003,8.677576e-003
3.833853e+003,8.669734e-003
3.835782e+003,9.020742e-003
3.837710e+003,9.169888e-003
3.839639e+003,8.764897e-003
3.841567e+003,8.683255e-003
3.843496e+003,8.529849e-003
3.845424e+003,8.225125e-003
3.847353e+003,8.220364e-003
3.849281e+003,8.506500e-003
3.851210e+003,9.270306e-003
3.853138e+003,9.859507e-003
3.855067e+003,9.009848e-003
3.856995e+003,8.382612e-003
3.858924e+003,8.309687e-003
3.860852e+003,8.564824e-003
3.862781e+003,8.826469e-003
3.864709e+003,8.846859e-003
3.866638e+003,8.689306e-003
3.868566e+003,8.970609e-003
3.870495e+003,9.127994e-003
3.872423e+003,8.729027e-003
3.874352e+003,8.568947e-003
3.876280e+003,8.352380e-003
3.878209e+003,8.298846e-003
3.880137e+003,8.462441e-003
3.882066e+003,8.376936e-003
3.883994e+003,8.312693e-003
3.885923e+003,8.605278e-003
3.887851e+003,8.627889e-003
3.889780e+003,8.748060e-003
3.891708e+003,8.464603e-003
3.893637e+003,8.021116e-003
3.895565e+003,8.147365e-003
3.897494e+003,8.672911e-003
3.899422e+003,9.098049e-003
3.901351e+003,8.951668e-003
3.903279e+003,8.896673e-003
3.905208e+003,8.816156e-003
3.907136e+003,8.621771e-003
3.909065e+003,8.388456e-003
3.910993e+003,8.147365e-003
3.912922e+003,8.145003e-003
3.914850e+003,8.470617e-003
3.916779e+003,8.672573e-003
3.918707e+003,8.513934e-003
3.920636e+003,8.247446e-003
3.922564e+003,7.966137e-003
3.924493e+003,7.996377e-003
3.926421e+003,8.063206e-003
3.928350e+003,8.122721e-003
3.930278e+003,8.157123e-003
3.932207e+003,8.341166e-003
3.934135e+003,8.652900e-003
3.936064e+003,8.685046e-003
3.937992e+003,8.487782e-003
3.939921e+003,8.236572e-003
3.941849e+003,8.179879e-003
3.943778e+003,8.322826e-003
3.945706e+003,8.264196e-003
3.947635e+003,8.227320e-003
3.949563e+003,8.298677e-003
3.951492e+003,8.338193e-003
3.953420e+003,8.262946e-003
3.955349e+003,8.212226e-003
3.957277e+003,8.139195e-003
3.959206e+003,8.163301e-003
3.961134e+003,8.149019e-003
3.963063e+003,8.181364e-003
3.964991e+003,8.103444e-003
3.966920e+003,8.034482e-003
3.968848e+003,8.139635e-003
3.970777e+003,8.289052e-003
3.972705e+003,8.142504e-003
3.974634e+003,8.092507e-003
3.976562e+003,8.275340e-003
3.978491e+003,8.266728e-003
3.980419e+003,8.384774e-003
3.982348e+003,8.227894e-003
3.984276e+003,8.213712e-003
3.986205e+003,8.290403e-003
3.988133e+003,8.383558e-003
3.990062e+003,8.476732e-003
3.991990e+003,8.468623e-003
3.993919e+003,8.389166e-003
3.995847e+003,8.261021e-003
3.997776e+003,8.094701e-003
3.999704e+003,8.267438e-003
4.001633e+003,0.000000e+000
