3.991989e+002,-1.920357e-002
4.011274e+002,-2.249622e-002
4.030559e+002,-3.230453e-002
4.049844e+002,-3.499261e-002
4.069129e+002,-2.529730e-002
4.088414e+002,-1.718146e-002
4.107699e+002,-1.949531e-002
4.126984e+002,-2.522052e-002
4.146269e+002,-1.731361e-002
4.165554e+002,-9.906998e-003
4.184839e+002,-1.322829e-002
4.204124e+002,-9.821878e-003
4.223409e+002,-1.896026e-003
4.242694e+002,-3.978515e-003
4.261979e+002,-9.437947e-003
4.281264e+002,-8.124763e-003
4.300549e+002,5.633152e-005
4.319834e+002,1.937754e-003
4.339119e+002,-9.453476e-003
4.358404e+002,-6.034302e-003
4.377689e+002,5.496719e-003
4.396974e+002,-5.691615e-003
4.416259e+002,-1.462708e-002
4.435544e+002,-3.311679e-003
4.454829e+002,-8.975788e-003
4.474114e+002,-1.230486e-002
4.493399e+002,-5.149230e-003
4.512684e+002,-2.468976e-003
4.531969e+002,-3.681021e-003
4.551254e+002,-3.747743e-003
4.570539e+002,-3.215061e-003
4.589824e+002,-5.594183e-003
4.609109e+002,-7.806764e-003
4.628394e+002,-7.317682e-003
4.647679e+002,-6.814936e-003
4.666964e+002,-5.643016e-003
4.686249e+002,-4.581775e-003
4.705533e+002,-4.295751e-003
4.724819e+002,-4.927533e-003
4.744103e+002,-4.968973e-003
4.763389e+002,-4.572890e-003
4.782673e+002,-4.351653e-003
4.801959e+002,-4.786969e-003
4.821243e+002,-5.059537e-003
4.840529e+002,-6.087039e-003
4.859813e+002,-7.724942e-003
4.879099e+002,-6.340833e-003
4.898383e+002,-4.213659e-003
4.917668e+002,-5.977114e-003
4.936953e+002,-6.883135e-003
4.956238e+002,-5.635559e-003
4.975523e+002,-4.438902e-003
4.994808e+002,-6.109714e-003
5.014093e+002,-6.059691e-003
5.033378e+002,-4.263598e-003
5.052663e+002,-1.792459e-003
5.071948e+002,-1.945673e-003
5.091233e+002,-4.290404e-003
5.110518e+002,-5.028750e-003
5.129803e+002,-4.298409e-003
5.149088e+002,-4.550627e-003
5.168373e+002,-5.087635e-003
5.187658e+002,-4.142380e-003
5.206943e+002,-3.676619e-003
5.226228e+002,-4.067578e-003
5.245513e+002,-3.644584e-003
5.264798e+002,-4.869183e-003
5.284083e+002,-4.711327e-003
5.303368e+002,-3.479446e-003
5.322653e+002,-3.327496e-003
5.341938e+002,-2.084983e-003
5.361223e+002,-2.871688e-003
5.380508e+002,-4.541380e-003
5.399792e+002,-5.630751e-003
5.419078e+002,-4.989544e-003
5.438363e+002,-3.139408e-003
5.457648e+002,-2.674841e-003
5.476932e+002,-3.374908e-003
5.496218e+002,-3.849794e-003
5.515503e+002,-3.280276e-003
5.534788e+002,-3.376157e-003
5.554072e+002,-4.317207e-003
5.573358e+002,-4.707492e-003
5.592643e+002,-4.644425e-003
5.611927e+002,-4.330854e-003
5.631212e+002,-3.474614e-003
5.650497e+002,-2.562368e-003
5.669783e+002,-3.101544e-003
5.689067e+002,-2.259717e-003
5.708352e+002,-1.403376e-003
5.727637e+002,-3.047262e-004
5.746923e+002,-2.097645e-003
5.766207e+002,-7.184603e-003
5.785492e+002,-3.749747e-003
5.804777e+002,7.458578e-004
5.824063e+002,-3.181808e-003
5.843347e+002,-4.211558e-003
5.862632e+002,-2.740170e-003
5.881917e+002,-3.282841e-003
5.901202e+002,-3.649611e-003
5.920487e+002,-3.488419e-003
5.939772e+002,-2.979375e-003
5.959057e+002,-1.261567e-003
5.978342e+002,-1.547647e-003
5.997627e+002,-2.624849e-003
6.016912e+002,-3.110821e-003
6.036197e+002,-4.056877e-003
6.055482e+002,-3.986788e-003
6.074767e+002,-3.262551e-003
6.094052e+002,-3.747251e-003
6.113337e+002,-4.986268e-003
6.132622e+002,-4.897098e-003
6.151907e+002,-4.637377e-003
6.171192e+002,-4.862794e-003
6.190477e+002,-5.166224e-003
6.209762e+002,-5.085278e-003
6.229047e+002,-4.143857e-003
6.248332e+002,-3.141381e-003
6.267617e+002,-3.297244e-003
6.286902e+002,-3.033998e-003
6.306187e+002,-2.756732e-003
6.325472e+002,-2.829258e-003
6.344756e+002,-2.465055e-003
6.364042e+002,-2.541221e-003
6.383326e+002,-2.529131e-003
6.402612e+002,-2.448878e-003
6.421896e+002,-2.160688e-003
6.441182e+002,-1.814732e-003
6.460466e+002,-2.170941e-003
6.479752e+002,-2.041981e-003
6.499036e+002,-2.038122e-003
6.518322e+002,-1.746524e-003
6.537606e+002,-1.558707e-003
6.556891e+002,-1.897577e-003
6.576177e+002,-2.468251e-003
6.595461e+002,-2.693710e-003
6.614746e+002,-2.271913e-003
6.634031e+002,-2.003097e-003
6.653317e+002,-1.540681e-003
6.672601e+002,-1.706459e-003
6.691886e+002,-1.828656e-003
6.711171e+002,-1.789951e-003
6.730457e+002,-1.609449e-003
6.749741e+002,-1.604860e-003
6.769026e+002,-1.323079e-003
6.788311e+002,-1.208439e-003
6.807596e+002,-1.396572e-003
6.826881e+002,-2.063318e-003
6.846166e+002,-2.404100e-003
6.865451e+002,-2.311728e-003
6.884736e+002,-2.069253e-003
6.904021e+002,-1.566334e-003
6.923306e+002,-1.496832e-003
6.942591e+002,-1.920009e-003
6.961876e+002,-2.255465e-003
6.981161e+002,-2.349002e-003
7.000446e+002,-2.374245e-003
7.019731e+002,-1.970016e-003
7.039016e+002,-1.291796e-003
7.058301e+002,-1.277623e-003
7.077585e+002,-1.762265e-003
7.096871e+002,-1.700287e-003
7.116156e+002,-1.097271e-003
7.135441e+002,-1.149587e-003
7.154725e+002,-2.015399e-003
7.174011e+002,-2.296271e-003
7.193296e+002,-1.682134e-003
7.212581e+002,-1.764212e-003
7.231865e+002,-2.126068e-003
7.251151e+002,-2.286185e-003
7.270436e+002,-2.213436e-003
7.289720e+002,-1.890847e-003
7.309005e+002,-1.900315e-003
7.328290e+002,-2.275242e-003
7.347576e+002,-1.761803e-003
7.366860e+002,-1.282612e-003
7.386145e+002,-1.252415e-003
7.405430e+002,-1.837366e-003
7.424716e+002,-2.357900e-003
7.444000e+002,-2.028394e-003
7.463285e+002,-1.686260e-003
7.482570e+002,-1.900744e-003
7.501855e+002,-1.853665e-003
7.521140e+002,-1.953985e-003
7.540425e+002,-1.948773e-003
7.559710e+002,-1.968103e-003
7.578995e+002,-2.360075e-003
7.598280e+002,-2.609106e-003
7.617565e+002,-2.720777e-003
7.636850e+002,-2.329888e-003
7.656135e+002,-1.933138e-003
7.675420e+002,-1.870590e-003
7.694705e+002,-1.478110e-003
7.713990e+002,-1.484152e-003
7.733275e+002,-1.862804e-003
7.752560e+002,-2.006528e-003
7.771844e+002,-2.201337e-003
7.791130e+002,-2.090490e-003
7.810415e+002,-1.787146e-003
7.829700e+002,-1.519318e-003
7.848984e+002,-1.286939e-003
7.868270e+002,-1.478010e-003
7.887555e+002,-1.676457e-003
7.906840e+002,-1.641535e-003
7.926124e+002,-1.730122e-003
7.945410e+002,-1.390990e-003
7.964695e+002,-1.225719e-003
7.983979e+002,-1.223770e-003
8.003264e+002,-1.449050e-003
8.022549e+002,-1.766126e-003
8.041835e+002,-1.757612e-003
8.061119e+002,-1.641997e-003
8.080404e+002,-1.324070e-003
8.099689e+002,-1.684973e-003
8.118975e+002,-2.225237e-003
8.138259e+002,-1.830207e-003
8.157545e+002,-1.327572e-003
8.176830e+002,-1.661505e-003
8.196115e+002,-2.038551e-003
8.215399e+002,-1.790875e-003
8.234684e+002,-1.262294e-003
8.253970e+002,-1.172554e-003
8.273254e+002,-1.598258e-003
8.292539e+002,-1.765961e-003
8.311824e+002,-1.681441e-003
8.331110e+002,-1.610736e-003
8.350394e+002,-1.396275e-003
8.369679e+002,-1.088447e-003
8.388964e+002,-1.384550e-003
8.408250e+002,-1.795924e-003
8.427534e+002,-1.679494e-003
8.446819e+002,-1.169183e-003
8.466104e+002,-1.309733e-003
8.485389e+002,-1.569305e-003
8.504674e+002,-1.380520e-003
8.523959e+002,-1.234805e-003
8.543244e+002,-1.356673e-003
8.562529e+002,-1.412623e-003
8.581814e+002,-1.493993e-003
8.601099e+002,-1.360967e-003
8.620384e+002,-1.149223e-003
8.639669e+002,-1.076251e-003
8.658954e+002,-1.005547e-003
8.678239e+002,-1.038437e-003
8.697524e+002,-1.364699e-003
8.716809e+002,-1.584426e-003
8.736094e+002,-1.538006e-003
8.755378e+002,-1.372527e-003
8.774664e+002,-1.245874e-003
8.793949e+002,-1.341049e-003
8.813234e+002,-1.486167e-003
8.832518e+002,-1.453805e-003
8.851804e+002,-1.580365e-003
8.871089e+002,-1.752761e-003
8.890374e+002,-1.465099e-003
8.909658e+002,-1.412524e-003
8.928943e+002,-1.184846e-003
8.948229e+002,-9.454109e-004
8.967513e+002,-7.604889e-004
8.986798e+002,-1.065442e-003
9.006083e+002,-1.321692e-003
9.025369e+002,-1.296916e-003
9.044653e+002,-1.277491e-003
9.063938e+002,-1.453343e-003
9.083223e+002,-1.381313e-003
9.102509e+002,-1.148860e-003
9.121793e+002,-1.046073e-003
9.141078e+002,-1.143176e-003
9.160364e+002,-1.276467e-003
9.179648e+002,-1.164953e-003
9.198933e+002,-1.373155e-003
9.218218e+002,-1.546326e-003
9.237504e+002,-1.333517e-003
9.256788e+002,-1.282975e-003
9.276073e+002,-1.433528e-003
9.295358e+002,-1.186762e-003
9.314644e+002,-9.903399e-004
9.333928e+002,-1.184978e-003
9.353213e+002,-1.165151e-003
9.372498e+002,-1.099386e-003
9.391783e+002,-1.183954e-003
9.411068e+002,-1.056981e-003
9.430353e+002,-8.811006e-004
9.449637e+002,-1.168985e-003
9.468923e+002,-1.462127e-003
9.488208e+002,-1.369686e-003
9.507493e+002,-1.010406e-003
9.526777e+002,-9.260362e-004
9.546063e+002,-1.209000e-003
9.565348e+002,-1.100675e-003
9.584633e+002,-8.670800e-004
9.603917e+002,-1.138847e-003
9.623203e+002,-1.339463e-003
9.642488e+002,-1.200178e-003
9.661772e+002,-9.825710e-004
9.681057e+002,-8.208816e-004
9.700343e+002,-7.555275e-004
9.719628e+002,-8.348045e-004
9.738912e+002,-1.028058e-003
9.758197e+002,-1.131345e-003
9.777483e+002,-1.099750e-003
9.796768e+002,-8.770995e-004
9.816052e+002,-7.435867e-004
9.835337e+002,-8.691964e-004
9.854623e+002,-9.729838e-004
9.873907e+002,-1.014439e-003
9.893192e+002,-1.002406e-003
9.912477e+002,-9.260362e-004
9.931763e+002,-9.330786e-004
9.951047e+002,-9.981416e-004
9.970332e+002,-9.555939e-004
9.989617e+002,-1.092148e-003
1.000890e+003,-1.109334e-003
1.002819e+003,-8.549439e-004
1.004747e+003,-7.742483e-004
1.006676e+003,-8.067929e-004
1.008604e+003,-8.290502e-004
1.010533e+003,-8.602680e-004
1.012461e+003,-8.243541e-004
1.014390e+003,-8.926077e-004
1.016318e+003,-8.305715e-004
1.018247e+003,-8.437334e-004
1.020175e+003,-1.061774e-003
1.022104e+003,-1.176783e-003
1.024032e+003,-1.016290e-003
1.025961e+003,-9.489155e-004
1.027889e+003,-1.201004e-003
1.029818e+003,-1.147571e-003
1.031746e+003,-9.733474e-004
1.033675e+003,-1.077573e-003
1.035603e+003,-8.734621e-004
1.037532e+003,-7.139153e-004
1.039460e+003,-7.149408e-004
1.041389e+003,-6.838780e-004
1.043317e+003,-8.423445e-004
1.045246e+003,-1.111416e-003
1.047174e+003,-1.013976e-003
1.049103e+003,-8.386737e-004
1.051031e+003,-7.801357e-004
1.052960e+003,-6.237309e-004
1.054888e+003,-5.957058e-004
1.056817e+003,-8.008068e-004
1.058745e+003,-9.466012e-004
1.060674e+003,-1.027661e-003
1.062602e+003,-9.647848e-004
1.064531e+003,-9.454770e-004
1.066459e+003,-1.110855e-003
1.068388e+003,-1.031892e-003
1.070316e+003,-9.890506e-004
1.072245e+003,-8.062638e-004
1.074173e+003,-5.859776e-004
1.076102e+003,-7.242691e-004
1.078030e+003,-9.553955e-004
1.079959e+003,-1.053841e-003
1.081887e+003,-9.450472e-004
1.083816e+003,-8.432043e-004
1.085744e+003,-7.065385e-004
1.087673e+003,-6.206539e-004
1.089601e+003,-6.753097e-004
1.091530e+003,-6.800736e-004
1.093458e+003,-5.699290e-004
1.095387e+003,-5.905108e-004
1.097315e+003,-6.941663e-004
1.099244e+003,-6.728616e-004
1.101172e+003,-5.711864e-004
1.103101e+003,-6.261462e-004
1.105029e+003,-8.259084e-004
1.106958e+003,-7.918439e-004
1.108886e+003,-6.454351e-004
1.110815e+003,-5.798229e-004
1.112743e+003,-5.104942e-004
1.114672e+003,-3.990818e-004
1.116600e+003,-3.541247e-004
1.118529e+003,-5.595384e-004
1.120457e+003,-7.868828e-004
1.122386e+003,-8.562997e-004
1.124314e+003,-7.306202e-004
1.126243e+003,-9.065613e-004
1.128171e+003,-9.200847e-004
1.130100e+003,-7.724623e-004
1.132028e+003,-8.058669e-004
1.133957e+003,-8.004430e-004
1.135885e+003,-7.660126e-004
1.137814e+003,-6.445418e-004
1.139742e+003,-7.534437e-004
1.141671e+003,-7.533114e-004
1.143599e+003,-6.829186e-004
1.145528e+003,-6.474533e-004
1.147456e+003,-6.529122e-004
1.149385e+003,-8.547455e-004
1.151313e+003,-7.733553e-004
1.153242e+003,-6.948941e-004
1.155170e+003,-6.843081e-004
1.157099e+003,-6.759383e-004
1.159027e+003,-7.064393e-004
1.160956e+003,-5.611599e-004
1.162884e+003,-6.554597e-004
1.164813e+003,-6.891049e-004
1.166741e+003,-6.711082e-004
1.168670e+003,-6.932401e-004
1.170598e+003,-7.047191e-004
1.172526e+003,-7.700478e-004
1.174455e+003,-7.875112e-004
1.176384e+003,-7.931338e-004
1.178312e+003,-6.275027e-004
1.180240e+003,-3.854760e-004
1.182169e+003,-4.262921e-004
1.184098e+003,-5.016246e-004
1.186026e+003,-3.952417e-004
1.187954e+003,-3.753458e-004
1.189883e+003,-6.456336e-004
1.191812e+003,-6.895349e-004
1.193740e+003,-4.808400e-004
1.195668e+003,-4.577705e-004
1.197597e+003,-4.115616e-004
1.199526e+003,-2.669120e-004
1.201454e+003,-4.251004e-004
1.203382e+003,-6.475525e-004
1.205311e+003,-6.604223e-004
1.207240e+003,-7.372689e-004
1.209168e+003,-7.549652e-004
1.211096e+003,-6.744826e-004
1.213025e+003,-5.158225e-004
1.214953e+003,-4.077548e-004
1.216882e+003,-5.645683e-004
1.218810e+003,-6.812645e-004
1.220739e+003,-7.348873e-004
1.222667e+003,-5.472944e-004
1.224596e+003,-3.705455e-004
1.226524e+003,-5.584133e-004
1.228453e+003,-6.738541e-004
1.230381e+003,-5.267105e-004
1.232310e+003,-4.673029e-004
1.234238e+003,-4.188442e-004
1.236167e+003,-3.717042e-004
1.238095e+003,-5.243939e-004
1.240024e+003,-5.729402e-004
1.241952e+003,-4.962631e-004
1.243881e+003,-5.437204e-004
1.245809e+003,-5.134728e-004
1.247738e+003,-4.864003e-004
1.249666e+003,-6.124483e-004
1.251595e+003,-6.109924e-004
1.253523e+003,-5.067213e-004
1.255452e+003,-4.585649e-004
1.257380e+003,-4.273844e-004
1.259309e+003,-4.849771e-004
1.261237e+003,-5.789295e-004
1.263166e+003,-4.974545e-004
1.265094e+003,-5.278688e-004
1.267023e+003,-5.912388e-004
1.268951e+003,-4.677663e-004
1.270880e+003,-4.850764e-004
1.272808e+003,-4.850433e-004
1.274737e+003,-4.172222e-004
1.276665e+003,-3.059844e-004
1.278594e+003,-2.361815e-004
1.280522e+003,-3.319425e-004
1.282451e+003,-5.506698e-004
1.284379e+003,-6.769638e-004
1.286308e+003,-5.449780e-004
1.288236e+003,-4.831899e-004
1.290165e+003,-4.224192e-004
1.292093e+003,-4.832230e-004
1.294022e+003,-6.558236e-004
1.295950e+003,-6.329289e-004
1.297879e+003,-5.629137e-004
1.299807e+003,-4.445968e-004
1.301736e+003,-5.346198e-004
1.303664e+003,-7.348873e-004
1.305593e+003,-4.894452e-004
1.307521e+003,-3.445567e-004
1.309450e+003,-3.876940e-004
1.311378e+003,-3.686254e-004
1.313307e+003,-3.866677e-004
1.315235e+003,-3.674336e-004
1.317164e+003,-2.071046e-004
1.319092e+003,-1.923336e-004
1.321021e+003,-3.809737e-004
1.322949e+003,-5.779037e-004
1.324878e+003,-6.513573e-004
1.326806e+003,-5.657595e-004
1.328735e+003,-3.497215e-004
1.330663e+003,-3.121761e-004
1.332592e+003,-3.805764e-004
1.334520e+003,-3.753789e-004
1.336449e+003,-4.769675e-004
1.338377e+003,-6.065918e-004
1.340306e+003,-4.885185e-004
1.342234e+003,-3.453844e-004
1.344163e+003,-3.463114e-004
1.346091e+003,-3.945796e-004
1.348020e+003,-4.276823e-004
1.349948e+003,-4.323496e-004
1.351877e+003,-4.715064e-004
1.353805e+003,-4.626029e-004
1.355734e+003,-4.980834e-004
1.357662e+003,-6.558236e-004
1.359591e+003,-6.170474e-004
1.361519e+003,-5.546408e-004
1.363448e+003,-5.299868e-004
1.365376e+003,-5.247580e-004
1.367305e+003,-5.884924e-004
1.369233e+003,-4.852419e-004
1.371162e+003,-4.788210e-004
1.373090e+003,-6.072205e-004
1.375019e+003,-6.285284e-004
1.376947e+003,-5.161865e-004
1.378876e+003,-4.015645e-004
1.380804e+003,-1.895516e-004
1.382733e+003,-1.859747e-004
1.384661e+003,-3.909051e-004
1.386590e+003,-5.060925e-004
1.388518e+003,-3.813379e-004
1.390447e+003,-3.180697e-004
1.392375e+003,-4.647212e-004
1.394304e+003,-4.939794e-004
1.396232e+003,-4.524084e-004
1.398161e+003,-4.844145e-004
1.400089e+003,-4.730289e-004
1.402018e+003,-4.612128e-004
1.403946e+003,-5.598031e-004
1.405875e+003,-5.427938e-004
1.407803e+003,-4.840173e-004
1.409732e+003,-5.514309e-004
1.411660e+003,-5.073171e-004
1.413589e+003,-4.554535e-004
1.415517e+003,-3.907396e-004
1.417446e+003,-4.648867e-004
1.419374e+003,-5.975918e-004
1.421303e+003,-4.885185e-004
1.423231e+003,-5.264127e-004
1.425160e+003,-4.630663e-004
1.427088e+003,-4.251004e-004
1.429017e+003,-5.240961e-004
1.430945e+003,-5.654617e-004
1.432874e+003,-5.101301e-004
1.434802e+003,-5.566594e-004
1.436731e+003,-6.818269e-004
1.438659e+003,-5.322372e-004
1.440588e+003,-4.302311e-004
1.442516e+003,-4.818991e-004
1.444445e+003,-6.041102e-004
1.446373e+003,-6.311422e-004
1.448302e+003,-5.964006e-004
1.450230e+003,-5.553688e-004
1.452159e+003,-4.387050e-004
1.454087e+003,-3.692875e-004
1.456016e+003,-8.564981e-004
1.457944e+003,-9.004112e-004
1.459873e+003,-5.598031e-004
1.461801e+003,-5.611599e-004
1.463730e+003,-7.011133e-004
1.465658e+003,-5.818414e-004
1.467587e+003,-4.183145e-004
1.469515e+003,-4.832892e-004
1.471444e+003,-5.960697e-004
1.473372e+003,-5.806502e-004
1.475301e+003,-4.418164e-004
1.477229e+003,-3.623683e-004
1.479158e+003,-2.704221e-004
1.481086e+003,-3.563098e-004
1.483015e+003,-4.010018e-004
1.484943e+003,-3.859394e-004
1.486872e+003,-4.356597e-004
1.488800e+003,-5.220111e-004
1.490729e+003,-5.852496e-004
1.492657e+003,-4.677001e-004
1.494586e+003,-4.129850e-004
1.496514e+003,-5.073171e-004
1.498443e+003,-5.325019e-004
1.500371e+003,-3.747830e-004
1.502300e+003,-2.587329e-004
1.504228e+003,-4.471786e-004
1.506157e+003,-8.911528e-004
1.508085e+003,-7.394520e-004
1.510014e+003,-4.425115e-004
1.511942e+003,-3.528998e-004
1.513871e+003,-3.646195e-004
1.515799e+003,-5.974594e-004
1.517728e+003,-5.783670e-004
1.519656e+003,-5.868048e-004
1.521585e+003,-8.374832e-004
1.523513e+003,-6.983676e-004
1.525442e+003,-5.240961e-004
1.527370e+003,-4.635297e-004
1.529299e+003,-4.781591e-004
1.531227e+003,-5.683406e-004
1.533156e+003,-6.327634e-004
1.535084e+003,-4.439348e-004
1.537013e+003,-4.296022e-004
1.538941e+003,-7.445129e-004
1.540870e+003,-8.892681e-004
1.542798e+003,-6.908251e-004
1.544727e+003,-5.510669e-004
1.546655e+003,-4.818991e-004
1.548584e+003,-3.789543e-004
1.550512e+003,-2.476726e-004
1.552441e+003,-4.284768e-004
1.554369e+003,-5.917682e-004
1.556298e+003,-5.717489e-004
1.558226e+003,-9.169436e-004
1.560155e+003,-9.756286e-004
1.562083e+003,-5.599686e-004
1.564012e+003,-4.004390e-004
1.565940e+003,-3.727636e-004
1.567869e+003,-4.915634e-004
1.569797e+003,-5.565602e-004
1.571726e+003,-4.048749e-004
1.573654e+003,-4.109658e-004
1.575583e+003,-5.554681e-004
1.577511e+003,-4.865327e-004
1.579440e+003,-3.305519e-004
1.581368e+003,-2.281673e-004
1.583297e+003,-3.342601e-004
1.585225e+003,-3.644871e-004
1.587154e+003,-2.235310e-004
1.589082e+003,-2.275381e-004
1.591010e+003,-3.302870e-004
1.592939e+003,-3.220097e-004
1.594868e+003,-2.745613e-004
1.596796e+003,-2.475070e-004
1.598724e+003,-2.728725e-004
1.600653e+003,-3.890844e-004
1.602582e+003,-3.945796e-004
1.604510e+003,-3.813379e-004
1.606438e+003,-3.712407e-004
1.608367e+003,-3.297573e-004
1.610296e+003,-2.306179e-004
1.612224e+003,-2.890645e-004
1.614152e+003,-3.867670e-004
1.616081e+003,-5.677781e-004
1.618010e+003,-4.932513e-004
1.619938e+003,-3.986183e-004
1.621866e+003,-5.425291e-004
1.623795e+003,-6.837457e-004
1.625724e+003,-5.062911e-004
1.627652e+003,-3.727636e-004
1.629580e+003,-3.717704e-004
1.631509e+003,-3.798812e-004
1.633438e+003,-4.771661e-004
1.635366e+003,-6.144004e-004
1.637294e+003,-5.685061e-004
1.639223e+003,-4.755775e-004
1.641151e+003,-4.175532e-004
1.643080e+003,-4.885516e-004
1.645008e+003,-7.058107e-004
1.646937e+003,-7.136507e-004
1.648865e+003,-4.753789e-004
1.650794e+003,-5.959374e-004
1.652722e+003,-9.467995e-004
1.654651e+003,-6.817607e-004
1.656579e+003,-3.204536e-004
1.658508e+003,-2.961505e-004
1.660436e+003,-3.558794e-004
1.662365e+003,-3.788550e-004
1.664293e+003,-2.763162e-004
1.666222e+003,-1.914063e-004
1.668150e+003,-3.970293e-004
1.670079e+003,-6.801066e-004
1.672007e+003,-5.525891e-004
1.673936e+003,-4.846131e-004
1.675864e+003,-4.191090e-004
1.677793e+003,-3.001569e-004
1.679721e+003,-2.980047e-004
1.681650e+003,-4.064307e-004
1.683578e+003,-6.302158e-004
1.685507e+003,-5.074826e-004
1.687435e+003,-3.686254e-004
1.689364e+003,-4.459870e-004
1.691292e+003,-4.721022e-004
1.693221e+003,-5.263134e-004
1.695149e+003,-7.375004e-004
1.697078e+003,-5.849518e-004
1.699006e+003,-6.486774e-004
1.700935e+003,-7.822855e-004
1.702863e+003,-5.136713e-004
1.704792e+003,-4.703149e-004
1.706720e+003,-3.249896e-004
1.708649e+003,-2.512159e-004
1.710577e+003,-3.518403e-004
1.712506e+003,-4.832892e-004
1.714434e+003,-5.378961e-004
1.716363e+003,-6.038124e-004
1.718291e+003,-5.057285e-004
1.720220e+003,-2.526398e-004
1.722148e+003,-2.424735e-004
1.724077e+003,-3.762066e-004
1.726005e+003,-4.301649e-004
1.727934e+003,-4.636290e-004
1.729862e+003,-3.633284e-004
1.731791e+003,-3.596536e-004
1.733719e+003,-7.166609e-004
1.735648e+003,-7.211597e-004
1.737576e+003,-5.797567e-004
1.739505e+003,-5.410069e-004
1.741433e+003,-4.190428e-004
1.743362e+003,-4.181159e-004
1.745290e+003,-4.042128e-004
1.747219e+003,-4.330116e-004
1.749147e+003,-5.096006e-004
1.751076e+003,-5.320386e-004
1.753004e+003,-4.204000e-004
1.754933e+003,-3.512775e-004
1.756861e+003,-3.559456e-004
1.758790e+003,-4.087148e-004
1.760718e+003,-4.816343e-004
1.762647e+003,-4.494956e-004
1.764575e+003,-3.384648e-004
1.766504e+003,-3.534957e-004
1.768432e+003,-3.937189e-004
1.770361e+003,-4.544275e-004
1.772289e+003,-5.859776e-004
1.774218e+003,-5.502065e-004
1.776146e+003,-4.336736e-004
1.778075e+003,-3.485296e-004
1.780003e+003,-4.412868e-004
1.781932e+003,-5.343882e-004
1.783860e+003,-4.711754e-004
1.785789e+003,-3.261484e-004
1.787717e+003,-3.880581e-004
1.789646e+003,-4.515809e-004
1.791574e+003,-5.651970e-004
1.793503e+003,-6.345170e-004
1.795431e+003,-4.877904e-004
1.797360e+003,-4.248025e-004
1.799288e+003,-3.923948e-004
1.801217e+003,-4.168911e-004
1.803145e+003,-3.461790e-004
1.805074e+003,-2.637331e-004
1.807002e+003,-2.898923e-004
1.808931e+003,-4.155339e-004
1.810859e+003,-3.719360e-004
1.812788e+003,-2.157815e-004
1.814716e+003,-1.884255e-004
1.816645e+003,-1.897503e-004
1.818573e+003,-2.574414e-004
1.820502e+003,-3.740547e-004
1.822430e+003,-3.719360e-004
1.824359e+003,-3.241949e-004
1.826287e+003,-3.571375e-004
1.828216e+003,-4.838518e-004
1.830144e+003,-4.920599e-004
1.832073e+003,-3.677315e-004
1.834001e+003,-3.238308e-004
1.835930e+003,-3.953741e-004
1.837858e+003,-4.217240e-004
1.839787e+003,-4.173877e-004
1.841715e+003,-4.049411e-004
1.843644e+003,-5.260487e-004
1.845572e+003,-4.685938e-004
1.847501e+003,-3.414446e-004
1.849429e+003,-3.293931e-004
1.851358e+003,-3.012496e-004
1.853286e+003,-3.040640e-004
1.855215e+003,-2.552228e-004
1.857143e+003,-2.984683e-004
1.859072e+003,-3.915672e-004
1.861000e+003,-3.273734e-004
1.862929e+003,-1.981295e-004
1.864857e+003,-2.585673e-004
1.866786e+003,-4.667403e-004
1.868714e+003,-5.349839e-004
1.870643e+003,-4.019949e-004
1.872571e+003,-2.407846e-004
1.874500e+003,-2.035278e-004
1.876428e+003,-3.038985e-004
1.878357e+003,-3.528336e-004
1.880285e+003,-2.719784e-004
1.882214e+003,-2.802898e-004
1.884142e+003,-3.532970e-004
1.886071e+003,-3.689895e-004
1.887999e+003,-3.850125e-004
1.889928e+003,-3.794178e-004
1.891856e+003,-3.909051e-004
1.893785e+003,-3.583293e-004
1.895713e+003,-3.224070e-004
1.897642e+003,-2.526398e-004
1.899570e+003,-2.547923e-004
1.901499e+003,-2.715148e-004
1.903427e+003,-2.317770e-004
1.905356e+003,-2.535670e-004
1.907284e+003,-2.822765e-004
1.909213e+003,-2.954220e-004
1.911141e+003,-2.905546e-004
1.913070e+003,-2.461162e-004
1.914998e+003,-2.930711e-004
1.916927e+003,-3.922624e-004
1.918855e+003,-3.593556e-004
1.920784e+003,-3.013158e-004
1.922712e+003,-3.923617e-004
1.924641e+003,-3.100901e-004
1.926569e+003,-2.011433e-004
1.928498e+003,-1.927642e-004
1.930426e+003,-2.221401e-004
1.932355e+003,-2.364464e-004
1.934283e+003,-2.107145e-004
1.936212e+003,-2.184309e-004
1.938140e+003,-2.474408e-004
1.940069e+003,-2.174374e-004
1.941997e+003,-2.418774e-004
1.943926e+003,-2.808858e-004
1.945854e+003,-3.550517e-004
1.947783e+003,-3.956721e-004
1.949711e+003,-3.783253e-004
1.951640e+003,-3.546544e-004
1.953568e+003,-3.231354e-004
1.955497e+003,-2.331348e-004
1.957425e+003,-1.915719e-004
1.959354e+003,-2.857864e-004
1.961282e+003,-2.316114e-004
1.963211e+003,-1.544103e-004
1.965139e+003,-1.634526e-004
1.967068e+003,-2.634020e-004
1.968996e+003,-2.968458e-004
1.970925e+003,-2.041902e-004
1.972853e+003,-2.308829e-004
1.974782e+003,-2.761838e-004
1.976710e+003,-2.780712e-004
1.978639e+003,-2.773427e-004
1.980567e+003,-3.041965e-004
1.982496e+003,-2.855878e-004
1.984424e+003,-3.228706e-004
1.986353e+003,-3.608123e-004
1.988281e+003,-3.692875e-004
1.990210e+003,-3.651492e-004
1.992138e+003,-2.953558e-004
1.994067e+003,-2.988656e-004
1.995995e+003,-3.194603e-004
1.997924e+003,-2.427384e-004
1.999852e+003,-2.113769e-004
2.001781e+003,-2.952564e-004
2.003709e+003,-3.489600e-004
2.005638e+003,-2.675412e-004
2.007566e+003,-2.791639e-004
2.009495e+003,-3.541909e-004
2.011423e+003,-3.649837e-004
2.013352e+003,-2.654550e-004
2.015280e+003,-2.895612e-004
2.017208e+003,-4.046100e-004
2.019137e+003,-4.516471e-004
2.021066e+003,-4.137133e-004
2.022994e+003,-3.037991e-004
2.024922e+003,-2.577064e-004
2.026851e+003,-2.899255e-004
2.028780e+003,-3.313134e-004
2.030708e+003,-3.133018e-004
2.032636e+003,-2.623423e-004
2.034565e+003,-3.133018e-004
2.036494e+003,-3.781267e-004
2.038422e+003,-3.629642e-004
2.040350e+003,-3.954072e-004
2.042279e+003,-3.847477e-004
2.044208e+003,-3.419081e-004
2.046136e+003,-3.658776e-004
2.048064e+003,-3.256849e-004
2.049993e+003,-2.692300e-004
2.051921e+003,-2.959187e-004
2.053850e+003,-3.590908e-004
2.055778e+003,-3.569388e-004
2.057707e+003,-2.778725e-004
2.059635e+003,-1.615647e-004
2.061564e+003,-1.919693e-004
2.063492e+003,-3.057527e-004
2.065421e+003,-3.297573e-004
2.067349e+003,-3.148580e-004
2.069278e+003,-3.603819e-004
2.071206e+003,-4.171891e-004
2.073135e+003,-3.309161e-004
2.075063e+003,-2.610178e-004
2.076992e+003,-3.213475e-004
2.078920e+003,-2.825414e-004
2.080849e+003,-2.365789e-004
2.082777e+003,-2.523087e-004
2.084706e+003,-2.556864e-004
2.086634e+003,-3.244929e-004
2.088563e+003,-3.788550e-004
2.090491e+003,-3.382331e-004
2.092420e+003,-3.014151e-004
2.094348e+003,-3.500525e-004
2.096277e+003,-3.200894e-004
2.098205e+003,-3.089313e-004
2.100134e+003,-4.330778e-004
2.102062e+003,-3.872305e-004
2.103991e+003,-2.659849e-004
2.105919e+003,-2.678392e-004
2.107848e+003,-3.392263e-004
2.109776e+003,-4.381422e-004
2.111705e+003,-4.846131e-004
2.113633e+003,-3.699165e-004
2.115562e+003,-2.775745e-004
2.117490e+003,-2.962829e-004
2.119419e+003,-3.250558e-004
2.121347e+003,-3.062824e-004
2.123276e+003,-3.008523e-004
2.125204e+003,-3.487614e-004
2.127133e+003,-3.820000e-004
2.129061e+003,-2.928393e-004
2.130990e+003,-2.808858e-004
2.132918e+003,-3.745513e-004
2.134847e+003,-3.993466e-004
2.136775e+003,-3.522045e-004
2.138704e+003,-2.942631e-004
2.140632e+003,-2.667134e-004
2.142561e+003,-3.534626e-004
2.144489e+003,-4.608487e-004
2.146418e+003,-4.156994e-004
2.148346e+003,-2.804222e-004
2.150275e+003,-2.430695e-004
2.152203e+003,-2.889983e-004
2.154132e+003,-3.457155e-004
2.156060e+003,-3.783253e-004
2.157989e+003,-4.673029e-004
2.159917e+003,-4.959652e-004
2.161846e+003,-4.317207e-004
2.163774e+003,-4.409227e-004
2.165703e+003,-4.828589e-004
2.167631e+003,-4.406579e-004
2.169560e+003,-3.729953e-004
2.171488e+003,-3.422723e-004
2.173417e+003,-3.479668e-004
2.175345e+003,-3.215462e-004
2.177274e+003,-3.937520e-004
2.179202e+003,-3.795171e-004
2.181131e+003,-3.031369e-004
2.183059e+003,-3.408486e-004
2.184988e+003,-3.402527e-004
2.186916e+003,-3.553166e-004
2.188845e+003,-3.235659e-004
2.190773e+003,-3.264464e-004
2.192702e+003,-2.639981e-004
2.194630e+003,-2.670114e-004
2.196559e+003,-3.946790e-004
2.198487e+003,-4.146402e-004
2.200416e+003,-4.033190e-004
2.202344e+003,-4.245377e-004
2.204273e+003,-4.046100e-004
2.206201e+003,-3.500525e-004
2.208130e+003,-3.761735e-004
2.210058e+003,-4.033852e-004
2.211987e+003,-3.973604e-004
2.213915e+003,-3.654141e-004
2.215844e+003,-4.141436e-004
2.217772e+003,-4.257624e-004
2.219701e+003,-3.101564e-004
2.221629e+003,-3.015145e-004
2.223558e+003,-3.295586e-004
2.225486e+003,-3.373722e-004
2.227415e+003,-3.182352e-004
2.229343e+003,-3.147256e-004
2.231272e+003,-3.680295e-004
2.233200e+003,-4.058679e-004
2.235129e+003,-3.473046e-004
2.237057e+003,-3.105206e-004
2.238986e+003,-2.867136e-004
2.240914e+003,-2.710844e-004
2.242843e+003,-2.772434e-004
2.244771e+003,-3.507809e-004
2.246700e+003,-3.465763e-004
2.248628e+003,-3.957714e-004
2.250557e+003,-3.993797e-004
2.252485e+003,-3.249565e-004
2.254414e+003,-3.365445e-004
2.256342e+003,-3.726974e-004
2.258271e+003,-4.411213e-004
2.260199e+003,-4.771661e-004
2.262128e+003,-4.423129e-004
2.264056e+003,-3.241287e-004
2.265985e+003,-2.336315e-004
2.267913e+003,-3.517410e-004
2.269842e+003,-3.668045e-004
2.271770e+003,-3.191623e-004
2.273699e+003,-3.004880e-004
2.275627e+003,-1.539797e-004
2.277556e+003,-2.191926e-004
2.279484e+003,-4.013659e-004
2.281413e+003,-3.942155e-004
2.283341e+003,-3.617724e-004
2.285270e+003,-4.239088e-004
2.287198e+003,-4.038817e-004
2.289127e+003,-3.966983e-004
2.291055e+003,-4.559169e-004
2.292984e+003,-5.200917e-004
2.294912e+003,-5.253868e-004
2.296841e+003,-5.221766e-004
2.298769e+003,-5.900476e-004
2.300698e+003,-6.008676e-004
2.302626e+003,-5.285637e-004
2.304555e+003,-3.966983e-004
2.306483e+003,-3.396567e-004
2.308412e+003,-3.429013e-004
2.310340e+003,-3.845821e-004
2.312269e+003,-4.433059e-004
2.314197e+003,-4.146071e-004
2.316125e+003,-3.385642e-004
2.318054e+003,-3.614744e-004
2.319983e+003,-4.677663e-004
2.321911e+003,-5.410399e-004
2.323840e+003,-5.174110e-004
2.325768e+003,-3.865684e-004
2.327697e+003,-3.598853e-004
2.329625e+003,-3.594549e-004
2.331553e+003,-4.070596e-004
2.333482e+003,-4.346005e-004
2.335411e+003,-4.105023e-004
2.337339e+003,-4.877904e-004
2.339268e+003,-5.127446e-004
2.341196e+003,-4.307276e-004
2.343125e+003,-4.526070e-004
2.345053e+003,-4.982157e-004
2.346981e+003,-4.849771e-004
2.348910e+003,-4.626029e-004
2.350839e+003,-4.376126e-004
2.352767e+003,-4.701825e-004
2.354696e+003,-5.436873e-004
2.356624e+003,-4.415847e-004
2.358552e+003,-3.660431e-004
2.360481e+003,-4.425115e-004
2.362409e+003,-4.836863e-004
2.364338e+003,-4.703149e-004
2.366267e+003,-4.300656e-004
2.368195e+003,-5.552034e-004
2.370124e+003,-5.529862e-004
2.372052e+003,-4.673360e-004
2.373980e+003,-4.803766e-004
2.375909e+003,-5.031470e-004
2.377838e+003,-4.084500e-004
2.379766e+003,-3.495228e-004
2.381695e+003,-3.497215e-004
2.383623e+003,-3.700489e-004
2.385552e+003,-3.677315e-004
2.387480e+003,-3.482978e-004
2.389408e+003,-2.583024e-004
2.391337e+003,-2.709519e-004
2.393266e+003,-3.885878e-004
2.395194e+003,-4.739556e-004
2.397123e+003,-4.489991e-004
2.399051e+003,-3.820662e-004
2.400979e+003,-4.019287e-004
2.402908e+003,-4.082845e-004
2.404836e+003,-4.257293e-004
2.406765e+003,-3.713401e-004
2.408694e+003,-3.807089e-004
2.410622e+003,-3.963010e-004
2.412551e+003,-4.091782e-004
2.414479e+003,-4.700501e-004
2.416407e+003,-5.344213e-004
2.418336e+003,-5.336602e-004
2.420264e+003,-5.129763e-004
2.422193e+003,-5.047356e-004
2.424122e+003,-5.158225e-004
2.426050e+003,-5.305824e-004
2.427979e+003,-5.366385e-004
2.429907e+003,-4.802442e-004
2.431835e+003,-4.058018e-004
2.433764e+003,-3.946790e-004
2.435692e+003,-3.630304e-004
2.437621e+003,-3.580975e-004
2.439550e+003,-3.337634e-004
2.441478e+003,-3.810730e-004
2.443406e+003,-4.574064e-004
2.445335e+003,-4.648867e-004
2.447263e+003,-5.336932e-004
2.449192e+003,-5.152930e-004
2.451121e+003,-4.249349e-004
2.453049e+003,-4.801780e-004
2.454978e+003,-5.077804e-004
2.456906e+003,-4.648867e-004
2.458834e+003,-4.153353e-004
2.460763e+003,-3.732602e-004
2.462691e+003,-3.725319e-004
2.464620e+003,-3.898127e-004
2.466549e+003,-3.274397e-004
2.468477e+003,-3.590577e-004
2.470406e+003,-3.614082e-004
2.472334e+003,-4.165270e-004
2.474262e+003,-3.815034e-004
2.476191e+003,-3.439276e-004
2.478119e+003,-3.594549e-004
2.480048e+003,-4.111975e-004
2.481977e+003,-4.625036e-004
2.483905e+003,-4.274837e-004
2.485833e+003,-3.973273e-004
2.487762e+003,-3.855422e-004
2.489690e+003,-3.203874e-004
2.491619e+003,-2.986338e-004
2.493547e+003,-2.289290e-004
2.495476e+003,-1.861403e-004
2.497405e+003,-2.203848e-004
2.499333e+003,-2.442286e-004
2.501261e+003,-2.144899e-004
2.503190e+003,-3.272410e-004
2.505118e+003,-4.748493e-004
2.507047e+003,-4.748162e-004
2.508975e+003,-3.959369e-004
2.510904e+003,-3.464769e-004
2.512833e+003,-3.118781e-004
2.514761e+003,-2.657200e-004
2.516689e+003,-2.378373e-004
2.518618e+003,-3.428020e-004
2.520546e+003,-4.019287e-004
2.522475e+003,-4.089134e-004
2.524403e+003,-4.528718e-004
2.526332e+003,-4.189435e-004
2.528260e+003,-3.549524e-004
2.530189e+003,-3.365445e-004
2.532117e+003,-2.766805e-004
2.534046e+003,-3.117126e-004
2.535974e+003,-3.303863e-004
2.537903e+003,-3.046600e-004
2.539831e+003,-3.786895e-004
2.541760e+003,-3.863036e-004
2.543688e+003,-4.430411e-004
2.545617e+003,-5.055630e-004
2.547545e+003,-3.830924e-004
2.549474e+003,-3.010178e-004
2.551402e+003,-3.442587e-004
2.553331e+003,-3.934541e-004
2.555259e+003,-4.496611e-004
2.557188e+003,-4.678656e-004
2.559116e+003,-5.201910e-004
2.561045e+003,-4.678325e-004
2.562973e+003,-3.388290e-004
2.564902e+003,-3.958707e-004
2.566830e+003,-3.892499e-004
2.568759e+003,-2.987662e-004
2.570687e+003,-3.440601e-004
2.572616e+003,-3.673673e-004
2.574544e+003,-3.371074e-004
2.576473e+003,-2.965478e-004
2.578401e+003,-3.238638e-004
2.580330e+003,-4.095424e-004
2.582258e+003,-4.222537e-004
2.584187e+003,-4.188773e-004
2.586115e+003,-4.004721e-004
2.588044e+003,-3.626663e-004
2.589972e+003,-3.195265e-004
2.591901e+003,-2.876076e-004
2.593829e+003,-2.754884e-004
2.595758e+003,-3.125403e-004
2.597686e+003,-3.159507e-004
2.599615e+003,-3.044282e-004
2.601543e+003,-3.357168e-004
2.603472e+003,-4.528056e-004
2.605400e+003,-5.075818e-004
2.607329e+003,-4.491315e-004
2.609257e+003,-3.551510e-004
2.611186e+003,-3.662748e-004
2.613114e+003,-4.484364e-004
2.615043e+003,-4.501907e-004
2.616971e+003,-3.870981e-004
2.618900e+003,-4.325482e-004
2.620828e+003,-4.324820e-004
2.622757e+003,-3.481654e-004
2.624685e+003,-2.389632e-004
2.626614e+003,-2.533021e-004
2.628542e+003,-4.143422e-004
2.630471e+003,-5.187679e-004
2.632399e+003,-4.741212e-004
2.634328e+003,-5.079459e-004
2.636256e+003,-5.771426e-004
2.638185e+003,-4.982819e-004
2.640113e+003,-3.911037e-004
2.642042e+003,-3.390277e-004
2.643970e+003,-3.956721e-004
2.645899e+003,-4.374140e-004
2.647827e+003,-4.091782e-004
2.649756e+003,-4.099065e-004
2.651684e+003,-4.391684e-004
2.653613e+003,-4.728965e-004
2.655541e+003,-4.363879e-004
2.657470e+003,-4.244715e-004
2.659398e+003,-4.169242e-004
2.661327e+003,-3.613751e-004
2.663255e+003,-4.173546e-004
2.665184e+003,-4.874594e-004
2.667112e+003,-4.529711e-004
2.669041e+003,-4.134485e-004
2.670969e+003,-4.911331e-004
2.672898e+003,-4.846792e-004
2.674826e+003,-4.542289e-004
2.676755e+003,-5.258500e-004
2.678683e+003,-5.757859e-004
2.680612e+003,-4.891143e-004
2.682540e+003,-3.996445e-004
2.684469e+003,-4.701825e-004
2.686397e+003,-4.968919e-004
2.688326e+003,-4.495618e-004
2.690254e+003,-3.968969e-004
2.692183e+003,-4.541627e-004
2.694111e+003,-4.778943e-004
2.696040e+003,-3.988169e-004
2.697968e+003,-4.205324e-004
2.699897e+003,-4.838518e-004
2.701825e+003,-5.148627e-004
2.703754e+003,-5.293580e-004
2.705682e+003,-5.004994e-004
2.707611e+003,-3.547538e-004
2.709539e+003,-3.550186e-004
2.711468e+003,-5.133735e-004
2.713396e+003,-5.543761e-004
2.715325e+003,-5.523575e-004
2.717253e+003,-5.797567e-004
2.719182e+003,-6.440787e-004
2.721110e+003,-5.564940e-004
2.723039e+003,-4.488005e-004
2.724967e+003,-4.625367e-004
2.726896e+003,-5.276040e-004
2.728824e+003,-5.622519e-004
2.730753e+003,-5.767787e-004
2.732681e+003,-4.874594e-004
2.734610e+003,-4.678325e-004
2.736538e+003,-5.129101e-004
2.738467e+003,-4.712747e-004
2.740395e+003,-4.343688e-004
2.742324e+003,-4.794168e-004
2.744252e+003,-4.926556e-004
2.746181e+003,-5.413378e-004
2.748109e+003,-5.102294e-004
2.750038e+003,-4.233460e-004
2.751966e+003,-4.097410e-004
2.753895e+003,-4.463511e-004
2.755823e+003,-5.594060e-004
2.757752e+003,-6.610509e-004
2.759680e+003,-6.847712e-004
2.761609e+003,-6.434169e-004
2.763537e+003,-5.702929e-004
2.765466e+003,-5.309465e-004
2.767394e+003,-5.129101e-004
2.769323e+003,-4.860362e-004
2.771251e+003,-4.528056e-004
2.773180e+003,-3.775639e-004
2.775108e+003,-3.431662e-004
2.777037e+003,-4.567444e-004
2.778965e+003,-5.492138e-004
2.780894e+003,-5.171132e-004
2.782822e+003,-5.443161e-004
2.784750e+003,-6.065587e-004
2.786679e+003,-5.093359e-004
2.788608e+003,-5.002346e-004
2.790536e+003,-5.907755e-004
2.792465e+003,-5.126454e-004
2.794393e+003,-4.600212e-004
2.796322e+003,-6.046727e-004
2.798250e+003,-6.362374e-004
2.800178e+003,-5.441507e-004
2.802107e+003,-5.148627e-004
2.804036e+003,-4.999368e-004
2.805964e+003,-5.122813e-004
2.807893e+003,-5.456398e-004
2.809821e+003,-5.901137e-004
2.811750e+003,-6.200583e-004
2.813678e+003,-5.859114e-004
2.815606e+003,-5.960697e-004
2.817535e+003,-6.320025e-004
2.819464e+003,-5.818414e-004
2.821392e+003,-5.284314e-004
2.823321e+003,-5.734696e-004
2.825249e+003,-6.596282e-004
2.827177e+003,-5.761500e-004
2.829106e+003,-4.066293e-004
2.831034e+003,-4.270203e-004
2.832963e+003,-4.342364e-004
2.834892e+003,-3.974266e-004
2.836820e+003,-4.516471e-004
2.838749e+003,-4.436038e-004
2.840677e+003,-5.113216e-004
2.842605e+003,-5.877313e-004
2.844534e+003,-6.764014e-004
2.846462e+003,-6.395460e-004
2.848391e+003,-5.089718e-004
2.850320e+003,-4.786886e-004
2.852248e+003,-5.069199e-004
2.854177e+003,-5.122483e-004
2.856105e+003,-5.615570e-004
2.858033e+003,-6.464607e-004
2.859962e+003,-5.902792e-004
2.861890e+003,-4.809062e-004
2.863819e+003,-4.073576e-004
2.865748e+003,-4.268217e-004
2.867676e+003,-4.815350e-004
2.869604e+003,-5.046363e-004
2.871533e+003,-5.250227e-004
2.873461e+003,-5.968308e-004
2.875390e+003,-6.821908e-004
2.877319e+003,-6.611832e-004
2.879247e+003,-5.837937e-004
2.881176e+003,-5.447132e-004
2.883104e+003,-4.982157e-004
2.885032e+003,-5.874666e-004
2.886961e+003,-6.951918e-004
2.888889e+003,-7.227475e-004
2.890818e+003,-7.514260e-004
2.892747e+003,-7.614812e-004
2.894675e+003,-7.259230e-004
2.896604e+003,-6.584703e-004
2.898532e+003,-6.275359e-004
2.900460e+003,-6.475525e-004
2.902389e+003,-6.962835e-004
2.904317e+003,-6.947949e-004
2.906246e+003,-6.925123e-004
2.908175e+003,-6.628374e-004
2.910103e+003,-6.710090e-004
2.912031e+003,-6.707443e-004
2.913960e+003,-6.139042e-004
2.915888e+003,-6.203561e-004
2.917817e+003,-5.396500e-004
2.919745e+003,-5.573212e-004
2.921674e+003,-6.392151e-004
2.923603e+003,-7.907194e-004
2.925531e+003,-8.592429e-004
2.927459e+003,-7.974003e-004
2.929388e+003,-7.651196e-004
2.931316e+003,-7.373681e-004
2.933245e+003,-6.855982e-004
2.935173e+003,-6.494053e-004
2.937102e+003,-6.533423e-004
2.939031e+003,-6.777247e-004
2.940959e+003,-5.978234e-004
2.942887e+003,-6.136725e-004
2.944816e+003,-6.666089e-004
2.946744e+003,-6.187679e-004
2.948673e+003,-6.133086e-004
2.950601e+003,-6.604554e-004
2.952530e+003,-6.275027e-004
2.954458e+003,-6.524490e-004
2.956387e+003,-7.129229e-004
2.958315e+003,-7.630027e-004
2.960244e+003,-7.315464e-004
2.962172e+003,-6.548311e-004
2.964101e+003,-5.338918e-004
2.966029e+003,-4.728303e-004
2.967958e+003,-5.515302e-004
2.969886e+003,-6.531438e-004
2.971815e+003,-7.522529e-004
2.973743e+003,-7.431567e-004
2.975672e+003,-6.602569e-004
2.977600e+003,-6.217127e-004
2.979529e+003,-5.991139e-004
2.981457e+003,-5.964668e-004
2.983386e+003,-6.581395e-004
2.985314e+003,-7.539729e-004
2.987243e+003,-6.710751e-004
2.989171e+003,-5.888233e-004
2.991100e+003,-5.428600e-004
2.993028e+003,-6.119189e-004
2.994957e+003,-6.023565e-004
2.996885e+003,-5.640057e-004
2.998814e+003,-5.756205e-004
3.000742e+003,-6.667412e-004
3.002671e+003,-7.563875e-004
3.004599e+003,-7.690556e-004
3.006528e+003,-7.315464e-004
3.008456e+003,-7.439837e-004
3.010385e+003,-7.790442e-004
3.012313e+003,-6.840765e-004
3.014242e+003,-6.907590e-004
3.016170e+003,-7.719000e-004
3.018099e+003,-6.838449e-004
3.020027e+003,-5.527877e-004
3.021956e+003,-5.344875e-004
3.023884e+003,-5.863416e-004
3.025813e+003,-6.775924e-004
3.027741e+003,-7.973341e-004
3.029670e+003,-7.276101e-004
3.031598e+003,-4.941449e-004
3.033527e+003,-5.196283e-004
3.035455e+003,-6.395791e-004
3.037384e+003,-6.059962e-004
3.039312e+003,-5.807495e-004
3.041241e+003,-6.584042e-004
3.043169e+003,-7.166940e-004
3.045098e+003,-7.008818e-004
3.047026e+003,-6.594959e-004
3.048955e+003,-6.778901e-004
3.050883e+003,-6.920492e-004
3.052812e+003,-6.985000e-004
3.054740e+003,-7.147423e-004
3.056669e+003,-6.933393e-004
3.058597e+003,-6.027867e-004
3.060526e+003,-5.374659e-004
3.062454e+003,-5.888233e-004
3.064383e+003,-6.814630e-004
3.066311e+003,-7.516906e-004
3.068240e+003,-7.601582e-004
3.070168e+003,-7.919100e-004
3.072097e+003,-7.591990e-004
3.074025e+003,-6.607200e-004
3.075954e+003,-5.981874e-004
3.077882e+003,-5.995109e-004
3.079811e+003,-6.856975e-004
3.081739e+003,-6.941333e-004
3.083668e+003,-6.581064e-004
3.085596e+003,-6.366014e-004
3.087525e+003,-6.499346e-004
3.089453e+003,-6.594959e-004
3.091382e+003,-6.759713e-004
3.093310e+003,-6.927769e-004
3.095239e+003,-5.881946e-004
3.097167e+003,-5.900145e-004
3.099096e+003,-7.161978e-004
3.101024e+003,-7.452406e-004
3.102953e+003,-7.051161e-004
3.104881e+003,-7.353504e-004
3.106810e+003,-6.877485e-004
3.108738e+003,-6.666089e-004
3.110667e+003,-8.350029e-004
3.112595e+003,-8.223368e-004
3.114524e+003,-7.244014e-004
3.116452e+003,-7.311164e-004
3.118381e+003,-7.204650e-004
3.120309e+003,-7.313479e-004
3.122238e+003,-7.601251e-004
3.124166e+003,-7.537083e-004
3.126095e+003,-8.538195e-004
3.128023e+003,-8.646661e-004
3.129952e+003,-7.431567e-004
3.131880e+003,-6.484127e-004
3.133809e+003,-6.445418e-004
3.135737e+003,-6.894026e-004
3.137666e+003,-7.141138e-004
3.139594e+003,-7.436198e-004
3.141523e+003,-7.523852e-004
3.143451e+003,-8.061315e-004
3.145380e+003,-7.986240e-004
3.147308e+003,-6.747803e-004
3.149237e+003,-7.218875e-004
3.151165e+003,-8.211462e-004
3.153094e+003,-8.841758e-004
3.155022e+003,-9.164477e-004
3.156951e+003,-8.625828e-004
3.158879e+003,-7.611504e-004
3.160808e+003,-6.598599e-004
3.162736e+003,-6.637307e-004
3.164665e+003,-7.784158e-004
3.166593e+003,-9.142654e-004
3.168522e+003,-9.362857e-004
3.170450e+003,-8.349368e-004
3.172379e+003,-7.072332e-004
3.174307e+003,-7.300579e-004
3.176236e+003,-7.190757e-004
3.178164e+003,-6.814961e-004
3.180093e+003,-7.022381e-004
3.182021e+003,-7.777874e-004
3.183950e+003,-7.614151e-004
3.185878e+003,-7.698824e-004
3.187807e+003,-7.155031e-004
3.189735e+003,-6.227383e-004
3.191664e+003,-7.242691e-004
3.193592e+003,-8.736936e-004
3.195521e+003,-9.310949e-004
3.197449e+003,-8.889043e-004
3.199378e+003,-8.405256e-004
3.201306e+003,-7.865852e-004
3.203235e+003,-8.188312e-004
3.205163e+003,-9.021306e-004
3.207092e+003,-9.866704e-004
3.209020e+003,-8.852670e-004
3.210948e+003,-7.219205e-004
3.212877e+003,-6.746480e-004
3.214806e+003,-7.003194e-004
3.216734e+003,-7.828478e-004
3.218663e+003,-9.206137e-004
3.220591e+003,-9.246475e-004
3.222520e+003,-8.120515e-004
3.224448e+003,-7.345896e-004
3.226376e+003,-5.856136e-004
3.228305e+003,-4.767028e-004
3.230234e+003,-5.770765e-004
3.232162e+003,-7.152716e-004
3.234091e+003,-7.369050e-004
3.236019e+003,-8.349368e-004
3.237948e+003,-8.278266e-004
3.239876e+003,-7.010471e-004
3.241804e+003,-7.324726e-004
3.243733e+003,-8.852670e-004
3.245662e+003,-8.479663e-004
3.247590e+003,-9.261023e-004
3.249519e+003,-8.851678e-004
3.251447e+003,-8.845065e-004
3.253375e+003,-9.652477e-004
3.255304e+003,-9.572470e-004
3.257232e+003,-8.116877e-004
3.259161e+003,-6.538055e-004
3.261090e+003,-7.668395e-004
3.263018e+003,-8.466435e-004
3.264947e+003,-9.429313e-004
3.266875e+003,-1.038768e-003
3.268803e+003,-9.807858e-004
3.270732e+003,-8.743880e-004
3.272660e+003,-6.989300e-004
3.274589e+003,-7.075640e-004
3.276518e+003,-8.501820e-004
3.278446e+003,-8.894003e-004
3.280375e+003,-9.016016e-004
3.282303e+003,-8.216092e-004
3.284231e+003,-8.656581e-004
3.286160e+003,-8.907891e-004
3.288088e+003,-8.431051e-004
3.290017e+003,-8.747517e-004
3.291946e+003,-9.474277e-004
3.293874e+003,-1.026141e-003
3.295802e+003,-9.667024e-004
3.297731e+003,-8.344738e-004
3.299659e+003,-9.062968e-004
3.301588e+003,-9.008411e-004
3.303516e+003,-9.259370e-004
3.305445e+003,-8.648314e-004
3.307374e+003,-8.534889e-004
3.309302e+003,-9.150920e-004
3.311230e+003,-9.104960e-004
3.313159e+003,-9.345004e-004
3.315087e+003,-9.018992e-004
3.317016e+003,-7.911163e-004
3.318944e+003,-9.097025e-004
3.320873e+003,-8.798110e-004
3.322802e+003,-8.431712e-004
3.324730e+003,-9.988688e-004
3.326658e+003,-1.045247e-003
3.328587e+003,-9.204484e-004
3.330515e+003,-8.208486e-004
3.332444e+003,-8.266360e-004
3.334372e+003,-8.608301e-004
3.336301e+003,-8.777939e-004
3.338229e+003,-9.121824e-004
3.340158e+003,-9.381703e-004
3.342086e+003,-9.493453e-004
3.344015e+003,-8.216092e-004
3.345943e+003,-7.798049e-004
3.347872e+003,-8.974684e-004
3.349800e+003,-9.456093e-004
3.351729e+003,-8.820264e-004
3.353657e+003,-8.411870e-004
3.355586e+003,-8.635748e-004
3.357514e+003,-9.555278e-004
3.359443e+003,-1.011695e-003
3.361371e+003,-9.192581e-004
3.363300e+003,-7.852953e-004
3.365229e+003,-7.886357e-004
3.367157e+003,-8.176406e-004
3.369085e+003,-9.352939e-004
3.371014e+003,-1.015629e-003
3.372942e+003,-9.182001e-004
3.374871e+003,-9.074541e-004
3.376799e+003,-9.303344e-004
3.378728e+003,-8.674107e-004
3.380656e+003,-8.930376e-004
3.382585e+003,-1.058468e-003
3.384513e+003,-1.180385e-003
3.386442e+003,-1.084150e-003
3.388370e+003,-8.066937e-004
3.390299e+003,-7.859567e-004
3.392227e+003,-8.953522e-004
3.394156e+003,-9.227960e-004
3.396084e+003,-8.907560e-004
3.398013e+003,-8.564981e-004
3.399941e+003,-8.667163e-004
3.401870e+003,-9.290449e-004
3.403798e+003,-9.914968e-004
3.405727e+003,-1.153024e-003
3.407655e+003,-1.056254e-003
3.409584e+003,-7.695847e-004
3.411512e+003,-6.732255e-004
3.413441e+003,-8.761405e-004
3.415369e+003,-9.321198e-004
3.417298e+003,-9.638922e-004
3.419226e+003,-9.538747e-004
3.421155e+003,-8.924093e-004
3.423083e+003,-9.601233e-004
3.425012e+003,-9.463367e-004
3.426940e+003,-9.839926e-004
3.428869e+003,-1.021711e-003
3.430797e+003,-9.643881e-004
3.432726e+003,-9.919597e-004
3.434654e+003,-1.082200e-003
3.436583e+003,-1.078663e-003
3.438511e+003,-9.711985e-004
3.440440e+003,-9.631979e-004
3.442368e+003,-9.871662e-004
3.444297e+003,-8.884745e-004
3.446225e+003,-7.532121e-004
3.448154e+003,-7.646565e-004
3.450082e+003,-9.205476e-004
3.452011e+003,-1.020521e-003
3.453939e+003,-9.805874e-004
3.455868e+003,-1.050073e-003
3.457796e+003,-1.089273e-003
3.459725e+003,-9.919597e-004
3.461653e+003,-9.277886e-004
3.463582e+003,-9.724878e-004
3.465510e+003,-1.057444e-003
3.467439e+003,-9.780088e-004
3.469367e+003,-9.819759e-004
3.471296e+003,-1.066170e-003
3.473224e+003,-1.116275e-003
3.475153e+003,-1.140268e-003
3.477081e+003,-9.715622e-004
3.479010e+003,-9.240854e-004
3.480938e+003,-8.556714e-004
3.482867e+003,-7.517568e-004
3.484795e+003,-6.628374e-004
3.486724e+003,-7.809956e-004
3.488652e+003,-9.609498e-004
3.490581e+003,-1.137789e-003
3.492509e+003,-1.206357e-003
3.494438e+003,-1.026934e-003
3.496366e+003,-7.877758e-004
3.498295e+003,-9.014032e-004
3.500223e+003,-1.101898e-003
3.502152e+003,-1.090793e-003
3.504080e+003,-1.083588e-003
3.506009e+003,-9.639583e-004
3.507937e+003,-9.336407e-004
3.509866e+003,-9.134719e-004
3.511794e+003,-9.527506e-004
3.513723e+003,-1.057245e-003
3.515651e+003,-1.088380e-003
3.517580e+003,-1.094429e-003
3.519508e+003,-1.090595e-003
3.521437e+003,-9.760583e-004
3.523365e+003,-1.022901e-003
3.525294e+003,-1.141623e-003
3.527222e+003,-1.105666e-003
3.529151e+003,-9.174065e-004
3.531079e+003,-8.169792e-004
3.533008e+003,-8.048748e-004
3.534936e+003,-9.013371e-004
3.536865e+003,-9.702728e-004
3.538793e+003,-8.076528e-004
3.540722e+003,-6.967136e-004
3.542650e+003,-7.599266e-004
3.544579e+003,-7.582066e-004
3.546507e+003,-7.995500e-004
3.548436e+003,-9.776121e-004
3.550364e+003,-1.013612e-003
3.552293e+003,-1.009877e-003
3.554221e+003,-1.086893e-003
3.556150e+003,-1.145919e-003
3.558078e+003,-1.037413e-003
3.560007e+003,-1.016654e-003
3.561935e+003,-1.003100e-003
3.563864e+003,-1.171199e-003
3.565792e+003,-1.192545e-003
3.567721e+003,-9.446505e-004
3.569649e+003,-9.446836e-004
3.571578e+003,-1.171364e-003
3.573506e+003,-1.110293e-003
3.575435e+003,-7.510291e-004
3.577363e+003,-6.313077e-004
3.579292e+003,-7.650203e-004
3.581220e+003,-1.099056e-003
3.583149e+003,-1.278581e-003
3.585077e+003,-1.128701e-003
3.587006e+003,-1.227999e-003
3.588934e+003,-1.314523e-003
3.590863e+003,-1.141259e-003
3.592791e+003,-1.127049e-003
3.594720e+003,-1.122091e-003
3.596648e+003,-1.094792e-003
3.598577e+003,-9.909680e-004
3.600505e+003,-1.007596e-003
3.602434e+003,-1.141160e-003
3.604362e+003,-1.025480e-003
3.606291e+003,-1.126817e-003
3.608219e+003,-1.350066e-003
3.610148e+003,-1.133922e-003
3.612076e+003,-1.079027e-003
3.614005e+003,-1.045974e-003
3.615933e+003,-9.899432e-004
3.617862e+003,-9.177371e-004
3.619790e+003,-9.285820e-004
3.621719e+003,-9.430305e-004
3.623647e+003,-9.570817e-004
3.625576e+003,-9.210436e-004
3.627504e+003,-9.322520e-004
3.629433e+003,-9.407161e-004
3.631361e+003,-8.794473e-004
3.633290e+003,-9.576106e-004
3.635218e+003,-1.029909e-003
3.637146e+003,-1.053147e-003
3.639075e+003,-9.505355e-004
3.641004e+003,-7.395513e-004
3.642932e+003,-7.531460e-004
3.644861e+003,-1.022538e-003
3.646789e+003,-1.105071e-003
3.648718e+003,-1.132270e-003
3.650646e+003,-1.135938e-003
3.652574e+003,-9.127775e-004
3.654503e+003,-8.301415e-004
3.656432e+003,-9.425345e-004
3.658360e+003,-1.047990e-003
3.660289e+003,-1.087753e-003
3.662217e+003,-1.090132e-003
3.664146e+003,-1.052188e-003
3.666074e+003,-1.117960e-003
3.668002e+003,-1.141523e-003
3.669931e+003,-1.196246e-003
3.671860e+003,-1.327406e-003
3.673788e+003,-1.488478e-003
3.675717e+003,-1.579375e-003
3.677645e+003,-1.122091e-003
3.679573e+003,-1.056815e-003
3.681502e+003,-9.988358e-004
3.683430e+003,-1.021182e-003
3.685359e+003,-1.049147e-003
3.687288e+003,-1.050106e-003
3.689216e+003,-1.077176e-003
3.691145e+003,-9.707687e-004
3.693073e+003,-6.963828e-004
3.695001e+003,-7.373351e-004
3.696930e+003,-9.815792e-004
3.698858e+003,-1.116076e-003
3.700787e+003,-1.064980e-003
3.702716e+003,-9.586355e-004
3.704644e+003,-7.941260e-004
3.706573e+003,-7.190426e-004
3.708501e+003,-9.136041e-004
3.710429e+003,-1.047494e-003
3.712358e+003,-8.591767e-004
3.714286e+003,-6.931408e-004
3.716215e+003,-9.194234e-004
3.718144e+003,-1.008786e-003
3.720072e+003,-1.019530e-003
3.722000e+003,-1.085703e-003
3.723929e+003,-9.253749e-004
3.725857e+003,-7.145439e-004
3.727786e+003,-6.032499e-004
3.729714e+003,-8.516039e-004
3.731643e+003,-1.312508e-003
3.733572e+003,-1.431051e-003
3.735500e+003,-1.340784e-003
3.737428e+003,-1.281323e-003
3.739357e+003,-1.043462e-003
3.741285e+003,-9.131743e-004
3.743214e+003,-1.272205e-003
3.745142e+003,-1.409320e-003
3.747071e+003,-1.139210e-003
3.749000e+003,-1.142019e-003
3.750928e+003,-1.319644e-003
3.752856e+003,-1.117762e-003
3.754785e+003,-8.930376e-004
3.756713e+003,-8.235273e-004
3.758642e+003,-8.905576e-004
3.760570e+003,-8.767688e-004
3.762499e+003,-7.456375e-004
3.764427e+003,-7.733553e-004
3.766356e+003,-7.035282e-004
3.768284e+003,-7.327703e-004
3.770213e+003,-8.644676e-004
3.772141e+003,-8.595405e-004
3.774070e+003,-8.158216e-004
3.775998e+003,-7.740830e-004
3.777927e+003,-9.225314e-004
3.779855e+003,-9.243830e-004
3.781784e+003,-6.032499e-004
3.783712e+003,-5.208197e-004
3.785641e+003,-7.210604e-004
3.787569e+003,-7.923731e-004
3.789498e+003,-7.448767e-004
3.791426e+003,-7.037928e-004
3.793355e+003,-6.689909e-004
3.795283e+003,-7.578428e-004
3.797212e+003,-8.437004e-004
3.799140e+003,-8.980967e-004
3.801069e+003,-1.003464e-003
3.802997e+003,-8.738589e-004
3.804926e+003,-1.045875e-003
3.806854e+003,-1.324632e-003
3.808783e+003,-1.223340e-003
3.810711e+003,-8.736936e-004
3.812640e+003,-8.055362e-004
3.814568e+003,-1.073772e-003
3.816497e+003,-1.130684e-003
3.818425e+003,-8.488923e-004
3.820354e+003,-6.890057e-004
3.822282e+003,-7.850307e-004
3.824211e+003,-9.349302e-004
3.826139e+003,-1.014274e-003
3.828068e+003,-7.006171e-004
3.829996e+003,-5.575860e-004
3.831925e+003,-5.779699e-004
3.833853e+003,-7.007495e-004
3.835782e+003,-8.783560e-004
3.837710e+003,-1.006373e-003
3.839639e+003,-9.840587e-004
3.841567e+003,-8.068261e-004
3.843496e+003,-6.837787e-004
3.845424e+003,-6.091726e-004
3.847353e+003,-6.876162e-004
3.849281e+003,-6.334913e-004
3.851210e+003,-5.660243e-004
3.853138e+003,-1.000224e-003
3.855067e+003,-1.161252e-003
3.856995e+003,-7.558913e-004
3.858924e+003,-6.761698e-004
3.860852e+003,-8.177068e-004
3.862781e+003,-7.346888e-004
3.864709e+003,-6.090403e-004
3.866638e+003,-6.019595e-004
3.868566e+003,-8.741565e-004
3.870495e+003,-7.853283e-004
3.872423e+003,-4.787879e-004
3.874352e+003,-3.532970e-004
3.876280e+003,-5.445477e-004
3.878209e+003,-8.864574e-004
3.880137e+003,-8.299431e-004
3.882066e+003,-6.895349e-004
3.883994e+003,-7.574790e-004
3.885923e+003,-5.858783e-004
3.887851e+003,-4.624374e-004
3.889780e+003,-5.076480e-004
3.891708e+003,-8.740242e-004
3.893637e+003,-1.118324e-003
3.895565e+003,-7.546013e-004
3.897494e+003,-4.425115e-004
3.899422e+003,-3.139309e-004
3.901351e+003,-4.306283e-004
3.903279e+003,-5.786979e-004
3.905208e+003,-6.374616e-004
3.907136e+003,-5.544754e-004
3.909065e+003,-4.236439e-004
3.910993e+003,-4.626360e-004
3.912922e+003,-5.264457e-004
3.914850e+003,-4.610804e-004
3.916779e+003,-5.987499e-004
3.918707e+003,-6.536401e-004
3.920636e+003,-8.075536e-004
3.922564e+003,-9.879266e-004
3.924493e+003,-9.291442e-004
3.926421e+003,-7.428260e-004
3.928350e+003,-5.932241e-004
3.930278e+003,-3.808744e-004
3.932207e+003,-3.372067e-004
3.934135e+003,-1.489120e-004
3.936064e+003,-9.763504e-005
3.937992e+003,-4.092114e-004
3.939921e+003,-6.564853e-004
3.941849e+003,-6.115218e-004
3.943778e+003,-4.925232e-004
3.945706e+003,-4.358914e-004
3.947635e+003,-3.580975e-004
3.949563e+003,-1.585506e-004
3.951492e+003,-1.295017e-004
3.953420e+003,-2.810183e-004
3.955349e+003,-3.144938e-004
3.957277e+003,-2.757533e-004
3.959206e+003,-4.814357e-004
3.961134e+003,-6.631682e-004
3.963063e+003,-5.463017e-004
3.964991e+003,-5.766132e-004
3.966920e+003,-5.711864e-004
3.968848e+003,-3.646858e-004
3.970777e+003,-3.703800e-004
3.972705e+003,-4.227171e-004
3.974634e+003,-3.036998e-004
3.976562e+003,-3.370081e-004
3.978491e+003,-4.951378e-004
3.980419e+003,-4.319855e-004
3.982348e+003,-3.020774e-004
3.984276e+003,-3.384979e-004
3.986205e+003,-3.983204e-004
3.988133e+003,-2.406852e-004
3.990062e+003,-2.066410e-004
3.991990e+003,-2.997596e-004
3.993919e+003,-3.822648e-004
3.995847e+003,-4.290726e-004
3.997776e+003,-3.209833e-004
3.999704e+003,-3.055540e-004
4.001633e+003,0.000000e+000
