3.991989e+002,3.585671e-002
4.011274e+002,2.505713e-002
4.030559e+002,1.665686e-002
4.049844e+002,1.024299e-002
4.069129e+002,1.570867e-002
4.088414e+002,1.873306e-002
4.107699e+002,1.341912e-002
4.126984e+002,9.797145e-003
4.146269e+002,1.699826e-002
4.165554e+002,1.925111e-002
4.184839e+002,1.519325e-002
4.204124e+002,1.702603e-002
4.223409e+002,2.146039e-002
4.242694e+002,2.078461e-002
4.261979e+002,8.528092e-003
4.281264e+002,6.031260e-003
4.300549e+002,8.333161e-003
4.319834e+002,8.734504e-003
4.339119e+002,1.229503e-002
4.358404e+002,1.496560e-002
4.377689e+002,1.777153e-002
4.396974e+002,1.186310e-002
4.416259e+002,2.490690e-003
4.435544e+002,4.468002e-003
4.454829e+002,9.468502e-003
4.474114e+002,1.483934e-002
4.493399e+002,1.437951e-002
4.512684e+002,1.024856e-002
4.531969e+002,9.655203e-003
4.551254e+002,1.027359e-002
4.570539e+002,1.054279e-002
4.589824e+002,8.577160e-003
4.609109e+002,7.742754e-003
4.628394e+002,8.642321e-003
4.647679e+002,7.006612e-003
4.666964e+002,7.404876e-003
4.686249e+002,9.494240e-003
4.705533e+002,1.308424e-002
4.724819e+002,1.276440e-002
4.744103e+002,1.076572e-002
4.763389e+002,1.011054e-002
4.782673e+002,1.003922e-002
4.801959e+002,8.923933e-003
4.821243e+002,7.641541e-003
4.840529e+002,6.797385e-003
4.859813e+002,6.499525e-003
4.879099e+002,7.393653e-003
4.898383e+002,8.325662e-003
4.917668e+002,6.389826e-003
4.936953e+002,4.572261e-003
4.956238e+002,4.867395e-003
4.975523e+002,4.706421e-003
4.994808e+002,3.592766e-003
5.014093e+002,4.532349e-003
5.033378e+002,8.748838e-003
5.052663e+002,1.770409e-002
5.071948e+002,1.245621e-002
5.091233e+002,5.155018e-003
5.110518e+002,8.424163e-003
5.129803e+002,6.435154e-003
5.149088e+002,3.589826e-003
5.168373e+002,3.857849e-003
5.187658e+002,4.573031e-003
5.206943e+002,2.845676e-003
5.226228e+002,3.393325e-003
5.245513e+002,5.412736e-003
5.264798e+002,4.927612e-003
5.284083e+002,5.094970e-003
5.303368e+002,5.822133e-003
5.322653e+002,6.101989e-003
5.341938e+002,6.168763e-003
5.361223e+002,5.267189e-003
5.380508e+002,4.191204e-003
5.399792e+002,3.415065e-003
5.419078e+002,4.114966e-003
5.438363e+002,4.895408e-003
5.457648e+002,4.704914e-003
5.476932e+002,3.846517e-003
5.496218e+002,3.487907e-003
5.515503e+002,4.069544e-003
5.534788e+002,3.735013e-003
5.554072e+002,3.636334e-003
5.573358e+002,4.081284e-003
5.592643e+002,3.431095e-003
5.611927e+002,3.684518e-003
5.631212e+002,4.691951e-003
5.650497e+002,4.337696e-003
5.669783e+002,3.158462e-003
5.689067e+002,3.507514e-003
5.708352e+002,3.801491e-003
5.727637e+002,4.173674e-003
5.746923e+002,3.591129e-003
5.766207e+002,2.598942e-003
5.785492e+002,5.518665e-003
5.804777e+002,1.487332e-002
5.824063e+002,1.197873e-002
5.843347e+002,4.284756e-003
5.862632e+002,3.734311e-003
5.881917e+002,3.475816e-003
5.901202e+002,4.246543e-003
5.920487e+002,4.706555e-003
5.939772e+002,4.780686e-003
5.959057e+002,4.787185e-003
5.978342e+002,4.881870e-003
5.997627e+002,4.819951e-003
6.016912e+002,4.729868e-003
6.036197e+002,4.562919e-003
6.055482e+002,4.781222e-003
6.074767e+002,4.686425e-003
6.094052e+002,4.924261e-003
6.113337e+002,4.185918e-003
6.132622e+002,2.971431e-003
6.151907e+002,2.648178e-003
6.171192e+002,2.248055e-003
6.190477e+002,2.260012e-003
6.209762e+002,2.799253e-003
6.229047e+002,3.368280e-003
6.248332e+002,3.023010e-003
6.267617e+002,1.867634e-003
6.286902e+002,2.111322e-003
6.306187e+002,3.014836e-003
6.325472e+002,2.977703e-003
6.344756e+002,3.173482e-003
6.364042e+002,3.602789e-003
6.383326e+002,3.489978e-003
6.402612e+002,3.253794e-003
6.421896e+002,3.822716e-003
6.441182e+002,3.535840e-003
6.460466e+002,2.756135e-003
6.479752e+002,2.693518e-003
6.499036e+002,2.828500e-003
6.518322e+002,2.994784e-003
6.537606e+002,3.009431e-003
6.556891e+002,2.401923e-003
6.576177e+002,2.189107e-003
6.595461e+002,2.886167e-003
6.614746e+002,3.101927e-003
6.634031e+002,2.853514e-003
6.653317e+002,3.512892e-003
6.672601e+002,3.288948e-003
6.691886e+002,3.145312e-003
6.711171e+002,3.343638e-003
6.730457e+002,3.512591e-003
6.749741e+002,3.596207e-003
6.769026e+002,3.431530e-003
6.788311e+002,3.477419e-003
6.807596e+002,3.690132e-003
6.826881e+002,3.671151e-003
6.846166e+002,3.759243e-003
6.865451e+002,4.195888e-003
6.884736e+002,4.300751e-003
6.904021e+002,4.177220e-003
6.923306e+002,4.143132e-003
6.942591e+002,4.085431e-003
6.961876e+002,3.510854e-003
6.981161e+002,3.299765e-003
7.000446e+002,3.465696e-003
7.019731e+002,3.582476e-003
7.039016e+002,3.853203e-003
7.058301e+002,3.923510e-003
7.077585e+002,3.400772e-003
7.096871e+002,3.393793e-003
7.116156e+002,3.790126e-003
7.135441e+002,3.455676e-003
7.154725e+002,3.208062e-003
7.174011e+002,3.159497e-003
7.193296e+002,3.522545e-003
7.212581e+002,4.202412e-003
7.231865e+002,4.482899e-003
7.251151e+002,4.519425e-003
7.270436e+002,4.285592e-003
7.289720e+002,4.076969e-003
7.309005e+002,4.138950e-003
7.328290e+002,4.310154e-003
7.347576e+002,4.658526e-003
7.366860e+002,5.197166e-003
7.386145e+002,5.228722e-003
7.405430e+002,4.906433e-003
7.424716e+002,4.684583e-003
7.444000e+002,4.889075e-003
7.463285e+002,5.323772e-003
7.482570e+002,5.247637e-003
7.501855e+002,5.172621e-003
7.521140e+002,5.567797e-003
7.540425e+002,5.859108e-003
7.559710e+002,6.008280e-003
7.578995e+002,6.005929e-003
7.598280e+002,5.903273e-003
7.617565e+002,5.614584e-003
7.636850e+002,5.226576e-003
7.656135e+002,5.758401e-003
7.675420e+002,6.286440e-003
7.694705e+002,6.343089e-003
7.713990e+002,6.025448e-003
7.733275e+002,5.904852e-003
7.752560e+002,5.780998e-003
7.771844e+002,5.355102e-003
7.791130e+002,5.362985e-003
7.810415e+002,5.815988e-003
7.829700e+002,6.109684e-003
7.848984e+002,6.225833e-003
7.868270e+002,6.117043e-003
7.887555e+002,6.058945e-003
7.906840e+002,6.097419e-003
7.926124e+002,5.971696e-003
7.945410e+002,6.272960e-003
7.964695e+002,6.341979e-003
7.983979e+002,6.366591e-003
8.003264e+002,6.469524e-003
8.022549e+002,6.442217e-003
8.041835e+002,6.680612e-003
8.061119e+002,7.197681e-003
8.080404e+002,7.640530e-003
8.099689e+002,7.639147e-003
8.118975e+002,7.552895e-003
8.138259e+002,7.984463e-003
8.157545e+002,8.024053e-003
8.176830e+002,7.383306e-003
8.196115e+002,6.821450e-003
8.215399e+002,6.480253e-003
8.234684e+002,6.229934e-003
8.253970e+002,5.648587e-003
8.273254e+002,5.158002e-003
8.292539e+002,5.006473e-003
8.311824e+002,4.647038e-003
8.331110e+002,4.525753e-003
8.350394e+002,4.576848e-003
8.369679e+002,5.096043e-003
8.388964e+002,4.826953e-003
8.408250e+002,4.337328e-003
8.427534e+002,4.347134e-003
8.446819e+002,4.413137e-003
8.466104e+002,4.440886e-003
8.485389e+002,4.632671e-003
8.504674e+002,4.218906e-003
8.523959e+002,4.083224e-003
8.543244e+002,4.172804e-003
8.562529e+002,4.329230e-003
8.581814e+002,4.556255e-003
8.601099e+002,4.828628e-003
8.620384e+002,4.870879e-003
8.639669e+002,4.446108e-003
8.658954e+002,4.169325e-003
8.678239e+002,4.301219e-003
8.697524e+002,4.091118e-003
8.716809e+002,3.699889e-003
8.736094e+002,3.446658e-003
8.755378e+002,3.647962e-003
8.774664e+002,3.935179e-003
8.793949e+002,4.148651e-003
8.813234e+002,4.081083e-003
8.832518e+002,3.917124e-003
8.851804e+002,3.515163e-003
8.871089e+002,3.252826e-003
8.890374e+002,3.374191e-003
8.909658e+002,3.289416e-003
8.928943e+002,3.561162e-003
8.948229e+002,3.731804e-003
8.967513e+002,3.488341e-003
8.986798e+002,3.369082e-003
9.006083e+002,3.221681e-003
9.025369e+002,3.325908e-003
9.044653e+002,3.415199e-003
9.063938e+002,3.193408e-003
9.083223e+002,3.244247e-003
9.102509e+002,3.098290e-003
9.121793e+002,2.694352e-003
9.141078e+002,2.812492e-003
9.160364e+002,2.987044e-003
9.179648e+002,3.132063e-003
9.198933e+002,3.128592e-003
9.218218e+002,2.846843e-003
9.237504e+002,2.822530e-003
9.256788e+002,2.544513e-003
9.276073e+002,2.431776e-003
9.295358e+002,2.755468e-003
9.314644e+002,3.029183e-003
9.333928e+002,3.350049e-003
9.353213e+002,3.562231e-003
9.372498e+002,3.572855e-003
9.391783e+002,3.397600e-003
9.411068e+002,3.405414e-003
9.430353e+002,3.606598e-003
9.449637e+002,3.631255e-003
9.468923e+002,3.457346e-003
9.488208e+002,3.612344e-003
9.507493e+002,3.818939e-003
9.526777e+002,3.791463e-003
9.546063e+002,3.761583e-003
9.565348e+002,3.619594e-003
9.584633e+002,3.619294e-003
9.603917e+002,3.663599e-003
9.623203e+002,3.476818e-003
9.642488e+002,3.567877e-003
9.661772e+002,3.681644e-003
9.681057e+002,3.739591e-003
9.700343e+002,3.618659e-003
9.719628e+002,3.222983e-003
9.738912e+002,2.926762e-003
9.758197e+002,3.101994e-003
9.777483e+002,3.184563e-003
9.796768e+002,3.205725e-003
9.816052e+002,3.165805e-003
9.835337e+002,3.112640e-003
9.854623e+002,3.121617e-003
9.873907e+002,3.210999e-003
9.893192e+002,3.252726e-003
9.912477e+002,3.250689e-003
9.931763e+002,3.257433e-003
9.951047e+002,3.476584e-003
9.970332e+002,3.702964e-003
9.989617e+002,3.773214e-003
1.000890e+003,3.945778e-003
1.002819e+003,4.204085e-003
1.004747e+003,4.386962e-003
1.006676e+003,4.413572e-003
1.008604e+003,4.526422e-003
1.010533e+003,4.728529e-003
1.012461e+003,5.032216e-003
1.014390e+003,5.430887e-003
1.016318e+003,5.744870e-003
1.018247e+003,6.084213e-003
1.020175e+003,6.029849e-003
1.022104e+003,6.006970e-003
1.024032e+003,6.406201e-003
1.025961e+003,6.794524e-003
1.027889e+003,6.720722e-003
1.029818e+003,6.783317e-003
1.031746e+003,7.140483e-003
1.033675e+003,7.454592e-003
1.035603e+003,7.858261e-003
1.037532e+003,8.070126e-003
1.039460e+003,8.116137e-003
1.041389e+003,8.348834e-003
1.043317e+003,8.290808e-003
1.045246e+003,8.049806e-003
1.047174e+003,8.303068e-003
1.049103e+003,8.413825e-003
1.051031e+003,8.520219e-003
1.052960e+003,8.741231e-003
1.054888e+003,8.801852e-003
1.056817e+003,8.587467e-003
1.058745e+003,8.574388e-003
1.060674e+003,8.530086e-003
1.062602e+003,8.651886e-003
1.064531e+003,9.032074e-003
1.066459e+003,9.083331e-003
1.068388e+003,9.015735e-003
1.070316e+003,9.017968e-003
1.072245e+003,9.078188e-003
1.074173e+003,9.340107e-003
1.076102e+003,9.231145e-003
1.078030e+003,8.820923e-003
1.079959e+003,8.867893e-003
1.081887e+003,9.202139e-003
1.083816e+003,9.208028e-003
1.085744e+003,9.243431e-003
1.087673e+003,9.301076e-003
1.089601e+003,9.331813e-003
1.091530e+003,9.608893e-003
1.093458e+003,9.846322e-003
1.095387e+003,9.947676e-003
1.097315e+003,1.007378e-002
1.099244e+003,1.002962e-002
1.101172e+003,1.021663e-002
1.103101e+003,1.033891e-002
1.105029e+003,1.024598e-002
1.106958e+003,1.018183e-002
1.108886e+003,1.001782e-002
1.110815e+003,1.013760e-002
1.112743e+003,1.035153e-002
1.114672e+003,1.028170e-002
1.116600e+003,1.015422e-002
1.118529e+003,1.016440e-002
1.120457e+003,1.020795e-002
1.122386e+003,1.037308e-002
1.124314e+003,1.028510e-002
1.126243e+003,9.968662e-003
1.128171e+003,9.959576e-003
1.130100e+003,1.014662e-002
1.132028e+003,1.009178e-002
1.133957e+003,9.932149e-003
1.135885e+003,9.694030e-003
1.137814e+003,9.538608e-003
1.139742e+003,9.374302e-003
1.141671e+003,9.058362e-003
1.143599e+003,8.763747e-003
1.145528e+003,8.449602e-003
1.147456e+003,8.112120e-003
1.149385e+003,7.815751e-003
1.151313e+003,7.572282e-003
1.153242e+003,7.271463e-003
1.155170e+003,6.926545e-003
1.157099e+003,6.816099e-003
1.159027e+003,6.668802e-003
1.160956e+003,6.326850e-003
1.162884e+003,6.130686e-003
1.164813e+003,6.245362e-003
1.166741e+003,6.154581e-003
1.168670e+003,6.082432e-003
1.170598e+003,6.085725e-003
1.172526e+003,5.949459e-003
1.174455e+003,5.798829e-003
1.176384e+003,5.800172e-003
1.178312e+003,5.699948e-003
1.180240e+003,5.648855e-003
1.182169e+003,5.593707e-003
1.184098e+003,5.615993e-003
1.186026e+003,5.510947e-003
1.187954e+003,5.344971e-003
1.189883e+003,5.025411e-003
1.191812e+003,4.908108e-003
1.193740e+003,5.078677e-003
1.195668e+003,5.036305e-003
1.197597e+003,4.947753e-003
1.199526e+003,4.886394e-003
1.201454e+003,4.786984e-003
1.203382e+003,4.860224e-003
1.205311e+003,4.894101e-003
1.207240e+003,4.785678e-003
1.209168e+003,4.812345e-003
1.211096e+003,4.994004e-003
1.213025e+003,5.158404e-003
1.214953e+003,5.159410e-003
1.216882e+003,5.017300e-003
1.218810e+003,4.964912e-003
1.220739e+003,4.974196e-003
1.222667e+003,5.094233e-003
1.224596e+003,5.289660e-003
1.226524e+003,5.231975e-003
1.228453e+003,5.071972e-003
1.230381e+003,5.308141e-003
1.232310e+003,5.374022e-003
1.234238e+003,5.221378e-003
1.236167e+003,5.159846e-003
1.238095e+003,5.183452e-003
1.240024e+003,5.343227e-003
1.241952e+003,5.630494e-003
1.243881e+003,5.771261e-003
1.245809e+003,5.961383e-003
1.247738e+003,6.040332e-003
1.249666e+003,5.994574e-003
1.251595e+003,6.199280e-003
1.253523e+003,6.620791e-003
1.255452e+003,6.878539e-003
1.257380e+003,7.185755e-003
1.259309e+003,7.552254e-003
1.261237e+003,7.980244e-003
1.263166e+003,8.291112e-003
1.265094e+003,8.446393e-003
1.267023e+003,8.929445e-003
1.268951e+003,9.441243e-003
1.270880e+003,9.673498e-003
1.272808e+003,9.892454e-003
1.274737e+003,1.023729e-002
1.276665e+003,1.082485e-002
1.278594e+003,1.150714e-002
1.280522e+003,1.194470e-002
1.282451e+003,1.214920e-002
1.284379e+003,1.224196e-002
1.286308e+003,1.278061e-002
1.288236e+003,1.331575e-002
1.290165e+003,1.361430e-002
1.292093e+003,1.396953e-002
1.294022e+003,1.422935e-002
1.295950e+003,1.463262e-002
1.297879e+003,1.485090e-002
1.299807e+003,1.489475e-002
1.301736e+003,1.481617e-002
1.303664e+003,1.488838e-002
1.305593e+003,1.507814e-002
1.307521e+003,1.488947e-002
1.309450e+003,1.438297e-002
1.311378e+003,1.386579e-002
1.313307e+003,1.363997e-002
1.315235e+003,1.358038e-002
1.317164e+003,1.332149e-002
1.319092e+003,1.274130e-002
1.321021e+003,1.203748e-002
1.322949e+003,1.155443e-002
1.324878e+003,1.138892e-002
1.326806e+003,1.124320e-002
1.328735e+003,1.108260e-002
1.330663e+003,1.087490e-002
1.332592e+003,1.069083e-002
1.334520e+003,1.061436e-002
1.336449e+003,1.054686e-002
1.338377e+003,1.045555e-002
1.340306e+003,1.046088e-002
1.342234e+003,1.056893e-002
1.344163e+003,1.050769e-002
1.346091e+003,1.043067e-002
1.348020e+003,1.043763e-002
1.349948e+003,1.043817e-002
1.351877e+003,1.024459e-002
1.353805e+003,1.002915e-002
1.355734e+003,9.881335e-003
1.357662e+003,9.778608e-003
1.359591e+003,9.673803e-003
1.361519e+003,9.514357e-003
1.363448e+003,9.411986e-003
1.365376e+003,9.323181e-003
1.367305e+003,9.281070e-003
1.369233e+003,9.368919e-003
1.371162e+003,9.290954e-003
1.373090e+003,9.205659e-003
1.375019e+003,9.230366e-003
1.376947e+003,9.351043e-003
1.378876e+003,9.534509e-003
1.380804e+003,9.730455e-003
1.382733e+003,9.582809e-003
1.384661e+003,9.296133e-003
1.386590e+003,9.082079e-003
1.388518e+003,8.997366e-003
1.390447e+003,8.837357e-003
1.392375e+003,8.514846e-003
1.394304e+003,8.275273e-003
1.396232e+003,8.206081e-003
1.398161e+003,8.078463e-003
1.400089e+003,8.098076e-003
1.402018e+003,8.175996e-003
1.403946e+003,8.059865e-003
1.405875e+003,7.947037e-003
1.407803e+003,7.834070e-003
1.409732e+003,7.690037e-003
1.411660e+003,7.536240e-003
1.413589e+003,7.432143e-003
1.415517e+003,7.653817e-003
1.417446e+003,7.896118e-003
1.419374e+003,8.299488e-003
1.421303e+003,9.131039e-003
1.423231e+003,9.714359e-003
1.425160e+003,1.048461e-002
1.427088e+003,1.123765e-002
1.429017e+003,1.158690e-002
1.430945e+003,1.192811e-002
1.432874e+003,1.223763e-002
1.434802e+003,1.240602e-002
1.436731e+003,1.270697e-002
1.438659e+003,1.333769e-002
1.440588e+003,1.379376e-002
1.442516e+003,1.430269e-002
1.444445e+003,1.485974e-002
1.446373e+003,1.550016e-002
1.448302e+003,1.608680e-002
1.450230e+003,1.672710e-002
1.452159e+003,1.744425e-002
1.454087e+003,1.810808e-002
1.456016e+003,1.818567e-002
1.457944e+003,1.860442e-002
1.459873e+003,1.932590e-002
1.461801e+003,1.975633e-002
1.463730e+003,1.980866e-002
1.465658e+003,1.988052e-002
1.467587e+003,1.991323e-002
1.469515e+003,1.974974e-002
1.471444e+003,1.942301e-002
1.473372e+003,1.917298e-002
1.475301e+003,1.893247e-002
1.477229e+003,1.854954e-002
1.479158e+003,1.814953e-002
1.481086e+003,1.751704e-002
1.483015e+003,1.698420e-002
1.484943e+003,1.646451e-002
1.486872e+003,1.576265e-002
1.488800e+003,1.503547e-002
1.490729e+003,1.450132e-002
1.492657e+003,1.410888e-002
1.494586e+003,1.354944e-002
1.496514e+003,1.289852e-002
1.498443e+003,1.244377e-002
1.500371e+003,1.210760e-002
1.502300e+003,1.180045e-002
1.504228e+003,1.116258e-002
1.506157e+003,1.046763e-002
1.508085e+003,1.043257e-002
1.510014e+003,1.042914e-002
1.511942e+003,1.031275e-002
1.513871e+003,1.029572e-002
1.515799e+003,9.937235e-003
1.517728e+003,9.869133e-003
1.519656e+003,9.813718e-003
1.521585e+003,9.661606e-003
1.523513e+003,1.005034e-002
1.525442e+003,1.032914e-002
1.527370e+003,1.048800e-002
1.529299e+003,1.066016e-002
1.531227e+003,1.081986e-002
1.533156e+003,1.098349e-002
1.535084e+003,1.151306e-002
1.537013e+003,1.168059e-002
1.538941e+003,1.155209e-002
1.540870e+003,1.183985e-002
1.542798e+003,1.242907e-002
1.544727e+003,1.301018e-002
1.546655e+003,1.349150e-002
1.548584e+003,1.382389e-002
1.550512e+003,1.421055e-002
1.552441e+003,1.445130e-002
1.554369e+003,1.462508e-002
1.556298e+003,1.484137e-002
1.558226e+003,1.489955e-002
1.560155e+003,1.572375e-002
1.562083e+003,1.663035e-002
1.564012e+003,1.708765e-002
1.565940e+003,1.748789e-002
1.567869e+003,1.771379e-002
1.569797e+003,1.792040e-002
1.571726e+003,1.832390e-002
1.573654e+003,1.845760e-002
1.575583e+003,1.844166e-002
1.577511e+003,1.862088e-002
1.579440e+003,1.866215e-002
1.581368e+003,1.861110e-002
1.583297e+003,1.842663e-002
1.585225e+003,1.819234e-002
1.587154e+003,1.796401e-002
1.589082e+003,1.751217e-002
1.591010e+003,1.688422e-002
1.592939e+003,1.636950e-002
1.594868e+003,1.585202e-002
1.596796e+003,1.526329e-002
1.598724e+003,1.466819e-002
1.600653e+003,1.401063e-002
1.602582e+003,1.340962e-002
1.604510e+003,1.286620e-002
1.606438e+003,1.241877e-002
1.608367e+003,1.181387e-002
1.610296e+003,1.137494e-002
1.612224e+003,1.096150e-002
1.614152e+003,1.045660e-002
1.616081e+003,9.810972e-003
1.618010e+003,9.682409e-003
1.619938e+003,9.601881e-003
1.621866e+003,9.308726e-003
1.623795e+003,8.993206e-003
1.625724e+003,8.957959e-003
1.627652e+003,8.869855e-003
1.629580e+003,8.682376e-003
1.631509e+003,8.439467e-003
1.633438e+003,8.072455e-003
1.635366e+003,7.600976e-003
1.637294e+003,7.512000e-003
1.639223e+003,7.308831e-003
1.641151e+003,7.019206e-003
1.643080e+003,6.595997e-003
1.645008e+003,5.974753e-003
1.646937e+003,5.517155e-003
1.648865e+003,5.412635e-003
1.650794e+003,4.962667e-003
1.652722e+003,4.411932e-003
1.654651e+003,4.419330e-003
1.656579e+003,4.453105e-003
1.658508e+003,4.167050e-003
1.660436e+003,3.911440e-003
1.662365e+003,3.550071e-003
1.664293e+003,3.449698e-003
1.666222e+003,3.379300e-003
1.668150e+003,2.964558e-003
1.670079e+003,2.534748e-003
1.672007e+003,2.370439e-003
1.673936e+003,2.060916e-003
1.675864e+003,1.843675e-003
1.677793e+003,1.805244e-003
1.679721e+003,1.707569e-003
1.681650e+003,1.462977e-003
1.683578e+003,9.663019e-004
1.685507e+003,9.466101e-004
1.687435e+003,9.200458e-004
1.689364e+003,8.232660e-004
1.691292e+003,8.780444e-004
1.693221e+003,7.941534e-004
1.695149e+003,5.725358e-004
1.697078e+003,5.455631e-004
1.699006e+003,2.327959e-004
1.700935e+003,2.648548e-004
1.702863e+003,7.466543e-004
1.704792e+003,8.095892e-004
1.706720e+003,9.120105e-004
1.708649e+003,9.207432e-004
1.710577e+003,9.235655e-004
1.712506e+003,7.980040e-004
1.714434e+003,5.468238e-004
1.716363e+003,3.873771e-004
1.718291e+003,4.212385e-004
1.720220e+003,6.425465e-004
1.722148e+003,7.118052e-004
1.724077e+003,6.950122e-004
1.726005e+003,7.422400e-004
1.727934e+003,7.270057e-004
1.729862e+003,6.708194e-004
1.731791e+003,4.585189e-004
1.733719e+003,1.332193e-004
1.735648e+003,2.844495e-004
1.737576e+003,4.726823e-004
1.739505e+003,4.751369e-004
1.741433e+003,6.537625e-004
1.743362e+003,6.654767e-004
1.745290e+003,6.249266e-004
1.747219e+003,5.965240e-004
1.749147e+003,4.741418e-004
1.751076e+003,3.919537e-004
1.753004e+003,4.921536e-004
1.754933e+003,5.182936e-004
1.756861e+003,5.487148e-004
1.758790e+003,4.749378e-004
1.760718e+003,3.519267e-004
1.762647e+003,4.287009e-004
1.764575e+003,5.527624e-004
1.766504e+003,4.915565e-004
1.768432e+003,5.232696e-004
1.770361e+003,4.575569e-004
1.772289e+003,3.405526e-004
1.774218e+003,4.599120e-004
1.776146e+003,5.730335e-004
1.778075e+003,6.467608e-004
1.780003e+003,4.945751e-004
1.781932e+003,3.798159e-004
1.783860e+003,3.947063e-004
1.785789e+003,4.261139e-004
1.787717e+003,5.260231e-004
1.789646e+003,4.992855e-004
1.791574e+003,2.974136e-004
1.793503e+003,2.931032e-004
1.795431e+003,2.954905e-004
1.797360e+003,3.103117e-004
1.799288e+003,3.750736e-004
1.801217e+003,3.463557e-004
1.803145e+003,4.527807e-004
1.805074e+003,5.342836e-004
1.807002e+003,4.670102e-004
1.808931e+003,3.499038e-004
1.810859e+003,3.881399e-004
1.812788e+003,5.136161e-004
1.814716e+003,5.400229e-004
1.816645e+003,4.143068e-004
1.818573e+003,3.011934e-004
1.820502e+003,3.695354e-004
1.822430e+003,4.111892e-004
1.824359e+003,3.286152e-004
1.826287e+003,3.033486e-004
1.828216e+003,2.578262e-004
1.830144e+003,2.809681e-004
1.832073e+003,4.306246e-004
1.834001e+003,4.860500e-004
1.835930e+003,4.014387e-004
1.837858e+003,3.455930e-004
1.839787e+003,3.237076e-004
1.841715e+003,2.623683e-004
1.843644e+003,1.968608e-004
1.845572e+003,3.408511e-004
1.847501e+003,4.390822e-004
1.849429e+003,4.200113e-004
1.851358e+003,4.370922e-004
1.853286e+003,4.658824e-004
1.855215e+003,5.052897e-004
1.857143e+003,4.595139e-004
1.859072e+003,3.625714e-004
1.861000e+003,4.228636e-004
1.862929e+003,4.735447e-004
1.864857e+003,4.516198e-004
1.866786e+003,2.849468e-004
1.868714e+003,1.806181e-004
1.870643e+003,3.567350e-004
1.872571e+003,5.419802e-004
1.874500e+003,6.216416e-004
1.876428e+003,6.244289e-004
1.878357e+003,5.843141e-004
1.880285e+003,5.996097e-004
1.882214e+003,5.572743e-004
1.884142e+003,4.295301e-004
1.886071e+003,4.423659e-004
1.887999e+003,5.002475e-004
1.889928e+003,5.575398e-004
1.891856e+003,6.263535e-004
1.893785e+003,5.331556e-004
1.895713e+003,5.050907e-004
1.897642e+003,5.557814e-004
1.899570e+003,5.494779e-004
1.901499e+003,6.329235e-004
1.903427e+003,7.701543e-004
1.905356e+003,6.744034e-004
1.907284e+003,6.305676e-004
1.909213e+003,6.861181e-004
1.911141e+003,7.565122e-004
1.913070e+003,6.952113e-004
1.914998e+003,5.318950e-004
1.916927e+003,4.475732e-004
1.918855e+003,6.053498e-004
1.920784e+003,6.627555e-004
1.922712e+003,5.421129e-004
1.924641e+003,6.287426e-004
1.926569e+003,6.367395e-004
1.928498e+003,6.070089e-004
1.930426e+003,6.704876e-004
1.932355e+003,6.900673e-004
1.934283e+003,6.652775e-004
1.936212e+003,6.716491e-004
1.938140e+003,7.067606e-004
1.940069e+003,7.045038e-004
1.941997e+003,6.964060e-004
1.943926e+003,7.323825e-004
1.945854e+003,6.541939e-004
1.947783e+003,5.476864e-004
1.949711e+003,5.708438e-004
1.951640e+003,6.529993e-004
1.953568e+003,6.833305e-004
1.955497e+003,6.248271e-004
1.957425e+003,6.579105e-004
1.959354e+003,6.525679e-004
1.961282e+003,6.663727e-004
1.963211e+003,6.680650e-004
1.965139e+003,7.048356e-004
1.967068e+003,7.101457e-004
1.968996e+003,6.978663e-004
1.970925e+003,6.940165e-004
1.972853e+003,6.177594e-004
1.974782e+003,6.279794e-004
1.976710e+003,7.171154e-004
1.978639e+003,7.961782e-004
1.980567e+003,8.104523e-004
1.982496e+003,7.712496e-004
1.984424e+003,7.080881e-004
1.986353e+003,7.022802e-004
1.988281e+003,7.394520e-004
1.990210e+003,7.642460e-004
1.992138e+003,8.079958e-004
1.994067e+003,8.693790e-004
1.995995e+003,9.295092e-004
1.997924e+003,9.600257e-004
1.999852e+003,9.293099e-004
2.001781e+003,8.838879e-004
2.003709e+003,7.990662e-004
2.005638e+003,8.087261e-004
2.007566e+003,8.866436e-004
2.009495e+003,8.641666e-004
2.011423e+003,8.086265e-004
2.013352e+003,9.647412e-004
2.015280e+003,9.932343e-004
2.017208e+003,8.851827e-004
2.019137e+003,8.649966e-004
2.021066e+003,9.431235e-004
2.022994e+003,1.088923e-003
2.024922e+003,1.168153e-003
2.026851e+003,1.145396e-003
2.028780e+003,1.125164e-003
2.030708e+003,1.171043e-003
2.032636e+003,1.207059e-003
2.034565e+003,1.253146e-003
2.036494e+003,1.198287e-003
2.038422e+003,1.172106e-003
2.040350e+003,1.224669e-003
2.042279e+003,1.264644e-003
2.044208e+003,1.252083e-003
2.046136e+003,1.232146e-003
2.048064e+003,1.308577e-003
2.049993e+003,1.437079e-003
2.051921e+003,1.419493e-003
2.053850e+003,1.409354e-003
2.055778e+003,1.421022e-003
2.057707e+003,1.472452e-003
2.059635e+003,1.625945e-003
2.061564e+003,1.686646e-003
2.063492e+003,1.629371e-003
2.065421e+003,1.586369e-003
2.067349e+003,1.671146e-003
2.069278e+003,1.696957e-003
2.071206e+003,1.657608e-003
2.073135e+003,1.724800e-003
2.075063e+003,1.851096e-003
2.076992e+003,1.871261e-003
2.078920e+003,1.885937e-003
2.080849e+003,1.882975e-003
2.082777e+003,1.917419e-003
2.084706e+003,1.968308e-003
2.086634e+003,1.885737e-003
2.088563e+003,1.898117e-003
2.090491e+003,2.017505e-003
2.092420e+003,2.070637e-003
2.094348e+003,2.060450e-003
2.096277e+003,2.223243e-003
2.098205e+003,2.353315e-003
2.100134e+003,2.268472e-003
2.102062e+003,2.335692e-003
2.103991e+003,2.461666e-003
2.105919e+003,2.380400e-003
2.107848e+003,2.342921e-003
2.109776e+003,2.385231e-003
2.111705e+003,2.528815e-003
2.113633e+003,2.647244e-003
2.115562e+003,2.684416e-003
2.117490e+003,2.725692e-003
2.119419e+003,2.760103e-003
2.121347e+003,2.762504e-003
2.123276e+003,2.768473e-003
2.125204e+003,2.708588e-003
2.127133e+003,2.750533e-003
2.129061e+003,2.902311e-003
2.130990e+003,2.968128e-003
2.132918e+003,2.997420e-003
2.134847e+003,2.953683e-003
2.136775e+003,2.915454e-003
2.138704e+003,3.011233e-003
2.140632e+003,3.072561e-003
2.142561e+003,2.966660e-003
2.144489e+003,2.919490e-003
2.146418e+003,3.036624e-003
2.148346e+003,3.117045e-003
2.150275e+003,3.137503e-003
2.152203e+003,3.202654e-003
2.154132e+003,3.254095e-003
2.156060e+003,3.299298e-003
2.157989e+003,3.274325e-003
2.159917e+003,3.272022e-003
2.161846e+003,3.349915e-003
2.163774e+003,3.342269e-003
2.165703e+003,3.347578e-003
2.167631e+003,3.424049e-003
2.169560e+003,3.527389e-003
2.171488e+003,3.605194e-003
2.173417e+003,3.569447e-003
2.175345e+003,3.525351e-003
2.177274e+003,3.480125e-003
2.179202e+003,3.410991e-003
2.181131e+003,3.418338e-003
2.183059e+003,3.504608e-003
2.184988e+003,3.535540e-003
2.186916e+003,3.493919e-003
2.188845e+003,3.466898e-003
2.190773e+003,3.515397e-003
2.192702e+003,3.597076e-003
2.194630e+003,3.568178e-003
2.196559e+003,3.477653e-003
2.198487e+003,3.474480e-003
2.200416e+003,3.507414e-003
2.202344e+003,3.494687e-003
2.204273e+003,3.503806e-003
2.206201e+003,3.442985e-003
2.208130e+003,3.362671e-003
2.210058e+003,3.313053e-003
2.211987e+003,3.272022e-003
2.213915e+003,3.347144e-003
2.215844e+003,3.309481e-003
2.217772e+003,3.266680e-003
2.219701e+003,3.290450e-003
2.221629e+003,3.216440e-003
2.223558e+003,3.201853e-003
2.225486e+003,3.173048e-003
2.227415e+003,3.182727e-003
2.229343e+003,3.188034e-003
2.231272e+003,3.235133e-003
2.233200e+003,3.202487e-003
2.235129e+003,3.159363e-003
2.237057e+003,3.192006e-003
2.238986e+003,3.209330e-003
2.240914e+003,3.084975e-003
2.242843e+003,3.008397e-003
2.244771e+003,3.037658e-003
2.246700e+003,2.996452e-003
2.248628e+003,3.000990e-003
2.250557e+003,2.970129e-003
2.252485e+003,2.978637e-003
2.254414e+003,2.997687e-003
2.256342e+003,3.043497e-003
2.258271e+003,3.028850e-003
2.260199e+003,2.931866e-003
2.262128e+003,2.876027e-003
2.264056e+003,2.909950e-003
2.265985e+003,2.893939e-003
2.267913e+003,2.757936e-003
2.269842e+003,2.712122e-003
2.271770e+003,2.765039e-003
2.273699e+003,2.720758e-003
2.275627e+003,2.795017e-003
2.277556e+003,2.839606e-003
2.279484e+003,2.767106e-003
2.281413e+003,2.735595e-003
2.283341e+003,2.654245e-003
2.285270e+003,2.617109e-003
2.287198e+003,2.678515e-003
2.289127e+003,2.636443e-003
2.291055e+003,2.655712e-003
2.292984e+003,2.685550e-003
2.294912e+003,2.687583e-003
2.296841e+003,2.720524e-003
2.298769e+003,2.734728e-003
2.300698e+003,2.675548e-003
2.302626e+003,2.613076e-003
2.304555e+003,2.609676e-003
2.306483e+003,2.584143e-003
2.308412e+003,2.625076e-003
2.310340e+003,2.674415e-003
2.312269e+003,2.636377e-003
2.314197e+003,2.585409e-003
2.316125e+003,2.625343e-003
2.318054e+003,2.553145e-003
2.319983e+003,2.430777e-003
2.321911e+003,2.443472e-003
2.323840e+003,2.513752e-003
2.325768e+003,2.443172e-003
2.327697e+003,2.372671e-003
2.329625e+003,2.356546e-003
2.331553e+003,2.351682e-003
2.333482e+003,2.400024e-003
2.335411e+003,2.400324e-003
2.337339e+003,2.400856e-003
2.339268e+003,2.498455e-003
2.341196e+003,2.515418e-003
2.343125e+003,2.447171e-003
2.345053e+003,2.546079e-003
2.346981e+003,2.819028e-003
2.348910e+003,2.854247e-003
2.350839e+003,2.662479e-003
2.352767e+003,2.473362e-003
2.354696e+003,2.410152e-003
2.356624e+003,2.436408e-003
2.358552e+003,2.525583e-003
2.360481e+003,2.466564e-003
2.362409e+003,2.409952e-003
2.364338e+003,2.381899e-003
2.366267e+003,2.494023e-003
2.368195e+003,2.630443e-003
2.370124e+003,2.833369e-003
2.372052e+003,3.014336e-003
2.373980e+003,3.081538e-003
2.375909e+003,3.083940e-003
2.377838e+003,3.286010e-003
2.379766e+003,3.586552e-003
2.381695e+003,3.815864e-003
2.383623e+003,3.935848e-003
2.385552e+003,4.017037e-003
2.387480e+003,4.099546e-003
2.389408e+003,4.168455e-003
2.391337e+003,4.235970e-003
2.393266e+003,4.261165e-003
2.395194e+003,4.348440e-003
2.397123e+003,4.349075e-003
2.399051e+003,4.349377e-003
2.400979e+003,4.371164e-003
2.402908e+003,4.420032e-003
2.404836e+003,4.539849e-003
2.406765e+003,4.562483e-003
2.408694e+003,4.573768e-003
2.410622e+003,4.619309e-003
2.412551e+003,4.631466e-003
2.414479e+003,4.693794e-003
2.416407e+003,4.732615e-003
2.418336e+003,4.745143e-003
2.420264e+003,4.831476e-003
2.422193e+003,4.928617e-003
2.424122e+003,4.909415e-003
2.426050e+003,4.892895e-003
2.427979e+003,4.968432e-003
2.429907e+003,5.077839e-003
2.431835e+003,5.150290e-003
2.433764e+003,5.247637e-003
2.435692e+003,5.312669e-003
2.437621e+003,5.333902e-003
2.439550e+003,5.440114e-003
2.441478e+003,5.403107e-003
2.443406e+003,5.273830e-003
2.445335e+003,5.283221e-003
2.447263e+003,5.318841e-003
2.449192e+003,5.330346e-003
2.451121e+003,5.430249e-003
2.453049e+003,5.420855e-003
2.454978e+003,5.411327e-003
2.456906e+003,5.436054e-003
2.458834e+003,5.519638e-003
2.460763e+003,5.652548e-003
2.462691e+003,5.760483e-003
2.464620e+003,5.839327e-003
2.466549e+003,5.883860e-003
2.468477e+003,5.836842e-003
2.470406e+003,5.805444e-003
2.472334e+003,5.785263e-003
2.474262e+003,5.951037e-003
2.476191e+003,6.027128e-003
2.478119e+003,6.004182e-003
2.480048e+003,6.064086e-003
2.481977e+003,6.182912e-003
2.483905e+003,6.229228e-003
2.485833e+003,6.227278e-003
2.487762e+003,6.282541e-003
2.489690e+003,6.392347e-003
2.491619e+003,6.448102e-003
2.493547e+003,6.535480e-003
2.495476e+003,6.578200e-003
2.497405e+003,6.526903e-003
2.499333e+003,6.505444e-003
2.501261e+003,6.677752e-003
2.503190e+003,6.804891e-003
2.505118e+003,6.773826e-003
2.507047e+003,6.786481e-003
2.508975e+003,6.810747e-003
2.510904e+003,6.835823e-003
2.512833e+003,6.859688e-003
2.514761e+003,6.859588e-003
2.516689e+003,6.835083e-003
2.518618e+003,6.775172e-003
2.520546e+003,6.848614e-003
2.522475e+003,6.870628e-003
2.524403e+003,6.882377e-003
2.526332e+003,6.943076e-003
2.528260e+003,7.073593e-003
2.530189e+003,7.147186e-003
2.532117e+003,7.215906e-003
2.534046e+003,7.219208e-003
2.535974e+003,7.230393e-003
2.537903e+003,7.254347e-003
2.539831e+003,7.244442e-003
2.541760e+003,7.255122e-003
2.543688e+003,7.197512e-003
2.545617e+003,7.141291e-003
2.547545e+003,7.323893e-003
2.549474e+003,7.457929e-003
2.551402e+003,7.351897e-003
2.553331e+003,7.294645e-003
2.555259e+003,7.359446e-003
2.557188e+003,7.355975e-003
2.559116e+003,7.213110e-003
2.561045e+003,7.190573e-003
2.562973e+003,7.390418e-003
2.564902e+003,7.415796e-003
2.566830e+003,7.350819e-003
2.568759e+003,7.372656e-003
2.570687e+003,7.425301e-003
2.572616e+003,7.461435e-003
2.574544e+003,7.543859e-003
2.576473e+003,7.519113e-003
2.578401e+003,7.436492e-003
2.580330e+003,7.444581e-003
2.582258e+003,7.494908e-003
2.584187e+003,7.534520e-003
2.586115e+003,7.575586e-003
2.588044e+003,7.635404e-003
2.589972e+003,7.696715e-003
2.591901e+003,7.711318e-003
2.593829e+003,7.764813e-003
2.595758e+003,7.797467e-003
2.597686e+003,7.853099e-003
2.599615e+003,7.944135e-003
2.601543e+003,7.877762e-003
2.603472e+003,7.745756e-003
2.605400e+003,7.826851e-003
2.607329e+003,7.976701e-003
2.609257e+003,8.041975e-003
2.611186e+003,8.037081e-003
2.613114e+003,8.063442e-003
2.615043e+003,8.014231e-003
2.616971e+003,8.067493e-003
2.618900e+003,8.086126e-003
2.620828e+003,8.096659e-003
2.622757e+003,8.275780e-003
2.624685e+003,8.398826e-003
2.626614e+003,8.361703e-003
2.628542e+003,8.283581e-003
2.630471e+003,8.175693e-003
2.632399e+003,8.243901e-003
2.634328e+003,8.287869e-003
2.636256e+003,8.270072e-003
2.638185e+003,8.332958e-003
2.640113e+003,8.388151e-003
2.642042e+003,8.398793e-003
2.643970e+003,8.409536e-003
2.645899e+003,8.520455e-003
2.647827e+003,8.587264e-003
2.649756e+003,8.604399e-003
2.651684e+003,8.588481e-003
2.653613e+003,8.606528e-003
2.655541e+003,8.699819e-003
2.657470e+003,8.765066e-003
2.659398e+003,8.836613e-003
2.661327e+003,8.929716e-003
2.663255e+003,8.917912e-003
2.665184e+003,8.945477e-003
2.667112e+003,9.003185e-003
2.669041e+003,8.986271e-003
2.670969e+003,8.999362e-003
2.672898e+003,9.101906e-003
2.674826e+003,9.140718e-003
2.676755e+003,9.195574e-003
2.678683e+003,9.192900e-003
2.680612e+003,9.238353e-003
2.682540e+003,9.270306e-003
2.684469e+003,9.309572e-003
2.686397e+003,9.482624e-003
2.688326e+003,9.566551e-003
2.690254e+003,9.554831e-003
2.692183e+003,9.615465e-003
2.694111e+003,9.638128e-003
2.696040e+003,9.659472e-003
2.697968e+003,9.722796e-003
2.699897e+003,9.711377e-003
2.701825e+003,9.711377e-003
2.703754e+003,9.792333e-003
2.705682e+003,9.931336e-003
2.707611e+003,1.009382e-002
2.709539e+003,1.011834e-002
2.711468e+003,1.003464e-002
2.713396e+003,1.009952e-002
2.715325e+003,1.011030e-002
2.717253e+003,1.007795e-002
2.719182e+003,1.011756e-002
2.721110e+003,1.022325e-002
2.723039e+003,1.030963e-002
2.724967e+003,1.041968e-002
2.726896e+003,1.052110e-002
2.728824e+003,1.051329e-002
2.730753e+003,1.063042e-002
2.732681e+003,1.072567e-002
2.734610e+003,1.075936e-002
2.736538e+003,1.087333e-002
2.738467e+003,1.092712e-002
2.740395e+003,1.104426e-002
2.742324e+003,1.115245e-002
2.744252e+003,1.118852e-002
2.746181e+003,1.118142e-002
2.748109e+003,1.134406e-002
2.750038e+003,1.150938e-002
2.751966e+003,1.159466e-002
2.753895e+003,1.173121e-002
2.755823e+003,1.183689e-002
2.757752e+003,1.187928e-002
2.759680e+003,1.197746e-002
2.761609e+003,1.222577e-002
2.763537e+003,1.246989e-002
2.765466e+003,1.262203e-002
2.767394e+003,1.283951e-002
2.769323e+003,1.310336e-002
2.771251e+003,1.336848e-002
2.773180e+003,1.377727e-002
2.775108e+003,1.423452e-002
2.777037e+003,1.461319e-002
2.778965e+003,1.502425e-002
2.780894e+003,1.556846e-002
2.782822e+003,1.607006e-002
2.784750e+003,1.658102e-002
2.786679e+003,1.731082e-002
2.788608e+003,1.802379e-002
2.790536e+003,1.869487e-002
2.792465e+003,1.934142e-002
2.794393e+003,1.990289e-002
2.796322e+003,2.044057e-002
2.798250e+003,2.105223e-002
2.800178e+003,2.169133e-002
2.802107e+003,2.230203e-002
2.804036e+003,2.290224e-002
2.805964e+003,2.341903e-002
2.807893e+003,2.362050e-002
2.809821e+003,2.369164e-002
2.811750e+003,2.386691e-002
2.813678e+003,2.408597e-002
2.815606e+003,2.417819e-002
2.817535e+003,2.414124e-002
2.819464e+003,2.403725e-002
2.821392e+003,2.387832e-002
2.823321e+003,2.367243e-002
2.825249e+003,2.330718e-002
2.827177e+003,2.299869e-002
2.829106e+003,2.276080e-002
2.831034e+003,2.238338e-002
2.832963e+003,2.189942e-002
2.834892e+003,2.144814e-002
2.836820e+003,2.101498e-002
2.838749e+003,2.057750e-002
2.840677e+003,1.993446e-002
2.842605e+003,1.931381e-002
2.844534e+003,1.881066e-002
2.846462e+003,1.840319e-002
2.848391e+003,1.801526e-002
2.850320e+003,1.768922e-002
2.852248e+003,1.736693e-002
2.854177e+003,1.704998e-002
2.856105e+003,1.679639e-002
2.858033e+003,1.651028e-002
2.859962e+003,1.648134e-002
2.861890e+003,1.639579e-002
2.863819e+003,1.615658e-002
2.865748e+003,1.605651e-002
2.867676e+003,1.608440e-002
2.869604e+003,1.615272e-002
2.871533e+003,1.616335e-002
2.873461e+003,1.623413e-002
2.875390e+003,1.635660e-002
2.877319e+003,1.651007e-002
2.879247e+003,1.674363e-002
2.881176e+003,1.675506e-002
2.883104e+003,1.667566e-002
2.885032e+003,1.663927e-002
2.886961e+003,1.674146e-002
2.888889e+003,1.674590e-002
2.890818e+003,1.670286e-002
2.892747e+003,1.664953e-002
2.894675e+003,1.650526e-002
2.896604e+003,1.643949e-002
2.898532e+003,1.645050e-002
2.900460e+003,1.632061e-002
2.902389e+003,1.626399e-002
2.904317e+003,1.620617e-002
2.906246e+003,1.606487e-002
2.908175e+003,1.606380e-002
2.910103e+003,1.608835e-002
2.912031e+003,1.610406e-002
2.913960e+003,1.610324e-002
2.915888e+003,1.601048e-002
2.917817e+003,1.601780e-002
2.919745e+003,1.600993e-002
2.921674e+003,1.605552e-002
2.923603e+003,1.602609e-002
2.925531e+003,1.614908e-002
2.927459e+003,1.639902e-002
2.929388e+003,1.650454e-002
2.931316e+003,1.665934e-002
2.933245e+003,1.688346e-002
2.935173e+003,1.698730e-002
2.937102e+003,1.697217e-002
2.939031e+003,1.684206e-002
2.940959e+003,1.677993e-002
2.942887e+003,1.665734e-002
2.944816e+003,1.658064e-002
2.946744e+003,1.644548e-002
2.948673e+003,1.608711e-002
2.950601e+003,1.570623e-002
2.952530e+003,1.537635e-002
2.954458e+003,1.497298e-002
2.956387e+003,1.451937e-002
2.958315e+003,1.410803e-002
2.960244e+003,1.367536e-002
2.962172e+003,1.312942e-002
2.964101e+003,1.260143e-002
2.966029e+003,1.212746e-002
2.967958e+003,1.155648e-002
2.969886e+003,1.107532e-002
2.971815e+003,1.057541e-002
2.973743e+003,1.010504e-002
2.975672e+003,9.799721e-003
2.977600e+003,9.521401e-003
2.979529e+003,9.219806e-003
2.981457e+003,8.872357e-003
2.983386e+003,8.560026e-003
2.985314e+003,8.227522e-003
2.987243e+003,8.067966e-003
2.989171e+003,7.931919e-003
2.991100e+003,7.730813e-003
2.993028e+003,7.493425e-003
2.994957e+003,7.344787e-003
2.996885e+003,7.191988e-003
2.998814e+003,7.140819e-003
3.000742e+003,7.034023e-003
3.002671e+003,6.938228e-003
3.004599e+003,6.860059e-003
3.006528e+003,6.740172e-003
3.008456e+003,6.625905e-003
3.010385e+003,6.585063e-003
3.012313e+003,6.653931e-003
3.014242e+003,6.668634e-003
3.016170e+003,6.673041e-003
3.018099e+003,6.712949e-003
3.020027e+003,6.722270e-003
3.021956e+003,6.598755e-003
3.023884e+003,6.448270e-003
3.025813e+003,6.350788e-003
3.027741e+003,6.140633e-003
3.029670e+003,6.116270e-003
3.031598e+003,6.272725e-003
3.033527e+003,6.334180e-003
3.035455e+003,6.297534e-003
3.037384e+003,6.230606e-003
3.039312e+003,6.041407e-003
3.041241e+003,5.889603e-003
3.043169e+003,5.817163e-003
3.045098e+003,5.799668e-003
3.047026e+003,5.839126e-003
3.048955e+003,5.745575e-003
3.050883e+003,5.599446e-003
3.052812e+003,5.506350e-003
3.054740e+003,5.418305e-003
3.056669e+003,5.368855e-003
3.058597e+003,5.289023e-003
3.060526e+003,5.219902e-003
3.062454e+003,5.245725e-003
3.064383e+003,5.236133e-003
3.066311e+003,5.201425e-003
3.068240e+003,5.172453e-003
3.070168e+003,5.011467e-003
3.072097e+003,4.864044e-003
3.074025e+003,4.898290e-003
3.075954e+003,4.979626e-003
3.077882e+003,5.047702e-003
3.079811e+003,4.832180e-003
3.081739e+003,4.592988e-003
3.083668e+003,4.621519e-003
3.085596e+003,4.635083e-003
3.087525e+003,4.580063e-003
3.089453e+003,4.565832e-003
3.091382e+003,4.522907e-003
3.093310e+003,4.486348e-003
3.095239e+003,4.469207e-003
3.097167e+003,4.421974e-003
3.099096e+003,4.346197e-003
3.101024e+003,4.206126e-003
3.102953e+003,4.088876e-003
3.104881e+003,4.061250e-003
3.106810e+003,4.005901e-003
3.108738e+003,3.964704e-003
3.110667e+003,3.961092e-003
3.112595e+003,4.011620e-003
3.114524e+003,3.970689e-003
3.116452e+003,3.860858e-003
3.118381e+003,3.744437e-003
3.120309e+003,3.615351e-003
3.122238e+003,3.571017e-003
3.124166e+003,3.559258e-003
3.126095e+003,3.533669e-003
3.128023e+003,3.598078e-003
3.129952e+003,3.632491e-003
3.131880e+003,3.523247e-003
3.133809e+003,3.415566e-003
3.135737e+003,3.424449e-003
3.137666e+003,3.569347e-003
3.139594e+003,3.599916e-003
3.141523e+003,3.575828e-003
3.143451e+003,3.489744e-003
3.145380e+003,3.383574e-003
3.147308e+003,3.410590e-003
3.149237e+003,3.407251e-003
3.151165e+003,3.338930e-003
3.153094e+003,3.254095e-003
3.155022e+003,3.263442e-003
3.156951e+003,3.300767e-003
3.158879e+003,3.388650e-003
3.160808e+003,3.433066e-003
3.162736e+003,3.391488e-003
3.164665e+003,3.324038e-003
3.166593e+003,3.277697e-003
3.168522e+003,3.268817e-003
3.170450e+003,3.286945e-003
3.172379e+003,3.314856e-003
3.174307e+003,3.348746e-003
3.176236e+003,3.392891e-003
3.178164e+003,3.356159e-003
3.180093e+003,3.244313e-003
3.182021e+003,3.236569e-003
3.183950e+003,3.263409e-003
3.185878e+003,3.162134e-003
3.187807e+003,3.140773e-003
3.189735e+003,3.122084e-003
3.191664e+003,3.067422e-003
3.193592e+003,3.066388e-003
3.195521e+003,3.132997e-003
3.197449e+003,3.244647e-003
3.199378e+003,3.196078e-003
3.201306e+003,3.134432e-003
3.203235e+003,3.093117e-003
3.205163e+003,3.129893e-003
3.207092e+003,3.175918e-003
3.209020e+003,3.330749e-003
3.210948e+003,3.403210e-003
3.212877e+003,3.370818e-003
3.214806e+003,3.309247e-003
3.216734e+003,3.293121e-003
3.218663e+003,3.261072e-003
3.220591e+003,3.348579e-003
3.222520e+003,3.577365e-003
3.224448e+003,3.624873e-003
3.226376e+003,3.723082e-003
3.228305e+003,3.867745e-003
3.230234e+003,3.921504e-003
3.232162e+003,3.988178e-003
3.234091e+003,3.999247e-003
3.236019e+003,4.090549e-003
3.237948e+003,4.179863e-003
3.239876e+003,4.233929e-003
3.241804e+003,4.336726e-003
3.243733e+003,4.356305e-003
3.245662e+003,4.473994e-003
3.247590e+003,4.455950e-003
3.249519e+003,4.505330e-003
3.251447e+003,4.526523e-003
3.253375e+003,4.561512e-003
3.255304e+003,4.683880e-003
3.257232e+003,4.832481e-003
3.259161e+003,4.962566e-003
3.261090e+003,4.959818e-003
3.263018e+003,5.049848e-003
3.264947e+003,5.123937e-003
3.266875e+003,5.139829e-003
3.268803e+003,5.197770e-003
3.270732e+003,5.279833e-003
3.272660e+003,5.472559e-003
3.274589e+003,5.539975e-003
3.276518e+003,5.533028e-003
3.278446e+003,5.545277e-003
3.280375e+003,5.488196e-003
3.282303e+003,5.616060e-003
3.284231e+003,5.656139e-003
3.286160e+003,5.518632e-003
3.288088e+003,5.388648e-003
3.290017e+003,5.321491e-003
3.291946e+003,5.221646e-003
3.293874e+003,5.060676e-003
3.295802e+003,5.029970e-003
3.297731e+003,5.062519e-003
3.299659e+003,5.033724e-003
3.301588e+003,4.958176e-003
3.303516e+003,4.793216e-003
3.305445e+003,4.693191e-003
3.307374e+003,4.582942e-003
3.309302e+003,4.366579e-003
3.311230e+003,4.263507e-003
3.313159e+003,4.132260e-003
3.315087e+003,3.949757e-003
3.317016e+003,3.814527e-003
3.318944e+003,3.591463e-003
3.320873e+003,3.607166e-003
3.322802e+003,3.591563e-003
3.324730e+003,3.318429e-003
3.326658e+003,3.091749e-003
3.328587e+003,3.118847e-003
3.330515e+003,3.173048e-003
3.332444e+003,3.080970e-003
3.334372e+003,2.903712e-003
3.336301e+003,2.737963e-003
3.338229e+003,2.708255e-003
3.340158e+003,2.775543e-003
3.342086e+003,2.750000e-003
3.344015e+003,2.640010e-003
3.345943e+003,2.604976e-003
3.347872e+003,2.505353e-003
3.349800e+003,2.465165e-003
3.351729e+003,2.468030e-003
3.353657e+003,2.246556e-003
3.355586e+003,2.118914e-003
3.357514e+003,1.877351e-003
3.359443e+003,1.758899e-003
3.361371e+003,1.851229e-003
3.363300e+003,1.850497e-003
3.365229e+003,1.559833e-003
3.367157e+003,1.341779e-003
3.369085e+003,1.175529e-003
3.371014e+003,1.127489e-003
3.372942e+003,1.234372e-003
3.374871e+003,1.048499e-003
3.376799e+003,8.780112e-004
3.378728e+003,6.903660e-004
3.380656e+003,5.496106e-004
3.382585e+003,4.149038e-004
3.384513e+003,3.126991e-004
3.386442e+003,2.675072e-004
3.388370e+003,3.401547e-004
3.390299e+003,2.911470e-004
3.392227e+003,1.941094e-004
3.394156e+003,1.773364e-004
3.396084e+003,1.584427e-004
3.398013e+003,1.374617e-004
3.399941e+003,7.107833e-005
3.401870e+003,1.527506e-005
3.403798e+003,-7.924939e-005
3.405727e+003,-2.820116e-004
3.407655e+003,-2.419767e-004
3.409584e+003,-1.418237e-004
3.411512e+003,-2.153841e-004
3.413441e+003,-3.807751e-004
3.415369e+003,-4.815681e-004
3.417298e+003,-4.478075e-004
3.419226e+003,-4.638938e-004
3.421155e+003,-4.628015e-004
3.423083e+003,-3.851118e-004
3.425012e+003,-3.611765e-004
3.426940e+003,-4.715064e-004
3.428869e+003,-5.820399e-004
3.430797e+003,-5.552034e-004
3.432726e+003,-6.055661e-004
3.434654e+003,-8.328864e-004
3.436583e+003,-9.820751e-004
3.438511e+003,-8.563328e-004
3.440440e+003,-8.540180e-004
3.442368e+003,-9.011386e-004
3.444297e+003,-8.710151e-004
3.446225e+003,-9.151912e-004
3.448154e+003,-9.558584e-004
3.450082e+003,-8.936328e-004
3.452011e+003,-1.000423e-003
3.453939e+003,-1.175858e-003
3.455868e+003,-1.312607e-003
3.457796e+003,-1.210190e-003
3.459725e+003,-1.055295e-003
3.461653e+003,-9.873976e-004
3.463582e+003,-1.145687e-003
3.465510e+003,-1.292952e-003
3.467439e+003,-1.188778e-003
3.469367e+003,-1.202656e-003
3.471296e+003,-1.312673e-003
3.473224e+003,-1.375929e-003
3.475153e+003,-1.416388e-003
3.477081e+003,-1.466915e-003
3.479010e+003,-1.463184e-003
3.480938e+003,-1.472067e-003
3.482867e+003,-1.506441e-003
3.484795e+003,-1.231832e-003
3.486724e+003,-9.756286e-004
3.488652e+003,-1.062864e-003
3.490581e+003,-1.320337e-003
3.492509e+003,-1.490889e-003
3.494438e+003,-1.346928e-003
3.496366e+003,-1.112970e-003
3.498295e+003,-1.211842e-003
3.500223e+003,-1.537445e-003
3.502152e+003,-1.642558e-003
3.504080e+003,-1.666753e-003
3.506009e+003,-1.572838e-003
3.507937e+003,-1.471901e-003
3.509866e+003,-1.447927e-003
3.511794e+003,-1.450040e-003
3.513723e+003,-1.575776e-003
3.515651e+003,-1.767677e-003
3.517580e+003,-1.648863e-003
3.519508e+003,-1.691046e-003
3.521437e+003,-1.748504e-003
3.523365e+003,-1.757348e-003
3.525294e+003,-1.825092e-003
3.527222e+003,-1.820968e-003
3.529151e+003,-1.738076e-003
3.531079e+003,-1.661901e-003
3.533008e+003,-1.677183e-003
3.534936e+003,-1.652626e-003
3.536865e+003,-1.711112e-003
3.538793e+003,-1.775861e-003
3.540722e+003,-1.597697e-003
3.542650e+003,-1.570032e-003
3.544579e+003,-1.678767e-003
3.546507e+003,-1.750748e-003
3.548436e+003,-1.890154e-003
3.550364e+003,-1.990300e-003
3.552293e+003,-1.939900e-003
3.554221e+003,-1.910409e-003
3.556150e+003,-1.871646e-003
3.558078e+003,-1.839016e-003
3.560007e+003,-1.910772e-003
3.561935e+003,-1.882137e-003
3.563864e+003,-1.993698e-003
3.565792e+003,-2.104240e-003
3.567721e+003,-1.998150e-003
3.569649e+003,-2.031625e-003
3.571578e+003,-2.140411e-003
3.573506e+003,-2.059195e-003
3.575435e+003,-1.834034e-003
3.577363e+003,-1.849244e-003
3.579292e+003,-1.880125e-003
3.581220e+003,-2.035550e-003
3.583149e+003,-2.181623e-003
3.585077e+003,-2.107010e-003
3.587006e+003,-2.184920e-003
3.588934e+003,-2.222963e-003
3.590863e+003,-2.250587e-003
3.592791e+003,-2.349826e-003
3.594720e+003,-2.240236e-003
3.596648e+003,-2.001547e-003
3.598577e+003,-1.917238e-003
3.600505e+003,-1.981296e-003
3.602434e+003,-2.112022e-003
3.604362e+003,-2.035451e-003
3.606291e+003,-2.339873e-003
3.608219e+003,-2.564905e-003
3.610148e+003,-2.453722e-003
3.612076e+003,-2.455830e-003
3.614005e+003,-2.356153e-003
3.615933e+003,-2.510618e-003
3.617862e+003,-2.699374e-003
3.619790e+003,-2.508444e-003
3.621719e+003,-2.439884e-003
3.623647e+003,-2.490423e-003
3.625576e+003,-2.538915e-003
3.627504e+003,-2.686400e-003
3.629433e+003,-2.326328e-003
3.631361e+003,-2.200843e-003
3.633290e+003,-2.319638e-003
3.635218e+003,-2.270561e-003
3.637146e+003,-2.324944e-003
3.639075e+003,-2.362019e-003
3.641004e+003,-2.408581e-003
3.642932e+003,-2.613948e-003
3.644861e+003,-2.961802e-003
3.646789e+003,-3.114176e-003
3.648718e+003,-3.187662e-003
3.650646e+003,-3.001653e-003
3.652574e+003,-2.671284e-003
3.654503e+003,-2.672964e-003
3.656432e+003,-2.723279e-003
3.658360e+003,-2.838047e-003
3.660289e+003,-2.790083e-003
3.662217e+003,-2.842952e-003
3.664146e+003,-2.948902e-003
3.666074e+003,-2.988786e-003
3.668002e+003,-3.181545e-003
3.669931e+003,-3.345942e-003
3.671860e+003,-3.360737e-003
3.673788e+003,-3.640313e-003
3.675717e+003,-3.261005e-003
3.677645e+003,-2.765522e-003
3.679573e+003,-3.008069e-003
3.681502e+003,-2.886862e-003
3.683430e+003,-2.747579e-003
3.685359e+003,-2.862900e-003
3.687288e+003,-3.101544e-003
3.689216e+003,-3.105590e-003
3.691145e+003,-3.086311e-003
3.693073e+003,-2.843149e-003
3.695001e+003,-2.773391e-003
3.696930e+003,-2.816452e-003
3.698858e+003,-2.913555e-003
3.700787e+003,-2.871030e-003
3.702716e+003,-2.731840e-003
3.704644e+003,-2.694796e-003
3.706573e+003,-2.790478e-003
3.708501e+003,-3.074796e-003
3.710429e+003,-3.061965e-003
3.712358e+003,-2.684226e-003
3.714286e+003,-2.609469e-003
3.716215e+003,-2.747118e-003
3.718144e+003,-2.513945e-003
3.720072e+003,-2.393490e-003
3.722000e+003,-2.529560e-003
3.723929e+003,-2.597579e-003
3.725857e+003,-2.452536e-003
3.727786e+003,-2.147467e-003
3.729714e+003,-2.411152e-003
3.731643e+003,-2.857699e-003
3.733572e+003,-3.039262e-003
3.735500e+003,-3.015276e-003
3.737428e+003,-2.775366e-003
3.739357e+003,-2.616418e-003
3.741285e+003,-2.625541e-003
3.743214e+003,-2.866751e-003
3.745142e+003,-2.519513e-003
3.747071e+003,-2.476949e-003
3.749000e+003,-2.602322e-003
3.750928e+003,-2.374377e-003
3.752856e+003,-2.015597e-003
3.754785e+003,-1.883985e-003
3.756713e+003,-1.820605e-003
3.758642e+003,-1.877420e-003
3.760570e+003,-1.922186e-003
3.762499e+003,-1.949862e-003
3.764427e+003,-1.993137e-003
3.766356e+003,-2.034528e-003
3.768284e+003,-2.026909e-003
3.770213e+003,-1.872702e-003
3.772141e+003,-1.783814e-003
3.774070e+003,-1.736459e-003
3.775998e+003,-1.766423e-003
3.777927e+003,-1.879036e-003
3.779855e+003,-1.901700e-003
3.781784e+003,-1.641436e-003
3.783712e+003,-1.572970e-003
3.785641e+003,-1.577063e-003
3.787569e+003,-1.694412e-003
3.789498e+003,-1.832021e-003
3.791426e+003,-1.831361e-003
3.793355e+003,-1.953886e-003
3.795283e+003,-1.999997e-003
3.797212e+003,-1.856437e-003
3.799140e+003,-2.208128e-003
3.801069e+003,-2.262387e-003
3.802997e+003,-1.839280e-003
3.804926e+003,-2.226029e-003
3.806854e+003,-2.316606e-003
3.808783e+003,-2.006528e-003
3.810711e+003,-1.803051e-003
3.812640e+003,-1.675929e-003
3.814568e+003,-2.165534e-003
3.816497e+003,-2.095700e-003
3.818425e+003,-1.906088e-003
3.820354e+003,-1.810937e-003
3.822282e+003,-1.531238e-003
3.824211e+003,-1.621531e-003
3.826139e+003,-1.768601e-003
3.828068e+003,-1.692531e-003
3.829996e+003,-1.717713e-003
3.831925e+003,-1.697284e-003
3.833853e+003,-1.733158e-003
3.835782e+003,-1.927695e-003
3.837710e+003,-1.979911e-003
3.839639e+003,-1.991653e-003
3.841567e+003,-1.882830e-003
3.843496e+003,-1.768403e-003
3.845424e+003,-1.811894e-003
3.847353e+003,-1.946959e-003
3.849281e+003,-1.954744e-003
3.851210e+003,-2.256619e-003
3.853138e+003,-2.432141e-003
3.855067e+003,-2.046268e-003
3.856995e+003,-1.850993e-003
3.858924e+003,-1.830867e-003
3.860852e+003,-1.853863e-003
3.862781e+003,-1.772198e-003
3.864709e+003,-1.510469e-003
3.866638e+003,-1.643251e-003
3.868566e+003,-1.938251e-003
3.870495e+003,-1.731673e-003
3.872423e+003,-1.654012e-003
3.874352e+003,-1.445186e-003
3.876280e+003,-1.532591e-003
3.878209e+003,-1.914599e-003
3.880137e+003,-1.944683e-003
3.882066e+003,-1.853863e-003
3.883994e+003,-2.050028e-003
3.885923e+003,-1.801170e-003
3.887851e+003,-1.693686e-003
3.889780e+003,-1.741574e-003
3.891708e+003,-1.911003e-003
3.893637e+003,-2.126497e-003
3.895565e+003,-2.155446e-003
3.897494e+003,-2.152874e-003
3.899422e+003,-1.849244e-003
3.901351e+003,-1.757909e-003
3.903279e+003,-1.855249e-003
3.905208e+003,-1.655729e-003
3.907136e+003,-1.585713e-003
3.909065e+003,-1.644374e-003
3.910993e+003,-1.717614e-003
3.912922e+003,-1.791997e-003
3.914850e+003,-1.786288e-003
3.916779e+003,-1.730287e-003
3.918707e+003,-1.767215e-003
3.920636e+003,-1.804635e-003
3.922564e+003,-2.037628e-003
3.924493e+003,-1.918722e-003
3.926421e+003,-1.499837e-003
3.928350e+003,-1.439869e-003
3.930278e+003,-1.520045e-003
3.932207e+003,-1.415529e-003
3.934135e+003,-1.216732e-003
3.936064e+003,-1.193041e-003
3.937992e+003,-1.326250e-003
3.939921e+003,-1.509380e-003
3.941849e+003,-1.632391e-003
3.943778e+003,-1.556793e-003
3.945706e+003,-1.582412e-003
3.947635e+003,-1.632292e-003
3.949563e+003,-1.340685e-003
3.951492e+003,-1.181211e-003
3.953420e+003,-1.292720e-003
3.955349e+003,-1.364270e-003
3.957277e+003,-1.409056e-003
3.959206e+003,-1.634834e-003
3.961134e+003,-1.787410e-003
3.963063e+003,-1.706360e-003
3.964991e+003,-1.792063e-003
3.966920e+003,-1.750979e-003
3.968848e+003,-1.432703e-003
3.970777e+003,-1.381412e-003
3.972705e+003,-1.529950e-003
3.974634e+003,-1.508389e-003
3.976562e+003,-1.338770e-003
3.978491e+003,-1.345640e-003
3.980419e+003,-1.488016e-003
3.982348e+003,-1.624832e-003
3.984276e+003,-1.444195e-003
3.986205e+003,-1.348283e-003
3.988133e+003,-1.250202e-003
3.990062e+003,-1.215675e-003
3.991990e+003,-1.235169e-003
3.993919e+003,-1.366384e-003
3.995847e+003,-1.464471e-003
3.997776e+003,-1.539591e-003
3.999704e+003,-1.512583e-003
4.001633e+003,0.000000e+000
