3.991989e+002,-8.535556e-003
4.011274e+002,-3.745707e-003
4.030559e+002,-1.342973e-002
4.049844e+002,-2.979856e-002
4.069129e+002,-2.604263e-002
4.088414e+002,-1.128400e-002
4.107699e+002,-7.154293e-003
4.126984e+002,-1.515616e-002
4.146269e+002,-1.210396e-002
4.165554e+002,-3.718309e-003
4.184839e+002,-7.857660e-003
4.204124e+002,-8.904541e-003
4.223409e+002,-2.980000e-003
4.242694e+002,-3.196938e-003
4.261979e+002,-1.471088e-002
4.281264e+002,-9.696563e-003
4.300549e+002,2.235299e-003
4.319834e+002,7.674324e-004
4.339119e+002,4.811329e-005
4.358404e+002,-4.020307e-003
4.377689e+002,-9.753641e-004
4.396974e+002,-2.641843e-003
4.416259e+002,-1.329584e-002
4.435544e+002,-7.063871e-003
4.454829e+002,-3.358173e-003
4.474114e+002,-3.581067e-003
4.493399e+002,-4.196365e-003
4.512684e+002,-4.687203e-003
4.531969e+002,-4.622068e-003
4.551254e+002,-3.539363e-003
4.570539e+002,-1.401625e-003
4.589824e+002,-2.340697e-003
4.609109e+002,-6.024956e-003
4.628394e+002,-5.308728e-003
4.647679e+002,-4.824293e-003
4.666964e+002,-6.421089e-003
4.686249e+002,-6.334824e-003
4.705533e+002,-3.506694e-003
4.724819e+002,-5.119007e-003
4.744103e+002,-6.365911e-003
4.763389e+002,-4.730436e-003
4.782673e+002,-3.444307e-003
4.801959e+002,-3.360935e-003
4.821243e+002,-3.911828e-003
4.840529e+002,-4.814856e-003
4.859813e+002,-5.751294e-003
4.879099e+002,-4.955608e-003
4.898383e+002,-3.969781e-003
4.917668e+002,-4.616003e-003
4.936953e+002,-6.706532e-003
4.956238e+002,-5.827572e-003
4.975523e+002,-4.448577e-003
4.994808e+002,-5.423272e-003
5.014093e+002,-3.592864e-003
5.033378e+002,-1.640644e-003
5.052663e+002,-6.195620e-004
5.071948e+002,-7.695847e-004
5.091233e+002,-3.023239e-003
5.110518e+002,-4.245192e-003
5.129803e+002,-4.212477e-003
5.149088e+002,-4.327279e-003
5.168373e+002,-4.250638e-003
5.187658e+002,-3.675469e-003
5.206943e+002,-4.648949e-003
5.226228e+002,-4.278067e-003
5.245513e+002,-3.169078e-003
5.264798e+002,-3.491246e-003
5.284083e+002,-3.893077e-003
5.303368e+002,-3.274916e-003
5.322653e+002,-4.000610e-003
5.341938e+002,-2.731017e-003
5.361223e+002,-2.688375e-003
5.380508e+002,-4.004976e-003
5.399792e+002,-4.477469e-003
5.419078e+002,-3.775566e-003
5.438363e+002,-2.989872e-003
5.457648e+002,-2.303588e-003
5.476932e+002,-3.000764e-003
5.496218e+002,-4.286040e-003
5.515503e+002,-4.093411e-003
5.534788e+002,-3.866576e-003
5.554072e+002,-4.689203e-003
5.573358e+002,-4.573939e-003
5.592643e+002,-4.010065e-003
5.611927e+002,-3.173749e-003
5.631212e+002,-3.182959e-003
5.650497e+002,-4.068169e-003
5.669783e+002,-4.772976e-003
5.689067e+002,-3.649151e-003
5.708352e+002,-3.526743e-003
5.727637e+002,-2.916188e-003
5.746923e+002,-4.256872e-003
5.766207e+002,-6.586614e-003
5.785492e+002,-3.987084e-003
5.804777e+002,6.301098e-003
5.824063e+002,4.325381e-003
5.843347e+002,-3.584287e-003
5.862632e+002,-4.459957e-003
5.881917e+002,-3.274521e-003
5.901202e+002,-1.963914e-003
5.920487e+002,-2.061834e-003
5.939772e+002,-1.791601e-003
5.959057e+002,-1.794109e-003
5.978342e+002,-2.944064e-003
5.997627e+002,-3.749649e-003
6.016912e+002,-4.296670e-003
6.036197e+002,-4.170473e-003
6.055482e+002,-4.093312e-003
6.074767e+002,-3.356923e-003
6.094052e+002,-3.268602e-003
6.113337e+002,-4.282726e-003
6.132622e+002,-5.184985e-003
6.151907e+002,-4.876752e-003
6.171192e+002,-4.826915e-003
6.190477e+002,-4.954363e-003
6.209762e+002,-4.447495e-003
6.229047e+002,-3.564077e-003
6.248332e+002,-3.695904e-003
6.267617e+002,-3.172368e-003
6.286902e+002,-2.350386e-003
6.306187e+002,-2.226029e-003
6.325472e+002,-2.467922e-003
6.344756e+002,-2.259355e-003
6.364042e+002,-2.022061e-003
6.383326e+002,-2.615397e-003
6.402612e+002,-3.169440e-003
6.421896e+002,-2.441103e-003
6.441182e+002,-1.962594e-003
6.460466e+002,-2.325471e-003
6.479752e+002,-2.237764e-003
6.499036e+002,-1.892430e-003
6.518322e+002,-1.811894e-003
6.537606e+002,-1.586274e-003
6.556891e+002,-1.674939e-003
6.576177e+002,-2.220029e-003
6.595461e+002,-2.581736e-003
6.614746e+002,-2.377178e-003
6.634031e+002,-2.282427e-003
6.653317e+002,-1.924660e-003
6.672601e+002,-2.307971e-003
6.691886e+002,-2.530482e-003
6.711171e+002,-1.716657e-003
6.730457e+002,-1.683421e-003
6.749741e+002,-2.451251e-003
6.769026e+002,-2.251510e-003
6.788311e+002,-1.951445e-003
6.807596e+002,-1.994588e-003
6.826881e+002,-2.228171e-003
6.846166e+002,-2.383999e-003
6.865451e+002,-2.232556e-003
6.884736e+002,-1.801533e-003
6.904021e+002,-1.582511e-003
6.923306e+002,-1.500861e-003
6.942591e+002,-1.927497e-003
6.961876e+002,-2.628110e-003
6.981161e+002,-2.919611e-003
7.000446e+002,-2.534073e-003
7.019731e+002,-2.298940e-003
7.039016e+002,-1.854589e-003
7.058301e+002,-2.239873e-003
7.077585e+002,-2.637167e-003
7.096871e+002,-2.127519e-003
7.116156e+002,-1.063228e-003
7.135441e+002,-1.522686e-003
7.154725e+002,-2.621457e-003
7.174011e+002,-2.967034e-003
7.193296e+002,-2.777737e-003
7.212581e+002,-2.468613e-003
7.231865e+002,-2.476389e-003
7.251151e+002,-2.415666e-003
7.270436e+002,-2.370983e-003
7.289720e+002,-2.293996e-003
7.309005e+002,-2.149577e-003
7.328290e+002,-2.267826e-003
7.347576e+002,-2.105691e-003
7.366860e+002,-2.005967e-003
7.386145e+002,-1.965662e-003
7.405430e+002,-2.337105e-003
7.424716e+002,-2.695290e-003
7.444000e+002,-2.730325e-003
7.463285e+002,-2.347816e-003
7.482570e+002,-2.260179e-003
7.501855e+002,-2.118089e-003
7.521140e+002,-1.910640e-003
7.540425e+002,-1.836871e-003
7.559710e+002,-2.080894e-003
7.578995e+002,-2.376124e-003
7.598280e+002,-2.389568e-003
7.617565e+002,-2.314760e-003
7.636850e+002,-2.381166e-003
7.656135e+002,-2.233808e-003
7.675420e+002,-2.151753e-003
7.694705e+002,-2.100217e-003
7.713990e+002,-2.240698e-003
7.733275e+002,-2.021797e-003
7.752560e+002,-2.195436e-003
7.771844e+002,-2.408581e-003
7.791130e+002,-2.504589e-003
7.810415e+002,-2.511310e-003
7.829700e+002,-2.396159e-003
7.848984e+002,-1.765103e-003
7.868270e+002,-1.630642e-003
7.887555e+002,-1.656950e-003
7.906840e+002,-1.734478e-003
7.926124e+002,-1.743125e-003
7.945410e+002,-1.965926e-003
7.964695e+002,-1.706195e-003
7.983979e+002,-1.417874e-003
8.003264e+002,-1.659425e-003
8.022549e+002,-1.804173e-003
8.041835e+002,-1.885733e-003
8.061119e+002,-2.088017e-003
8.080404e+002,-1.604926e-003
8.099689e+002,-1.733851e-003
8.118975e+002,-2.335721e-003
8.138259e+002,-2.237302e-003
8.157545e+002,-1.646750e-003
8.176830e+002,-1.817074e-003
8.196115e+002,-1.990828e-003
8.215399e+002,-1.900282e-003
8.234684e+002,-1.466618e-003
8.253970e+002,-1.479133e-003
8.273254e+002,-1.484351e-003
8.292539e+002,-1.505153e-003
8.311824e+002,-1.905098e-003
8.331110e+002,-2.019126e-003
8.350394e+002,-1.645826e-003
8.369679e+002,-1.397133e-003
8.388964e+002,-1.705271e-003
8.408250e+002,-2.008144e-003
8.427534e+002,-1.875407e-003
8.446819e+002,-1.768964e-003
8.466104e+002,-1.855315e-003
8.485389e+002,-1.889560e-003
8.504674e+002,-1.900513e-003
8.523959e+002,-1.840468e-003
8.543244e+002,-2.082246e-003
8.562529e+002,-2.169161e-003
8.581814e+002,-2.099129e-003
8.601099e+002,-1.886921e-003
8.620384e+002,-1.586340e-003
8.639669e+002,-2.021633e-003
8.658954e+002,-1.768964e-003
8.678239e+002,-1.060551e-003
8.697524e+002,-1.153751e-003
8.716809e+002,-1.793185e-003
8.736094e+002,-2.005109e-003
8.755378e+002,-1.991554e-003
8.774664e+002,-1.529125e-003
8.793949e+002,-1.401724e-003
8.813234e+002,-1.601724e-003
8.832518e+002,-1.599347e-003
8.851804e+002,-1.559863e-003
8.871089e+002,-1.877584e-003
8.890374e+002,-1.562834e-003
8.909658e+002,-1.716426e-003
8.928943e+002,-1.560754e-003
8.948229e+002,-1.262525e-003
8.967513e+002,-1.409684e-003
8.986798e+002,-1.741310e-003
9.006083e+002,-1.754774e-003
9.025369e+002,-1.711508e-003
9.044653e+002,-1.613179e-003
9.063938e+002,-1.421771e-003
9.083223e+002,-1.210388e-003
9.102509e+002,-1.342073e-003
9.121793e+002,-1.817074e-003
9.141078e+002,-1.958372e-003
9.160364e+002,-1.671242e-003
9.179648e+002,-1.489733e-003
9.198933e+002,-1.277359e-003
9.218218e+002,-1.455753e-003
9.237504e+002,-1.875110e-003
9.256788e+002,-2.258893e-003
9.276073e+002,-2.270463e-003
9.295358e+002,-1.642888e-003
9.314644e+002,-1.280960e-003
9.333928e+002,-1.402880e-003
9.353213e+002,-1.493365e-003
9.372498e+002,-1.543685e-003
9.391783e+002,-1.562207e-003
9.411068e+002,-1.673916e-003
9.430353e+002,-1.536058e-003
9.449637e+002,-1.651075e-003
9.468923e+002,-1.842678e-003
9.488208e+002,-1.708769e-003
9.507493e+002,-1.482699e-003
9.526777e+002,-1.437392e-003
9.546063e+002,-1.415826e-003
9.565348e+002,-1.284098e-003
9.584633e+002,-1.133295e-003
9.603917e+002,-1.154114e-003
9.623203e+002,-1.409981e-003
9.642488e+002,-1.532063e-003
9.661772e+002,-1.305935e-003
9.681057e+002,-1.017480e-003
9.700343e+002,-1.214023e-003
9.719628e+002,-1.452880e-003
9.738912e+002,-1.524865e-003
9.758197e+002,-1.596244e-003
9.777483e+002,-1.449116e-003
9.796768e+002,-1.206886e-003
9.816052e+002,-1.116473e-003
9.835337e+002,-1.184681e-003
9.854623e+002,-1.146183e-003
9.873907e+002,-1.152429e-003
9.893192e+002,-1.245411e-003
9.912477e+002,-1.200542e-003
9.931763e+002,-1.266192e-003
9.951047e+002,-1.319412e-003
9.970332e+002,-1.134914e-003
9.989617e+002,-1.230378e-003
1.000890e+003,-1.153652e-003
1.002819e+003,-1.002968e-003
1.004747e+003,-1.237515e-003
1.006676e+003,-1.486464e-003
1.008604e+003,-1.547845e-003
1.010533e+003,-1.561778e-003
1.012461e+003,-1.346565e-003
1.014390e+003,-1.301210e-003
1.016318e+003,-1.185044e-003
1.018247e+003,-9.634955e-004
1.020175e+003,-1.127148e-003
1.022104e+003,-1.333517e-003
1.024032e+003,-1.105269e-003
1.025961e+003,-1.133559e-003
1.027889e+003,-1.214849e-003
1.029818e+003,-1.312707e-003
1.031746e+003,-1.437920e-003
1.033675e+003,-1.447597e-003
1.035603e+003,-1.163664e-003
1.037532e+003,-9.848851e-004
1.039460e+003,-1.121397e-003
1.041389e+003,-1.279572e-003
1.043317e+003,-1.261501e-003
1.045246e+003,-1.294009e-003
1.047174e+003,-1.127577e-003
1.049103e+003,-1.240092e-003
1.051031e+003,-1.265829e-003
1.052960e+003,-1.003431e-003
1.054888e+003,-9.190597e-004
1.056817e+003,-1.205993e-003
1.058745e+003,-1.143110e-003
1.060674e+003,-1.054403e-003
1.062602e+003,-1.106624e-003
1.064531e+003,-1.034405e-003
1.066459e+003,-9.002459e-004
1.068388e+003,-1.032917e-003
1.070316e+003,-1.260510e-003
1.072245e+003,-1.272800e-003
1.074173e+003,-1.063492e-003
1.076102e+003,-1.176585e-003
1.078030e+003,-1.386366e-003
1.079959e+003,-1.417676e-003
1.081887e+003,-1.228462e-003
1.083816e+003,-1.223142e-003
1.085744e+003,-1.078300e-003
1.087673e+003,-9.436917e-004
1.089601e+003,-1.049445e-003
1.091530e+003,-1.235730e-003
1.093458e+003,-1.126652e-003
1.095387e+003,-1.157254e-003
1.097315e+003,-1.149058e-003
1.099244e+003,-1.328199e-003
1.101172e+003,-1.168687e-003
1.103101e+003,-8.559360e-004
1.105029e+003,-9.866373e-004
1.106958e+003,-1.187060e-003
1.108886e+003,-1.081109e-003
1.110815e+003,-9.646195e-004
1.112743e+003,-9.616771e-004
1.114672e+003,-1.161153e-003
1.116600e+003,-1.144531e-003
1.118529e+003,-1.081109e-003
1.120457e+003,-1.098924e-003
1.122386e+003,-1.019794e-003
1.124314e+003,-9.468656e-004
1.126243e+003,-1.155932e-003
1.128171e+003,-1.242801e-003
1.130100e+003,-1.080746e-003
1.132028e+003,-1.185408e-003
1.133957e+003,-1.294868e-003
1.135885e+003,-1.163169e-003
1.137814e+003,-1.133526e-003
1.139742e+003,-1.061311e-003
1.141671e+003,-9.120831e-004
1.143599e+003,-8.800755e-004
1.145528e+003,-8.576225e-004
1.147456e+003,-9.445513e-004
1.149385e+003,-1.040156e-003
1.151313e+003,-1.069442e-003
1.153242e+003,-1.120439e-003
1.155170e+003,-1.013910e-003
1.157099e+003,-9.786369e-004
1.159027e+003,-1.097899e-003
1.160956e+003,-1.012522e-003
1.162884e+003,-8.611939e-004
1.164813e+003,-9.142654e-004
1.166741e+003,-9.068259e-004
1.168670e+003,-1.021711e-003
1.170598e+003,-1.057972e-003
1.172526e+003,-1.099552e-003
1.174455e+003,-1.021149e-003
1.176384e+003,-1.006108e-003
1.178312e+003,-9.021637e-004
1.180240e+003,-7.745460e-004
1.182169e+003,-7.260223e-004
1.184098e+003,-6.923469e-004
1.186026e+003,-5.793597e-004
1.187954e+003,-6.334251e-004
1.189883e+003,-1.020885e-003
1.191812e+003,-1.138318e-003
1.193740e+003,-7.265185e-004
1.195668e+003,-5.851834e-004
1.197597e+003,-7.240376e-004
1.199526e+003,-7.550975e-004
1.201454e+003,-8.448247e-004
1.203382e+003,-8.842419e-004
1.205311e+003,-8.066276e-004
1.207240e+003,-9.051065e-004
1.209168e+003,-8.576886e-004
1.211096e+003,-7.719662e-004
1.213025e+003,-7.092180e-004
1.214953e+003,-6.892041e-004
1.216882e+003,-7.964411e-004
1.218810e+003,-9.881910e-004
1.220739e+003,-1.003100e-003
1.222667e+003,-9.660411e-004
1.224596e+003,-9.604869e-004
1.226524e+003,-1.039892e-003
1.228453e+003,-1.002505e-003
1.230381e+003,-8.022950e-004
1.232310e+003,-6.437809e-004
1.234238e+003,-6.881125e-004
1.236167e+003,-6.465269e-004
1.238095e+003,-7.762329e-004
1.240024e+003,-8.538527e-004
1.241952e+003,-7.630027e-004
1.243881e+003,-7.308187e-004
1.245809e+003,-7.270477e-004
1.247738e+003,-7.866182e-004
1.249666e+003,-9.169105e-004
1.251595e+003,-8.959805e-004
1.253523e+003,-7.416682e-004
1.255452e+003,-6.251205e-004
1.257380e+003,-6.752435e-004
1.259309e+003,-7.522529e-004
1.261237e+003,-7.576444e-004
1.263166e+003,-7.282716e-004
1.265094e+003,-8.532904e-004
1.267023e+003,-9.737111e-004
1.268951e+003,-9.322520e-004
1.270880e+003,-8.480655e-004
1.272808e+003,-8.183020e-004
1.274737e+003,-7.609520e-004
1.276665e+003,-7.199027e-004
1.278594e+003,-7.015103e-004
1.280522e+003,-7.459021e-004
1.282451e+003,-7.616135e-004
1.284379e+003,-8.540841e-004
1.286308e+003,-7.139153e-004
1.288236e+003,-6.681307e-004
1.290165e+003,-6.833156e-004
1.292093e+003,-6.985661e-004
1.294022e+003,-9.602886e-004
1.295950e+003,-9.604539e-004
1.297879e+003,-8.596397e-004
1.299807e+003,-7.104088e-004
1.301736e+003,-7.313810e-004
1.303664e+003,-8.346391e-004
1.305593e+003,-5.978234e-004
1.307521e+003,-5.937866e-004
1.309450e+003,-7.988224e-004
1.311378e+003,-8.244202e-004
1.313307e+003,-7.339611e-004
1.315235e+003,-5.703591e-004
1.317164e+003,-5.412385e-004
1.319092e+003,-7.114013e-004
1.321021e+003,-8.976337e-004
1.322949e+003,-8.711143e-004
1.324878e+003,-8.670469e-004
1.326806e+003,-8.074213e-004
1.328735e+003,-6.920160e-004
1.330663e+003,-7.153047e-004
1.332592e+003,-6.980037e-004
1.334520e+003,-7.133860e-004
1.336449e+003,-8.082812e-004
1.338377e+003,-7.638957e-004
1.340306e+003,-6.944310e-004
1.342234e+003,-6.763022e-004
1.344163e+003,-6.811983e-004
1.346091e+003,-7.008818e-004
1.348020e+003,-6.691563e-004
1.349948e+003,-5.984852e-004
1.351877e+003,-6.493391e-004
1.353805e+003,-7.338619e-004
1.355734e+003,-7.526167e-004
1.357662e+003,-8.954183e-004
1.359591e+003,-8.582508e-004
1.361519e+003,-7.644580e-004
1.363448e+003,-7.935637e-004
1.365376e+003,-8.419807e-004
1.367305e+003,-7.547006e-004
1.369233e+003,-7.036936e-004
1.371162e+003,-7.606543e-004
1.373090e+003,-9.381703e-004
1.375019e+003,-9.802899e-004
1.376947e+003,-8.521992e-004
1.378876e+003,-6.999224e-004
1.380804e+003,-6.357742e-004
1.382733e+003,-5.890880e-004
1.384661e+003,-6.478172e-004
1.386590e+003,-7.515583e-004
1.388518e+003,-7.397498e-004
1.390447e+003,-7.353504e-004
1.392375e+003,-8.262061e-004
1.394304e+003,-8.264376e-004
1.396232e+003,-8.153256e-004
1.398161e+003,-8.354659e-004
1.400089e+003,-8.256439e-004
1.402018e+003,-8.006414e-004
1.403946e+003,-7.804995e-004
1.405875e+003,-7.736530e-004
1.407803e+003,-7.313810e-004
1.409732e+003,-7.058438e-004
1.411660e+003,-7.619443e-004
1.413589e+003,-8.435350e-004
1.415517e+003,-8.080166e-004
1.417446e+003,-8.219399e-004
1.419374e+003,-8.782569e-004
1.421303e+003,-8.147964e-004
1.423231e+003,-8.873832e-004
1.425160e+003,-7.373351e-004
1.427088e+003,-5.619872e-004
1.429017e+003,-6.635652e-004
1.430945e+003,-8.008399e-004
1.432874e+003,-7.988886e-004
1.434802e+003,-8.186328e-004
1.436731e+003,-8.857961e-004
1.438659e+003,-7.332334e-004
1.440588e+003,-6.760706e-004
1.442516e+003,-7.653511e-004
1.444445e+003,-8.009060e-004
1.446373e+003,-7.151723e-004
1.448302e+003,-7.469937e-004
1.450230e+003,-8.540841e-004
1.452159e+003,-8.080828e-004
1.454087e+003,-7.459683e-004
1.456016e+003,-1.058237e-003
1.457944e+003,-1.120538e-003
1.459873e+003,-8.595405e-004
1.461801e+003,-8.146311e-004
1.463730e+003,-9.128106e-004
1.465658e+003,-8.353005e-004
1.467587e+003,-8.050732e-004
1.469515e+003,-8.148957e-004
1.471444e+003,-8.363588e-004
1.473372e+003,-7.680302e-004
1.475301e+003,-6.888402e-004
1.477229e+003,-6.467585e-004
1.479158e+003,-7.028996e-004
1.481086e+003,-7.512275e-004
1.483015e+003,-6.814961e-004
1.484943e+003,-7.282716e-004
1.486872e+003,-7.841708e-004
1.488800e+003,-7.549982e-004
1.490729e+003,-7.097473e-004
1.492657e+003,-6.939017e-004
1.494586e+003,-7.070016e-004
1.496514e+003,-7.096811e-004
1.498443e+003,-7.373351e-004
1.500371e+003,-7.623081e-004
1.502300e+003,-6.568162e-004
1.504228e+003,-7.052484e-004
1.506157e+003,-9.352939e-004
1.508085e+003,-8.952530e-004
1.510014e+003,-7.831785e-004
1.511942e+003,-8.006414e-004
1.513871e+003,-7.528813e-004
1.515799e+003,-8.538195e-004
1.517728e+003,-8.653274e-004
1.519656e+003,-9.244491e-004
1.521585e+003,-1.083026e-003
1.523513e+003,-8.979975e-004
1.525442e+003,-7.471591e-004
1.527370e+003,-7.411721e-004
1.529299e+003,-7.618120e-004
1.531227e+003,-8.064291e-004
1.533156e+003,-8.225021e-004
1.535084e+003,-6.858629e-004
1.537013e+003,-7.129891e-004
1.538941e+003,-1.037347e-003
1.540870e+003,-1.143539e-003
1.542798e+003,-9.761906e-004
1.544727e+003,-8.278597e-004
1.546655e+003,-7.478206e-004
1.548584e+003,-6.576102e-004
1.550512e+003,-5.911064e-004
1.552441e+003,-7.645573e-004
1.554369e+003,-8.350029e-004
1.556298e+003,-8.581516e-004
1.558226e+003,-1.138483e-003
1.560155e+003,-1.105368e-003
1.562083e+003,-8.374170e-004
1.564012e+003,-7.205973e-004
1.565940e+003,-5.708224e-004
1.567869e+003,-6.593305e-004
1.569797e+003,-8.006414e-004
1.571726e+003,-6.301166e-004
1.573654e+003,-6.771623e-004
1.575583e+003,-8.120184e-004
1.577511e+003,-8.405918e-004
1.579440e+003,-8.406249e-004
1.581368e+003,-6.760375e-004
1.583297e+003,-5.626490e-004
1.585225e+003,-5.678111e-004
1.587154e+003,-5.740322e-004
1.589082e+003,-5.768779e-004
1.591010e+003,-5.721129e-004
1.592939e+003,-5.967646e-004
1.594868e+003,-5.875659e-004
1.596796e+003,-4.787879e-004
1.598724e+003,-4.217240e-004
1.600653e+003,-5.531517e-004
1.602582e+003,-6.526476e-004
1.604510e+003,-6.015293e-004
1.606438e+003,-5.706238e-004
1.608367e+003,-6.222089e-004
1.610296e+003,-5.665868e-004
1.612224e+003,-5.329652e-004
1.614152e+003,-6.177091e-004
1.616081e+003,-8.117869e-004
1.618010e+003,-7.366074e-004
1.619938e+003,-6.639953e-004
1.621866e+003,-8.133413e-004
1.623795e+003,-8.801747e-004
1.625724e+003,-6.520851e-004
1.627652e+003,-6.403731e-004
1.629580e+003,-6.922476e-004
1.631509e+003,-6.034484e-004
1.633438e+003,-6.275359e-004
1.635366e+003,-7.618781e-004
1.637294e+003,-6.826870e-004
1.639223e+003,-5.799222e-004
1.641151e+003,-5.204557e-004
1.643080e+003,-6.156577e-004
1.645008e+003,-9.184976e-004
1.646937e+003,-9.530151e-004
1.648865e+003,-6.888072e-004
1.650794e+003,-7.440498e-004
1.652722e+003,-1.011001e-003
1.654651e+003,-8.032873e-004
1.656579e+003,-6.494053e-004
1.658508e+003,-7.057446e-004
1.660436e+003,-7.489452e-004
1.662365e+003,-7.895949e-004
1.664293e+003,-7.137168e-004
1.666222e+003,-5.443492e-004
1.668150e+003,-6.697848e-004
1.670079e+003,-7.243022e-004
1.672007e+003,-5.970293e-004
1.673936e+003,-7.017750e-004
1.675864e+003,-6.912221e-004
1.677793e+003,-5.439520e-004
1.679721e+003,-4.901071e-004
1.681650e+003,-5.756205e-004
1.683578e+003,-8.103978e-004
1.685507e+003,-6.856975e-004
1.687435e+003,-6.228376e-004
1.689364e+003,-7.281724e-004
1.691292e+003,-7.491106e-004
1.693221e+003,-8.011706e-004
1.695149e+003,-9.710994e-004
1.697078e+003,-8.673115e-004
1.699006e+003,-9.865381e-004
1.700935e+003,-1.014472e-003
1.702863e+003,-7.303887e-004
1.704792e+003,-6.577756e-004
1.706720e+003,-5.398486e-004
1.708649e+003,-5.573212e-004
1.710577e+003,-5.932241e-004
1.712506e+003,-6.028198e-004
1.714434e+003,-6.838780e-004
1.716363e+003,-8.252470e-004
1.718291e+003,-8.063299e-004
1.720220e+003,-5.901137e-004
1.722148e+003,-6.176099e-004
1.724077e+003,-6.163195e-004
1.726005e+003,-5.396500e-004
1.727934e+003,-5.902792e-004
1.729862e+003,-6.326642e-004
1.731791e+003,-7.479198e-004
1.733719e+003,-1.004158e-003
1.735648e+003,-8.653274e-004
1.737576e+003,-7.405436e-004
1.739505e+003,-7.045537e-004
1.741433e+003,-6.384542e-004
1.743362e+003,-7.372358e-004
1.745290e+003,-6.466592e-004
1.747219e+003,-6.397445e-004
1.749147e+003,-7.317118e-004
1.751076e+003,-7.760344e-004
1.753004e+003,-7.410398e-004
1.754933e+003,-6.829186e-004
1.756861e+003,-5.889887e-004
1.758790e+003,-5.276040e-004
1.760718e+003,-6.512580e-004
1.762647e+003,-6.192642e-004
1.764575e+003,-5.550049e-004
1.766504e+003,-6.057646e-004
1.768432e+003,-6.109924e-004
1.770361e+003,-6.934386e-004
1.772289e+003,-8.045771e-004
1.774218e+003,-6.698841e-004
1.776146e+003,-5.523575e-004
1.778075e+003,-5.483865e-004
1.780003e+003,-6.639953e-004
1.781932e+003,-6.703473e-004
1.783860e+003,-6.252198e-004
1.785789e+003,-5.894520e-004
1.787717e+003,-5.176758e-004
1.789646e+003,-5.173449e-004
1.791574e+003,-6.713729e-004
1.793503e+003,-7.748106e-004
1.795431e+003,-7.105412e-004
1.797360e+003,-6.417957e-004
1.799288e+003,-6.377263e-004
1.801217e+003,-7.464644e-004
1.803145e+003,-6.952580e-004
1.805074e+003,-5.861431e-004
1.807002e+003,-5.249565e-004
1.808931e+003,-5.680759e-004
1.810859e+003,-5.396831e-004
1.812788e+003,-4.647212e-004
1.814716e+003,-5.023527e-004
1.816645e+003,-4.856721e-004
1.818573e+003,-4.935161e-004
1.820502e+003,-5.262141e-004
1.822430e+003,-5.847864e-004
1.824359e+003,-5.879299e-004
1.826287e+003,-5.081444e-004
1.828216e+003,-5.278026e-004
1.830144e+003,-6.033822e-004
1.832073e+003,-4.889818e-004
1.834001e+003,-4.319855e-004
1.835930e+003,-5.378961e-004
1.837858e+003,-5.690024e-004
1.839787e+003,-5.623511e-004
1.841715e+003,-5.864740e-004
1.843644e+003,-6.736887e-004
1.845572e+003,-6.401084e-004
1.847501e+003,-5.793597e-004
1.849429e+003,-5.395839e-004
1.851358e+003,-4.742204e-004
1.853286e+003,-4.936816e-004
1.855215e+003,-4.987784e-004
1.857143e+003,-5.323034e-004
1.859072e+003,-5.595053e-004
1.861000e+003,-5.606966e-004
1.862929e+003,-4.914972e-004
1.864857e+003,-4.261266e-004
1.866786e+003,-4.718043e-004
1.868714e+003,-5.829664e-004
1.870643e+003,-6.136725e-004
1.872571e+003,-5.264127e-004
1.874500e+003,-4.161629e-004
1.876428e+003,-4.308932e-004
1.878357e+003,-4.763056e-004
1.880285e+003,-5.142670e-004
1.882214e+003,-5.446470e-004
1.884142e+003,-6.197274e-004
1.886071e+003,-6.034484e-004
1.887999e+003,-6.213818e-004
1.889928e+003,-6.209186e-004
1.891856e+003,-5.942499e-004
1.893785e+003,-6.010330e-004
1.895713e+003,-5.288947e-004
1.897642e+003,-4.643572e-004
1.899570e+003,-4.881544e-004
1.901499e+003,-4.959652e-004
1.903427e+003,-4.668726e-004
1.905356e+003,-5.507029e-004
1.907284e+003,-4.958990e-004
1.909213e+003,-4.240743e-004
1.911141e+003,-4.544275e-004
1.913070e+003,-4.677001e-004
1.914998e+003,-5.096999e-004
1.916927e+003,-5.548394e-004
1.918855e+003,-6.167827e-004
1.920784e+003,-6.601576e-004
1.922712e+003,-6.454682e-004
1.924641e+003,-5.327336e-004
1.926569e+003,-5.365062e-004
1.928498e+003,-5.140023e-004
1.930426e+003,-4.941449e-004
1.932355e+003,-4.540634e-004
1.934283e+003,-4.469800e-004
1.936212e+003,-4.996388e-004
1.938140e+003,-5.046363e-004
1.940069e+003,-5.053644e-004
1.941997e+003,-5.460038e-004
1.943926e+003,-4.582008e-004
1.945854e+003,-5.099647e-004
1.947783e+003,-6.073859e-004
1.949711e+003,-5.898490e-004
1.951640e+003,-5.693664e-004
1.953568e+003,-5.654948e-004
1.955497e+003,-5.585126e-004
1.957425e+003,-5.219450e-004
1.959354e+003,-6.075182e-004
1.961282e+003,-6.140034e-004
1.963211e+003,-5.978565e-004
1.965139e+003,-6.849366e-004
1.967068e+003,-6.242934e-004
1.968996e+003,-4.812702e-004
1.970925e+003,-4.214261e-004
1.972853e+003,-5.122813e-004
1.974782e+003,-5.014261e-004
1.976710e+003,-5.238644e-004
1.978639e+003,-5.868048e-004
1.980567e+003,-5.628144e-004
1.982496e+003,-5.403780e-004
1.984424e+003,-5.212831e-004
1.986353e+003,-5.201579e-004
1.988281e+003,-5.271407e-004
1.990210e+003,-4.605839e-004
1.992138e+003,-3.977245e-004
1.994067e+003,-3.822317e-004
1.995995e+003,-4.906367e-004
1.997924e+003,-5.332961e-004
1.999852e+003,-4.938801e-004
2.001781e+003,-4.850764e-004
2.003709e+003,-4.744852e-004
2.005638e+003,-5.029485e-004
2.007566e+003,-5.632777e-004
2.009495e+003,-5.737675e-004
2.011423e+003,-5.482210e-004
2.013352e+003,-4.933506e-004
2.015280e+003,-4.904712e-004
2.017208e+003,-5.448787e-004
2.019137e+003,-6.751443e-004
2.021066e+003,-6.156577e-004
2.022994e+003,-4.897100e-004
2.024922e+003,-4.405255e-004
2.026851e+003,-4.711423e-004
2.028780e+003,-5.018894e-004
2.030708e+003,-4.973884e-004
2.032636e+003,-4.708775e-004
2.034565e+003,-5.880292e-004
2.036494e+003,-6.430530e-004
2.038422e+003,-5.653955e-004
2.040350e+003,-5.250227e-004
2.042279e+003,-5.007972e-004
2.044208e+003,-4.958328e-004
2.046136e+003,-5.368371e-004
2.048064e+003,-4.984474e-004
2.049993e+003,-4.446630e-004
2.051921e+003,-5.490152e-004
2.053850e+003,-6.236648e-004
2.055778e+003,-5.778045e-004
2.057707e+003,-4.630663e-004
2.059635e+003,-3.582300e-004
2.061564e+003,-4.218895e-004
2.063492e+003,-4.984474e-004
2.065421e+003,-5.430586e-004
2.067349e+003,-6.174445e-004
2.069278e+003,-5.638071e-004
2.071206e+003,-5.317407e-004
2.073135e+003,-5.252543e-004
2.075063e+003,-4.715064e-004
2.076992e+003,-5.124468e-004
2.078920e+003,-5.230040e-004
2.080849e+003,-5.330314e-004
2.082777e+003,-5.439852e-004
2.084706e+003,-5.031801e-004
2.086634e+003,-5.453750e-004
2.088563e+003,-5.810473e-004
2.090491e+003,-5.149289e-004
2.092420e+003,-4.884523e-004
2.094348e+003,-5.147635e-004
2.096277e+003,-5.425291e-004
2.098205e+003,-4.933506e-004
2.100134e+003,-4.852088e-004
2.102062e+003,-4.740219e-004
2.103991e+003,-4.788872e-004
2.105919e+003,-4.911331e-004
2.107848e+003,-5.200917e-004
2.109776e+003,-5.632115e-004
2.111705e+003,-5.780030e-004
2.113633e+003,-5.067213e-004
2.115562e+003,-5.151275e-004
2.117490e+003,-5.259825e-004
2.119419e+003,-4.626360e-004
2.121347e+003,-4.871946e-004
2.123276e+003,-4.941780e-004
2.125204e+003,-5.051658e-004
2.127133e+003,-5.797567e-004
2.129061e+003,-6.065587e-004
2.130990e+003,-5.539128e-004
2.132918e+003,-4.904050e-004
2.134847e+003,-5.298213e-004
2.136775e+003,-5.438197e-004
2.138704e+003,-5.077473e-004
2.140632e+003,-4.848447e-004
2.142561e+003,-5.697304e-004
2.144489e+003,-6.409686e-004
2.146418e+003,-5.531517e-004
2.148346e+003,-4.895776e-004
2.150275e+003,-4.848778e-004
2.152203e+003,-4.926887e-004
2.154132e+003,-5.428600e-004
2.156060e+003,-5.644028e-004
2.157989e+003,-6.473541e-004
2.159917e+003,-7.148415e-004
2.161846e+003,-6.887410e-004
2.163774e+003,-5.968308e-004
2.165703e+003,-5.048018e-004
2.167631e+003,-5.375652e-004
2.169560e+003,-5.002346e-004
2.171488e+003,-3.978900e-004
2.173417e+003,-4.691564e-004
2.175345e+003,-5.282659e-004
2.177274e+003,-5.641050e-004
2.179202e+003,-6.513573e-004
2.181131e+003,-5.905108e-004
2.183059e+003,-5.223752e-004
2.184988e+003,-5.849518e-004
2.186916e+003,-6.612494e-004
2.188845e+003,-6.123490e-004
2.190773e+003,-4.456229e-004
2.192702e+003,-3.091631e-004
2.194630e+003,-3.855753e-004
2.196559e+003,-5.770434e-004
2.198487e+003,-5.706570e-004
2.200416e+003,-5.842570e-004
2.202344e+003,-5.989484e-004
2.204273e+003,-5.472613e-004
2.206201e+003,-4.815350e-004
2.208130e+003,-5.341566e-004
2.210058e+003,-6.320355e-004
2.211987e+003,-5.997756e-004
2.213915e+003,-5.322041e-004
2.215844e+003,-5.751572e-004
2.217772e+003,-5.818745e-004
2.219701e+003,-5.201579e-004
2.221629e+003,-5.500411e-004
2.223558e+003,-6.239294e-004
2.225486e+003,-5.858121e-004
2.227415e+003,-5.164844e-004
2.229343e+003,-5.063573e-004
2.231272e+003,-4.228164e-004
2.233200e+003,-4.211613e-004
2.235129e+003,-4.673360e-004
2.237057e+003,-4.533021e-004
2.238986e+003,-4.925232e-004
2.240914e+003,-5.595384e-004
2.242843e+003,-5.387234e-004
2.244771e+003,-4.884523e-004
2.246700e+003,-5.031470e-004
2.248628e+003,-5.402126e-004
2.250557e+003,-4.767028e-004
2.252485e+003,-5.070192e-004
2.254414e+003,-6.066911e-004
2.256342e+003,-5.517949e-004
2.258271e+003,-4.877242e-004
2.260199e+003,-5.253206e-004
2.262128e+003,-5.907424e-004
2.264056e+003,-4.901733e-004
2.265985e+003,-4.275830e-004
2.267913e+003,-5.108583e-004
2.269842e+003,-4.650191e-004
2.271770e+003,-3.822317e-004
2.273699e+003,-4.924239e-004
2.275627e+003,-4.753127e-004
2.277556e+003,-4.557514e-004
2.279484e+003,-6.071873e-004
2.281413e+003,-6.091726e-004
2.283341e+003,-5.714511e-004
2.285270e+003,-6.362705e-004
2.287198e+003,-5.696974e-004
2.289127e+003,-5.213493e-004
2.291055e+003,-5.003339e-004
2.292984e+003,-5.543761e-004
2.294912e+003,-6.301166e-004
2.296841e+003,-6.422590e-004
2.298769e+003,-6.577756e-004
2.300698e+003,-6.162533e-004
2.302626e+003,-5.756867e-004
2.304555e+003,-5.827018e-004
2.306483e+003,-5.856798e-004
2.308412e+003,-5.272731e-004
2.310340e+003,-5.369033e-004
2.312269e+003,-5.540121e-004
2.314197e+003,-5.681752e-004
2.316125e+003,-6.012646e-004
2.318054e+003,-6.785187e-004
2.319983e+003,-7.799703e-004
2.321911e+003,-8.190958e-004
2.323840e+003,-7.979625e-004
2.325768e+003,-7.875774e-004
2.327697e+003,-8.625828e-004
2.329625e+003,-8.459160e-004
2.331553e+003,-8.284549e-004
2.333482e+003,-7.894295e-004
2.335411e+003,-7.769274e-004
2.337339e+003,-8.668816e-004
2.339268e+003,-9.468987e-004
2.341196e+003,-9.279539e-004
2.343125e+003,-9.947035e-004
2.345053e+003,-9.328141e-004
2.346981e+003,-7.649873e-004
2.348910e+003,-7.255923e-004
2.350839e+003,-7.528813e-004
2.352767e+003,-8.537204e-004
2.354696e+003,-9.840918e-004
2.356624e+003,-9.328472e-004
2.358552e+003,-9.537425e-004
2.360481e+003,-1.116010e-003
2.362409e+003,-1.171000e-003
2.364338e+003,-1.252944e-003
2.366267e+003,-1.114424e-003
2.368195e+003,-9.980093e-004
2.370124e+003,-9.644873e-004
2.372052e+003,-9.309957e-004
2.373980e+003,-9.831660e-004
2.375909e+003,-9.397903e-004
2.377838e+003,-7.332003e-004
2.379766e+003,-4.882868e-004
2.381695e+003,-5.277033e-004
2.383623e+003,-6.198267e-004
2.385552e+003,-5.932572e-004
2.387480e+003,-5.869041e-004
2.389408e+003,-4.708775e-004
2.391337e+003,-4.273844e-004
2.393266e+003,-5.130756e-004
2.395194e+003,-5.381608e-004
2.397123e+003,-5.316415e-004
2.399051e+003,-5.622850e-004
2.400979e+003,-5.920660e-004
2.402908e+003,-5.613584e-004
2.404836e+003,-5.297551e-004
2.406765e+003,-5.525891e-004
2.408694e+003,-5.252213e-004
2.410622e+003,-5.620864e-004
2.412551e+003,-6.398438e-004
2.414479e+003,-7.218875e-004
2.416407e+003,-7.437852e-004
2.418336e+003,-7.350196e-004
2.420264e+003,-7.968711e-004
2.422193e+003,-8.309353e-004
2.424122e+003,-7.645573e-004
2.426050e+003,-6.174113e-004
2.427979e+003,-5.032463e-004
2.429907e+003,-5.329652e-004
2.431835e+003,-5.843231e-004
2.433764e+003,-6.264440e-004
2.435692e+003,-5.874335e-004
2.437621e+003,-5.642704e-004
2.439550e+003,-5.216140e-004
2.441478e+003,-5.583140e-004
2.443406e+003,-5.918013e-004
2.445335e+003,-5.331307e-004
2.447263e+003,-5.843231e-004
2.449192e+003,-6.409686e-004
2.451121e+003,-5.575860e-004
2.453049e+003,-5.770765e-004
2.454978e+003,-5.787309e-004
2.456906e+003,-5.368371e-004
2.458834e+003,-5.954410e-004
2.460763e+003,-6.129115e-004
2.462691e+003,-5.723115e-004
2.464620e+003,-5.457060e-004
2.466549e+003,-4.715064e-004
2.468477e+003,-4.438355e-004
2.470406e+003,-5.251551e-004
2.472334e+003,-6.409686e-004
2.474262e+003,-5.585126e-004
2.476191e+003,-4.433721e-004
2.478119e+003,-4.741873e-004
2.480048e+003,-5.480224e-004
2.481977e+003,-5.011613e-004
2.483905e+003,-4.750148e-004
2.485833e+003,-5.375652e-004
2.487762e+003,-5.274055e-004
2.489690e+003,-4.711423e-004
2.491619e+003,-4.549901e-004
2.493547e+003,-4.266562e-004
2.495476e+003,-4.966602e-004
2.497405e+003,-5.914373e-004
2.499333e+003,-5.993786e-004
2.501261e+003,-4.592930e-004
2.503190e+003,-4.167256e-004
2.505118e+003,-5.376313e-004
2.507047e+003,-6.437147e-004
2.508975e+003,-5.732049e-004
2.510904e+003,-4.840504e-004
2.512833e+003,-4.233460e-004
2.514761e+003,-4.057686e-004
2.516689e+003,-4.689909e-004
2.518618e+003,-5.036435e-004
2.520546e+003,-5.764147e-004
2.522475e+003,-6.176761e-004
2.524403e+003,-6.078822e-004
2.526332e+003,-6.356088e-004
2.528260e+003,-5.450110e-004
2.530189e+003,-4.756105e-004
2.532117e+003,-5.524237e-004
2.534046e+003,-6.212163e-004
2.535974e+003,-5.336602e-004
2.537903e+003,-4.536000e-004
2.539831e+003,-5.006648e-004
2.541760e+003,-5.568580e-004
2.543688e+003,-6.901966e-004
2.545617e+003,-7.287347e-004
2.547545e+003,-5.781022e-004
2.549474e+003,-4.496611e-004
2.551402e+003,-5.045370e-004
2.553331e+003,-4.942442e-004
2.555259e+003,-5.076480e-004
2.557188e+003,-5.805840e-004
2.559116e+003,-6.135732e-004
2.561045e+003,-5.070523e-004
2.562973e+003,-4.717050e-004
2.564902e+003,-5.422974e-004
2.566830e+003,-5.791942e-004
2.568759e+003,-5.063573e-004
2.570687e+003,-4.171891e-004
2.572616e+003,-4.529711e-004
2.574544e+003,-4.993741e-004
2.576473e+003,-5.465333e-004
2.578401e+003,-5.937205e-004
2.580330e+003,-6.172459e-004
2.582258e+003,-5.909410e-004
2.584187e+003,-5.835290e-004
2.586115e+003,-6.025220e-004
2.588044e+003,-5.878968e-004
2.589972e+003,-5.496771e-004
2.591901e+003,-5.751572e-004
2.593829e+003,-6.217127e-004
2.595758e+003,-5.463017e-004
2.597686e+003,-4.741873e-004
2.599615e+003,-4.345012e-004
2.601543e+003,-5.283321e-004
2.603472e+003,-7.133860e-004
2.605400e+003,-7.164624e-004
2.607329e+003,-5.926285e-004
2.609257e+003,-5.238644e-004
2.611186e+003,-5.118842e-004
2.613114e+003,-5.413046e-004
2.615043e+003,-6.158563e-004
2.616971e+003,-5.480224e-004
2.618900e+003,-4.823956e-004
2.620828e+003,-4.767690e-004
2.622757e+003,-4.204000e-004
2.624685e+003,-3.428020e-004
2.626614e+003,-4.262259e-004
2.628542e+003,-5.892203e-004
2.630471e+003,-6.791142e-004
2.632399e+003,-6.278337e-004
2.634328e+003,-7.173886e-004
2.636256e+003,-8.233620e-004
2.638185e+003,-7.370043e-004
2.640113e+003,-6.072205e-004
2.642042e+003,-5.802200e-004
2.643970e+003,-5.823708e-004
2.645899e+003,-5.700944e-004
2.647827e+003,-5.149951e-004
2.649756e+003,-5.679435e-004
2.651684e+003,-6.869215e-004
2.653613e+003,-6.324988e-004
2.655541e+003,-5.068537e-004
2.657470e+003,-4.755112e-004
2.659398e+003,-5.108583e-004
2.661327e+003,-5.335278e-004
2.663255e+003,-5.155908e-004
2.665184e+003,-5.873673e-004
2.667112e+003,-5.752565e-004
2.669041e+003,-5.130756e-004
2.670969e+003,-5.822385e-004
2.672898e+003,-6.429869e-004
2.674826e+003,-6.697848e-004
2.676755e+003,-5.859114e-004
2.678683e+003,-5.584795e-004
2.680612e+003,-5.829664e-004
2.682540e+003,-5.880953e-004
2.684469e+003,-5.982867e-004
2.686397e+003,-6.288262e-004
2.688326e+003,-6.454351e-004
2.690254e+003,-6.031838e-004
2.692183e+003,-5.857129e-004
2.694111e+003,-6.445418e-004
2.696040e+003,-6.365352e-004
2.697968e+003,-5.886247e-004
2.699897e+003,-5.316415e-004
2.701825e+003,-6.263116e-004
2.703754e+003,-6.944310e-004
2.705682e+003,-5.815767e-004
2.707611e+003,-5.261148e-004
2.709539e+003,-5.435881e-004
2.711468e+003,-6.114226e-004
2.713396e+003,-6.650209e-004
2.715325e+003,-7.471921e-004
2.717253e+003,-7.099457e-004
2.719182e+003,-7.678648e-004
2.721110e+003,-7.804995e-004
2.723039e+003,-7.106735e-004
2.724967e+003,-6.611501e-004
2.726896e+003,-5.948124e-004
2.728824e+003,-6.309437e-004
2.730753e+003,-7.319102e-004
2.732681e+003,-6.686931e-004
2.734610e+003,-6.441779e-004
2.736538e+003,-6.824224e-004
2.738467e+003,-6.542687e-004
2.740395e+003,-6.001396e-004
2.742324e+003,-6.249551e-004
2.744252e+003,-6.753428e-004
2.746181e+003,-7.502022e-004
2.748109e+003,-7.481183e-004
2.750038e+003,-6.208193e-004
2.751966e+003,-5.920660e-004
2.753895e+003,-6.647562e-004
2.755823e+003,-7.820209e-004
2.757752e+003,-8.291494e-004
2.759680e+003,-7.755383e-004
2.761609e+003,-7.587359e-004
2.763537e+003,-7.365081e-004
2.765466e+003,-7.717346e-004
2.767394e+003,-7.661118e-004
2.769323e+003,-7.401136e-004
2.771251e+003,-7.106073e-004
2.773180e+003,-5.779037e-004
2.775108e+003,-5.038090e-004
2.777037e+003,-6.152276e-004
2.778965e+003,-7.046199e-004
2.780894e+003,-7.300579e-004
2.782822e+003,-7.491106e-004
2.784750e+003,-7.798711e-004
2.786679e+003,-7.005178e-004
2.788608e+003,-7.231775e-004
2.790536e+003,-7.413705e-004
2.792465e+003,-7.317449e-004
2.794393e+003,-7.147092e-004
2.796322e+003,-6.909575e-004
2.798250e+003,-6.672374e-004
2.800178e+003,-6.380902e-004
2.802107e+003,-5.788964e-004
2.804036e+003,-6.066579e-004
2.805964e+003,-5.571227e-004
2.807893e+003,-5.962021e-004
2.809821e+003,-7.481845e-004
2.811750e+003,-7.072332e-004
2.813678e+003,-6.660134e-004
2.815606e+003,-7.832777e-004
2.817535e+003,-7.992524e-004
2.819464e+003,-7.272462e-004
2.821392e+003,-6.201906e-004
2.823321e+003,-5.991469e-004
2.825249e+003,-7.239383e-004
2.827177e+003,-6.684946e-004
2.829106e+003,-5.481879e-004
2.831034e+003,-5.842570e-004
2.832963e+003,-5.943491e-004
2.834892e+003,-5.541114e-004
2.836820e+003,-6.126468e-004
2.838749e+003,-6.367999e-004
2.840677e+003,-6.501993e-004
2.842605e+003,-6.538055e-004
2.844534e+003,-6.723984e-004
2.846462e+003,-6.676014e-004
2.848391e+003,-5.864408e-004
2.850320e+003,-6.246573e-004
2.852248e+003,-5.828672e-004
2.854177e+003,-5.389882e-004
2.856105e+003,-6.622419e-004
2.858033e+003,-8.119522e-004
2.859962e+003,-7.317118e-004
2.861890e+003,-6.566838e-004
2.863819e+003,-6.469239e-004
2.865748e+003,-5.652301e-004
2.867676e+003,-5.312774e-004
2.869604e+003,-6.400092e-004
2.871533e+003,-7.187118e-004
2.873461e+003,-7.632673e-004
2.875390e+003,-8.373840e-004
2.877319e+003,-8.563328e-004
2.879247e+003,-7.255592e-004
2.881176e+003,-6.650209e-004
2.883104e+003,-7.256915e-004
2.885032e+003,-7.951513e-004
2.886961e+003,-6.898327e-004
2.888889e+003,-6.687262e-004
2.890818e+003,-7.795073e-004
2.892747e+003,-8.867219e-004
2.894675e+003,-8.277604e-004
2.896604e+003,-6.645577e-004
2.898532e+003,-6.589335e-004
2.900460e+003,-8.054039e-004
2.902389e+003,-8.165162e-004
2.904317e+003,-7.190426e-004
2.906246e+003,-6.608193e-004
2.908175e+003,-6.882779e-004
2.910103e+003,-7.310171e-004
2.912031e+003,-7.593974e-004
2.913960e+003,-7.082256e-004
2.915888e+003,-6.857967e-004
2.917817e+003,-6.519859e-004
2.919745e+003,-6.533754e-004
2.921674e+003,-6.514234e-004
2.923603e+003,-8.459160e-004
2.925531e+003,-9.677933e-004
2.927459e+003,-9.363188e-004
2.929388e+003,-9.144307e-004
2.931316e+003,-8.775294e-004
2.933245e+003,-8.282234e-004
2.935173e+003,-7.789450e-004
2.937102e+003,-7.408082e-004
2.939031e+003,-6.912883e-004
2.940959e+003,-6.508941e-004
2.942887e+003,-7.850307e-004
2.944816e+003,-8.154248e-004
2.946744e+003,-7.051822e-004
2.948673e+003,-6.097020e-004
2.950601e+003,-7.073986e-004
2.952530e+003,-7.138161e-004
2.954458e+003,-6.340538e-004
2.956387e+003,-6.498354e-004
2.958315e+003,-7.527490e-004
2.960244e+003,-8.474702e-004
2.962172e+003,-8.249164e-004
2.964101e+003,-6.399099e-004
2.966029e+003,-5.753889e-004
2.967958e+003,-6.467585e-004
2.969886e+003,-7.126252e-004
2.971815e+003,-7.464314e-004
2.973743e+003,-7.270477e-004
2.975672e+003,-7.503675e-004
2.977600e+003,-7.347881e-004
2.979529e+003,-6.189995e-004
2.981457e+003,-6.586027e-004
2.983386e+003,-6.407701e-004
2.985314e+003,-5.918675e-004
2.987243e+003,-6.425236e-004
2.989171e+003,-6.469239e-004
2.991100e+003,-5.973933e-004
2.993028e+003,-6.838780e-004
2.994957e+003,-6.988638e-004
2.996885e+003,-7.469275e-004
2.998814e+003,-7.206966e-004
3.000742e+003,-7.241368e-004
3.002671e+003,-7.827486e-004
3.004599e+003,-7.948867e-004
3.006528e+003,-7.286024e-004
3.008456e+003,-7.751083e-004
3.010385e+003,-9.287804e-004
3.012313e+003,-8.440972e-004
3.014242e+003,-7.717016e-004
3.016170e+003,-7.861221e-004
3.018099e+003,-6.857306e-004
3.020027e+003,-6.325649e-004
3.021956e+003,-6.690570e-004
3.023884e+003,-7.315464e-004
3.025813e+003,-7.332003e-004
3.027741e+003,-8.512402e-004
3.029670e+003,-7.514260e-004
3.031598e+003,-6.421266e-004
3.033527e+003,-6.862268e-004
3.035455e+003,-6.397445e-004
3.037384e+003,-6.176099e-004
3.039312e+003,-7.305210e-004
3.041241e+003,-8.208486e-004
3.043169e+003,-8.640378e-004
3.045098e+003,-7.730907e-004
3.047026e+003,-6.690901e-004
3.048955e+003,-6.485451e-004
3.050883e+003,-6.911890e-004
3.052812e+003,-7.204650e-004
3.054740e+003,-7.251953e-004
3.056669e+003,-7.317449e-004
3.058597e+003,-7.657149e-004
3.060526e+003,-7.198034e-004
3.062454e+003,-7.496398e-004
3.064383e+003,-7.884043e-004
3.066311e+003,-7.190426e-004
3.068240e+003,-7.040906e-004
3.070168e+003,-8.119192e-004
3.072097e+003,-7.595959e-004
3.074025e+003,-6.708435e-004
3.075954e+003,-6.239294e-004
3.077882e+003,-7.272462e-004
3.079811e+003,-8.565973e-004
3.081739e+003,-8.573249e-004
3.083668e+003,-7.594966e-004
3.085596e+003,-8.002776e-004
3.087525e+003,-9.003782e-004
3.089453e+003,-8.604664e-004
3.091382e+003,-8.138043e-004
3.093310e+003,-8.306045e-004
3.095239e+003,-8.001784e-004
3.097167e+003,-7.202335e-004
3.099096e+003,-7.313810e-004
3.101024e+003,-8.014021e-004
3.102953e+003,-7.932330e-004
3.104881e+003,-8.754461e-004
3.106810e+003,-8.630457e-004
3.108738e+003,-7.446783e-004
3.110667e+003,-7.573467e-004
3.112595e+003,-7.042891e-004
3.114524e+003,-6.377593e-004
3.116452e+003,-7.330349e-004
3.118381e+003,-8.075205e-004
3.120309e+003,-8.514386e-004
3.122238e+003,-8.602349e-004
3.124166e+003,-9.049742e-004
3.126095e+003,-9.040814e-004
3.128023e+003,-8.807699e-004
3.129952e+003,-7.993515e-004
3.131880e+003,-8.667824e-004
3.133809e+003,-9.037839e-004
3.135737e+003,-8.673446e-004
3.137666e+003,-7.686586e-004
3.139594e+003,-6.991946e-004
3.141523e+003,-7.494744e-004
3.143451e+003,-8.727346e-004
3.145380e+003,-9.216056e-004
3.147308e+003,-8.680059e-004
3.149237e+003,-8.284880e-004
3.151165e+003,-9.164477e-004
3.153094e+003,-9.924226e-004
3.155022e+003,-8.768680e-004
3.156951e+003,-7.774897e-004
3.158879e+003,-8.216092e-004
3.160808e+003,-7.253276e-004
3.162736e+003,-8.183682e-004
3.164665e+003,-8.521661e-004
3.166593e+003,-9.224322e-004
3.168522e+003,-9.917613e-004
3.170450e+003,-9.419394e-004
3.172379e+003,-7.321087e-004
3.174307e+003,-6.143012e-004
3.176236e+003,-6.660465e-004
3.178164e+003,-7.812602e-004
3.180093e+003,-8.206832e-004
3.182021e+003,-8.347384e-004
3.183950e+003,-7.954820e-004
3.185878e+003,-8.063630e-004
3.187807e+003,-7.988886e-004
3.189735e+003,-8.300424e-004
3.191664e+003,-8.911528e-004
3.193592e+003,-9.468987e-004
3.195521e+003,-1.018670e-003
3.197449e+003,-8.778269e-004
3.199378e+003,-7.514260e-004
3.201306e+003,-7.748106e-004
3.203235e+003,-8.602349e-004
3.205163e+003,-9.277555e-004
3.207092e+003,-8.835145e-004
3.209020e+003,-8.226675e-004
3.210948e+003,-7.844684e-004
3.212877e+003,-8.381446e-004
3.214806e+003,-9.263999e-004
3.216734e+003,-9.760583e-004
3.218663e+003,-9.693802e-004
3.220591e+003,-9.911663e-004
3.222520e+003,-7.915793e-004
3.224448e+003,-8.243211e-004
3.226376e+003,-7.800034e-004
3.228305e+003,-6.446080e-004
3.230234e+003,-6.707443e-004
3.232162e+003,-6.960850e-004
3.234091e+003,-7.273454e-004
3.236019e+003,-8.268345e-004
3.237948e+003,-8.616238e-004
3.239876e+003,-8.381446e-004
3.241804e+003,-7.180502e-004
3.243733e+003,-7.900579e-004
3.245662e+003,-8.358958e-004
3.247590e+003,-9.893150e-004
3.249519e+003,-1.013910e-003
3.251447e+003,-1.018802e-003
3.253375e+003,-1.051031e-003
3.255304e+003,-1.062402e-003
3.257232e+003,-8.568619e-004
3.259161e+003,-7.429583e-004
3.261090e+003,-7.856591e-004
3.263018e+003,-8.876147e-004
3.264947e+003,-1.052452e-003
3.266875e+003,-1.102592e-003
3.268803e+003,-9.814801e-004
3.270732e+003,-9.005765e-004
3.272660e+003,-7.944898e-004
3.274589e+003,-7.828147e-004
3.276518e+003,-7.910832e-004
3.278446e+003,-8.141350e-004
3.280375e+003,-9.899762e-004
3.282303e+003,-1.014538e-003
3.284231e+003,-1.060749e-003
3.286160e+003,-1.035595e-003
3.288088e+003,-8.591436e-004
3.290017e+003,-8.969394e-004
3.291946e+003,-9.822074e-004
3.293874e+003,-1.073044e-003
3.295802e+003,-1.075590e-003
3.297731e+003,-9.120501e-004
3.299659e+003,-7.799041e-004
3.301588e+003,-8.035187e-004
3.303516e+003,-8.033864e-004
3.305445e+003,-8.011706e-004
3.307374e+003,-8.837790e-004
3.309302e+003,-9.866373e-004
3.311230e+003,-1.032487e-003
3.313159e+003,-1.077440e-003
3.315087e+003,-9.899432e-004
3.317016e+003,-9.005765e-004
3.318944e+003,-9.227298e-004
3.320873e+003,-8.134405e-004
3.322802e+003,-8.269337e-004
3.324730e+003,-1.106624e-003
3.326658e+003,-1.117762e-003
3.328587e+003,-9.902407e-004
3.330515e+003,-8.297777e-004
3.332444e+003,-9.389638e-004
3.334372e+003,-1.138714e-003
3.336301e+003,-1.095453e-003
3.338229e+003,-8.505126e-004
3.340158e+003,-7.478206e-004
3.342086e+003,-7.857583e-004
3.344015e+003,-7.908848e-004
3.345943e+003,-8.219399e-004
3.347872e+003,-8.979975e-004
3.349800e+003,-7.869489e-004
3.351729e+003,-7.115336e-004
3.353657e+003,-8.113900e-004
3.355586e+003,-9.278877e-004
3.357514e+003,-9.599249e-004
3.359443e+003,-9.154557e-004
3.361371e+003,-7.724292e-004
3.363300e+003,-6.957211e-004
3.365229e+003,-8.513394e-004
3.367157e+003,-1.031992e-003
3.369085e+003,-1.081869e-003
3.371014e+003,-1.034735e-003
3.372942e+003,-8.663525e-004
3.374871e+003,-7.908186e-004
3.376799e+003,-8.398643e-004
3.378728e+003,-8.825886e-004
3.380656e+003,-9.552633e-004
3.382585e+003,-9.969184e-004
3.384513e+003,-1.032157e-003
3.386442e+003,-1.022240e-003
3.388370e+003,-8.059992e-004
3.390299e+003,-8.564320e-004
3.392227e+003,-9.328472e-004
3.394156e+003,-8.046101e-004
3.396084e+003,-6.548972e-004
3.398013e+003,-7.227144e-004
3.399941e+003,-7.848322e-004
3.401870e+003,-7.356150e-004
3.403798e+003,-7.700809e-004
3.405727e+003,-9.170098e-004
3.407655e+003,-8.168138e-004
3.409584e+003,-6.935378e-004
3.411512e+003,-7.885034e-004
3.413441e+003,-9.074541e-004
3.415369e+003,-8.427413e-004
3.417298e+003,-8.156232e-004
3.419226e+003,-8.539518e-004
3.421155e+003,-9.127114e-004
3.423083e+003,-8.547786e-004
3.425012e+003,-8.574902e-004
3.426940e+003,-9.832652e-004
3.428869e+003,-9.297723e-004
3.430797e+003,-7.755383e-004
3.432726e+003,-8.462137e-004
3.434654e+003,-1.074763e-003
3.436583e+003,-1.209628e-003
3.438511e+003,-1.019629e-003
3.440440e+003,-8.377478e-004
3.442368e+003,-6.961512e-004
3.444297e+003,-6.271719e-004
3.446225e+003,-7.981609e-004
3.448154e+003,-9.195887e-004
3.450082e+003,-8.279589e-004
3.452011e+003,-8.495867e-004
3.453939e+003,-8.674437e-004
3.455868e+003,-1.007001e-003
3.457796e+003,-9.724217e-004
3.459725e+003,-8.161854e-004
3.461653e+003,-6.905936e-004
3.463582e+003,-8.119522e-004
3.465510e+003,-9.418072e-004
3.467439e+003,-9.247136e-004
3.469367e+003,-7.611174e-004
3.471296e+003,-7.003194e-004
3.473224e+003,-7.280401e-004
3.475153e+003,-8.165492e-004
3.477081e+003,-7.941260e-004
3.479010e+003,-7.135514e-004
3.480938e+003,-6.419612e-004
3.482867e+003,-6.680646e-004
3.484795e+003,-6.522505e-004
3.486724e+003,-7.155693e-004
3.488652e+003,-7.798711e-004
3.490581e+003,-8.948231e-004
3.492509e+003,-9.569164e-004
3.494438e+003,-8.485946e-004
3.496366e+003,-6.273704e-004
3.498295e+003,-7.437521e-004
3.500223e+003,-1.044420e-003
3.502152e+003,-1.098924e-003
3.504080e+003,-1.065079e-003
3.506009e+003,-9.175718e-004
3.507937e+003,-8.284880e-004
3.509866e+003,-8.404925e-004
3.511794e+003,-7.566190e-004
3.513723e+003,-8.318943e-004
3.515651e+003,-1.036421e-003
3.517580e+003,-9.080493e-004
3.519508e+003,-7.747114e-004
3.521437e+003,-7.930015e-004
3.523365e+003,-9.972160e-004
3.525294e+003,-1.104608e-003
3.527222e+003,-1.010770e-003
3.529151e+003,-8.455522e-004
3.531079e+003,-7.478868e-004
3.533008e+003,-7.823847e-004
3.534936e+003,-7.989216e-004
3.536865e+003,-8.635417e-004
3.538793e+003,-7.616135e-004
3.540722e+003,-6.417627e-004
3.542650e+003,-7.027012e-004
3.544579e+003,-6.877485e-004
3.546507e+003,-7.675671e-004
3.548436e+003,-9.867365e-004
3.550364e+003,-9.714960e-004
3.552293e+003,-8.923432e-004
3.554221e+003,-8.754461e-004
3.556150e+003,-8.203194e-004
3.558078e+003,-8.470073e-004
3.560007e+003,-8.573249e-004
3.561935e+003,-6.677007e-004
3.563864e+003,-8.443948e-004
3.565792e+003,-9.135380e-004
3.567721e+003,-8.601026e-004
3.569649e+003,-9.728515e-004
3.571578e+003,-8.587138e-004
3.573506e+003,-6.070219e-004
3.575435e+003,-6.552612e-004
3.577363e+003,-6.978053e-004
3.579292e+003,-7.078617e-004
3.581220e+003,-7.737192e-004
3.583149e+003,-9.429974e-004
3.585077e+003,-8.988571e-004
3.587006e+003,-8.566966e-004
3.588934e+003,-9.726532e-004
3.590863e+003,-1.115349e-003
3.592791e+003,-1.069640e-003
3.594720e+003,-1.057807e-003
3.596648e+003,-8.884745e-004
3.598577e+003,-6.996578e-004
3.600505e+003,-7.019734e-004
3.602434e+003,-7.156355e-004
3.604362e+003,-5.353148e-004
3.606291e+003,-6.798420e-004
3.608219e+003,-8.516370e-004
3.610148e+003,-7.715362e-004
3.612076e+003,-7.472914e-004
3.614005e+003,-8.081159e-004
3.615933e+003,-9.047428e-004
3.617862e+003,-8.814974e-004
3.619790e+003,-7.747445e-004
3.621719e+003,-6.430530e-004
3.623647e+003,-6.177091e-004
3.625576e+003,-6.675352e-004
3.627504e+003,-7.044214e-004
3.629433e+003,-7.153708e-004
3.631361e+003,-6.864584e-004
3.633290e+003,-8.707175e-004
3.635218e+003,-7.472914e-004
3.637146e+003,-6.899319e-004
3.639075e+003,-6.911890e-004
3.641004e+003,-6.921153e-004
3.642932e+003,-6.585034e-004
3.644861e+003,-5.833305e-004
3.646789e+003,-5.872681e-004
3.648718e+003,-8.515378e-004
3.650646e+003,-9.840918e-004
3.652574e+003,-8.362265e-004
3.654503e+003,-8.532904e-004
3.656432e+003,-9.305328e-004
3.658360e+003,-7.665418e-004
3.660289e+003,-6.642931e-004
3.662217e+003,-8.434358e-004
3.664146e+003,-8.974023e-004
3.666074e+003,-8.808360e-004
3.668002e+003,-9.759922e-004
3.669931e+003,-9.563213e-004
3.671860e+003,-1.093404e-003
3.673788e+003,-1.283768e-003
3.675717e+003,-1.221391e-003
3.677645e+003,-9.033540e-004
3.679573e+003,-8.500497e-004
3.681502e+003,-7.592320e-004
3.683430e+003,-8.185335e-004
3.685359e+003,-7.909840e-004
3.687288e+003,-7.811610e-004
3.689216e+003,-8.674437e-004
3.691145e+003,-7.850968e-004
3.693073e+003,-7.796726e-004
3.695001e+003,-8.914173e-004
3.696930e+003,-7.673025e-004
3.698858e+003,-8.048086e-004
3.700787e+003,-7.577105e-004
3.702716e+003,-7.039252e-004
3.704644e+003,-6.501331e-004
3.706573e+003,-7.505660e-004
3.708501e+003,-8.310344e-004
3.710429e+003,-7.235745e-004
3.712358e+003,-7.542706e-004
3.714286e+003,-8.140688e-004
3.716215e+003,-8.482970e-004
3.718144e+003,-7.942252e-004
3.720072e+003,-6.504970e-004
3.722000e+003,-7.200019e-004
3.723929e+003,-7.578097e-004
3.725857e+003,-5.252213e-004
3.727786e+003,-3.058189e-004
3.729714e+003,-6.005036e-004
3.731643e+003,-1.013249e-003
3.733572e+003,-1.131874e-003
3.735500e+003,-1.065608e-003
3.737428e+003,-9.169105e-004
3.739357e+003,-7.044544e-004
3.741285e+003,-5.578838e-004
3.743214e+003,-8.739250e-004
3.745142e+003,-1.063558e-003
3.747071e+003,-8.735613e-004
3.749000e+003,-9.532796e-004
3.750928e+003,-1.046602e-003
3.752856e+003,-1.161616e-003
3.754785e+003,-1.172091e-003
3.756713e+003,-8.586145e-004
3.758642e+003,-7.222513e-004
3.760570e+003,-7.130553e-004
3.762499e+003,-5.264457e-004
3.764427e+003,-6.014301e-004
3.766356e+003,-6.633006e-004
3.768284e+003,-5.587111e-004
3.770213e+003,-5.534496e-004
3.772141e+003,-5.578508e-004
3.774070e+003,-4.332102e-004
3.775998e+003,-4.691564e-004
3.777927e+003,-8.006414e-004
3.779855e+003,-1.059526e-003
3.781784e+003,-7.756375e-004
3.783712e+003,-4.830906e-004
3.785641e+003,-2.437650e-004
3.787569e+003,-4.053383e-004
3.789498e+003,-5.560307e-004
3.791426e+003,-5.779037e-004
3.793355e+003,-6.496038e-004
3.795283e+003,-6.298519e-004
3.797212e+003,-6.897665e-004
3.799140e+003,-9.359220e-004
3.801069e+003,-1.060385e-003
3.802997e+003,-8.408894e-004
3.804926e+003,-8.736605e-004
3.806854e+003,-8.634094e-004
3.808783e+003,-8.639385e-004
3.810711e+003,-7.445129e-004
3.812640e+003,-4.996720e-004
3.814568e+003,-4.928872e-004
3.816497e+003,-4.504886e-004
3.818425e+003,-3.492580e-004
3.820354e+003,-3.991480e-004
3.822282e+003,-3.794178e-004
3.824211e+003,-4.285761e-004
3.826139e+003,-6.318701e-004
3.828068e+003,-4.905043e-004
3.829996e+003,-4.054376e-004
3.831925e+003,-5.422313e-004
3.833853e+003,-4.874263e-004
3.835782e+003,-3.306843e-004
3.837710e+003,-3.010178e-004
3.839639e+003,-4.982819e-004
3.841567e+003,-6.423913e-004
3.843496e+003,-6.503978e-004
3.845424e+003,-3.655796e-004
3.847353e+003,-4.570754e-004
3.849281e+003,-5.852496e-004
3.851210e+003,-5.202902e-004
3.853138e+003,-8.530259e-004
3.855067e+003,-8.035187e-004
3.856995e+003,-5.244932e-004
3.858924e+003,-4.982157e-004
3.860852e+003,-5.062911e-004
3.862781e+003,-5.601671e-004
3.864709e+003,-5.395839e-004
3.866638e+003,-4.848447e-004
3.868566e+003,-5.218456e-004
3.870495e+003,-4.439679e-004
3.872423e+003,-5.431247e-004
3.874352e+003,-4.077217e-004
3.876280e+003,-2.609516e-004
3.878209e+003,-3.558794e-004
3.880137e+003,-3.939176e-004
3.882066e+003,-3.556476e-004
3.883994e+003,-5.827018e-004
3.885923e+003,-4.625367e-004
3.887851e+003,-1.984938e-004
3.889780e+003,-3.252213e-004
3.891708e+003,-7.496398e-004
3.893637e+003,-7.894626e-004
3.895565e+003,-3.818013e-004
3.897494e+003,-2.100853e-004
3.899422e+003,-2.120723e-004
3.901351e+003,-4.048086e-004
3.903279e+003,-3.632953e-004
3.905208e+003,-1.721966e-004
3.907136e+003,-3.360810e-004
3.909065e+003,-2.904552e-004
3.910993e+003,-2.404203e-004
3.912922e+003,-3.008854e-004
3.914850e+003,-5.009578e-005
3.916779e+003,-5.274619e-005
3.918707e+003,-2.493283e-004
3.920636e+003,-3.587266e-004
3.922564e+003,-4.461525e-004
3.924493e+003,-2.850249e-004
3.926421e+003,-2.178017e-004
3.928350e+003,-3.381006e-004
3.930278e+003,-4.399959e-004
3.932207e+003,-3.953741e-004
3.934135e+003,-8.153522e-005
3.936064e+003,4.519718e-005
3.937992e+003,-9.597871e-005
3.939921e+003,-2.406190e-004
3.941849e+003,-2.182653e-004
3.943778e+003,-3.555137e-005
3.945706e+003,-1.090304e-004
3.947635e+003,-1.534829e-004
3.949563e+003,-9.783380e-005
3.951492e+003,-1.621277e-004
3.953420e+003,-5.933901e-005
3.955349e+003,-3.011780e-005
3.957277e+003,-1.655392e-004
3.959206e+003,-2.059455e-004
3.961134e+003,-2.495270e-004
3.963063e+003,-2.416456e-004
3.964991e+003,-3.648844e-004
3.966920e+003,-3.922624e-004
3.968848e+003,-2.487322e-004
3.970777e+003,-1.888892e-004
3.972705e+003,-1.484483e-004
3.974634e+003,-1.524892e-004
3.976562e+003,1.550701e-005
3.978491e+003,-4.052104e-005
3.980419e+003,-1.376501e-004
3.982348e+003,-1.640819e-004
3.984276e+003,-1.019746e-004
3.986205e+003,3.253885e-005
3.988133e+003,3.412490e-004
3.990062e+003,3.567350e-004
3.991990e+003,1.145263e-004
3.993919e+003,1.954354e-004
3.995847e+003,8.744953e-005
3.997776e+003,-1.853454e-004
3.999704e+003,-2.053162e-004
4.001633e+003,0.000000e+000
