3.991989e+002,3.048936e-003
4.011274e+002,8.677711e-003
4.030559e+002,5.151832e-003
4.049844e+002,-4.524887e-003
4.069129e+002,-4.613183e-003
4.088414e+002,6.347964e-003
4.107699e+002,1.164812e-002
4.126984e+002,1.161858e-002
4.146269e+002,4.369692e-003
4.165554e+002,-3.724326e-004
4.184839e+002,2.601542e-003
4.204124e+002,6.504435e-003
4.223409e+002,1.011637e-002
4.242694e+002,9.655575e-003
4.261979e+002,4.921379e-003
4.281264e+002,3.104330e-003
4.300549e+002,2.073966e-003
4.319834e+002,-2.866290e-003
4.339119e+002,-3.608374e-003
4.358404e+002,2.715323e-003
4.377689e+002,8.101925e-003
4.396974e+002,6.260220e-003
4.416259e+002,2.626143e-003
4.435544e+002,3.430294e-003
4.454829e+002,4.883713e-003
4.474114e+002,8.277941e-003
4.493399e+002,5.815182e-003
4.512684e+002,4.773261e-004
4.531969e+002,-1.673609e-004
4.551254e+002,4.156613e-003
4.570539e+002,5.262963e-003
4.589824e+002,2.276368e-005
4.609109e+002,1.196261e-003
4.628394e+002,3.349815e-003
4.647679e+002,1.161608e-003
4.666964e+002,9.003562e-004
4.686249e+002,3.710277e-004
4.705533e+002,-2.200045e-005
4.724819e+002,-6.891826e-006
4.744103e+002,3.790199e-004
4.763389e+002,1.058430e-003
4.782673e+002,1.368469e-003
4.801959e+002,1.205584e-004
4.821243e+002,6.121850e-004
4.840529e+002,9.004558e-004
4.859813e+002,2.520575e-004
4.879099e+002,-1.457570e-003
4.898383e+002,-1.492705e-003
4.917668e+002,-1.918294e-003
4.936953e+002,-1.322088e-003
4.956238e+002,-1.303297e-004
4.975523e+002,-1.008814e-004
4.994808e+002,-5.231363e-004
5.014093e+002,-7.115997e-004
5.033378e+002,-1.554250e-003
5.052663e+002,-2.238654e-003
5.071948e+002,-2.496255e-003
5.091233e+002,-3.742816e-003
5.110518e+002,-3.585799e-003
5.129803e+002,-3.140197e-003
5.149088e+002,-4.187505e-003
5.168373e+002,-2.907993e-003
5.187658e+002,-2.574885e-003
5.206943e+002,-2.888936e-003
5.226228e+002,-3.317204e-003
5.245513e+002,-4.105916e-003
5.264798e+002,-4.354277e-003
5.284083e+002,-4.281021e-003
5.303368e+002,-4.187669e-003
5.322653e+002,-3.596775e-003
5.341938e+002,-3.468796e-003
5.361223e+002,-4.257135e-003
5.380508e+002,-4.548857e-003
5.399792e+002,-2.511178e-003
5.419078e+002,-1.779425e-003
5.438363e+002,-2.280153e-003
5.457648e+002,-2.615693e-003
5.476932e+002,-3.036696e-003
5.496218e+002,-3.536175e-003
5.515503e+002,-2.678793e-003
5.534788e+002,-2.521621e-003
5.554072e+002,-2.237039e-003
5.573358e+002,-1.834133e-003
5.592643e+002,-1.194561e-003
5.611927e+002,-1.525988e-003
5.631212e+002,-2.012431e-003
5.650497e+002,-2.318089e-003
5.669783e+002,-2.618493e-003
5.689067e+002,-1.599743e-003
5.708352e+002,-1.633646e-003
5.727637e+002,-3.379215e-003
5.746923e+002,-4.632263e-003
5.766207e+002,-3.044724e-003
5.785492e+002,-2.113769e-004
5.804777e+002,2.826590e-004
5.824063e+002,-3.962755e-003
5.843347e+002,-3.990268e-003
5.862632e+002,-2.149775e-003
5.881917e+002,-2.874947e-003
5.901202e+002,-4.271801e-003
5.920487e+002,-5.813481e-003
5.939772e+002,-6.934139e-003
5.959057e+002,-7.556072e-003
5.978342e+002,-5.361520e-003
5.997627e+002,-2.861451e-003
6.016912e+002,-2.019027e-003
6.036197e+002,-3.030214e-003
6.055482e+002,-3.024620e-003
6.074767e+002,-9.199855e-004
6.094052e+002,5.881960e-004
6.113337e+002,1.195530e-003
6.132622e+002,8.209091e-004
6.151907e+002,-3.269761e-004
6.171192e+002,-2.226037e-004
6.190477e+002,-5.780692e-004
6.209762e+002,-7.001540e-004
6.229047e+002,-1.806714e-003
6.248332e+002,-4.134175e-003
6.267617e+002,-6.096449e-003
6.286902e+002,-5.938908e-003
6.306187e+002,-4.693923e-003
6.325472e+002,-3.606074e-003
6.344756e+002,-3.203615e-003
6.364042e+002,-3.119571e-003
6.383326e+002,-3.471393e-003
6.402612e+002,-3.339464e-003
6.421896e+002,-2.215315e-003
6.441182e+002,-2.422355e-003
6.460466e+002,-2.660516e-003
6.479752e+002,-2.410229e-003
6.499036e+002,-2.405121e-003
6.518322e+002,-2.172821e-003
6.537606e+002,-1.861847e-003
6.556891e+002,-1.678239e-003
6.576177e+002,-1.894739e-003
6.595461e+002,-2.327119e-003
6.614746e+002,-3.428330e-003
6.634031e+002,-3.608571e-003
6.653317e+002,-1.758404e-003
6.672601e+002,3.367913e-003
6.691886e+002,1.905937e-003
6.711171e+002,-2.025557e-003
6.730457e+002,-2.384065e-003
6.749741e+002,-2.268419e-003
6.769026e+002,-2.244060e-003
6.788311e+002,-2.397147e-003
6.807596e+002,-2.509333e-003
6.826881e+002,-2.764140e-003
6.846166e+002,-2.703786e-003
6.865451e+002,-3.129703e-003
6.884736e+002,-3.392365e-003
6.904021e+002,-3.534433e-003
6.923306e+002,-3.328120e-003
6.942591e+002,-3.190195e-003
6.961876e+002,-3.144605e-003
6.981161e+002,-3.459559e-003
7.000446e+002,-4.121146e-003
7.019731e+002,-4.524002e-003
7.039016e+002,-4.534462e-003
7.058301e+002,-4.554857e-003
7.077585e+002,-4.937427e-003
7.096871e+002,-5.283786e-003
7.116156e+002,-5.404620e-003
7.135441e+002,-6.081321e-003
7.154725e+002,-6.293907e-003
7.174011e+002,-6.120887e-003
7.193296e+002,-5.915636e-003
7.212581e+002,-5.558397e-003
7.231865e+002,-5.445065e-003
7.251151e+002,-5.703159e-003
7.270436e+002,-6.025871e-003
7.289720e+002,-5.838948e-003
7.309005e+002,-5.258645e-003
7.328290e+002,-5.161673e-003
7.347576e+002,-5.282050e-003
7.366860e+002,-5.610276e-003
7.386145e+002,-5.435642e-003
7.405430e+002,-4.524461e-003
7.424716e+002,-4.445756e-003
7.444000e+002,-4.281841e-003
7.463285e+002,-3.134013e-003
7.482570e+002,-2.491807e-003
7.501855e+002,-2.743726e-003
7.521140e+002,-2.524915e-003
7.540425e+002,-2.011376e-003
7.559710e+002,-1.787839e-003
7.578995e+002,-1.324995e-003
7.598280e+002,-1.058336e-003
7.617565e+002,-8.839774e-004
7.636850e+002,-3.084346e-004
7.656135e+002,5.915471e-004
7.675420e+002,8.950105e-004
7.694705e+002,3.995151e-004
7.713990e+002,-1.927973e-004
7.733275e+002,5.712684e-005
7.752560e+002,2.314035e-004
7.771844e+002,8.887459e-005
7.791130e+002,-4.323777e-005
7.810415e+002,8.986882e-005
7.829700e+002,2.392344e-005
7.848984e+002,-1.213862e-004
7.868270e+002,-3.045607e-004
7.887555e+002,-5.997756e-004
7.906840e+002,-1.172289e-003
7.926124e+002,-1.549496e-003
7.945410e+002,-1.646486e-003
7.964695e+002,-1.942638e-003
7.983979e+002,-2.264068e-003
8.003264e+002,-2.545602e-003
8.022549e+002,-2.832912e-003
8.041835e+002,-2.899633e-003
8.061119e+002,-3.035281e-003
8.080404e+002,-3.163881e-003
8.099689e+002,-2.701185e-003
8.118975e+002,-1.895828e-003
8.138259e+002,-1.654837e-003
8.157545e+002,-2.072155e-003
8.176830e+002,-2.453458e-003
8.196115e+002,-3.059004e-003
8.215399e+002,-3.364124e-003
8.234684e+002,-3.541072e-003
8.253970e+002,-3.667978e-003
8.273254e+002,-3.753853e-003
8.292539e+002,-4.134274e-003
8.311824e+002,-3.853571e-003
8.331110e+002,-3.783416e-003
8.350394e+002,-4.138344e-003
8.369679e+002,-4.174575e-003
8.388964e+002,-3.878070e-003
8.408250e+002,-3.890286e-003
8.427534e+002,-4.243354e-003
8.446819e+002,-4.439394e-003
8.466104e+002,-4.132895e-003
8.485389e+002,-3.967581e-003
8.504674e+002,-4.080905e-003
8.523959e+002,-4.143988e-003
8.543244e+002,-3.912780e-003
8.562529e+002,-3.579785e-003
8.581814e+002,-3.234531e-003
8.601099e+002,-3.387204e-003
8.620384e+002,-3.708224e-003
8.639669e+002,-3.552706e-003
8.658954e+002,-3.494861e-003
8.678239e+002,-3.698171e-003
8.697524e+002,-3.421361e-003
8.716809e+002,-3.122664e-003
8.736094e+002,-3.282084e-003
8.755378e+002,-3.628451e-003
8.774664e+002,-3.264918e-003
8.793949e+002,-2.843446e-003
8.813234e+002,-2.920565e-003
8.832518e+002,-2.901410e-003
8.851804e+002,-2.996816e-003
8.871089e+002,-3.093253e-003
8.890374e+002,-3.170098e-003
8.909658e+002,-3.087956e-003
8.928943e+002,-2.844335e-003
8.948229e+002,-2.691800e-003
8.967513e+002,-2.756830e-003
8.986798e+002,-2.985759e-003
9.006083e+002,-3.162631e-003
9.025369e+002,-3.032485e-003
9.044653e+002,-3.034590e-003
9.063938e+002,-3.470341e-003
9.083223e+002,-3.948045e-003
9.102509e+002,-4.051461e-003
9.121793e+002,-3.868218e-003
9.141078e+002,-4.011181e-003
9.160364e+002,-4.313533e-003
9.179648e+002,-4.483175e-003
9.198933e+002,-4.723618e-003
9.218218e+002,-4.734893e-003
9.237504e+002,-4.993769e-003
9.256788e+002,-5.546064e-003
9.276073e+002,-5.833718e-003
9.295358e+002,-5.828847e-003
9.314644e+002,-5.974009e-003
9.333928e+002,-6.113960e-003
9.353213e+002,-6.266801e-003
9.372498e+002,-6.269870e-003
9.391783e+002,-6.480765e-003
9.411068e+002,-6.801954e-003
9.430353e+002,-6.651521e-003
9.449637e+002,-6.319771e-003
9.468923e+002,-6.258897e-003
9.488208e+002,-6.470286e-003
9.507493e+002,-6.274671e-003
9.526777e+002,-6.040216e-003
9.546063e+002,-5.836921e-003
9.565348e+002,-5.708751e-003
9.584633e+002,-5.740634e-003
9.603917e+002,-5.689621e-003
9.623203e+002,-5.521398e-003
9.642488e+002,-5.262705e-003
9.661772e+002,-5.118025e-003
9.681057e+002,-5.118844e-003
9.700343e+002,-5.021971e-003
9.719628e+002,-4.717161e-003
9.738912e+002,-4.512263e-003
9.758197e+002,-4.478191e-003
9.777483e+002,-4.391376e-003
9.796768e+002,-4.225406e-003
9.816052e+002,-4.141625e-003
9.835337e+002,-4.120850e-003
9.854623e+002,-4.043812e-003
9.873907e+002,-4.023951e-003
9.893192e+002,-3.942234e-003
9.912477e+002,-3.989349e-003
9.931763e+002,-3.797146e-003
9.951047e+002,-3.508140e-003
9.970332e+002,-3.523193e-003
9.989617e+002,-3.636173e-003
1.000890e+003,-3.514976e-003
1.002819e+003,-3.163059e-003
1.004747e+003,-3.108057e-003
1.006676e+003,-3.073118e-003
1.008604e+003,-2.936297e-003
1.010533e+003,-2.866093e-003
1.012461e+003,-2.709548e-003
1.014390e+003,-2.572481e-003
1.016318e+003,-2.417214e-003
1.018247e+003,-2.156006e-003
1.020175e+003,-1.859868e-003
1.022104e+003,-1.537445e-003
1.024032e+003,-1.473222e-003
1.025961e+003,-1.358027e-003
1.027889e+003,-1.129395e-003
1.029818e+003,-9.247467e-004
1.031746e+003,-7.199689e-004
1.033675e+003,-4.026569e-004
1.035603e+003,-1.776284e-004
1.037532e+003,-7.666540e-005
1.039460e+003,-6.361689e-006
1.041389e+003,9.686160e-005
1.043317e+003,2.404540e-004
1.045246e+003,2.174137e-004
1.047174e+003,2.709221e-004
1.049103e+003,3.983212e-004
1.051031e+003,2.409181e-004
1.052960e+003,1.855571e-004
1.054888e+003,2.473166e-004
1.056817e+003,2.390616e-004
1.058745e+003,1.316615e-004
1.060674e+003,2.474824e-004
1.062602e+003,3.316326e-004
1.064531e+003,4.179550e-004
1.066459e+003,4.905945e-004
1.068388e+003,5.116921e-004
1.070316e+003,7.059309e-004
1.072245e+003,1.028073e-003
1.074173e+003,9.402345e-004
1.076102e+003,6.925895e-004
1.078030e+003,7.879460e-004
1.079959e+003,8.129088e-004
1.081887e+003,8.764840e-004
1.083816e+003,1.397653e-003
1.085744e+003,1.691602e-003
1.087673e+003,1.642674e-003
1.089601e+003,1.759032e-003
1.091530e+003,2.105396e-003
1.093458e+003,2.317337e-003
1.095387e+003,2.481160e-003
1.097315e+003,2.663479e-003
1.099244e+003,2.687150e-003
1.101172e+003,2.800487e-003
1.103101e+003,2.949513e-003
1.105029e+003,3.100959e-003
1.106958e+003,3.139505e-003
1.108886e+003,3.169376e-003
1.110815e+003,3.204256e-003
1.112743e+003,3.231962e-003
1.114672e+003,3.240575e-003
1.116600e+003,3.509618e-003
1.118529e+003,3.785915e-003
1.120457e+003,3.616421e-003
1.122386e+003,3.455676e-003
1.124314e+003,3.365175e-003
1.126243e+003,3.085609e-003
1.128171e+003,2.821263e-003
1.130100e+003,2.794384e-003
1.132028e+003,2.600875e-003
1.133957e+003,2.294619e-003
1.135885e+003,2.007552e-003
1.137814e+003,1.572868e-003
1.139742e+003,8.513848e-004
1.141671e+003,5.632793e-004
1.143599e+003,2.701596e-004
1.145528e+003,-2.220407e-004
1.147456e+003,-7.009479e-004
1.149385e+003,-1.016224e-003
1.151313e+003,-1.342271e-003
1.153242e+003,-1.659062e-003
1.155170e+003,-1.807473e-003
1.157099e+003,-1.933468e-003
1.159027e+003,-2.088017e-003
1.160956e+003,-2.309454e-003
1.162884e+003,-2.409306e-003
1.164813e+003,-2.631700e-003
1.166741e+003,-2.730227e-003
1.168670e+003,-2.844532e-003
1.170598e+003,-2.859081e-003
1.172526e+003,-2.696344e-003
1.174455e+003,-2.891766e-003
1.176384e+003,-2.937218e-003
1.178312e+003,-2.862077e-003
1.180240e+003,-2.956668e-003
1.182169e+003,-2.965817e-003
1.184098e+003,-3.042454e-003
1.186026e+003,-3.033208e-003
1.187954e+003,-2.865533e-003
1.189883e+003,-2.961276e-003
1.191812e+003,-3.091871e-003
1.193740e+003,-3.039065e-003
1.195668e+003,-3.078547e-003
1.197597e+003,-3.275606e-003
1.199526e+003,-3.252685e-003
1.201454e+003,-2.987865e-003
1.203382e+003,-2.809572e-003
1.205311e+003,-2.746854e-003
1.207240e+003,-2.698945e-003
1.209168e+003,-2.658244e-003
1.211096e+003,-2.524849e-003
1.213025e+003,-2.265024e-003
1.214953e+003,-2.034330e-003
1.216882e+003,-2.044784e-003
1.218810e+003,-2.110406e-003
1.220739e+003,-2.005307e-003
1.222667e+003,-1.882236e-003
1.224596e+003,-1.723852e-003
1.226524e+003,-1.617801e-003
1.228453e+003,-1.516281e-003
1.230381e+003,-1.516446e-003
1.232310e+003,-1.453244e-003
1.234238e+003,-1.333980e-003
1.236167e+003,-1.288360e-003
1.238095e+003,-1.163863e-003
1.240024e+003,-1.114788e-003
1.241952e+003,-1.273592e-003
1.243881e+003,-1.602087e-003
1.245809e+003,-1.903779e-003
1.247738e+003,-2.028394e-003
1.249666e+003,-1.903779e-003
1.251595e+003,-1.933138e-003
1.253523e+003,-2.078157e-003
1.255452e+003,-2.234401e-003
1.257380e+003,-2.303225e-003
1.259309e+003,-2.311300e-003
1.261237e+003,-2.245543e-003
1.263166e+003,-2.154918e-003
1.265094e+003,-1.944848e-003
1.267023e+003,-1.558476e-003
1.268951e+003,-1.225323e-003
1.270880e+003,-1.005018e-003
1.272808e+003,-9.703059e-004
1.274737e+003,-7.797057e-004
1.276665e+003,-5.358112e-004
1.278594e+003,-3.529991e-004
1.280522e+003,-9.339482e-005
1.282451e+003,1.478030e-004
1.284379e+003,5.898218e-004
1.286308e+003,9.758991e-004
1.288236e+003,1.336428e-003
1.290165e+003,1.802017e-003
1.292093e+003,2.118581e-003
1.294022e+003,2.399890e-003
1.295950e+003,2.705454e-003
1.297879e+003,2.968295e-003
1.299807e+003,3.083773e-003
1.301736e+003,3.164136e-003
1.303664e+003,3.177086e-003
1.305593e+003,3.089513e-003
1.307521e+003,3.076699e-003
1.309450e+003,2.929764e-003
1.311378e+003,2.590509e-003
1.313307e+003,2.309709e-003
1.315235e+003,2.080492e-003
1.317164e+003,1.954861e-003
1.319092e+003,1.602299e-003
1.321021e+003,1.194168e-003
1.322949e+003,9.817438e-004
1.324878e+003,7.672001e-004
1.326806e+003,5.459613e-004
1.328735e+003,4.442564e-004
1.330663e+003,3.558065e-004
1.332592e+003,2.289834e-004
1.334520e+003,6.501385e-005
1.336449e+003,2.107376e-005
1.338377e+003,1.252979e-004
1.340306e+003,9.129387e-005
1.342234e+003,6.216390e-005
1.344163e+003,-1.958178e-005
1.346091e+003,-9.064527e-005
1.348020e+003,-6.891334e-005
1.349948e+003,-1.267855e-004
1.351877e+003,-2.944949e-004
1.353805e+003,-3.464107e-004
1.355734e+003,-3.269761e-004
1.357662e+003,-4.171229e-004
1.359591e+003,-4.906698e-004
1.361519e+003,-5.453420e-004
1.363448e+003,-7.162309e-004
1.365376e+003,-9.898770e-004
1.367305e+003,-1.139607e-003
1.369233e+003,-1.255620e-003
1.371162e+003,-1.308742e-003
1.373090e+003,-1.200938e-003
1.375019e+003,-1.208240e-003
1.376947e+003,-1.212371e-003
1.378876e+003,-1.134914e-003
1.380804e+003,-1.172653e-003
1.382733e+003,-1.229948e-003
1.384661e+003,-1.322154e-003
1.386590e+003,-1.469293e-003
1.388518e+003,-1.720749e-003
1.390447e+003,-2.024832e-003
1.392375e+003,-2.257937e-003
1.394304e+003,-2.320825e-003
1.396232e+003,-2.544746e-003
1.398161e+003,-2.591090e-003
1.400089e+003,-2.531932e-003
1.402018e+003,-2.695751e-003
1.403946e+003,-2.764238e-003
1.405875e+003,-2.873959e-003
1.407803e+003,-3.102465e-003
1.409732e+003,-3.158947e-003
1.411660e+003,-3.059366e-003
1.413589e+003,-2.904504e-003
1.415517e+003,-2.626266e-003
1.417446e+003,-2.138861e-003
1.419374e+003,-1.533219e-003
1.421303e+003,-1.036487e-003
1.423231e+003,-3.435304e-004
1.425160e+003,3.237408e-004
1.427088e+003,6.383655e-004
1.429017e+003,9.526869e-004
1.430945e+003,1.296281e-003
1.432874e+003,1.737275e-003
1.434802e+003,2.381966e-003
1.436731e+003,2.821363e-003
1.438659e+003,2.883765e-003
1.440588e+003,3.250055e-003
1.442516e+003,3.880649e-003
1.444445e+003,4.328460e-003
1.446373e+003,4.808560e-003
1.448302e+003,5.378651e-003
1.450230e+003,5.869989e-003
1.452159e+003,6.331523e-003
1.454087e+003,6.891298e-003
1.456016e+003,7.799188e-003
1.457944e+003,8.229718e-003
1.459873e+003,8.016661e-003
1.461801e+003,7.937994e-003
1.463730e+003,8.094059e-003
1.465658e+003,8.132173e-003
1.467587e+003,7.863423e-003
1.469515e+003,7.732432e-003
1.471444e+003,7.730105e-003
1.473372e+003,7.518844e-003
1.475301e+003,7.122193e-003
1.477229e+003,6.540257e-003
1.479158e+003,5.905927e-003
1.481086e+003,5.438101e-003
1.483015e+003,4.905662e-003
1.484943e+003,4.392184e-003
1.486872e+003,3.977176e-003
1.488800e+003,3.637637e-003
1.490729e+003,3.301168e-003
1.492657e+003,2.701720e-003
1.494586e+003,2.287391e-003
1.496514e+003,2.097804e-003
1.498443e+003,1.597377e-003
1.500371e+003,9.688921e-004
1.502300e+003,5.936706e-004
1.504228e+003,6.190203e-004
1.506157e+003,8.970691e-004
1.508085e+003,4.735115e-004
1.510014e+003,-1.227443e-004
1.511942e+003,-4.439348e-004
1.513871e+003,-5.660243e-004
1.515799e+003,-4.522429e-004
1.517728e+003,-3.728629e-004
1.519656e+003,-2.273063e-004
1.521585e+003,6.077208e-005
1.523513e+003,3.946443e-005
1.525442e+003,1.448199e-004
1.527370e+003,1.962973e-004
1.529299e+003,2.585888e-004
1.531227e+003,4.196465e-004
1.533156e+003,9.104167e-004
1.535084e+003,1.159847e-003
1.537013e+003,1.475411e-003
1.538941e+003,2.209322e-003
1.540870e+003,2.682916e-003
1.542798e+003,2.829067e-003
1.544727e+003,2.914086e-003
1.546655e+003,2.908182e-003
1.548584e+003,3.237103e-003
1.550512e+003,3.750754e-003
1.552441e+003,4.244234e-003
1.554369e+003,4.784673e-003
1.556298e+003,5.355873e-003
1.558226e+003,6.442452e-003
1.560155e+003,7.013616e-003
1.562083e+003,6.952133e-003
1.564012e+003,7.118185e-003
1.565940e+003,7.131152e-003
1.567869e+003,7.273923e-003
1.569797e+003,7.646128e-003
1.571726e+003,7.521844e-003
1.573654e+003,7.486279e-003
1.575583e+003,7.807453e-003
1.577511e+003,7.655435e-003
1.579440e+003,7.370904e-003
1.581368e+003,7.338283e-003
1.583297e+003,7.194615e-003
1.585225e+003,7.045338e-003
1.587154e+003,6.790418e-003
1.589082e+003,6.384983e-003
1.591010e+003,5.943513e-003
1.592939e+003,5.528699e-003
1.594868e+003,5.232780e-003
1.596796e+003,4.867227e-003
1.598724e+003,4.285960e-003
1.600653e+003,3.693841e-003
1.602582e+003,3.234466e-003
1.604510e+003,2.767339e-003
1.606438e+003,2.293354e-003
1.608367e+003,1.912560e-003
1.610296e+003,1.429466e-003
1.612224e+003,9.393380e-004
1.614152e+003,7.924605e-004
1.616081e+003,7.923940e-004
1.618010e+003,4.381204e-004
1.619938e+003,7.452485e-005
1.621866e+003,1.176274e-005
1.623795e+003,-2.611502e-004
1.625724e+003,-5.866063e-004
1.627652e+003,-7.707093e-004
1.629580e+003,-9.334423e-004
1.631509e+003,-1.181178e-003
1.633438e+003,-1.136368e-003
1.635366e+003,-9.703720e-004
1.637294e+003,-1.276103e-003
1.639223e+003,-1.717911e-003
1.641151e+003,-2.063944e-003
1.643080e+003,-2.362250e-003
1.645008e+003,-2.363832e-003
1.646937e+003,-2.337039e-003
1.648865e+003,-2.646322e-003
1.650794e+003,-2.620864e-003
1.652722e+003,-2.161182e-003
1.654651e+003,-2.745866e-003
1.656579e+003,-3.440461e-003
1.658508e+003,-3.570649e-003
1.660436e+003,-3.580048e-003
1.662365e+003,-3.629240e-003
1.664293e+003,-3.789230e-003
1.666222e+003,-3.935371e-003
1.668150e+003,-3.814225e-003
1.670079e+003,-3.936488e-003
1.672007e+003,-4.266781e-003
1.673936e+003,-4.333708e-003
1.675864e+003,-4.562004e-003
1.677793e+003,-5.109642e-003
1.679721e+003,-5.451544e-003
1.681650e+003,-5.561668e-003
1.683578e+003,-5.345909e-003
1.685507e+003,-5.798965e-003
1.687435e+003,-6.323461e-003
1.689364e+003,-6.581914e-003
1.691292e+003,-6.771356e-003
1.693221e+003,-6.837213e-003
1.695149e+003,-6.696124e-003
1.697078e+003,-6.822536e-003
1.699006e+003,-6.628581e-003
1.700935e+003,-6.592717e-003
1.702863e+003,-7.091547e-003
1.704792e+003,-7.168307e-003
1.706720e+003,-7.414858e-003
1.708649e+003,-7.749354e-003
1.710577e+003,-7.902855e-003
1.712506e+003,-7.952439e-003
1.714434e+003,-7.843276e-003
1.716363e+003,-7.671036e-003
1.718291e+003,-7.725462e-003
1.720220e+003,-7.971079e-003
1.722148e+003,-8.188497e-003
1.724077e+003,-8.358909e-003
1.726005e+003,-8.393490e-003
1.727934e+003,-8.329851e-003
1.729862e+003,-8.249036e-003
1.731791e+003,-8.076956e-003
1.733719e+003,-7.919936e-003
1.735648e+003,-8.254206e-003
1.737576e+003,-8.346102e-003
1.739505e+003,-8.194057e-003
1.741433e+003,-8.261780e-003
1.743362e+003,-8.270720e-003
1.745290e+003,-8.210835e-003
1.747219e+003,-8.089185e-003
1.749147e+003,-7.912030e-003
1.751076e+003,-7.828340e-003
1.753004e+003,-7.977846e-003
1.754933e+003,-8.012750e-003
1.756861e+003,-7.939425e-003
1.758790e+003,-8.006732e-003
1.760718e+003,-7.910241e-003
1.762647e+003,-7.900155e-003
1.764575e+003,-8.028005e-003
1.766504e+003,-7.939458e-003
1.768432e+003,-7.875166e-003
1.770361e+003,-7.826486e-003
1.772289e+003,-7.690926e-003
1.774218e+003,-7.820856e-003
1.776146e+003,-7.996811e-003
1.778075e+003,-8.061962e-003
1.780003e+003,-8.031258e-003
1.781932e+003,-8.047066e-003
1.783860e+003,-8.044692e-003
1.785789e+003,-7.965353e-003
1.787717e+003,-7.953707e-003
1.789646e+003,-7.911867e-003
1.791574e+003,-7.813534e-003
1.793503e+003,-7.844383e-003
1.795431e+003,-7.949738e-003
1.797360e+003,-7.921824e-003
1.799288e+003,-7.943849e-003
1.801217e+003,-8.064695e-003
1.803145e+003,-8.182092e-003
1.805074e+003,-8.176174e-003
1.807002e+003,-8.070028e-003
1.808931e+003,-8.013368e-003
1.810859e+003,-8.027973e-003
1.812788e+003,-8.093933e-003
1.814716e+003,-8.156631e-003
1.816645e+003,-8.149575e-003
1.818573e+003,-8.119333e-003
1.820502e+003,-8.179490e-003
1.822430e+003,-8.204397e-003
1.824359e+003,-8.093217e-003
1.826287e+003,-8.104633e-003
1.828216e+003,-8.115072e-003
1.830144e+003,-8.080306e-003
1.832073e+003,-8.260155e-003
1.834001e+003,-8.306187e-003
1.835930e+003,-8.287495e-003
1.837858e+003,-8.371682e-003
1.839787e+003,-8.354066e-003
1.841715e+003,-8.285447e-003
1.843644e+003,-8.111754e-003
1.845572e+003,-8.212200e-003
1.847501e+003,-8.460271e-003
1.849429e+003,-8.468947e-003
1.851358e+003,-8.334531e-003
1.853286e+003,-8.278360e-003
1.855215e+003,-8.206315e-003
1.857143e+003,-8.145706e-003
1.859072e+003,-8.178483e-003
1.861000e+003,-8.224750e-003
1.862929e+003,-8.273873e-003
1.864857e+003,-8.135527e-003
1.866786e+003,-8.044073e-003
1.868714e+003,-8.043260e-003
1.870643e+003,-8.136210e-003
1.872571e+003,-8.209469e-003
1.874500e+003,-8.139852e-003
1.876428e+003,-8.095006e-003
1.878357e+003,-8.059913e-003
1.880285e+003,-7.963109e-003
1.882214e+003,-7.921888e-003
1.884142e+003,-7.923711e-003
1.886071e+003,-7.962849e-003
1.887999e+003,-7.912714e-003
1.889928e+003,-7.899309e-003
1.891856e+003,-8.015157e-003
1.893785e+003,-8.011188e-003
1.895713e+003,-7.974495e-003
1.897642e+003,-7.955692e-003
1.899570e+003,-7.844611e-003
1.901499e+003,-7.819423e-003
1.903427e+003,-7.901196e-003
1.905356e+003,-7.948047e-003
1.907284e+003,-7.939360e-003
1.909213e+003,-7.956603e-003
1.911141e+003,-7.958034e-003
1.913070e+003,-7.980091e-003
1.914998e+003,-7.890198e-003
1.916927e+003,-7.752413e-003
1.918855e+003,-7.714167e-003
1.920784e+003,-7.792445e-003
1.922712e+003,-7.848874e-003
1.924641e+003,-7.927322e-003
1.926569e+003,-7.878159e-003
1.928498e+003,-7.978659e-003
1.930426e+003,-8.028363e-003
1.932355e+003,-8.007318e-003
1.934283e+003,-8.041732e-003
1.936212e+003,-8.041277e-003
1.938140e+003,-8.085379e-003
1.940069e+003,-8.094323e-003
1.941997e+003,-7.999088e-003
1.943926e+003,-8.030640e-003
1.945854e+003,-8.162062e-003
1.947783e+003,-8.177410e-003
1.949711e+003,-8.166289e-003
1.951640e+003,-8.177800e-003
1.953568e+003,-8.144177e-003
1.955497e+003,-8.211941e-003
1.957425e+003,-8.288112e-003
1.959354e+003,-8.187067e-003
1.961282e+003,-8.162127e-003
1.963211e+003,-8.237755e-003
1.965139e+003,-8.236747e-003
1.967068e+003,-8.196008e-003
1.968996e+003,-8.256806e-003
1.970925e+003,-8.248744e-003
1.972853e+003,-8.128177e-003
1.974782e+003,-8.068110e-003
1.976710e+003,-8.045993e-003
1.978639e+003,-7.988841e-003
1.980567e+003,-8.041569e-003
1.982496e+003,-8.067394e-003
1.984424e+003,-7.982107e-003
1.986353e+003,-7.915838e-003
1.988281e+003,-7.925045e-003
1.990210e+003,-7.940238e-003
1.992138e+003,-7.846889e-003
1.994067e+003,-7.835662e-003
1.995995e+003,-7.891435e-003
1.997924e+003,-7.932040e-003
1.999852e+003,-7.919286e-003
2.001781e+003,-7.904449e-003
2.003709e+003,-7.841455e-003
2.005638e+003,-7.781184e-003
2.007566e+003,-7.697827e-003
2.009495e+003,-7.660293e-003
2.011423e+003,-7.747530e-003
2.013352e+003,-7.737799e-003
2.015280e+003,-7.710945e-003
2.017208e+003,-7.683341e-003
2.019137e+003,-7.589806e-003
2.021066e+003,-7.588569e-003
2.022994e+003,-7.661562e-003
2.024922e+003,-7.639913e-003
2.026851e+003,-7.626662e-003
2.028780e+003,-7.632881e-003
2.030708e+003,-7.651666e-003
2.032636e+003,-7.620477e-003
2.034565e+003,-7.612467e-003
2.036494e+003,-7.669343e-003
2.038422e+003,-7.653587e-003
2.040350e+003,-7.658925e-003
2.042279e+003,-7.601853e-003
2.044208e+003,-7.539791e-003
2.046136e+003,-7.569944e-003
2.048064e+003,-7.630179e-003
2.049993e+003,-7.614063e-003
2.051921e+003,-7.595601e-003
2.053850e+003,-7.528849e-003
2.055778e+003,-7.462999e-003
2.057707e+003,-7.372609e-003
2.059635e+003,-7.337425e-003
2.061564e+003,-7.400558e-003
2.063492e+003,-7.520708e-003
2.065421e+003,-7.501722e-003
2.067349e+003,-7.378570e-003
2.069278e+003,-7.373684e-003
2.071206e+003,-7.339152e-003
2.073135e+003,-7.325273e-003
2.075063e+003,-7.288522e-003
2.076992e+003,-7.213803e-003
2.078920e+003,-7.133498e-003
2.080849e+003,-7.113029e-003
2.082777e+003,-7.189427e-003
2.084706e+003,-7.242545e-003
2.086634e+003,-7.273370e-003
2.088563e+003,-7.207188e-003
2.090491e+003,-7.105955e-003
2.092420e+003,-7.060383e-003
2.094348e+003,-6.961138e-003
2.096277e+003,-6.908964e-003
2.098205e+003,-6.921486e-003
2.100134e+003,-6.883722e-003
2.102062e+003,-6.810043e-003
2.103991e+003,-6.798724e-003
2.105919e+003,-6.721410e-003
2.107848e+003,-6.591248e-003
2.109776e+003,-6.617714e-003
2.111705e+003,-6.724835e-003
2.113633e+003,-6.619900e-003
2.115562e+003,-6.439306e-003
2.117490e+003,-6.403361e-003
2.119419e+003,-6.392782e-003
2.121347e+003,-6.468491e-003
2.123276e+003,-6.542554e-003
2.125204e+003,-6.446814e-003
2.127133e+003,-6.321926e-003
2.129061e+003,-6.174136e-003
2.130990e+003,-6.089391e-003
2.132918e+003,-6.172895e-003
2.134847e+003,-6.240934e-003
2.136775e+003,-6.213269e-003
2.138704e+003,-6.133334e-003
2.140632e+003,-6.117914e-003
2.142561e+003,-6.164467e-003
2.144489e+003,-6.229796e-003
2.146418e+003,-6.249915e-003
2.148346e+003,-6.172046e-003
2.150275e+003,-6.124154e-003
2.152203e+003,-6.059070e-003
2.154132e+003,-6.024401e-003
2.156060e+003,-6.092495e-003
2.157989e+003,-6.159175e-003
2.159917e+003,-6.186320e-003
2.161846e+003,-6.208892e-003
2.163774e+003,-6.170086e-003
2.165703e+003,-6.054169e-003
2.167631e+003,-6.007147e-003
2.169560e+003,-6.040641e-003
2.171488e+003,-6.014172e-003
2.173417e+003,-6.009238e-003
2.175345e+003,-6.056064e-003
2.177274e+003,-6.017669e-003
2.179202e+003,-6.041915e-003
2.181131e+003,-6.074264e-003
2.183059e+003,-6.046000e-003
2.184988e+003,-5.966851e-003
2.186916e+003,-5.962145e-003
2.188845e+003,-6.015316e-003
2.190773e+003,-6.038288e-003
2.192702e+003,-5.956524e-003
2.194630e+003,-5.871083e-003
2.196559e+003,-5.860623e-003
2.198487e+003,-5.889029e-003
2.200416e+003,-5.950314e-003
2.202344e+003,-5.907497e-003
2.204273e+003,-5.911943e-003
2.206201e+003,-5.934169e-003
2.208130e+003,-5.890336e-003
2.210058e+003,-5.877588e-003
2.211987e+003,-5.841923e-003
2.213915e+003,-5.802986e-003
2.215844e+003,-5.760710e-003
2.217772e+003,-5.775261e-003
2.219701e+003,-5.848429e-003
2.221629e+003,-5.889160e-003
2.223558e+003,-5.879713e-003
2.225486e+003,-5.786540e-003
2.227415e+003,-5.778268e-003
2.229343e+003,-5.811127e-003
2.231272e+003,-5.845029e-003
2.233200e+003,-5.830383e-003
2.235129e+003,-5.843068e-003
2.237057e+003,-5.863434e-003
2.238986e+003,-5.839537e-003
2.240914e+003,-5.935051e-003
2.242843e+003,-5.936816e-003
2.244771e+003,-5.917074e-003
2.246700e+003,-5.938319e-003
2.248628e+003,-5.891775e-003
2.250557e+003,-5.978355e-003
2.252485e+003,-6.036916e-003
2.254414e+003,-5.959890e-003
2.256342e+003,-5.926880e-003
2.258271e+003,-5.987996e-003
2.260199e+003,-6.053254e-003
2.262128e+003,-6.062370e-003
2.264056e+003,-6.008813e-003
2.265985e+003,-5.997245e-003
2.267913e+003,-5.989532e-003
2.269842e+003,-5.958779e-003
2.271770e+003,-5.972963e-003
2.273699e+003,-6.017963e-003
2.275627e+003,-6.083674e-003
2.277556e+003,-6.171425e-003
2.279484e+003,-6.159730e-003
2.281413e+003,-6.094586e-003
2.283341e+003,-6.157084e-003
2.285270e+003,-6.157933e-003
2.287198e+003,-6.166982e-003
2.289127e+003,-6.148035e-003
2.291055e+003,-6.116411e-003
2.292984e+003,-6.116280e-003
2.294912e+003,-6.059266e-003
2.296841e+003,-5.874319e-003
2.298769e+003,-5.643114e-003
2.300698e+003,-5.467741e-003
2.302626e+003,-5.253080e-003
2.304555e+003,-5.078073e-003
2.306483e+003,-4.880290e-003
2.308412e+003,-4.543381e-003
2.310340e+003,-4.071255e-003
2.312269e+003,-3.487762e-003
2.314197e+003,-2.897098e-003
2.316125e+003,-2.213766e-003
2.318054e+003,-1.549496e-003
2.319983e+003,-8.690971e-004
2.321911e+003,-8.299284e-005
2.323840e+003,6.851557e-004
2.325768e+003,1.244241e-003
2.327697e+003,1.792169e-003
2.329625e+003,2.584509e-003
2.331553e+003,3.020275e-003
2.333482e+003,3.073696e-003
2.335411e+003,3.295525e-003
2.337339e+003,3.644787e-003
2.339268e+003,3.735380e-003
2.341196e+003,3.568512e-003
2.343125e+003,3.018440e-003
2.345053e+003,1.598707e-003
2.346981e+003,-6.076837e-004
2.348910e+003,-1.852577e-003
2.350839e+003,-3.760741e-004
2.352767e+003,2.338990e-003
2.354696e+003,4.488925e-003
2.356624e+003,5.939751e-003
2.358552e+003,6.777831e-003
2.360481e+003,7.057192e-003
2.362409e+003,7.025099e-003
2.364338e+003,6.645250e-003
2.366267e+003,5.820253e-003
2.368195e+003,4.694430e-003
2.370124e+003,3.411558e-003
2.372052e+003,1.870463e-003
2.373980e+003,1.938774e-004
2.375909e+003,-1.442181e-003
2.377838e+003,-2.869483e-003
2.379766e+003,-3.999854e-003
2.381695e+003,-4.676648e-003
2.383623e+003,-5.065071e-003
2.385552e+003,-5.288597e-003
2.387480e+003,-5.305618e-003
2.389408e+003,-5.245322e-003
2.391337e+003,-5.212126e-003
2.393266e+003,-5.271805e-003
2.395194e+003,-5.240084e-003
2.397123e+003,-5.097755e-003
2.399051e+003,-5.095724e-003
2.400979e+003,-5.080071e-003
2.402908e+003,-5.035432e-003
2.404836e+003,-5.016468e-003
2.406765e+003,-5.040541e-003
2.408694e+003,-5.027964e-003
2.410622e+003,-5.014142e-003
2.412551e+003,-4.994130e-003
2.414479e+003,-4.867905e-003
2.416407e+003,-4.806172e-003
2.418336e+003,-4.823835e-003
2.420264e+003,-4.852702e-003
2.422193e+003,-4.789820e-003
2.424122e+003,-4.647146e-003
2.426050e+003,-4.552627e-003
2.427979e+003,-4.582136e-003
2.429907e+003,-4.504163e-003
2.431835e+003,-4.413516e-003
2.433764e+003,-4.340237e-003
2.435692e+003,-4.312188e-003
2.437621e+003,-4.348176e-003
2.439550e+003,-4.379961e-003
2.441478e+003,-4.270555e-003
2.443406e+003,-4.173066e-003
2.445335e+003,-4.118225e-003
2.447263e+003,-4.051953e-003
2.449192e+003,-4.026643e-003
2.451121e+003,-3.952970e-003
2.453049e+003,-3.867890e-003
2.454978e+003,-3.771723e-003
2.456906e+003,-3.746889e-003
2.458834e+003,-3.783646e-003
2.460763e+003,-3.752375e-003
2.462691e+003,-3.803091e-003
2.464620e+003,-3.782201e-003
2.466549e+003,-3.559410e-003
2.468477e+003,-3.479380e-003
2.470406e+003,-3.531837e-003
2.472334e+003,-3.600258e-003
2.474262e+003,-3.528484e-003
2.476191e+003,-3.468599e-003
2.478119e+003,-3.439080e-003
2.480048e+003,-3.424780e-003
2.481977e+003,-3.356989e-003
2.483905e+003,-3.382305e-003
2.485833e+003,-3.450519e-003
2.487762e+003,-3.408968e-003
2.489690e+003,-3.380102e-003
2.491619e+003,-3.345021e-003
2.493547e+003,-3.270048e-003
2.495476e+003,-3.162236e-003
2.497405e+003,-3.129045e-003
2.499333e+003,-3.218678e-003
2.501261e+003,-3.236043e-003
2.503190e+003,-3.162401e-003
2.505118e+003,-3.150197e-003
2.507047e+003,-3.219731e-003
2.508975e+003,-3.254132e-003
2.510904e+003,-3.229565e-003
2.512833e+003,-3.144605e-003
2.514761e+003,-3.054398e-003
2.516689e+003,-3.001488e-003
2.518618e+003,-2.934289e-003
2.520546e+003,-2.841701e-003
2.522475e+003,-2.927839e-003
2.524403e+003,-3.026101e-003
2.526332e+003,-2.974143e-003
2.528260e+003,-2.964106e-003
2.530189e+003,-2.988622e-003
2.532117e+003,-2.979704e-003
2.534046e+003,-2.976051e-003
2.535974e+003,-2.891437e-003
2.537903e+003,-2.877086e-003
2.539831e+003,-2.771481e-003
2.541760e+003,-2.739973e-003
2.543688e+003,-2.668650e-003
2.545617e+003,-2.671548e-003
2.547545e+003,-2.723246e-003
2.549474e+003,-2.689396e-003
2.551402e+003,-2.717517e-003
2.553331e+003,-2.713072e-003
2.555259e+003,-2.552454e-003
2.557188e+003,-2.564707e-003
2.559116e+003,-2.642864e-003
2.561045e+003,-2.591321e-003
2.562973e+003,-2.514044e-003
2.564902e+003,-2.432931e-003
2.566830e+003,-2.296897e-003
2.568759e+003,-2.333249e-003
2.570687e+003,-2.388448e-003
2.572616e+003,-2.322110e-003
2.574544e+003,-2.261233e-003
2.576473e+003,-2.319704e-003
2.578401e+003,-2.328800e-003
2.580330e+003,-2.360734e-003
2.582258e+003,-2.371609e-003
2.584187e+003,-2.234632e-003
2.586115e+003,-2.190129e-003
2.588044e+003,-2.261464e-003
2.589972e+003,-2.274682e-003
2.591901e+003,-2.165237e-003
2.593829e+003,-2.130717e-003
2.595758e+003,-2.216040e-003
2.597686e+003,-2.232522e-003
2.599615e+003,-2.161875e-003
2.601543e+003,-2.131014e-003
2.603472e+003,-2.171765e-003
2.605400e+003,-2.135037e-003
2.607329e+003,-2.095568e-003
2.609257e+003,-2.050456e-003
2.611186e+003,-2.017675e-003
2.613114e+003,-2.024997e-003
2.615043e+003,-1.975194e-003
2.616971e+003,-1.938086e-003
2.618900e+003,-1.882731e-003
2.620828e+003,-1.895366e-003
2.622757e+003,-1.891671e-003
2.624685e+003,-1.862111e-003
2.626614e+003,-1.859736e-003
2.628542e+003,-1.832054e-003
2.630471e+003,-1.750352e-003
2.632399e+003,-1.685006e-003
2.634328e+003,-1.725535e-003
2.636256e+003,-1.806186e-003
2.638185e+003,-1.720551e-003
2.640113e+003,-1.639984e-003
2.642042e+003,-1.645232e-003
2.643970e+003,-1.527705e-003
2.645899e+003,-1.474081e-003
2.647827e+003,-1.481874e-003
2.649756e+003,-1.371437e-003
2.651684e+003,-1.264243e-003
2.653613e+003,-1.315283e-003
2.655541e+003,-1.288954e-003
2.657470e+003,-1.314622e-003
2.659398e+003,-1.292853e-003
2.661327e+003,-1.172025e-003
2.663255e+003,-1.087984e-003
2.665184e+003,-1.016654e-003
2.667112e+003,-8.882760e-004
2.669041e+003,-8.284880e-004
2.670969e+003,-7.991862e-004
2.672898e+003,-7.883381e-004
2.674826e+003,-7.853283e-004
2.676755e+003,-7.923731e-004
2.678683e+003,-7.735207e-004
2.680612e+003,-6.755082e-004
2.682540e+003,-5.479563e-004
2.684469e+003,-4.263252e-004
2.686397e+003,-2.516464e-004
2.688326e+003,-1.865046e-004
2.690254e+003,-1.602729e-004
2.692183e+003,-2.160796e-004
2.694111e+003,-2.846937e-004
2.696040e+003,-2.730711e-004
2.697968e+003,-2.301543e-004
2.699897e+003,-6.053167e-005
2.701825e+003,-1.563899e-005
2.703754e+003,9.940213e-008
2.705682e+003,1.395830e-004
2.707611e+003,1.656024e-004
2.709539e+003,1.670608e-004
2.711468e+003,1.759443e-004
2.713396e+003,1.746515e-004
2.715325e+003,3.250008e-004
2.717253e+003,3.968620e-004
2.719182e+003,4.216364e-004
2.721110e+003,4.150364e-004
2.723039e+003,5.051902e-004
2.724967e+003,6.252585e-004
2.726896e+003,6.842929e-004
2.728824e+003,6.642488e-004
2.730753e+003,7.671669e-004
2.732681e+003,8.525467e-004
2.734610e+003,8.936824e-004
2.736538e+003,9.144676e-004
2.738467e+003,9.934668e-004
2.740395e+003,1.029269e-003
2.742324e+003,1.030298e-003
2.744252e+003,1.147389e-003
2.746181e+003,1.316753e-003
2.748109e+003,1.320708e-003
2.750038e+003,1.410884e-003
2.751966e+003,1.572037e-003
2.753895e+003,1.670713e-003
2.755823e+003,1.729857e-003
2.757752e+003,1.891461e-003
2.759680e+003,2.092777e-003
2.761609e+003,2.254683e-003
2.763537e+003,2.455668e-003
2.765466e+003,2.698219e-003
2.767394e+003,3.015403e-003
2.769323e+003,3.299098e-003
2.771251e+003,3.648296e-003
2.773180e+003,3.998511e-003
2.775108e+003,4.289005e-003
2.777037e+003,4.720958e-003
2.778965e+003,5.187979e-003
2.780894e+003,5.680746e-003
2.782822e+003,6.311956e-003
2.784750e+003,6.987049e-003
2.786679e+003,7.640496e-003
2.788608e+003,8.151451e-003
2.790536e+003,8.754686e-003
2.792465e+003,9.421061e-003
2.794393e+003,1.005767e-002
2.796322e+003,1.077839e-002
2.798250e+003,1.143845e-002
2.800178e+003,1.187601e-002
2.802107e+003,1.231936e-002
2.804036e+003,1.281726e-002
2.805964e+003,1.324008e-002
2.807893e+003,1.358011e-002
2.809821e+003,1.388417e-002
2.811750e+003,1.413432e-002
2.813678e+003,1.411094e-002
2.815606e+003,1.403407e-002
2.817535e+003,1.396926e-002
2.819464e+003,1.394462e-002
2.821392e+003,1.382252e-002
2.823321e+003,1.363276e-002
2.825249e+003,1.341994e-002
2.827177e+003,1.308827e-002
2.829106e+003,1.264441e-002
2.831034e+003,1.214923e-002
2.832963e+003,1.170330e-002
2.834892e+003,1.144886e-002
2.836820e+003,1.101516e-002
2.838749e+003,1.047588e-002
2.840677e+003,9.944592e-003
2.842605e+003,9.570311e-003
2.844534e+003,9.158381e-003
2.846462e+003,8.549550e-003
2.848391e+003,8.041367e-003
2.850320e+003,7.671893e-003
2.852248e+003,7.446334e-003
2.854177e+003,7.241713e-003
2.856105e+003,7.033787e-003
2.858033e+003,6.855481e-003
2.859962e+003,6.762788e-003
2.861890e+003,6.566023e-003
2.863819e+003,6.411413e-003
2.865748e+003,6.435188e-003
2.867676e+003,6.397559e-003
2.869604e+003,6.449413e-003
2.871533e+003,6.578100e-003
2.873461e+003,6.689091e-003
2.875390e+003,6.726948e-003
2.877319e+003,6.790082e-003
2.879247e+003,6.973042e-003
2.881176e+003,7.037593e-003
2.883104e+003,7.029712e-003
2.885032e+003,7.181545e-003
2.886961e+003,7.224699e-003
2.888889e+003,7.197647e-003
2.890818e+003,7.085145e-003
2.892747e+003,6.984490e-003
2.894675e+003,6.910621e-003
2.896604e+003,6.877361e-003
2.898532e+003,6.844204e-003
2.900460e+003,6.789038e-003
2.902389e+003,6.737480e-003
2.904317e+003,6.712915e-003
2.906246e+003,6.760263e-003
2.908175e+003,6.792135e-003
2.910103e+003,6.812430e-003
2.912031e+003,6.780053e-003
2.913960e+003,6.781298e-003
2.915888e+003,6.752456e-003
2.917817e+003,6.756864e-003
2.919745e+003,7.008060e-003
2.921674e+003,7.247441e-003
2.923603e+003,7.368073e-003
2.925531e+003,7.431233e-003
2.927459e+003,7.539881e-003
2.929388e+003,7.600368e-003
2.931316e+003,7.716917e-003
2.933245e+003,7.899154e-003
2.935173e+003,7.923112e-003
2.937102e+003,7.804316e-003
2.939031e+003,7.716850e-003
2.940959e+003,7.655233e-003
2.942887e+003,7.515641e-003
2.944816e+003,7.399619e-003
2.946744e+003,7.248417e-003
2.948673e+003,6.872918e-003
2.950601e+003,6.387942e-003
2.952530e+003,5.998874e-003
2.954458e+003,5.636872e-003
2.956387e+003,5.111431e-003
2.958315e+003,4.616530e-003
2.960244e+003,4.164374e-003
2.962172e+003,3.586485e-003
2.964101e+003,3.040328e-003
2.966029e+003,2.539014e-003
2.967958e+003,2.062214e-003
2.969886e+003,1.668219e-003
2.971815e+003,1.288106e-003
2.973743e+003,8.918231e-004
2.975672e+003,4.553346e-004
2.977600e+003,1.842312e-004
2.979529e+003,1.540760e-005
2.981457e+003,-2.436656e-004
2.983386e+003,-5.338587e-004
2.985314e+003,-7.864859e-004
2.987243e+003,-8.983611e-004
2.989171e+003,-9.956623e-004
2.991100e+003,-1.263582e-003
2.993028e+003,-1.459155e-003
2.994957e+003,-1.519682e-003
2.996885e+003,-1.556099e-003
2.998814e+003,-1.609911e-003
3.000742e+003,-1.695072e-003
3.002671e+003,-1.852642e-003
3.004599e+003,-1.957778e-003
3.006528e+003,-1.909585e-003
3.008456e+003,-1.978031e-003
3.010385e+003,-2.083796e-003
3.012313e+003,-2.104504e-003
3.014242e+003,-2.139686e-003
3.016170e+003,-2.118089e-003
3.018099e+003,-2.127585e-003
3.020027e+003,-2.247851e-003
3.021956e+003,-2.293898e-003
3.023884e+003,-2.353286e-003
3.025813e+003,-2.403902e-003
3.027741e+003,-2.384691e-003
3.029670e+003,-2.384065e-003
3.031598e+003,-2.454743e-003
3.033527e+003,-2.495365e-003
3.035455e+003,-2.535885e-003
3.037384e+003,-2.579694e-003
3.039312e+003,-2.644873e-003
3.041241e+003,-2.744187e-003
3.043169e+003,-2.766708e-003
3.045098e+003,-2.741092e-003
3.047026e+003,-2.795515e-003
3.048955e+003,-2.866488e-003
3.050883e+003,-2.903747e-003
3.052812e+003,-2.890581e-003
3.054740e+003,-2.991057e-003
3.056669e+003,-3.071342e-003
3.058597e+003,-3.249922e-003
3.060526e+003,-3.407028e-003
3.062454e+003,-3.271693e-003
3.064383e+003,-3.232788e-003
3.066311e+003,-3.308753e-003
3.068240e+003,-3.274718e-003
3.070168e+003,-3.308326e-003
3.072097e+003,-3.445326e-003
3.074025e+003,-3.482996e-003
3.075954e+003,-3.482733e-003
3.077882e+003,-3.579424e-003
3.079811e+003,-3.517737e-003
3.081739e+003,-3.408146e-003
3.083668e+003,-3.515239e-003
3.085596e+003,-3.722711e-003
3.087525e+003,-3.735228e-003
3.089453e+003,-3.713579e-003
3.091382e+003,-3.780099e-003
3.093310e+003,-3.690680e-003
3.095239e+003,-3.730629e-003
3.097167e+003,-3.917574e-003
3.099096e+003,-3.993650e-003
3.101024e+003,-3.905983e-003
3.102953e+003,-3.898167e-003
3.104881e+003,-3.998935e-003
3.106810e+003,-3.902338e-003
3.108738e+003,-3.832125e-003
3.110667e+003,-3.872980e-003
3.112595e+003,-3.929264e-003
3.114524e+003,-3.954809e-003
3.116452e+003,-4.042171e-003
3.118381e+003,-4.055597e-003
3.120309e+003,-4.048441e-003
3.122238e+003,-3.985081e-003
3.124166e+003,-3.901714e-003
3.126095e+003,-3.944302e-003
3.128023e+003,-4.087142e-003
3.129952e+003,-4.149929e-003
3.131880e+003,-4.200795e-003
3.133809e+003,-4.165682e-003
3.135737e+003,-4.122327e-003
3.137666e+003,-4.089931e-003
3.139594e+003,-4.025133e-003
3.141523e+003,-4.104275e-003
3.143451e+003,-4.126495e-003
3.145380e+003,-4.064230e-003
3.147308e+003,-4.170243e-003
3.149237e+003,-4.132994e-003
3.151165e+003,-4.009277e-003
3.153094e+003,-3.997655e-003
3.155022e+003,-3.983899e-003
3.156951e+003,-4.000051e-003
3.158879e+003,-4.032782e-003
3.160808e+003,-3.981863e-003
3.162736e+003,-3.993026e-003
3.164665e+003,-3.967187e-003
3.166593e+003,-4.036262e-003
3.168522e+003,-4.098991e-003
3.170450e+003,-3.958913e-003
3.172379e+003,-3.939377e-003
3.174307e+003,-4.057928e-003
3.176236e+003,-4.063771e-003
3.178164e+003,-4.030025e-003
3.180093e+003,-4.047653e-003
3.182021e+003,-4.078935e-003
3.183950e+003,-3.999395e-003
3.185878e+003,-3.964397e-003
3.187807e+003,-3.868087e-003
3.189735e+003,-3.774022e-003
3.191664e+003,-3.896164e-003
3.193592e+003,-3.976315e-003
3.195521e+003,-3.921810e-003
3.197449e+003,-3.970241e-003
3.199378e+003,-4.066068e-003
3.201306e+003,-4.134241e-003
3.203235e+003,-4.028974e-003
3.205163e+003,-4.091245e-003
3.207092e+003,-4.114647e-003
3.209020e+003,-3.866412e-003
3.210948e+003,-3.769161e-003
3.212877e+003,-3.724715e-003
3.214806e+003,-3.706844e-003
3.216734e+003,-3.771788e-003
3.218663e+003,-3.680397e-003
3.220591e+003,-3.559410e-003
3.222520e+003,-3.511328e-003
3.224448e+003,-3.532297e-003
3.226376e+003,-3.518822e-003
3.228305e+003,-3.460644e-003
3.230234e+003,-3.394009e-003
3.232162e+003,-3.281394e-003
3.234091e+003,-3.183716e-003
3.236019e+003,-3.246765e-003
3.237948e+003,-3.250120e-003
3.239876e+003,-3.039954e-003
3.241804e+003,-2.808288e-003
3.243733e+003,-2.629197e-003
3.245662e+003,-2.616418e-003
3.247590e+003,-2.566848e-003
3.249519e+003,-2.523696e-003
3.251447e+003,-2.440147e-003
3.253375e+003,-2.554562e-003
3.255304e+003,-2.515493e-003
3.257232e+003,-2.274385e-003
3.259161e+003,-2.151489e-003
3.261090e+003,-2.041783e-003
3.263018e+003,-1.976250e-003
3.264947e+003,-2.103350e-003
3.266875e+003,-2.307971e-003
3.268803e+003,-2.112747e-003
3.270732e+003,-1.856305e-003
3.272660e+003,-1.820308e-003
3.274589e+003,-1.881873e-003
3.276518e+003,-1.856140e-003
3.278446e+003,-1.806450e-003
3.280375e+003,-1.746062e-003
3.282303e+003,-1.743323e-003
3.284231e+003,-1.684544e-003
3.286160e+003,-1.787938e-003
3.288088e+003,-1.944815e-003
3.290017e+003,-2.050951e-003
3.291946e+003,-1.966486e-003
3.293874e+003,-1.935612e-003
3.295802e+003,-1.966453e-003
3.297731e+003,-2.052600e-003
3.299659e+003,-2.163952e-003
3.301588e+003,-2.332326e-003
3.303516e+003,-2.547348e-003
3.305445e+003,-2.561710e-003
3.307374e+003,-2.606241e-003
3.309302e+003,-2.761769e-003
3.311230e+003,-2.925864e-003
3.313159e+003,-3.025608e-003
3.315087e+003,-3.010274e-003
3.317016e+003,-3.080093e-003
3.318944e+003,-3.290075e-003
3.320873e+003,-3.399532e-003
3.322802e+003,-3.471590e-003
3.324730e+003,-3.638834e-003
3.326658e+003,-3.819907e-003
3.328587e+003,-3.948242e-003
3.330515e+003,-3.977431e-003
3.332444e+003,-4.121408e-003
3.334372e+003,-4.128399e-003
3.336301e+003,-4.051297e-003
3.338229e+003,-4.008587e-003
3.340158e+003,-4.153834e-003
3.342086e+003,-4.395017e-003
3.344015e+003,-4.564332e-003
3.345943e+003,-4.500523e-003
3.347872e+003,-4.448216e-003
3.349800e+003,-4.514820e-003
3.351729e+003,-4.672256e-003
3.353657e+003,-4.769698e-003
3.355586e+003,-4.828127e-003
3.357514e+003,-4.724044e-003
3.359443e+003,-4.894837e-003
3.361371e+003,-5.176931e-003
3.363300e+003,-5.178044e-003
3.365229e+003,-5.045421e-003
3.367157e+003,-5.231049e-003
3.369085e+003,-5.514625e-003
3.371014e+003,-5.674969e-003
3.372942e+003,-5.719281e-003
3.374871e+003,-5.860982e-003
3.376799e+003,-5.885041e-003
3.378728e+003,-5.983355e-003
3.380656e+003,-6.067859e-003
3.382585e+003,-6.222251e-003
3.384513e+003,-6.397778e-003
3.386442e+003,-6.494442e-003
3.388370e+003,-6.582404e-003
3.390299e+003,-6.541673e-003
3.392227e+003,-6.433952e-003
3.394156e+003,-6.529792e-003
3.396084e+003,-6.720953e-003
3.398013e+003,-6.832223e-003
3.399941e+003,-6.928791e-003
3.401870e+003,-6.890408e-003
3.403798e+003,-6.860338e-003
3.405727e+003,-6.874199e-003
3.407655e+003,-6.842823e-003
3.409584e+003,-6.880689e-003
3.411512e+003,-6.934269e-003
3.413441e+003,-6.946269e-003
3.415369e+003,-6.902181e-003
3.417298e+003,-6.964758e-003
3.419226e+003,-7.041018e-003
3.421155e+003,-6.957551e-003
3.423083e+003,-6.961041e-003
3.425012e+003,-7.111399e-003
3.426940e+003,-7.237885e-003
3.428869e+003,-7.194054e-003
3.430797e+003,-7.074433e-003
3.432726e+003,-7.101620e-003
3.434654e+003,-7.097089e-003
3.436583e+003,-7.231596e-003
3.438511e+003,-7.307191e-003
3.440440e+003,-7.220907e-003
3.442368e+003,-7.343908e-003
3.444297e+003,-7.513023e-003
3.446225e+003,-7.413784e-003
3.448154e+003,-7.276759e-003
3.450082e+003,-7.309472e-003
3.452011e+003,-7.319474e-003
3.453939e+003,-7.277671e-003
3.455868e+003,-7.415412e-003
3.457796e+003,-7.563594e-003
3.459725e+003,-7.657851e-003
3.461653e+003,-7.571312e-003
3.463582e+003,-7.361468e-003
3.465510e+003,-7.429646e-003
3.467439e+003,-7.622137e-003
3.469367e+003,-7.718594e-003
3.471296e+003,-7.718757e-003
3.473224e+003,-7.675007e-003
3.475153e+003,-7.790460e-003
3.477081e+003,-7.837777e-003
3.479010e+003,-7.788116e-003
3.480938e+003,-7.812785e-003
3.482867e+003,-8.014636e-003
3.484795e+003,-7.986987e-003
3.486724e+003,-7.897779e-003
3.488652e+003,-7.956635e-003
3.490581e+003,-7.927777e-003
3.492509e+003,-7.948469e-003
3.494438e+003,-8.037113e-003
3.496366e+003,-7.984287e-003
3.498295e+003,-8.002992e-003
3.500223e+003,-7.933633e-003
3.502152e+003,-7.847247e-003
3.504080e+003,-7.898593e-003
3.506009e+003,-8.063394e-003
3.507937e+003,-8.076663e-003
3.509866e+003,-8.049147e-003
3.511794e+003,-8.008488e-003
3.513723e+003,-8.068402e-003
3.515651e+003,-8.149510e-003
3.517580e+003,-8.079233e-003
3.519508e+003,-8.136308e-003
3.521437e+003,-8.291656e-003
3.523365e+003,-8.288763e-003
3.525294e+003,-8.215972e-003
3.527222e+003,-8.089965e-003
3.529151e+003,-8.069671e-003
3.531079e+003,-8.066776e-003
3.533008e+003,-8.034478e-003
3.534936e+003,-8.047163e-003
3.536865e+003,-7.935097e-003
3.538793e+003,-8.077509e-003
3.540722e+003,-8.299847e-003
3.542650e+003,-8.378247e-003
3.544579e+003,-8.205698e-003
3.546507e+003,-7.896576e-003
3.548436e+003,-7.794918e-003
3.550364e+003,-7.770509e-003
3.552293e+003,-7.762112e-003
3.554221e+003,-7.873800e-003
3.556150e+003,-8.046318e-003
3.558078e+003,-8.051099e-003
3.560007e+003,-8.054222e-003
3.561935e+003,-8.158615e-003
3.563864e+003,-8.196821e-003
3.565792e+003,-7.948209e-003
3.567721e+003,-7.787303e-003
3.569649e+003,-8.004585e-003
3.571578e+003,-7.962653e-003
3.573506e+003,-7.882520e-003
3.575435e+003,-7.948014e-003
3.577363e+003,-8.072468e-003
3.579292e+003,-8.237137e-003
3.581220e+003,-8.195358e-003
3.583149e+003,-8.171914e-003
3.585077e+003,-8.144828e-003
3.587006e+003,-7.924817e-003
3.588934e+003,-7.974528e-003
3.590863e+003,-8.162679e-003
3.592791e+003,-7.936530e-003
3.594720e+003,-7.737571e-003
3.596648e+003,-7.699259e-003
3.598577e+003,-7.892150e-003
3.600505e+003,-8.076338e-003
3.602434e+003,-8.145868e-003
3.604362e+003,-8.098649e-003
3.606291e+003,-8.079655e-003
3.608219e+003,-7.836768e-003
3.610148e+003,-7.787498e-003
3.612076e+003,-7.976967e-003
3.614005e+003,-8.008033e-003
3.615933e+003,-7.902758e-003
3.617862e+003,-7.803868e-003
3.619790e+003,-7.991574e-003
3.621719e+003,-8.267925e-003
3.623647e+003,-8.267989e-003
3.625576e+003,-8.065150e-003
3.627504e+003,-7.544904e-003
3.629433e+003,-7.298883e-003
3.631361e+003,-7.706648e-003
3.633290e+003,-7.808945e-003
3.635218e+003,-7.850696e-003
3.637146e+003,-7.826486e-003
3.639075e+003,-7.879233e-003
3.641004e+003,-8.115820e-003
3.642932e+003,-8.358388e-003
3.644861e+003,-8.373925e-003
3.646789e+003,-8.103625e-003
3.648718e+003,-7.945476e-003
3.650646e+003,-8.018508e-003
3.652574e+003,-8.370836e-003
3.654503e+003,-8.194513e-003
3.656432e+003,-7.819977e-003
3.658360e+003,-8.099917e-003
3.660289e+003,-8.433787e-003
3.662217e+003,-8.461929e-003
3.664146e+003,-8.530682e-003
3.666074e+003,-8.768636e-003
3.668002e+003,-8.726485e-003
3.669931e+003,-8.440092e-003
3.671860e+003,-8.350458e-003
3.673788e+003,-8.094584e-003
3.675717e+003,-7.845457e-003
3.677645e+003,-8.229725e-003
3.679573e+003,-8.506054e-003
3.681502e+003,-8.504365e-003
3.683430e+003,-8.398104e-003
3.685359e+003,-8.514469e-003
3.687288e+003,-8.329038e-003
3.689216e+003,-8.108015e-003
3.691145e+003,-8.190416e-003
3.693073e+003,-8.276572e-003
3.695001e+003,-8.301018e-003
3.696930e+003,-8.238113e-003
3.698858e+003,-8.113478e-003
3.700787e+003,-7.896706e-003
3.702716e+003,-7.816398e-003
3.704644e+003,-8.100535e-003
3.706573e+003,-8.153315e-003
3.708501e+003,-8.058612e-003
3.710429e+003,-7.891370e-003
3.712358e+003,-7.981163e-003
3.714286e+003,-8.332678e-003
3.716215e+003,-8.218801e-003
3.718144e+003,-7.763153e-003
3.720072e+003,-7.806048e-003
3.722000e+003,-7.924720e-003
3.723929e+003,-7.864428e-003
3.725857e+003,-7.853234e-003
3.727786e+003,-8.064402e-003
3.729714e+003,-7.916651e-003
3.731643e+003,-7.480586e-003
3.733572e+003,-7.264019e-003
3.735500e+003,-7.192848e-003
3.737428e+003,-7.639002e-003
3.739357e+003,-7.982562e-003
3.741285e+003,-8.001626e-003
3.743214e+003,-7.545522e-003
3.745142e+003,-7.237233e-003
3.747071e+003,-7.459123e-003
3.749000e+003,-7.132097e-003
3.750928e+003,-7.025272e-003
3.752856e+003,-7.269167e-003
3.754785e+003,-7.586583e-003
3.756713e+003,-7.742746e-003
3.758642e+003,-7.587852e-003
3.760570e+003,-7.306083e-003
3.762499e+003,-7.447333e-003
3.764427e+003,-7.487328e-003
3.766356e+003,-7.606639e-003
3.768284e+003,-7.772592e-003
3.770213e+003,-7.540963e-003
3.772141e+003,-7.493255e-003
3.774070e+003,-7.533864e-003
3.775998e+003,-7.382219e-003
3.777927e+003,-7.258056e-003
3.779855e+003,-7.268841e-003
3.781784e+003,-7.420852e-003
3.783712e+003,-7.390819e-003
3.785641e+003,-7.289890e-003
3.787569e+003,-7.447886e-003
3.789498e+003,-7.650396e-003
3.791426e+003,-7.643624e-003
3.793355e+003,-7.593290e-003
3.795283e+003,-7.449873e-003
3.797212e+003,-7.230781e-003
3.799140e+003,-6.998798e-003
3.801069e+003,-6.773411e-003
3.802997e+003,-7.265746e-003
3.804926e+003,-7.374499e-003
3.806854e+003,-6.962867e-003
3.808783e+003,-7.191121e-003
3.810711e+003,-7.418832e-003
3.812640e+003,-7.522890e-003
3.814568e+003,-7.525723e-003
3.816497e+003,-6.834310e-003
3.818425e+003,-6.808966e-003
3.820354e+003,-6.756317e-003
3.822282e+003,-6.889886e-003
3.824211e+003,-7.390460e-003
3.826139e+003,-7.342116e-003
3.828068e+003,-7.275619e-003
3.829996e+003,-7.202658e-003
3.831925e+003,-7.203831e-003
3.833853e+003,-7.187340e-003
3.835782e+003,-6.958791e-003
3.837710e+003,-6.659678e-003
3.839639e+003,-6.977996e-003
3.841567e+003,-7.202365e-003
3.843496e+003,-7.040562e-003
3.845424e+003,-7.108661e-003
3.847353e+003,-7.476678e-003
3.849281e+003,-7.468177e-003
3.851210e+003,-6.966747e-003
3.853138e+003,-6.391084e-003
3.855067e+003,-6.586614e-003
3.856995e+003,-7.026706e-003
3.858924e+003,-7.206992e-003
3.860852e+003,-7.183462e-003
3.862781e+003,-6.927095e-003
3.864709e+003,-6.744736e-003
3.866638e+003,-7.013046e-003
3.868566e+003,-6.910953e-003
3.870495e+003,-6.785383e-003
3.872423e+003,-6.911149e-003
3.874352e+003,-6.859718e-003
3.876280e+003,-6.995472e-003
3.878209e+003,-7.007732e-003
3.880137e+003,-6.894386e-003
3.882066e+003,-7.120167e-003
3.883994e+003,-7.127436e-003
3.885923e+003,-6.737917e-003
3.887851e+003,-6.765386e-003
3.889780e+003,-6.782969e-003
3.891708e+003,-6.820187e-003
3.893637e+003,-7.059601e-003
3.895565e+003,-7.242023e-003
3.897494e+003,-7.252255e-003
3.899422e+003,-6.943856e-003
3.901351e+003,-6.855804e-003
3.903279e+003,-6.819013e-003
3.905208e+003,-6.870840e-003
3.907136e+003,-7.266919e-003
3.909065e+003,-7.406650e-003
3.910993e+003,-7.289336e-003
3.912922e+003,-7.197117e-003
3.914850e+003,-7.036846e-003
3.916779e+003,-7.021849e-003
3.918707e+003,-7.154423e-003
3.920636e+003,-7.300968e-003
3.922564e+003,-7.234789e-003
3.924493e+003,-7.046300e-003
3.926421e+003,-6.980180e-003
3.928350e+003,-7.207285e-003
3.930278e+003,-7.424304e-003
3.932207e+003,-7.268287e-003
3.934135e+003,-7.245934e-003
3.936064e+003,-7.263041e-003
3.937992e+003,-7.041475e-003
3.939921e+003,-6.995179e-003
3.941849e+003,-7.033488e-003
3.943778e+003,-7.097904e-003
3.945706e+003,-7.016860e-003
3.947635e+003,-6.966584e-003
3.949563e+003,-7.181931e-003
3.951492e+003,-7.213053e-003
3.953420e+003,-7.093829e-003
3.955349e+003,-7.151881e-003
3.957277e+003,-7.169220e-003
3.959206e+003,-7.092623e-003
3.961134e+003,-7.058981e-003
3.963063e+003,-7.033879e-003
3.964991e+003,-7.064751e-003
3.966920e+003,-7.066675e-003
3.968848e+003,-6.850521e-003
3.970777e+003,-6.741930e-003
3.972705e+003,-6.990223e-003
3.974634e+003,-7.134183e-003
3.976562e+003,-7.103967e-003
3.978491e+003,-6.976985e-003
3.980419e+003,-6.916138e-003
3.982348e+003,-6.799703e-003
3.984276e+003,-6.871296e-003
3.986205e+003,-6.995537e-003
3.988133e+003,-6.991201e-003
3.990062e+003,-6.956508e-003
3.991990e+003,-7.028532e-003
3.993919e+003,-7.157096e-003
3.995847e+003,-7.394597e-003
3.997776e+003,-7.215856e-003
3.999704e+003,-7.118928e-003
4.001633e+003,0.000000e+000
