3.991989e+002,5.642108e-003
4.011274e+002,9.970697e-003
4.030559e+002,4.063290e-003
4.049844e+002,-1.854094e-003
4.069129e+002,5.146113e-004
4.088414e+002,7.854449e-003
4.107699e+002,9.492378e-003
4.126984e+002,6.519672e-003
4.146269e+002,-4.720029e-004
4.165554e+002,9.244620e-004
4.184839e+002,9.019794e-003
4.204124e+002,1.021185e-002
4.223409e+002,1.028469e-002
4.242694e+002,1.381425e-002
4.261979e+002,9.399763e-003
4.281264e+002,4.631633e-003
4.300549e+002,5.558836e-003
4.319834e+002,2.893338e-003
4.339119e+002,1.193669e-003
4.358404e+002,8.381261e-003
4.377689e+002,1.196050e-002
4.396974e+002,7.226957e-003
4.416259e+002,4.045932e-003
4.435544e+002,5.760348e-003
4.454829e+002,8.464131e-003
4.474114e+002,1.363447e-002
4.493399e+002,1.063103e-002
4.512684e+002,3.839597e-003
4.531969e+002,3.265979e-003
4.551254e+002,6.954422e-003
4.570539e+002,6.121848e-003
4.589824e+002,2.543080e-003
4.609109e+002,3.669080e-003
4.628394e+002,6.278339e-003
4.647679e+002,5.804940e-003
4.666964e+002,4.561144e-003
4.686249e+002,1.723336e-003
4.705533e+002,1.061320e-003
4.724819e+002,3.382806e-003
4.744103e+002,5.445784e-003
4.763389e+002,5.022227e-003
4.782673e+002,5.000809e-003
4.801959e+002,5.111632e-003
4.821243e+002,5.901157e-003
4.840529e+002,5.672353e-003
4.859813e+002,5.701929e-003
4.879099e+002,3.698051e-003
4.898383e+002,2.467197e-003
4.917668e+002,1.859215e-003
4.936953e+002,3.459684e-003
4.956238e+002,4.116237e-003
4.975523e+002,2.804455e-003
4.994808e+002,1.885205e-003
5.014093e+002,2.650745e-003
5.033378e+002,2.638543e-003
5.052663e+002,8.124772e-004
5.071948e+002,-1.018752e-004
5.091233e+002,-1.342384e-004
5.110518e+002,-4.658135e-004
5.129803e+002,-7.871143e-004
5.149088e+002,-1.657577e-003
5.168373e+002,-1.425173e-003
5.187658e+002,-1.381676e-003
5.206943e+002,-5.147303e-004
5.226228e+002,-7.901902e-004
5.245513e+002,-1.669790e-003
5.264798e+002,-1.257074e-003
5.284083e+002,4.446213e-004
5.303368e+002,-6.760375e-004
5.322653e+002,-1.263219e-003
5.341938e+002,-1.306199e-003
5.361223e+002,-7.289663e-004
5.380508e+002,3.127966e-005
5.399792e+002,1.317983e-003
5.419078e+002,8.021534e-004
5.438363e+002,1.142040e-003
5.457648e+002,1.556042e-003
5.476932e+002,8.015226e-004
5.496218e+002,-9.200348e-005
5.515503e+002,8.108174e-004
5.534788e+002,1.010338e-003
5.554072e+002,2.156407e-003
5.573358e+002,2.951181e-003
5.592643e+002,3.445256e-003
5.611927e+002,2.509153e-003
5.631212e+002,2.837605e-003
5.650497e+002,2.491890e-003
5.669783e+002,2.229171e-003
5.689067e+002,2.865154e-003
5.708352e+002,3.528992e-003
5.727637e+002,2.284626e-003
5.746923e+002,4.858178e-004
5.766207e+002,7.558152e-004
5.785492e+002,6.281453e-004
5.804777e+002,-8.327705e-003
5.824063e+002,-9.143620e-003
5.843347e+002,2.566658e-004
5.862632e+002,2.797085e-003
5.881917e+002,1.691635e-003
5.901202e+002,5.744933e-004
5.920487e+002,-9.886539e-004
5.939772e+002,-1.387819e-003
5.959057e+002,-1.117729e-003
5.978342e+002,-8.511301e-005
5.997627e+002,1.013426e-003
6.016912e+002,9.456803e-004
6.036197e+002,1.082047e-003
6.055482e+002,1.904307e-003
6.074767e+002,2.829434e-003
6.094052e+002,3.693473e-003
6.113337e+002,5.281443e-003
6.132622e+002,5.245088e-003
6.151907e+002,3.022677e-003
6.171192e+002,3.529093e-003
6.190477e+002,4.158252e-003
6.209762e+002,3.519506e-003
6.229047e+002,1.514777e-003
6.248332e+002,-5.113547e-004
6.267617e+002,-1.797574e-003
6.286902e+002,-2.106284e-003
6.306187e+002,-9.871001e-004
6.325472e+002,-4.688916e-004
6.344756e+002,-3.381006e-004
6.364042e+002,-3.898789e-004
6.383326e+002,-7.797057e-004
6.402612e+002,-1.110392e-003
6.421896e+002,-1.665660e-004
6.441182e+002,3.194633e-004
6.460466e+002,1.106155e-004
6.479752e+002,5.290088e-004
6.499036e+002,6.146072e-004
6.518322e+002,5.777779e-004
6.537606e+002,5.931065e-004
6.556891e+002,5.781761e-004
6.576177e+002,5.843472e-004
6.595461e+002,6.745362e-004
6.614746e+002,-1.885580e-004
6.634031e+002,-4.316545e-004
6.653317e+002,1.679162e-003
6.672601e+002,7.234065e-003
6.691886e+002,5.821562e-003
6.711171e+002,1.779825e-003
6.730457e+002,1.619393e-003
6.749741e+002,2.229138e-003
6.769026e+002,2.120479e-003
6.788311e+002,1.893225e-003
6.807596e+002,2.458700e-003
6.826881e+002,2.527182e-003
6.846166e+002,2.254516e-003
6.865451e+002,2.488791e-003
6.884736e+002,2.665813e-003
6.904021e+002,2.162334e-003
6.923306e+002,1.895754e-003
6.942591e+002,2.388962e-003
6.961876e+002,2.664880e-003
6.981161e+002,2.212086e-003
7.000446e+002,1.913559e-003
7.019731e+002,1.766185e-003
7.039016e+002,1.584973e-003
7.058301e+002,1.132340e-003
7.077585e+002,6.374032e-004
7.096871e+002,9.176551e-004
7.116156e+002,7.830665e-004
7.135441e+002,-3.834566e-004
7.154725e+002,-7.982602e-004
7.174011e+002,-6.172459e-004
7.193296e+002,-3.850787e-004
7.212581e+002,-1.282098e-004
7.231865e+002,-2.508516e-004
7.251151e+002,-6.171135e-004
7.270436e+002,-4.245708e-004
7.289720e+002,-2.572759e-004
7.309005e+002,-5.291594e-004
7.328290e+002,-7.128237e-004
7.347576e+002,-8.502481e-004
7.366860e+002,-9.255733e-004
7.386145e+002,-1.023926e-003
7.405430e+002,-1.012819e-003
7.424716e+002,-6.029190e-004
7.444000e+002,-2.286243e-006
7.463285e+002,1.877781e-004
7.482570e+002,3.302068e-004
7.501855e+002,3.778924e-004
7.521140e+002,1.213771e-003
7.540425e+002,2.070903e-003
7.559710e+002,2.358778e-003
7.578995e+002,2.691417e-003
7.598280e+002,2.948578e-003
7.617565e+002,2.954050e-003
7.636850e+002,3.007730e-003
7.656135e+002,3.261406e-003
7.675420e+002,3.713691e-003
7.694705e+002,3.558122e-003
7.713990e+002,3.623871e-003
7.733275e+002,3.919632e-003
7.752560e+002,3.903584e-003
7.771844e+002,3.950560e-003
7.791130e+002,3.687024e-003
7.810415e+002,3.761115e-003
7.829700e+002,3.580405e-003
7.848984e+002,3.412093e-003
7.868270e+002,3.246617e-003
7.887555e+002,3.229792e-003
7.906840e+002,3.336459e-003
7.926124e+002,3.065620e-003
7.945410e+002,2.788381e-003
7.964695e+002,2.361477e-003
7.983979e+002,2.143820e-003
8.003264e+002,2.206092e-003
8.022549e+002,2.732594e-003
8.041835e+002,2.901511e-003
8.061119e+002,2.529482e-003
8.080404e+002,2.243026e-003
8.099689e+002,2.677748e-003
8.118975e+002,3.225987e-003
8.138259e+002,3.437507e-003
8.157545e+002,3.014836e-003
8.176830e+002,2.683549e-003
8.196115e+002,2.302281e-003
8.215399e+002,1.804945e-003
8.234684e+002,1.535924e-003
8.253970e+002,1.674904e-003
8.273254e+002,1.710529e-003
8.292539e+002,1.429898e-003
8.311824e+002,1.572037e-003
8.331110e+002,1.675337e-003
8.350394e+002,1.368037e-003
8.369679e+002,1.244208e-003
8.388964e+002,1.154199e-003
8.408250e+002,1.242978e-003
8.427534e+002,1.101612e-003
8.446819e+002,8.012903e-004
8.466104e+002,9.355193e-004
8.485389e+002,9.241300e-004
8.504674e+002,3.526230e-004
8.523959e+002,4.084697e-004
8.543244e+002,9.116121e-004
8.562529e+002,1.113869e-003
8.581814e+002,1.189881e-003
8.601099e+002,9.987804e-004
8.620384e+002,4.047220e-004
8.639669e+002,5.177296e-004
8.658954e+002,5.449328e-004
8.678239e+002,1.657681e-004
8.697524e+002,1.560231e-004
8.716809e+002,2.615726e-004
8.736094e+002,3.308037e-004
8.755378e+002,2.264639e-004
8.774664e+002,5.234355e-004
8.793949e+002,8.330925e-004
8.813234e+002,6.238980e-004
8.832518e+002,7.466543e-004
8.851804e+002,8.332917e-004
8.871089e+002,9.171571e-004
8.890374e+002,9.638445e-004
8.909658e+002,1.152206e-003
8.928943e+002,1.452704e-003
8.948229e+002,1.351750e-003
8.967513e+002,1.051156e-003
8.986798e+002,1.214469e-003
9.006083e+002,1.458023e-003
9.025369e+002,1.452105e-003
9.044653e+002,1.493630e-003
9.063938e+002,1.398318e-003
9.083223e+002,9.561405e-004
9.102509e+002,7.893402e-004
9.121793e+002,8.678518e-004
9.141078e+002,6.193853e-004
9.160364e+002,6.800451e-004
9.179648e+002,8.530779e-004
9.198933e+002,3.430065e-004
9.218218e+002,2.849136e-004
9.237504e+002,2.668110e-004
9.256788e+002,-6.606425e-005
9.276073e+002,-4.313566e-004
9.295358e+002,-7.005178e-004
9.314644e+002,-9.034202e-004
9.333928e+002,-9.539408e-004
9.353213e+002,-8.442956e-004
9.372498e+002,-9.085122e-004
9.391783e+002,-1.347490e-003
9.411068e+002,-1.325160e-003
9.430353e+002,-1.043462e-003
9.449637e+002,-1.162111e-003
9.468923e+002,-1.356012e-003
9.488208e+002,-1.488742e-003
9.507493e+002,-1.439605e-003
9.526777e+002,-1.503436e-003
9.546063e+002,-1.443138e-003
9.565348e+002,-1.203218e-003
9.584633e+002,-1.352346e-003
9.603917e+002,-1.414836e-003
9.623203e+002,-1.388117e-003
9.642488e+002,-1.382865e-003
9.661772e+002,-1.205993e-003
9.681057e+002,-1.237614e-003
9.700343e+002,-1.371140e-003
9.719628e+002,-1.119613e-003
9.738912e+002,-1.029645e-003
9.758197e+002,-1.134484e-003
9.777483e+002,-1.085274e-003
9.796768e+002,-1.124735e-003
9.816052e+002,-1.400337e-003
9.835337e+002,-1.237746e-003
9.854623e+002,-9.523869e-004
9.873907e+002,-8.103978e-004
9.893192e+002,-8.101333e-004
9.912477e+002,-9.087767e-004
9.931763e+002,-9.787692e-004
9.951047e+002,-1.084150e-003
9.970332e+002,-1.165151e-003
9.989617e+002,-8.988571e-004
1.000890e+003,-5.685061e-004
1.002819e+003,-4.007369e-004
1.004747e+003,-3.918320e-004
1.006676e+003,-1.190674e-004
1.008604e+003,9.692788e-005
1.010533e+003,5.639780e-005
1.012461e+003,2.043194e-004
1.014390e+003,4.010076e-004
1.016318e+003,7.289639e-004
1.018247e+003,9.938985e-004
1.020175e+003,9.260227e-004
1.022104e+003,1.043019e-003
1.024032e+003,1.512283e-003
1.025961e+003,1.948804e-003
1.027889e+003,2.073101e-003
1.029818e+003,2.288091e-003
1.031746e+003,2.616776e-003
1.033675e+003,2.790149e-003
1.035603e+003,2.810991e-003
1.037532e+003,3.089880e-003
1.039460e+003,3.343905e-003
1.041389e+003,3.484801e-003
1.043317e+003,3.589258e-003
1.045246e+003,3.676999e-003
1.047174e+003,3.760580e-003
1.049103e+003,3.755934e-003
1.051031e+003,3.464159e-003
1.052960e+003,3.506846e-003
1.054888e+003,3.572721e-003
1.056817e+003,3.636100e-003
1.058745e+003,3.603324e-003
1.060674e+003,3.476183e-003
1.062602e+003,3.409555e-003
1.064531e+003,3.434368e-003
1.066459e+003,3.453004e-003
1.068388e+003,3.520775e-003
1.070316e+003,3.660258e-003
1.072245e+003,3.641045e-003
1.074173e+003,3.460419e-003
1.076102e+003,3.329614e-003
1.078030e+003,3.297929e-003
1.079959e+003,3.147982e-003
1.081887e+003,3.125989e-003
1.083816e+003,3.414765e-003
1.085744e+003,3.528859e-003
1.087673e+003,3.537778e-003
1.089601e+003,3.643351e-003
1.091530e+003,3.710516e-003
1.093458e+003,3.691602e-003
1.095387e+003,3.572554e-003
1.097315e+003,3.600216e-003
1.099244e+003,3.827429e-003
1.101172e+003,3.872993e-003
1.103101e+003,3.781168e-003
1.105029e+003,3.955977e-003
1.106958e+003,4.083793e-003
1.108886e+003,4.020448e-003
1.110815e+003,3.882254e-003
1.112743e+003,3.829301e-003
1.114672e+003,3.818571e-003
1.116600e+003,4.144838e-003
1.118529e+003,4.494784e-003
1.120457e+003,4.290444e-003
1.122386e+003,4.198933e-003
1.124314e+003,4.202546e-003
1.126243e+003,3.887803e-003
1.128171e+003,3.528224e-003
1.130100e+003,3.664468e-003
1.132028e+003,3.691368e-003
1.133957e+003,3.371452e-003
1.135885e+003,3.161199e-003
1.137814e+003,2.791316e-003
1.139742e+003,2.208922e-003
1.141671e+003,2.071236e-003
1.143599e+003,2.006853e-003
1.145528e+003,1.666855e-003
1.147456e+003,1.266073e-003
1.149385e+003,1.087361e-003
1.151313e+003,7.133650e-004
1.153242e+003,4.302266e-004
1.155170e+003,3.805454e-004
1.157099e+003,3.382977e-004
1.159027e+003,1.396493e-004
1.160956e+003,-1.833251e-004
1.162884e+003,-2.079657e-004
1.164813e+003,-2.026336e-004
1.166741e+003,-2.333666e-004
1.168670e+003,-2.150529e-004
1.170598e+003,-1.741176e-004
1.172526e+003,-8.763069e-005
1.174455e+003,-8.441733e-005
1.176384e+003,-7.547278e-005
1.178312e+003,-7.832181e-005
1.180240e+003,-7.553904e-005
1.182169e+003,2.839680e-005
1.184098e+003,-8.084630e-006
1.186026e+003,-2.010439e-004
1.187954e+003,-1.224793e-004
1.189883e+003,5.036403e-006
1.191812e+003,7.024984e-005
1.193740e+003,9.815412e-005
1.195668e+003,-1.663673e-004
1.197597e+003,-3.951093e-004
1.199526e+003,-4.114954e-004
1.201454e+003,-1.951488e-004
1.203382e+003,9.046535e-005
1.205311e+003,1.096875e-004
1.207240e+003,2.292486e-004
1.209168e+003,3.814740e-004
1.211096e+003,5.872338e-004
1.213025e+003,8.836223e-004
1.214953e+003,9.474403e-004
1.216882e+003,7.941202e-004
1.218810e+003,7.188080e-004
1.220739e+003,7.378920e-004
1.222667e+003,8.652290e-004
1.224596e+003,1.114800e-003
1.226524e+003,1.331011e-003
1.228453e+003,1.454233e-003
1.230381e+003,1.506963e-003
1.232310e+003,1.638085e-003
1.234238e+003,1.770410e-003
1.236167e+003,1.860679e-003
1.238095e+003,1.836854e-003
1.240024e+003,1.955960e-003
1.241952e+003,1.997067e-003
1.243881e+003,1.736443e-003
1.245809e+003,1.570540e-003
1.247738e+003,1.486416e-003
1.249666e+003,1.499249e-003
1.251595e+003,1.355440e-003
1.253523e+003,1.125197e-003
1.255452e+003,1.098024e-003
1.257380e+003,9.767625e-004
1.259309e+003,8.570951e-004
1.261237e+003,9.313023e-004
1.263166e+003,1.092709e-003
1.265094e+003,1.293855e-003
1.267023e+003,1.438774e-003
1.268951e+003,1.657442e-003
1.270880e+003,1.868699e-003
1.272808e+003,1.944311e-003
1.274737e+003,2.146750e-003
1.276665e+003,2.385131e-003
1.278594e+003,2.508453e-003
1.280522e+003,2.722758e-003
1.282451e+003,2.894839e-003
1.284379e+003,3.151887e-003
1.286308e+003,3.329380e-003
1.288236e+003,3.597076e-003
1.290165e+003,3.985101e-003
1.292093e+003,4.272040e-003
1.294022e+003,4.495386e-003
1.295950e+003,4.732448e-003
1.297879e+003,4.797872e-003
1.299807e+003,4.804171e-003
1.301736e+003,4.826718e-003
1.303664e+003,4.718815e-003
1.305593e+003,4.576279e-003
1.307521e+003,4.532884e-003
1.309450e+003,4.449925e-003
1.311378e+003,4.278699e-003
1.313307e+003,4.026167e-003
1.315235e+003,3.697283e-003
1.317164e+003,3.604593e-003
1.319092e+003,3.381604e-003
1.321021e+003,3.054676e-003
1.322949e+003,2.915854e-003
1.324878e+003,2.670381e-003
1.326806e+003,2.482659e-003
1.328735e+003,2.424713e-003
1.330663e+003,2.430144e-003
1.332592e+003,2.411518e-003
1.334520e+003,2.292188e-003
1.336449e+003,2.299482e-003
1.338377e+003,2.414917e-003
1.340306e+003,2.338224e-003
1.342234e+003,2.172923e-003
1.344163e+003,2.046168e-003
1.346091e+003,1.930432e-003
1.348020e+003,1.947606e-003
1.349948e+003,1.809736e-003
1.351877e+003,1.640446e-003
1.353805e+003,1.581348e-003
1.355734e+003,1.468230e-003
1.357662e+003,1.380269e-003
1.359591e+003,1.264544e-003
1.361519e+003,1.272154e-003
1.363448e+003,1.118620e-003
1.365376e+003,6.072411e-004
1.367305e+003,3.879409e-004
1.369233e+003,4.194475e-004
1.371162e+003,4.919214e-004
1.373090e+003,5.794700e-004
1.375019e+003,4.399778e-004
1.376947e+003,3.067639e-004
1.378876e+003,2.936337e-004
1.380804e+003,2.643575e-004
1.382733e+003,1.884410e-004
1.384661e+003,9.381260e-005
1.386590e+003,1.408094e-004
1.388518e+003,-7.355134e-005
1.390447e+003,-4.776295e-004
1.392375e+003,-4.905043e-004
1.394304e+003,-3.474040e-004
1.396232e+003,-6.001396e-004
1.398161e+003,-5.672486e-004
1.400089e+003,-5.930586e-004
1.402018e+003,-8.023943e-004
1.403946e+003,-9.125461e-004
1.405875e+003,-9.025274e-004
1.407803e+003,-9.152904e-004
1.409732e+003,-8.087442e-004
1.411660e+003,-6.313738e-004
1.413589e+003,-4.106679e-004
1.415517e+003,-1.878659e-005
1.417446e+003,6.586074e-004
1.419374e+003,1.364480e-003
1.421303e+003,1.578422e-003
1.423231e+003,1.948371e-003
1.425160e+003,2.486525e-003
1.427088e+003,2.793450e-003
1.429017e+003,3.120515e-003
1.430945e+003,3.330415e-003
1.432874e+003,3.567476e-003
1.434802e+003,4.305068e-003
1.436731e+003,4.881368e-003
1.438659e+003,4.715063e-003
1.440588e+003,4.787587e-003
1.442516e+003,5.257698e-003
1.444445e+003,5.675173e-003
1.446373e+003,6.072083e-003
1.448302e+003,6.556806e-003
1.450230e+003,6.801996e-003
1.452159e+003,7.011932e-003
1.454087e+003,7.445558e-003
1.456016e+003,8.438420e-003
1.457944e+003,8.662872e-003
1.459873e+003,7.974237e-003
1.461801e+003,7.556098e-003
1.463730e+003,7.650849e-003
1.465658e+003,7.641710e-003
1.467587e+003,7.278034e-003
1.469515e+003,7.236592e-003
1.471444e+003,7.495043e-003
1.473372e+003,7.465682e-003
1.475301e+003,6.979472e-003
1.477229e+003,6.262035e-003
1.479158e+003,5.581960e-003
1.481086e+003,5.250755e-003
1.483015e+003,4.770670e-003
1.484943e+003,4.377323e-003
1.486872e+003,4.287098e-003
1.488800e+003,4.270902e-003
1.490729e+003,4.009981e-003
1.492657e+003,3.355625e-003
1.494586e+003,3.111972e-003
1.496514e+003,3.115676e-003
1.498443e+003,2.711055e-003
1.500371e+003,2.095341e-003
1.502300e+003,1.753044e-003
1.504228e+003,2.138725e-003
1.506157e+003,2.774009e-003
1.508085e+003,2.187676e-003
1.510014e+003,1.426308e-003
1.511942e+003,1.187921e-003
1.513871e+003,1.173867e-003
1.515799e+003,1.409454e-003
1.517728e+003,1.498983e-003
1.519656e+003,1.749850e-003
1.521585e+003,2.078228e-003
1.523513e+003,1.858982e-003
1.525442e+003,1.903941e-003
1.527370e+003,1.796760e-003
1.529299e+003,1.803415e-003
1.531227e+003,2.010515e-003
1.533156e+003,2.610942e-003
1.535084e+003,2.749533e-003
1.537013e+003,3.061649e-003
1.538941e+003,4.047805e-003
1.540870e+003,4.546713e-003
1.542798e+003,4.471115e-003
1.544727e+003,4.365642e-003
1.546655e+003,4.032254e-003
1.548584e+003,4.109648e-003
1.550512e+003,4.353861e-003
1.552441e+003,4.587396e-003
1.554369e+003,4.946446e-003
1.556298e+003,5.396632e-003
1.558226e+003,6.589639e-003
1.560155e+003,6.460276e-003
1.562083e+003,5.759677e-003
1.564012e+003,5.873381e-003
1.565940e+003,6.073461e-003
1.567869e+003,6.519840e-003
1.569797e+003,7.036245e-003
1.571726e+003,6.811454e-003
1.573654e+003,6.816402e-003
1.575583e+003,7.364231e-003
1.577511e+003,7.174302e-003
1.579440e+003,6.682294e-003
1.581368e+003,6.564274e-003
1.583297e+003,6.375232e-003
1.585225e+003,6.206540e-003
1.587154e+003,5.988661e-003
1.589082e+003,5.702768e-003
1.591010e+003,5.234859e-003
1.592939e+003,4.882239e-003
1.594868e+003,4.641043e-003
1.596796e+003,4.250123e-003
1.598724e+003,3.849258e-003
1.600653e+003,3.484300e-003
1.602582e+003,3.046033e-003
1.604510e+003,2.540847e-003
1.606438e+003,2.193803e-003
1.608367e+003,1.961085e-003
1.610296e+003,1.578156e-003
1.612224e+003,1.092577e-003
1.614152e+003,9.960904e-004
1.616081e+003,1.234272e-003
1.618010e+003,8.390349e-004
1.619938e+003,2.451617e-004
1.621866e+003,2.270275e-004
1.623795e+003,1.094887e-004
1.625724e+003,-1.704081e-004
1.627652e+003,-3.454837e-004
1.629580e+003,-6.083124e-004
1.631509e+003,-9.140009e-004
1.633438e+003,-7.405767e-004
1.635366e+003,-3.569719e-004
1.637294e+003,-9.329795e-004
1.639223e+003,-1.580728e-003
1.641151e+003,-1.832120e-003
1.643080e+003,-2.127255e-003
1.645008e+003,-2.049170e-003
1.646937e+003,-2.095007e-003
1.648865e+003,-2.834887e-003
1.650794e+003,-2.874782e-003
1.652722e+003,-2.108428e-003
1.654651e+003,-3.201148e-003
1.656579e+003,-4.337350e-003
1.658508e+003,-4.751379e-003
1.660436e+003,-4.901586e-003
1.662365e+003,-4.955641e-003
1.664293e+003,-5.226138e-003
1.666222e+003,-5.463258e-003
1.668150e+003,-5.210129e-003
1.670079e+003,-5.141961e-003
1.672007e+003,-5.433187e-003
1.673936e+003,-5.261690e-003
1.675864e+003,-5.214942e-003
1.677793e+003,-5.601674e-003
1.679721e+003,-5.507264e-003
1.681650e+003,-5.079252e-003
1.683578e+003,-4.175166e-003
1.685507e+003,-4.276362e-003
1.687435e+003,-4.720505e-003
1.689364e+003,-4.727912e-003
1.691292e+003,-4.699757e-003
1.693221e+003,-4.338433e-003
1.695149e+003,-3.625067e-003
1.697078e+003,-3.674910e-003
1.699006e+003,-3.369055e-003
1.700935e+003,-3.178223e-003
1.702863e+003,-3.899547e-003
1.704792e+003,-3.872684e-003
1.706720e+003,-3.956155e-003
1.708649e+003,-4.217005e-003
1.710577e+003,-4.352571e-003
1.712506e+003,-4.193412e-003
1.714434e+003,-3.949523e-003
1.716363e+003,-3.677834e-003
1.718291e+003,-3.746101e-003
1.720220e+003,-4.295948e-003
1.722148e+003,-4.527805e-003
1.724077e+003,-4.626034e-003
1.726005e+003,-4.668158e-003
1.727934e+003,-4.560693e-003
1.729862e+003,-4.422043e-003
1.731791e+003,-4.096398e-003
1.733719e+003,-3.668504e-003
1.735648e+003,-4.168996e-003
1.737576e+003,-4.414500e-003
1.739505e+003,-4.219499e-003
1.741433e+003,-4.402725e-003
1.743362e+003,-4.388260e-003
1.745290e+003,-4.251032e-003
1.747219e+003,-4.047095e-003
1.749147e+003,-3.765055e-003
1.751076e+003,-3.526644e-003
1.753004e+003,-3.823258e-003
1.754933e+003,-3.960522e-003
1.756861e+003,-3.803025e-003
1.758790e+003,-3.804832e-003
1.760718e+003,-3.564274e-003
1.762647e+003,-3.502651e-003
1.764575e+003,-3.778194e-003
1.766504e+003,-3.699551e-003
1.768432e+003,-3.537227e-003
1.770361e+003,-3.316908e-003
1.772289e+003,-3.129342e-003
1.774218e+003,-3.388716e-003
1.776146e+003,-3.566344e-003
1.778075e+003,-3.668602e-003
1.780003e+003,-3.645669e-003
1.781932e+003,-3.634727e-003
1.783860e+003,-3.542748e-003
1.785789e+003,-3.483554e-003
1.787717e+003,-3.437634e-003
1.789646e+003,-3.312436e-003
1.791574e+003,-3.031826e-003
1.793503e+003,-3.071835e-003
1.795431e+003,-3.348408e-003
1.797360e+003,-3.294186e-003
1.799288e+003,-3.194208e-003
1.801217e+003,-3.295797e-003
1.803145e+003,-3.420013e-003
1.805074e+003,-3.412058e-003
1.807002e+003,-3.410414e-003
1.808931e+003,-3.403017e-003
1.810859e+003,-3.415082e-003
1.812788e+003,-3.518723e-003
1.814716e+003,-3.629535e-003
1.816645e+003,-3.680003e-003
1.818573e+003,-3.647344e-003
1.820502e+003,-3.658351e-003
1.822430e+003,-3.672413e-003
1.824359e+003,-3.546626e-003
1.826287e+003,-3.508863e-003
1.828216e+003,-3.472182e-003
1.830144e+003,-3.447134e-003
1.832073e+003,-3.757729e-003
1.834001e+003,-3.855673e-003
1.835930e+003,-3.808215e-003
1.837858e+003,-3.829531e-003
1.839787e+003,-3.826838e-003
1.841715e+003,-3.750798e-003
1.843644e+003,-3.407784e-003
1.845572e+003,-3.489109e-003
1.847501e+003,-3.812485e-003
1.849429e+003,-3.879646e-003
1.851358e+003,-3.803124e-003
1.853286e+003,-3.792712e-003
1.855215e+003,-3.738119e-003
1.857143e+003,-3.650696e-003
1.859072e+003,-3.651911e-003
1.861000e+003,-3.687132e-003
1.862929e+003,-3.749517e-003
1.864857e+003,-3.620039e-003
1.866786e+003,-3.433919e-003
1.868714e+003,-3.326016e-003
1.870643e+003,-3.539560e-003
1.872571e+003,-3.735655e-003
1.874500e+003,-3.608703e-003
1.876428e+003,-3.516423e-003
1.878357e+003,-3.495519e-003
1.880285e+003,-3.524278e-003
1.882214e+003,-3.570321e-003
1.884142e+003,-3.538771e-003
1.886071e+003,-3.499726e-003
1.887999e+003,-3.415378e-003
1.889928e+003,-3.361132e-003
1.891856e+003,-3.504360e-003
1.893785e+003,-3.471064e-003
1.895713e+003,-3.374513e-003
1.897642e+003,-3.395719e-003
1.899570e+003,-3.314902e-003
1.901499e+003,-3.239596e-003
1.903427e+003,-3.234991e-003
1.905356e+003,-3.187827e-003
1.907284e+003,-3.135197e-003
1.909213e+003,-3.135098e-003
1.911141e+003,-3.219139e-003
1.913070e+003,-3.258736e-003
1.914998e+003,-3.164506e-003
1.916927e+003,-2.954036e-003
1.918855e+003,-2.870668e-003
1.920784e+003,-3.011195e-003
1.922712e+003,-3.108979e-003
1.924641e+003,-3.135296e-003
1.926569e+003,-3.057589e-003
1.928498e+003,-3.161809e-003
1.930426e+003,-3.227197e-003
1.932355e+003,-3.250514e-003
1.934283e+003,-3.267582e-003
1.936212e+003,-3.312337e-003
1.938140e+003,-3.334006e-003
1.940069e+003,-3.190195e-003
1.941997e+003,-3.071605e-003
1.943926e+003,-3.164638e-003
1.945854e+003,-3.331705e-003
1.947783e+003,-3.352353e-003
1.949711e+003,-3.263274e-003
1.951640e+003,-3.310299e-003
1.953568e+003,-3.404135e-003
1.955497e+003,-3.399532e-003
1.957425e+003,-3.391773e-003
1.959354e+003,-3.356562e-003
1.961282e+003,-3.324010e-003
1.963211e+003,-3.378097e-003
1.965139e+003,-3.354885e-003
1.967068e+003,-3.304018e-003
1.968996e+003,-3.487663e-003
1.970925e+003,-3.531147e-003
1.972853e+003,-3.406140e-003
1.974782e+003,-3.337393e-003
1.976710e+003,-3.328055e-003
1.978639e+003,-3.304840e-003
1.980567e+003,-3.354063e-003
1.982496e+003,-3.447331e-003
1.984424e+003,-3.427246e-003
1.986353e+003,-3.338478e-003
1.988281e+003,-3.291424e-003
1.990210e+003,-3.290602e-003
1.992138e+003,-3.227460e-003
1.994067e+003,-3.221178e-003
1.995995e+003,-3.255907e-003
1.997924e+003,-3.250580e-003
1.999852e+003,-3.204338e-003
2.001781e+003,-3.179078e-003
2.003709e+003,-3.118387e-003
2.005638e+003,-3.109242e-003
2.007566e+003,-3.027055e-003
2.009495e+003,-2.942715e-003
2.011423e+003,-2.986154e-003
2.013352e+003,-2.907894e-003
2.015280e+003,-2.851017e-003
2.017208e+003,-2.861715e-003
2.019137e+003,-2.868956e-003
2.021066e+003,-2.863986e-003
2.022994e+003,-2.864710e-003
2.024922e+003,-2.907861e-003
2.026851e+003,-2.915826e-003
2.028780e+003,-2.903681e-003
2.030708e+003,-2.946071e-003
2.032636e+003,-2.914213e-003
2.034565e+003,-2.822312e-003
2.036494e+003,-2.838837e-003
2.038422e+003,-2.905689e-003
2.040350e+003,-2.907960e-003
2.042279e+003,-2.904405e-003
2.044208e+003,-2.878272e-003
2.046136e+003,-2.832287e-003
2.048064e+003,-2.880444e-003
2.049993e+003,-2.885677e-003
2.051921e+003,-2.861517e-003
2.053850e+003,-2.798313e-003
2.055778e+003,-2.806214e-003
2.057707e+003,-2.758575e-003
2.059635e+003,-2.811844e-003
2.061564e+003,-2.848054e-003
2.063492e+003,-2.857436e-003
2.065421e+003,-2.776914e-003
2.067349e+003,-2.673754e-003
2.069278e+003,-2.731017e-003
2.071206e+003,-2.732301e-003
2.073135e+003,-2.645433e-003
2.075063e+003,-2.546986e-003
2.076992e+003,-2.509103e-003
2.078920e+003,-2.539574e-003
2.080849e+003,-2.572382e-003
2.082777e+003,-2.593001e-003
2.084706e+003,-2.579068e-003
2.086634e+003,-2.558613e-003
2.088563e+003,-2.519249e-003
2.090491e+003,-2.423145e-003
2.092420e+003,-2.402453e-003
2.094348e+003,-2.383143e-003
2.096277e+003,-2.324681e-003
2.098205e+003,-2.294260e-003
2.100134e+003,-2.278604e-003
2.102062e+003,-2.234995e-003
2.103991e+003,-2.176480e-003
2.105919e+003,-2.113967e-003
2.107848e+003,-1.979845e-003
2.109776e+003,-1.995709e-003
2.111705e+003,-2.098173e-003
2.113633e+003,-2.058074e-003
2.115562e+003,-1.915819e-003
2.117490e+003,-1.839478e-003
2.119419e+003,-1.815359e-003
2.121347e+003,-1.774277e-003
2.123276e+003,-1.789687e-003
2.125204e+003,-1.780316e-003
2.127133e+003,-1.721508e-003
2.129061e+003,-1.582478e-003
2.130990e+003,-1.522389e-003
2.132918e+003,-1.658699e-003
2.134847e+003,-1.702399e-003
2.136775e+003,-1.678603e-003
2.138704e+003,-1.609350e-003
2.140632e+003,-1.492077e-003
2.142561e+003,-1.479199e-003
2.144489e+003,-1.572276e-003
2.146418e+003,-1.606973e-003
2.148346e+003,-1.567621e-003
2.150275e+003,-1.564617e-003
2.152203e+003,-1.518823e-003
2.154132e+003,-1.467014e-003
2.156060e+003,-1.516743e-003
2.157989e+003,-1.514366e-003
2.159917e+003,-1.474279e-003
2.161846e+003,-1.560754e-003
2.163774e+003,-1.601823e-003
2.165703e+003,-1.477218e-003
2.167631e+003,-1.393335e-003
2.169560e+003,-1.395350e-003
2.171488e+003,-1.416091e-003
2.173417e+003,-1.457636e-003
2.175345e+003,-1.484450e-003
2.177274e+003,-1.470118e-003
2.179202e+003,-1.453277e-003
2.181131e+003,-1.482964e-003
2.183059e+003,-1.511790e-003
2.184988e+003,-1.440959e-003
2.186916e+003,-1.381676e-003
2.188845e+003,-1.421177e-003
2.190773e+003,-1.384616e-003
2.192702e+003,-1.375103e-003
2.194630e+003,-1.465066e-003
2.196559e+003,-1.451163e-003
2.198487e+003,-1.373980e-003
2.200416e+003,-1.443270e-003
2.202344e+003,-1.412689e-003
2.204273e+003,-1.342601e-003
2.206201e+003,-1.354724e-003
2.208130e+003,-1.318388e-003
2.210058e+003,-1.265597e-003
2.211987e+003,-1.279473e-003
2.213915e+003,-1.264970e-003
2.215844e+003,-1.213395e-003
2.217772e+003,-1.208373e-003
2.219701e+003,-1.233682e-003
2.221629e+003,-1.303424e-003
2.223558e+003,-1.326812e-003
2.225486e+003,-1.268901e-003
2.227415e+003,-1.290243e-003
2.229343e+003,-1.216435e-003
2.231272e+003,-1.214849e-003
2.233200e+003,-1.221027e-003
2.235129e+003,-1.221391e-003
2.237057e+003,-1.284329e-003
2.238986e+003,-1.273725e-003
2.240914e+003,-1.310394e-003
2.242843e+003,-1.313830e-003
2.244771e+003,-1.303060e-003
2.246700e+003,-1.266060e-003
2.248628e+003,-1.227272e-003
2.250557e+003,-1.404664e-003
2.252485e+003,-1.478671e-003
2.254414e+003,-1.413284e-003
2.256342e+003,-1.423422e-003
2.258271e+003,-1.463976e-003
2.260199e+003,-1.393434e-003
2.262128e+003,-1.261930e-003
2.264056e+003,-1.286444e-003
2.265985e+003,-1.322683e-003
2.267913e+003,-1.389801e-003
2.269842e+003,-1.443502e-003
2.271770e+003,-1.457999e-003
2.273699e+003,-1.510667e-003
2.275627e+003,-1.565607e-003
2.277556e+003,-1.588453e-003
2.279484e+003,-1.603276e-003
2.281413e+003,-1.585152e-003
2.283341e+003,-1.597136e-003
2.285270e+003,-1.584525e-003
2.287198e+003,-1.549397e-003
2.289127e+003,-1.504889e-003
2.291055e+003,-1.547383e-003
2.292984e+003,-1.551609e-003
2.294912e+003,-1.544709e-003
2.296841e+003,-1.418204e-003
2.298769e+003,-1.139078e-003
2.300698e+003,-9.253749e-004
2.302626e+003,-7.107066e-004
2.304555e+003,-4.824948e-004
2.306483e+003,-1.795163e-004
2.308412e+003,9.510510e-005
2.310340e+003,4.432945e-004
2.312269e+003,9.948284e-004
2.314197e+003,1.657608e-003
2.316125e+003,2.323500e-003
2.318054e+003,2.965092e-003
2.319983e+003,3.695512e-003
2.321911e+003,4.459131e-003
2.323840e+003,5.132620e-003
2.325768e+003,5.741042e-003
2.327697e+003,6.487585e-003
2.329625e+003,7.272406e-003
2.331553e+003,7.649702e-003
2.333482e+003,7.861365e-003
2.335411e+003,8.126806e-003
2.337339e+003,8.350083e-003
2.339268e+003,8.492815e-003
2.341196e+003,8.285574e-003
2.343125e+003,7.608765e-003
2.345053e+003,6.263312e-003
2.346981e+003,4.054996e-003
2.348910e+003,2.723559e-003
2.350839e+003,4.230650e-003
2.352767e+003,7.042812e-003
2.354696e+003,9.218452e-003
2.356624e+003,1.058655e-002
2.358552e+003,1.138603e-002
2.360481e+003,1.163437e-002
2.362409e+003,1.163999e-002
2.364338e+003,1.138443e-002
2.366267e+003,1.057538e-002
2.368195e+003,9.397596e-003
2.370124e+003,8.044777e-003
2.372052e+003,6.462260e-003
2.373980e+003,4.822397e-003
2.375909e+003,3.146614e-003
2.377838e+003,1.713856e-003
2.379766e+003,6.412856e-004
2.381695e+003,-1.395050e-004
2.383623e+003,-5.804516e-004
2.385552e+003,-7.748106e-004
2.387480e+003,-8.058669e-004
2.389408e+003,-7.272462e-004
2.391337e+003,-7.749429e-004
2.393266e+003,-8.681713e-004
2.395194e+003,-7.864859e-004
2.397123e+003,-6.652194e-004
2.399051e+003,-6.342523e-004
2.400979e+003,-6.257823e-004
2.402908e+003,-6.343516e-004
2.404836e+003,-6.091396e-004
2.406765e+003,-5.931580e-004
2.408694e+003,-6.752104e-004
2.410622e+003,-5.984191e-004
2.412551e+003,-4.751141e-004
2.414479e+003,-3.916996e-004
2.416407e+003,-3.931231e-004
2.418336e+003,-4.353949e-004
2.420264e+003,-4.895445e-004
2.422193e+003,-4.814357e-004
2.424122e+003,-3.854429e-004
2.426050e+003,-3.165797e-004
2.427979e+003,-3.855753e-004
2.429907e+003,-3.138978e-004
2.431835e+003,-1.357621e-004
2.433764e+003,-2.375646e-005
2.435692e+003,4.870977e-005
2.437621e+003,5.755764e-005
2.439550e+003,-6.662744e-005
2.441478e+003,-1.155562e-004
2.443406e+003,1.106691e-005
2.445335e+003,1.069036e-004
2.447263e+003,9.977805e-005
2.449192e+003,1.085938e-004
2.451121e+003,1.060750e-004
2.453049e+003,7.107833e-005
2.454978e+003,1.932144e-004
2.456906e+003,3.572324e-004
2.458834e+003,3.781909e-004
2.460763e+003,3.427744e-004
2.462691e+003,3.141249e-004
2.464620e+003,3.072944e-004
2.466549e+003,3.257966e-004
2.468477e+003,3.435702e-004
2.470406e+003,3.374024e-004
2.472334e+003,3.348823e-004
2.474262e+003,4.371917e-004
2.476191e+003,5.429423e-004
2.478119e+003,5.798018e-004
2.480048e+003,5.595635e-004
2.481977e+003,5.845131e-004
2.483905e+003,5.205825e-004
2.485833e+003,4.916560e-004
2.487762e+003,5.498760e-004
2.489690e+003,5.336201e-004
2.491619e+003,5.875324e-004
2.493547e+003,7.557156e-004
2.495476e+003,8.653618e-004
2.497405e+003,8.082945e-004
2.499333e+003,6.610299e-004
2.501261e+003,5.462930e-004
2.503190e+003,5.798350e-004
2.505118e+003,6.875451e-004
2.507047e+003,7.287647e-004
2.508975e+003,7.073248e-004
2.510904e+003,6.935851e-004
2.512833e+003,7.599974e-004
2.514761e+003,8.115809e-004
2.516689e+003,7.681627e-004
2.518618e+003,8.033484e-004
2.520546e+003,8.622410e-004
2.522475e+003,8.070663e-004
2.524403e+003,7.817719e-004
2.526332e+003,8.330593e-004
2.528260e+003,9.148328e-004
2.530189e+003,9.701541e-004
2.532117e+003,9.161278e-004
2.534046e+003,8.868760e-004
2.535974e+003,9.673313e-004
2.537903e+003,9.751685e-004
2.539831e+003,1.065372e-003
2.541760e+003,1.038734e-003
2.543688e+003,1.050857e-003
2.545617e+003,1.165694e-003
2.547545e+003,1.264278e-003
2.549474e+003,1.265010e-003
2.551402e+003,1.161475e-003
2.553331e+003,1.117889e-003
2.555259e+003,1.205099e-003
2.557188e+003,1.243310e-003
2.559116e+003,1.231813e-003
2.561045e+003,1.295516e-003
2.562973e+003,1.257931e-003
2.564902e+003,1.374086e-003
2.566830e+003,1.499781e-003
2.568759e+003,1.413410e-003
2.570687e+003,1.407559e-003
2.572616e+003,1.491868e-003
2.574544e+003,1.511020e-003
2.576473e+003,1.420690e-003
2.578401e+003,1.431594e-003
2.580330e+003,1.423017e-003
2.582258e+003,1.388612e-003
2.584187e+003,1.437012e-003
2.586115e+003,1.481628e-003
2.588044e+003,1.475012e-003
2.589972e+003,1.557106e-003
2.591901e+003,1.590526e-003
2.593829e+003,1.486881e-003
2.595758e+003,1.409720e-003
2.597686e+003,1.446687e-003
2.599615e+003,1.392501e-003
2.601543e+003,1.429233e-003
2.603472e+003,1.490439e-003
2.605400e+003,1.562859e-003
2.607329e+003,1.704009e-003
2.609257e+003,1.715419e-003
2.611186e+003,1.718247e-003
2.613114e+003,1.719444e-003
2.615043e+003,1.644670e-003
2.616971e+003,1.580982e-003
2.618900e+003,1.681889e-003
2.620828e+003,1.860480e-003
2.622757e+003,1.965812e-003
2.624685e+003,1.923276e-003
2.626614e+003,1.879714e-003
2.628542e+003,1.831963e-003
2.630471e+003,1.810701e-003
2.632399e+003,1.854457e-003
2.634328e+003,1.901245e-003
2.636256e+003,1.859981e-003
2.638185e+003,1.949935e-003
2.640113e+003,2.036880e-003
2.642042e+003,1.990809e-003
2.643970e+003,2.064378e-003
2.645899e+003,2.136461e-003
2.647827e+003,2.147016e-003
2.649756e+003,2.173789e-003
2.651684e+003,2.211253e-003
2.653613e+003,2.218780e-003
2.655541e+003,2.241227e-003
2.657470e+003,2.269571e-003
2.659398e+003,2.271303e-003
2.661327e+003,2.342521e-003
2.663255e+003,2.343021e-003
2.665184e+003,2.300682e-003
2.667112e+003,2.484525e-003
2.669041e+003,2.595476e-003
2.670969e+003,2.592942e-003
2.672898e+003,2.569377e-003
2.674826e+003,2.540680e-003
2.676755e+003,2.565977e-003
2.678683e+003,2.572977e-003
2.680612e+003,2.628343e-003
2.682540e+003,2.681049e-003
2.684469e+003,2.767506e-003
2.686397e+003,2.810858e-003
2.688326e+003,2.890670e-003
2.690254e+003,3.061850e-003
2.692183e+003,3.071994e-003
2.694111e+003,2.901944e-003
2.696040e+003,2.816928e-003
2.697968e+003,2.909983e-003
2.699897e+003,3.026714e-003
2.701825e+003,3.053074e-003
2.703754e+003,3.137336e-003
2.705682e+003,3.241042e-003
2.707611e+003,3.272689e-003
2.709539e+003,3.231361e-003
2.711468e+003,3.182660e-003
2.713396e+003,3.245014e-003
2.715325e+003,3.333921e-003
2.717253e+003,3.365509e-003
2.719182e+003,3.438643e-003
2.721110e+003,3.445189e-003
2.723039e+003,3.488976e-003
2.724967e+003,3.614015e-003
2.726896e+003,3.730668e-003
2.728824e+003,3.712354e-003
2.730753e+003,3.737853e-003
2.732681e+003,3.816733e-003
2.734610e+003,3.845146e-003
2.736538e+003,3.851230e-003
2.738467e+003,3.902347e-003
2.740395e+003,4.020983e-003
2.742324e+003,4.114899e-003
2.744252e+003,4.103627e-003
2.746181e+003,4.122526e-003
2.748109e+003,4.303294e-003
2.750038e+003,4.454745e-003
2.751966e+003,4.447950e-003
2.753895e+003,4.605077e-003
2.755823e+003,4.768793e-003
2.757752e+003,4.824775e-003
2.759680e+003,4.948457e-003
2.761609e+003,5.112974e-003
2.763537e+003,5.388481e-003
2.765466e+003,5.505209e-003
2.767394e+003,5.692227e-003
2.769323e+003,5.978448e-003
2.771251e+003,6.311015e-003
2.773180e+003,6.566629e-003
2.775108e+003,6.713049e-003
2.777037e+003,6.977183e-003
2.778965e+003,7.275035e-003
2.780894e+003,7.687204e-003
2.782822e+003,8.174072e-003
2.784750e+003,8.646141e-003
2.786679e+003,9.061170e-003
2.788608e+003,9.505315e-003
2.790536e+003,9.897538e-003
2.792465e+003,1.024920e-002
2.794393e+003,1.060767e-002
2.796322e+003,1.091689e-002
2.798250e+003,1.124422e-002
2.800178e+003,1.157118e-002
2.802107e+003,1.189699e-002
2.804036e+003,1.209976e-002
2.805964e+003,1.218975e-002
2.807893e+003,1.235260e-002
2.809821e+003,1.243071e-002
2.811750e+003,1.236163e-002
2.813678e+003,1.226970e-002
2.815606e+003,1.220924e-002
2.817535e+003,1.205493e-002
2.819464e+003,1.187295e-002
2.821392e+003,1.170588e-002
2.823321e+003,1.150629e-002
2.825249e+003,1.132206e-002
2.827177e+003,1.101690e-002
2.829106e+003,1.048993e-002
2.831034e+003,1.006801e-002
2.832963e+003,9.737468e-003
2.834892e+003,9.552156e-003
2.836820e+003,9.256834e-003
2.838749e+003,8.724936e-003
2.840677e+003,8.211618e-003
2.842605e+003,7.905430e-003
2.844534e+003,7.502594e-003
2.846462e+003,6.861439e-003
2.848391e+003,6.334684e-003
2.850320e+003,6.052864e-003
2.852248e+003,5.959939e-003
2.854177e+003,5.880535e-003
2.856105e+003,5.822570e-003
2.858033e+003,5.857462e-003
2.859962e+003,5.978650e-003
2.861890e+003,5.968673e-003
2.863819e+003,5.854439e-003
2.865748e+003,5.824652e-003
2.867676e+003,5.862601e-003
2.869604e+003,6.055519e-003
2.871533e+003,6.183181e-003
2.873461e+003,6.303854e-003
2.875390e+003,6.255345e-003
2.877319e+003,6.282843e-003
2.879247e+003,6.444537e-003
2.881176e+003,6.442721e-003
2.883104e+003,6.454054e-003
2.885032e+003,6.536523e-003
2.886961e+003,6.498448e-003
2.888889e+003,6.426949e-003
2.890818e+003,6.390464e-003
2.892747e+003,6.228018e-003
2.894675e+003,5.993902e-003
2.896604e+003,5.948787e-003
2.898532e+003,5.905590e-003
2.900460e+003,5.844130e-003
2.902389e+003,5.749705e-003
2.904317e+003,5.642679e-003
2.906246e+003,5.557258e-003
2.908175e+003,5.452058e-003
2.910103e+003,5.302875e-003
2.912031e+003,5.091953e-003
2.913960e+003,4.857946e-003
2.915888e+003,4.689238e-003
2.917817e+003,4.608928e-003
2.919745e+003,4.766281e-003
2.921674e+003,4.950568e-003
2.923603e+003,5.141874e-003
2.925531e+003,5.239822e-003
2.927459e+003,5.331520e-003
2.929388e+003,5.332057e-003
2.931316e+003,5.448166e-003
2.933245e+003,5.599882e-003
2.935173e+003,5.638214e-003
2.937102e+003,5.663961e-003
2.939031e+003,5.756084e-003
2.940959e+003,5.639087e-003
2.942887e+003,5.424982e-003
2.944816e+003,5.276009e-003
2.946744e+003,5.128195e-003
2.948673e+003,4.943999e-003
2.950601e+003,4.604775e-003
2.952530e+003,4.226735e-003
2.954458e+003,3.932070e-003
2.956387e+003,3.675930e-003
2.958315e+003,3.438242e-003
2.960244e+003,2.922358e-003
2.962172e+003,2.430644e-003
2.964101e+003,2.191772e-003
2.966029e+003,1.976430e-003
2.967958e+003,1.700550e-003
2.969886e+003,1.470324e-003
2.971815e+003,1.305486e-003
2.973743e+003,1.123603e-003
2.975672e+003,8.231001e-004
2.977600e+003,6.632864e-004
2.979529e+003,5.947987e-004
2.981457e+003,5.259567e-004
2.983386e+003,4.557990e-004
2.985314e+003,3.318316e-004
2.987243e+003,2.989056e-004
2.989171e+003,2.579920e-004
2.991100e+003,2.130571e-005
2.993028e+003,-3.969276e-005
2.994957e+003,-7.510837e-005
2.996885e+003,-1.156555e-004
2.998814e+003,-4.727970e-005
3.000742e+003,-4.443048e-005
3.002671e+003,-1.158543e-004
3.004599e+003,-2.007128e-004
3.006528e+003,-1.454010e-004
3.008456e+003,-1.177755e-004
3.010385e+003,-1.311247e-004
3.012313e+003,-1.232080e-004
3.014242e+003,-1.244336e-004
3.016170e+003,-1.625914e-004
3.018099e+003,-1.098917e-004
3.020027e+003,-2.201199e-004
3.021956e+003,-3.417094e-004
3.023884e+003,-3.004218e-004
3.025813e+003,-2.532359e-004
3.027741e+003,-4.078872e-004
3.029670e+003,-4.973552e-004
3.031598e+003,-4.116609e-004
3.033527e+003,-4.076224e-004
3.035455e+003,-3.434310e-004
3.037384e+003,-3.879588e-004
3.039312e+003,-3.217449e-004
3.041241e+003,-3.508140e-004
3.043169e+003,-5.047356e-004
3.045098e+003,-6.057315e-004
3.047026e+003,-5.890880e-004
3.048955e+003,-5.183046e-004
3.050883e+003,-4.535338e-004
3.052812e+003,-4.755112e-004
3.054740e+003,-5.310127e-004
3.056669e+003,-5.418672e-004
3.058597e+003,-6.018602e-004
3.060526e+003,-7.178518e-004
3.062454e+003,-7.437852e-004
3.064383e+003,-6.033492e-004
3.066311e+003,-5.653293e-004
3.068240e+003,-5.775397e-004
3.070168e+003,-7.111697e-004
3.072097e+003,-8.850356e-004
3.074025e+003,-8.529267e-004
3.075954e+003,-7.467291e-004
3.077882e+003,-6.405716e-004
3.079811e+003,-6.727292e-004
3.081739e+003,-7.945559e-004
3.083668e+003,-7.863205e-004
3.085596e+003,-8.313321e-004
3.087525e+003,-9.354261e-004
3.089453e+003,-8.798441e-004
3.091382e+003,-8.759752e-004
3.093310e+003,-8.143334e-004
3.095239e+003,-9.127114e-004
3.097167e+003,-9.497420e-004
3.099096e+003,-8.661210e-004
3.101024e+003,-8.573910e-004
3.102953e+003,-9.227960e-004
3.104881e+003,-9.314585e-004
3.106810e+003,-7.815579e-004
3.108738e+003,-7.502352e-004
3.110667e+003,-7.982602e-004
3.112595e+003,-7.603235e-004
3.114524e+003,-8.261069e-004
3.116452e+003,-9.096694e-004
3.118381e+003,-8.929384e-004
3.120309e+003,-8.276281e-004
3.122238e+003,-7.493752e-004
3.124166e+003,-7.565198e-004
3.126095e+003,-8.684358e-004
3.128023e+003,-9.219694e-004
3.129952e+003,-9.025935e-004
3.131880e+003,-8.676422e-004
3.133809e+003,-8.147964e-004
3.135737e+003,-8.441964e-004
3.137666e+003,-8.053047e-004
3.139594e+003,-7.244014e-004
3.141523e+003,-6.786510e-004
3.143451e+003,-7.546344e-004
3.145380e+003,-8.138704e-004
3.147308e+003,-8.915166e-004
3.149237e+003,-9.231596e-004
3.151165e+003,-7.840054e-004
3.153094e+003,-6.311092e-004
3.155022e+003,-6.201576e-004
3.156951e+003,-6.763022e-004
3.158879e+003,-6.835802e-004
3.160808e+003,-6.923469e-004
3.162736e+003,-6.776255e-004
3.164665e+003,-5.802200e-004
3.166593e+003,-5.696974e-004
3.168522e+003,-6.087094e-004
3.170450e+003,-5.500411e-004
3.172379e+003,-5.505044e-004
3.174307e+003,-6.560883e-004
3.176236e+003,-5.946469e-004
3.178164e+003,-5.606966e-004
3.180093e+003,-5.880953e-004
3.182021e+003,-5.716497e-004
3.183950e+003,-5.368040e-004
3.185878e+003,-5.314098e-004
3.187807e+003,-4.785231e-004
3.189735e+003,-4.746838e-004
3.191664e+003,-6.234662e-004
3.193592e+003,-5.430586e-004
3.195521e+003,-4.467814e-004
3.197449e+003,-5.768779e-004
3.199378e+003,-6.698841e-004
3.201306e+003,-6.063933e-004
3.203235e+003,-5.003008e-004
3.205163e+003,-5.512324e-004
3.207092e+003,-6.792465e-004
3.209020e+003,-6.331274e-004
3.210948e+003,-4.551887e-004
3.212877e+003,-3.776632e-004
3.214806e+003,-2.995609e-004
3.216734e+003,-3.233341e-004
3.218663e+003,-3.014814e-004
3.220591e+003,-2.018057e-004
3.222520e+003,-1.636844e-004
3.224448e+003,-2.373736e-004
3.226376e+003,-2.477719e-004
3.228305e+003,-8.474860e-005
3.230234e+003,3.949757e-005
3.232162e+003,1.520456e-004
3.234091e+003,2.018995e-004
3.236019e+003,1.686187e-004
3.237948e+003,1.342799e-004
3.239876e+003,2.382328e-004
3.241804e+003,4.275732e-004
3.243733e+003,5.131185e-004
3.245662e+003,5.085075e-004
3.247590e+003,5.658671e-004
3.249519e+003,6.332885e-004
3.251447e+003,6.843592e-004
3.253375e+003,6.260548e-004
3.255304e+003,6.581097e-004
3.257232e+003,7.985019e-004
3.259161e+003,9.907103e-004
3.261090e+003,1.172472e-003
3.263018e+003,1.188353e-003
3.264947e+003,1.079755e-003
3.266875e+003,9.790871e-004
3.268803e+003,1.202374e-003
3.270732e+003,1.337093e-003
3.272660e+003,1.243310e-003
3.274589e+003,1.251053e-003
3.276518e+003,1.198686e-003
3.278446e+003,1.171209e-003
3.280375e+003,1.370264e-003
3.282303e+003,1.418729e-003
3.284231e+003,1.433289e-003
3.286160e+003,1.333570e-003
3.288088e+003,1.153103e-003
3.290017e+003,1.038635e-003
3.291946e+003,1.066701e-003
3.293874e+003,1.105598e-003
3.295802e+003,1.063911e-003
3.297731e+003,9.223369e-004
3.299659e+003,8.567630e-004
3.301588e+003,7.782534e-004
3.303516e+003,6.381332e-004
3.305445e+003,5.634120e-004
3.307374e+003,5.991452e-004
3.309302e+003,4.553678e-004
3.311230e+003,2.992040e-004
3.313159e+003,2.457584e-004
3.315087e+003,8.267730e-005
3.317016e+003,8.489771e-005
3.318944e+003,1.885368e-005
3.320873e+003,-1.768666e-004
3.322802e+003,-2.800580e-004
3.324730e+003,-3.376371e-004
3.326658e+003,-4.240743e-004
3.328587e+003,-4.873601e-004
3.330515e+003,-5.335940e-004
3.332444e+003,-6.243926e-004
3.334372e+003,-6.145659e-004
3.336301e+003,-5.288947e-004
3.338229e+003,-5.392198e-004
3.340158e+003,-6.689578e-004
3.342086e+003,-7.363427e-004
3.344015e+003,-8.273966e-004
3.345943e+003,-8.411540e-004
3.347872e+003,-8.165492e-004
3.349800e+003,-9.141662e-004
3.351729e+003,-9.412451e-004
3.353657e+003,-8.365903e-004
3.355586e+003,-8.776947e-004
3.357514e+003,-9.651816e-004
3.359443e+003,-1.093239e-003
3.361371e+003,-1.239299e-003
3.363300e+003,-1.278581e-003
3.365229e+003,-1.314061e-003
3.367157e+003,-1.414638e-003
3.369085e+003,-1.637937e-003
3.371014e+003,-1.764674e-003
3.372942e+003,-1.743554e-003
3.374871e+003,-1.882797e-003
3.376799e+003,-1.892133e-003
3.378728e+003,-1.915786e-003
3.380656e+003,-2.087753e-003
3.382585e+003,-2.183106e-003
3.384513e+003,-2.265683e-003
3.386442e+003,-2.347058e-003
3.388370e+003,-2.375629e-003
3.390299e+003,-2.406934e-003
3.392227e+003,-2.408120e-003
3.394156e+003,-2.490259e-003
3.396084e+003,-2.443013e-003
3.398013e+003,-2.525673e-003
3.399941e+003,-2.653798e-003
3.401870e+003,-2.631766e-003
3.403798e+003,-2.628242e-003
3.405727e+003,-2.552849e-003
3.407655e+003,-2.498396e-003
3.409584e+003,-2.506039e-003
3.411512e+003,-2.644972e-003
3.413441e+003,-2.772930e-003
3.415369e+003,-2.863624e-003
3.417298e+003,-2.795416e-003
3.419226e+003,-2.717220e-003
3.421155e+003,-2.668946e-003
3.423083e+003,-2.686465e-003
3.425012e+003,-2.699374e-003
3.426940e+003,-2.748797e-003
3.428869e+003,-2.687124e-003
3.430797e+003,-2.740796e-003
3.432726e+003,-2.805589e-003
3.434654e+003,-2.894465e-003
3.436583e+003,-3.066012e-003
3.438511e+003,-3.001883e-003
3.440440e+003,-2.784980e-003
3.442368e+003,-2.897428e-003
3.444297e+003,-3.053772e-003
3.446225e+003,-2.955484e-003
3.448154e+003,-2.905492e-003
3.450082e+003,-3.037025e-003
3.452011e+003,-3.091345e-003
3.453939e+003,-3.045021e-003
3.455868e+003,-3.072395e-003
3.457796e+003,-3.048179e-003
3.459725e+003,-3.084831e-003
3.461653e+003,-3.042619e-003
3.463582e+003,-3.005964e-003
3.465510e+003,-3.209403e-003
3.467439e+003,-3.270312e-003
3.469367e+003,-3.208022e-003
3.471296e+003,-3.225552e-003
3.473224e+003,-3.188748e-003
3.475153e+003,-3.257157e-003
3.477081e+003,-3.250218e-003
3.479010e+003,-3.229729e-003
3.480938e+003,-3.236800e-003
3.482867e+003,-3.228183e-003
3.484795e+003,-3.175755e-003
3.486724e+003,-3.315231e-003
3.488652e+003,-3.320295e-003
3.490581e+003,-3.114374e-003
3.492509e+003,-3.067229e-003
3.494438e+003,-3.174769e-003
3.496366e+003,-3.178584e-003
3.498295e+003,-3.208548e-003
3.500223e+003,-3.091509e-003
3.502152e+003,-3.022416e-003
3.504080e+003,-3.036927e-003
3.506009e+003,-3.105590e-003
3.507937e+003,-3.176874e-003
3.509866e+003,-3.169177e-003
3.511794e+003,-3.120098e-003
3.513723e+003,-3.237359e-003
3.515651e+003,-3.180229e-003
3.517580e+003,-3.031662e-003
3.519508e+003,-3.171183e-003
3.521437e+003,-3.375006e-003
3.523365e+003,-3.264096e-003
3.525294e+003,-3.138750e-003
3.527222e+003,-2.994348e-003
3.529151e+003,-3.129276e-003
3.531079e+003,-3.332790e-003
3.533008e+003,-3.259459e-003
3.534936e+003,-3.241996e-003
3.536865e+003,-3.233018e-003
3.538793e+003,-3.353898e-003
3.540722e+003,-3.339168e-003
3.542650e+003,-3.305498e-003
3.544579e+003,-3.092628e-003
3.546507e+003,-2.804173e-003
3.548436e+003,-2.913654e-003
3.550364e+003,-2.985496e-003
3.552293e+003,-2.927970e-003
3.554221e+003,-2.964303e-003
3.556150e+003,-3.023535e-003
3.558078e+003,-3.045514e-003
3.560007e+003,-3.111347e-003
3.561935e+003,-3.178321e-003
3.563864e+003,-3.060912e-003
3.565792e+003,-2.710174e-003
3.567721e+003,-2.703687e-003
3.569649e+003,-2.991814e-003
3.571578e+003,-3.136546e-003
3.573506e+003,-3.026430e-003
3.575435e+003,-3.005700e-003
3.577363e+003,-3.095918e-003
3.579292e+003,-3.119867e-003
3.581220e+003,-3.133815e-003
3.583149e+003,-3.110360e-003
3.585077e+003,-2.826888e-003
3.587006e+003,-2.356121e-003
3.588934e+003,-2.585195e-003
3.590863e+003,-2.946302e-003
3.592791e+003,-2.872939e-003
3.594720e+003,-2.733421e-003
3.596648e+003,-2.571229e-003
3.598577e+003,-2.676224e-003
3.600505e+003,-2.604034e-003
3.602434e+003,-2.507093e-003
3.604362e+003,-2.681164e-003
3.606291e+003,-2.635685e-003
3.608219e+003,-2.375168e-003
3.610148e+003,-2.446737e-003
3.612076e+003,-2.597579e-003
3.614005e+003,-2.748138e-003
3.615933e+003,-2.725814e-003
3.617862e+003,-2.424266e-003
3.619790e+003,-2.445913e-003
3.621719e+003,-2.736812e-003
3.623647e+003,-2.904405e-003
3.625576e+003,-2.795976e-003
3.627504e+003,-2.048906e-003
3.629433e+003,-1.689923e-003
3.631361e+003,-2.595076e-003
3.633290e+003,-2.879917e-003
3.635218e+003,-2.967923e-003
3.637146e+003,-2.939588e-003
3.639075e+003,-2.828435e-003
3.641004e+003,-3.005700e-003
3.642932e+003,-3.100458e-003
3.644861e+003,-2.877054e-003
3.646789e+003,-2.418400e-003
3.648718e+003,-2.105889e-003
3.650646e+003,-2.340335e-003
3.652574e+003,-2.941859e-003
3.654503e+003,-2.881991e-003
3.656432e+003,-2.519974e-003
3.658360e+003,-2.796173e-003
3.660289e+003,-3.102826e-003
3.662217e+003,-3.142039e-003
3.664146e+003,-3.213285e-003
3.666074e+003,-3.259426e-003
3.668002e+003,-2.951140e-003
3.669931e+003,-2.756205e-003
3.671860e+003,-3.097102e-003
3.673788e+003,-2.704971e-003
3.675717e+003,-2.206810e-003
3.677645e+003,-2.877416e-003
3.679573e+003,-3.115624e-003
3.681502e+003,-3.087134e-003
3.683430e+003,-3.174308e-003
3.685359e+003,-3.325950e-003
3.687288e+003,-2.669934e-003
3.689216e+003,-2.102031e-003
3.691145e+003,-2.574885e-003
3.693073e+003,-3.286327e-003
3.695001e+003,-3.463865e-003
3.696930e+003,-3.111347e-003
3.698858e+003,-2.931722e-003
3.700787e+003,-2.616616e-003
3.702716e+003,-2.465714e-003
3.704644e+003,-2.727658e-003
3.706573e+003,-2.762329e-003
3.708501e+003,-2.612960e-003
3.710429e+003,-2.371411e-003
3.712358e+003,-2.452272e-003
3.714286e+003,-2.897197e-003
3.716215e+003,-2.937580e-003
3.718144e+003,-2.771251e-003
3.720072e+003,-2.699044e-003
3.722000e+003,-2.566288e-003
3.723929e+003,-2.540101e-003
3.725857e+003,-2.545108e-003
3.727786e+003,-2.622017e-003
3.729714e+003,-2.479914e-003
3.731643e+003,-2.074925e-003
3.733572e+003,-1.865213e-003
3.735500e+003,-1.777247e-003
3.737428e+003,-2.273297e-003
3.739357e+003,-2.840746e-003
3.741285e+003,-2.637101e-003
3.743214e+003,-1.355616e-003
3.745142e+003,-9.927861e-004
3.747071e+003,-1.900875e-003
3.749000e+003,-1.493794e-003
3.750928e+003,-1.364633e-003
3.752856e+003,-1.744577e-003
3.754785e+003,-2.179645e-003
3.756713e+003,-2.214853e-003
3.758642e+003,-2.288954e-003
3.760570e+003,-2.270561e-003
3.762499e+003,-2.382484e-003
3.764427e+003,-2.223820e-003
3.766356e+003,-2.196129e-003
3.768284e+003,-2.137509e-003
3.770213e+003,-1.898368e-003
3.772141e+003,-2.102493e-003
3.774070e+003,-2.359746e-003
3.775998e+003,-2.215875e-003
3.777927e+003,-1.979185e-003
3.779855e+003,-1.962990e-003
3.781784e+003,-2.285196e-003
3.783712e+003,-2.220985e-003
3.785641e+003,-1.998744e-003
3.787569e+003,-2.074497e-003
3.789498e+003,-2.334700e-003
3.791426e+003,-2.472831e-003
3.793355e+003,-2.535885e-003
3.795283e+003,-2.237302e-003
3.797212e+003,-1.930367e-003
3.799140e+003,-1.680253e-003
3.801069e+003,-1.387093e-003
3.802997e+003,-1.848881e-003
3.804926e+003,-1.999931e-003
3.806854e+003,-1.655101e-003
3.808783e+003,-2.076145e-003
3.810711e+003,-2.415171e-003
3.812640e+003,-2.452502e-003
3.814568e+003,-2.014773e-003
3.816497e+003,-1.620343e-003
3.818425e+003,-1.843041e-003
3.820354e+003,-1.372164e-003
3.822282e+003,-1.471802e-003
3.824211e+003,-2.278307e-003
3.826139e+003,-2.374937e-003
3.828068e+003,-2.212117e-003
3.829996e+003,-1.983044e-003
3.831925e+003,-1.811663e-003
3.833853e+003,-1.748141e-003
3.835782e+003,-1.654903e-003
3.837710e+003,-1.362981e-003
3.839639e+003,-1.551609e-003
3.841567e+003,-1.795396e-003
3.843496e+003,-1.769987e-003
3.845424e+003,-1.950423e-003
3.847353e+003,-2.294260e-003
3.849281e+003,-2.218249e-003
3.851210e+003,-1.395911e-003
3.853138e+003,-2.329692e-004
3.855067e+003,-6.810330e-004
3.856995e+003,-1.734974e-003
3.858924e+003,-2.212117e-003
3.860852e+003,-1.967476e-003
3.862781e+003,-1.498186e-003
3.864709e+003,-1.292126e-003
3.866638e+003,-1.724611e-003
3.868566e+003,-1.491318e-003
3.870495e+003,-1.378208e-003
3.872423e+003,-1.643086e-003
3.874352e+003,-1.588552e-003
3.876280e+003,-1.879300e-003
3.878209e+003,-1.900150e-003
3.880137e+003,-1.820869e-003
3.882066e+003,-2.132564e-003
3.883994e+003,-1.972127e-003
3.885923e+003,-1.584029e-003
3.887851e+003,-1.912851e-003
3.889780e+003,-1.771901e-003
3.891708e+003,-1.498087e-003
3.893637e+003,-1.718439e-003
3.895565e+003,-1.947883e-003
3.897494e+003,-1.898632e-003
3.899422e+003,-1.628331e-003
3.901351e+003,-1.586076e-003
3.903279e+003,-1.469491e-003
3.905208e+003,-1.476095e-003
3.907136e+003,-2.010551e-003
3.909065e+003,-2.153335e-003
3.910993e+003,-1.961407e-003
3.912922e+003,-2.065593e-003
3.914850e+003,-2.133817e-003
3.916779e+003,-2.083169e-003
3.918707e+003,-2.014212e-003
3.920636e+003,-2.033242e-003
3.922564e+003,-2.027833e-003
3.924493e+003,-1.918360e-003
3.926421e+003,-1.910409e-003
3.928350e+003,-2.031131e-003
3.930278e+003,-2.048445e-003
3.932207e+003,-2.031625e-003
3.934135e+003,-2.116605e-003
3.936064e+003,-2.160391e-003
3.937992e+003,-2.006033e-003
3.939921e+003,-1.855480e-003
3.941849e+003,-1.756259e-003
3.943778e+003,-1.862903e-003
3.945706e+003,-1.978624e-003
3.947635e+003,-1.940692e-003
3.949563e+003,-1.881609e-003
3.951492e+003,-1.937690e-003
3.953420e+003,-2.066351e-003
3.955349e+003,-2.202854e-003
3.957277e+003,-2.291524e-003
3.959206e+003,-2.224941e-003
3.961134e+003,-2.206612e-003
3.963063e+003,-2.077201e-003
3.964991e+003,-2.106251e-003
3.966920e+003,-1.989707e-003
3.968848e+003,-1.799157e-003
3.970777e+003,-1.838158e-003
3.972705e+003,-1.827732e-003
3.974634e+003,-1.936964e-003
3.976562e+003,-2.081454e-003
3.978491e+003,-2.087126e-003
3.980419e+003,-1.968762e-003
3.982348e+003,-1.828986e-003
3.984276e+003,-1.903086e-003
3.986205e+003,-2.019720e-003
3.988133e+003,-1.926310e-003
3.990062e+003,-1.899919e-003
3.991990e+003,-2.118188e-003
3.993919e+003,-2.258629e-003
3.995847e+003,-2.458499e-003
3.997776e+003,-2.331074e-003
3.999704e+003,-2.169457e-003
4.001633e+003,0.000000e+000
