3.991989e+002,8.778523e-003
4.011274e+002,-3.889432e-003
4.030559e+002,-2.243159e-002
4.049844e+002,-2.267938e-002
4.069129e+002,-1.374473e-002
4.088414e+002,-2.497935e-003
4.107699e+002,-2.746953e-003
4.126984e+002,-9.661146e-003
4.146269e+002,-7.120819e-003
4.165554e+002,-4.559831e-004
4.184839e+002,7.469199e-004
4.204124e+002,6.146481e-003
4.223409e+002,8.343901e-003
4.242694e+002,6.582809e-003
4.261979e+002,-5.905108e-004
4.281264e+002,-3.506154e-004
4.300549e+002,3.144845e-003
4.319834e+002,2.137094e-003
4.339119e+002,4.712116e-003
4.358404e+002,8.392104e-003
4.377689e+002,1.088828e-002
4.396974e+002,1.903941e-003
4.416259e+002,-4.847755e-003
4.435544e+002,-1.752200e-003
4.454829e+002,2.423437e-004
4.474114e+002,4.504920e-004
4.493399e+002,-3.725734e-003
4.512684e+002,-4.545479e-003
4.531969e+002,-3.827724e-003
4.551254e+002,-1.491978e-003
4.570539e+002,-1.410047e-003
4.589824e+002,-2.793046e-003
4.609109e+002,-3.564800e-003
4.628394e+002,-1.185936e-003
4.647679e+002,-3.208840e-004
4.666964e+002,-2.471427e-004
4.686249e+002,4.428302e-004
4.705533e+002,7.257777e-004
4.724819e+002,-1.829085e-003
4.744103e+002,-1.638861e-003
4.763389e+002,-5.895843e-004
4.782673e+002,-1.035595e-003
4.801959e+002,-2.006660e-003
4.821243e+002,-1.163169e-003
4.840529e+002,-2.124057e-003
4.859813e+002,-2.822674e-003
4.879099e+002,-2.334930e-003
4.898383e+002,-2.162204e-003
4.917668e+002,-3.149704e-003
4.936953e+002,-2.569648e-003
4.956238e+002,-9.158525e-004
4.975523e+002,-4.757760e-004
4.994808e+002,-1.639984e-003
5.014093e+002,-6.248889e-004
5.033378e+002,1.103273e-003
5.052663e+002,2.524816e-003
5.071948e+002,1.455530e-003
5.091233e+002,-8.284880e-004
5.110518e+002,-1.597334e-003
5.129803e+002,-1.193107e-003
5.149088e+002,1.450519e-004
5.168373e+002,9.743383e-004
5.187658e+002,1.370309e-004
5.206943e+002,-1.008059e-003
5.226228e+002,-4.985798e-004
5.245513e+002,1.061851e-003
5.264798e+002,6.079047e-004
5.284083e+002,8.934500e-004
5.303368e+002,2.001294e-003
5.322653e+002,1.565120e-003
5.341938e+002,8.522148e-004
5.361223e+002,-1.636844e-004
5.380508e+002,-4.421805e-004
5.399792e+002,8.515532e-006
5.419078e+002,-2.525074e-004
5.438363e+002,1.989824e-004
5.457648e+002,7.682955e-004
5.476932e+002,2.037227e-004
5.496218e+002,-3.403189e-004
5.515503e+002,5.816598e-004
5.534788e+002,8.403960e-004
5.554072e+002,1.537447e-005
5.573358e+002,-8.886728e-004
5.592643e+002,-9.071896e-004
5.611927e+002,-8.640047e-004
5.631212e+002,-8.319604e-004
5.650497e+002,-8.403934e-004
5.669783e+002,-6.477510e-004
5.689067e+002,1.355062e-004
5.708352e+002,-5.082464e-005
5.727637e+002,-5.724438e-004
5.746923e+002,-1.115482e-003
5.766207e+002,-3.027450e-003
5.785492e+002,-2.509168e-003
5.804777e+002,2.478261e-003
5.824063e+002,2.310075e-003
5.843347e+002,-6.986323e-004
5.862632e+002,-6.848043e-004
5.881917e+002,-6.638299e-004
5.901202e+002,-3.692875e-004
5.920487e+002,-4.006376e-004
5.939772e+002,-6.171467e-004
5.959057e+002,1.882054e-005
5.978342e+002,1.299305e-003
5.997627e+002,7.249480e-004
6.016912e+002,1.276511e-004
6.036197e+002,7.936222e-004
6.055482e+002,1.771075e-003
6.074767e+002,1.212807e-003
6.094052e+002,-1.023059e-004
6.113337e+002,-8.890366e-004
6.132622e+002,-1.038272e-003
6.151907e+002,-3.094941e-004
6.171192e+002,-8.899294e-004
6.190477e+002,-1.455919e-003
6.209762e+002,3.640637e-004
6.229047e+002,1.204069e-003
6.248332e+002,7.085195e-004
6.267617e+002,4.751681e-005
6.286902e+002,5.898259e-005
6.306187e+002,3.885047e-004
6.325472e+002,3.594874e-004
6.344756e+002,3.219171e-004
6.364042e+002,6.085020e-004
6.383326e+002,2.084181e-005
6.402612e+002,-1.461628e-004
6.421896e+002,2.202978e-004
6.441182e+002,3.467204e-004
6.460466e+002,1.126559e-006
6.479752e+002,1.580522e-005
6.499036e+002,2.385975e-004
6.518322e+002,6.592711e-004
6.537606e+002,7.424059e-004
6.556891e+002,1.759443e-004
6.576177e+002,1.491057e-005
6.595461e+002,-1.822334e-005
6.614746e+002,-2.123042e-004
6.634031e+002,-2.772103e-004
6.653317e+002,5.454305e-004
6.672601e+002,1.616201e-003
6.691886e+002,1.105166e-003
6.711171e+002,2.577905e-005
6.730457e+002,1.601001e-004
6.749741e+002,4.180877e-004
6.769026e+002,5.239332e-004
6.788311e+002,1.339153e-004
6.807596e+002,3.818720e-004
6.826881e+002,3.562376e-004
6.846166e+002,-1.235882e-005
6.865451e+002,8.221333e-005
6.884736e+002,7.021143e-004
6.904021e+002,6.717486e-004
6.923306e+002,5.610897e-004
6.942591e+002,6.864168e-004
6.961876e+002,-2.021172e-006
6.981161e+002,-6.834149e-004
7.000446e+002,-3.771997e-004
7.019731e+002,2.724472e-004
7.039016e+002,8.625066e-004
7.058301e+002,5.037306e-004
7.077585e+002,1.463446e-004
7.096871e+002,3.467868e-004
7.116156e+002,6.669368e-004
7.135441e+002,6.264862e-004
7.154725e+002,-4.028912e-005
7.174011e+002,-5.061918e-004
7.193296e+002,-2.262465e-004
7.212581e+002,-1.744819e-004
7.231865e+002,-9.389171e-005
7.251151e+002,-1.272329e-005
7.270436e+002,-1.765023e-004
7.289720e+002,-2.050182e-004
7.309005e+002,-2.570110e-004
7.328290e+002,-6.628043e-004
7.347576e+002,-5.219119e-004
7.366860e+002,4.579218e-004
7.386145e+002,6.730097e-004
7.405430e+002,4.061813e-004
7.424716e+002,1.071687e-004
7.444000e+002,1.782648e-005
7.463285e+002,4.678395e-004
7.482570e+002,1.647737e-004
7.501855e+002,-1.124424e-004
7.521140e+002,1.527748e-004
7.540425e+002,1.992475e-004
7.559710e+002,-6.735628e-005
7.578995e+002,-1.616971e-004
7.598280e+002,-1.968378e-004
7.617565e+002,-5.926947e-004
7.636850e+002,-9.648509e-004
7.656135e+002,-2.166757e-004
7.675420e+002,3.465878e-004
7.694705e+002,4.897984e-004
7.713990e+002,3.341196e-004
7.733275e+002,-7.875247e-005
7.752560e+002,-3.526349e-004
7.771844e+002,-1.361927e-004
7.791130e+002,8.678672e-005
7.810415e+002,7.899873e-005
7.829700e+002,1.073676e-004
7.848984e+002,5.064839e-004
7.868270e+002,3.492075e-004
7.887555e+002,-3.832580e-004
7.906840e+002,-4.503231e-004
7.926124e+002,1.014020e-004
7.945410e+002,1.363680e-004
7.964695e+002,2.574615e-004
7.983979e+002,5.409186e-004
8.003264e+002,5.840818e-004
8.022549e+002,3.524904e-004
8.041835e+002,5.086070e-004
8.061119e+002,6.269839e-004
8.080404e+002,7.083204e-004
8.099689e+002,5.357101e-004
8.118975e+002,4.436875e-005
8.138259e+002,8.701871e-005
8.157545e+002,4.826998e-004
8.176830e+002,3.629694e-004
8.196115e+002,1.514490e-004
8.215399e+002,3.061670e-004
8.234684e+002,5.911821e-004
8.253970e+002,2.788462e-004
8.273254e+002,-3.624713e-005
8.292539e+002,1.639119e-004
8.311824e+002,-5.761627e-005
8.331110e+002,-1.067448e-004
8.350394e+002,-2.541306e-005
8.369679e+002,3.245366e-004
8.388964e+002,3.241719e-004
8.408250e+002,-8.557679e-005
8.427534e+002,-3.017131e-004
8.446819e+002,-1.878659e-005
8.466104e+002,1.060291e-006
8.485389e+002,3.807268e-005
8.504674e+002,2.573952e-004
8.523959e+002,1.877781e-004
8.543244e+002,-1.986594e-004
8.562529e+002,-5.957092e-005
8.581814e+002,1.836014e-004
8.601099e+002,4.978923e-004
8.620384e+002,4.183530e-004
8.639669e+002,-2.935577e-005
8.658954e+002,1.979547e-004
8.678239e+002,5.785078e-004
8.697524e+002,5.402882e-004
8.716809e+002,3.304721e-004
8.736094e+002,1.455159e-004
8.755378e+002,1.902642e-004
8.774664e+002,3.718900e-004
8.793949e+002,4.949732e-004
8.813234e+002,5.919121e-004
8.832518e+002,2.473829e-004
8.851804e+002,-2.573752e-004
8.871089e+002,-4.647544e-004
8.890374e+002,-6.672683e-005
8.909658e+002,-1.568945e-004
8.928943e+002,3.011989e-005
8.948229e+002,3.040450e-004
8.967513e+002,3.553754e-004
8.986798e+002,2.354812e-004
9.006083e+002,-8.647899e-006
9.025369e+002,-5.864686e-006
9.044653e+002,5.510540e-005
9.063938e+002,-1.294685e-004
9.083223e+002,-5.311062e-005
9.102509e+002,4.261246e-005
9.121793e+002,-5.042708e-005
9.141078e+002,-2.998258e-004
9.160364e+002,-2.420761e-004
9.179648e+002,3.214121e-005
9.198933e+002,2.449628e-004
9.218218e+002,-6.752192e-005
9.237504e+002,-1.868027e-004
9.256788e+002,-3.060176e-004
9.276073e+002,-4.236439e-004
9.295358e+002,-1.164837e-004
9.314644e+002,8.042376e-005
9.333928e+002,-2.054262e-005
9.353213e+002,-3.535258e-005
9.372498e+002,1.741543e-004
9.391783e+002,-4.582196e-005
9.411068e+002,-1.623927e-004
9.430353e+002,1.145926e-004
9.449637e+002,1.168795e-004
9.468923e+002,-2.659849e-004
9.488208e+002,-9.587932e-005
9.507493e+002,2.319339e-004
9.526777e+002,2.303426e-004
9.546063e+002,4.632386e-005
9.565348e+002,3.475900e-005
9.584633e+002,2.002420e-004
9.603917e+002,2.001094e-004
9.623203e+002,5.835296e-005
9.642488e+002,1.499574e-004
9.661772e+002,2.161540e-004
9.681057e+002,2.582241e-004
9.700343e+002,2.687671e-004
9.719628e+002,1.921537e-004
9.738912e+002,8.267730e-005
9.758197e+002,-5.420391e-005
9.777483e+002,-1.463946e-004
9.796768e+002,1.928444e-005
9.816052e+002,1.897670e-004
9.835337e+002,4.360659e-005
9.854623e+002,-7.083480e-005
9.873907e+002,-8.408605e-005
9.893192e+002,-3.856631e-005
9.912477e+002,-7.915001e-005
9.931763e+002,-1.286404e-004
9.951047e+002,-5.347505e-005
9.970332e+002,7.280159e-005
9.989617e+002,-4.234324e-005
1.000890e+003,-2.514801e-005
1.002819e+003,4.741740e-005
1.004747e+003,3.631643e-005
1.006676e+003,2.049824e-004
1.008604e+003,3.058686e-004
1.010533e+003,-2.597631e-005
1.012461e+003,-2.333335e-004
1.014390e+003,2.611041e-005
1.016318e+003,1.100189e-004
1.018247e+003,-5.427017e-005
1.020175e+003,-3.577665e-004
1.022104e+003,-2.624086e-004
1.024032e+003,1.994715e-005
1.025961e+003,2.412225e-005
1.027889e+003,-1.046578e-004
1.029818e+003,-1.968047e-004
1.031746e+003,-8.985022e-005
1.033675e+003,1.308814e-005
1.035603e+003,2.050818e-004
1.037532e+003,1.458143e-004
1.039460e+003,-4.244263e-005
1.041389e+003,6.776440e-005
1.043317e+003,4.291070e-005
1.045246e+003,5.450892e-005
1.047174e+003,2.294144e-004
1.049103e+003,6.461186e-006
1.051031e+003,-1.925986e-004
1.052960e+003,1.981461e-005
1.054888e+003,7.982724e-005
1.056817e+003,-8.623934e-005
1.058745e+003,4.439984e-006
1.060674e+003,-9.675032e-006
1.062602e+003,-2.080768e-005
1.064531e+003,1.832036e-004
1.066459e+003,2.283867e-004
1.068388e+003,9.328234e-005
1.070316e+003,1.734251e-004
1.072245e+003,3.235087e-004
1.074173e+003,2.652859e-004
1.076102e+003,-1.457895e-006
1.078030e+003,-1.670959e-004
1.079959e+003,-1.358283e-004
1.081887e+003,4.513091e-005
1.083816e+003,8.953740e-005
1.085744e+003,1.255962e-004
1.087673e+003,1.398150e-004
1.089601e+003,6.796324e-005
1.091530e+003,1.820103e-004
1.093458e+003,4.627977e-004
1.095387e+003,3.793847e-004
1.097315e+003,2.215576e-004
1.099244e+003,2.408911e-005
1.101172e+003,1.441570e-004
1.103101e+003,1.573489e-004
1.105029e+003,-1.328140e-004
1.106958e+003,-3.039647e-004
1.108886e+003,-1.508331e-004
1.110815e+003,1.363017e-004
1.112743e+003,3.132959e-004
1.114672e+003,1.419694e-004
1.116600e+003,4.609190e-005
1.118529e+003,-7.232559e-005
1.120457e+003,-1.721635e-004
1.122386e+003,1.351085e-004
1.124314e+003,1.795573e-004
1.126243e+003,-2.568123e-004
1.128171e+003,-3.230361e-004
1.130100e+003,-2.113769e-004
1.132028e+003,-2.354860e-004
1.133957e+003,-1.709711e-004
1.135885e+003,-5.042708e-005
1.137814e+003,-6.056480e-005
1.139742e+003,-1.413268e-004
1.141671e+003,-7.659914e-005
1.143599e+003,-3.793682e-005
1.145528e+003,-1.090304e-004
1.147456e+003,-7.583720e-005
1.149385e+003,-8.014384e-005
1.151313e+003,-1.372195e-004
1.153242e+003,-1.132043e-004
1.155170e+003,-1.458647e-004
1.157099e+003,-2.511828e-004
1.159027e+003,-3.178048e-004
1.160956e+003,-2.199874e-004
1.162884e+003,-1.324166e-004
1.164813e+003,-8.017697e-005
1.166741e+003,-3.922893e-005
1.168670e+003,-6.039915e-005
1.170598e+003,-1.177755e-004
1.172526e+003,-2.611171e-004
1.174455e+003,-1.592130e-004
1.176384e+003,-2.882566e-005
1.178312e+003,-4.443048e-005
1.180240e+003,2.866189e-005
1.182169e+003,-4.976448e-005
1.184098e+003,-4.131618e-005
1.186026e+003,1.055116e-004
1.187954e+003,-1.414800e-005
1.189883e+003,-2.492621e-004
1.191812e+003,-1.897503e-004
1.193740e+003,2.905953e-005
1.195668e+003,7.121089e-005
1.197597e+003,-4.131618e-005
1.199526e+003,-4.042334e-006
1.201454e+003,-5.095716e-005
1.203382e+003,-1.519261e-004
1.205311e+003,-2.335322e-004
1.207240e+003,-3.391932e-004
1.209168e+003,-1.553377e-004
1.211096e+003,-1.089642e-004
1.213025e+003,-1.045253e-004
1.214953e+003,-9.167221e-005
1.216882e+003,-1.145955e-004
1.218810e+003,-1.862396e-004
1.220739e+003,-2.285647e-004
1.222667e+003,-1.599417e-004
1.224596e+003,-1.448710e-004
1.226524e+003,-2.630377e-004
1.228453e+003,-2.467122e-004
1.230381e+003,-8.640498e-005
1.232310e+003,8.217319e-006
1.234238e+003,-2.511488e-005
1.236167e+003,-8.355601e-005
1.238095e+003,-1.486139e-004
1.240024e+003,-1.616640e-004
1.241952e+003,-1.314891e-004
1.243881e+003,-5.128847e-005
1.245809e+003,2.067613e-005
1.247738e+003,-9.100967e-005
1.249666e+003,-9.104280e-005
1.251595e+003,-9.064527e-005
1.253523e+003,-6.927775e-005
1.255452e+003,3.697916e-005
1.257380e+003,1.321587e-004
1.259309e+003,3.717798e-005
1.261237e+003,2.451926e-006
1.263166e+003,2.246546e-005
1.265094e+003,-2.116418e-004
1.267023e+003,-2.281011e-004
1.268951e+003,-1.241686e-004
1.270880e+003,-1.123761e-004
1.272808e+003,-1.687520e-004
1.274737e+003,-2.096878e-004
1.276665e+003,-1.392400e-004
1.278594e+003,-1.408631e-004
1.280522e+003,-1.935259e-004
1.282451e+003,-2.105158e-004
1.284379e+003,-2.418112e-004
1.286308e+003,3.224062e-005
1.288236e+003,6.312493e-005
1.290165e+003,-6.725689e-005
1.292093e+003,-5.705307e-005
1.294022e+003,-2.840315e-004
1.295950e+003,-2.943293e-004
1.297879e+003,-1.620284e-004
1.299807e+003,-1.551390e-004
1.301736e+003,-2.097210e-004
1.303664e+003,-1.352983e-004
1.305593e+003,8.327382e-005
1.307521e+003,2.068388e-004
1.309450e+003,1.399476e-004
1.311378e+003,-2.783250e-006
1.313307e+003,5.212297e-005
1.315235e+003,2.509966e-004
1.317164e+003,3.674462e-004
1.319092e+003,2.367078e-004
1.321021e+003,-6.155868e-005
1.322949e+003,-1.915719e-004
1.324878e+003,-1.727265e-004
1.326806e+003,-1.241686e-004
1.328735e+003,4.834525e-005
1.330663e+003,7.127717e-005
1.332592e+003,1.083497e-005
1.334520e+003,-2.713593e-005
1.336449e+003,5.179159e-005
1.338377e+003,1.807175e-004
1.340306e+003,1.747509e-004
1.342234e+003,4.277815e-005
1.344163e+003,-4.141735e-006
1.346091e+003,-1.898539e-005
1.348020e+003,8.324068e-005
1.349948e+003,4.582679e-005
1.351877e+003,-5.861016e-005
1.353805e+003,-1.192824e-006
1.355734e+003,-1.656670e-005
1.357662e+003,-8.816073e-005
1.359591e+003,-2.319377e-006
1.361519e+003,1.259939e-004
1.363448e+003,1.008717e-004
1.365376e+003,-1.423868e-004
1.367305e+003,-9.670750e-005
1.369233e+003,1.123058e-004
1.371162e+003,3.522291e-005
1.373090e+003,-9.211165e-006
1.375019e+003,6.129841e-006
1.376947e+003,-6.901272e-005
1.378876e+003,-4.456300e-005
1.380804e+003,8.887459e-005
1.382733e+003,8.125226e-005
1.384661e+003,-4.880370e-005
1.386590e+003,2.392937e-004
1.388518e+003,2.512287e-004
1.390447e+003,4.310952e-005
1.392375e+003,3.502409e-005
1.394304e+003,2.637608e-004
1.396232e+003,2.442997e-004
1.398161e+003,2.363100e-004
1.400089e+003,1.527416e-004
1.402018e+003,2.369148e-005
1.403946e+003,4.393796e-005
1.405875e+003,4.360659e-005
1.407803e+003,4.035914e-005
1.409732e+003,-4.592135e-005
1.411660e+003,-1.907770e-004
1.413589e+003,-1.303297e-004
1.415517e+003,1.230110e-004
1.417446e+003,5.783419e-004
1.419374e+003,8.097219e-004
1.421303e+003,3.012266e-004
1.423231e+003,6.289296e-005
1.425160e+003,2.051046e-005
1.427088e+003,-1.176099e-004
1.429017e+003,1.365144e-005
1.430945e+003,8.244532e-005
1.432874e+003,1.093425e-006
1.434802e+003,2.947610e-004
1.436731e+003,7.053335e-004
1.438659e+003,1.778668e-004
1.440588e+003,-1.772972e-004
1.442516e+003,-1.938902e-004
1.444445e+003,-1.324166e-004
1.446373e+003,-9.277521e-007
1.448302e+003,1.258613e-004
1.450230e+003,-9.561431e-005
1.452159e+003,-1.130386e-004
1.454087e+003,2.776857e-004
1.456016e+003,1.230783e-003
1.457944e+003,1.247564e-003
1.459873e+003,3.266588e-004
1.461801e+003,-1.268848e-004
1.463730e+003,8.672044e-005
1.465658e+003,1.745852e-004
1.467587e+003,-8.309222e-005
1.469515e+003,7.392834e-005
1.471444e+003,8.097551e-004
1.473372e+003,1.024154e-003
1.475301e+003,6.762950e-004
1.477229e+003,4.127812e-004
1.479158e+003,1.490625e-004
1.481086e+003,-1.249135e-005
1.483015e+003,-1.727928e-004
1.484943e+003,-5.244802e-005
1.486872e+003,2.696954e-004
1.488800e+003,6.272494e-004
1.490729e+003,5.667961e-004
1.492657e+003,9.404458e-005
1.494586e+003,3.916884e-004
1.496514e+003,8.198800e-004
1.498443e+003,5.720714e-004
1.500371e+003,2.023304e-004
1.502300e+003,1.562883e-004
1.504228e+003,8.443798e-004
1.506157e+003,1.896020e-003
1.508085e+003,1.446886e-003
1.510014e+003,5.966235e-004
1.511942e+003,3.604491e-004
1.513871e+003,3.047413e-004
1.515799e+003,5.313974e-004
1.517728e+003,7.099798e-004
1.519656e+003,9.692242e-004
1.521585e+003,1.147256e-003
1.523513e+003,6.152045e-004
1.525442e+003,5.753228e-004
1.527370e+003,4.345715e-004
1.529299e+003,1.418700e-004
1.531227e+003,2.007393e-004
1.533156e+003,6.098956e-004
1.535084e+003,4.134777e-004
1.537013e+003,5.806644e-004
1.538941e+003,1.632364e-003
1.540870e+003,1.817622e-003
1.542798e+003,1.059526e-003
1.544727e+003,6.714499e-004
1.546655e+003,2.528863e-004
1.548584e+003,2.007393e-004
1.550512e+003,2.563343e-004
1.552441e+003,3.253988e-004
1.554369e+003,6.578774e-004
1.556298e+003,1.105199e-003
1.558226e+003,2.309942e-003
1.560155e+003,1.646998e-003
1.562083e+003,2.907491e-004
1.564012e+003,1.547967e-004
1.565940e+003,9.971177e-005
1.567869e+003,2.721820e-004
1.569797e+003,5.720050e-004
1.571726e+003,1.548298e-004
1.573654e+003,1.094555e-004
1.575583e+003,7.396843e-004
1.577511e+003,4.699955e-004
1.579440e+003,-1.152249e-004
1.581368e+003,-8.365540e-005
1.583297e+003,-7.066916e-005
1.585225e+003,-1.304623e-004
1.587154e+003,-4.833987e-005
1.589082e+003,1.153080e-005
1.591010e+003,-1.801455e-004
1.592939e+003,-2.280017e-004
1.594868e+003,-1.384120e-004
1.596796e+003,4.406850e-006
1.598724e+003,-2.382272e-005
1.600653e+003,-1.604054e-004
1.602582e+003,-1.992224e-004
1.604510e+003,-1.735214e-004
1.606438e+003,-7.481022e-005
1.608367e+003,-1.401547e-005
1.610296e+003,9.940223e-007
1.612224e+003,-5.128847e-005
1.614152e+003,1.126372e-004
1.616081e+003,5.632130e-004
1.618010e+003,3.957676e-004
1.619938e+003,3.177671e-005
1.621866e+003,2.066399e-004
1.623795e+003,2.301437e-004
1.625724e+003,3.681348e-005
1.627652e+003,1.417374e-004
1.629580e+003,-3.604834e-005
1.631509e+003,-1.389419e-004
1.633438e+003,4.730803e-004
1.635366e+003,1.195430e-003
1.637294e+003,5.225398e-004
1.639223e+003,-7.481022e-005
1.641151e+003,-8.365540e-005
1.643080e+003,2.945716e-005
1.645008e+003,5.590327e-004
1.646937e+003,1.027409e-003
1.648865e+003,5.181277e-004
1.650794e+003,6.906315e-004
1.652722e+003,2.086551e-003
1.654651e+003,1.284251e-003
1.656579e+003,1.956011e-004
1.658508e+003,-9.733690e-005
1.660436e+003,-2.219924e-005
1.662365e+003,2.335915e-004
1.664293e+003,6.690278e-005
1.666222e+003,1.003746e-004
1.668150e+003,4.808422e-004
1.670079e+003,6.196508e-004
1.672007e+003,3.511639e-004
1.673936e+003,5.576061e-004
1.675864e+003,6.081370e-004
1.677793e+003,8.519597e-005
1.679721e+003,1.412402e-004
1.681650e+003,5.545871e-004
1.683578e+003,1.403205e-003
1.685507e+003,8.804017e-004
1.687435e+003,4.738194e-006
1.689364e+003,-1.496076e-004
1.691292e+003,-2.373736e-004
1.693221e+003,5.632823e-006
1.695149e+003,8.467701e-004
1.697078e+003,9.616528e-004
1.699006e+003,1.282954e-003
1.700935e+003,1.328618e-003
1.702863e+003,3.567350e-004
1.704792e+003,3.616429e-004
1.706720e+003,3.148543e-004
1.708649e+003,6.256157e-005
1.710577e+003,-1.452353e-004
1.712506e+003,2.359208e-005
1.714434e+003,4.619353e-004
1.716363e+003,8.384374e-004
1.718291e+003,7.403481e-004
1.720220e+003,8.778094e-005
1.722148e+003,-1.441092e-004
1.724077e+003,-1.273817e-004
1.726005e+003,-2.658855e-004
1.727934e+003,-1.998848e-004
1.729862e+003,4.486581e-005
1.731791e+003,3.752062e-004
1.733719e+003,9.737073e-004
1.735648e+003,3.761348e-004
1.737576e+003,-1.318535e-004
1.739505e+003,2.134688e-004
1.741433e+003,2.082311e-004
1.743362e+003,7.455799e-005
1.745290e+003,7.885973e-006
1.747219e+003,1.659338e-004
1.749147e+003,2.910807e-004
1.751076e+003,2.821286e-004
1.753004e+003,-1.231418e-004
1.754933e+003,-1.647112e-004
1.756861e+003,3.721112e-005
1.758790e+003,-9.081091e-005
1.760718e+003,-9.940201e-007
1.762647e+003,-6.825559e-006
1.764575e+003,-3.320418e-004
1.766504e+003,-1.499057e-004
1.768432e+003,1.249664e-004
1.770361e+003,3.276204e-004
1.772289e+003,5.629807e-004
1.774218e+003,1.101184e-004
1.776146e+003,-1.745482e-004
1.778075e+003,-1.408962e-004
1.780003e+003,-7.371698e-005
1.781932e+003,-1.385776e-004
1.783860e+003,-1.078379e-004
1.785789e+003,-1.649762e-004
1.787717e+003,-2.391288e-004
1.789646e+003,5.000215e-005
1.791574e+003,3.898644e-004
1.793503e+003,1.542001e-004
1.795431e+003,-2.017725e-004
1.797360e+003,-1.886243e-004
1.799288e+003,-3.177438e-005
1.801217e+003,-6.222127e-005
1.803145e+003,-2.175367e-004
1.805074e+003,-2.279024e-004
1.807002e+003,-2.307835e-004
1.808931e+003,-2.278030e-004
1.810859e+003,-8.034262e-005
1.812788e+003,-2.677148e-005
1.814716e+003,-1.384120e-004
1.816645e+003,-1.860409e-004
1.818573e+003,-2.909519e-004
1.820502e+003,-2.826739e-004
1.822430e+003,-1.876969e-004
1.824359e+003,2.872816e-005
1.826287e+003,1.500998e-005
1.828216e+003,9.258637e-005
1.830144e+003,1.393178e-004
1.832073e+003,-8.484798e-005
1.834001e+003,-1.842193e-004
1.835930e+003,-2.528385e-004
1.837858e+003,-2.804553e-004
1.839787e+003,-2.634351e-004
1.841715e+003,-9.057901e-005
1.843644e+003,1.440907e-004
1.845572e+003,-7.398201e-005
1.847501e+003,-2.605873e-004
1.849429e+003,-2.990311e-004
1.851358e+003,-3.017794e-004
1.853286e+003,-2.667465e-004
1.855215e+003,-2.225706e-004
1.857143e+003,-2.545273e-004
1.859072e+003,-3.281680e-004
1.861000e+003,-2.808858e-004
1.862929e+003,-2.721440e-004
1.864857e+003,-1.871007e-004
1.866786e+003,-3.671096e-005
1.868714e+003,6.421852e-005
1.870643e+003,-1.110511e-004
1.872571e+003,-1.992224e-004
1.874500e+003,-1.866040e-004
1.876428e+003,-2.670114e-004
1.878357e+003,-3.048918e-004
1.880285e+003,-2.628722e-004
1.882214e+003,-2.499906e-004
1.884142e+003,-2.916473e-004
1.886071e+003,-2.971769e-004
1.887999e+003,-2.200868e-004
1.889928e+003,-1.544434e-004
1.891856e+003,-2.758195e-004
1.893785e+003,-2.677399e-004
1.895713e+003,-2.172387e-004
1.897642e+003,-2.300550e-004
1.899570e+003,-2.719122e-004
1.901499e+003,-2.737334e-004
1.903427e+003,-2.200868e-004
1.905356e+003,-2.859520e-004
1.907284e+003,-3.086995e-004
1.909213e+003,-2.352873e-004
1.911141e+003,-2.191926e-004
1.913070e+003,-2.310485e-004
1.914998e+003,-2.555870e-004
1.916927e+003,-9.717127e-005
1.918855e+003,-1.220155e-004
1.920784e+003,-2.233323e-004
1.922712e+003,-2.129003e-004
1.924641e+003,-2.414138e-004
1.926569e+003,-3.047262e-004
1.928498e+003,-3.449209e-004
1.930426e+003,-3.303201e-004
1.932355e+003,-2.908526e-004
1.934283e+003,-3.192285e-004
1.936212e+003,-3.860056e-004
1.938140e+003,-3.654141e-004
1.940069e+003,-2.713493e-004
1.941997e+003,-1.130055e-004
1.943926e+003,-1.294685e-004
1.945854e+003,-2.454870e-004
1.947783e+003,-3.292937e-004
1.949711e+003,-3.431993e-004
1.951640e+003,-3.623683e-004
1.953568e+003,-3.800468e-004
1.955497e+003,-3.082028e-004
1.957425e+003,-3.115139e-004
1.959354e+003,-4.133492e-004
1.961282e+003,-4.127202e-004
1.963211e+003,-4.304297e-004
1.965139e+003,-3.928582e-004
1.967068e+003,-3.339952e-004
1.968996e+003,-3.676322e-004
1.970925e+003,-3.840856e-004
1.972853e+003,-3.710090e-004
1.974782e+003,-2.918459e-004
1.976710e+003,-3.665397e-004
1.978639e+003,-3.486620e-004
1.980567e+003,-2.558188e-004
1.982496e+003,-2.615145e-004
1.984424e+003,-3.464107e-004
1.986353e+003,-3.496884e-004
1.988281e+003,-2.626735e-004
1.990210e+003,-2.645279e-004
1.992138e+003,-2.650577e-004
1.994067e+003,-3.175730e-004
1.995995e+003,-3.517410e-004
1.997924e+003,-2.519113e-004
1.999852e+003,-2.418112e-004
2.001781e+003,-3.613751e-004
2.003709e+003,-3.892168e-004
2.005638e+003,-3.052891e-004
2.007566e+003,-3.178710e-004
2.009495e+003,-3.600178e-004
2.011423e+003,-4.163615e-004
2.013352e+003,-3.752796e-004
2.015280e+003,-3.343594e-004
2.017208e+003,-3.724988e-004
2.019137e+003,-4.490322e-004
2.021066e+003,-4.255638e-004
2.022994e+003,-3.239301e-004
2.024922e+003,-3.645202e-004
2.026851e+003,-3.971286e-004
2.028780e+003,-3.332337e-004
2.030708e+003,-3.484303e-004
2.032636e+003,-3.761073e-004
2.034565e+003,-4.193076e-004
2.036494e+003,-4.560162e-004
2.038422e+003,-3.576009e-004
2.040350e+003,-3.551510e-004
2.042279e+003,-3.683605e-004
2.044208e+003,-3.838207e-004
2.046136e+003,-3.952417e-004
2.048064e+003,-3.863036e-004
2.049993e+003,-4.039480e-004
2.051921e+003,-4.478406e-004
2.053850e+003,-4.976531e-004
2.055778e+003,-4.932513e-004
2.057707e+003,-3.560449e-004
2.059635e+003,-1.980301e-004
2.061564e+003,-2.966140e-004
2.063492e+003,-4.357921e-004
2.065421e+003,-4.828258e-004
2.067349e+003,-4.528718e-004
2.069278e+003,-4.741212e-004
2.071206e+003,-4.512168e-004
2.073135e+003,-3.670032e-004
2.075063e+003,-3.724988e-004
2.076992e+003,-4.504555e-004
2.078920e+003,-3.960693e-004
2.080849e+003,-3.640567e-004
2.082777e+003,-3.626001e-004
2.084706e+003,-3.626663e-004
2.086634e+003,-4.701825e-004
2.088563e+003,-4.962631e-004
2.090491e+003,-3.830924e-004
2.092420e+003,-3.827945e-004
2.094348e+003,-3.622028e-004
2.096277e+003,-3.130038e-004
2.098205e+003,-3.596205e-004
2.100134e+003,-4.715064e-004
2.102062e+003,-4.415516e-004
2.103991e+003,-3.544558e-004
2.105919e+003,-3.351871e-004
2.107848e+003,-3.955066e-004
2.109776e+003,-4.811047e-004
2.111705e+003,-5.377968e-004
2.113633e+003,-4.481054e-004
2.115562e+003,-3.889850e-004
2.117490e+003,-3.850787e-004
2.119419e+003,-4.060666e-004
2.121347e+003,-4.136802e-004
2.123276e+003,-4.437693e-004
2.125204e+003,-4.513161e-004
2.127133e+003,-4.773316e-004
2.129061e+003,-4.403931e-004
2.130990e+003,-4.204993e-004
2.132918e+003,-3.822648e-004
2.134847e+003,-4.223530e-004
2.136775e+003,-4.988445e-004
2.138704e+003,-4.857715e-004
2.140632e+003,-4.285099e-004
2.142561e+003,-4.057024e-004
2.144489e+003,-4.198372e-004
2.146418e+003,-4.678656e-004
2.148346e+003,-4.524415e-004
2.150275e+003,-4.321179e-004
2.152203e+003,-5.097661e-004
2.154132e+003,-5.205550e-004
2.156060e+003,-4.539972e-004
2.157989e+003,-5.336932e-004
2.159917e+003,-5.510669e-004
2.161846e+003,-4.877242e-004
2.163774e+003,-5.088726e-004
2.165703e+003,-5.740984e-004
2.167631e+003,-5.019887e-004
2.169560e+003,-4.055038e-004
2.171488e+003,-3.752796e-004
2.173417e+003,-4.571085e-004
2.175345e+003,-4.824948e-004
2.177274e+003,-4.612128e-004
2.179202e+003,-4.440341e-004
2.181131e+003,-4.923246e-004
2.183059e+003,-5.375321e-004
2.184988e+003,-5.782016e-004
2.186916e+003,-5.614577e-004
2.188845e+003,-5.114209e-004
2.190773e+003,-4.246370e-004
2.192702e+003,-3.972279e-004
2.194630e+003,-4.790858e-004
2.196559e+003,-5.304501e-004
2.198487e+003,-5.615570e-004
2.200416e+003,-6.134409e-004
2.202344e+003,-6.227714e-004
2.204273e+003,-5.639064e-004
2.206201e+003,-4.331771e-004
2.208130e+003,-4.104030e-004
2.210058e+003,-4.464504e-004
2.211987e+003,-4.960645e-004
2.213915e+003,-5.363407e-004
2.215844e+003,-5.905108e-004
2.217772e+003,-5.656602e-004
2.219701e+003,-4.751472e-004
2.221629e+003,-5.053975e-004
2.223558e+003,-5.197938e-004
2.225486e+003,-5.315422e-004
2.227415e+003,-4.931189e-004
2.229343e+003,-4.999698e-004
2.231272e+003,-4.746838e-004
2.233200e+003,-5.387565e-004
2.235129e+003,-5.174110e-004
2.237057e+003,-4.243060e-004
2.238986e+003,-4.766697e-004
2.240914e+003,-6.048050e-004
2.242843e+003,-5.618217e-004
2.244771e+003,-5.250227e-004
2.246700e+003,-5.866063e-004
2.248628e+003,-5.772419e-004
2.250557e+003,-5.280674e-004
2.252485e+003,-5.212500e-004
2.254414e+003,-5.418010e-004
2.256342e+003,-4.776295e-004
2.258271e+003,-4.285099e-004
2.260199e+003,-4.668396e-004
2.262128e+003,-4.791520e-004
2.264056e+003,-3.707772e-004
2.265985e+003,-2.768791e-004
2.267913e+003,-3.065473e-004
2.269842e+003,-4.260935e-004
2.271770e+003,-3.985521e-004
2.273699e+003,-3.515424e-004
2.275627e+003,-3.363790e-004
2.277556e+003,-3.966652e-004
2.279484e+003,-5.249565e-004
2.281413e+003,-5.131087e-004
2.283341e+003,-5.333292e-004
2.285270e+003,-5.514309e-004
2.287198e+003,-5.272731e-004
2.289127e+003,-4.467814e-004
2.291055e+003,-3.113484e-004
2.292984e+003,-2.934353e-004
2.294912e+003,-3.473708e-004
2.296841e+003,-3.403851e-004
2.298769e+003,-3.463114e-004
2.300698e+003,-3.152885e-004
2.302626e+003,-2.272069e-004
2.304555e+003,-2.018057e-004
2.306483e+003,-1.413268e-004
2.308412e+003,7.946270e-005
2.310340e+003,2.514607e-004
2.312269e+003,3.128649e-004
2.314197e+003,4.674746e-004
2.316125e+003,6.283112e-004
2.318054e+003,7.917965e-004
2.319983e+003,9.801498e-004
2.321911e+003,1.099320e-003
2.323840e+003,1.287806e-003
2.325768e+003,1.486150e-003
2.327697e+003,1.578156e-003
2.329625e+003,1.712359e-003
2.331553e+003,1.723736e-003
2.333482e+003,1.767682e-003
2.335411e+003,1.928668e-003
2.337339e+003,1.953164e-003
2.339268e+003,1.906570e-003
2.341196e+003,1.888599e-003
2.343125e+003,1.765353e-003
2.345053e+003,1.428070e-003
2.346981e+003,8.264530e-004
2.348910e+003,3.838286e-004
2.350839e+003,7.786185e-004
2.352767e+003,1.557339e-003
2.354696e+003,2.126372e-003
2.356624e+003,2.537281e-003
2.358552e+003,2.755135e-003
2.360481e+003,2.767773e-003
2.362409e+003,2.562877e-003
2.364338e+003,2.378501e-003
2.366267e+003,2.227972e-003
2.368195e+003,1.909099e-003
2.370124e+003,1.509789e-003
2.372052e+003,1.127257e-003
2.373980e+003,6.913948e-004
2.375909e+003,1.838003e-004
2.377838e+003,-1.455997e-004
2.379766e+003,-3.157851e-004
2.381695e+003,-5.693664e-004
2.383623e+003,-6.517212e-004
2.385552e+003,-6.156577e-004
2.387480e+003,-6.842419e-004
2.389408e+003,-6.417627e-004
2.391337e+003,-6.088748e-004
2.393266e+003,-6.895349e-004
2.395194e+003,-6.809998e-004
2.397123e+003,-6.126468e-004
2.399051e+003,-6.702811e-004
2.400979e+003,-7.140807e-004
2.402908e+003,-7.397166e-004
2.404836e+003,-6.981691e-004
2.406765e+003,-6.771293e-004
2.408694e+003,-7.695186e-004
2.410622e+003,-8.832499e-004
2.412551e+003,-8.563328e-004
2.414479e+003,-8.313982e-004
2.416407e+003,-8.743880e-004
2.418336e+003,-8.786206e-004
2.420264e+003,-7.997485e-004
2.422193e+003,-7.318441e-004
2.424122e+003,-7.106735e-004
2.426050e+003,-7.505991e-004
2.427979e+003,-7.854606e-004
2.429907e+003,-7.545352e-004
2.431835e+003,-6.834810e-004
2.433764e+003,-6.088748e-004
2.435692e+003,-5.974594e-004
2.437621e+003,-6.592313e-004
2.439550e+003,-5.990146e-004
2.441478e+003,-5.344875e-004
2.443406e+003,-5.605312e-004
2.445335e+003,-5.688700e-004
2.447263e+003,-6.736555e-004
2.449192e+003,-7.871474e-004
2.451121e+003,-7.077294e-004
2.453049e+003,-6.743172e-004
2.454978e+003,-6.541694e-004
2.456906e+003,-6.546657e-004
2.458834e+003,-6.943648e-004
2.460763e+003,-6.176099e-004
2.462691e+003,-5.745947e-004
2.464620e+003,-5.380285e-004
2.466549e+003,-5.041068e-004
2.468477e+003,-6.290248e-004
2.470406e+003,-6.661457e-004
2.472334e+003,-7.206305e-004
2.474262e+003,-6.903951e-004
2.476191e+003,-6.367999e-004
2.478119e+003,-6.646570e-004
2.480048e+003,-6.381233e-004
2.481977e+003,-6.428545e-004
2.483905e+003,-5.905770e-004
2.485833e+003,-5.852496e-004
2.487762e+003,-6.102314e-004
2.489690e+003,-5.537143e-004
2.491619e+003,-6.376270e-004
2.493547e+003,-6.592313e-004
2.495476e+003,-6.516881e-004
2.497405e+003,-6.787172e-004
2.499333e+003,-6.432184e-004
2.501261e+003,-5.730064e-004
2.503190e+003,-5.757529e-004
2.505118e+003,-6.879140e-004
2.507047e+003,-7.461337e-004
2.508975e+003,-7.029658e-004
2.510904e+003,-6.585034e-004
2.512833e+003,-5.805509e-004
2.514761e+003,-5.738336e-004
2.516689e+003,-6.181723e-004
2.518618e+003,-7.087879e-004
2.520546e+003,-7.687578e-004
2.522475e+003,-7.720985e-004
2.524403e+003,-8.514717e-004
2.526332e+003,-7.913478e-004
2.528260e+003,-6.872523e-004
2.530189e+003,-7.259561e-004
2.532117e+003,-6.653186e-004
2.534046e+003,-6.380241e-004
2.535974e+003,-6.003050e-004
2.537903e+003,-5.638071e-004
2.539831e+003,-6.308444e-004
2.541760e+003,-6.741187e-004
2.543688e+003,-7.273454e-004
2.545617e+003,-7.688571e-004
2.547545e+003,-6.830178e-004
2.549474e+003,-6.492399e-004
2.551402e+003,-7.207296e-004
2.553331e+003,-7.222513e-004
2.555259e+003,-7.202335e-004
2.557188e+003,-7.216228e-004
2.559116e+003,-7.682287e-004
2.561045e+003,-7.352181e-004
2.562973e+003,-6.511587e-004
2.564902e+003,-7.478206e-004
2.566830e+003,-8.418815e-004
2.568759e+003,-7.850307e-004
2.570687e+003,-7.312818e-004
2.572616e+003,-7.048845e-004
2.574544e+003,-6.889064e-004
2.576473e+003,-7.157347e-004
2.578401e+003,-7.624404e-004
2.580330e+003,-8.173760e-004
2.582258e+003,-8.379462e-004
2.584187e+003,-8.305715e-004
2.586115e+003,-7.598605e-004
2.588044e+003,-6.974745e-004
2.589972e+003,-6.296533e-004
2.591901e+003,-6.385534e-004
2.593829e+003,-7.290655e-004
2.595758e+003,-7.332995e-004
2.597686e+003,-6.711082e-004
2.599615e+003,-6.446080e-004
2.601543e+003,-6.824885e-004
2.603472e+003,-8.089096e-004
2.605400e+003,-8.494544e-004
2.607329e+003,-8.441633e-004
2.609257e+003,-7.815579e-004
2.611186e+003,-6.994593e-004
2.613114e+003,-6.919499e-004
2.615043e+003,-6.560883e-004
2.616971e+003,-6.091396e-004
2.618900e+003,-6.641276e-004
2.620828e+003,-6.963497e-004
2.622757e+003,-6.524160e-004
2.624685e+003,-5.676126e-004
2.626614e+003,-6.420605e-004
2.628542e+003,-7.985248e-004
2.630471e+003,-8.671461e-004
2.632399e+003,-8.342423e-004
2.634328e+003,-8.463790e-004
2.636256e+003,-8.385745e-004
2.638185e+003,-7.915793e-004
2.640113e+003,-7.002863e-004
2.642042e+003,-6.996908e-004
2.643970e+003,-8.168800e-004
2.645899e+003,-7.685925e-004
2.647827e+003,-6.680646e-004
2.649756e+003,-7.365081e-004
2.651684e+003,-7.916454e-004
2.653613e+003,-7.117982e-004
2.655541e+003,-6.266094e-004
2.657470e+003,-6.377593e-004
2.659398e+003,-6.787172e-004
2.661327e+003,-6.507948e-004
2.663255e+003,-6.790149e-004
2.665184e+003,-7.584051e-004
2.667112e+003,-7.581736e-004
2.669041e+003,-7.450421e-004
2.670969e+003,-7.437521e-004
2.672898e+003,-7.340272e-004
2.674826e+003,-7.284040e-004
2.676755e+003,-6.779894e-004
2.678683e+003,-7.171240e-004
2.680612e+003,-8.016667e-004
2.682540e+003,-7.602905e-004
2.684469e+003,-7.915462e-004
2.686397e+003,-7.617789e-004
2.688326e+003,-7.665749e-004
2.690254e+003,-8.430059e-004
2.692183e+003,-8.318612e-004
2.694111e+003,-7.782173e-004
2.696040e+003,-7.359789e-004
2.697968e+003,-6.906928e-004
2.699897e+003,-7.155031e-004
2.701825e+003,-8.105632e-004
2.703754e+003,-8.570603e-004
2.705682e+003,-8.037834e-004
2.707611e+003,-6.906928e-004
2.709539e+003,-6.860945e-004
2.711468e+003,-7.748437e-004
2.713396e+003,-7.477214e-004
2.715325e+003,-7.735538e-004
2.717253e+003,-8.238911e-004
2.719182e+003,-8.899294e-004
2.721110e+003,-9.052057e-004
2.723039e+003,-8.536542e-004
2.724967e+003,-7.914470e-004
2.726896e+003,-8.285542e-004
2.728824e+003,-8.514717e-004
2.730753e+003,-8.991217e-004
2.732681e+003,-8.460483e-004
2.734610e+003,-8.229982e-004
2.736538e+003,-8.208486e-004
2.738467e+003,-8.603341e-004
2.740395e+003,-8.315305e-004
2.742324e+003,-8.524637e-004
2.744252e+003,-8.605656e-004
2.746181e+003,-8.817620e-004
2.748109e+003,-7.750091e-004
2.750038e+003,-7.530798e-004
2.751966e+003,-8.694278e-004
2.753895e+003,-9.241185e-004
2.755823e+003,-9.710994e-004
2.757752e+003,-9.853480e-004
2.759680e+003,-1.001414e-003
2.761609e+003,-9.673305e-004
2.763537e+003,-8.881107e-004
2.765466e+003,-9.083799e-004
2.767394e+003,-9.290780e-004
2.769323e+003,-9.226306e-004
2.771251e+003,-9.368478e-004
2.773180e+003,-8.799433e-004
2.775108e+003,-8.447586e-004
2.777037e+003,-9.060323e-004
2.778965e+003,-8.975345e-004
2.780894e+003,-8.917811e-004
2.782822e+003,-9.003782e-004
2.784750e+003,-8.996838e-004
2.786679e+003,-8.251809e-004
2.788608e+003,-7.863205e-004
2.790536e+003,-8.490576e-004
2.792465e+003,-8.544810e-004
2.794393e+003,-8.115884e-004
2.796322e+003,-9.003782e-004
2.798250e+003,-9.760914e-004
2.800178e+003,-8.461475e-004
2.802107e+003,-7.621427e-004
2.804036e+003,-8.079174e-004
2.805964e+003,-8.219399e-004
2.807893e+003,-8.777939e-004
2.809821e+003,-9.406500e-004
2.811750e+003,-8.671792e-004
2.813678e+003,-9.439562e-004
2.815606e+003,-1.111615e-003
2.817535e+003,-1.020323e-003
2.819464e+003,-8.747517e-004
2.821392e+003,-8.249164e-004
2.823321e+003,-7.962427e-004
2.825249e+003,-8.735944e-004
2.827177e+003,-8.984935e-004
2.829106e+003,-8.333494e-004
2.831034e+003,-8.539518e-004
2.832963e+003,-8.121507e-004
2.834892e+003,-7.556267e-004
2.836820e+003,-8.050732e-004
2.838749e+003,-7.464644e-004
2.840677e+003,-7.326711e-004
2.842605e+003,-8.704529e-004
2.844534e+003,-9.679255e-004
2.846462e+003,-8.753469e-004
2.848391e+003,-8.344407e-004
2.850320e+003,-8.107286e-004
2.852248e+003,-7.667402e-004
2.854177e+003,-7.775559e-004
2.856105e+003,-9.206798e-004
2.858033e+003,-9.991003e-004
2.859962e+003,-9.244491e-004
2.861890e+003,-8.992870e-004
2.863819e+003,-8.910206e-004
2.865748e+003,-8.863582e-004
2.867676e+003,-9.484526e-004
2.869604e+003,-9.761575e-004
2.871533e+003,-9.711985e-004
2.873461e+003,-9.363849e-004
2.875390e+003,-8.225021e-004
2.877319e+003,-8.115554e-004
2.879247e+003,-7.674679e-004
2.881176e+003,-8.051393e-004
2.883104e+003,-8.834153e-004
2.885032e+003,-9.639583e-004
2.886961e+003,-9.526514e-004
2.888889e+003,-8.967079e-004
2.890818e+003,-9.000475e-004
2.892747e+003,-9.533788e-004
2.894675e+003,-9.663717e-004
2.896604e+003,-9.333762e-004
2.898532e+003,-9.317892e-004
2.900460e+003,-8.909213e-004
2.902389e+003,-8.687334e-004
2.904317e+003,-9.194895e-004
2.906246e+003,-9.918936e-004
2.908175e+003,-9.287804e-004
2.910103e+003,-8.740573e-004
2.912031e+003,-9.939101e-004
2.913960e+003,-9.811495e-004
2.915888e+003,-1.000985e-003
2.917817e+003,-1.028488e-003
2.919745e+003,-1.055427e-003
2.921674e+003,-1.045114e-003
2.923603e+003,-1.086992e-003
2.925531e+003,-1.124801e-003
2.927459e+003,-1.164226e-003
2.929388e+003,-1.150777e-003
2.931316e+003,-1.114292e-003
2.933245e+003,-1.084249e-003
2.935173e+003,-9.998936e-004
2.937102e+003,-1.030240e-003
2.939031e+003,-1.011464e-003
2.940959e+003,-9.491469e-004
2.942887e+003,-9.714630e-004
2.944816e+003,-9.960259e-004
2.946744e+003,-1.002075e-003
2.948673e+003,-9.366825e-004
2.950601e+003,-9.261023e-004
2.952530e+003,-9.569164e-004
2.954458e+003,-9.972160e-004
2.956387e+003,-1.040288e-003
2.958315e+003,-1.008654e-003
2.960244e+003,-9.675619e-004
2.962172e+003,-1.003166e-003
2.964101e+003,-9.400879e-004
2.966029e+003,-9.687190e-004
2.967958e+003,-1.071227e-003
2.969886e+003,-1.063030e-003
2.971815e+003,-1.069805e-003
2.973743e+003,-1.115085e-003
2.975672e+003,-1.037677e-003
2.977600e+003,-9.293425e-004
2.979529e+003,-9.052718e-004
2.981457e+003,-1.019728e-003
2.983386e+003,-1.074995e-003
2.985314e+003,-1.076978e-003
2.987243e+003,-1.036983e-003
2.989171e+003,-1.004985e-003
2.991100e+003,-1.002340e-003
2.993028e+003,-1.093801e-003
2.994957e+003,-1.100874e-003
2.996885e+003,-9.490808e-004
2.998814e+003,-8.745863e-004
3.000742e+003,-9.975466e-004
3.002671e+003,-1.156758e-003
3.004599e+003,-1.256975e-003
3.006528e+003,-1.231567e-003
3.008456e+003,-1.183227e-003
3.010385e+003,-1.101799e-003
3.012313e+003,-1.002175e-003
3.014242e+003,-1.005844e-003
3.016170e+003,-1.078168e-003
3.018099e+003,-1.004555e-003
3.020027e+003,-8.894664e-004
3.021956e+003,-1.019397e-003
3.023884e+003,-1.153255e-003
3.025813e+003,-1.141623e-003
3.027741e+003,-1.186630e-003
3.029670e+003,-1.095288e-003
3.031598e+003,-9.438240e-004
3.033527e+003,-8.723047e-004
3.035455e+003,-8.315305e-004
3.037384e+003,-9.326488e-004
3.039312e+003,-1.092214e-003
3.041241e+003,-1.144101e-003
3.043169e+003,-1.159633e-003
3.045098e+003,-1.075259e-003
3.047026e+003,-9.622061e-004
3.048955e+003,-9.974474e-004
3.050883e+003,-1.094726e-003
3.052812e+003,-1.126454e-003
3.054740e+003,-1.033677e-003
3.056669e+003,-9.339383e-004
3.058597e+003,-1.032289e-003
3.060526e+003,-1.166011e-003
3.062454e+003,-1.105203e-003
3.064383e+003,-1.108640e-003
3.066311e+003,-1.099750e-003
3.068240e+003,-1.009580e-003
3.070168e+003,-1.138020e-003
3.072097e+003,-1.162012e-003
3.074025e+003,-1.029413e-003
3.075954e+003,-9.051065e-004
3.077882e+003,-8.774301e-004
3.079811e+003,-9.707357e-004
3.081739e+003,-1.045048e-003
3.083668e+003,-1.074135e-003
3.085596e+003,-1.058799e-003
3.087525e+003,-1.097469e-003
3.089453e+003,-1.098659e-003
3.091382e+003,-1.094891e-003
3.093310e+003,-1.024488e-003
3.095239e+003,-8.887390e-004
3.097167e+003,-9.531474e-004
3.099096e+003,-1.129759e-003
3.101024e+003,-1.242966e-003
3.102953e+003,-1.194032e-003
3.104881e+003,-1.120604e-003
3.106810e+003,-1.151603e-003
3.108738e+003,-1.168423e-003
3.110667e+003,-1.074433e-003
3.112595e+003,-1.076449e-003
3.114524e+003,-1.077639e-003
3.116452e+003,-1.089934e-003
3.118381e+003,-1.130783e-003
3.120309e+003,-1.210256e-003
3.122238e+003,-1.248715e-003
3.124166e+003,-1.207150e-003
3.126095e+003,-1.197039e-003
3.128023e+003,-1.222217e-003
3.129952e+003,-1.120208e-003
3.131880e+003,-1.104377e-003
3.133809e+003,-1.106657e-003
3.135737e+003,-1.140896e-003
3.137666e+003,-1.099948e-003
3.139594e+003,-1.050800e-003
3.141523e+003,-1.088116e-003
3.143451e+003,-1.148529e-003
3.145380e+003,-1.194495e-003
3.147308e+003,-1.136401e-003
3.149237e+003,-1.129792e-003
3.151165e+003,-1.287930e-003
3.153094e+003,-1.362783e-003
3.155022e+003,-1.353138e-003
3.156951e+003,-1.223605e-003
3.158879e+003,-1.134088e-003
3.160808e+003,-1.078994e-003
3.162736e+003,-1.118092e-003
3.164665e+003,-1.139342e-003
3.166593e+003,-1.208637e-003
3.168522e+003,-1.189076e-003
3.170450e+003,-1.098758e-003
3.172379e+003,-1.038867e-003
3.174307e+003,-1.041842e-003
3.176236e+003,-1.066963e-003
3.178164e+003,-1.187721e-003
3.180093e+003,-1.182533e-003
3.182021e+003,-1.119018e-003
3.183950e+003,-1.115283e-003
3.185878e+003,-1.223968e-003
3.187807e+003,-1.270124e-003
3.189735e+003,-1.207315e-003
3.191664e+003,-1.137326e-003
3.193592e+003,-1.267712e-003
3.195521e+003,-1.287666e-003
3.197449e+003,-1.082960e-003
3.199378e+003,-1.044189e-003
3.201306e+003,-1.041578e-003
3.203235e+003,-1.116010e-003
3.205163e+003,-1.182632e-003
3.207092e+003,-1.202458e-003
3.209020e+003,-1.127148e-003
3.210948e+003,-1.044189e-003
3.212877e+003,-1.045775e-003
3.214806e+003,-1.116209e-003
3.216734e+003,-1.241678e-003
3.218663e+003,-1.373716e-003
3.220591e+003,-1.279737e-003
3.222520e+003,-1.059923e-003
3.224448e+003,-1.022736e-003
3.226376e+003,-1.032355e-003
3.228305e+003,-9.794965e-004
3.230234e+003,-9.887530e-004
3.232162e+003,-1.059096e-003
3.234091e+003,-1.079225e-003
3.236019e+003,-1.015959e-003
3.237948e+003,-1.099915e-003
3.239876e+003,-1.091289e-003
3.241804e+003,-9.605531e-004
3.243733e+003,-1.017778e-003
3.245662e+003,-1.137326e-003
3.247590e+003,-1.177081e-003
3.249519e+003,-1.089570e-003
3.251447e+003,-1.139309e-003
3.253375e+003,-1.235995e-003
3.255304e+003,-1.211578e-003
3.257232e+003,-1.076052e-003
3.259161e+003,-9.766204e-004
3.261090e+003,-1.097403e-003
3.263018e+003,-1.143638e-003
3.264947e+003,-1.268373e-003
3.266875e+003,-1.375632e-003
3.268803e+003,-1.188283e-003
3.270732e+003,-1.167597e-003
3.272660e+003,-1.197733e-003
3.274589e+003,-1.140598e-003
3.276518e+003,-1.136302e-003
3.278446e+003,-1.138880e-003
3.280375e+003,-1.256545e-003
3.282303e+003,-1.250862e-003
3.284231e+003,-1.215807e-003
3.286160e+003,-1.196543e-003
3.288088e+003,-1.132369e-003
3.290017e+003,-1.223109e-003
3.291946e+003,-1.380157e-003
3.293874e+003,-1.490591e-003
3.295802e+003,-1.338836e-003
3.297731e+003,-1.159038e-003
3.299659e+003,-1.230675e-003
3.301588e+003,-1.318851e-003
3.303516e+003,-1.351784e-003
3.305445e+003,-1.282777e-003
3.307374e+003,-1.240125e-003
3.309302e+003,-1.242404e-003
3.311230e+003,-1.268307e-003
3.313159e+003,-1.313962e-003
3.315087e+003,-1.334079e-003
3.317016e+003,-1.317100e-003
3.318944e+003,-1.312178e-003
3.320873e+003,-1.182004e-003
3.322802e+003,-1.106261e-003
3.324730e+003,-1.286807e-003
3.326658e+003,-1.379496e-003
3.328587e+003,-1.261699e-003
3.330515e+003,-1.151735e-003
3.332444e+003,-1.203747e-003
3.334372e+003,-1.274683e-003
3.336301e+003,-1.156196e-003
3.338229e+003,-1.022901e-003
3.340158e+003,-1.063129e-003
3.342086e+003,-1.152363e-003
3.344015e+003,-1.100874e-003
3.345943e+003,-1.098296e-003
3.347872e+003,-1.254959e-003
3.349800e+003,-1.186597e-003
3.351729e+003,-1.131312e-003
3.353657e+003,-1.259915e-003
3.355586e+003,-1.233616e-003
3.357514e+003,-1.282314e-003
3.359443e+003,-1.187357e-003
3.361371e+003,-1.036057e-003
3.363300e+003,-1.112144e-003
3.365229e+003,-1.197733e-003
3.367157e+003,-1.205167e-003
3.369085e+003,-1.258726e-003
3.371014e+003,-1.272436e-003
3.372942e+003,-1.147934e-003
3.374871e+003,-1.144927e-003
3.376799e+003,-1.143077e-003
3.378728e+003,-1.228263e-003
3.380656e+003,-1.275542e-003
3.382585e+003,-1.206886e-003
3.384513e+003,-1.256743e-003
3.386442e+003,-1.342040e-003
3.388370e+003,-1.172190e-003
3.390299e+003,-1.107484e-003
3.392227e+003,-1.077011e-003
3.394156e+003,-1.003728e-003
3.396084e+003,-9.772484e-004
3.398013e+003,-9.728515e-004
3.399941e+003,-1.030603e-003
3.401870e+003,-1.153090e-003
3.403798e+003,-1.156593e-003
3.405727e+003,-1.234607e-003
3.407655e+003,-1.218549e-003
3.409584e+003,-1.050271e-003
3.411512e+003,-1.048519e-003
3.413441e+003,-1.186036e-003
3.415369e+003,-1.174107e-003
3.417298e+003,-1.162210e-003
3.419226e+003,-1.215443e-003
3.421155e+003,-1.266721e-003
3.423083e+003,-1.288591e-003
3.425012e+003,-1.290705e-003
3.426940e+003,-1.275178e-003
3.428869e+003,-1.148298e-003
3.430797e+003,-1.125396e-003
3.432726e+003,-1.220928e-003
3.434654e+003,-1.352610e-003
3.436583e+003,-1.410608e-003
3.438511e+003,-1.249078e-003
3.440440e+003,-1.090198e-003
3.442368e+003,-1.096709e-003
3.444297e+003,-1.143638e-003
3.446225e+003,-1.105798e-003
3.448154e+003,-1.128304e-003
3.450082e+003,-1.175230e-003
3.452011e+003,-1.156758e-003
3.453939e+003,-1.264606e-003
3.455868e+003,-1.384087e-003
3.457796e+003,-1.320701e-003
3.459725e+003,-1.236457e-003
3.461653e+003,-1.238109e-003
3.463582e+003,-1.195750e-003
3.465510e+003,-1.183491e-003
3.467439e+003,-1.185573e-003
3.469367e+003,-1.172554e-003
3.471296e+003,-1.220829e-003
3.473224e+003,-1.250598e-003
3.475153e+003,-1.295661e-003
3.477081e+003,-1.302400e-003
3.479010e+003,-1.357399e-003
3.480938e+003,-1.243329e-003
3.482867e+003,-1.232129e-003
3.484795e+003,-1.114887e-003
3.486724e+003,-9.595612e-004
3.488652e+003,-1.073805e-003
3.490581e+003,-1.301244e-003
3.492509e+003,-1.326184e-003
3.494438e+003,-1.109037e-003
3.496366e+003,-9.453448e-004
3.498295e+003,-1.054865e-003
3.500223e+003,-1.038272e-003
3.502152e+003,-1.074135e-003
3.504080e+003,-1.231567e-003
3.506009e+003,-1.251854e-003
3.507937e+003,-1.061278e-003
3.509866e+003,-8.632111e-004
3.511794e+003,-9.418402e-004
3.513723e+003,-1.183921e-003
3.515651e+003,-1.378935e-003
3.517580e+003,-1.424975e-003
3.519508e+003,-1.363510e-003
3.521437e+003,-1.189736e-003
3.523365e+003,-1.132832e-003
3.525294e+003,-1.159501e-003
3.527222e+003,-1.066070e-003
3.529151e+003,-1.007563e-003
3.531079e+003,-1.034140e-003
3.533008e+003,-1.208439e-003
3.534936e+003,-1.292787e-003
3.536865e+003,-1.180385e-003
3.538793e+003,-9.611812e-004
3.540722e+003,-8.500827e-004
3.542650e+003,-9.199855e-004
3.544579e+003,-9.307973e-004
3.546507e+003,-9.850174e-004
3.548436e+003,-1.193966e-003
3.550364e+003,-1.227702e-003
3.552293e+003,-1.197435e-003
3.554221e+003,-1.260675e-003
3.556150e+003,-1.233021e-003
3.558078e+003,-9.552302e-004
3.560007e+003,-9.509984e-004
3.561935e+003,-1.065773e-003
3.563864e+003,-9.943399e-004
3.565792e+003,-6.694540e-004
3.567721e+003,-5.746940e-004
3.569649e+003,-8.839443e-004
3.571578e+003,-1.094462e-003
3.573506e+003,-1.040355e-003
3.575435e+003,-8.716764e-004
3.577363e+003,-8.599042e-004
3.579292e+003,-9.794965e-004
3.581220e+003,-1.105996e-003
3.583149e+003,-1.243858e-003
3.585077e+003,-9.899432e-004
3.587006e+003,-6.272381e-004
3.588934e+003,-6.894688e-004
3.590863e+003,-7.595959e-004
3.592791e+003,-7.578428e-004
3.594720e+003,-9.169436e-004
3.596648e+003,-9.103307e-004
3.598577e+003,-7.124598e-004
3.600505e+003,-6.112902e-004
3.602434e+003,-7.600589e-004
3.604362e+003,-7.256584e-004
3.606291e+003,-6.834149e-004
3.608219e+003,-5.690686e-004
3.610148e+003,-5.416025e-004
3.612076e+003,-7.114013e-004
3.614005e+003,-8.388390e-004
3.615933e+003,-7.937291e-004
3.617862e+003,-3.041965e-004
3.619790e+003,-1.579213e-004
3.621719e+003,-8.142673e-004
3.623647e+003,-1.146414e-003
3.625576e+003,-7.526829e-004
3.627504e+003,1.431295e-004
3.629433e+003,7.071380e-005
3.631361e+003,-6.633006e-004
3.633290e+003,-9.061976e-004
3.635218e+003,-1.022240e-003
3.637146e+003,-9.864720e-004
3.639075e+003,-9.647187e-004
3.641004e+003,-1.019496e-003
3.642932e+003,-1.062831e-003
3.644861e+003,-7.757698e-004
3.646789e+003,-6.726158e-006
3.648718e+003,2.761938e-004
3.650646e+003,-2.222394e-004
3.652574e+003,-7.364419e-004
3.654503e+003,-6.688916e-004
3.656432e+003,-6.848705e-004
3.658360e+003,-1.102956e-003
3.660289e+003,-1.205432e-003
3.662217e+003,-1.211214e-003
3.664146e+003,-1.163565e-003
3.666074e+003,-9.846868e-004
3.668002e+003,-5.452427e-004
3.669931e+003,-2.113769e-004
3.671860e+003,-6.908251e-004
3.673788e+003,-3.577665e-004
3.675717e+003,6.773126e-005
3.677645e+003,-5.998749e-004
3.679573e+003,-1.058171e-003
3.681502e+003,-1.104509e-003
3.683430e+003,-9.673305e-004
3.685359e+003,-8.384092e-004
3.687288e+003,-3.446229e-004
3.689216e+003,-7.129860e-005
3.691145e+003,-3.681619e-004
3.693073e+003,-7.147423e-004
3.695001e+003,-1.087852e-003
3.696930e+003,-1.144927e-003
3.698858e+003,-1.054799e-003
3.700787e+003,-6.898327e-004
3.702716e+003,-6.936701e-004
3.704644e+003,-9.485187e-004
3.706573e+003,-6.992939e-004
3.708501e+003,-3.365777e-004
3.710429e+003,-3.247014e-005
3.712358e+003,-1.871670e-004
3.714286e+003,-7.941260e-004
3.716215e+003,-1.219640e-003
3.718144e+003,-1.046767e-003
3.720072e+003,-8.180375e-004
3.722000e+003,-6.412333e-004
3.723929e+003,-5.793928e-004
3.725857e+003,-5.038090e-004
3.727786e+003,-4.341371e-004
3.729714e+003,-4.410220e-004
3.731643e+003,-3.002232e-004
3.733572e+003,-3.172088e-004
3.735500e+003,-6.003473e-005
3.737428e+003,-4.485357e-004
3.739357e+003,-8.231305e-004
3.741285e+003,-5.671494e-004
3.743214e+003,1.039871e-004
3.745142e+003,-8.348975e-005
3.747071e+003,-4.165270e-004
3.749000e+003,4.794760e-005
3.750928e+003,3.585251e-005
3.752856e+003,-3.958376e-004
3.754785e+003,-8.634094e-004
3.756713e+003,-7.160324e-004
3.758642e+003,-6.230030e-004
3.760570e+003,-9.394597e-004
3.762499e+003,-1.077837e-003
3.764427e+003,-7.363096e-004
3.766356e+003,-7.517568e-004
3.768284e+003,-6.552612e-004
3.770213e+003,-7.482506e-004
3.772141e+003,-1.143176e-003
3.774070e+003,-1.034735e-003
3.775998e+003,-1.000390e-003
3.777927e+003,-1.063063e-003
3.779855e+003,-1.037975e-003
3.781784e+003,-1.018075e-003
3.783712e+003,-7.787796e-004
3.785641e+003,-6.592643e-004
3.787569e+003,-8.279258e-004
3.789498e+003,-1.079291e-003
3.791426e+003,-1.093999e-003
3.793355e+003,-9.654461e-004
3.795283e+003,-6.755744e-004
3.797212e+003,-8.656912e-004
3.799140e+003,-9.406169e-004
3.801069e+003,-5.058278e-004
3.802997e+003,-5.301192e-004
3.804926e+003,-7.038921e-004
3.806854e+003,-7.136507e-004
3.808783e+003,-1.147868e-003
3.810711e+003,-1.158774e-003
3.812640e+003,-9.278877e-004
3.814568e+003,-5.166499e-004
3.816497e+003,-3.122423e-004
3.818425e+003,-1.755749e-004
3.820354e+003,4.130797e-004
3.822282e+003,-1.766679e-004
3.824211e+003,-6.836795e-004
3.826139e+003,-7.165947e-004
3.828068e+003,-8.389383e-004
3.829996e+003,-5.961690e-004
3.831925e+003,-3.220097e-004
3.833853e+003,-1.786220e-004
3.835782e+003,8.443374e-005
3.837710e+003,2.292155e-004
3.839639e+003,-2.991901e-005
3.841567e+003,-2.958193e-004
3.843496e+003,-5.448125e-004
3.845424e+003,-9.503702e-004
3.847353e+003,-1.194032e-003
3.849281e+003,-6.520851e-004
3.851210e+003,5.116921e-004
3.853138e+003,1.203670e-003
3.855067e+003,7.638067e-005
3.856995e+003,-7.555606e-004
3.858924e+003,-8.861598e-004
3.860852e+003,-6.876162e-004
3.862781e+003,-4.564465e-004
3.864709e+003,-1.271498e-004
3.866638e+003,-3.106861e-004
3.868566e+003,-1.658373e-004
3.870495e+003,-1.253280e-004
3.872423e+003,-4.047756e-004
3.874352e+003,-3.603819e-004
3.876280e+003,-6.312746e-004
3.878209e+003,-7.129229e-004
3.880137e+003,-3.664404e-004
3.882066e+003,-4.438355e-004
3.883994e+003,-6.319363e-004
3.885923e+003,-5.633770e-004
3.887851e+003,-6.029190e-004
3.889780e+003,-3.434641e-004
3.891708e+003,-6.304805e-004
3.893637e+003,-1.141358e-003
3.895565e+003,-9.922573e-004
3.897494e+003,-5.057616e-004
3.899422e+003,-1.470240e-004
3.901351e+003,-1.674603e-004
3.903279e+003,-3.022429e-004
3.905208e+003,-5.573874e-004
3.907136e+003,-7.688571e-004
3.909065e+003,-8.036841e-004
3.910993e+003,-1.040520e-003
3.912922e+003,-1.178369e-003
3.914850e+003,-8.919464e-004
3.916779e+003,-7.716354e-004
3.918707e+003,-8.556714e-004
3.920636e+003,-8.843411e-004
3.922564e+003,-9.155880e-004
3.924493e+003,-8.380123e-004
3.926421e+003,-8.647653e-004
3.928350e+003,-8.743218e-004
3.930278e+003,-7.462660e-004
3.932207e+003,-7.489122e-004
3.934135e+003,-7.304548e-004
3.936064e+003,-5.283652e-004
3.937992e+003,-5.757529e-004
3.939921e+003,-8.355320e-004
3.941849e+003,-8.976668e-004
3.943778e+003,-8.286533e-004
3.945706e+003,-7.628704e-004
3.947635e+003,-6.176761e-004
3.949563e+003,-5.647668e-004
3.951492e+003,-5.804847e-004
3.953420e+003,-6.442771e-004
3.955349e+003,-5.170470e-004
3.957277e+003,-5.585788e-004
3.959206e+003,-7.578428e-004
3.961134e+003,-9.732152e-004
3.963063e+003,-9.723887e-004
3.964991e+003,-1.083985e-003
3.966920e+003,-1.109037e-003
3.968848e+003,-8.987249e-004
3.970777e+003,-7.826163e-004
3.972705e+003,-9.505686e-004
3.974634e+003,-8.197572e-004
3.976562e+003,-7.311825e-004
3.978491e+003,-7.229790e-004
3.980419e+003,-5.428600e-004
3.982348e+003,-6.040771e-004
3.984276e+003,-6.829186e-004
3.986205e+003,-7.017750e-004
3.988133e+003,-6.521844e-004
3.990062e+003,-7.407421e-004
3.991990e+003,-7.733553e-004
3.993919e+003,-7.239052e-004
3.995847e+003,-8.305053e-004
3.997776e+003,-9.059000e-004
3.999704e+003,-7.908848e-004
4.001633e+003,0.000000e+000
