3.991989e+002,1.748344e-002
4.011274e+002,2.141667e-002
4.030559e+002,1.536204e-002
4.049844e+002,1.025555e-002
4.069129e+002,1.626051e-002
4.088414e+002,1.830862e-002
4.107699e+002,1.353857e-002
4.126984e+002,1.060040e-002
4.146269e+002,8.556511e-003
4.165554e+002,1.111808e-002
4.184839e+002,1.689873e-002
4.204124e+002,1.523724e-002
4.223409e+002,1.519198e-002
4.242694e+002,1.660002e-002
4.261979e+002,1.193145e-002
4.281264e+002,8.727573e-003
4.300549e+002,6.861843e-003
4.319834e+002,4.112859e-003
4.339119e+002,4.320662e-003
4.358404e+002,8.733016e-003
4.377689e+002,1.199334e-002
4.396974e+002,8.571347e-003
4.416259e+002,6.651542e-003
4.435544e+002,7.978557e-003
4.454829e+002,9.930115e-003
4.474114e+002,1.389258e-002
4.493399e+002,1.094298e-002
4.512684e+002,5.185128e-003
4.531969e+002,5.689139e-003
4.551254e+002,1.043030e-002
4.570539e+002,1.399615e-002
4.589824e+002,1.092695e-002
4.609109e+002,9.936489e-003
4.628394e+002,1.217833e-002
4.647679e+002,1.162382e-002
4.666964e+002,1.040389e-002
4.686249e+002,7.299194e-003
4.705533e+002,7.697861e-003
4.724819e+002,1.040688e-002
4.744103e+002,1.120756e-002
4.763389e+002,1.112073e-002
4.782673e+002,1.017508e-002
4.801959e+002,9.510327e-003
4.821243e+002,1.033565e-002
4.840529e+002,1.006089e-002
4.859813e+002,9.708430e-003
4.879099e+002,8.591218e-003
4.898383e+002,7.786234e-003
4.917668e+002,7.107912e-003
4.936953e+002,8.814769e-003
4.956238e+002,1.047252e-002
4.975523e+002,8.403691e-003
4.994808e+002,8.779029e-003
5.014093e+002,9.768644e-003
5.033378e+002,7.352807e-003
5.052663e+002,5.024171e-003
5.071948e+002,5.133492e-003
5.091233e+002,6.307351e-003
5.110518e+002,6.001460e-003
5.129803e+002,4.656717e-003
5.149088e+002,4.064227e-003
5.168373e+002,5.892122e-003
5.187658e+002,7.108822e-003
5.206943e+002,6.579075e-003
5.226228e+002,5.254847e-003
5.245513e+002,4.281710e-003
5.264798e+002,4.810201e-003
5.284083e+002,6.200860e-003
5.303368e+002,5.702198e-003
5.322653e+002,4.867897e-003
5.341938e+002,4.886427e-003
5.361223e+002,4.852920e-003
5.380508e+002,3.895660e-003
5.399792e+002,4.723135e-003
5.419078e+002,4.456453e-003
5.438363e+002,4.562316e-003
5.457648e+002,4.312698e-003
5.476932e+002,3.863700e-003
5.496218e+002,4.046367e-003
5.515503e+002,4.580063e-003
5.534788e+002,4.811508e-003
5.554072e+002,5.895011e-003
5.573358e+002,5.697833e-003
5.592643e+002,5.852660e-003
5.611927e+002,5.201727e-003
5.631212e+002,5.168564e-003
5.650497e+002,5.717910e-003
5.669783e+002,7.164702e-003
5.689067e+002,7.371039e-003
5.708352e+002,6.460814e-003
5.727637e+002,5.109922e-003
5.746923e+002,4.387264e-003
5.766207e+002,4.979559e-003
5.785492e+002,5.729963e-003
5.804777e+002,-3.544556e-003
5.824063e+002,-4.639573e-003
5.843347e+002,4.312631e-003
5.862632e+002,7.040522e-003
5.881917e+002,7.168205e-003
5.901202e+002,5.404651e-003
5.920487e+002,3.525118e-003
5.939772e+002,1.959854e-003
5.959057e+002,1.900113e-003
5.978342e+002,4.103460e-003
5.997627e+002,4.573667e-003
6.016912e+002,3.131195e-003
6.036197e+002,2.919256e-003
6.055482e+002,3.960557e-003
6.074767e+002,4.110551e-003
6.094052e+002,3.948821e-003
6.113337e+002,5.554607e-003
6.132622e+002,5.788184e-003
6.151907e+002,4.223423e-003
6.171192e+002,3.733876e-003
6.190477e+002,4.859420e-003
6.209762e+002,5.542559e-003
6.229047e+002,4.446108e-003
6.248332e+002,3.182260e-003
6.267617e+002,3.012701e-003
6.286902e+002,2.853147e-003
6.306187e+002,3.537745e-003
6.325472e+002,4.576948e-003
6.344756e+002,5.238179e-003
6.364042e+002,4.676746e-003
6.383326e+002,3.320199e-003
6.402612e+002,3.058112e-003
6.421896e+002,4.382142e-003
6.441182e+002,4.386293e-003
6.460466e+002,4.010048e-003
6.479752e+002,4.218638e-003
6.499036e+002,4.084395e-003
6.518322e+002,4.017572e-003
6.537606e+002,4.427128e-003
6.556891e+002,4.457557e-003
6.576177e+002,4.441924e-003
6.595461e+002,4.612946e-003
6.614746e+002,3.691802e-003
6.634031e+002,3.517000e-003
6.653317e+002,5.154582e-003
6.672601e+002,9.846221e-003
6.691886e+002,8.535121e-003
6.711171e+002,4.714661e-003
6.730457e+002,4.491034e-003
6.749741e+002,4.658292e-003
6.769026e+002,4.719250e-003
6.788311e+002,4.728796e-003
6.807596e+002,4.707627e-003
6.826881e+002,4.514035e-003
6.846166e+002,4.823368e-003
6.865451e+002,4.456520e-003
6.884736e+002,4.205657e-003
6.904021e+002,4.441957e-003
6.923306e+002,4.575408e-003
6.942591e+002,4.464487e-003
6.961876e+002,4.280573e-003
6.981161e+002,4.288236e-003
7.000446e+002,4.586458e-003
7.019731e+002,4.558800e-003
7.039016e+002,4.404367e-003
7.058301e+002,4.084227e-003
7.077585e+002,3.821713e-003
7.096871e+002,4.179328e-003
7.116156e+002,4.314538e-003
7.135441e+002,4.002223e-003
7.154725e+002,3.614616e-003
7.174011e+002,3.715930e-003
7.193296e+002,4.347268e-003
7.212581e+002,4.779145e-003
7.231865e+002,4.773350e-003
7.251151e+002,4.739717e-003
7.270436e+002,5.201392e-003
7.289720e+002,5.545814e-003
7.309005e+002,5.405657e-003
7.328290e+002,5.132721e-003
7.347576e+002,4.786783e-003
7.366860e+002,4.701263e-003
7.386145e+002,4.993401e-003
7.405430e+002,5.412535e-003
7.424716e+002,5.594814e-003
7.444000e+002,5.745239e-003
7.463285e+002,5.981573e-003
7.482570e+002,5.970520e-003
7.501855e+002,5.932563e-003
7.521140e+002,6.553476e-003
7.540425e+002,6.920283e-003
7.559710e+002,7.058977e-003
7.578995e+002,7.398000e-003
7.598280e+002,7.365175e-003
7.617565e+002,6.936881e-003
7.636850e+002,6.652854e-003
7.656135e+002,6.706219e-003
7.675420e+002,7.011663e-003
7.694705e+002,6.965836e-003
7.713990e+002,6.562357e-003
7.733275e+002,6.377989e-003
7.752560e+002,6.255816e-003
7.771844e+002,6.333742e-003
7.791130e+002,6.485365e-003
7.810415e+002,6.754105e-003
7.829700e+002,6.506319e-003
7.848984e+002,6.225261e-003
7.868270e+002,6.544932e-003
7.887555e+002,6.867026e-003
7.906840e+002,6.862246e-003
7.926124e+002,6.890490e-003
7.945410e+002,6.813709e-003
7.964695e+002,6.551458e-003
7.983979e+002,6.274237e-003
8.003264e+002,6.328867e-003
8.022549e+002,6.552400e-003
8.041835e+002,6.731154e-003
8.061119e+002,7.001932e-003
8.080404e+002,7.239018e-003
8.099689e+002,7.653614e-003
8.118975e+002,7.829415e-003
8.138259e+002,8.258522e-003
8.157545e+002,8.174679e-003
8.176830e+002,7.772336e-003
8.196115e+002,7.345865e-003
8.215399e+002,7.023819e-003
8.234684e+002,6.624155e-003
8.253970e+002,6.436197e-003
8.273254e+002,6.154244e-003
8.292539e+002,5.444475e-003
8.311824e+002,4.918396e-003
8.331110e+002,4.950233e-003
8.350394e+002,4.958478e-003
8.369679e+002,5.088500e-003
8.388964e+002,5.043948e-003
8.408250e+002,4.951775e-003
8.427534e+002,4.722801e-003
8.446819e+002,4.520195e-003
8.466104e+002,4.589438e-003
8.485389e+002,4.570486e-003
8.504674e+002,4.224594e-003
8.523959e+002,4.337194e-003
8.543244e+002,4.811508e-003
8.562529e+002,5.085248e-003
8.581814e+002,5.095439e-003
8.601099e+002,4.861464e-003
8.620384e+002,4.391381e-003
8.639669e+002,4.640106e-003
8.658954e+002,5.125311e-003
8.678239e+002,4.929153e-003
8.697524e+002,4.561981e-003
8.716809e+002,4.641747e-003
8.736094e+002,4.707828e-003
8.755378e+002,4.707560e-003
8.774664e+002,4.941620e-003
8.793949e+002,4.744339e-003
8.813234e+002,4.549692e-003
8.832518e+002,4.712819e-003
8.851804e+002,4.486381e-003
8.871089e+002,4.115702e-003
8.890374e+002,3.916957e-003
8.909658e+002,4.096469e-003
8.928943e+002,4.240052e-003
8.948229e+002,3.870152e-003
8.967513e+002,3.869450e-003
8.986798e+002,3.945109e-003
9.006083e+002,3.792065e-003
9.025369e+002,3.821312e-003
9.044653e+002,3.747378e-003
9.063938e+002,3.691201e-003
9.083223e+002,3.493351e-003
9.102509e+002,3.532032e-003
9.121793e+002,3.665772e-003
9.141078e+002,3.339664e-003
9.160364e+002,3.267949e-003
9.179648e+002,3.561029e-003
9.198933e+002,3.440146e-003
9.218218e+002,3.532132e-003
9.237504e+002,3.699087e-003
9.256788e+002,3.694041e-003
9.276073e+002,3.732874e-003
9.295358e+002,3.636301e-003
9.314644e+002,3.390720e-003
9.333928e+002,3.602622e-003
9.353213e+002,4.041083e-003
9.372498e+002,4.154706e-003
9.391783e+002,3.806872e-003
9.411068e+002,3.869149e-003
9.430353e+002,4.167519e-003
9.449637e+002,4.184179e-003
9.468923e+002,4.345796e-003
9.488208e+002,4.388870e-003
9.507493e+002,4.259157e-003
9.526777e+002,4.288570e-003
9.546063e+002,4.245673e-003
9.565348e+002,4.045832e-003
9.584633e+002,3.875099e-003
9.603917e+002,3.790327e-003
9.623203e+002,3.672321e-003
9.642488e+002,3.732105e-003
9.661772e+002,3.827429e-003
9.681057e+002,3.907963e-003
9.700343e+002,3.761616e-003
9.719628e+002,3.827797e-003
9.738912e+002,3.638706e-003
9.758197e+002,3.388583e-003
9.777483e+002,3.295926e-003
9.796768e+002,3.228056e-003
9.816052e+002,3.256932e-003
9.835337e+002,3.393158e-003
9.854623e+002,3.329247e-003
9.873907e+002,3.495790e-003
9.893192e+002,3.605996e-003
9.912477e+002,3.291218e-003
9.931763e+002,3.267281e-003
9.951047e+002,3.411525e-003
9.970332e+002,3.416701e-003
9.989617e+002,3.588690e-003
1.000890e+003,3.972328e-003
1.002819e+003,4.417823e-003
1.004747e+003,4.385925e-003
1.006676e+003,4.637260e-003
1.008604e+003,4.977515e-003
1.010533e+003,5.038216e-003
1.012461e+003,5.129804e-003
1.014390e+003,5.371170e-003
1.016318e+003,5.720226e-003
1.018247e+003,6.035628e-003
1.020175e+003,6.238673e-003
1.022104e+003,6.493403e-003
1.024032e+003,6.753297e-003
1.025961e+003,6.916816e-003
1.027889e+003,6.934659e-003
1.029818e+003,7.109360e-003
1.031746e+003,7.526733e-003
1.033675e+003,7.764072e-003
1.035603e+003,7.695366e-003
1.037532e+003,7.669768e-003
1.039460e+003,7.971335e-003
1.041389e+003,8.108001e-003
1.043317e+003,8.068404e-003
1.045246e+003,8.354407e-003
1.047174e+003,8.376633e-003
1.049103e+003,8.329682e-003
1.051031e+003,8.235728e-003
1.052960e+003,8.249101e-003
1.054888e+003,8.493322e-003
1.056817e+003,8.529883e-003
1.058745e+003,8.644687e-003
1.060674e+003,8.872188e-003
1.062602e+003,9.006635e-003
1.064531e+003,9.016479e-003
1.066459e+003,8.957857e-003
1.068388e+003,8.952547e-003
1.070316e+003,9.036168e-003
1.072245e+003,9.199872e-003
1.074173e+003,9.227353e-003
1.076102e+003,9.060020e-003
1.078030e+003,9.000174e-003
1.079959e+003,9.037149e-003
1.081887e+003,9.115880e-003
1.083816e+003,9.335774e-003
1.085744e+003,9.379922e-003
1.087673e+003,9.393364e-003
1.089601e+003,9.530716e-003
1.091530e+003,9.720153e-003
1.093458e+003,9.555034e-003
1.095387e+003,9.470907e-003
1.097315e+003,9.654627e-003
1.099244e+003,9.946083e-003
1.101172e+003,1.002762e-002
1.103101e+003,9.808565e-003
1.105029e+003,9.760172e-003
1.106958e+003,9.865133e-003
1.108886e+003,9.915335e-003
1.110815e+003,9.773965e-003
1.112743e+003,9.672447e-003
1.114672e+003,9.632776e-003
1.116600e+003,9.942523e-003
1.118529e+003,1.021775e-002
1.120457e+003,1.013068e-002
1.122386e+003,1.030437e-002
1.124314e+003,1.029470e-002
1.126243e+003,9.873811e-003
1.128171e+003,9.552901e-003
1.130100e+003,9.595343e-003
1.132028e+003,9.631285e-003
1.133957e+003,9.560251e-003
1.135885e+003,9.521063e-003
1.137814e+003,9.247662e-003
1.139742e+003,8.565095e-003
1.141671e+003,8.399569e-003
1.143599e+003,8.269971e-003
1.145528e+003,7.873916e-003
1.147456e+003,7.595884e-003
1.149385e+003,7.515237e-003
1.151313e+003,7.197714e-003
1.153242e+003,6.862314e-003
1.155170e+003,6.828317e-003
1.157099e+003,6.703560e-003
1.159027e+003,6.432801e-003
1.160956e+003,6.148329e-003
1.162884e+003,6.038316e-003
1.164813e+003,5.857697e-003
1.166741e+003,5.765486e-003
1.168670e+003,5.758199e-003
1.170598e+003,5.743560e-003
1.172526e+003,5.806888e-003
1.174455e+003,5.738558e-003
1.176384e+003,5.663491e-003
1.178312e+003,5.526518e-003
1.180240e+003,5.352955e-003
1.182169e+003,5.166284e-003
1.184098e+003,4.936493e-003
1.186026e+003,4.764706e-003
1.187954e+003,4.899965e-003
1.189883e+003,4.784304e-003
1.191812e+003,4.679291e-003
1.193740e+003,4.823134e-003
1.195668e+003,4.649919e-003
1.197597e+003,4.433589e-003
1.199526e+003,4.440284e-003
1.201454e+003,4.543365e-003
1.203382e+003,4.563722e-003
1.205311e+003,4.471048e-003
1.207240e+003,4.524782e-003
1.209168e+003,4.567238e-003
1.211096e+003,4.608158e-003
1.213025e+003,4.848296e-003
1.214953e+003,4.929723e-003
1.216882e+003,4.706622e-003
1.218810e+003,4.554849e-003
1.220739e+003,4.513198e-003
1.222667e+003,4.564124e-003
1.224596e+003,4.682975e-003
1.226524e+003,4.743937e-003
1.228453e+003,4.746617e-003
1.230381e+003,4.571859e-003
1.232310e+003,4.520429e-003
1.234238e+003,4.611172e-003
1.236167e+003,4.591448e-003
1.238095e+003,4.685521e-003
1.240024e+003,4.877648e-003
1.241952e+003,4.946211e-003
1.243881e+003,4.886394e-003
1.245809e+003,4.897754e-003
1.247738e+003,5.084678e-003
1.249666e+003,5.371002e-003
1.251595e+003,5.594915e-003
1.253523e+003,5.812160e-003
1.255452e+003,6.066707e-003
1.257380e+003,6.284793e-003
1.259309e+003,6.556874e-003
1.261237e+003,6.887830e-003
1.263166e+003,7.094777e-003
1.265094e+003,7.539948e-003
1.267023e+003,7.956149e-003
1.268951e+003,8.279460e-003
1.270880e+003,8.645903e-003
1.272808e+003,8.812504e-003
1.274737e+003,9.051629e-003
1.276665e+003,9.495493e-003
1.278594e+003,9.876997e-003
1.280522e+003,1.014330e-002
1.282451e+003,1.035465e-002
1.284379e+003,1.071103e-002
1.286308e+003,1.113430e-002
1.288236e+003,1.155899e-002
1.290165e+003,1.208307e-002
1.292093e+003,1.242433e-002
1.294022e+003,1.281726e-002
1.295950e+003,1.324733e-002
1.297879e+003,1.348299e-002
1.299807e+003,1.345203e-002
1.301736e+003,1.346385e-002
1.303664e+003,1.330246e-002
1.305593e+003,1.299909e-002
1.307521e+003,1.297700e-002
1.309450e+003,1.281797e-002
1.311378e+003,1.233774e-002
1.313307e+003,1.195955e-002
1.315235e+003,1.173897e-002
1.317164e+003,1.151990e-002
1.319092e+003,1.105255e-002
1.321021e+003,1.043790e-002
1.322949e+003,1.004495e-002
1.324878e+003,9.844323e-003
1.326806e+003,9.691285e-003
1.328735e+003,9.522587e-003
1.330663e+003,9.407450e-003
1.332592e+003,9.301211e-003
1.334520e+003,9.135811e-003
1.336449e+003,9.138349e-003
1.338377e+003,9.279851e-003
1.340306e+003,9.353480e-003
1.342234e+003,9.254295e-003
1.344163e+003,9.158246e-003
1.346091e+003,9.107557e-003
1.348020e+003,9.055892e-003
1.349948e+003,8.964047e-003
1.351877e+003,8.882266e-003
1.353805e+003,8.882334e-003
1.355734e+003,8.789511e-003
1.357662e+003,8.684607e-003
1.359591e+003,8.632215e-003
1.361519e+003,8.707661e-003
1.363448e+003,8.615079e-003
1.365376e+003,8.240321e-003
1.367305e+003,7.996208e-003
1.369233e+003,7.928106e-003
1.371162e+003,7.934248e-003
1.373090e+003,8.078025e-003
1.375019e+003,8.051595e-003
1.376947e+003,7.998334e-003
1.378876e+003,8.132882e-003
1.380804e+003,8.206554e-003
1.382733e+003,8.121539e-003
1.384661e+003,7.993744e-003
1.386590e+003,8.008797e-003
1.388518e+003,7.839603e-003
1.390447e+003,7.375353e-003
1.392375e+003,7.162310e-003
1.394304e+003,7.252056e-003
1.396232e+003,6.988766e-003
1.398161e+003,6.814349e-003
1.400089e+003,6.739735e-003
1.402018e+003,6.647336e-003
1.403946e+003,6.591556e-003
1.405875e+003,6.441241e-003
1.407803e+003,6.155152e-003
1.409732e+003,6.055922e-003
1.411660e+003,6.137508e-003
1.413589e+003,6.182744e-003
1.415517e+003,6.386463e-003
1.417446e+003,7.036212e-003
1.419374e+003,7.803371e-003
1.421303e+003,8.119918e-003
1.423231e+003,8.720575e-003
1.425160e+003,9.423872e-003
1.427088e+003,9.889776e-003
1.429017e+003,1.027784e-002
1.430945e+003,1.057300e-002
1.432874e+003,1.084833e-002
1.434802e+003,1.149996e-002
1.436731e+003,1.220181e-002
1.438659e+003,1.225147e-002
1.440588e+003,1.250859e-002
1.442516e+003,1.306054e-002
1.444445e+003,1.368904e-002
1.446373e+003,1.441475e-002
1.448302e+003,1.504710e-002
1.450230e+003,1.549229e-002
1.452159e+003,1.595266e-002
1.454087e+003,1.674735e-002
1.456016e+003,1.792396e-002
1.457944e+003,1.829521e-002
1.459873e+003,1.792454e-002
1.461801e+003,1.794975e-002
1.463730e+003,1.824959e-002
1.465658e+003,1.835293e-002
1.467587e+003,1.803087e-002
1.469515e+003,1.797707e-002
1.471444e+003,1.821449e-002
1.473372e+003,1.804013e-002
1.475301e+003,1.740300e-002
1.477229e+003,1.669614e-002
1.479158e+003,1.592921e-002
1.481086e+003,1.537639e-002
1.483015e+003,1.476680e-002
1.484943e+003,1.428136e-002
1.486872e+003,1.395632e-002
1.488800e+003,1.364589e-002
1.490729e+003,1.326321e-002
1.492657e+003,1.251834e-002
1.494586e+003,1.198724e-002
1.496514e+003,1.171255e-002
1.498443e+003,1.126982e-002
1.500371e+003,1.060679e-002
1.502300e+003,1.016786e-002
1.504228e+003,1.039595e-002
1.506157e+003,1.094349e-002
1.508085e+003,1.031624e-002
1.510014e+003,9.393330e-003
1.511942e+003,9.023922e-003
1.513871e+003,8.866575e-003
1.515799e+003,9.051832e-003
1.517728e+003,9.171546e-003
1.519656e+003,9.311028e-003
1.521585e+003,9.630641e-003
1.523513e+003,9.338482e-003
1.525442e+003,9.307744e-003
1.527370e+003,9.364551e-003
1.529299e+003,9.409075e-003
1.531227e+003,9.590127e-003
1.533156e+003,1.010077e-002
1.535084e+003,1.020106e-002
1.537013e+003,1.051322e-002
1.538941e+003,1.155103e-002
1.540870e+003,1.214869e-002
1.542798e+003,1.217077e-002
1.544727e+003,1.212562e-002
1.546655e+003,1.189259e-002
1.548584e+003,1.208893e-002
1.550512e+003,1.251091e-002
1.552441e+003,1.290429e-002
1.554369e+003,1.344690e-002
1.556298e+003,1.408917e-002
1.558226e+003,1.539049e-002
1.560155e+003,1.561957e-002
1.562083e+003,1.497377e-002
1.564012e+003,1.518642e-002
1.565940e+003,1.551454e-002
1.567869e+003,1.594272e-002
1.569797e+003,1.659678e-002
1.571726e+003,1.654178e-002
1.573654e+003,1.663427e-002
1.575583e+003,1.730744e-002
1.577511e+003,1.722894e-002
1.579440e+003,1.672218e-002
1.581368e+003,1.660986e-002
1.583297e+003,1.643436e-002
1.585225e+003,1.624369e-002
1.587154e+003,1.591430e-002
1.589082e+003,1.544934e-002
1.591010e+003,1.502600e-002
1.592939e+003,1.474743e-002
1.594868e+003,1.436201e-002
1.596796e+003,1.380672e-002
1.598724e+003,1.321166e-002
1.600653e+003,1.263769e-002
1.602582e+003,1.223695e-002
1.604510e+003,1.174527e-002
1.606438e+003,1.127264e-002
1.608367e+003,1.082305e-002
1.610296e+003,1.019472e-002
1.612224e+003,9.673837e-003
1.614152e+003,9.529056e-003
1.616081e+003,9.578778e-003
1.618010e+003,9.141462e-003
1.619938e+003,8.676866e-003
1.621866e+003,8.691942e-003
1.623795e+003,8.465414e-003
1.625724e+003,8.117893e-003
1.627652e+003,7.926183e-003
1.629580e+003,7.689666e-003
1.631509e+003,7.336496e-003
1.633438e+003,7.483986e-003
1.635366e+003,7.874388e-003
1.637294e+003,7.333868e-003
1.639223e+003,6.623381e-003
1.641151e+003,6.237295e-003
1.643080e+003,5.858705e-003
1.645008e+003,5.928465e-003
1.646937e+003,5.937299e-003
1.648865e+003,5.261286e-003
1.650794e+003,5.228119e-003
1.652722e+003,6.095503e-003
1.654651e+003,5.258201e-003
1.656579e+003,4.152599e-003
1.658508e+003,3.640611e-003
1.660436e+003,3.411458e-003
1.662365e+003,3.363605e-003
1.664293e+003,3.152121e-003
1.666222e+003,2.892271e-003
1.668150e+003,2.958153e-003
1.670079e+003,2.935635e-003
1.672007e+003,2.594142e-003
1.673936e+003,2.530748e-003
1.675864e+003,2.362310e-003
1.677793e+003,1.690072e-003
1.679721e+003,1.521693e-003
1.681650e+003,1.655180e-003
1.683578e+003,2.196500e-003
1.685507e+003,1.797093e-003
1.687435e+003,1.181343e-003
1.689364e+003,9.616528e-004
1.691292e+003,7.627523e-004
1.693221e+003,9.191493e-004
1.695149e+003,1.560398e-003
1.697078e+003,1.531668e-003
1.699006e+003,1.691535e-003
1.700935e+003,1.924807e-003
1.702863e+003,1.316952e-003
1.704792e+003,1.254708e-003
1.706720e+003,1.124167e-003
1.708649e+003,8.494592e-004
1.710577e+003,6.338526e-004
1.712506e+003,6.662731e-004
1.714434e+003,9.274172e-004
1.716363e+003,1.309474e-003
1.718291e+003,1.309940e-003
1.720220e+003,8.754547e-004
1.722148e+003,7.195381e-004
1.724077e+003,6.384318e-004
1.726005e+003,5.732989e-004
1.727934e+003,6.005719e-004
1.729862e+003,6.346822e-004
1.731791e+003,8.616434e-004
1.733719e+003,1.331443e-003
1.735648e+003,1.029634e-003
1.737576e+003,6.750340e-004
1.739505e+003,8.401304e-004
1.741433e+003,6.544926e-004
1.743362e+003,5.245966e-004
1.745290e+003,5.414162e-004
1.747219e+003,7.068601e-004
1.749147e+003,9.640770e-004
1.751076e+003,1.018707e-003
1.753004e+003,6.817375e-004
1.754933e+003,5.063844e-004
1.756861e+003,6.329235e-004
1.758790e+003,6.086679e-004
1.760718e+003,7.300923e-004
1.762647e+003,7.395847e-004
1.764575e+003,4.777905e-004
1.766504e+003,5.333878e-004
1.768432e+003,6.194849e-004
1.770361e+003,6.838614e-004
1.772289e+003,1.003795e-003
1.774218e+003,8.044107e-004
1.776146e+003,4.365615e-004
1.778075e+003,2.677393e-004
1.780003e+003,3.625051e-004
1.781932e+003,3.910914e-004
1.783860e+003,2.313703e-004
1.785789e+003,1.748172e-004
1.787717e+003,2.667446e-004
1.789646e+003,4.130465e-004
1.791574e+003,6.886735e-004
1.793503e+003,6.580433e-004
1.795431e+003,4.357655e-004
1.797360e+003,4.239913e-004
1.799288e+003,4.645225e-004
1.801217e+003,4.188173e-004
1.803145e+003,2.840184e-004
1.805074e+003,2.443660e-004
1.807002e+003,2.332931e-004
1.808931e+003,2.565664e-004
1.810859e+003,3.014587e-004
1.812788e+003,2.434046e-004
1.814716e+003,1.401796e-004
1.816645e+003,6.663767e-005
1.818573e+003,5.533737e-005
1.820502e+003,8.764838e-005
1.822430e+003,1.325895e-004
1.824359e+003,2.666452e-004
1.826287e+003,2.749670e-004
1.828216e+003,3.187670e-004
1.830144e+003,4.283029e-004
1.832073e+003,1.537029e-004
1.834001e+003,8.350581e-005
1.835930e+003,9.881695e-005
1.837858e+003,5.083059e-005
1.839787e+003,7.237077e-005
1.841715e+003,1.497254e-004
1.843644e+003,4.224988e-004
1.845572e+003,2.867040e-004
1.847501e+003,1.557303e-006
1.849429e+003,1.298874e-005
1.851358e+003,1.824744e-004
1.853286e+003,2.819628e-004
1.855215e+003,1.889714e-004
1.857143e+003,1.664973e-004
1.859072e+003,1.825738e-004
1.861000e+003,1.894355e-004
1.862929e+003,1.346113e-004
1.864857e+003,1.929161e-004
1.866786e+003,3.317985e-004
1.868714e+003,4.345051e-004
1.870643e+003,2.600475e-004
1.872571e+003,5.848552e-005
1.874500e+003,1.040202e-004
1.876428e+003,1.614259e-004
1.878357e+003,1.893692e-004
1.880285e+003,1.967945e-004
1.882214e+003,1.473058e-004
1.884142e+003,2.180767e-004
1.886071e+003,2.439682e-004
1.887999e+003,2.809681e-004
1.889928e+003,3.087865e-004
1.891856e+003,1.368651e-004
1.893785e+003,1.575146e-004
1.895713e+003,2.157893e-004
1.897642e+003,2.403877e-004
1.899570e+003,2.831896e-004
1.901499e+003,2.315030e-004
1.903427e+003,1.871482e-004
1.905356e+003,2.191044e-004
1.907284e+003,2.486759e-004
1.909213e+003,2.459573e-004
1.911141e+003,2.366415e-004
1.913070e+003,2.880303e-004
1.914998e+003,3.491411e-004
1.916927e+003,4.785534e-004
1.918855e+003,5.163032e-004
1.920784e+003,3.860174e-004
1.922712e+003,3.990177e-004
1.924641e+003,3.831653e-004
1.926569e+003,3.995483e-004
1.928498e+003,3.386957e-004
1.930426e+003,3.638979e-004
1.932355e+003,3.250008e-004
1.934283e+003,1.952365e-004
1.936212e+003,2.075349e-004
1.938140e+003,2.888260e-004
1.940069e+003,4.264787e-004
1.941997e+003,5.704456e-004
1.943926e+003,5.051902e-004
1.945854e+003,3.990840e-004
1.947783e+003,3.512966e-004
1.949711e+003,3.187339e-004
1.951640e+003,3.019561e-004
1.953568e+003,3.518935e-004
1.955497e+003,3.637321e-004
1.957425e+003,2.634624e-004
1.959354e+003,3.189660e-004
1.961282e+003,4.660815e-004
1.963211e+003,4.787193e-004
1.965139e+003,4.531787e-004
1.967068e+003,3.917879e-004
1.968996e+003,2.832227e-004
1.970925e+003,2.650869e-004
1.972853e+003,3.799817e-004
1.974782e+003,4.628309e-004
1.976710e+003,4.472415e-004
1.978639e+003,4.680053e-004
1.980567e+003,4.177560e-004
1.982496e+003,3.396905e-004
1.984424e+003,3.787878e-004
1.986353e+003,4.827329e-004
1.988281e+003,4.880735e-004
1.990210e+003,4.440574e-004
1.992138e+003,4.490658e-004
1.994067e+003,4.229299e-004
1.995995e+003,3.995151e-004
1.997924e+003,4.083370e-004
1.999852e+003,4.994845e-004
2.001781e+003,5.134171e-004
2.003709e+003,5.251606e-004
2.005638e+003,4.912911e-004
2.007566e+003,5.413167e-004
2.009495e+003,5.521983e-004
2.011423e+003,4.945088e-004
2.013352e+003,5.490798e-004
2.015280e+003,6.206130e-004
2.017208e+003,6.704876e-004
2.019137e+003,7.173145e-004
2.021066e+003,6.887398e-004
2.022994e+003,5.939028e-004
2.024922e+003,6.550899e-004
2.026851e+003,7.452935e-004
2.028780e+003,7.409123e-004
2.030708e+003,7.326480e-004
2.032636e+003,8.011575e-004
2.034565e+003,7.917302e-004
2.036494e+003,7.507369e-004
2.038422e+003,7.828341e-004
2.040350e+003,8.080621e-004
2.042279e+003,8.491604e-004
2.044208e+003,8.852824e-004
2.046136e+003,8.935496e-004
2.048064e+003,9.454147e-004
2.049993e+003,1.048399e-003
2.051921e+003,9.659034e-004
2.053850e+003,9.455143e-004
2.055778e+003,1.037572e-003
2.057707e+003,1.134698e-003
2.059635e+003,1.123636e-003
2.061564e+003,1.170013e-003
2.063492e+003,1.099652e-003
2.065421e+003,1.147256e-003
2.067349e+003,1.328152e-003
2.069278e+003,1.288205e-003
2.071206e+003,1.291661e-003
2.073135e+003,1.368535e-003
2.075063e+003,1.408756e-003
2.076992e+003,1.423349e-003
2.078920e+003,1.443628e-003
2.080849e+003,1.566816e-003
2.082777e+003,1.639282e-003
2.084706e+003,1.611578e-003
2.086634e+003,1.523821e-003
2.088563e+003,1.512416e-003
2.090491e+003,1.575927e-003
2.092420e+003,1.566450e-003
2.094348e+003,1.665558e-003
2.096277e+003,1.647929e-003
2.098205e+003,1.586037e-003
2.100134e+003,1.695361e-003
2.102062e+003,1.807141e-003
2.103991e+003,1.815293e-003
2.105919e+003,1.898982e-003
2.107848e+003,1.994637e-003
2.109776e+003,1.929334e-003
2.111705e+003,1.900014e-003
2.113633e+003,2.019902e-003
2.115562e+003,2.105063e-003
2.117490e+003,2.060782e-003
2.119419e+003,2.110456e-003
2.121347e+003,2.155774e-003
2.123276e+003,2.155574e-003
2.125204e+003,2.197300e-003
2.127133e+003,2.233401e-003
2.129061e+003,2.348651e-003
2.130990e+003,2.447271e-003
2.132918e+003,2.323633e-003
2.134847e+003,2.232235e-003
2.136775e+003,2.312807e-003
2.138704e+003,2.404188e-003
2.140632e+003,2.420248e-003
2.142561e+003,2.436541e-003
2.144489e+003,2.469963e-003
2.146418e+003,2.413218e-003
2.148346e+003,2.464531e-003
2.150275e+003,2.601209e-003
2.152203e+003,2.677015e-003
2.154132e+003,2.687017e-003
2.156060e+003,2.735295e-003
2.157989e+003,2.763505e-003
2.159917e+003,2.780278e-003
2.161846e+003,2.689117e-003
2.163774e+003,2.707888e-003
2.165703e+003,2.801120e-003
2.167631e+003,2.884933e-003
2.169560e+003,2.939738e-003
2.171488e+003,2.913085e-003
2.173417e+003,2.843308e-003
2.175345e+003,2.857549e-003
2.177274e+003,2.921858e-003
2.179202e+003,2.958820e-003
2.181131e+003,2.882798e-003
2.183059e+003,2.918422e-003
2.184988e+003,3.028516e-003
2.186916e+003,3.022577e-003
2.188845e+003,2.913886e-003
2.190773e+003,2.769407e-003
2.192702e+003,2.720158e-003
2.194630e+003,2.806823e-003
2.196559e+003,2.897908e-003
2.198487e+003,2.890536e-003
2.200416e+003,2.853614e-003
2.202344e+003,2.850279e-003
2.204273e+003,2.819929e-003
2.206201e+003,2.740764e-003
2.208130e+003,2.781211e-003
2.210058e+003,2.792950e-003
2.211987e+003,2.766806e-003
2.213915e+003,2.786214e-003
2.215844e+003,2.825165e-003
2.217772e+003,2.851679e-003
2.219701e+003,2.868222e-003
2.221629e+003,2.787948e-003
2.223558e+003,2.736896e-003
2.225486e+003,2.747699e-003
2.227415e+003,2.726293e-003
2.229343e+003,2.728627e-003
2.231272e+003,2.687484e-003
2.233200e+003,2.652911e-003
2.235129e+003,2.703253e-003
2.237057e+003,2.674881e-003
2.238986e+003,2.605309e-003
2.240914e+003,2.546879e-003
2.242843e+003,2.534315e-003
2.244771e+003,2.577376e-003
2.246700e+003,2.613842e-003
2.248628e+003,2.574843e-003
2.250557e+003,2.436241e-003
2.252485e+003,2.343854e-003
2.254414e+003,2.333860e-003
2.256342e+003,2.348518e-003
2.258271e+003,2.353448e-003
2.260199e+003,2.419648e-003
2.262128e+003,2.493723e-003
2.264056e+003,2.478660e-003
2.265985e+003,2.450003e-003
2.267913e+003,2.457034e-003
2.269842e+003,2.481826e-003
2.271770e+003,2.474661e-003
2.273699e+003,2.429877e-003
2.275627e+003,2.387263e-003
2.277556e+003,2.386064e-003
2.279484e+003,2.338757e-003
2.281413e+003,2.353348e-003
2.283341e+003,2.327897e-003
2.285270e+003,2.349184e-003
2.287198e+003,2.435408e-003
2.289127e+003,2.557745e-003
2.291055e+003,2.583776e-003
2.292984e+003,2.565810e-003
2.294912e+003,2.513852e-003
2.296841e+003,2.574243e-003
2.298769e+003,2.877661e-003
2.300698e+003,3.093784e-003
2.302626e+003,3.233131e-003
2.304555e+003,3.338462e-003
2.306483e+003,3.559391e-003
2.308412e+003,3.883792e-003
2.310340e+003,4.283986e-003
2.312269e+003,4.792311e-003
2.314197e+003,5.378684e-003
2.316125e+003,5.976433e-003
2.318054e+003,6.541132e-003
2.319983e+003,7.164500e-003
2.321911e+003,7.897299e-003
2.323840e+003,8.612949e-003
2.325768e+003,9.060662e-003
2.327697e+003,9.644158e-003
2.329625e+003,1.041255e-002
2.331553e+003,1.079061e-002
2.333482e+003,1.094479e-002
2.335411e+003,1.118216e-002
2.337339e+003,1.150384e-002
2.339268e+003,1.166051e-002
2.341196e+003,1.150187e-002
2.343125e+003,1.086022e-002
2.345053e+003,9.540504e-003
2.346981e+003,7.518102e-003
2.348910e+003,6.317605e-003
2.350839e+003,7.711993e-003
2.352767e+003,1.034400e-002
2.354696e+003,1.236641e-002
2.356624e+003,1.364178e-002
2.358552e+003,1.440379e-002
2.360481e+003,1.468622e-002
2.362409e+003,1.463145e-002
2.364338e+003,1.442468e-002
2.366267e+003,1.377111e-002
2.368195e+003,1.266126e-002
2.370124e+003,1.137321e-002
2.372052e+003,9.933912e-003
2.373980e+003,8.511095e-003
2.375909e+003,7.112560e-003
2.377838e+003,5.721737e-003
2.379766e+003,4.588668e-003
2.381695e+003,3.894557e-003
2.383623e+003,3.604460e-003
2.385552e+003,3.469737e-003
2.387480e+003,3.445323e-003
2.389408e+003,3.567543e-003
2.391337e+003,3.661695e-003
2.393266e+003,3.652740e-003
2.395194e+003,3.634329e-003
2.397123e+003,3.638773e-003
2.399051e+003,3.767298e-003
2.400979e+003,3.839998e-003
2.402908e+003,3.807975e-003
2.404836e+003,3.779698e-003
2.406765e+003,3.839697e-003
2.408694e+003,3.844277e-003
2.410622e+003,3.832544e-003
2.412551e+003,3.860524e-003
2.414479e+003,3.969619e-003
2.416407e+003,4.076802e-003
2.418336e+003,4.058374e-003
2.420264e+003,3.986104e-003
2.422193e+003,3.996204e-003
2.424122e+003,4.135806e-003
2.426050e+003,4.273445e-003
2.427979e+003,4.275286e-003
2.429907e+003,4.258723e-003
2.431835e+003,4.341043e-003
2.433764e+003,4.413304e-003
2.435692e+003,4.512528e-003
2.437621e+003,4.523376e-003
2.439550e+003,4.455348e-003
2.441478e+003,4.506167e-003
2.443406e+003,4.583244e-003
2.445335e+003,4.629088e-003
2.447263e+003,4.663583e-003
2.449192e+003,4.669344e-003
2.451121e+003,4.645230e-003
2.453049e+003,4.645029e-003
2.454978e+003,4.690109e-003
2.456906e+003,4.752848e-003
2.458834e+003,4.840523e-003
2.460763e+003,4.874063e-003
2.462691e+003,4.755159e-003
2.464620e+003,4.751809e-003
2.466549e+003,4.929790e-003
2.468477e+003,4.995580e-003
2.470406e+003,4.989413e-003
2.472334e+003,5.045054e-003
2.474262e+003,5.134900e-003
2.476191e+003,5.207260e-003
2.478119e+003,5.160718e-003
2.480048e+003,5.154045e-003
2.481977e+003,5.221646e-003
2.483905e+003,5.216851e-003
2.485833e+003,5.218460e-003
2.487762e+003,5.290063e-003
2.489690e+003,5.303009e-003
2.491619e+003,5.346112e-003
2.493547e+003,5.502759e-003
2.495476e+003,5.619887e-003
2.497405e+003,5.705286e-003
2.499333e+003,5.709382e-003
2.501261e+003,5.670373e-003
2.503190e+003,5.687628e-003
2.505118e+003,5.675744e-003
2.507047e+003,5.635093e-003
2.508975e+003,5.643317e-003
2.510904e+003,5.695618e-003
2.512833e+003,5.772705e-003
2.514761e+003,5.811690e-003
2.516689e+003,5.803396e-003
2.518618e+003,5.793658e-003
2.520546e+003,5.933839e-003
2.522475e+003,5.970621e-003
2.524403e+003,5.907976e-003
2.526332e+003,5.808264e-003
2.528260e+003,5.857832e-003
2.530189e+003,5.991013e-003
2.532117e+003,6.006466e-003
2.534046e+003,5.949391e-003
2.535974e+003,5.987485e-003
2.537903e+003,5.990341e-003
2.539831e+003,6.107130e-003
2.541760e+003,6.193969e-003
2.543688e+003,6.250942e-003
2.545617e+003,6.259716e-003
2.547545e+003,6.267413e-003
2.549474e+003,6.247043e-003
2.551402e+003,6.177736e-003
2.553331e+003,6.163083e-003
2.555259e+003,6.235513e-003
2.557188e+003,6.266607e-003
2.559116e+003,6.151757e-003
2.561045e+003,6.096344e-003
2.562973e+003,6.165133e-003
2.564902e+003,6.306779e-003
2.566830e+003,6.362758e-003
2.568759e+003,6.244455e-003
2.570687e+003,6.234303e-003
2.572616e+003,6.344972e-003
2.574544e+003,6.433137e-003
2.576473e+003,6.383403e-003
2.578401e+003,6.360068e-003
2.580330e+003,6.302241e-003
2.582258e+003,6.217699e-003
2.584187e+003,6.338449e-003
2.586115e+003,6.393793e-003
2.588044e+003,6.394230e-003
2.589972e+003,6.481161e-003
2.591901e+003,6.524649e-003
2.593829e+003,6.516880e-003
2.595758e+003,6.483044e-003
2.597686e+003,6.498785e-003
2.599615e+003,6.509413e-003
2.601543e+003,6.584088e-003
2.603472e+003,6.662476e-003
2.605400e+003,6.710055e-003
2.607329e+003,6.769889e-003
2.609257e+003,6.846022e-003
2.611186e+003,6.818186e-003
2.613114e+003,6.859217e-003
2.615043e+003,6.878775e-003
2.616971e+003,6.816031e-003
2.618900e+003,6.993648e-003
2.620828e+003,7.168542e-003
2.622757e+003,7.200208e-003
2.624685e+003,7.170933e-003
2.626614e+003,7.134352e-003
2.628542e+003,7.142807e-003
2.630471e+003,7.167228e-003
2.632399e+003,7.125730e-003
2.634328e+003,7.137619e-003
2.636256e+003,7.130075e-003
2.638185e+003,7.280426e-003
2.640113e+003,7.429953e-003
2.642042e+003,7.371174e-003
2.643970e+003,7.435784e-003
2.645899e+003,7.496898e-003
2.647827e+003,7.465817e-003
2.649756e+003,7.540656e-003
2.651684e+003,7.671690e-003
2.653613e+003,7.774933e-003
2.655541e+003,7.758742e-003
2.657470e+003,7.649298e-003
2.659398e+003,7.635876e-003
2.661327e+003,7.749736e-003
2.663255e+003,7.763701e-003
2.665184e+003,7.714118e-003
2.667112e+003,7.856641e-003
2.669041e+003,7.938770e-003
2.670969e+003,8.028609e-003
2.672898e+003,8.093452e-003
2.674826e+003,8.094633e-003
2.676755e+003,8.110330e-003
2.678683e+003,8.187510e-003
2.680612e+003,8.258962e-003
2.682540e+003,8.282365e-003
2.684469e+003,8.286857e-003
2.686397e+003,8.347820e-003
2.688326e+003,8.405920e-003
2.690254e+003,8.453149e-003
2.692183e+003,8.417879e-003
2.694111e+003,8.378794e-003
2.696040e+003,8.382477e-003
2.697968e+003,8.454974e-003
2.699897e+003,8.594834e-003
2.701825e+003,8.626773e-003
2.703754e+003,8.647662e-003
2.705682e+003,8.811557e-003
2.707611e+003,8.947575e-003
2.709539e+003,8.879628e-003
2.711468e+003,8.777102e-003
2.713396e+003,8.907428e-003
2.715325e+003,9.039551e-003
2.717253e+003,9.048482e-003
2.719182e+003,9.121599e-003
2.721110e+003,9.198823e-003
2.723039e+003,9.253246e-003
2.724967e+003,9.400982e-003
2.726896e+003,9.454618e-003
2.728824e+003,9.411106e-003
2.730753e+003,9.468367e-003
2.732681e+003,9.507008e-003
2.734610e+003,9.568617e-003
2.736538e+003,9.674108e-003
2.738467e+003,9.852151e-003
2.740395e+003,9.975782e-003
2.742324e+003,1.001854e-002
2.744252e+003,1.013187e-002
2.746181e+003,1.024913e-002
2.748109e+003,1.025032e-002
2.750038e+003,1.033650e-002
2.751966e+003,1.040135e-002
2.753895e+003,1.049363e-002
2.755823e+003,1.066152e-002
2.757752e+003,1.073066e-002
2.759680e+003,1.082574e-002
2.761609e+003,1.107967e-002
2.763537e+003,1.143587e-002
2.765466e+003,1.164594e-002
2.767394e+003,1.186784e-002
2.769323e+003,1.213881e-002
2.771251e+003,1.249297e-002
2.773180e+003,1.285818e-002
2.775108e+003,1.324442e-002
2.777037e+003,1.368271e-002
2.778965e+003,1.408605e-002
2.780894e+003,1.470599e-002
2.782822e+003,1.541638e-002
2.784750e+003,1.600291e-002
2.786679e+003,1.666805e-002
2.788608e+003,1.727358e-002
2.790536e+003,1.789278e-002
2.792465e+003,1.859394e-002
2.794393e+003,1.927182e-002
2.796322e+003,1.986064e-002
2.798250e+003,2.040932e-002
2.800178e+003,2.095521e-002
2.802107e+003,2.156933e-002
2.804036e+003,2.211675e-002
2.805964e+003,2.246760e-002
2.807893e+003,2.285059e-002
2.809821e+003,2.316530e-002
2.811750e+003,2.330945e-002
2.813678e+003,2.336753e-002
2.815606e+003,2.345894e-002
2.817535e+003,2.327177e-002
2.819464e+003,2.317466e-002
2.821392e+003,2.312926e-002
2.823321e+003,2.293749e-002
2.825249e+003,2.261372e-002
2.827177e+003,2.222677e-002
2.829106e+003,2.183973e-002
2.831034e+003,2.123824e-002
2.832963e+003,2.082323e-002
2.834892e+003,2.054429e-002
2.836820e+003,2.007345e-002
2.838749e+003,1.954211e-002
2.840677e+003,1.893919e-002
2.842605e+003,1.847769e-002
2.844534e+003,1.806811e-002
2.846462e+003,1.746188e-002
2.848391e+003,1.697659e-002
2.850320e+003,1.660883e-002
2.852248e+003,1.628659e-002
2.854177e+003,1.601251e-002
2.856105e+003,1.583518e-002
2.858033e+003,1.567611e-002
2.859962e+003,1.556063e-002
2.861890e+003,1.543458e-002
2.863819e+003,1.526219e-002
2.865748e+003,1.518484e-002
2.867676e+003,1.514360e-002
2.869604e+003,1.526099e-002
2.871533e+003,1.538133e-002
2.873461e+003,1.542534e-002
2.875390e+003,1.535816e-002
2.877319e+003,1.548443e-002
2.879247e+003,1.576605e-002
2.881176e+003,1.580189e-002
2.883104e+003,1.581635e-002
2.885032e+003,1.600157e-002
2.886961e+003,1.587629e-002
2.888889e+003,1.564502e-002
2.890818e+003,1.559332e-002
2.892747e+003,1.557165e-002
2.894675e+003,1.545082e-002
2.896604e+003,1.534257e-002
2.898532e+003,1.538476e-002
2.900460e+003,1.543327e-002
2.902389e+003,1.534326e-002
2.904317e+003,1.525979e-002
2.906246e+003,1.526672e-002
2.908175e+003,1.527722e-002
2.910103e+003,1.523275e-002
2.912031e+003,1.509814e-002
2.913960e+003,1.498097e-002
2.915888e+003,1.495809e-002
2.917817e+003,1.498954e-002
2.919745e+003,1.514466e-002
2.921674e+003,1.537100e-002
2.923603e+003,1.551980e-002
2.925531e+003,1.556073e-002
2.927459e+003,1.562012e-002
2.929388e+003,1.567597e-002
2.931316e+003,1.582422e-002
2.933245e+003,1.599281e-002
2.935173e+003,1.613969e-002
2.937102e+003,1.612205e-002
2.939031e+003,1.613966e-002
2.940959e+003,1.607236e-002
2.942887e+003,1.587632e-002
2.944816e+003,1.573801e-002
2.946744e+003,1.554803e-002
2.948673e+003,1.521977e-002
2.950601e+003,1.482971e-002
2.952530e+003,1.439513e-002
2.954458e+003,1.389710e-002
2.956387e+003,1.340654e-002
2.958315e+003,1.294767e-002
2.960244e+003,1.245706e-002
2.962172e+003,1.190186e-002
2.964101e+003,1.136144e-002
2.966029e+003,1.087986e-002
2.967958e+003,1.038448e-002
2.969886e+003,9.951779e-003
2.971815e+003,9.477206e-003
2.973743e+003,8.959481e-003
2.975672e+003,8.508561e-003
2.977600e+003,8.246231e-003
2.979529e+003,7.994182e-003
2.981457e+003,7.717558e-003
2.983386e+003,7.465783e-003
2.985314e+003,7.230864e-003
2.987243e+003,6.996140e-003
2.989171e+003,6.860900e-003
2.991100e+003,6.676305e-003
2.993028e+003,6.571237e-003
2.994957e+003,6.448337e-003
2.996885e+003,6.262237e-003
2.998814e+003,6.111599e-003
3.000742e+003,6.053973e-003
3.002671e+003,5.978986e-003
3.004599e+003,5.931958e-003
3.006528e+003,5.942102e-003
3.008456e+003,5.864884e-003
3.010385e+003,5.727478e-003
3.012313e+003,5.719387e-003
3.014242e+003,5.678195e-003
3.016170e+003,5.530679e-003
3.018099e+003,5.529203e-003
3.020027e+003,5.490981e-003
3.021956e+003,5.466519e-003
3.023884e+003,5.450817e-003
3.025813e+003,5.356142e-003
3.027741e+003,5.209909e-003
3.029670e+003,5.188448e-003
3.031598e+003,5.211452e-003
3.033527e+003,5.214571e-003
3.035455e+003,5.279263e-003
3.037384e+003,5.219098e-003
3.039312e+003,5.083404e-003
3.041241e+003,4.909516e-003
3.043169e+003,4.760955e-003
3.045098e+003,4.775628e-003
3.047026e+003,4.794756e-003
3.048955e+003,4.780854e-003
3.050883e+003,4.773215e-003
3.052812e+003,4.804271e-003
3.054740e+003,4.677281e-003
3.056669e+003,4.549492e-003
3.058597e+003,4.476137e-003
3.060526e+003,4.412702e-003
3.062454e+003,4.370529e-003
3.064383e+003,4.292419e-003
3.066311e+003,4.218538e-003
3.068240e+003,4.263876e-003
3.070168e+003,4.245071e-003
3.072097e+003,4.208702e-003
3.074025e+003,4.088776e-003
3.075954e+003,3.974735e-003
3.077882e+003,3.961494e-003
3.079811e+003,3.965974e-003
3.081739e+003,3.988345e-003
3.083668e+003,3.885630e-003
3.085596e+003,3.724018e-003
3.087525e+003,3.664836e-003
3.089453e+003,3.690867e-003
3.091382e+003,3.629384e-003
3.093310e+003,3.689029e-003
3.095239e+003,3.684852e-003
3.097167e+003,3.552744e-003
3.099096e+003,3.491347e-003
3.101024e+003,3.403377e-003
3.102953e+003,3.342302e-003
3.104881e+003,3.336592e-003
3.106810e+003,3.426386e-003
3.108738e+003,3.421210e-003
3.110667e+003,3.304640e-003
3.112595e+003,3.294924e-003
3.114524e+003,3.299565e-003
3.116452e+003,3.168542e-003
3.118381e+003,3.213736e-003
3.120309e+003,3.177721e-003
3.122238e+003,3.075097e-003
3.124166e+003,3.183128e-003
3.126095e+003,3.193809e-003
3.128023e+003,2.996452e-003
3.129952e+003,2.976401e-003
3.131880e+003,2.946811e-003
3.133809e+003,2.863786e-003
3.135737e+003,2.893038e-003
3.137666e+003,2.959087e-003
3.139594e+003,2.873792e-003
3.141523e+003,2.858483e-003
3.143451e+003,3.013735e-003
3.145380e+003,3.099057e-003
3.147308e+003,2.911884e-003
3.149237e+003,2.763038e-003
3.151165e+003,2.807823e-003
3.153094e+003,2.901277e-003
3.155022e+003,2.957185e-003
3.156951e+003,2.966993e-003
3.158879e+003,2.962790e-003
3.160808e+003,2.978203e-003
3.162736e+003,3.048069e-003
3.164665e+003,3.015704e-003
3.166593e+003,2.824832e-003
3.168522e+003,2.681482e-003
3.170450e+003,2.844742e-003
3.172379e+003,2.893105e-003
3.174307e+003,2.741230e-003
3.176236e+003,2.840973e-003
3.178164e+003,2.943608e-003
3.180093e+003,2.845609e-003
3.182021e+003,2.825498e-003
3.183950e+003,2.956919e-003
3.185878e+003,2.967627e-003
3.187807e+003,2.906314e-003
3.189735e+003,2.904679e-003
3.191664e+003,2.861185e-003
3.193592e+003,2.947945e-003
3.195521e+003,2.998121e-003
3.197449e+003,2.916254e-003
3.199378e+003,2.816227e-003
3.201306e+003,2.843075e-003
3.203235e+003,2.955484e-003
3.205163e+003,2.901977e-003
3.207092e+003,2.748266e-003
3.209020e+003,2.840106e-003
3.210948e+003,2.933467e-003
3.212877e+003,2.896007e-003
3.214806e+003,2.888268e-003
3.216734e+003,2.863019e-003
3.218663e+003,2.999188e-003
3.220591e+003,3.079302e-003
3.222520e+003,3.090881e-003
3.224448e+003,3.157995e-003
3.226376e+003,3.039727e-003
3.228305e+003,3.114175e-003
3.230234e+003,3.407017e-003
3.232162e+003,3.436339e-003
3.234091e+003,3.525218e-003
3.236019e+003,3.526921e-003
3.237948e+003,3.470839e-003
3.239876e+003,3.630888e-003
3.241804e+003,3.956110e-003
3.243733e+003,4.077237e-003
3.245662e+003,4.016335e-003
3.247590e+003,4.112190e-003
3.249519e+003,4.238714e-003
3.251447e+003,4.290779e-003
3.253375e+003,4.247379e-003
3.255304e+003,4.370830e-003
3.257232e+003,4.605880e-003
3.259161e+003,4.734725e-003
3.261090e+003,4.813518e-003
3.263018e+003,4.792144e-003
3.264947e+003,4.795025e-003
3.266875e+003,4.728830e-003
3.268803e+003,4.874230e-003
3.270732e+003,5.062184e-003
3.272660e+003,5.068721e-003
3.274589e+003,5.050719e-003
3.276518e+003,5.067916e-003
3.278446e+003,5.138220e-003
3.280375e+003,5.193880e-003
3.282303e+003,5.171816e-003
3.284231e+003,5.245725e-003
3.286160e+003,5.178623e-003
3.288088e+003,5.151497e-003
3.290017e+003,4.959383e-003
3.291946e+003,4.842767e-003
3.293874e+003,4.876911e-003
3.295802e+003,4.840254e-003
3.297731e+003,4.700560e-003
3.299659e+003,4.621754e-003
3.301588e+003,4.574102e-003
3.303516e+003,4.324913e-003
3.305445e+003,4.137378e-003
3.307374e+003,4.133364e-003
3.309302e+003,3.965138e-003
3.311230e+003,3.800087e-003
3.313159e+003,3.764891e-003
3.315087e+003,3.692404e-003
3.317016e+003,3.639375e-003
3.318944e+003,3.491915e-003
3.320873e+003,3.309047e-003
3.322802e+003,3.104196e-003
3.324730e+003,2.899843e-003
3.326658e+003,2.861485e-003
3.328587e+003,2.825032e-003
3.330515e+003,2.722925e-003
3.332444e+003,2.628043e-003
3.334372e+003,2.540780e-003
3.336301e+003,2.496022e-003
3.338229e+003,2.492656e-003
3.340158e+003,2.328163e-003
3.342086e+003,2.181914e-003
3.344015e+003,2.102799e-003
3.345943e+003,2.095041e-003
3.347872e+003,2.100501e-003
3.349800e+003,2.043438e-003
3.351729e+003,2.019170e-003
3.353657e+003,1.964014e-003
3.355586e+003,1.866070e-003
3.357514e+003,1.769345e-003
3.359443e+003,1.628107e-003
3.361371e+003,1.444226e-003
3.363300e+003,1.410950e-003
3.365229e+003,1.259593e-003
3.367157e+003,1.067398e-003
3.369085e+003,8.847843e-004
3.371014e+003,7.801122e-004
3.372942e+003,7.573752e-004
3.374871e+003,6.313971e-004
3.376799e+003,5.940024e-004
3.378728e+003,5.365727e-004
3.380656e+003,2.310057e-004
3.382585e+003,4.870977e-005
3.384513e+003,1.523107e-004
3.386442e+003,3.144534e-005
3.388370e+003,-2.248556e-004
3.390299e+003,-2.359165e-004
3.392227e+003,-1.949832e-004
3.394156e+003,-3.069115e-004
3.396084e+003,-3.478675e-004
3.398013e+003,-4.502238e-004
3.399941e+003,-6.342523e-004
3.401870e+003,-7.470598e-004
3.403798e+003,-8.226675e-004
3.405727e+003,-7.204650e-004
3.407655e+003,-6.481150e-004
3.409584e+003,-6.634329e-004
3.411512e+003,-7.566190e-004
3.413441e+003,-8.378470e-004
3.415369e+003,-7.800695e-004
3.417298e+003,-8.426421e-004
3.419226e+003,-1.004191e-003
3.421155e+003,-9.707687e-004
3.423083e+003,-9.460722e-004
3.425012e+003,-1.004389e-003
3.426940e+003,-1.092942e-003
3.428869e+003,-1.112408e-003
3.430797e+003,-1.049478e-003
3.432726e+003,-1.087257e-003
3.434654e+003,-1.134088e-003
3.436583e+003,-1.198460e-003
3.438511e+003,-1.239761e-003
3.440440e+003,-1.186796e-003
3.442368e+003,-1.294802e-003
3.444297e+003,-1.394095e-003
3.446225e+003,-1.386465e-003
3.448154e+003,-1.309766e-003
3.450082e+003,-1.321031e-003
3.452011e+003,-1.503073e-003
3.453939e+003,-1.603870e-003
3.455868e+003,-1.579903e-003
3.457796e+003,-1.523049e-003
3.459725e+003,-1.574587e-003
3.461653e+003,-1.508917e-003
3.463582e+003,-1.477086e-003
3.465510e+003,-1.700320e-003
3.467439e+003,-1.770152e-003
3.469367e+003,-1.645463e-003
3.471296e+003,-1.600173e-003
3.473224e+003,-1.571913e-003
3.475153e+003,-1.605620e-003
3.477081e+003,-1.761836e-003
3.479010e+003,-1.870062e-003
3.480938e+003,-1.897115e-003
3.482867e+003,-1.913048e-003
3.484795e+003,-1.692597e-003
3.486724e+003,-1.607171e-003
3.488652e+003,-1.728472e-003
3.490581e+003,-1.702399e-003
3.492509e+003,-1.700122e-003
3.494438e+003,-1.851389e-003
3.496366e+003,-1.892397e-003
3.498295e+003,-1.764509e-003
3.500223e+003,-1.681078e-003
3.502152e+003,-1.611298e-003
3.504080e+003,-1.632721e-003
3.506009e+003,-1.853368e-003
3.507937e+003,-1.975557e-003
3.509866e+003,-1.832879e-003
3.511794e+003,-1.819813e-003
3.513723e+003,-1.897214e-003
3.515651e+003,-1.989740e-003
3.517580e+003,-2.015202e-003
3.519508e+003,-1.948806e-003
3.521437e+003,-2.042608e-003
3.523365e+003,-2.209216e-003
3.525294e+003,-2.242082e-003
3.527222e+003,-2.057514e-003
3.529151e+003,-2.027470e-003
3.531079e+003,-2.152610e-003
3.533008e+003,-2.069187e-003
3.534936e+003,-2.091677e-003
3.536865e+003,-2.185282e-003
3.538793e+003,-2.378958e-003
3.540722e+003,-2.485218e-003
3.542650e+003,-2.429669e-003
3.544579e+003,-2.241621e-003
3.546507e+003,-2.031791e-003
3.548436e+003,-1.993467e-003
3.550364e+003,-2.121815e-003
3.552293e+003,-2.167249e-003
3.554221e+003,-2.162567e-003
3.556150e+003,-2.173414e-003
3.558078e+003,-2.151588e-003
3.560007e+003,-2.316606e-003
3.561935e+003,-2.445913e-003
3.563864e+003,-2.353319e-003
3.565792e+003,-2.033637e-003
3.567721e+003,-1.916182e-003
3.569649e+003,-2.209084e-003
3.571578e+003,-2.251707e-003
3.573506e+003,-2.204832e-003
3.575435e+003,-2.354407e-003
3.577363e+003,-2.566025e-003
3.579292e+003,-2.649253e-003
3.581220e+003,-2.618987e-003
3.583149e+003,-2.501690e-003
3.585077e+003,-2.219831e-003
3.587006e+003,-2.082609e-003
3.588934e+003,-2.305730e-003
3.590863e+003,-2.474214e-003
3.592791e+003,-2.303983e-003
3.594720e+003,-2.191909e-003
3.596648e+003,-2.252894e-003
3.598577e+003,-2.417379e-003
3.600505e+003,-2.531569e-003
3.602434e+003,-2.437676e-003
3.604362e+003,-2.372169e-003
3.606291e+003,-2.447330e-003
3.608219e+003,-2.329393e-003
3.610148e+003,-2.222666e-003
3.612076e+003,-2.290799e-003
3.614005e+003,-2.460739e-003
3.615933e+003,-2.576993e-003
3.617862e+003,-2.366567e-003
3.619790e+003,-2.347420e-003
3.621719e+003,-2.596196e-003
3.623647e+003,-2.749850e-003
3.625576e+003,-2.596854e-003
3.627504e+003,-2.052369e-003
3.629433e+003,-1.539558e-003
3.631361e+003,-2.280911e-003
3.633290e+003,-2.622379e-003
3.635218e+003,-2.700921e-003
3.637146e+003,-2.816156e-003
3.639075e+003,-2.899863e-003
3.641004e+003,-3.017316e-003
3.642932e+003,-3.166348e-003
3.644861e+003,-3.216672e-003
3.646789e+003,-3.004845e-003
3.648718e+003,-2.452898e-003
3.650646e+003,-2.466637e-003
3.652574e+003,-3.250415e-003
3.654503e+003,-3.240812e-003
3.656432e+003,-2.716562e-003
3.658360e+003,-2.941694e-003
3.660289e+003,-3.305234e-003
3.662217e+003,-3.446509e-003
3.664146e+003,-3.474712e-003
3.666074e+003,-3.631080e-003
3.668002e+003,-3.573870e-003
3.669931e+003,-3.134375e-003
3.671860e+003,-3.167993e-003
3.673788e+003,-3.133388e-003
3.675717e+003,-2.814971e-003
3.677645e+003,-3.103287e-003
3.679573e+003,-3.293693e-003
3.681502e+003,-3.390064e-003
3.683430e+003,-3.385132e-003
3.685359e+003,-3.416627e-003
3.687288e+003,-3.047357e-003
3.689216e+003,-2.634236e-003
3.691145e+003,-2.826855e-003
3.693073e+003,-2.980263e-003
3.695001e+003,-3.107498e-003
3.696930e+003,-3.064828e-003
3.698858e+003,-2.918953e-003
3.700787e+003,-2.725880e-003
3.702716e+003,-2.733750e-003
3.704644e+003,-2.988392e-003
3.706573e+003,-2.997573e-003
3.708501e+003,-2.914904e-003
3.710429e+003,-2.670099e-003
3.712358e+003,-2.619547e-003
3.714286e+003,-3.057425e-003
3.716215e+003,-3.125131e-003
3.718144e+003,-2.769539e-003
3.720072e+003,-2.699769e-003
3.722000e+003,-2.608184e-003
3.723929e+003,-2.611544e-003
3.725857e+003,-2.722686e-003
3.727786e+003,-3.039789e-003
3.729714e+003,-3.083350e-003
3.731643e+003,-2.654127e-003
3.733572e+003,-2.226226e-003
3.735500e+003,-2.083103e-003
3.737428e+003,-2.504326e-003
3.739357e+003,-2.911054e-003
3.741285e+003,-2.821818e-003
3.743214e+003,-1.976744e-003
3.745142e+003,-1.432273e-003
3.747071e+003,-1.998282e-003
3.749000e+003,-1.406942e-003
3.750928e+003,-1.202656e-003
3.752856e+003,-1.511064e-003
3.754785e+003,-2.046103e-003
3.756713e+003,-2.200579e-003
3.758642e+003,-2.154357e-003
3.760570e+003,-2.002405e-003
3.762499e+003,-2.186107e-003
3.764427e+003,-2.287833e-003
3.766356e+003,-2.213963e-003
3.768284e+003,-2.224380e-003
3.770213e+003,-2.010057e-003
3.772141e+003,-2.159369e-003
3.774070e+003,-2.277780e-003
3.775998e+003,-2.203414e-003
3.777927e+003,-2.052501e-003
3.779855e+003,-1.909486e-003
3.781784e+003,-2.047620e-003
3.783712e+003,-2.205623e-003
3.785641e+003,-2.375003e-003
3.787569e+003,-2.500043e-003
3.789498e+003,-2.623927e-003
3.791426e+003,-2.549094e-003
3.793355e+003,-2.473424e-003
3.795283e+003,-2.195634e-003
3.797212e+003,-1.975260e-003
3.799140e+003,-1.979218e-003
3.801069e+003,-1.816547e-003
3.802997e+003,-2.272309e-003
3.804926e+003,-2.458301e-003
3.806854e+003,-1.930565e-003
3.808783e+003,-2.154522e-003
3.810711e+003,-2.469470e-003
3.812640e+003,-2.557296e-003
3.814568e+003,-2.436885e-003
3.816497e+003,-1.957746e-003
3.818425e+003,-2.032153e-003
3.820354e+003,-1.853401e-003
3.822282e+003,-1.827072e-003
3.824211e+003,-2.424332e-003
3.826139e+003,-2.422618e-003
3.828068e+003,-2.329591e-003
3.829996e+003,-2.279955e-003
3.831925e+003,-2.251674e-003
3.833853e+003,-2.154720e-003
3.835782e+003,-1.982615e-003
3.837710e+003,-1.776323e-003
3.839639e+003,-1.955271e-003
3.841567e+003,-2.171667e-003
3.843496e+003,-2.172821e-003
3.845424e+003,-2.500208e-003
3.847353e+003,-2.806642e-003
3.849281e+003,-2.600016e-003
3.851210e+003,-1.997886e-003
3.853138e+003,-1.107550e-003
3.855067e+003,-1.287170e-003
3.856995e+003,-2.076772e-003
3.858924e+003,-2.441531e-003
3.860852e+003,-2.365842e-003
3.862781e+003,-2.119375e-003
3.864709e+003,-1.956558e-003
3.866638e+003,-2.233017e-003
3.868566e+003,-2.203975e-003
3.870495e+003,-1.927596e-003
3.872423e+003,-1.987629e-003
3.874352e+003,-1.956855e-003
3.876280e+003,-2.251114e-003
3.878209e+003,-2.340104e-003
3.880137e+003,-2.121947e-003
3.882066e+003,-2.374377e-003
3.883994e+003,-2.421959e-003
3.885923e+003,-1.927596e-003
3.887851e+003,-2.066154e-003
3.889780e+003,-2.000756e-003
3.891708e+003,-1.981395e-003
3.893637e+003,-2.287569e-003
3.895565e+003,-2.573897e-003
3.897494e+003,-2.585491e-003
3.899422e+003,-2.284372e-003
3.901351e+003,-2.283911e-003
3.903279e+003,-2.146906e-003
3.905208e+003,-2.075783e-003
3.907136e+003,-2.470360e-003
3.909065e+003,-2.669309e-003
3.910993e+003,-2.672141e-003
3.912922e+003,-2.536510e-003
3.914850e+003,-2.340302e-003
3.916779e+003,-2.174370e-003
3.918707e+003,-2.288690e-003
3.920636e+003,-2.464792e-003
3.922564e+003,-2.443211e-003
3.924493e+003,-2.300094e-003
3.926421e+003,-2.272374e-003
3.928350e+003,-2.515922e-003
3.930278e+003,-2.781589e-003
3.932207e+003,-2.793737e-003
3.934135e+003,-2.716233e-003
3.936064e+003,-2.686037e-003
3.937992e+003,-2.518887e-003
3.939921e+003,-2.494838e-003
3.941849e+003,-2.515329e-003
3.943778e+003,-2.697003e-003
3.945706e+003,-2.663315e-003
3.947635e+003,-2.239148e-003
3.949563e+003,-2.198733e-003
3.951492e+003,-2.520896e-003
3.953420e+003,-2.680604e-003
3.955349e+003,-2.810757e-003
3.957277e+003,-2.733684e-003
3.959206e+003,-2.623466e-003
3.961134e+003,-2.678529e-003
3.963063e+003,-2.683567e-003
3.964991e+003,-2.538553e-003
3.966920e+003,-2.386372e-003
3.968848e+003,-2.364689e-003
3.970777e+003,-2.521423e-003
3.972705e+003,-2.412997e-003
3.974634e+003,-2.527682e-003
3.976562e+003,-2.655642e-003
3.978491e+003,-2.494739e-003
3.980419e+003,-2.474972e-003
3.982348e+003,-2.405846e-003
3.984276e+003,-2.426276e-003
3.986205e+003,-2.698024e-003
3.988133e+003,-2.554924e-003
3.990062e+003,-2.230182e-003
3.991990e+003,-2.463672e-003
3.993919e+003,-2.695719e-003
3.995847e+003,-2.674676e-003
3.997776e+003,-2.457313e-003
3.999704e+003,-2.321912e-003
4.001633e+003,0.000000e+000
