3.991989e+002,2.813749e-002
4.011274e+002,2.403046e-002
4.030559e+002,1.148581e-002
4.049844e+002,9.895132e-003
4.069129e+002,1.336913e-002
4.088414e+002,1.833637e-002
4.107699e+002,1.580058e-002
4.126984e+002,1.503403e-002
4.146269e+002,1.459838e-002
4.165554e+002,1.521562e-002
4.184839e+002,1.775969e-002
4.204124e+002,1.690045e-002
4.223409e+002,1.597421e-002
4.242694e+002,1.785438e-002
4.261979e+002,1.518433e-002
4.281264e+002,1.215550e-002
4.300549e+002,1.263905e-002
4.319834e+002,7.119297e-003
4.339119e+002,7.758708e-003
4.358404e+002,1.473359e-002
4.377689e+002,1.594936e-002
4.396974e+002,1.251773e-002
4.416259e+002,1.163124e-002
4.435544e+002,1.345726e-002
4.454829e+002,1.590825e-002
4.474114e+002,1.915909e-002
4.493399e+002,1.572262e-002
4.512684e+002,8.236201e-003
4.531969e+002,8.342956e-003
4.551254e+002,1.460630e-002
4.570539e+002,1.390589e-002
4.589824e+002,9.843916e-003
4.609109e+002,1.165503e-002
4.628394e+002,1.110027e-002
4.647679e+002,9.392890e-003
4.666964e+002,1.117900e-002
4.686249e+002,9.721814e-003
4.705533e+002,9.231483e-003
4.724819e+002,1.024208e-002
4.744103e+002,9.597613e-003
4.763389e+002,9.812192e-003
4.782673e+002,9.901471e-003
4.801959e+002,9.427122e-003
4.821243e+002,1.199467e-002
4.840529e+002,1.386846e-002
4.859813e+002,1.377929e-002
4.879099e+002,1.174680e-002
4.898383e+002,1.029877e-002
4.917668e+002,9.975308e-003
4.936953e+002,1.158455e-002
4.956238e+002,1.196439e-002
4.975523e+002,1.040949e-002
4.994808e+002,1.068312e-002
5.014093e+002,1.187162e-002
5.033378e+002,9.697893e-003
5.052663e+002,5.078744e-003
5.071948e+002,6.394197e-003
5.091233e+002,8.758237e-003
5.110518e+002,8.082582e-003
5.129803e+002,8.801143e-003
5.149088e+002,8.526369e-003
5.168373e+002,8.098043e-003
5.187658e+002,9.009544e-003
5.206943e+002,9.514696e-003
5.226228e+002,7.697085e-003
5.245513e+002,7.946363e-003
5.264798e+002,9.282390e-003
5.284083e+002,9.477545e-003
5.303368e+002,8.239240e-003
5.322653e+002,7.811096e-003
5.341938e+002,8.033671e-003
5.361223e+002,7.772201e-003
5.380508e+002,7.617127e-003
5.399792e+002,9.434470e-003
5.419078e+002,8.932760e-003
5.438363e+002,8.547894e-003
5.457648e+002,9.128333e-003
5.476932e+002,9.408363e-003
5.496218e+002,9.279987e-003
5.515503e+002,9.400000e-003
5.534788e+002,8.916019e-003
5.554072e+002,9.953949e-003
5.573358e+002,1.135624e-002
5.592643e+002,1.115480e-002
5.611927e+002,1.017244e-002
5.631212e+002,1.000772e-002
5.650497e+002,1.051821e-002
5.669783e+002,1.098081e-002
5.689067e+002,1.215762e-002
5.708352e+002,1.154668e-002
5.727637e+002,9.503587e-003
5.746923e+002,7.876919e-003
5.766207e+002,9.172358e-003
5.785492e+002,1.349844e-002
5.804777e+002,1.587189e-002
5.824063e+002,1.117581e-002
5.843347e+002,1.010352e-002
5.862632e+002,1.246535e-002
5.881917e+002,1.151663e-002
5.901202e+002,1.048396e-002
5.920487e+002,9.401490e-003
5.939772e+002,1.085618e-002
5.959057e+002,1.260160e-002
5.978342e+002,1.367061e-002
5.997627e+002,1.498148e-002
6.016912e+002,1.670823e-002
6.036197e+002,1.819718e-002
6.055482e+002,1.961716e-002
6.074767e+002,2.029199e-002
6.094052e+002,2.016268e-002
6.113337e+002,2.040946e-002
6.132622e+002,2.090281e-002
6.151907e+002,2.100469e-002
6.171192e+002,2.147056e-002
6.190477e+002,2.128918e-002
6.209762e+002,2.011745e-002
6.229047e+002,1.705815e-002
6.248332e+002,1.355973e-002
6.267617e+002,1.065959e-002
6.286902e+002,8.336065e-003
6.306187e+002,7.477244e-003
6.325472e+002,7.598885e-003
6.344756e+002,7.643093e-003
6.364042e+002,7.089489e-003
6.383326e+002,6.439997e-003
6.402612e+002,6.382529e-003
6.421896e+002,6.571708e-003
6.441182e+002,6.073427e-003
6.460466e+002,5.669802e-003
6.479752e+002,5.832712e-003
6.499036e+002,5.583705e-003
6.518322e+002,5.054675e-003
6.537606e+002,4.765578e-003
6.556891e+002,4.502451e-003
6.576177e+002,4.399213e-003
6.595461e+002,4.506167e-003
6.614746e+002,4.037571e-003
6.634031e+002,3.539682e-003
6.653317e+002,4.659664e-003
6.672601e+002,9.276432e-003
6.691886e+002,8.267100e-003
6.711171e+002,4.777336e-003
6.730457e+002,4.601460e-003
6.749741e+002,4.545340e-003
6.769026e+002,4.759648e-003
6.788311e+002,5.020517e-003
6.807596e+002,5.091014e-003
6.826881e+002,5.175438e-003
6.846166e+002,5.325818e-003
6.865451e+002,5.475780e-003
6.884736e+002,5.324443e-003
6.904021e+002,5.143953e-003
6.923306e+002,5.356444e-003
6.942591e+002,5.497088e-003
6.961876e+002,5.543297e-003
6.981161e+002,5.263164e-003
7.000446e+002,5.165714e-003
7.019731e+002,4.737673e-003
7.039016e+002,4.777906e-003
7.058301e+002,5.196328e-003
7.077585e+002,5.572697e-003
7.096871e+002,6.222707e-003
7.116156e+002,6.639766e-003
7.135441e+002,6.254169e-003
7.154725e+002,6.262170e-003
7.174011e+002,6.781062e-003
7.193296e+002,7.257245e-003
7.212581e+002,7.818147e-003
7.231865e+002,8.124442e-003
7.251151e+002,7.670409e-003
7.270436e+002,7.825164e-003
7.289720e+002,8.174713e-003
7.309005e+002,8.687750e-003
7.328290e+002,9.352261e-003
7.347576e+002,9.381852e-003
7.366860e+002,9.160412e-003
7.386145e+002,8.944971e-003
7.405430e+002,9.030011e-003
7.424716e+002,9.111347e-003
7.444000e+002,9.032413e-003
7.463285e+002,8.885141e-003
7.482570e+002,8.797524e-003
7.501855e+002,9.128029e-003
7.521140e+002,9.691285e-003
7.540425e+002,1.011993e-002
7.559710e+002,1.010416e-002
7.578995e+002,1.032812e-002
7.598280e+002,1.059531e-002
7.617565e+002,1.080362e-002
7.636850e+002,1.070288e-002
7.656135e+002,1.106169e-002
7.675420e+002,1.121661e-002
7.694705e+002,1.043634e-002
7.713990e+002,1.000528e-002
7.733275e+002,1.007323e-002
7.752560e+002,1.025276e-002
7.771844e+002,1.057494e-002
7.791130e+002,1.016436e-002
7.810415e+002,9.437314e-003
7.829700e+002,8.838608e-003
7.848984e+002,8.811252e-003
7.868270e+002,8.996352e-003
7.887555e+002,8.826841e-003
7.906840e+002,8.407441e-003
7.926124e+002,7.930738e-003
7.945410e+002,7.528284e-003
7.964695e+002,7.124921e-003
7.983979e+002,7.009845e-003
8.003264e+002,7.063961e-003
8.022549e+002,7.250675e-003
8.041835e+002,7.557750e-003
8.061119e+002,7.584083e-003
8.080404e+002,7.678907e-003
8.099689e+002,7.812007e-003
8.118975e+002,8.500756e-003
8.138259e+002,9.215135e-003
8.157545e+002,9.088744e-003
8.176830e+002,8.769969e-003
8.196115e+002,8.537115e-003
8.215399e+002,8.328602e-003
8.234684e+002,8.345186e-003
8.253970e+002,8.378829e-003
8.273254e+002,8.187375e-003
8.292539e+002,7.631088e-003
8.311824e+002,7.501347e-003
8.331110e+002,7.896489e-003
8.350394e+002,8.053215e-003
8.369679e+002,7.939579e-003
8.388964e+002,7.655435e-003
8.408250e+002,7.883060e-003
8.427534e+002,8.100035e-003
8.446819e+002,7.868315e-003
8.466104e+002,7.460794e-003
8.485389e+002,7.459851e-003
8.504674e+002,7.491739e-003
8.523959e+002,7.374342e-003
8.543244e+002,7.511090e-003
8.562529e+002,7.655166e-003
8.581814e+002,7.552895e-003
8.601099e+002,7.301755e-003
8.620384e+002,6.896482e-003
8.639669e+002,7.055306e-003
8.658954e+002,7.191988e-003
8.678239e+002,6.869585e-003
8.697524e+002,7.166453e-003
8.716809e+002,7.495346e-003
8.736094e+002,7.291410e-003
8.755378e+002,6.893957e-003
8.774664e+002,6.945231e-003
8.793949e+002,7.043283e-003
8.813234e+002,7.098549e-003
8.832518e+002,7.388597e-003
8.851804e+002,7.448693e-003
8.871089e+002,7.410707e-003
8.890374e+002,7.259839e-003
8.909658e+002,7.532936e-003
8.928943e+002,7.802831e-003
8.948229e+002,7.750005e-003
8.967513e+002,7.569585e-003
8.986798e+002,7.348527e-003
9.006083e+002,7.317289e-003
9.025369e+002,7.648185e-003
9.044653e+002,7.693443e-003
9.063938e+002,7.421189e-003
9.083223e+002,6.834174e-003
9.102509e+002,6.244959e-003
9.121793e+002,6.491621e-003
9.141078e+002,6.528585e-003
9.160364e+002,6.305804e-003
9.179648e+002,6.142986e-003
9.198933e+002,6.121781e-003
9.218218e+002,5.961249e-003
9.237504e+002,5.334942e-003
9.256788e+002,4.913135e-003
9.276073e+002,4.772177e-003
9.295358e+002,4.873895e-003
9.314644e+002,4.755963e-003
9.333928e+002,4.775661e-003
9.353213e+002,4.797102e-003
9.372498e+002,4.902411e-003
9.391783e+002,4.537371e-003
9.411068e+002,4.362831e-003
9.430353e+002,4.584483e-003
9.449637e+002,4.656985e-003
9.468923e+002,4.889309e-003
9.488208e+002,5.052865e-003
9.507493e+002,5.081024e-003
9.526777e+002,5.141841e-003
9.546063e+002,5.382542e-003
9.565348e+002,5.462292e-003
9.584633e+002,5.339437e-003
9.603917e+002,5.326321e-003
9.623203e+002,5.435886e-003
9.642488e+002,5.455313e-003
9.661772e+002,5.382140e-003
9.681057e+002,5.369459e-003
9.700343e+002,5.073917e-003
9.719628e+002,4.934784e-003
9.738912e+002,5.029903e-003
9.758197e+002,4.764372e-003
9.777483e+002,4.620214e-003
9.796768e+002,4.523141e-003
9.816052e+002,4.425455e-003
9.835337e+002,4.304566e-003
9.854623e+002,3.992893e-003
9.873907e+002,3.618425e-003
9.893192e+002,3.380535e-003
9.912477e+002,3.178321e-003
9.931763e+002,3.241743e-003
9.951047e+002,3.122885e-003
9.970332e+002,2.805389e-003
9.989617e+002,2.898342e-003
1.000890e+003,3.072828e-003
1.002819e+003,3.208596e-003
1.004747e+003,3.042363e-003
1.006676e+003,2.897941e-003
1.008604e+003,3.072127e-003
1.010533e+003,3.273257e-003
1.012461e+003,3.454073e-003
1.014390e+003,3.539415e-003
1.016318e+003,3.760312e-003
1.018247e+003,3.950393e-003
1.020175e+003,3.990786e-003
1.022104e+003,4.192844e-003
1.024032e+003,4.635518e-003
1.025961e+003,4.998127e-003
1.027889e+003,5.302909e-003
1.029818e+003,5.561520e-003
1.031746e+003,5.879359e-003
1.033675e+003,6.257127e-003
1.035603e+003,6.486307e-003
1.037532e+003,6.771336e-003
1.039460e+003,7.012707e-003
1.041389e+003,7.202195e-003
1.043317e+003,7.469255e-003
1.045246e+003,7.763430e-003
1.047174e+003,8.023478e-003
1.049103e+003,8.160871e-003
1.051031e+003,8.088726e-003
1.052960e+003,8.004409e-003
1.054888e+003,8.004443e-003
1.056817e+003,8.017201e-003
1.058745e+003,8.014940e-003
1.060674e+003,8.090953e-003
1.062602e+003,7.994182e-003
1.064531e+003,7.988479e-003
1.066459e+003,8.103613e-003
1.068388e+003,8.179407e-003
1.070316e+003,8.132679e-003
1.072245e+003,8.146657e-003
1.074173e+003,7.967825e-003
1.076102e+003,7.891495e-003
1.078030e+003,8.015580e-003
1.079959e+003,7.963877e-003
1.081887e+003,7.953246e-003
1.083816e+003,8.144563e-003
1.085744e+003,8.378626e-003
1.087673e+003,8.427170e-003
1.089601e+003,8.591455e-003
1.091530e+003,8.887711e-003
1.093458e+003,8.989654e-003
1.095387e+003,9.028996e-003
1.097315e+003,9.183018e-003
1.099244e+003,9.297893e-003
1.101172e+003,9.399627e-003
1.103101e+003,9.362147e-003
1.105029e+003,9.417370e-003
1.106958e+003,9.523637e-003
1.108886e+003,9.647716e-003
1.110815e+003,9.664282e-003
1.112743e+003,9.548294e-003
1.114672e+003,9.421535e-003
1.116600e+003,9.651341e-003
1.118529e+003,9.869946e-003
1.120457e+003,9.795315e-003
1.122386e+003,9.870285e-003
1.124314e+003,9.734215e-003
1.126243e+003,9.399560e-003
1.128171e+003,9.261505e-003
1.130100e+003,9.315699e-003
1.132028e+003,9.093075e-003
1.133957e+003,8.795056e-003
1.135885e+003,8.664021e-003
1.137814e+003,8.409839e-003
1.139742e+003,7.877459e-003
1.141671e+003,7.600605e-003
1.143599e+003,7.390047e-003
1.145528e+003,6.928801e-003
1.147456e+003,6.510119e-003
1.149385e+003,6.394197e-003
1.151313e+003,6.166343e-003
1.153242e+003,5.897899e-003
1.155170e+003,5.821999e-003
1.157099e+003,5.700385e-003
1.159027e+003,5.518598e-003
1.160956e+003,5.429981e-003
1.162884e+003,5.444610e-003
1.164813e+003,5.264707e-003
1.166741e+003,5.130106e-003
1.168670e+003,5.118606e-003
1.170598e+003,5.028361e-003
1.172526e+003,4.915749e-003
1.174455e+003,4.854695e-003
1.176384e+003,4.923725e-003
1.178312e+003,5.053066e-003
1.180240e+003,4.971716e-003
1.182169e+003,4.751240e-003
1.184098e+003,4.600322e-003
1.186026e+003,4.533152e-003
1.187954e+003,4.424719e-003
1.189883e+003,4.144938e-003
1.191812e+003,3.920067e-003
1.193740e+003,3.891748e-003
1.195668e+003,3.588055e-003
1.197597e+003,3.293722e-003
1.199526e+003,3.336459e-003
1.201454e+003,3.397433e-003
1.203382e+003,3.339865e-003
1.205311e+003,3.230527e-003
1.207240e+003,3.136635e-003
1.209168e+003,3.068423e-003
1.211096e+003,3.009331e-003
1.213025e+003,3.123319e-003
1.214953e+003,3.214638e-003
1.216882e+003,3.049237e-003
1.218810e+003,2.979271e-003
1.220739e+003,3.009231e-003
1.222667e+003,3.110504e-003
1.224596e+003,3.352086e-003
1.226524e+003,3.478054e-003
1.228453e+003,3.646826e-003
1.230381e+003,3.820343e-003
1.232310e+003,3.948420e-003
1.234238e+003,4.047236e-003
1.236167e+003,4.156446e-003
1.238095e+003,4.306775e-003
1.240024e+003,4.457725e-003
1.241952e+003,4.532583e-003
1.243881e+003,4.442025e-003
1.245809e+003,4.420869e-003
1.247738e+003,4.498600e-003
1.249666e+003,4.735061e-003
1.251595e+003,4.761725e-003
1.253523e+003,4.623395e-003
1.255452e+003,4.658358e-003
1.257380e+003,4.673765e-003
1.259309e+003,4.622491e-003
1.261237e+003,4.740587e-003
1.263166e+003,4.948256e-003
1.265094e+003,5.148412e-003
1.267023e+003,5.456588e-003
1.268951e+003,5.826902e-003
1.270880e+003,6.133442e-003
1.272808e+003,6.108239e-003
1.274737e+003,6.138752e-003
1.276665e+003,6.502821e-003
1.278594e+003,6.805093e-003
1.280522e+003,7.026143e-003
1.282451e+003,7.172988e-003
1.284379e+003,7.353953e-003
1.286308e+003,7.618813e-003
1.288236e+003,7.943359e-003
1.290165e+003,8.220905e-003
1.292093e+003,8.378491e-003
1.294022e+003,8.471969e-003
1.295950e+003,8.736464e-003
1.297879e+003,8.897857e-003
1.299807e+003,8.889875e-003
1.301736e+003,8.861806e-003
1.303664e+003,8.674229e-003
1.305593e+003,8.538804e-003
1.307521e+003,8.532755e-003
1.309450e+003,8.417643e-003
1.311378e+003,8.113910e-003
1.313307e+003,7.808600e-003
1.315235e+003,7.555221e-003
1.317164e+003,7.422301e-003
1.319092e+003,7.087536e-003
1.321021e+003,6.806237e-003
1.322949e+003,6.720991e-003
1.324878e+003,6.643433e-003
1.326806e+003,6.447900e-003
1.328735e+003,6.413666e-003
1.330663e+003,6.542914e-003
1.332592e+003,6.590614e-003
1.334520e+003,6.511801e-003
1.336449e+003,6.555898e-003
1.338377e+003,6.795904e-003
1.340306e+003,6.881838e-003
1.342234e+003,6.857399e-003
1.344163e+003,6.930518e-003
1.346091e+003,6.986038e-003
1.348020e+003,7.144592e-003
1.349948e+003,7.220758e-003
1.351877e+003,7.206507e-003
1.353805e+003,7.336665e-003
1.355734e+003,7.251113e-003
1.357662e+003,6.947588e-003
1.359591e+003,6.733846e-003
1.361519e+003,6.570161e-003
1.363448e+003,6.395609e-003
1.365376e+003,5.974686e-003
1.367305e+003,5.792147e-003
1.369233e+003,5.809641e-003
1.371162e+003,5.745038e-003
1.373090e+003,5.899344e-003
1.375019e+003,5.917481e-003
1.376947e+003,5.785095e-003
1.378876e+003,5.832779e-003
1.380804e+003,5.842887e-003
1.382733e+003,5.797653e-003
1.384661e+003,5.912073e-003
1.386590e+003,6.146952e-003
1.388518e+003,6.051151e-003
1.390447e+003,5.721838e-003
1.392375e+003,5.547962e-003
1.394304e+003,5.444408e-003
1.396232e+003,5.207160e-003
1.398161e+003,5.203102e-003
1.400089e+003,5.100200e-003
1.402018e+003,4.832347e-003
1.403946e+003,4.698818e-003
1.405875e+003,4.583913e-003
1.407803e+003,4.290277e-003
1.409732e+003,4.098811e-003
1.411660e+003,4.088676e-003
1.413589e+003,4.132093e-003
1.415517e+003,4.316212e-003
1.417446e+003,4.676712e-003
1.419374e+003,5.138421e-003
1.421303e+003,5.309281e-003
1.423231e+003,5.812193e-003
1.425160e+003,6.363296e-003
1.427088e+003,6.681386e-003
1.429017e+003,7.098819e-003
1.430945e+003,7.386710e-003
1.432874e+003,7.736109e-003
1.434802e+003,8.368424e-003
1.436731e+003,8.965028e-003
1.438659e+003,8.962356e-003
1.440588e+003,9.122141e-003
1.442516e+003,9.661810e-003
1.444445e+003,1.010240e-002
1.446373e+003,1.038435e-002
1.448302e+003,1.070781e-002
1.450230e+003,1.111241e-002
1.452159e+003,1.147475e-002
1.454087e+003,1.203789e-002
1.456016e+003,1.305641e-002
1.457944e+003,1.325102e-002
1.459873e+003,1.262408e-002
1.461801e+003,1.223913e-002
1.463730e+003,1.228603e-002
1.465658e+003,1.227676e-002
1.467587e+003,1.184400e-002
1.469515e+003,1.156805e-002
1.471444e+003,1.159289e-002
1.473372e+003,1.120069e-002
1.475301e+003,1.050249e-002
1.477229e+003,9.739265e-003
1.479158e+003,9.138247e-003
1.481086e+003,8.774161e-003
1.483015e+003,8.157426e-003
1.484943e+003,7.661101e-003
1.486872e+003,7.432716e-003
1.488800e+003,7.271935e-003
1.490729e+003,7.028231e-003
1.492657e+003,6.441645e-003
1.494586e+003,6.073259e-003
1.496514e+003,6.128872e-003
1.498443e+003,6.019065e-003
1.500371e+003,5.642377e-003
1.502300e+003,5.304284e-003
1.504228e+003,5.485377e-003
1.506157e+003,6.188323e-003
1.508085e+003,5.863306e-003
1.510014e+003,5.067614e-003
1.511942e+003,4.784639e-003
1.513871e+003,4.835430e-003
1.515799e+003,5.121288e-003
1.517728e+003,5.179361e-003
1.519656e+003,5.352217e-003
1.521585e+003,5.759609e-003
1.523513e+003,5.608878e-003
1.525442e+003,5.596425e-003
1.527370e+003,5.552560e-003
1.529299e+003,5.567427e-003
1.531227e+003,5.731171e-003
1.533156e+003,6.262371e-003
1.535084e+003,6.354386e-003
1.537013e+003,6.543654e-003
1.538941e+003,7.437806e-003
1.540870e+003,7.799087e-003
1.542798e+003,7.640968e-003
1.544727e+003,7.568438e-003
1.546655e+003,7.328139e-003
1.548584e+003,7.368140e-003
1.550512e+003,7.618780e-003
1.552441e+003,7.871284e-003
1.554369e+003,8.138183e-003
1.556298e+003,8.549246e-003
1.558226e+003,9.574578e-003
1.560155e+003,9.676039e-003
1.562083e+003,9.193678e-003
1.564012e+003,9.249963e-003
1.565940e+003,9.362892e-003
1.567869e+003,9.787045e-003
1.569797e+003,1.020826e-002
1.571726e+003,9.793621e-003
1.573654e+003,9.638162e-003
1.575583e+003,1.014601e-002
1.577511e+003,1.006330e-002
1.579440e+003,9.550360e-003
1.581368e+003,9.326972e-003
1.583297e+003,9.121938e-003
1.585225e+003,9.062489e-003
1.587154e+003,8.976122e-003
1.589082e+003,8.732948e-003
1.591010e+003,8.493728e-003
1.592939e+003,8.288174e-003
1.594868e+003,8.255855e-003
1.596796e+003,8.109825e-003
1.598724e+003,7.837984e-003
1.600653e+003,7.722246e-003
1.602582e+003,7.649905e-003
1.604510e+003,7.415055e-003
1.606438e+003,7.103669e-003
1.608367e+003,6.983614e-003
1.610296e+003,6.781432e-003
1.612224e+003,6.474065e-003
1.614152e+003,6.398064e-003
1.616081e+003,6.671157e-003
1.618010e+003,6.414305e-003
1.619938e+003,5.913719e-003
1.621866e+003,5.946603e-003
1.623795e+003,5.884834e-003
1.625724e+003,5.634320e-003
1.627652e+003,5.486384e-003
1.629580e+003,5.360201e-003
1.631509e+003,5.202934e-003
1.633438e+003,5.452159e-003
1.635366e+003,5.801481e-003
1.637294e+003,5.328669e-003
1.639223e+003,4.692487e-003
1.641151e+003,4.308347e-003
1.643080e+003,4.002423e-003
1.645008e+003,4.165947e-003
1.646937e+003,4.275553e-003
1.648865e+003,3.653274e-003
1.650794e+003,3.617924e-003
1.652722e+003,4.552806e-003
1.654651e+003,3.943605e-003
1.656579e+003,2.968661e-003
1.658508e+003,2.656645e-003
1.660436e+003,2.648344e-003
1.662365e+003,2.848177e-003
1.664293e+003,2.728460e-003
1.666222e+003,2.430877e-003
1.668150e+003,2.550212e-003
1.670079e+003,2.686850e-003
1.672007e+003,2.394026e-003
1.673936e+003,2.322933e-003
1.675864e+003,2.156107e-003
1.677793e+003,1.582179e-003
1.679721e+003,1.361755e-003
1.681650e+003,1.345003e-003
1.683578e+003,1.791537e-003
1.685507e+003,1.426940e-003
1.687435e+003,6.609967e-004
1.689364e+003,2.650538e-004
1.691292e+003,6.464932e-005
1.693221e+003,2.138003e-004
1.695149e+003,7.392197e-004
1.697078e+003,7.377925e-004
1.699006e+003,9.499307e-004
1.700935e+003,1.117357e-003
1.702863e+003,4.269099e-004
1.704792e+003,3.340201e-004
1.706720e+003,1.890046e-004
1.708649e+003,-2.100647e-005
1.710577e+003,-1.103555e-004
1.712506e+003,2.110690e-005
1.714434e+003,2.786141e-004
1.716363e+003,5.693840e-004
1.718291e+003,5.148104e-004
1.720220e+003,7.306670e-005
1.722148e+003,-1.864384e-004
1.724077e+003,-3.505491e-004
1.726005e+003,-3.611765e-004
1.727934e+003,-2.730049e-004
1.729862e+003,-3.241287e-004
1.731791e+003,-9.561431e-005
1.733719e+003,4.012729e-004
1.735648e+003,-7.554495e-006
1.737576e+003,-3.296580e-004
1.739505e+003,-1.177755e-004
1.741433e+003,-3.317769e-004
1.743362e+003,-4.766697e-004
1.745290e+003,-3.622028e-004
1.747219e+003,-2.007128e-004
1.749147e+003,-5.135472e-005
1.751076e+003,1.365006e-004
1.753004e+003,-5.990221e-005
1.754933e+003,-1.426186e-004
1.756861e+003,-4.078609e-005
1.758790e+003,-1.198293e-004
1.760718e+003,-5.354131e-005
1.762647e+003,-4.711405e-005
1.764575e+003,-2.838659e-004
1.766504e+003,-2.447584e-004
1.768432e+003,-6.145929e-005
1.770361e+003,6.965334e-005
1.772289e+003,1.956674e-004
1.774218e+003,5.367748e-006
1.776146e+003,-2.166095e-004
1.778075e+003,-3.416101e-004
1.780003e+003,-4.046762e-004
1.781932e+003,-4.712416e-004
1.783860e+003,-4.424784e-004
1.785789e+003,-2.986669e-004
1.787717e+003,-3.212813e-004
1.789646e+003,-3.577996e-004
1.791574e+003,-7.143112e-005
1.793503e+003,-2.292815e-005
1.795431e+003,-2.036603e-004
1.797360e+003,-2.253193e-004
1.799288e+003,-2.041240e-004
1.801217e+003,-2.399567e-004
1.803145e+003,-3.764383e-004
1.805074e+003,-2.841308e-004
1.807002e+003,-1.753762e-004
1.808931e+003,-2.542293e-004
1.810859e+003,-2.841308e-004
1.812788e+003,-2.692300e-004
1.814716e+003,-3.479668e-004
1.816645e+003,-3.583624e-004
1.818573e+003,-3.282012e-004
1.820502e+003,-2.816143e-004
1.822430e+003,-2.291277e-004
1.824359e+003,-1.326153e-004
1.826287e+003,-8.438420e-005
1.828216e+003,-4.771276e-006
1.830144e+003,4.181717e-005
1.832073e+003,-2.499244e-004
1.834001e+003,-2.899917e-004
1.835930e+003,-2.341945e-004
1.837858e+003,-3.223077e-004
1.839787e+003,-4.335413e-004
1.841715e+003,-4.313566e-004
1.843644e+003,-1.354640e-004
1.845572e+003,-2.066741e-004
1.847501e+003,-4.577705e-004
1.849429e+003,-5.289940e-004
1.851358e+003,-4.665417e-004
1.853286e+003,-3.927258e-004
1.855215e+003,-3.660431e-004
1.857143e+003,-3.860387e-004
1.859072e+003,-4.118596e-004
1.861000e+003,-4.186455e-004
1.862929e+003,-3.920968e-004
1.864857e+003,-3.633284e-004
1.866786e+003,-3.531315e-004
1.868714e+003,-2.718791e-004
1.870643e+003,-3.305519e-004
1.872571e+003,-4.071590e-004
1.874500e+003,-3.556808e-004
1.876428e+003,-3.666059e-004
1.878357e+003,-3.443912e-004
1.880285e+003,-2.545273e-004
1.882214e+003,-2.375061e-004
1.884142e+003,-1.982289e-004
1.886071e+003,-2.102840e-004
1.887999e+003,-2.285647e-004
1.889928e+003,-2.507192e-004
1.891856e+003,-3.268106e-004
1.893785e+003,-2.464142e-004
1.895713e+003,-2.133970e-004
1.897642e+003,-2.497257e-004
1.899570e+003,-1.912407e-004
1.901499e+003,-1.886574e-004
1.903427e+003,-2.548585e-004
1.905356e+003,-2.301543e-004
1.907284e+003,-2.010771e-004
1.909213e+003,-2.788990e-004
1.911141e+003,-3.365445e-004
1.913070e+003,-3.585942e-004
1.914998e+003,-3.060838e-004
1.916927e+003,-1.674603e-004
1.918855e+003,-1.239699e-004
1.920784e+003,-2.075020e-004
1.922712e+003,-2.611502e-004
1.924641e+003,-3.445567e-004
1.926569e+003,-2.774090e-004
1.928498e+003,-3.136661e-004
1.930426e+003,-2.771440e-004
1.932355e+003,-3.036336e-004
1.934283e+003,-4.135147e-004
1.936212e+003,-4.260935e-004
1.938140e+003,-3.859063e-004
1.940069e+003,-2.809851e-004
1.941997e+003,-8.733255e-005
1.943926e+003,-1.099911e-004
1.945854e+003,-2.398573e-004
1.947783e+003,-3.194603e-004
1.949711e+003,-3.188974e-004
1.951640e+003,-2.808858e-004
1.953568e+003,-2.797931e-004
1.955497e+003,-2.516464e-004
1.957425e+003,-2.597263e-004
1.959354e+003,-2.400891e-004
1.961282e+003,-2.280017e-004
1.963211e+003,-2.754553e-004
1.965139e+003,-2.819454e-004
1.967068e+003,-2.883692e-004
1.968996e+003,-4.047093e-004
1.970925e+003,-3.530984e-004
1.972853e+003,-2.754553e-004
1.974782e+003,-3.354520e-004
1.976710e+003,-3.451857e-004
1.978639e+003,-2.853891e-004
1.980567e+003,-3.334986e-004
1.982496e+003,-4.104692e-004
1.984424e+003,-3.774646e-004
1.986353e+003,-3.627656e-004
1.988281e+003,-3.826952e-004
1.990210e+003,-3.640236e-004
1.992138e+003,-2.895612e-004
1.994067e+003,-2.708857e-004
1.995995e+003,-3.208840e-004
1.997924e+003,-3.849463e-004
1.999852e+003,-3.639243e-004
2.001781e+003,-3.644209e-004
2.003709e+003,-3.729622e-004
2.005638e+003,-3.468742e-004
2.007566e+003,-3.779611e-004
2.009495e+003,-3.668708e-004
2.011423e+003,-3.207516e-004
2.013352e+003,-2.630709e-004
2.015280e+003,-2.542956e-004
2.017208e+003,-2.294920e-004
2.019137e+003,-2.054487e-004
2.021066e+003,-2.060448e-004
2.022994e+003,-1.910420e-004
2.024922e+003,-2.492621e-004
2.026851e+003,-2.835679e-004
2.028780e+003,-2.037928e-004
2.030708e+003,-1.569607e-004
2.032636e+003,-1.528536e-004
2.034565e+003,-1.824639e-004
2.036494e+003,-1.935259e-004
2.038422e+003,-1.389419e-004
2.040350e+003,-1.211874e-004
2.042279e+003,-9.246726e-005
2.044208e+003,-1.391407e-004
2.046136e+003,-1.926648e-004
2.048064e+003,-1.703087e-004
2.049993e+003,-1.427511e-004
2.051921e+003,-1.905783e-004
2.053850e+003,-1.120780e-004
2.055778e+003,-9.561431e-005
2.057707e+003,-1.562320e-004
2.059635e+003,-2.122048e-004
2.061564e+003,-1.834907e-004
2.063492e+003,-2.380360e-004
2.065421e+003,-2.507192e-004
2.067349e+003,-1.261892e-004
2.069278e+003,-1.676921e-004
2.071206e+003,-1.671291e-004
2.073135e+003,-5.317688e-005
2.075063e+003,-1.703056e-005
2.076992e+003,2.620982e-005
2.078920e+003,5.195728e-005
2.080849e+003,2.634236e-005
2.082777e+003,-6.626757e-006
2.084706e+003,1.626912e-005
2.086634e+003,1.945012e-005
2.088563e+003,-1.027154e-006
2.090491e+003,4.122070e-005
2.092420e+003,8.923913e-005
2.094348e+003,1.839992e-004
2.096277e+003,1.379258e-004
2.098205e+003,4.794760e-005
2.100134e+003,1.251653e-004
2.102062e+003,2.449296e-004
2.103991e+003,2.070708e-004
2.105919e+003,2.175132e-004
2.107848e+003,3.285488e-004
2.109776e+003,3.192312e-004
2.111705e+003,2.240439e-004
2.113633e+003,2.243754e-004
2.115562e+003,2.896218e-004
2.117490e+003,3.209886e-004
2.119419e+003,3.361092e-004
2.121347e+003,3.825684e-004
2.123276e+003,3.060676e-004
2.125204e+003,2.732430e-004
2.127133e+003,3.294441e-004
2.129061e+003,4.700618e-004
2.130990e+003,5.755550e-004
2.132918e+003,4.377887e-004
2.134847e+003,2.839190e-004
2.136775e+003,3.052055e-004
2.138704e+003,4.070767e-004
2.140632e+003,4.191821e-004
2.142561e+003,3.641963e-004
2.144489e+003,3.197618e-004
2.146418e+003,4.077069e-004
2.148346e+003,5.193219e-004
2.150275e+003,5.336532e-004
2.152203e+003,5.711092e-004
2.154132e+003,5.392930e-004
2.156060e+003,4.458153e-004
2.157989e+003,4.914238e-004
2.159917e+003,5.479850e-004
2.161846e+003,5.494447e-004
2.163774e+003,5.817261e-004
2.165703e+003,6.419160e-004
2.167631e+003,6.237985e-004
2.169560e+003,6.682973e-004
2.171488e+003,7.029439e-004
2.173417e+003,6.442057e-004
2.175345e+003,6.147731e-004
2.177274e+003,6.726115e-004
2.179202e+003,7.073248e-004
2.181131e+003,6.413519e-004
2.183059e+003,6.553886e-004
2.184988e+003,7.053335e-004
2.186916e+003,6.868482e-004
2.188845e+003,6.036245e-004
2.190773e+003,5.412172e-004
2.192702e+003,5.512030e-004
2.194630e+003,6.137445e-004
2.196559e+003,6.567159e-004
2.198487e+003,6.569482e-004
2.200416e+003,6.166977e-004
2.202344e+003,6.295721e-004
2.204273e+003,6.018328e-004
2.206201e+003,5.003802e-004
2.208130e+003,5.429754e-004
2.210058e+003,5.603929e-004
2.211987e+003,5.347480e-004
2.213915e+003,5.524306e-004
2.215844e+003,5.808635e-004
2.217772e+003,5.911157e-004
2.219701e+003,5.302362e-004
2.221629e+003,4.850549e-004
2.223558e+003,5.210138e-004
2.225486e+003,5.317291e-004
2.227415e+003,4.620680e-004
2.229343e+003,4.992192e-004
2.231272e+003,5.456627e-004
2.233200e+003,5.587341e-004
2.235129e+003,6.299371e-004
2.237057e+003,6.334544e-004
2.238986e+003,6.104928e-004
2.240914e+003,6.077057e-004
2.242843e+003,5.965240e-004
2.244771e+003,6.100283e-004
2.246700e+003,5.811621e-004
2.248628e+003,5.348476e-004
2.250557e+003,4.336096e-004
2.252485e+003,4.865808e-004
2.254414e+003,5.660662e-004
2.256342e+003,4.992523e-004
2.258271e+003,4.284687e-004
2.260199e+003,5.252933e-004
2.262128e+003,5.784083e-004
2.264056e+003,5.516344e-004
2.265985e+003,5.194547e-004
2.267913e+003,4.869456e-004
2.269842e+003,4.960015e-004
2.271770e+003,5.090051e-004
2.273699e+003,4.666453e-004
2.275627e+003,3.887368e-004
2.277556e+003,3.390273e-004
2.279484e+003,3.702982e-004
2.281413e+003,4.655176e-004
2.283341e+003,4.401436e-004
2.285270e+003,4.288999e-004
2.287198e+003,4.795485e-004
2.289127e+003,6.478226e-004
2.291055e+003,6.649457e-004
2.292984e+003,6.361422e-004
2.294912e+003,6.845584e-004
2.296841e+003,8.401636e-004
2.298769e+003,1.093407e-003
2.300698e+003,1.303492e-003
2.302626e+003,1.478569e-003
2.304555e+003,1.584740e-003
2.306483e+003,1.847036e-003
2.308412e+003,2.175887e-003
2.310340e+003,2.507653e-003
2.312269e+003,2.961589e-003
2.314197e+003,3.469236e-003
2.316125e+003,4.092054e-003
2.318054e+003,4.671856e-003
2.319983e+003,5.299722e-003
2.321911e+003,6.034318e-003
2.323840e+003,6.563231e-003
2.325768e+003,6.982435e-003
2.327697e+003,7.670712e-003
2.329625e+003,8.386835e-003
2.331553e+003,8.708845e-003
2.333482e+003,8.867183e-003
2.335411e+003,9.079203e-003
2.337339e+003,9.281544e-003
2.339268e+003,9.369020e-003
2.341196e+003,9.173915e-003
2.343125e+003,8.635256e-003
2.345053e+003,7.386575e-003
2.346981e+003,5.291304e-003
2.348910e+003,4.007507e-003
2.350839e+003,5.317566e-003
2.352767e+003,7.881575e-003
2.354696e+003,9.900691e-003
2.356624e+003,1.117363e-002
2.358552e+003,1.185180e-002
2.360481e+003,1.215373e-002
2.362409e+003,1.216310e-002
2.364338e+003,1.177992e-002
2.366267e+003,1.102876e-002
2.368195e+003,1.001291e-002
2.370124e+003,8.777102e-003
2.372052e+003,7.369994e-003
2.373980e+003,5.953221e-003
2.375909e+003,4.501245e-003
2.377838e+003,3.126523e-003
2.379766e+003,2.031187e-003
2.381695e+003,1.335863e-003
2.383623e+003,1.086332e-003
2.385552e+003,9.812125e-004
2.387480e+003,8.765172e-004
2.389408e+003,8.808333e-004
2.391337e+003,8.945789e-004
2.393266e+003,8.820618e-004
2.395194e+003,8.589542e-004
2.397123e+003,8.749567e-004
2.399051e+003,9.421937e-004
2.400979e+003,9.361834e-004
2.402908e+003,9.173563e-004
2.404836e+003,9.780908e-004
2.406765e+003,1.009640e-003
2.408694e+003,9.328961e-004
2.410622e+003,9.396700e-004
2.412551e+003,9.843010e-004
2.414479e+003,1.024586e-003
2.416407e+003,1.094403e-003
2.418336e+003,1.108388e-003
2.420264e+003,1.038170e-003
2.422193e+003,1.013294e-003
2.424122e+003,1.151575e-003
2.426050e+003,1.212841e-003
2.427979e+003,1.136160e-003
2.429907e+003,1.147655e-003
2.431835e+003,1.264544e-003
2.433764e+003,1.407260e-003
2.435692e+003,1.411848e-003
2.437621e+003,1.402108e-003
2.439550e+003,1.335032e-003
2.441478e+003,1.313330e-003
2.443406e+003,1.408889e-003
2.445335e+003,1.463874e-003
2.447263e+003,1.451141e-003
2.449192e+003,1.492832e-003
2.451121e+003,1.473682e-003
2.453049e+003,1.457524e-003
2.454978e+003,1.563790e-003
2.456906e+003,1.580118e-003
2.458834e+003,1.590127e-003
2.460763e+003,1.615535e-003
2.462691e+003,1.530604e-003
2.464620e+003,1.541743e-003
2.466549e+003,1.631533e-003
2.468477e+003,1.614172e-003
2.470406e+003,1.572802e-003
2.472334e+003,1.620258e-003
2.474262e+003,1.629637e-003
2.476191e+003,1.554978e-003
2.478119e+003,1.568346e-003
2.480048e+003,1.654116e-003
2.481977e+003,1.703943e-003
2.483905e+003,1.674605e-003
2.485833e+003,1.644105e-003
2.487762e+003,1.707103e-003
2.489690e+003,1.711594e-003
2.491619e+003,1.738805e-003
2.493547e+003,1.818886e-003
2.495476e+003,1.921180e-003
2.497405e+003,1.962350e-003
2.499333e+003,1.947539e-003
2.501261e+003,1.912028e-003
2.503190e+003,1.925706e-003
2.505118e+003,2.002060e-003
2.507047e+003,2.025728e-003
2.508975e+003,1.968841e-003
2.510904e+003,1.930798e-003
2.512833e+003,1.993272e-003
2.514761e+003,1.994504e-003
2.516689e+003,1.998998e-003
2.518618e+003,2.138193e-003
2.520546e+003,2.150613e-003
2.522475e+003,2.048964e-003
2.524403e+003,2.031054e-003
2.526332e+003,2.038078e-003
2.528260e+003,2.068173e-003
2.530189e+003,2.124607e-003
2.532117e+003,2.110556e-003
2.534046e+003,2.040608e-003
2.535974e+003,2.018271e-003
2.537903e+003,2.048165e-003
2.539831e+003,2.159603e-003
2.541760e+003,2.152611e-003
2.543688e+003,2.239862e-003
2.545617e+003,2.269704e-003
2.547545e+003,2.233834e-003
2.549474e+003,2.225041e-003
2.551402e+003,2.189873e-003
2.553331e+003,2.168394e-003
2.555259e+003,2.196700e-003
2.557188e+003,2.148848e-003
2.559116e+003,2.111356e-003
2.561045e+003,2.149614e-003
2.562973e+003,2.191705e-003
2.564902e+003,2.315072e-003
2.566830e+003,2.342488e-003
2.568759e+003,2.204926e-003
2.570687e+003,2.210521e-003
2.572616e+003,2.321967e-003
2.574544e+003,2.411652e-003
2.576473e+003,2.425912e-003
2.578401e+003,2.341555e-003
2.580330e+003,2.249387e-003
2.582258e+003,2.312707e-003
2.584187e+003,2.388029e-003
2.586115e+003,2.360844e-003
2.588044e+003,2.363342e-003
2.589972e+003,2.385697e-003
2.591901e+003,2.411318e-003
2.593829e+003,2.315305e-003
2.595758e+003,2.278065e-003
2.597686e+003,2.335825e-003
2.599615e+003,2.360044e-003
2.601543e+003,2.486025e-003
2.603472e+003,2.564744e-003
2.605400e+003,2.492923e-003
2.607329e+003,2.432976e-003
2.609257e+003,2.525816e-003
2.611186e+003,2.569977e-003
2.613114e+003,2.567477e-003
2.615043e+003,2.564744e-003
2.616971e+003,2.557745e-003
2.618900e+003,2.621776e-003
2.620828e+003,2.738563e-003
2.622757e+003,2.786447e-003
2.624685e+003,2.718791e-003
2.626614e+003,2.705954e-003
2.628542e+003,2.847177e-003
2.630471e+003,2.929097e-003
2.632399e+003,2.865887e-003
2.634328e+003,2.820329e-003
2.636256e+003,2.822730e-003
2.638185e+003,2.939038e-003
2.640113e+003,3.094485e-003
2.642042e+003,3.045766e-003
2.643970e+003,3.087744e-003
2.645899e+003,3.170444e-003
2.647827e+003,3.153723e-003
2.649756e+003,3.232229e-003
2.651684e+003,3.394026e-003
2.653613e+003,3.360099e-003
2.655541e+003,3.306242e-003
2.657470e+003,3.251557e-003
2.659398e+003,3.305575e-003
2.661327e+003,3.422212e-003
2.663255e+003,3.453305e-003
2.665184e+003,3.383207e-003
2.667112e+003,3.514495e-003
2.669041e+003,3.645489e-003
2.670969e+003,3.669681e-003
2.672898e+003,3.687258e-003
2.674826e+003,3.626177e-003
2.676755e+003,3.557788e-003
2.678683e+003,3.524249e-003
2.680612e+003,3.610273e-003
2.682540e+003,3.669915e-003
2.684469e+003,3.743836e-003
2.686397e+003,3.846650e-003
2.688326e+003,3.934611e-003
2.690254e+003,4.020917e-003
2.692183e+003,3.933474e-003
2.694111e+003,3.850361e-003
2.696040e+003,3.876470e-003
2.697968e+003,4.060481e-003
2.699897e+003,4.272274e-003
2.701825e+003,4.242829e-003
2.703754e+003,4.193546e-003
2.705682e+003,4.290411e-003
2.707611e+003,4.401857e-003
2.709539e+003,4.439447e-003
2.711468e+003,4.492943e-003
2.713396e+003,4.609028e-003
2.715325e+003,4.630059e-003
2.717253e+003,4.563622e-003
2.719182e+003,4.629322e-003
2.721110e+003,4.731208e-003
2.723039e+003,4.834492e-003
2.724967e+003,4.994708e-003
2.726896e+003,5.018976e-003
2.728824e+003,4.992094e-003
2.730753e+003,5.129301e-003
2.732681e+003,5.255182e-003
2.734610e+003,5.326287e-003
2.736538e+003,5.311395e-003
2.738467e+003,5.340544e-003
2.740395e+003,5.489437e-003
2.742324e+003,5.549842e-003
2.744252e+003,5.599446e-003
2.746181e+003,5.721972e-003
2.748109e+003,5.759375e-003
2.750038e+003,5.886110e-003
2.751966e+003,6.025784e-003
2.753895e+003,6.131426e-003
2.755823e+003,6.230001e-003
2.757752e+003,6.326010e-003
2.759680e+003,6.443091e-003
2.761609e+003,6.617797e-003
2.763537e+003,6.996207e-003
2.765466e+003,7.200039e-003
2.767394e+003,7.395540e-003
2.769323e+003,7.711015e-003
2.771251e+003,8.071544e-003
2.773180e+003,8.436933e-003
2.775108e+003,8.888286e-003
2.777037e+003,9.430102e-003
2.778965e+003,9.862456e-003
2.780894e+003,1.040681e-002
2.782822e+003,1.115102e-002
2.784750e+003,1.185585e-002
2.786679e+003,1.257827e-002
2.788608e+003,1.326550e-002
2.790536e+003,1.391393e-002
2.792465e+003,1.461990e-002
2.794393e+003,1.543348e-002
2.796322e+003,1.618485e-002
2.798250e+003,1.681337e-002
2.800178e+003,1.739486e-002
2.802107e+003,1.810227e-002
2.804036e+003,1.871175e-002
2.805964e+003,1.910258e-002
2.807893e+003,1.940198e-002
2.809821e+003,1.963605e-002
2.811750e+003,1.979627e-002
2.813678e+003,1.974620e-002
2.815606e+003,1.962787e-002
2.817535e+003,1.934464e-002
2.819464e+003,1.912142e-002
2.821392e+003,1.887579e-002
2.823321e+003,1.855666e-002
2.825249e+003,1.816819e-002
2.827177e+003,1.769508e-002
2.829106e+003,1.704567e-002
2.831034e+003,1.634621e-002
2.832963e+003,1.578694e-002
2.834892e+003,1.541150e-002
2.836820e+003,1.487483e-002
2.838749e+003,1.419029e-002
2.840677e+003,1.348863e-002
2.842605e+003,1.296235e-002
2.844534e+003,1.230938e-002
2.846462e+003,1.138576e-002
2.848391e+003,1.061201e-002
2.850320e+003,1.015083e-002
2.852248e+003,9.976968e-003
2.854177e+003,9.888318e-003
2.856105e+003,9.865540e-003
2.858033e+003,9.845678e-003
2.859962e+003,9.809006e-003
2.861890e+003,9.708328e-003
2.863819e+003,9.683391e-003
2.865748e+003,9.830121e-003
2.867676e+003,9.888759e-003
2.869604e+003,1.000511e-002
2.871533e+003,1.010871e-002
2.873461e+003,1.023282e-002
2.875390e+003,1.027546e-002
2.877319e+003,1.037753e-002
2.879247e+003,1.063802e-002
2.881176e+003,1.068553e-002
2.883104e+003,1.063714e-002
2.885032e+003,1.071131e-002
2.886961e+003,1.062380e-002
2.888889e+003,1.049299e-002
2.890818e+003,1.048148e-002
2.892747e+003,1.037671e-002
2.894675e+003,1.020846e-002
2.896604e+003,1.022179e-002
2.898532e+003,1.015612e-002
2.900460e+003,1.006940e-002
2.902389e+003,1.002379e-002
2.904317e+003,9.924048e-003
2.906246e+003,9.806329e-003
2.908175e+003,9.725812e-003
2.910103e+003,9.654458e-003
2.912031e+003,9.390621e-003
2.913960e+003,9.040295e-003
2.915888e+003,8.797694e-003
2.917817e+003,8.827550e-003
2.919745e+003,9.160514e-003
2.921674e+003,9.491192e-003
2.923603e+003,9.739942e-003
2.925531e+003,1.002033e-002
2.927459e+003,1.024649e-002
2.929388e+003,1.050389e-002
2.931316e+003,1.089762e-002
2.933245e+003,1.120005e-002
2.935173e+003,1.135858e-002
2.937102e+003,1.151922e-002
2.939031e+003,1.167246e-002
2.940959e+003,1.160282e-002
2.942887e+003,1.145369e-002
2.944816e+003,1.136158e-002
2.946744e+003,1.130396e-002
2.948673e+003,1.110975e-002
2.950601e+003,1.060098e-002
2.952530e+003,1.004515e-002
2.954458e+003,9.568346e-003
2.956387e+003,9.125761e-003
2.958315e+003,8.616634e-003
2.960244e+003,7.946093e-003
2.962172e+003,7.375993e-003
2.964101e+003,6.888167e-003
2.966029e+003,6.416625e-003
2.967958e+003,6.060525e-003
2.969886e+003,5.712504e-003
2.971815e+003,5.263969e-003
2.973743e+003,4.803300e-003
2.975672e+003,4.361994e-003
2.977600e+003,4.126908e-003
2.979529e+003,3.818671e-003
2.981457e+003,3.544927e-003
2.983386e+003,3.363973e-003
2.985314e+003,3.107801e-003
2.987243e+003,2.971330e-003
2.989171e+003,2.893205e-003
2.991100e+003,2.636777e-003
2.993028e+003,2.538714e-003
2.994957e+003,2.559011e-003
2.996885e+003,2.357912e-003
2.998814e+003,2.151945e-003
3.000742e+003,2.119113e-003
3.002671e+003,2.133331e-003
3.004599e+003,2.111389e-003
3.006528e+003,2.142055e-003
3.008456e+003,2.054291e-003
3.010385e+003,2.011314e-003
3.012313e+003,1.978893e-003
3.014242e+003,1.910597e-003
3.016170e+003,1.905605e-003
3.018099e+003,1.919216e-003
3.020027e+003,1.827371e-003
3.021956e+003,1.700417e-003
3.023884e+003,1.626444e-003
3.025813e+003,1.702945e-003
3.027741e+003,1.637985e-003
3.029670e+003,1.520795e-003
3.031598e+003,1.502076e-003
3.033527e+003,1.506365e-003
3.035455e+003,1.568811e-003
3.037384e+003,1.559367e-003
3.039312e+003,1.495359e-003
3.041241e+003,1.301498e-003
3.043169e+003,1.165296e-003
3.045098e+003,1.194533e-003
3.047026e+003,1.231381e-003
3.048955e+003,1.195995e-003
3.050883e+003,1.091813e-003
3.052812e+003,1.160777e-003
3.054740e+003,1.084007e-003
3.056669e+003,1.037207e-003
3.058597e+003,1.002101e-003
3.060526e+003,9.393712e-004
3.062454e+003,9.703533e-004
3.064383e+003,1.000740e-003
3.066311e+003,1.042820e-003
3.068240e+003,1.121012e-003
3.070168e+003,1.057600e-003
3.072097e+003,9.041745e-004
3.074025e+003,7.672665e-004
3.075954e+003,8.042447e-004
3.077882e+003,7.819047e-004
3.079811e+003,7.044374e-004
3.081739e+003,7.073911e-004
3.083668e+003,6.716491e-004
3.085596e+003,5.582033e-004
3.087525e+003,5.311320e-004
3.089453e+003,5.344162e-004
3.091382e+003,4.996173e-004
3.093310e+003,5.839491e-004
3.095239e+003,5.830865e-004
3.097167e+003,4.887037e-004
3.099096e+003,4.853203e-004
3.101024e+003,5.255587e-004
3.102953e+003,4.554341e-004
3.104881e+003,3.259956e-004
3.106810e+003,3.649259e-004
3.108738e+003,4.042245e-004
3.110667e+003,3.902292e-004
3.112595e+003,4.020025e-004
3.114524e+003,4.717867e-004
3.116452e+003,4.276064e-004
3.118381e+003,3.477484e-004
3.120309e+003,2.337573e-004
3.122238e+003,2.119770e-004
3.124166e+003,2.336247e-004
3.126095e+003,2.404540e-004
3.128023e+003,2.637276e-004
3.129952e+003,2.081316e-004
3.131880e+003,1.264579e-004
3.133809e+003,1.781983e-004
3.135737e+003,2.237455e-004
3.137666e+003,3.126659e-004
3.139594e+003,3.295436e-004
3.141523e+003,3.269572e-004
3.143451e+003,3.199939e-004
3.145380e+003,2.231157e-004
3.147308e+003,9.510510e-005
3.149237e+003,1.172441e-004
3.151165e+003,1.596691e-004
3.153094e+003,2.348181e-004
3.155022e+003,3.652907e-004
3.156951e+003,3.116049e-004
3.158879e+003,2.634292e-004
3.160808e+003,3.028844e-004
3.162736e+003,3.138928e-004
3.164665e+003,2.834880e-004
3.166593e+003,2.490074e-004
3.168522e+003,1.486979e-004
3.170450e+003,1.805518e-004
3.172379e+003,2.172480e-004
3.174307e+003,1.338159e-004
3.176236e+003,2.794430e-004
3.178164e+003,3.546127e-004
3.180093e+003,2.571631e-004
3.182021e+003,2.219554e-004
3.183950e+003,2.957226e-004
3.185878e+003,2.891576e-004
3.187807e+003,4.076737e-004
3.189735e+003,4.359313e-004
3.191664e+003,3.127654e-004
3.193592e+003,4.235601e-004
3.195521e+003,5.042282e-004
3.197449e+003,4.065461e-004
3.199378e+003,3.690048e-004
3.201306e+003,3.430728e-004
3.203235e+003,3.471515e-004
3.205163e+003,3.564366e-004
3.207092e+003,3.846577e-004
3.209020e+003,4.930824e-004
3.210948e+003,4.787856e-004
3.212877e+003,4.549366e-004
3.214806e+003,4.981909e-004
3.216734e+003,5.870347e-004
3.218663e+003,6.630209e-004
3.220591e+003,6.603994e-004
3.222520e+003,6.121519e-004
3.224448e+003,6.190867e-004
3.226376e+003,6.164986e-004
3.228305e+003,7.440654e-004
3.230234e+003,8.973679e-004
3.232162e+003,8.041783e-004
3.234091e+003,7.575080e-004
3.236019e+003,7.809421e-004
3.237948e+003,8.140042e-004
3.239876e+003,8.289096e-004
3.241804e+003,1.079423e-003
3.243733e+003,1.332141e-003
3.245662e+003,1.312831e-003
3.247590e+003,1.360558e-003
3.249519e+003,1.399615e-003
3.251447e+003,1.431693e-003
3.253375e+003,1.424147e-003
3.255304e+003,1.403870e-003
3.257232e+003,1.539249e-003
3.259161e+003,1.644504e-003
3.261090e+003,1.824576e-003
3.263018e+003,1.865737e-003
3.264947e+003,1.709365e-003
3.266875e+003,1.680592e-003
3.268803e+003,1.839350e-003
3.270732e+003,1.851661e-003
3.272660e+003,1.756703e-003
3.274589e+003,1.741533e-003
3.276518e+003,1.859015e-003
3.278446e+003,1.956393e-003
3.280375e+003,2.032319e-003
3.282303e+003,1.995236e-003
3.284231e+003,1.921080e-003
3.286160e+003,1.813929e-003
3.288088e+003,1.768846e-003
3.290017e+003,1.730555e-003
3.291946e+003,1.773038e-003
3.293874e+003,1.815792e-003
3.295802e+003,1.737741e-003
3.297731e+003,1.731886e-003
3.299659e+003,1.694396e-003
3.301588e+003,1.544038e-003
3.303516e+003,1.369333e-003
3.305445e+003,1.289136e-003
3.307374e+003,1.408490e-003
3.309302e+003,1.432491e-003
3.311230e+003,1.291595e-003
3.313159e+003,1.050492e-003
3.315087e+003,9.605902e-004
3.317016e+003,1.076101e-003
3.318944e+003,1.039598e-003
3.320873e+003,8.171911e-004
3.322802e+003,6.180913e-004
3.324730e+003,4.872774e-004
3.326658e+003,4.774588e-004
3.328587e+003,4.177229e-004
3.330515e+003,2.701264e-004
3.332444e+003,6.647197e-005
3.334372e+003,9.709359e-005
3.336301e+003,2.726462e-004
3.338229e+003,3.107096e-004
3.340158e+003,1.742537e-004
3.342086e+003,6.551094e-005
3.344015e+003,-1.656702e-007
3.345943e+003,-7.779176e-005
3.347872e+003,-9.524992e-005
3.349800e+003,-1.415256e-004
3.351729e+003,-2.061442e-004
3.353657e+003,-2.791639e-004
3.355586e+003,-4.156333e-004
3.357514e+003,-4.372485e-004
3.359443e+003,-3.981880e-004
3.361371e+003,-5.120828e-004
3.363300e+003,-5.594060e-004
3.365229e+003,-5.684068e-004
3.367157e+003,-7.546344e-004
3.369085e+003,-1.005216e-003
3.371014e+003,-1.062930e-003
3.372942e+003,-1.051494e-003
3.374871e+003,-1.198922e-003
3.376799e+003,-1.159996e-003
3.378728e+003,-1.154775e-003
3.380656e+003,-1.274683e-003
3.382585e+003,-1.300021e-003
3.384513e+003,-1.288261e-003
3.386442e+003,-1.354988e-003
3.388370e+003,-1.503865e-003
3.390299e+003,-1.591920e-003
3.392227e+003,-1.493728e-003
3.394156e+003,-1.629685e-003
3.396084e+003,-1.712202e-003
3.398013e+003,-1.785496e-003
3.399941e+003,-1.884084e-003
3.401870e+003,-1.895069e-003
3.403798e+003,-1.875275e-003
3.405727e+003,-1.838356e-003
3.407655e+003,-1.860726e-003
3.409584e+003,-1.832582e-003
3.411512e+003,-1.845021e-003
3.413441e+003,-2.002273e-003
3.415369e+003,-2.055898e-003
3.417298e+003,-2.042410e-003
3.419226e+003,-2.011705e-003
3.421155e+003,-1.914137e-003
3.423083e+003,-1.879432e-003
3.425012e+003,-1.875176e-003
3.426940e+003,-1.974897e-003
3.428869e+003,-2.040035e-003
3.430797e+003,-1.997359e-003
3.432726e+003,-1.974864e-003
3.434654e+003,-1.960516e-003
3.436583e+003,-2.193458e-003
3.438511e+003,-2.387987e-003
3.440440e+003,-2.215678e-003
3.442368e+003,-2.178722e-003
3.444297e+003,-2.258432e-003
3.446225e+003,-2.227710e-003
3.448154e+003,-2.184293e-003
3.450082e+003,-2.113407e-003
3.452011e+003,-1.976382e-003
3.453939e+003,-2.148654e-003
3.455868e+003,-2.351639e-003
3.457796e+003,-2.359284e-003
3.459725e+003,-2.458137e-003
3.461653e+003,-2.393226e-003
3.463582e+003,-2.259454e-003
3.465510e+003,-2.352364e-003
3.467439e+003,-2.357043e-003
3.469367e+003,-2.345970e-003
3.471296e+003,-2.353385e-003
3.473224e+003,-2.396258e-003
3.475153e+003,-2.477674e-003
3.477081e+003,-2.425089e-003
3.479010e+003,-2.474214e-003
3.480938e+003,-2.534962e-003
3.482867e+003,-2.530614e-003
3.484795e+003,-2.314464e-003
3.486724e+003,-2.269342e-003
3.488652e+003,-2.458466e-003
3.490581e+003,-2.340664e-003
3.492509e+003,-2.384164e-003
3.494438e+003,-2.543296e-003
3.496366e+003,-2.523531e-003
3.498295e+003,-2.517503e-003
3.500223e+003,-2.483274e-003
3.502152e+003,-2.362711e-003
3.504080e+003,-2.362547e-003
3.506009e+003,-2.477212e-003
3.507937e+003,-2.478893e-003
3.509866e+003,-2.427824e-003
3.511794e+003,-2.480243e-003
3.513723e+003,-2.629394e-003
3.515651e+003,-2.683436e-003
3.517580e+003,-2.626298e-003
3.519508e+003,-2.641777e-003
3.521437e+003,-2.664336e-003
3.523365e+003,-2.614607e-003
3.525294e+003,-2.618954e-003
3.527222e+003,-2.582823e-003
3.529151e+003,-2.668255e-003
3.531079e+003,-2.798544e-003
3.533008e+003,-2.766247e-003
3.534936e+003,-2.706354e-003
3.536865e+003,-2.694335e-003
3.538793e+003,-2.849700e-003
3.540722e+003,-2.898020e-003
3.542650e+003,-2.866817e-003
3.544579e+003,-2.691438e-003
3.546507e+003,-2.447396e-003
3.548436e+003,-2.584470e-003
3.550364e+003,-2.724333e-003
3.552293e+003,-2.687058e-003
3.554221e+003,-2.686762e-003
3.556150e+003,-2.748303e-003
3.558078e+003,-2.784881e-003
3.560007e+003,-2.818296e-003
3.561935e+003,-2.734606e-003
3.563864e+003,-2.622972e-003
3.565792e+003,-2.480738e-003
3.567721e+003,-2.549785e-003
3.569649e+003,-2.786264e-003
3.571578e+003,-2.776947e-003
3.573506e+003,-2.623796e-003
3.575435e+003,-2.620963e-003
3.577363e+003,-2.749883e-003
3.579292e+003,-2.827513e-003
3.581220e+003,-2.871853e-003
3.583149e+003,-2.959828e-003
3.585077e+003,-2.726078e-003
3.587006e+003,-2.431482e-003
3.588934e+003,-2.677772e-003
3.590863e+003,-2.859871e-003
3.592791e+003,-2.638616e-003
3.594720e+003,-2.490885e-003
3.596648e+003,-2.566189e-003
3.598577e+003,-2.814543e-003
3.600505e+003,-2.926522e-003
3.602434e+003,-2.921256e-003
3.604362e+003,-2.935573e-003
3.606291e+003,-2.817111e-003
3.608219e+003,-2.539080e-003
3.610148e+003,-2.583680e-003
3.612076e+003,-2.803449e-003
3.614005e+003,-2.941069e-003
3.615933e+003,-2.773029e-003
3.617862e+003,-2.524750e-003
3.619790e+003,-2.726243e-003
3.621719e+003,-3.064301e-003
3.623647e+003,-3.124802e-003
3.625576e+003,-2.915201e-003
3.627504e+003,-2.285493e-003
3.629433e+003,-2.029416e-003
3.631361e+003,-2.759102e-003
3.633290e+003,-2.947585e-003
3.635218e+003,-2.980724e-003
3.637146e+003,-2.989148e-003
3.639075e+003,-3.166973e-003
3.641004e+003,-3.310068e-003
3.642932e+003,-3.148783e-003
3.644861e+003,-3.158848e-003
3.646789e+003,-2.958906e-003
3.648718e+003,-2.602980e-003
3.650646e+003,-2.771547e-003
3.652574e+003,-3.317533e-003
3.654503e+003,-3.180854e-003
3.656432e+003,-2.780206e-003
3.658360e+003,-3.172828e-003
3.660289e+003,-3.497918e-003
3.662217e+003,-3.652601e-003
3.664146e+003,-3.669424e-003
3.666074e+003,-3.684405e-003
3.668002e+003,-3.450783e-003
3.669931e+003,-3.006326e-003
3.671860e+003,-3.171644e-003
3.673788e+003,-3.004154e-003
3.675717e+003,-2.749620e-003
3.677645e+003,-3.317565e-003
3.679573e+003,-3.564011e-003
3.681502e+003,-3.429974e-003
3.683430e+003,-3.372409e-003
3.685359e+003,-3.360014e-003
3.687288e+003,-2.917472e-003
3.689216e+003,-2.775959e-003
3.691145e+003,-3.044362e-003
3.693073e+003,-3.319473e-003
3.695001e+003,-3.496538e-003
3.696930e+003,-3.311318e-003
3.698858e+003,-3.006523e-003
3.700787e+003,-2.852498e-003
3.702716e+003,-3.024127e-003
3.704644e+003,-3.202562e-003
3.706573e+003,-3.190952e-003
3.708501e+003,-3.099635e-003
3.710429e+003,-2.894433e-003
3.712358e+003,-2.917669e-003
3.714286e+003,-3.340023e-003
3.716215e+003,-3.490523e-003
3.718144e+003,-3.114900e-003
3.720072e+003,-2.954957e-003
3.722000e+003,-2.988852e-003
3.723929e+003,-3.035051e-003
3.725857e+003,-3.100852e-003
3.727786e+003,-3.409526e-003
3.729714e+003,-3.359488e-003
3.731643e+003,-2.893972e-003
3.733572e+003,-2.694270e-003
3.735500e+003,-2.680900e-003
3.737428e+003,-3.023074e-003
3.739357e+003,-3.407850e-003
3.741285e+003,-3.382206e-003
3.743214e+003,-2.406473e-003
3.745142e+003,-2.169062e-003
3.747071e+003,-2.845256e-003
3.749000e+003,-2.375168e-003
3.750928e+003,-2.285031e-003
3.752856e+003,-2.762131e-003
3.754785e+003,-3.134079e-003
3.756713e+003,-3.164144e-003
3.758642e+003,-3.076343e-003
3.760570e+003,-2.868660e-003
3.762499e+003,-3.196313e-003
3.764427e+003,-3.362776e-003
3.766356e+003,-3.297704e-003
3.768284e+003,-3.198517e-003
3.770213e+003,-3.053937e-003
3.772141e+003,-3.184340e-003
3.774070e+003,-3.324734e-003
3.775998e+003,-3.333513e-003
3.777927e+003,-3.155000e-003
3.779855e+003,-3.028075e-003
3.781784e+003,-3.110985e-003
3.783712e+003,-3.194866e-003
3.785641e+003,-3.147895e-003
3.787569e+003,-3.255677e-003
3.789498e+003,-3.494993e-003
3.791426e+003,-3.709111e-003
3.793355e+003,-3.644420e-003
3.795283e+003,-3.300072e-003
3.797212e+003,-3.136546e-003
3.799140e+003,-3.054529e-003
3.801069e+003,-2.768420e-003
3.802997e+003,-3.281821e-003
3.804926e+003,-3.368069e-003
3.806854e+003,-2.948178e-003
3.808783e+003,-3.373001e-003
3.810711e+003,-3.709637e-003
3.812640e+003,-3.605252e-003
3.814568e+003,-3.247225e-003
3.816497e+003,-2.809144e-003
3.818425e+003,-2.874947e-003
3.820354e+003,-2.581110e-003
3.822282e+003,-2.658145e-003
3.824211e+003,-3.344561e-003
3.826139e+003,-3.562171e-003
3.828068e+003,-3.452722e-003
3.829996e+003,-3.188386e-003
3.831925e+003,-3.158223e-003
3.833853e+003,-3.279651e-003
3.835782e+003,-3.177663e-003
3.837710e+003,-2.862176e-003
3.839639e+003,-2.988951e-003
3.841567e+003,-3.274356e-003
3.843496e+003,-3.344232e-003
3.845424e+003,-3.674648e-003
3.847353e+003,-3.927261e-003
3.849281e+003,-3.764135e-003
3.851210e+003,-2.918755e-003
3.853138e+003,-1.755929e-003
3.855067e+003,-2.308993e-003
3.856995e+003,-3.438521e-003
3.858924e+003,-3.752638e-003
3.860852e+003,-3.511986e-003
3.862781e+003,-3.166151e-003
3.864709e+003,-3.151020e-003
3.866638e+003,-3.654113e-003
3.868566e+003,-3.562006e-003
3.870495e+003,-3.301716e-003
3.872423e+003,-3.350348e-003
3.874352e+003,-3.241930e-003
3.876280e+003,-3.552114e-003
3.878209e+003,-3.642021e-003
3.880137e+003,-3.400091e-003
3.882066e+003,-3.638637e-003
3.883994e+003,-3.711575e-003
3.885923e+003,-3.288201e-003
3.887851e+003,-3.492495e-003
3.889780e+003,-3.410348e-003
3.891708e+003,-3.288760e-003
3.893637e+003,-3.525855e-003
3.895565e+003,-3.896066e-003
3.897494e+003,-3.897084e-003
3.899422e+003,-3.547908e-003
3.901351e+003,-3.372277e-003
3.903279e+003,-3.353537e-003
3.905208e+003,-3.609458e-003
3.907136e+003,-3.946305e-003
3.909065e+003,-4.032487e-003
3.910993e+003,-4.119734e-003
3.912922e+003,-4.120949e-003
3.914850e+003,-3.899973e-003
3.916779e+003,-3.785584e-003
3.918707e+003,-3.996834e-003
3.920636e+003,-4.067677e-003
3.922564e+003,-3.968862e-003
3.924493e+003,-3.852454e-003
3.926421e+003,-3.884211e-003
3.928350e+003,-4.064525e-003
3.930278e+003,-4.091343e-003
3.932207e+003,-3.913732e-003
3.934135e+003,-4.040431e-003
3.936064e+003,-4.199515e-003
3.937992e+003,-4.108640e-003
3.939921e+003,-4.050377e-003
3.941849e+003,-4.022934e-003
3.943778e+003,-4.173066e-003
3.945706e+003,-4.104604e-003
3.947635e+003,-3.817543e-003
3.949563e+003,-3.817674e-003
3.951492e+003,-3.999920e-003
3.953420e+003,-4.074997e-003
3.955349e+003,-4.110282e-003
3.957277e+003,-4.178283e-003
3.959206e+003,-4.242271e-003
3.961134e+003,-4.324294e-003
3.963063e+003,-4.307628e-003
3.964991e+003,-4.225209e-003
3.966920e+003,-4.066429e-003
3.968848e+003,-3.762492e-003
3.970777e+003,-3.835869e-003
3.972705e+003,-3.985147e-003
3.974634e+003,-3.876428e-003
3.976562e+003,-3.864573e-003
3.978491e+003,-4.015547e-003
3.980419e+003,-4.050279e-003
3.982348e+003,-4.048572e-003
3.984276e+003,-4.005140e-003
3.986205e+003,-4.055728e-003
3.988133e+003,-4.033865e-003
3.990062e+003,-4.001496e-003
3.991990e+003,-4.131353e-003
3.993919e+003,-4.291782e-003
3.995847e+003,-4.398363e-003
3.997776e+003,-4.244995e-003
3.999704e+003,-4.017451e-003
4.001633e+003,0.000000e+000
