3.991989e+002,1.542125e-002
4.011274e+002,2.058963e-002
4.030559e+002,1.346614e-002
4.049844e+002,8.572969e-003
4.069129e+002,4.583846e-003
4.088414e+002,8.509338e-003
4.107699e+002,1.268783e-002
4.126984e+002,9.016343e-003
4.146269e+002,1.001511e-002
4.165554e+002,1.488742e-002
4.184839e+002,1.004017e-002
4.204124e+002,6.310007e-003
4.223409e+002,6.011774e-003
4.242694e+002,4.823636e-003
4.261979e+002,8.473016e-003
4.281264e+002,8.560128e-003
4.300549e+002,-4.261958e-003
4.319834e+002,8.759528e-004
4.339119e+002,7.506269e-003
4.358404e+002,1.343075e-003
4.377689e+002,6.673513e-003
4.396974e+002,9.107151e-003
4.416259e+002,6.396719e-003
4.435544e+002,9.899403e-003
4.454829e+002,1.082346e-002
4.474114e+002,1.250665e-002
4.493399e+002,1.440595e-002
4.512684e+002,8.716755e-003
4.531969e+002,3.109970e-003
4.551254e+002,3.518203e-003
4.570539e+002,5.322027e-003
4.589824e+002,3.316092e-003
4.609109e+002,3.024912e-003
4.628394e+002,7.796051e-003
4.647679e+002,1.023855e-002
4.666964e+002,7.434671e-003
4.686249e+002,5.657415e-003
4.705533e+002,7.053993e-003
4.724819e+002,6.669542e-003
4.744103e+002,6.395878e-003
4.763389e+002,8.038971e-003
4.782673e+002,5.657717e-003
4.801959e+002,3.986339e-003
4.821243e+002,5.847757e-003
4.840529e+002,5.323437e-003
4.859813e+002,3.518336e-003
4.879099e+002,1.574664e-003
4.898383e+002,-2.190933e-004
4.917668e+002,-3.479337e-004
4.936953e+002,-5.592666e-005
4.956238e+002,-8.855977e-004
4.975523e+002,-9.989680e-004
4.994808e+002,-3.710996e-006
5.014093e+002,5.759200e-004
5.033378e+002,4.476640e-005
5.052663e+002,-7.659795e-004
5.071948e+002,1.158585e-003
5.091233e+002,1.974133e-003
5.110518e+002,1.723037e-003
5.129803e+002,-9.263668e-004
5.149088e+002,-2.149775e-003
5.168373e+002,-4.737571e-004
5.187658e+002,7.803767e-005
5.206943e+002,1.940431e-004
5.226228e+002,-8.195919e-004
5.245513e+002,-1.889395e-003
5.264798e+002,-1.202359e-003
5.284083e+002,-2.298563e-004
5.303368e+002,-1.853454e-004
5.322653e+002,-1.074598e-003
5.341938e+002,-1.344980e-003
5.361223e+002,-1.318487e-003
5.380508e+002,-1.632655e-003
5.399792e+002,-1.398553e-003
5.419078e+002,-5.541114e-004
5.438363e+002,-5.257839e-004
5.457648e+002,-4.637945e-004
5.476932e+002,-8.078843e-004
5.496218e+002,-2.863494e-004
5.515503e+002,6.014014e-004
5.534788e+002,1.454233e-003
5.554072e+002,1.111943e-003
5.573358e+002,1.135363e-003
5.592643e+002,1.706837e-003
5.611927e+002,3.232863e-003
5.631212e+002,2.367074e-003
5.650497e+002,1.294586e-003
5.669783e+002,7.968089e-004
5.689067e+002,1.642342e-003
5.708352e+002,3.388650e-003
5.727637e+002,2.396025e-003
5.746923e+002,1.015677e-004
5.766207e+002,9.999096e-004
5.785492e+002,3.130928e-003
5.804777e+002,1.280050e-002
5.824063e+002,1.041713e-002
5.843347e+002,6.614613e-004
5.862632e+002,-3.604834e-005
5.881917e+002,-1.370208e-004
5.901202e+002,8.095400e-005
5.920487e+002,-5.265119e-004
5.939772e+002,-2.564147e-003
5.959057e+002,-3.551391e-003
5.978342e+002,-1.300219e-003
5.997627e+002,-7.709607e-005
6.016912e+002,1.056537e-003
6.036197e+002,6.300699e-004
6.055482e+002,1.530804e-003
6.074767e+002,2.368140e-003
6.094052e+002,3.387147e-003
6.113337e+002,5.676482e-003
6.132622e+002,6.296190e-003
6.151907e+002,4.353527e-003
6.171192e+002,2.961189e-003
6.190477e+002,2.002859e-003
6.209762e+002,2.748433e-003
6.229047e+002,1.395426e-003
6.248332e+002,-2.139269e-004
6.267617e+002,-1.098097e-003
6.286902e+002,-1.734347e-003
6.306187e+002,-2.581374e-003
6.325472e+002,-2.310739e-003
6.344756e+002,-1.752497e-003
6.364042e+002,-9.228952e-004
6.383326e+002,-9.174726e-004
6.402612e+002,-1.407933e-003
6.421896e+002,-1.006770e-003
6.441182e+002,-2.090917e-004
6.460466e+002,-6.019595e-004
6.479752e+002,-4.820977e-004
6.499036e+002,1.962973e-004
6.518322e+002,-2.003153e-004
6.537606e+002,-6.805698e-004
6.556891e+002,-4.918613e-004
6.576177e+002,-7.294625e-004
6.595461e+002,-3.996114e-004
6.614746e+002,-2.069390e-004
6.634031e+002,-2.346250e-004
6.653317e+002,-8.550431e-004
6.672601e+002,-1.261501e-003
6.691886e+002,-4.392677e-004
6.711171e+002,2.342546e-004
6.730457e+002,6.541152e-005
6.749741e+002,9.904894e-005
6.769026e+002,8.404292e-004
6.788311e+002,2.034150e-003
6.807596e+002,1.628805e-003
6.826881e+002,1.164365e-003
6.846166e+002,1.167987e-003
6.865451e+002,9.344235e-004
6.884736e+002,9.599593e-004
6.904021e+002,2.178085e-003
6.923306e+002,2.100801e-003
6.942591e+002,1.267967e-003
6.961876e+002,1.215532e-003
6.981161e+002,1.350221e-003
7.000446e+002,1.121045e-003
7.019731e+002,9.617857e-004
7.039016e+002,9.876218e-004
7.058301e+002,3.307374e-004
7.077585e+002,1.646793e-005
7.096871e+002,2.487422e-004
7.116156e+002,-2.942631e-004
7.135441e+002,-9.454109e-004
7.154725e+002,-1.284891e-003
7.174011e+002,-8.770995e-004
7.193296e+002,-8.860937e-004
7.212581e+002,-1.331701e-003
7.231865e+002,-1.334244e-003
7.251151e+002,-9.428982e-004
7.270436e+002,-1.232393e-003
7.289720e+002,-1.104013e-003
7.309005e+002,-1.246336e-003
7.328290e+002,-1.256743e-003
7.347576e+002,-1.260675e-003
7.366860e+002,-1.268901e-003
7.386145e+002,-9.932821e-004
7.405430e+002,-1.166143e-003
7.424716e+002,-1.540648e-003
7.444000e+002,-1.158212e-003
7.463285e+002,-9.111573e-004
7.482570e+002,-6.727623e-004
7.501855e+002,-4.054045e-004
7.521140e+002,3.186012e-004
7.540425e+002,1.120945e-003
7.559710e+002,1.570042e-003
7.578995e+002,1.520995e-003
7.598280e+002,1.606124e-003
7.617565e+002,1.907036e-003
7.636850e+002,2.359111e-003
7.656135e+002,2.756369e-003
7.675420e+002,2.566344e-003
7.694705e+002,2.250253e-003
7.713990e+002,2.558311e-003
7.733275e+002,3.198849e-003
7.752560e+002,3.264176e-003
7.771844e+002,2.873292e-003
7.791130e+002,2.988912e-003
7.810415e+002,3.110137e-003
7.829700e+002,2.867055e-003
7.848984e+002,2.762971e-003
7.868270e+002,2.591409e-003
7.887555e+002,2.398424e-003
7.906840e+002,2.686050e-003
7.926124e+002,2.378434e-003
7.945410e+002,2.222144e-003
7.964695e+002,1.828269e-003
7.983979e+002,1.374153e-003
8.003264e+002,1.372192e-003
8.022549e+002,1.435749e-003
8.041835e+002,1.552816e-003
8.061119e+002,1.816491e-003
8.080404e+002,1.936356e-003
8.099689e+002,2.429511e-003
8.118975e+002,2.784479e-003
8.138259e+002,2.852713e-003
8.157545e+002,2.581976e-003
8.176830e+002,2.341955e-003
8.196115e+002,2.197666e-003
8.215399e+002,1.800952e-003
8.234684e+002,9.911421e-004
8.253970e+002,5.596631e-004
8.273254e+002,9.214404e-004
8.292539e+002,1.163369e-003
8.311824e+002,4.205751e-004
8.331110e+002,-4.300585e-005
8.350394e+002,4.139751e-004
8.369679e+002,3.848235e-004
8.388964e+002,8.721755e-005
8.408250e+002,1.553270e-004
8.427534e+002,1.368320e-004
8.446819e+002,1.117424e-004
8.466104e+002,-2.027756e-005
8.485389e+002,-2.798924e-004
8.504674e+002,-1.443079e-004
8.523959e+002,-3.974928e-004
8.543244e+002,-4.151698e-004
8.562529e+002,-2.369431e-004
8.581814e+002,-6.510595e-004
8.601099e+002,-6.978383e-004
8.620384e+002,-6.248559e-004
8.639669e+002,-6.750450e-004
8.658954e+002,-9.069912e-004
8.678239e+002,-1.223307e-003
8.697524e+002,-9.082146e-004
8.716809e+002,-5.721129e-004
8.736094e+002,-5.258500e-004
8.755378e+002,-2.718128e-004
8.774664e+002,-5.510338e-004
8.793949e+002,-4.902064e-004
8.813234e+002,-2.543287e-004
8.832518e+002,-1.775953e-004
8.851804e+002,-7.289428e-006
8.871089e+002,4.115540e-004
8.890374e+002,3.005966e-004
8.909658e+002,1.936785e-004
8.928943e+002,1.885736e-004
8.948229e+002,2.408187e-004
8.967513e+002,2.511624e-004
8.986798e+002,4.642571e-004
9.006083e+002,5.189570e-004
9.025369e+002,6.738061e-004
9.044653e+002,6.521365e-004
9.063938e+002,6.409869e-004
9.083223e+002,4.873769e-004
9.102509e+002,2.246075e-004
9.121793e+002,-2.701572e-004
9.141078e+002,-4.609480e-004
9.160364e+002,-4.410220e-004
9.179648e+002,-5.123475e-004
9.198933e+002,-4.935823e-004
9.218218e+002,-4.991093e-004
9.237504e+002,-5.567587e-004
9.256788e+002,-6.568162e-004
9.276073e+002,-1.025215e-003
9.295358e+002,-1.284362e-003
9.314644e+002,-1.469689e-003
9.333928e+002,-1.765004e-003
9.353213e+002,-2.024799e-003
9.372498e+002,-1.674807e-003
9.391783e+002,-1.533054e-003
9.411068e+002,-1.485737e-003
9.430353e+002,-1.609053e-003
9.449637e+002,-1.725766e-003
9.468923e+002,-1.743653e-003
9.488208e+002,-1.887581e-003
9.507493e+002,-2.087588e-003
9.526777e+002,-2.066055e-003
9.546063e+002,-1.956657e-003
9.565348e+002,-1.858878e-003
9.584633e+002,-1.953655e-003
9.603917e+002,-1.928256e-003
9.623203e+002,-1.715700e-003
9.642488e+002,-1.669889e-003
9.661772e+002,-1.651603e-003
9.681057e+002,-1.552599e-003
9.700343e+002,-1.435939e-003
9.719628e+002,-1.160360e-003
9.738912e+002,-8.989233e-004
9.758197e+002,-1.027595e-003
9.777483e+002,-1.181674e-003
9.796768e+002,-1.239629e-003
9.816052e+002,-1.446837e-003
9.835337e+002,-1.239926e-003
9.854623e+002,-1.042404e-003
9.873907e+002,-9.401871e-004
9.893192e+002,-8.707505e-004
9.912477e+002,-9.126122e-004
9.931763e+002,-9.407492e-004
9.951047e+002,-9.694794e-004
9.970332e+002,-1.038041e-003
9.989617e+002,-7.096811e-004
1.000890e+003,-5.136713e-004
1.002819e+003,-6.327634e-004
1.004747e+003,-5.933564e-004
1.006676e+003,-3.442918e-004
1.008604e+003,-2.101846e-004
1.010533e+003,-7.905062e-005
1.012461e+003,-1.887236e-004
1.014390e+003,-1.510318e-004
1.016318e+003,3.311684e-004
1.018247e+003,7.619225e-004
1.020175e+003,8.234321e-004
1.022104e+003,8.968699e-004
1.024032e+003,1.245271e-003
1.025961e+003,1.558968e-003
1.027889e+003,1.915056e-003
1.029818e+003,2.257814e-003
1.031746e+003,2.517318e-003
1.033675e+003,2.748066e-003
1.035603e+003,2.830434e-003
1.037532e+003,3.016604e-003
1.039460e+003,3.172580e-003
1.041389e+003,3.131095e-003
1.043317e+003,3.003125e-003
1.045246e+003,2.950514e-003
1.047174e+003,2.909850e-003
1.049103e+003,3.040428e-003
1.051031e+003,3.260604e-003
1.052960e+003,3.400939e-003
1.054888e+003,3.268516e-003
1.056817e+003,3.146914e-003
1.058745e+003,3.114909e-003
1.060674e+003,3.202788e-003
1.062602e+003,3.031786e-003
1.064531e+003,3.018873e-003
1.066459e+003,3.100726e-003
1.068388e+003,3.180558e-003
1.070316e+003,3.086243e-003
1.072245e+003,3.038626e-003
1.074173e+003,3.010632e-003
1.076102e+003,3.044532e-003
1.078030e+003,3.215772e-003
1.079959e+003,3.565939e-003
1.081887e+003,3.610072e-003
1.083816e+003,3.679906e-003
1.085744e+003,3.729465e-003
1.087673e+003,3.999848e-003
1.089601e+003,4.224092e-003
1.091530e+003,4.168589e-003
1.093458e+003,3.884995e-003
1.095387e+003,3.920468e-003
1.097315e+003,3.950627e-003
1.099244e+003,3.889977e-003
1.101172e+003,3.978714e-003
1.103101e+003,4.137846e-003
1.105029e+003,4.176150e-003
1.106958e+003,4.329799e-003
1.108886e+003,4.358547e-003
1.110815e+003,4.180565e-003
1.112743e+003,4.104564e-003
1.114672e+003,4.236137e-003
1.116600e+003,4.365843e-003
1.118529e+003,4.295062e-003
1.120457e+003,4.289440e-003
1.122386e+003,4.499504e-003
1.124314e+003,4.360019e-003
1.126243e+003,4.280807e-003
1.128171e+003,4.152365e-003
1.130100e+003,3.903350e-003
1.132028e+003,3.706840e-003
1.133957e+003,3.631322e-003
1.135885e+003,3.396230e-003
1.137814e+003,3.041429e-003
1.139742e+003,2.675948e-003
1.141671e+003,2.417016e-003
1.143599e+003,2.277931e-003
1.145528e+003,2.042839e-003
1.147456e+003,1.613706e-003
1.149385e+003,1.242679e-003
1.151313e+003,1.048200e-003
1.153242e+003,7.281674e-004
1.155170e+003,4.685029e-004
1.157099e+003,3.511971e-004
1.159027e+003,3.264267e-004
1.160956e+003,3.921527e-004
1.162884e+003,3.223150e-004
1.164813e+003,1.997116e-004
1.166741e+003,2.320334e-004
1.168670e+003,4.744071e-004
1.170598e+003,4.203098e-004
1.172526e+003,3.420780e-004
1.174455e+003,2.707895e-004
1.176384e+003,2.465209e-004
1.178312e+003,3.728849e-004
1.180240e+003,4.848227e-004
1.182169e+003,3.218176e-004
1.184098e+003,1.632821e-004
1.186026e+003,6.395340e-005
1.187954e+003,1.644422e-004
1.189883e+003,8.751581e-005
1.191812e+003,1.103504e-004
1.193740e+003,2.596497e-004
1.195668e+003,2.038222e-004
1.197597e+003,1.663647e-004
1.199526e+003,2.171154e-004
1.201454e+003,2.805703e-004
1.203382e+003,4.104264e-004
1.205311e+003,5.544543e-004
1.207240e+003,6.453007e-004
1.209168e+003,7.121702e-004
1.211096e+003,8.852824e-004
1.213025e+003,1.047104e-003
1.214953e+003,1.173967e-003
1.216882e+003,1.180113e-003
1.218810e+003,1.346665e-003
1.220739e+003,1.614604e-003
1.222667e+003,1.657442e-003
1.224596e+003,1.644770e-003
1.226524e+003,1.761926e-003
1.228453e+003,1.882842e-003
1.230381e+003,2.054723e-003
1.232310e+003,2.276866e-003
1.234238e+003,2.580343e-003
1.236167e+003,2.752301e-003
1.238095e+003,2.686650e-003
1.240024e+003,2.688884e-003
1.241952e+003,2.682483e-003
1.243881e+003,2.547413e-003
1.245809e+003,2.447837e-003
1.247738e+003,2.440640e-003
1.249666e+003,2.363209e-003
1.251595e+003,2.246656e-003
1.253523e+003,2.272969e-003
1.255452e+003,2.178751e-003
1.257380e+003,1.983253e-003
1.259309e+003,1.813762e-003
1.261237e+003,1.949503e-003
1.263166e+003,2.373004e-003
1.265094e+003,2.770040e-003
1.267023e+003,2.937236e-003
1.268951e+003,3.054942e-003
1.270880e+003,3.269818e-003
1.272808e+003,3.506913e-003
1.274737e+003,3.766329e-003
1.276665e+003,4.229680e-003
1.278594e+003,4.651459e-003
1.280522e+003,4.834626e-003
1.282451e+003,4.935521e-003
1.284379e+003,5.211016e-003
1.286308e+003,5.573200e-003
1.288236e+003,6.009960e-003
1.290165e+003,6.348569e-003
1.292093e+003,6.705209e-003
1.294022e+003,7.013212e-003
1.295950e+003,6.997150e-003
1.297879e+003,7.111179e-003
1.299807e+003,7.214121e-003
1.301736e+003,7.082720e-003
1.303664e+003,7.054868e-003
1.305593e+003,6.862179e-003
1.307521e+003,6.614567e-003
1.309450e+003,6.434919e-003
1.311378e+003,6.268590e-003
1.313307e+003,6.033578e-003
1.315235e+003,5.819783e-003
1.317164e+003,5.414749e-003
1.319092e+003,5.070297e-003
1.321021e+003,4.784807e-003
1.322949e+003,4.514470e-003
1.324878e+003,4.366814e-003
1.326806e+003,4.206193e-003
1.328735e+003,4.004965e-003
1.330663e+003,3.933140e-003
1.332592e+003,3.724853e-003
1.334520e+003,3.415533e-003
1.336449e+003,3.295826e-003
1.338377e+003,3.233898e-003
1.340306e+003,3.214671e-003
1.342234e+003,3.386513e-003
1.344163e+003,3.352019e-003
1.346091e+003,3.327477e-003
1.348020e+003,3.295826e-003
1.349948e+003,3.102461e-003
1.351877e+003,2.927296e-003
1.353805e+003,2.753334e-003
1.355734e+003,2.648278e-003
1.357662e+003,2.610009e-003
1.359591e+003,2.334459e-003
1.361519e+003,1.929300e-003
1.363448e+003,1.853392e-003
1.365376e+003,2.131500e-003
1.367305e+003,1.918118e-003
1.369233e+003,1.799355e-003
1.371162e+003,1.769479e-003
1.373090e+003,1.561196e-003
1.375019e+003,1.560764e-003
1.376947e+003,1.787644e-003
1.378876e+003,1.843509e-003
1.380804e+003,1.817589e-003
1.382733e+003,1.649027e-003
1.384661e+003,1.533098e-003
1.386590e+003,1.027940e-003
1.388518e+003,8.671214e-004
1.390447e+003,1.089155e-003
1.392375e+003,8.285776e-004
1.394304e+003,3.300410e-004
1.396232e+003,3.111738e-004
1.398161e+003,1.533383e-004
1.400089e+003,2.427415e-004
1.402018e+003,6.465285e-004
1.403946e+003,6.364077e-004
1.405875e+003,7.441982e-004
1.407803e+003,9.229014e-004
1.409732e+003,7.911990e-004
1.411660e+003,8.410600e-004
1.413589e+003,9.395704e-004
1.415517e+003,9.102839e-004
1.417446e+003,6.999903e-004
1.419374e+003,9.993782e-004
1.421303e+003,2.329396e-003
1.423231e+003,3.105131e-003
1.425160e+003,3.744203e-003
1.427088e+003,4.341010e-003
1.429017e+003,4.503120e-003
1.430945e+003,4.798676e-003
1.432874e+003,5.201794e-003
1.434802e+003,4.936895e-003
1.436731e+003,4.551132e-003
1.438659e+003,5.691858e-003
1.440588e+003,6.331355e-003
1.442516e+003,6.705781e-003
1.444445e+003,7.049918e-003
1.446373e+003,7.073222e-003
1.448302e+003,7.351628e-003
1.450230e+003,8.159284e-003
1.452159e+003,8.515590e-003
1.454087e+003,8.269600e-003
1.456016e+003,6.973042e-003
1.457944e+003,7.262670e-003
1.459873e+003,8.976022e-003
1.461801e+003,9.610891e-003
1.463730e+003,9.202342e-003
1.465658e+003,9.048821e-003
1.467587e+003,9.324298e-003
1.469515e+003,8.963945e-003
1.471444e+003,7.750781e-003
1.473372e+003,7.215805e-003
1.475301e+003,7.602324e-003
1.477229e+003,7.773517e-003
1.479158e+003,7.748521e-003
1.481086e+003,7.466424e-003
1.483015e+003,7.323118e-003
1.484943e+003,6.676339e-003
1.486872e+003,5.773141e-003
1.488800e+003,4.973693e-003
1.490729e+003,4.804472e-003
1.492657e+003,4.983178e-003
1.494586e+003,4.281309e-003
1.496514e+003,3.277964e-003
1.498443e+003,3.210031e-003
1.500371e+003,3.406516e-003
1.502300e+003,3.314623e-003
1.504228e+003,1.963415e-003
1.506157e+003,-5.817948e-005
1.508085e+003,4.181872e-004
1.510014e+003,1.573334e-003
1.511942e+003,1.742099e-003
1.513871e+003,1.770643e-003
1.515799e+003,1.412080e-003
1.517728e+003,1.288737e-003
1.519656e+003,9.255910e-004
1.521585e+003,3.981554e-004
1.523513e+003,1.409853e-003
1.525442e+003,1.933893e-003
1.527370e+003,2.385397e-003
1.529299e+003,2.957819e-003
1.531227e+003,2.971631e-003
1.533156e+003,2.520217e-003
1.535084e+003,3.185831e-003
1.537013e+003,3.259870e-003
1.538941e+003,1.840182e-003
1.540870e+003,1.796095e-003
1.542798e+003,3.229625e-003
1.544727e+003,4.339973e-003
1.546655e+003,5.263936e-003
1.548584e+003,5.636570e-003
1.550512e+003,5.853365e-003
1.552441e+003,5.723617e-003
1.554369e+003,5.286742e-003
1.556298e+003,4.866758e-003
1.558226e+003,3.123419e-003
1.560155e+003,4.158420e-003
1.562083e+003,6.781062e-003
1.564012e+003,7.604719e-003
1.565940e+003,7.875738e-003
1.567869e+003,7.798074e-003
1.569797e+003,7.628086e-003
1.571726e+003,8.449501e-003
1.573654e+003,8.431494e-003
1.575583e+003,7.428672e-003
1.577511e+003,7.727609e-003
1.579440e+003,8.493897e-003
1.581368e+003,8.531269e-003
1.583297e+003,8.339308e-003
1.585225e+003,7.998941e-003
1.587154e+003,7.754694e-003
1.589082e+003,7.421189e-003
1.591010e+003,6.933346e-003
1.592939e+003,6.314680e-003
1.594868e+003,5.816592e-003
1.596796e+003,5.460983e-003
1.598724e+003,5.102782e-003
1.600653e+003,4.547784e-003
1.602582e+003,3.935580e-003
1.604510e+003,3.441348e-003
1.606438e+003,3.010198e-003
1.608367e+003,2.566311e-003
1.610296e+003,2.237830e-003
1.612224e+003,1.881777e-003
1.614152e+003,1.179383e-003
1.616081e+003,-1.110842e-004
1.618010e+003,1.445547e-004
1.619938e+003,7.129335e-004
1.621866e+003,1.759774e-004
1.623795e+003,-2.662829e-004
1.625724e+003,-6.762131e-005
1.627652e+003,-1.511312e-004
1.629580e+003,-3.415985e-005
1.631509e+003,-2.100521e-004
1.633438e+003,-1.253605e-003
1.635366e+003,-2.686729e-003
1.637294e+003,-2.112484e-003
1.639223e+003,-1.440331e-003
1.641151e+003,-1.578351e-003
1.643080e+003,-2.013256e-003
1.645008e+003,-3.253803e-003
1.646937e+003,-4.220648e-003
1.648865e+003,-3.832191e-003
1.650794e+003,-4.746397e-003
1.652722e+003,-7.213705e-003
1.654651e+003,-6.197949e-003
1.656579e+003,-4.675108e-003
1.658508e+003,-4.530560e-003
1.660436e+003,-5.143599e-003
1.662365e+003,-6.045020e-003
1.664293e+003,-5.912988e-003
1.666222e+003,-5.902234e-003
1.668150e+003,-6.751978e-003
1.670079e+003,-7.119906e-003
1.672007e+003,-6.723236e-003
1.673936e+003,-7.053374e-003
1.675864e+003,-7.180823e-003
1.677793e+003,-6.459774e-003
1.679721e+003,-6.391933e-003
1.681650e+003,-6.771976e-003
1.683578e+003,-7.983181e-003
1.685507e+003,-7.271154e-003
1.687435e+003,-6.010251e-003
1.689364e+003,-5.668690e-003
1.691292e+003,-5.260806e-003
1.693221e+003,-5.386654e-003
1.695149e+003,-6.526463e-003
1.697078e+003,-6.550354e-003
1.699006e+003,-7.220321e-003
1.700935e+003,-7.337262e-003
1.702863e+003,-5.592384e-003
1.704792e+003,-5.508082e-003
1.706720e+003,-5.300446e-003
1.708649e+003,-4.957017e-003
1.710577e+003,-4.891299e-003
1.712506e+003,-5.148608e-003
1.714434e+003,-5.739914e-003
1.716363e+003,-6.543729e-003
1.718291e+003,-6.497967e-003
1.720220e+003,-5.336352e-003
1.722148e+003,-4.868364e-003
1.724077e+003,-4.946435e-003
1.726005e+003,-4.927042e-003
1.727934e+003,-5.090812e-003
1.729862e+003,-5.375887e-003
1.731791e+003,-5.991656e-003
1.733719e+003,-7.166776e-003
1.735648e+003,-6.279831e-003
1.737576e+003,-5.385181e-003
1.739505e+003,-5.731216e-003
1.741433e+003,-5.437736e-003
1.743362e+003,-5.227546e-003
1.745290e+003,-5.051971e-003
1.747219e+003,-5.204989e-003
1.749147e+003,-5.535170e-003
1.751076e+003,-5.604683e-003
1.753004e+003,-4.847984e-003
1.754933e+003,-4.512230e-003
1.756861e+003,-4.585218e-003
1.758790e+003,-4.405021e-003
1.760718e+003,-4.768158e-003
1.762647e+003,-4.699560e-003
1.764575e+003,-4.151865e-003
1.766504e+003,-4.374877e-003
1.768432e+003,-4.642491e-003
1.770361e+003,-4.890087e-003
1.772289e+003,-5.295995e-003
1.774218e+003,-4.672453e-003
1.776146e+003,-4.103356e-003
1.778075e+003,-3.930840e-003
1.780003e+003,-4.043287e-003
1.781932e+003,-4.049262e-003
1.783860e+003,-4.056089e-003
1.785789e+003,-3.923156e-003
1.787717e+003,-3.901353e-003
1.789646e+003,-4.290830e-003
1.791574e+003,-4.715391e-003
1.793503e+003,-4.365824e-003
1.795431e+003,-3.782497e-003
1.797360e+003,-3.868448e-003
1.799288e+003,-4.148911e-003
1.801217e+003,-4.208277e-003
1.803145e+003,-3.900827e-003
1.805074e+003,-3.766073e-003
1.807002e+003,-3.723697e-003
1.808931e+003,-3.880369e-003
1.810859e+003,-3.956057e-003
1.812788e+003,-3.888152e-003
1.814716e+003,-3.871995e-003
1.816645e+003,-3.961639e-003
1.818573e+003,-3.937637e-003
1.820502e+003,-3.891862e-003
1.822430e+003,-3.938031e-003
1.824359e+003,-4.287123e-003
1.826287e+003,-4.235906e-003
1.828216e+003,-4.343517e-003
1.830144e+003,-4.501572e-003
1.832073e+003,-4.152915e-003
1.834001e+003,-3.999756e-003
1.835930e+003,-4.086091e-003
1.837858e+003,-4.072830e-003
1.839787e+003,-3.911565e-003
1.841715e+003,-4.191705e-003
1.843644e+003,-4.946730e-003
1.845572e+003,-4.643606e-003
1.847501e+003,-4.164500e-003
1.849429e+003,-3.998279e-003
1.851358e+003,-3.890483e-003
1.853286e+003,-3.852159e-003
1.855215e+003,-3.894588e-003
1.857143e+003,-3.941676e-003
1.859072e+003,-3.978810e-003
1.861000e+003,-3.977234e-003
1.862929e+003,-3.931004e-003
1.864857e+003,-3.970208e-003
1.866786e+003,-4.279118e-003
1.868714e+003,-4.560726e-003
1.870643e+003,-4.237448e-003
1.872571e+003,-3.919709e-003
1.874500e+003,-3.813306e-003
1.876428e+003,-3.650269e-003
1.878357e+003,-3.544293e-003
1.880285e+003,-3.549748e-003
1.882214e+003,-3.578602e-003
1.884142e+003,-3.631803e-003
1.886071e+003,-3.643237e-003
1.887999e+003,-3.840139e-003
1.889928e+003,-3.921416e-003
1.891856e+003,-3.566081e-003
1.893785e+003,-3.426128e-003
1.895713e+003,-3.422775e-003
1.897642e+003,-3.465969e-003
1.899570e+003,-3.429612e-003
1.901499e+003,-3.357121e-003
1.903427e+003,-3.329403e-003
1.905356e+003,-3.362776e-003
1.907284e+003,-3.342588e-003
1.909213e+003,-3.409691e-003
1.911141e+003,-3.363105e-003
1.913070e+003,-3.291982e-003
1.914998e+003,-3.338938e-003
1.916927e+003,-3.699156e-003
1.918855e+003,-3.652437e-003
1.920784e+003,-3.405220e-003
1.922712e+003,-3.440296e-003
1.924641e+003,-3.388058e-003
1.926569e+003,-3.315790e-003
1.928498e+003,-3.308687e-003
1.930426e+003,-3.350512e-003
1.932355e+003,-3.397428e-003
1.934283e+003,-3.473233e-003
1.936212e+003,-3.505116e-003
1.938140e+003,-3.457554e-003
1.940069e+003,-3.495683e-003
1.941997e+003,-3.764135e-003
1.943926e+003,-3.738151e-003
1.945854e+003,-3.549091e-003
1.947783e+003,-3.493251e-003
1.949711e+003,-3.462123e-003
1.951640e+003,-3.450487e-003
1.953568e+003,-3.492495e-003
1.955497e+003,-3.524113e-003
1.957425e+003,-3.601309e-003
1.959354e+003,-3.689695e-003
1.961282e+003,-3.623325e-003
1.963211e+003,-3.582250e-003
1.965139e+003,-3.599042e-003
1.967068e+003,-3.599042e-003
1.968996e+003,-3.557504e-003
1.970925e+003,-3.490161e-003
1.972853e+003,-3.400946e-003
1.974782e+003,-3.430960e-003
1.976710e+003,-3.466659e-003
1.978639e+003,-3.439310e-003
1.980567e+003,-3.422084e-003
1.982496e+003,-3.438160e-003
1.984424e+003,-3.423366e-003
1.986353e+003,-3.380990e-003
1.988281e+003,-3.315001e-003
1.990210e+003,-3.320097e-003
1.992138e+003,-3.338478e-003
1.994067e+003,-3.229598e-003
1.995995e+003,-3.220553e-003
1.997924e+003,-3.214337e-003
1.999852e+003,-3.261926e-003
2.001781e+003,-3.265938e-003
2.003709e+003,-3.183189e-003
2.005638e+003,-3.117104e-003
2.007566e+003,-2.985693e-003
2.009495e+003,-2.989313e-003
2.011423e+003,-2.929748e-003
2.013352e+003,-2.913292e-003
2.015280e+003,-2.999020e-003
2.017208e+003,-2.986318e-003
2.019137e+003,-2.846968e-003
2.021066e+003,-2.815794e-003
2.022994e+003,-2.877416e-003
2.024922e+003,-2.912634e-003
2.026851e+003,-2.909902e-003
2.028780e+003,-2.954398e-003
2.030708e+003,-2.936067e-003
2.032636e+003,-2.924975e-003
2.034565e+003,-2.947651e-003
2.036494e+003,-2.888936e-003
2.038422e+003,-2.841701e-003
2.040350e+003,-2.861221e-003
2.042279e+003,-2.854868e-003
2.044208e+003,-2.849173e-003
2.046136e+003,-2.939522e-003
2.048064e+003,-2.927378e-003
2.049993e+003,-2.759003e-003
2.051921e+003,-2.638122e-003
2.053850e+003,-2.638550e-003
2.055778e+003,-2.750608e-003
2.057707e+003,-2.833932e-003
2.059635e+003,-2.777144e-003
2.061564e+003,-2.769374e-003
2.063492e+003,-2.832813e-003
2.065421e+003,-2.803350e-003
2.067349e+003,-2.679451e-003
2.069278e+003,-2.616846e-003
2.071206e+003,-2.622379e-003
2.073135e+003,-2.580814e-003
2.075063e+003,-2.554759e-003
2.076992e+003,-2.487689e-003
2.078920e+003,-2.477805e-003
2.080849e+003,-2.530976e-003
2.082777e+003,-2.488216e-003
2.084706e+003,-2.435963e-003
2.086634e+003,-2.357604e-003
2.088563e+003,-2.261959e-003
2.090491e+003,-2.182447e-003
2.092420e+003,-2.051182e-003
2.094348e+003,-2.011013e-003
2.096277e+003,-2.115418e-003
2.098205e+003,-2.205623e-003
2.100134e+003,-2.020544e-003
2.102062e+003,-1.877551e-003
2.103991e+003,-1.832318e-003
2.105919e+003,-1.829646e-003
2.107848e+003,-1.847957e-003
2.109776e+003,-1.802325e-003
2.111705e+003,-1.699099e-003
2.113633e+003,-1.593669e-003
2.115562e+003,-1.630840e-003
2.117490e+003,-1.663254e-003
2.119419e+003,-1.588354e-003
2.121347e+003,-1.488214e-003
2.123276e+003,-1.449974e-003
2.125204e+003,-1.477449e-003
2.127133e+003,-1.501851e-003
2.129061e+003,-1.478473e-003
2.130990e+003,-1.332064e-003
2.132918e+003,-1.330247e-003
2.134847e+003,-1.313731e-003
2.136775e+003,-1.229387e-003
2.138704e+003,-1.192909e-003
2.140632e+003,-1.205960e-003
2.142561e+003,-1.176122e-003
2.144489e+003,-1.212503e-003
2.146418e+003,-1.292787e-003
2.148346e+003,-1.244519e-003
2.150275e+003,-1.211644e-003
2.152203e+003,-1.272800e-003
2.154132e+003,-1.258560e-003
2.156060e+003,-1.218285e-003
2.157989e+003,-1.177345e-003
2.159917e+003,-1.170901e-003
2.161846e+003,-1.115118e-003
2.163774e+003,-1.087554e-003
2.165703e+003,-1.076548e-003
2.167631e+003,-1.059063e-003
2.169560e+003,-1.059757e-003
2.171488e+003,-1.140367e-003
2.173417e+003,-1.189472e-003
2.175345e+003,-1.154544e-003
2.177274e+003,-1.201830e-003
2.179202e+003,-1.297180e-003
2.181131e+003,-1.311319e-003
2.183059e+003,-1.146480e-003
2.184988e+003,-1.071590e-003
2.186916e+003,-1.180088e-003
2.188845e+003,-1.352709e-003
2.190773e+003,-1.349109e-003
2.192702e+003,-1.206786e-003
2.194630e+003,-1.081671e-003
2.196559e+003,-1.029314e-003
2.198487e+003,-1.037413e-003
2.200416e+003,-1.104608e-003
2.202344e+003,-1.101336e-003
2.204273e+003,-1.088017e-003
2.206201e+003,-1.134286e-003
2.208130e+003,-1.148595e-003
2.210058e+003,-1.124900e-003
2.211987e+003,-1.114721e-003
2.213915e+003,-1.169051e-003
2.215844e+003,-1.140598e-003
2.217772e+003,-1.036024e-003
2.219701e+003,-9.728846e-004
2.221629e+003,-1.081407e-003
2.223558e+003,-1.203647e-003
2.225486e+003,-1.114821e-003
2.227415e+003,-1.042206e-003
2.229343e+003,-1.058105e-003
2.231272e+003,-1.101865e-003
2.233200e+003,-1.165284e-003
2.235129e+003,-1.223836e-003
2.237057e+003,-1.264904e-003
2.238986e+003,-1.198691e-003
2.240914e+003,-1.177246e-003
2.242843e+003,-1.178865e-003
2.244771e+003,-1.141325e-003
2.246700e+003,-1.208835e-003
2.248628e+003,-1.253605e-003
2.250557e+003,-1.278746e-003
2.252485e+003,-1.324533e-003
2.254414e+003,-1.320668e-003
2.256342e+003,-1.327208e-003
2.258271e+003,-1.382072e-003
2.260199e+003,-1.358390e-003
2.262128e+003,-1.334839e-003
2.264056e+003,-1.396209e-003
2.265985e+003,-1.459386e-003
2.267913e+003,-1.425206e-003
2.269842e+003,-1.479298e-003
2.271770e+003,-1.586604e-003
2.273699e+003,-1.547185e-003
2.275627e+003,-1.546360e-003
2.277556e+003,-1.522851e-003
2.279484e+003,-1.542232e-003
2.281413e+003,-1.642459e-003
2.283341e+003,-1.741904e-003
2.285270e+003,-1.741838e-003
2.287198e+003,-1.704446e-003
2.289127e+003,-1.734511e-003
2.291055e+003,-1.662165e-003
2.292984e+003,-1.669394e-003
2.294912e+003,-1.801236e-003
2.296841e+003,-1.833308e-003
2.298769e+003,-1.844064e-003
2.300698e+003,-1.930070e-003
2.302626e+003,-1.907539e-003
2.304555e+003,-1.792459e-003
2.306483e+003,-1.827336e-003
2.308412e+003,-1.903713e-003
2.310340e+003,-1.962990e-003
2.312269e+003,-2.099030e-003
2.314197e+003,-2.229984e-003
2.316125e+003,-2.203678e-003
2.318054e+003,-2.266343e-003
2.319983e+003,-2.392567e-003
2.321911e+003,-2.367193e-003
2.323840e+003,-2.385186e-003
2.325768e+003,-2.404957e-003
2.327697e+003,-2.408944e-003
2.329625e+003,-2.562171e-003
2.331553e+003,-2.695883e-003
2.333482e+003,-2.699835e-003
2.335411e+003,-2.655905e-003
2.337339e+003,-2.554199e-003
2.339268e+003,-2.570471e-003
2.341196e+003,-2.599555e-003
2.343125e+003,-2.419323e-003
2.345053e+003,-2.115154e-003
2.346981e+003,-1.689593e-003
2.348910e+003,-1.450767e-003
2.350839e+003,-1.711112e-003
2.352767e+003,-2.134938e-003
2.354696e+003,-2.445682e-003
2.356624e+003,-2.575544e-003
2.358552e+003,-2.717879e-003
2.360481e+003,-2.798181e-003
2.362409e+003,-2.757160e-003
2.364338e+003,-2.551070e-003
2.366267e+003,-2.398828e-003
2.368195e+003,-2.240401e-003
2.370124e+003,-1.938449e-003
2.372052e+003,-1.640743e-003
2.373980e+003,-1.456018e-003
2.375909e+003,-1.253902e-003
2.377838e+003,-8.463790e-004
2.379766e+003,-5.997095e-004
2.381695e+003,-4.683952e-004
2.383623e+003,-3.317769e-004
2.385552e+003,-3.667052e-004
2.387480e+003,-3.911037e-004
2.389408e+003,-3.727967e-004
2.391337e+003,-3.824303e-004
2.393266e+003,-2.996933e-004
2.395194e+003,-1.644462e-004
2.397123e+003,-6.831701e-005
2.399051e+003,-5.927275e-005
2.400979e+003,-7.418078e-005
2.402908e+003,-4.380099e-005
2.404836e+003,1.875427e-005
2.406765e+003,-2.879252e-005
2.408694e+003,1.027156e-006
2.410622e+003,1.049813e-004
2.412551e+003,1.376938e-004
2.414479e+003,1.430964e-004
2.416407e+003,2.252042e-004
2.418336e+003,2.081316e-004
2.420264e+003,1.633153e-004
2.422193e+003,2.567321e-004
2.424122e+003,2.753649e-004
2.426050e+003,2.108499e-004
2.427979e+003,3.106764e-004
2.429907e+003,3.918211e-004
2.431835e+003,4.237259e-004
2.433764e+003,3.573651e-004
2.435692e+003,3.848235e-004
2.437621e+003,5.148436e-004
2.439550e+003,6.250925e-004
2.441478e+003,7.278355e-004
2.443406e+003,7.244501e-004
2.445335e+003,7.489446e-004
2.447263e+003,8.250587e-004
2.449192e+003,8.334244e-004
2.451121e+003,8.358811e-004
2.453049e+003,8.599502e-004
2.454978e+003,8.481313e-004
2.456906e+003,8.500568e-004
2.458834e+003,1.023788e-003
2.460763e+003,1.067631e-003
2.462691e+003,9.874890e-004
2.464620e+003,1.013758e-003
2.466549e+003,1.128021e-003
2.468477e+003,1.186194e-003
2.470406e+003,1.141841e-003
2.472334e+003,1.125463e-003
2.474262e+003,1.159116e-003
2.476191e+003,1.144598e-003
2.478119e+003,1.159880e-003
2.480048e+003,1.211611e-003
2.481977e+003,1.305054e-003
2.483905e+003,1.377809e-003
2.485833e+003,1.469792e-003
2.487762e+003,1.522424e-003
2.489690e+003,1.575595e-003
2.491619e+003,1.583044e-003
2.493547e+003,1.440370e-003
2.495476e+003,1.324364e-003
2.497405e+003,1.452870e-003
2.499333e+003,1.647996e-003
2.501261e+003,1.612742e-003
2.503190e+003,1.531834e-003
2.505118e+003,1.416103e-003
2.507047e+003,1.428103e-003
2.508975e+003,1.552118e-003
2.510904e+003,1.589396e-003
2.512833e+003,1.641344e-003
2.514761e+003,1.699951e-003
2.516689e+003,1.690471e-003
2.518618e+003,1.710163e-003
2.520546e+003,1.702113e-003
2.522475e+003,1.715752e-003
2.524403e+003,1.792934e-003
2.526332e+003,1.873790e-003
2.528260e+003,1.886669e-003
2.530189e+003,1.897950e-003
2.532117e+003,1.864273e-003
2.534046e+003,1.825774e-003
2.535974e+003,1.840481e-003
2.537903e+003,1.854423e-003
2.539831e+003,1.856453e-003
2.541760e+003,1.860114e-003
2.543688e+003,1.931963e-003
2.545617e+003,1.971071e-003
2.547545e+003,1.998864e-003
2.549474e+003,2.027026e-003
2.551402e+003,2.080458e-003
2.553331e+003,2.113153e-003
2.555259e+003,2.083921e-003
2.557188e+003,2.091978e-003
2.559116e+003,2.111688e-003
2.561045e+003,2.134996e-003
2.562973e+003,2.191605e-003
2.564902e+003,2.123508e-003
2.566830e+003,2.148115e-003
2.568759e+003,2.168061e-003
2.570687e+003,2.232401e-003
2.572616e+003,2.250287e-003
2.574544e+003,2.194536e-003
2.576473e+003,2.197466e-003
2.578401e+003,2.155008e-003
2.580330e+003,2.151079e-003
2.582258e+003,2.277265e-003
2.584187e+003,2.257414e-003
2.586115e+003,2.298050e-003
2.588044e+003,2.313406e-003
2.589972e+003,2.204993e-003
2.591901e+003,2.241461e-003
2.593829e+003,2.300482e-003
2.595758e+003,2.295352e-003
2.597686e+003,2.335259e-003
2.599615e+003,2.416883e-003
2.601543e+003,2.503587e-003
2.603472e+003,2.599075e-003
2.605400e+003,2.522117e-003
2.607329e+003,2.426212e-003
2.609257e+003,2.403622e-003
2.611186e+003,2.425212e-003
2.613114e+003,2.533048e-003
2.615043e+003,2.525449e-003
2.616971e+003,2.504854e-003
2.618900e+003,2.455001e-003
2.620828e+003,2.453269e-003
2.622757e+003,2.529449e-003
2.624685e+003,2.535981e-003
2.626614e+003,2.608209e-003
2.628542e+003,2.700920e-003
2.630471e+003,2.731694e-003
2.632399e+003,2.766906e-003
2.634328e+003,2.846743e-003
2.636256e+003,2.843208e-003
2.638185e+003,2.806589e-003
2.640113e+003,2.849845e-003
2.642042e+003,2.914620e-003
2.643970e+003,2.938604e-003
2.645899e+003,3.012768e-003
2.647827e+003,3.015136e-003
2.649756e+003,2.987077e-003
2.651684e+003,3.028149e-003
2.653613e+003,3.074530e-003
2.655541e+003,3.100959e-003
2.657470e+003,3.151654e-003
2.659398e+003,3.158662e-003
2.661327e+003,3.075931e-003
2.663255e+003,3.136635e-003
2.665184e+003,3.170545e-003
2.667112e+003,3.187700e-003
2.669041e+003,3.277664e-003
2.670969e+003,3.325607e-003
2.672898e+003,3.323003e-003
2.674826e+003,3.242177e-003
2.676755e+003,3.282204e-003
2.678683e+003,3.459283e-003
2.680612e+003,3.544025e-003
2.682540e+003,3.562699e-003
2.684469e+003,3.565906e-003
2.686397e+003,3.562866e-003
2.688326e+003,3.547599e-003
2.690254e+003,3.628449e-003
2.692183e+003,3.728964e-003
2.694111e+003,3.722347e-003
2.696040e+003,3.751255e-003
2.697968e+003,3.845748e-003
2.699897e+003,3.882855e-003
2.701825e+003,3.989917e-003
2.703754e+003,3.981089e-003
2.705682e+003,3.942535e-003
2.707611e+003,3.922909e-003
2.709539e+003,3.933240e-003
2.711468e+003,4.066233e-003
2.713396e+003,4.137077e-003
2.715325e+003,4.144972e-003
2.717253e+003,4.142128e-003
2.719182e+003,4.072688e-003
2.721110e+003,4.137545e-003
2.723039e+003,4.316245e-003
2.724967e+003,4.474630e-003
2.726896e+003,4.595131e-003
2.728824e+003,4.504560e-003
2.730753e+003,4.464453e-003
2.732681e+003,4.603536e-003
2.734610e+003,4.562885e-003
2.736538e+003,4.517048e-003
2.738467e+003,4.516177e-003
2.740395e+003,4.510117e-003
2.742324e+003,4.629188e-003
2.744252e+003,4.807219e-003
2.746181e+003,4.843002e-003
2.748109e+003,4.885422e-003
2.750038e+003,5.005132e-003
2.751966e+003,5.133257e-003
2.753895e+003,5.161087e-003
2.755823e+003,5.143081e-003
2.757752e+003,5.313575e-003
2.759680e+003,5.479304e-003
2.761609e+003,5.604347e-003
2.763537e+003,5.806653e-003
2.765466e+003,6.011472e-003
2.767394e+003,6.152765e-003
2.769323e+003,6.304493e-003
2.771251e+003,6.448842e-003
2.773180e+003,6.650902e-003
2.775108e+003,7.004794e-003
2.777037e+003,7.397765e-003
2.778965e+003,7.788325e-003
2.780894e+003,8.127616e-003
2.782822e+003,8.518867e-003
2.784750e+003,8.942434e-003
2.786679e+003,9.292748e-003
2.788608e+003,9.631590e-003
2.790536e+003,9.978834e-003
2.792465e+003,1.036663e-002
2.794393e+003,1.067426e-002
2.796322e+003,1.094064e-002
2.798250e+003,1.134811e-002
2.800178e+003,1.179371e-002
2.802107e+003,1.202072e-002
2.804036e+003,1.211785e-002
2.805964e+003,1.225116e-002
2.807893e+003,1.235570e-002
2.809821e+003,1.247896e-002
2.811750e+003,1.247493e-002
2.813678e+003,1.241901e-002
2.815606e+003,1.235809e-002
2.817535e+003,1.222601e-002
2.819464e+003,1.202730e-002
2.821392e+003,1.184118e-002
2.823321e+003,1.170251e-002
2.825249e+003,1.147135e-002
2.827177e+003,1.120474e-002
2.829106e+003,1.080597e-002
2.831034e+003,1.051991e-002
2.832963e+003,1.025653e-002
2.834892e+003,9.902284e-003
2.836820e+003,9.537151e-003
2.838749e+003,9.173982e-003
2.840677e+003,8.738459e-003
2.842605e+003,8.220634e-003
2.844534e+003,7.681605e-003
2.846462e+003,7.261558e-003
2.848391e+003,6.818051e-003
2.850320e+003,6.441107e-003
2.852248e+003,6.229934e-003
2.854177e+003,6.147254e-003
2.856105e+003,6.163049e-003
2.858033e+003,6.210035e-003
2.859962e+003,6.146615e-003
2.861890e+003,6.213128e-003
2.863819e+003,6.193331e-003
2.865748e+003,6.168225e-003
2.867676e+003,6.296088e-003
2.869604e+003,6.293971e-003
2.871533e+003,6.153102e-003
2.873461e+003,6.232824e-003
2.875390e+003,6.407782e-003
2.877319e+003,6.508471e-003
2.879247e+003,6.642357e-003
2.881176e+003,6.797957e-003
2.883104e+003,6.846762e-003
2.885032e+003,6.716819e-003
2.886961e+003,6.541333e-003
2.888889e+003,6.594449e-003
2.890818e+003,6.586476e-003
2.892747e+003,6.539517e-003
2.894675e+003,6.437542e-003
2.896604e+003,6.333877e-003
2.898532e+003,6.314612e-003
2.900460e+003,6.201498e-003
2.902389e+003,6.059920e-003
2.904317e+003,5.893331e-003
2.906246e+003,5.818809e-003
2.908175e+003,5.706797e-003
2.910103e+003,5.550882e-003
2.912031e+003,5.358859e-003
2.913960e+003,5.134464e-003
2.915888e+003,4.905159e-003
2.917817e+003,4.857007e-003
2.919745e+003,5.015356e-003
2.921674e+003,5.107643e-003
2.923603e+003,5.155923e-003
2.925531e+003,5.232579e-003
2.927459e+003,5.421123e-003
2.929388e+003,5.541183e-003
2.931316e+003,5.601963e-003
2.933245e+003,5.680645e-003
2.935173e+003,5.689206e-003
2.937102e+003,5.818339e-003
2.939031e+003,5.912308e-003
2.940959e+003,5.858974e-003
2.942887e+003,5.801145e-003
2.944816e+003,5.650131e-003
2.946744e+003,5.590317e-003
2.948673e+003,5.337055e-003
2.950601e+003,4.964477e-003
2.952530e+003,4.691784e-003
2.954458e+003,4.472555e-003
2.956387e+003,4.050714e-003
2.958315e+003,3.616587e-003
2.960244e+003,3.340900e-003
2.962172e+003,3.150786e-003
2.964101e+003,2.946744e-003
2.966029e+003,2.718324e-003
2.967958e+003,2.411318e-003
2.969886e+003,2.160436e-003
2.971815e+003,1.841080e-003
2.973743e+003,1.632730e-003
2.975672e+003,1.546299e-003
2.977600e+003,1.425012e-003
2.979529e+003,1.285812e-003
2.981457e+003,1.212508e-003
2.983386e+003,1.035845e-003
2.985314e+003,7.917302e-004
2.987243e+003,6.792154e-004
2.989171e+003,7.445634e-004
2.991100e+003,6.816711e-004
2.993028e+003,5.528618e-004
2.994957e+003,4.938785e-004
2.996885e+003,4.628640e-004
2.998814e+003,4.089008e-004
3.000742e+003,3.607807e-004
3.002671e+003,3.114059e-004
3.004599e+003,2.304090e-004
3.006528e+003,2.250716e-004
3.008456e+003,3.043434e-004
3.010385e+003,2.561354e-004
3.012313e+003,2.092587e-004
3.014242e+003,2.130710e-004
3.016170e+003,1.977558e-004
3.018099e+003,1.895349e-004
3.020027e+003,2.126401e-004
3.021956e+003,1.272534e-004
3.023884e+003,7.923072e-005
3.025813e+003,4.870977e-005
3.027741e+003,-8.855826e-005
3.029670e+003,-1.759382e-005
3.031598e+003,1.086933e-004
3.033527e+003,1.214201e-004
3.035455e+003,-3.717480e-005
3.037384e+003,-1.731902e-004
3.039312e+003,-1.712692e-004
3.041241e+003,-9.402422e-005
3.043169e+003,-9.601183e-005
3.045098e+003,-1.513962e-004
3.047026e+003,-2.268095e-004
3.048955e+003,-2.112444e-004
3.050883e+003,-2.586335e-004
3.052812e+003,-3.661755e-004
3.054740e+003,-3.582631e-004
3.056669e+003,-2.902235e-004
3.058597e+003,-2.648921e-004
3.060526e+003,-4.143754e-004
3.062454e+003,-4.987453e-004
3.064383e+003,-5.309465e-004
3.066311e+003,-5.787309e-004
3.068240e+003,-4.918281e-004
3.070168e+003,-5.548063e-004
3.072097e+003,-6.576102e-004
3.074025e+003,-5.961690e-004
3.075954e+003,-6.369653e-004
3.077882e+003,-7.471921e-004
3.079811e+003,-7.672033e-004
3.081739e+003,-7.786804e-004
3.083668e+003,-8.401288e-004
3.085596e+003,-9.578090e-004
3.087525e+003,-8.767027e-004
3.089453e+003,-7.554613e-004
3.091382e+003,-7.794411e-004
3.093310e+003,-8.388722e-004
3.095239e+003,-9.292433e-004
3.097167e+003,-8.884414e-004
3.099096e+003,-8.185335e-004
3.101024e+003,-9.341366e-004
3.102953e+003,-9.702067e-004
3.104881e+003,-9.037178e-004
3.106810e+003,-8.687334e-004
3.108738e+003,-8.374170e-004
3.110667e+003,-1.040619e-003
3.112595e+003,-1.196444e-003
3.114524e+003,-1.094726e-003
3.116452e+003,-1.007563e-003
3.118381e+003,-9.922573e-004
3.120309e+003,-9.825710e-004
3.122238e+003,-1.029248e-003
3.124166e+003,-1.060584e-003
3.126095e+003,-1.054138e-003
3.128023e+003,-9.643220e-004
3.129952e+003,-9.534119e-004
3.131880e+003,-1.095354e-003
3.133809e+003,-1.286080e-003
3.135737e+003,-1.301310e-003
3.137666e+003,-1.236722e-003
3.139594e+003,-1.257668e-003
3.141523e+003,-1.255157e-003
3.143451e+003,-1.160360e-003
3.145380e+003,-1.134385e-003
3.147308e+003,-1.103154e-003
3.149237e+003,-1.161814e-003
3.151165e+003,-1.101072e-003
3.153094e+003,-1.064847e-003
3.155022e+003,-1.194230e-003
3.156951e+003,-1.372263e-003
3.158879e+003,-1.330247e-003
3.160808e+003,-1.199649e-003
3.162736e+003,-1.183689e-003
3.164665e+003,-1.174602e-003
3.166593e+003,-1.171562e-003
3.168522e+003,-1.203747e-003
3.170450e+003,-1.273064e-003
3.172379e+003,-1.226149e-003
3.174307e+003,-1.069078e-003
3.176236e+003,-9.761906e-004
3.178164e+003,-1.054138e-003
3.180093e+003,-1.133361e-003
3.182021e+003,-1.219838e-003
3.183950e+003,-1.209826e-003
3.185878e+003,-1.188183e-003
3.187807e+003,-1.259221e-003
3.189735e+003,-1.373980e-003
3.191664e+003,-1.418039e-003
3.193592e+003,-1.377581e-003
3.195521e+003,-1.292687e-003
3.197449e+003,-1.228726e-003
3.199378e+003,-1.235334e-003
3.201306e+003,-1.152726e-003
3.203235e+003,-1.114622e-003
3.205163e+003,-1.178039e-003
3.207092e+003,-1.189241e-003
3.209020e+003,-1.075325e-003
3.210948e+003,-9.970176e-004
3.212877e+003,-1.098197e-003
3.214806e+003,-1.133757e-003
3.216734e+003,-1.066996e-003
3.218663e+003,-1.045511e-003
3.220591e+003,-8.869864e-004
3.222520e+003,-8.613592e-004
3.224448e+003,-8.608963e-004
3.226376e+003,-8.745863e-004
3.228305e+003,-8.236927e-004
3.230234e+003,-6.719353e-004
3.232162e+003,-5.641712e-004
3.234091e+003,-5.106928e-004
3.236019e+003,-3.871312e-004
3.237948e+003,-3.480661e-004
3.239876e+003,-3.300884e-004
3.241804e+003,-2.925082e-004
3.243733e+003,-3.596536e-004
3.245662e+003,-3.230030e-004
3.247590e+003,-2.268095e-004
3.249519e+003,-1.136680e-004
3.251447e+003,8.360523e-005
3.253375e+003,8.466572e-005
3.255304e+003,1.644091e-004
3.257232e+003,3.642627e-004
3.259161e+003,4.060154e-004
3.261090e+003,4.418683e-004
3.263018e+003,3.271562e-004
3.264947e+003,3.649259e-004
3.266875e+003,5.474210e-004
3.268803e+003,5.093036e-004
3.270732e+003,5.235019e-004
3.272660e+003,5.336532e-004
3.274589e+003,6.021977e-004
3.276518e+003,6.474244e-004
3.278446e+003,5.932060e-004
3.280375e+003,5.017403e-004
3.282303e+003,4.553015e-004
3.284231e+003,5.636443e-004
3.286160e+003,7.050016e-004
3.288088e+003,5.860394e-004
3.290017e+003,4.744735e-004
3.291946e+003,3.755378e-004
3.293874e+003,3.104443e-004
3.295802e+003,2.897544e-004
3.297731e+003,1.650057e-004
3.299659e+003,1.372297e-004
3.301588e+003,1.938111e-004
3.303516e+003,-5.953779e-005
3.305445e+003,-2.411488e-004
3.307374e+003,-2.892632e-004
3.309302e+003,-3.380344e-004
3.311230e+003,-4.930527e-004
3.313159e+003,-6.513573e-004
3.315087e+003,-7.025027e-004
3.317016e+003,-8.661210e-004
3.318944e+003,-9.747690e-004
3.320873e+003,-9.554947e-004
3.322802e+003,-8.977660e-004
3.324730e+003,-1.041545e-003
3.326658e+003,-1.309965e-003
3.328587e+003,-1.404664e-003
3.330515e+003,-1.385739e-003
3.332444e+003,-1.411632e-003
3.334372e+003,-1.505516e-003
3.336301e+003,-1.535893e-003
3.338229e+003,-1.537379e-003
3.340158e+003,-1.624601e-003
3.342086e+003,-1.665763e-003
3.344015e+003,-1.585317e-003
3.345943e+003,-1.570098e-003
3.347872e+003,-1.573300e-003
3.349800e+003,-1.596673e-003
3.351729e+003,-1.674708e-003
3.353657e+003,-1.779128e-003
3.355586e+003,-1.939339e-003
3.357514e+003,-2.024007e-003
3.359443e+003,-1.929377e-003
3.361371e+003,-2.033604e-003
3.363300e+003,-2.225138e-003
3.365229e+003,-2.152050e-003
3.367157e+003,-2.195733e-003
3.369085e+003,-2.363206e-003
3.371014e+003,-2.444002e-003
3.372942e+003,-2.606142e-003
3.374871e+003,-2.698024e-003
3.376799e+003,-2.734112e-003
3.378728e+003,-2.885776e-003
3.380656e+003,-3.077231e-003
3.382585e+003,-3.117729e-003
3.384513e+003,-3.122335e-003
3.386442e+003,-3.053115e-003
3.388370e+003,-3.022120e-003
3.390299e+003,-3.268470e-003
3.392227e+003,-3.500843e-003
3.394156e+003,-3.465016e-003
3.396084e+003,-3.446410e-003
3.398013e+003,-3.410776e-003
3.399941e+003,-3.402688e-003
3.401870e+003,-3.497557e-003
3.403798e+003,-3.510408e-003
3.405727e+003,-3.480760e-003
3.407655e+003,-3.580180e-003
3.409584e+003,-3.627367e-003
3.411512e+003,-3.617148e-003
3.413441e+003,-3.583071e-003
3.415369e+003,-3.647213e-003
3.417298e+003,-3.583926e-003
3.419226e+003,-3.659041e-003
3.421155e+003,-3.754740e-003
3.423083e+003,-3.708947e-003
3.425012e+003,-3.799445e-003
3.426940e+003,-3.829990e-003
3.428869e+003,-3.812616e-003
3.430797e+003,-3.652010e-003
3.432726e+003,-3.586883e-003
3.434654e+003,-3.759011e-003
3.436583e+003,-3.731581e-003
3.438511e+003,-3.720773e-003
3.440440e+003,-3.886116e-003
3.442368e+003,-3.971488e-003
3.444297e+003,-4.086026e-003
3.446225e+003,-4.086091e-003
3.448154e+003,-3.962853e-003
3.450082e+003,-4.021916e-003
3.452011e+003,-4.138475e-003
3.453939e+003,-4.133978e-003
3.455868e+003,-3.969650e-003
3.457796e+003,-3.911466e-003
3.459725e+003,-4.035901e-003
3.461653e+003,-4.207161e-003
3.463582e+003,-4.153867e-003
3.465510e+003,-4.168340e-003
3.467439e+003,-4.221468e-003
3.469367e+003,-4.204438e-003
3.471296e+003,-4.254215e-003
3.473224e+003,-4.286762e-003
3.475153e+003,-4.224421e-003
3.477081e+003,-4.203420e-003
3.479010e+003,-4.335710e-003
3.480938e+003,-4.417321e-003
3.482867e+003,-4.308546e-003
3.484795e+003,-4.146811e-003
3.486724e+003,-3.907493e-003
3.488652e+003,-3.846871e-003
3.490581e+003,-4.088422e-003
3.492509e+003,-4.167092e-003
3.494438e+003,-4.206899e-003
3.496366e+003,-4.354441e-003
3.498295e+003,-4.245126e-003
3.500223e+003,-4.279249e-003
3.502152e+003,-4.530855e-003
3.504080e+003,-4.456021e-003
3.506009e+003,-4.138180e-003
3.507937e+003,-4.181664e-003
3.509866e+003,-4.223338e-003
3.511794e+003,-4.263402e-003
3.513723e+003,-4.390655e-003
3.515651e+003,-4.432703e-003
3.517580e+003,-4.203420e-003
3.519508e+003,-4.146089e-003
3.521437e+003,-4.230164e-003
3.523365e+003,-4.269800e-003
3.525294e+003,-4.288140e-003
3.527222e+003,-4.417321e-003
3.529151e+003,-4.474550e-003
3.531079e+003,-4.261039e-003
3.533008e+003,-4.127053e-003
3.534936e+003,-4.182746e-003
3.536865e+003,-4.086386e-003
3.538793e+003,-4.021916e-003
3.540722e+003,-4.252509e-003
3.542650e+003,-4.484651e-003
3.544579e+003,-4.513771e-003
3.546507e+003,-4.565710e-003
3.548436e+003,-4.224749e-003
3.550364e+003,-3.977332e-003
3.552293e+003,-4.151734e-003
3.554221e+003,-4.250835e-003
3.556150e+003,-4.236332e-003
3.558078e+003,-4.243387e-003
3.560007e+003,-4.200237e-003
3.561935e+003,-4.294111e-003
3.563864e+003,-4.496031e-003
3.565792e+003,-4.948433e-003
3.567721e+003,-4.910694e-003
3.569649e+003,-4.486029e-003
3.571578e+003,-4.231968e-003
3.573506e+003,-4.080019e-003
3.575435e+003,-3.943514e-003
3.577363e+003,-4.123771e-003
3.579292e+003,-4.394000e-003
3.581220e+003,-4.199253e-003
3.583149e+003,-4.087962e-003
3.585077e+003,-4.457137e-003
3.587006e+003,-4.969071e-003
3.588934e+003,-4.820820e-003
3.590863e+003,-4.309531e-003
3.592791e+003,-4.234265e-003
3.594720e+003,-4.249096e-003
3.596648e+003,-4.305430e-003
3.598577e+003,-4.361002e-003
3.600505e+003,-4.316355e-003
3.602434e+003,-4.071977e-003
3.604362e+003,-4.192952e-003
3.606291e+003,-4.671830e-003
3.608219e+003,-4.811808e-003
3.610148e+003,-4.500228e-003
3.612076e+003,-4.564234e-003
3.614005e+003,-4.580464e-003
3.615933e+003,-4.605151e-003
3.617862e+003,-4.929794e-003
3.619790e+003,-4.729256e-003
3.621719e+003,-4.290666e-003
3.623647e+003,-4.183600e-003
3.625576e+003,-4.538036e-003
3.627504e+003,-5.761528e-003
3.629433e+003,-5.898966e-003
3.631361e+003,-4.839202e-003
3.633290e+003,-4.599610e-003
3.635218e+003,-4.412794e-003
3.637146e+003,-4.248735e-003
3.639075e+003,-4.240204e-003
3.641004e+003,-4.226686e-003
3.642932e+003,-4.225438e-003
3.644861e+003,-4.571808e-003
3.646789e+003,-5.589735e-003
3.648718e+003,-6.345600e-003
3.650646e+003,-5.824924e-003
3.652574e+003,-4.789820e-003
3.654503e+003,-4.768519e-003
3.656432e+003,-4.699593e-003
3.658360e+003,-4.131057e-003
3.660289e+003,-4.164435e-003
3.662217e+003,-4.375172e-003
3.664146e+003,-4.443657e-003
3.666074e+003,-4.589382e-003
3.668002e+003,-5.160036e-003
3.669931e+003,-5.615477e-003
3.671860e+003,-5.246075e-003
3.673788e+003,-5.812598e-003
3.675717e+003,-5.968649e-003
3.677645e+003,-4.915149e-003
3.679573e+003,-4.618986e-003
3.681502e+003,-4.388818e-003
3.683430e+003,-4.426996e-003
3.685359e+003,-4.719423e-003
3.687288e+003,-5.432173e-003
3.689216e+003,-5.646876e-003
3.691145e+003,-5.055541e-003
3.693073e+003,-4.447495e-003
3.695001e+003,-4.248309e-003
3.696930e+003,-4.481831e-003
3.698858e+003,-4.573808e-003
3.700787e+003,-4.887629e-003
3.702716e+003,-4.864006e-003
3.704644e+003,-4.619838e-003
3.706573e+003,-4.609643e-003
3.708501e+003,-4.857322e-003
3.710429e+003,-5.503633e-003
3.712358e+003,-5.568113e-003
3.714286e+003,-4.734795e-003
3.716215e+003,-4.327607e-003
3.718144e+003,-4.157116e-003
3.720072e+003,-4.199548e-003
3.722000e+003,-4.493571e-003
3.723929e+003,-4.700282e-003
3.725857e+003,-4.744725e-003
3.727786e+003,-4.276165e-003
3.729714e+003,-4.196135e-003
3.731643e+003,-5.074798e-003
3.733572e+003,-5.530525e-003
3.735500e+003,-5.761103e-003
3.737428e+003,-4.983648e-003
3.739357e+003,-4.345354e-003
3.741285e+003,-4.726273e-003
3.743214e+003,-6.183152e-003
3.745142e+003,-5.670260e-003
3.747071e+003,-4.697561e-003
3.749000e+003,-5.457369e-003
3.750928e+003,-5.644652e-003
3.752856e+003,-4.858993e-003
3.754785e+003,-3.880829e-003
3.756713e+003,-3.827264e-003
3.758642e+003,-3.996211e-003
3.760570e+003,-3.916687e-003
3.762499e+003,-3.602722e-003
3.764427e+003,-3.713480e-003
3.766356e+003,-3.872783e-003
3.768284e+003,-4.226325e-003
3.770213e+003,-4.025002e-003
3.772141e+003,-3.392891e-003
3.774070e+003,-3.337294e-003
3.775998e+003,-3.592733e-003
3.777927e+003,-3.927819e-003
3.779855e+003,-3.771197e-003
3.781784e+003,-3.251567e-003
3.783712e+003,-3.567034e-003
3.785641e+003,-3.657004e-003
3.787569e+003,-3.421591e-003
3.789498e+003,-3.210851e-003
3.791426e+003,-3.062919e-003
3.793355e+003,-3.231472e-003
3.795283e+003,-3.527367e-003
3.797212e+003,-3.513957e-003
3.799140e+003,-4.029105e-003
3.801069e+003,-4.695496e-003
3.802997e+003,-4.030747e-003
3.804926e+003,-4.023098e-003
3.806854e+003,-4.317470e-003
3.808783e+003,-3.529405e-003
3.810711e+003,-3.182893e-003
3.812640e+003,-3.428396e-003
3.814568e+003,-4.326951e-003
3.816497e+003,-4.334069e-003
3.818425e+003,-4.184026e-003
3.820354e+003,-4.880553e-003
3.822282e+003,-4.196988e-003
3.824211e+003,-3.496373e-003
3.826139e+003,-3.675239e-003
3.828068e+003,-3.703526e-003
3.829996e+003,-3.793402e-003
3.831925e+003,-3.849827e-003
3.833853e+003,-3.996637e-003
3.835782e+003,-4.532855e-003
3.837710e+003,-4.922291e-003
3.839639e+003,-4.564332e-003
3.841567e+003,-4.235742e-003
3.843496e+003,-3.897806e-003
3.845424e+003,-3.457160e-003
3.847353e+003,-3.278895e-003
3.849281e+003,-3.632986e-003
3.851210e+003,-4.903388e-003
3.853138e+003,-6.212648e-003
3.855067e+003,-4.850966e-003
3.856995e+003,-3.564274e-003
3.858924e+003,-3.298888e-003
3.860852e+003,-3.509586e-003
3.862781e+003,-3.901714e-003
3.864709e+003,-4.082120e-003
3.866638e+003,-3.887955e-003
3.868566e+003,-4.357196e-003
3.870495e+003,-4.402856e-003
3.872423e+003,-3.969682e-003
3.874352e+003,-3.601243e-003
3.876280e+003,-3.251435e-003
3.878209e+003,-3.759142e-003
3.880137e+003,-3.903060e-003
3.882066e+003,-3.470538e-003
3.883994e+003,-3.750568e-003
3.885923e+003,-3.828118e-003
3.887851e+003,-3.351630e-003
3.889780e+003,-3.660552e-003
3.891708e+003,-3.696003e-003
3.893637e+003,-3.377209e-003
3.895565e+003,-3.198977e-003
3.897494e+003,-3.429580e-003
3.899422e+003,-3.908446e-003
3.901351e+003,-4.244109e-003
3.903279e+003,-4.293750e-003
3.905208e+003,-3.458573e-003
3.907136e+003,-2.889594e-003
3.909065e+003,-2.860036e-003
3.910993e+003,-2.886138e-003
3.912922e+003,-3.055582e-003
3.914850e+003,-3.293989e-003
3.916779e+003,-3.404760e-003
3.918707e+003,-3.241996e-003
3.920636e+003,-3.091970e-003
3.922564e+003,-3.207726e-003
3.924493e+003,-3.456173e-003
3.926421e+003,-3.190458e-003
3.928350e+003,-3.095161e-003
3.930278e+003,-3.178486e-003
3.932207e+003,-3.166973e-003
3.934135e+003,-3.018566e-003
3.936064e+003,-2.734211e-003
3.937992e+003,-2.729206e-003
3.939921e+003,-3.042421e-003
3.941849e+003,-3.182729e-003
3.943778e+003,-3.044066e-003
3.945706e+003,-2.984048e-003
3.947635e+003,-3.184834e-003
3.949563e+003,-3.215718e-003
3.951492e+003,-3.351728e-003
3.953420e+003,-3.181874e-003
3.955349e+003,-3.065551e-003
3.957277e+003,-3.210094e-003
3.959206e+003,-3.167335e-003
3.961134e+003,-2.940905e-003
3.963063e+003,-3.027154e-003
3.964991e+003,-3.196609e-003
3.966920e+003,-2.975163e-003
3.968848e+003,-2.876889e-003
3.970777e+003,-3.219994e-003
3.972705e+003,-3.205851e-003
3.974634e+003,-3.123420e-003
3.976562e+003,-3.142763e-003
3.978491e+003,-2.920105e-003
3.980419e+003,-2.707408e-003
3.982348e+003,-3.014387e-003
3.984276e+003,-3.110360e-003
3.986205e+003,-3.024357e-003
3.988133e+003,-3.063182e-003
3.990062e+003,-2.948902e-003
3.991990e+003,-2.871392e-003
3.993919e+003,-3.064005e-003
3.995847e+003,-3.038868e-003
3.997776e+003,-2.923165e-003
3.999704e+003,-2.902957e-003
4.001633e+003,0.000000e+000
