3.991989e+002,-4.193821e-002
4.011274e+002,-4.258505e-002
4.030559e+002,-4.635133e-002
4.049844e+002,-4.745117e-002
4.069129e+002,-4.296296e-002
4.088414e+002,-3.436442e-002
4.107699e+002,-3.538078e-002
4.126984e+002,-4.011959e-002
4.146269e+002,-3.486658e-002
4.165554e+002,-2.903204e-002
4.184839e+002,-3.158298e-002
4.204124e+002,-2.642598e-002
4.223409e+002,-2.172939e-002
4.242694e+002,-2.114891e-002
4.261979e+002,-2.666162e-002
4.281264e+002,-2.161734e-002
4.300549e+002,-1.453128e-002
4.319834e+002,-1.673806e-002
4.339119e+002,-2.032769e-002
4.358404e+002,-1.873948e-002
4.377689e+002,-1.557814e-002
4.396974e+002,-2.071143e-002
4.416259e+002,-2.778921e-002
4.435544e+002,-2.485182e-002
4.454829e+002,-2.262224e-002
4.474114e+002,-1.885888e-002
4.493399e+002,-1.766622e-002
4.512684e+002,-1.944149e-002
4.531969e+002,-2.014856e-002
4.551254e+002,-2.017614e-002
4.570539e+002,-2.010665e-002
4.589824e+002,-1.977182e-002
4.609109e+002,-2.126698e-002
4.628394e+002,-2.142200e-002
4.647679e+002,-2.137522e-002
4.666964e+002,-2.027994e-002
4.686249e+002,-1.908591e-002
4.705533e+002,-1.874208e-002
4.724819e+002,-1.874262e-002
4.744103e+002,-1.743204e-002
4.763389e+002,-1.768069e-002
4.782673e+002,-1.871203e-002
4.801959e+002,-1.866585e-002
4.821243e+002,-1.762292e-002
4.840529e+002,-1.846177e-002
4.859813e+002,-2.185652e-002
4.879099e+002,-2.323383e-002
4.898383e+002,-2.082540e-002
4.917668e+002,-2.049631e-002
4.936953e+002,-2.023266e-002
4.956238e+002,-1.868641e-002
4.975523e+002,-1.805855e-002
4.994808e+002,-2.026912e-002
5.014093e+002,-1.923857e-002
5.033378e+002,-1.737159e-002
5.052663e+002,-1.586510e-002
5.071948e+002,-1.739359e-002
5.091233e+002,-2.092478e-002
5.110518e+002,-2.175171e-002
5.129803e+002,-2.125017e-002
5.149088e+002,-2.073686e-002
5.168373e+002,-1.937675e-002
5.187658e+002,-1.991331e-002
5.206943e+002,-2.165876e-002
5.226228e+002,-2.145811e-002
5.245513e+002,-2.094486e-002
5.264798e+002,-2.173800e-002
5.284083e+002,-2.146135e-002
5.303368e+002,-1.996464e-002
5.322653e+002,-1.942590e-002
5.341938e+002,-1.905810e-002
5.361223e+002,-1.992236e-002
5.380508e+002,-2.075313e-002
5.399792e+002,-1.985533e-002
5.419078e+002,-1.908090e-002
5.438363e+002,-1.892832e-002
5.457648e+002,-2.004125e-002
5.476932e+002,-2.018111e-002
5.496218e+002,-1.933435e-002
5.515503e+002,-1.818208e-002
5.534788e+002,-1.857185e-002
5.554072e+002,-1.975991e-002
5.573358e+002,-2.024424e-002
5.592643e+002,-1.961755e-002
5.611927e+002,-1.903007e-002
5.631212e+002,-1.878451e-002
5.650497e+002,-1.818672e-002
5.669783e+002,-1.832333e-002
5.689067e+002,-1.874037e-002
5.708352e+002,-1.937168e-002
5.727637e+002,-1.916566e-002
5.746923e+002,-1.841398e-002
5.766207e+002,-1.985352e-002
5.785492e+002,-2.140070e-002
5.804777e+002,-2.326386e-002
5.824063e+002,-2.178051e-002
5.843347e+002,-1.956009e-002
5.862632e+002,-1.853455e-002
5.881917e+002,-1.775007e-002
5.901202e+002,-1.745407e-002
5.920487e+002,-1.702158e-002
5.939772e+002,-1.726232e-002
5.959057e+002,-1.689154e-002
5.978342e+002,-1.616327e-002
5.997627e+002,-1.587743e-002
6.016912e+002,-1.644950e-002
6.036197e+002,-1.708804e-002
6.055482e+002,-1.497595e-002
6.074767e+002,-1.234122e-002
6.094052e+002,-1.298984e-002
6.113337e+002,-1.447796e-002
6.132622e+002,-1.453564e-002
6.151907e+002,-1.329317e-002
6.171192e+002,-1.349423e-002
6.190477e+002,-1.424805e-002
6.209762e+002,-1.391037e-002
6.229047e+002,-1.463109e-002
6.248332e+002,-1.663131e-002
6.267617e+002,-1.837072e-002
6.286902e+002,-1.855887e-002
6.306187e+002,-1.803382e-002
6.325472e+002,-1.791289e-002
6.344756e+002,-1.725722e-002
6.364042e+002,-1.679047e-002
6.383326e+002,-1.737340e-002
6.402612e+002,-1.778604e-002
6.421896e+002,-1.727923e-002
6.441182e+002,-1.722254e-002
6.460466e+002,-1.765845e-002
6.479752e+002,-1.806907e-002
6.499036e+002,-1.834452e-002
6.518322e+002,-1.811576e-002
6.537606e+002,-1.779603e-002
6.556891e+002,-1.770455e-002
6.576177e+002,-1.814233e-002
6.595461e+002,-1.838695e-002
6.614746e+002,-1.865182e-002
6.634031e+002,-1.896984e-002
6.653317e+002,-1.811357e-002
6.672601e+002,-1.664821e-002
6.691886e+002,-1.645588e-002
6.711171e+002,-1.726996e-002
6.730457e+002,-1.786952e-002
6.749741e+002,-1.805645e-002
6.769026e+002,-1.789416e-002
6.788311e+002,-1.756847e-002
6.807596e+002,-1.701231e-002
6.826881e+002,-1.670130e-002
6.846166e+002,-1.654405e-002
6.865451e+002,-1.659594e-002
6.884736e+002,-1.578552e-002
6.904021e+002,-1.574947e-002
6.923306e+002,-1.587612e-002
6.942591e+002,-1.531964e-002
6.961876e+002,-1.538978e-002
6.981161e+002,-1.545185e-002
7.000446e+002,-1.500770e-002
7.019731e+002,-1.482576e-002
7.039016e+002,-1.497486e-002
7.058301e+002,-1.507261e-002
7.077585e+002,-1.507632e-002
7.096871e+002,-1.515517e-002
7.116156e+002,-1.525710e-002
7.135441e+002,-1.505072e-002
7.154725e+002,-1.545764e-002
7.174011e+002,-1.613381e-002
7.193296e+002,-1.592650e-002
7.212581e+002,-1.588871e-002
7.231865e+002,-1.602633e-002
7.251151e+002,-1.588142e-002
7.270436e+002,-1.571937e-002
7.289720e+002,-1.577772e-002
7.309005e+002,-1.593397e-002
7.328290e+002,-1.592937e-002
7.347576e+002,-1.540084e-002
7.366860e+002,-1.488896e-002
7.386145e+002,-1.505834e-002
7.405430e+002,-1.515008e-002
7.424716e+002,-1.506141e-002
7.444000e+002,-1.480084e-002
7.463285e+002,-1.438674e-002
7.482570e+002,-1.443177e-002
7.501855e+002,-1.419694e-002
7.521140e+002,-1.382440e-002
7.540425e+002,-1.348890e-002
7.559710e+002,-1.390463e-002
7.578995e+002,-1.423256e-002
7.598280e+002,-1.364921e-002
7.617565e+002,-1.321042e-002
7.636850e+002,-1.354199e-002
7.656135e+002,-1.355985e-002
7.675420e+002,-1.309071e-002
7.694705e+002,-1.255765e-002
7.713990e+002,-1.268855e-002
7.733275e+002,-1.289284e-002
7.752560e+002,-1.320071e-002
7.771844e+002,-1.357793e-002
7.791130e+002,-1.364954e-002
7.810415e+002,-1.336550e-002
7.829700e+002,-1.355590e-002
7.848984e+002,-1.363743e-002
7.868270e+002,-1.366960e-002
7.887555e+002,-1.392035e-002
7.906840e+002,-1.434096e-002
7.926124e+002,-1.460587e-002
7.945410e+002,-1.472609e-002
7.964695e+002,-1.486818e-002
7.983979e+002,-1.483159e-002
8.003264e+002,-1.496394e-002
8.022549e+002,-1.552174e-002
8.041835e+002,-1.524911e-002
8.061119e+002,-1.467324e-002
8.080404e+002,-1.416525e-002
8.099689e+002,-1.420146e-002
8.118975e+002,-1.453493e-002
8.138259e+002,-1.425700e-002
8.157545e+002,-1.376896e-002
8.176830e+002,-1.392738e-002
8.196115e+002,-1.456412e-002
8.215399e+002,-1.513607e-002
8.234684e+002,-1.468055e-002
8.253970e+002,-1.452907e-002
8.273254e+002,-1.498296e-002
8.292539e+002,-1.494935e-002
8.311824e+002,-1.485695e-002
8.331110e+002,-1.485704e-002
8.350394e+002,-1.471062e-002
8.369679e+002,-1.465601e-002
8.388964e+002,-1.472238e-002
8.408250e+002,-1.437622e-002
8.427534e+002,-1.400955e-002
8.446819e+002,-1.425421e-002
8.466104e+002,-1.480267e-002
8.485389e+002,-1.486383e-002
8.504674e+002,-1.488570e-002
8.523959e+002,-1.507136e-002
8.543244e+002,-1.540788e-002
8.562529e+002,-1.526699e-002
8.581814e+002,-1.504806e-002
8.601099e+002,-1.485230e-002
8.620384e+002,-1.510512e-002
8.639669e+002,-1.566095e-002
8.658954e+002,-1.586705e-002
8.678239e+002,-1.564056e-002
8.697524e+002,-1.588120e-002
8.716809e+002,-1.608007e-002
8.736094e+002,-1.620608e-002
8.755378e+002,-1.624748e-002
8.774664e+002,-1.601135e-002
8.793949e+002,-1.574839e-002
8.813234e+002,-1.547944e-002
8.832518e+002,-1.539554e-002
8.851804e+002,-1.567339e-002
8.871089e+002,-1.606918e-002
8.890374e+002,-1.600024e-002
8.909658e+002,-1.574324e-002
8.928943e+002,-1.519712e-002
8.948229e+002,-1.495559e-002
8.967513e+002,-1.504822e-002
8.986798e+002,-1.531382e-002
9.006083e+002,-1.537606e-002
9.025369e+002,-1.508336e-002
9.044653e+002,-1.491173e-002
9.063938e+002,-1.504611e-002
9.083223e+002,-1.524236e-002
9.102509e+002,-1.542726e-002
9.121793e+002,-1.545345e-002
9.141078e+002,-1.544644e-002
9.160364e+002,-1.540938e-002
9.179648e+002,-1.532898e-002
9.198933e+002,-1.514858e-002
9.218218e+002,-1.545821e-002
9.237504e+002,-1.573084e-002
9.256788e+002,-1.604501e-002
9.276073e+002,-1.611909e-002
9.295358e+002,-1.571193e-002
9.314644e+002,-1.555167e-002
9.333928e+002,-1.547864e-002
9.353213e+002,-1.546870e-002
9.372498e+002,-1.542147e-002
9.391783e+002,-1.555400e-002
9.411068e+002,-1.576615e-002
9.430353e+002,-1.556471e-002
9.449637e+002,-1.546090e-002
9.468923e+002,-1.570375e-002
9.488208e+002,-1.581731e-002
9.507493e+002,-1.552513e-002
9.526777e+002,-1.532927e-002
9.546063e+002,-1.519827e-002
9.565348e+002,-1.515101e-002
9.584633e+002,-1.508263e-002
9.603917e+002,-1.519098e-002
9.623203e+002,-1.542083e-002
9.642488e+002,-1.549802e-002
9.661772e+002,-1.515319e-002
9.681057e+002,-1.488266e-002
9.700343e+002,-1.489646e-002
9.719628e+002,-1.505642e-002
9.738912e+002,-1.536096e-002
9.758197e+002,-1.539784e-002
9.777483e+002,-1.545150e-002
9.796768e+002,-1.563299e-002
9.816052e+002,-1.551979e-002
9.835337e+002,-1.526792e-002
9.854623e+002,-1.524917e-002
9.873907e+002,-1.539518e-002
9.893192e+002,-1.542636e-002
9.912477e+002,-1.544040e-002
9.931763e+002,-1.553159e-002
9.951047e+002,-1.556660e-002
9.970332e+002,-1.548293e-002
9.989617e+002,-1.539710e-002
1.000890e+003,-1.533954e-002
1.002819e+003,-1.516007e-002
1.004747e+003,-1.501718e-002
1.006676e+003,-1.484065e-002
1.008604e+003,-1.456037e-002
1.010533e+003,-1.434888e-002
1.012461e+003,-1.411195e-002
1.014390e+003,-1.400307e-002
1.016318e+003,-1.372624e-002
1.018247e+003,-1.331525e-002
1.020175e+003,-1.310212e-002
1.022104e+003,-1.269801e-002
1.024032e+003,-1.203432e-002
1.025961e+003,-1.161598e-002
1.027889e+003,-1.155117e-002
1.029818e+003,-1.136525e-002
1.031746e+003,-1.093629e-002
1.033675e+003,-1.041191e-002
1.035603e+003,-9.851451e-003
1.037532e+003,-9.415672e-003
1.039460e+003,-9.061302e-003
1.041389e+003,-8.672930e-003
1.043317e+003,-8.536206e-003
1.045246e+003,-8.526037e-003
1.047174e+003,-8.437817e-003
1.049103e+003,-8.320749e-003
1.051031e+003,-7.989036e-003
1.052960e+003,-7.804844e-003
1.054888e+003,-7.839730e-003
1.056817e+003,-7.809661e-003
1.058745e+003,-7.740956e-003
1.060674e+003,-7.824923e-003
1.062602e+003,-7.677351e-003
1.064531e+003,-7.386389e-003
1.066459e+003,-7.565874e-003
1.068388e+003,-7.776758e-003
1.070316e+003,-7.610156e-003
1.072245e+003,-7.338435e-003
1.074173e+003,-7.309081e-003
1.076102e+003,-7.728913e-003
1.078030e+003,-8.209826e-003
1.079959e+003,-8.100567e-003
1.081887e+003,-7.732688e-003
1.083816e+003,-7.656581e-003
1.085744e+003,-7.595178e-003
1.087673e+003,-7.494395e-003
1.089601e+003,-7.631057e-003
1.091530e+003,-7.656679e-003
1.093458e+003,-7.441503e-003
1.095387e+003,-7.289532e-003
1.097315e+003,-7.088581e-003
1.099244e+003,-7.026348e-003
1.101172e+003,-6.891288e-003
1.103101e+003,-6.891973e-003
1.105029e+003,-7.154782e-003
1.106958e+003,-7.196238e-003
1.108886e+003,-7.138713e-003
1.110815e+003,-7.065665e-003
1.112743e+003,-6.968051e-003
1.114672e+003,-7.169709e-003
1.116600e+003,-7.295396e-003
1.118529e+003,-7.334493e-003
1.120457e+003,-7.415868e-003
1.122386e+003,-7.270959e-003
1.124314e+003,-7.192229e-003
1.126243e+003,-7.542103e-003
1.128171e+003,-7.646555e-003
1.130100e+003,-7.490845e-003
1.132028e+003,-7.751632e-003
1.133957e+003,-7.922735e-003
1.135885e+003,-7.949282e-003
1.137814e+003,-8.157444e-003
1.139742e+003,-8.565542e-003
1.141671e+003,-8.955470e-003
1.143599e+003,-9.234615e-003
1.145528e+003,-9.422546e-003
1.147456e+003,-9.608225e-003
1.149385e+003,-9.840730e-003
1.151313e+003,-1.008302e-002
1.153242e+003,-1.029695e-002
1.155170e+003,-1.051809e-002
1.157099e+003,-1.076123e-002
1.159027e+003,-1.102681e-002
1.160956e+003,-1.103948e-002
1.162884e+003,-1.108641e-002
1.164813e+003,-1.123477e-002
1.166741e+003,-1.123829e-002
1.168670e+003,-1.115388e-002
1.170598e+003,-1.109529e-002
1.172526e+003,-1.118717e-002
1.174455e+003,-1.126915e-002
1.176384e+003,-1.122660e-002
1.178312e+003,-1.114784e-002
1.180240e+003,-1.115740e-002
1.182169e+003,-1.127780e-002
1.184098e+003,-1.135205e-002
1.186026e+003,-1.138559e-002
1.187954e+003,-1.147331e-002
1.189883e+003,-1.179728e-002
1.191812e+003,-1.191576e-002
1.193740e+003,-1.184458e-002
1.195668e+003,-1.191841e-002
1.197597e+003,-1.203812e-002
1.199526e+003,-1.211240e-002
1.201454e+003,-1.222130e-002
1.203382e+003,-1.235658e-002
1.205311e+003,-1.234946e-002
1.207240e+003,-1.229667e-002
1.209168e+003,-1.219089e-002
1.211096e+003,-1.209474e-002
1.213025e+003,-1.203970e-002
1.214953e+003,-1.202491e-002
1.216882e+003,-1.203503e-002
1.218810e+003,-1.209497e-002
1.220739e+003,-1.212751e-002
1.222667e+003,-1.199564e-002
1.224596e+003,-1.172401e-002
1.226524e+003,-1.163692e-002
1.228453e+003,-1.171407e-002
1.230381e+003,-1.151755e-002
1.232310e+003,-1.126525e-002
1.234238e+003,-1.119696e-002
1.236167e+003,-1.109810e-002
1.238095e+003,-1.112937e-002
1.240024e+003,-1.116399e-002
1.241952e+003,-1.106567e-002
1.243881e+003,-1.107976e-002
1.245809e+003,-1.116628e-002
1.247738e+003,-1.123951e-002
1.249666e+003,-1.142174e-002
1.251595e+003,-1.145527e-002
1.253523e+003,-1.130867e-002
1.255452e+003,-1.131884e-002
1.257380e+003,-1.142790e-002
1.259309e+003,-1.155327e-002
1.261237e+003,-1.155278e-002
1.263166e+003,-1.139405e-002
1.265094e+003,-1.121488e-002
1.267023e+003,-1.092867e-002
1.268951e+003,-1.060114e-002
1.270880e+003,-1.035600e-002
1.272808e+003,-1.014682e-002
1.274737e+003,-9.927336e-003
1.276665e+003,-9.703724e-003
1.278594e+003,-9.454741e-003
1.280522e+003,-9.256704e-003
1.282451e+003,-9.078630e-003
1.284379e+003,-8.866916e-003
1.286308e+003,-8.492083e-003
1.288236e+003,-8.380327e-003
1.290165e+003,-8.283269e-003
1.292093e+003,-8.094323e-003
1.294022e+003,-8.053636e-003
1.295950e+003,-7.816788e-003
1.297879e+003,-7.652414e-003
1.299807e+003,-7.672240e-003
1.301736e+003,-7.849590e-003
1.303664e+003,-7.905979e-003
1.305593e+003,-7.843212e-003
1.307521e+003,-7.963370e-003
1.309450e+003,-8.263959e-003
1.311378e+003,-8.624794e-003
1.313307e+003,-8.823087e-003
1.315235e+003,-8.857307e-003
1.317164e+003,-8.998279e-003
1.319092e+003,-9.388760e-003
1.321021e+003,-9.993074e-003
1.322949e+003,-1.032530e-002
1.324878e+003,-1.040087e-002
1.326806e+003,-1.052065e-002
1.328735e+003,-1.053983e-002
1.330663e+003,-1.062229e-002
1.332592e+003,-1.069526e-002
1.334520e+003,-1.072076e-002
1.336449e+003,-1.073492e-002
1.338377e+003,-1.076741e-002
1.340306e+003,-1.074607e-002
1.342234e+003,-1.078431e-002
1.344163e+003,-1.092589e-002
1.346091e+003,-1.099855e-002
1.348020e+003,-1.097390e-002
1.349948e+003,-1.101257e-002
1.351877e+003,-1.115333e-002
1.353805e+003,-1.117926e-002
1.355734e+003,-1.117484e-002
1.357662e+003,-1.132445e-002
1.359591e+003,-1.137510e-002
1.361519e+003,-1.140712e-002
1.363448e+003,-1.141806e-002
1.365376e+003,-1.163166e-002
1.367305e+003,-1.180163e-002
1.369233e+003,-1.189758e-002
1.371162e+003,-1.193153e-002
1.373090e+003,-1.175987e-002
1.375019e+003,-1.164498e-002
1.376947e+003,-1.177777e-002
1.378876e+003,-1.177183e-002
1.380804e+003,-1.171407e-002
1.382733e+003,-1.179405e-002
1.384661e+003,-1.194033e-002
1.386590e+003,-1.182604e-002
1.388518e+003,-1.186924e-002
1.390447e+003,-1.211005e-002
1.392375e+003,-1.224952e-002
1.394304e+003,-1.218042e-002
1.396232e+003,-1.220796e-002
1.398161e+003,-1.225319e-002
1.400089e+003,-1.228646e-002
1.402018e+003,-1.247099e-002
1.403946e+003,-1.255630e-002
1.405875e+003,-1.266074e-002
1.407803e+003,-1.273945e-002
1.409732e+003,-1.271497e-002
1.411660e+003,-1.274930e-002
1.413589e+003,-1.283401e-002
1.415517e+003,-1.268211e-002
1.417446e+003,-1.226066e-002
1.419374e+003,-1.176729e-002
1.421303e+003,-1.167043e-002
1.423231e+003,-1.139676e-002
1.425160e+003,-1.087128e-002
1.427088e+003,-1.044212e-002
1.429017e+003,-9.940809e-003
1.430945e+003,-9.673654e-003
1.432874e+003,-9.497015e-003
1.434802e+003,-8.989289e-003
1.436731e+003,-8.320164e-003
1.438659e+003,-8.225465e-003
1.440588e+003,-8.105576e-003
1.442516e+003,-7.729303e-003
1.444445e+003,-7.322145e-003
1.446373e+003,-6.693873e-003
1.448302e+003,-6.179395e-003
1.450230e+003,-6.023159e-003
1.452159e+003,-5.589047e-003
1.454087e+003,-4.927599e-003
1.456016e+003,-4.057304e-003
1.457944e+003,-3.606928e-003
1.459873e+003,-3.908281e-003
1.461801e+003,-4.157051e-003
1.463730e+003,-4.135554e-003
1.465658e+003,-4.074012e-003
1.467587e+003,-4.337711e-003
1.469515e+003,-4.403643e-003
1.471444e+003,-4.161579e-003
1.473372e+003,-4.356737e-003
1.475301e+003,-4.896115e-003
1.477229e+003,-5.485736e-003
1.479158e+003,-6.024564e-003
1.481086e+003,-6.537038e-003
1.483015e+003,-7.177955e-003
1.484943e+003,-7.569683e-003
1.486872e+003,-7.702872e-003
1.488800e+003,-7.907345e-003
1.490729e+003,-8.313045e-003
1.492657e+003,-8.951250e-003
1.494586e+003,-9.136547e-003
1.496514e+003,-9.103226e-003
1.498443e+003,-9.524926e-003
1.500371e+003,-1.015530e-002
1.502300e+003,-1.047094e-002
1.504228e+003,-1.031009e-002
1.506157e+003,-9.714125e-003
1.508085e+003,-9.909427e-003
1.510014e+003,-1.059409e-002
1.511942e+003,-1.087070e-002
1.513871e+003,-1.108596e-002
1.515799e+003,-1.114222e-002
1.517728e+003,-1.099096e-002
1.519656e+003,-1.091849e-002
1.521585e+003,-1.060392e-002
1.523513e+003,-1.081602e-002
1.525442e+003,-1.089474e-002
1.527370e+003,-1.096133e-002
1.529299e+003,-1.108728e-002
1.531227e+003,-1.106374e-002
1.533156e+003,-1.064780e-002
1.535084e+003,-1.062620e-002
1.537013e+003,-1.054976e-002
1.538941e+003,-9.674463e-003
1.540870e+003,-9.281711e-003
1.542798e+003,-9.736545e-003
1.544727e+003,-9.894400e-003
1.546655e+003,-9.975134e-003
1.548584e+003,-9.891323e-003
1.550512e+003,-9.685222e-003
1.552441e+003,-9.532219e-003
1.554369e+003,-9.135509e-003
1.556298e+003,-8.867371e-003
1.558226e+003,-7.942256e-003
1.560155e+003,-7.639099e-003
1.562083e+003,-8.204332e-003
1.564012e+003,-8.060499e-003
1.565940e+003,-7.690665e-003
1.567869e+003,-7.436031e-003
1.569797e+003,-7.061133e-003
1.571726e+003,-7.139072e-003
1.573654e+003,-7.216312e-003
1.575583e+003,-6.755860e-003
1.577511e+003,-6.658177e-003
1.579440e+003,-7.031271e-003
1.581368e+003,-7.068370e-003
1.583297e+003,-7.144776e-003
1.585225e+003,-7.254993e-003
1.587154e+003,-7.287381e-003
1.589082e+003,-7.397073e-003
1.591010e+003,-7.706420e-003
1.592939e+003,-8.012295e-003
1.594868e+003,-8.309274e-003
1.596796e+003,-8.641944e-003
1.598724e+003,-8.929892e-003
1.600653e+003,-9.358669e-003
1.602582e+003,-9.791427e-003
1.604510e+003,-1.009169e-002
1.606438e+003,-1.030747e-002
1.608367e+003,-1.060984e-002
1.610296e+003,-1.087974e-002
1.612224e+003,-1.127729e-002
1.614152e+003,-1.151003e-002
1.616081e+003,-1.132865e-002
1.618010e+003,-1.147973e-002
1.619938e+003,-1.203490e-002
1.621866e+003,-1.207318e-002
1.623795e+003,-1.211060e-002
1.625724e+003,-1.232405e-002
1.627652e+003,-1.241258e-002
1.629580e+003,-1.268221e-002
1.631509e+003,-1.303261e-002
1.633438e+003,-1.288387e-002
1.635366e+003,-1.247826e-002
1.637294e+003,-1.308855e-002
1.639223e+003,-1.383951e-002
1.641151e+003,-1.422945e-002
1.643080e+003,-1.455842e-002
1.645008e+003,-1.445815e-002
1.646937e+003,-1.438119e-002
1.648865e+003,-1.502162e-002
1.650794e+003,-1.533397e-002
1.652722e+003,-1.449811e-002
1.654651e+003,-1.496116e-002
1.656579e+003,-1.594550e-002
1.658508e+003,-1.638655e-002
1.660436e+003,-1.654191e-002
1.662365e+003,-1.642187e-002
1.664293e+003,-1.653069e-002
1.666222e+003,-1.664591e-002
1.668150e+003,-1.652144e-002
1.670079e+003,-1.660350e-002
1.672007e+003,-1.690792e-002
1.673936e+003,-1.684482e-002
1.675864e+003,-1.657384e-002
1.677793e+003,-1.697745e-002
1.679721e+003,-1.710878e-002
1.681650e+003,-1.697134e-002
1.683578e+003,-1.627257e-002
1.685507e+003,-1.633170e-002
1.687435e+003,-1.706896e-002
1.689364e+003,-1.713127e-002
1.691292e+003,-1.711470e-002
1.693221e+003,-1.714038e-002
1.695149e+003,-1.647821e-002
1.697078e+003,-1.613295e-002
1.699006e+003,-1.600497e-002
1.700935e+003,-1.561074e-002
1.702863e+003,-1.614747e-002
1.704792e+003,-1.614578e-002
1.706720e+003,-1.606152e-002
1.708649e+003,-1.621451e-002
1.710577e+003,-1.630681e-002
1.712506e+003,-1.615686e-002
1.714434e+003,-1.590522e-002
1.716363e+003,-1.558354e-002
1.718291e+003,-1.545230e-002
1.720220e+003,-1.592254e-002
1.722148e+003,-1.617531e-002
1.724077e+003,-1.611730e-002
1.726005e+003,-1.621585e-002
1.727934e+003,-1.623541e-002
1.729862e+003,-1.604894e-002
1.731791e+003,-1.586354e-002
1.733719e+003,-1.538044e-002
1.735648e+003,-1.568316e-002
1.737576e+003,-1.613828e-002
1.739505e+003,-1.592340e-002
1.741433e+003,-1.589925e-002
1.743362e+003,-1.595623e-002
1.745290e+003,-1.590117e-002
1.747219e+003,-1.575267e-002
1.749147e+003,-1.562615e-002
1.751076e+003,-1.551928e-002
1.753004e+003,-1.561109e-002
1.754933e+003,-1.557484e-002
1.756861e+003,-1.538805e-002
1.758790e+003,-1.553667e-002
1.760718e+003,-1.552184e-002
1.762647e+003,-1.545533e-002
1.764575e+003,-1.560786e-002
1.766504e+003,-1.552075e-002
1.768432e+003,-1.532162e-002
1.770361e+003,-1.526069e-002
1.772289e+003,-1.506346e-002
1.774218e+003,-1.528481e-002
1.776146e+003,-1.551244e-002
1.778075e+003,-1.560770e-002
1.780003e+003,-1.554323e-002
1.781932e+003,-1.552807e-002
1.783860e+003,-1.548798e-002
1.785789e+003,-1.546374e-002
1.787717e+003,-1.556599e-002
1.789646e+003,-1.538649e-002
1.791574e+003,-1.518422e-002
1.793503e+003,-1.538399e-002
1.795431e+003,-1.567147e-002
1.797360e+003,-1.565645e-002
1.799288e+003,-1.549760e-002
1.801217e+003,-1.546819e-002
1.803145e+003,-1.561010e-002
1.805074e+003,-1.555525e-002
1.807002e+003,-1.550601e-002
1.808931e+003,-1.559901e-002
1.810859e+003,-1.554866e-002
1.812788e+003,-1.551065e-002
1.814716e+003,-1.564232e-002
1.816645e+003,-1.565041e-002
1.818573e+003,-1.571068e-002
1.820502e+003,-1.577734e-002
1.822430e+003,-1.579676e-002
1.824359e+003,-1.558322e-002
1.826287e+003,-1.559751e-002
1.828216e+003,-1.568905e-002
1.830144e+003,-1.550755e-002
1.832073e+003,-1.557254e-002
1.834001e+003,-1.574558e-002
1.835930e+003,-1.585347e-002
1.837858e+003,-1.584459e-002
1.839787e+003,-1.576871e-002
1.841715e+003,-1.568007e-002
1.843644e+003,-1.547644e-002
1.845572e+003,-1.563084e-002
1.847501e+003,-1.585830e-002
1.849429e+003,-1.584175e-002
1.851358e+003,-1.578756e-002
1.853286e+003,-1.577123e-002
1.855215e+003,-1.577497e-002
1.857143e+003,-1.574752e-002
1.859072e+003,-1.576986e-002
1.861000e+003,-1.574654e-002
1.862929e+003,-1.569579e-002
1.864857e+003,-1.562969e-002
1.866786e+003,-1.562148e-002
1.868714e+003,-1.559760e-002
1.870643e+003,-1.562055e-002
1.872571e+003,-1.566220e-002
1.874500e+003,-1.567093e-002
1.876428e+003,-1.572835e-002
1.878357e+003,-1.575615e-002
1.880285e+003,-1.579299e-002
1.882214e+003,-1.584708e-002
1.884142e+003,-1.585884e-002
1.886071e+003,-1.576420e-002
1.887999e+003,-1.570595e-002
1.889928e+003,-1.570733e-002
1.891856e+003,-1.583076e-002
1.893785e+003,-1.582916e-002
1.895713e+003,-1.576884e-002
1.897642e+003,-1.577478e-002
1.899570e+003,-1.580798e-002
1.901499e+003,-1.580964e-002
1.903427e+003,-1.574538e-002
1.905356e+003,-1.581363e-002
1.907284e+003,-1.582028e-002
1.909213e+003,-1.570528e-002
1.911141e+003,-1.571324e-002
1.913070e+003,-1.574663e-002
1.914998e+003,-1.575376e-002
1.916927e+003,-1.570959e-002
1.918855e+003,-1.571218e-002
1.920784e+003,-1.581411e-002
1.922712e+003,-1.581169e-002
1.924641e+003,-1.578878e-002
1.926569e+003,-1.584053e-002
1.928498e+003,-1.591605e-002
1.930426e+003,-1.586149e-002
1.932355e+003,-1.576951e-002
1.934283e+003,-1.574852e-002
1.936212e+003,-1.578871e-002
1.938140e+003,-1.588257e-002
1.940069e+003,-1.586833e-002
1.941997e+003,-1.577510e-002
1.943926e+003,-1.582501e-002
1.945854e+003,-1.595693e-002
1.947783e+003,-1.608151e-002
1.949711e+003,-1.601455e-002
1.951640e+003,-1.593493e-002
1.953568e+003,-1.599750e-002
1.955497e+003,-1.604980e-002
1.957425e+003,-1.609246e-002
1.959354e+003,-1.612254e-002
1.961282e+003,-1.604061e-002
1.963211e+003,-1.601835e-002
1.965139e+003,-1.599507e-002
1.967068e+003,-1.598079e-002
1.968996e+003,-1.602755e-002
1.970925e+003,-1.602994e-002
1.972853e+003,-1.600727e-002
1.974782e+003,-1.605293e-002
1.976710e+003,-1.610019e-002
1.978639e+003,-1.604319e-002
1.980567e+003,-1.597939e-002
1.982496e+003,-1.604619e-002
1.984424e+003,-1.611446e-002
1.986353e+003,-1.605801e-002
1.988281e+003,-1.597415e-002
1.990210e+003,-1.586548e-002
1.992138e+003,-1.577852e-002
1.994067e+003,-1.583954e-002
1.995995e+003,-1.592439e-002
1.997924e+003,-1.580980e-002
1.999852e+003,-1.575098e-002
2.001781e+003,-1.580213e-002
2.003709e+003,-1.582677e-002
2.005638e+003,-1.590593e-002
2.007566e+003,-1.597361e-002
2.009495e+003,-1.596236e-002
2.011423e+003,-1.598967e-002
2.013352e+003,-1.591052e-002
2.015280e+003,-1.580894e-002
2.017208e+003,-1.579152e-002
2.019137e+003,-1.587689e-002
2.021066e+003,-1.586670e-002
2.022994e+003,-1.576005e-002
2.024922e+003,-1.577344e-002
2.026851e+003,-1.587401e-002
2.028780e+003,-1.595933e-002
2.030708e+003,-1.596006e-002
2.032636e+003,-1.589260e-002
2.034565e+003,-1.584504e-002
2.036494e+003,-1.585357e-002
2.038422e+003,-1.584453e-002
2.040350e+003,-1.581028e-002
2.042279e+003,-1.580958e-002
2.044208e+003,-1.580980e-002
2.046136e+003,-1.580386e-002
2.048064e+003,-1.575900e-002
2.049993e+003,-1.573903e-002
2.051921e+003,-1.579517e-002
2.053850e+003,-1.580724e-002
2.055778e+003,-1.582411e-002
2.057707e+003,-1.575772e-002
2.059635e+003,-1.556644e-002
2.061564e+003,-1.560620e-002
2.063492e+003,-1.573583e-002
2.065421e+003,-1.574737e-002
2.067349e+003,-1.572921e-002
2.069278e+003,-1.572292e-002
2.071206e+003,-1.576759e-002
2.073135e+003,-1.577306e-002
2.075063e+003,-1.568345e-002
2.076992e+003,-1.573618e-002
2.078920e+003,-1.578833e-002
2.080849e+003,-1.572286e-002
2.082777e+003,-1.568956e-002
2.084706e+003,-1.563868e-002
2.086634e+003,-1.566121e-002
2.088563e+003,-1.571209e-002
2.090491e+003,-1.564951e-002
2.092420e+003,-1.553517e-002
2.094348e+003,-1.557056e-002
2.096277e+003,-1.557778e-002
2.098205e+003,-1.556017e-002
2.100134e+003,-1.564536e-002
2.102062e+003,-1.563916e-002
2.103991e+003,-1.559418e-002
2.105919e+003,-1.556349e-002
2.107848e+003,-1.554109e-002
2.109776e+003,-1.551660e-002
2.111705e+003,-1.551963e-002
2.113633e+003,-1.544350e-002
2.115562e+003,-1.540238e-002
2.117490e+003,-1.537126e-002
2.119419e+003,-1.532844e-002
2.121347e+003,-1.538390e-002
2.123276e+003,-1.539470e-002
2.125204e+003,-1.537404e-002
2.127133e+003,-1.542048e-002
2.129061e+003,-1.537376e-002
2.130990e+003,-1.536490e-002
2.132918e+003,-1.525375e-002
2.134847e+003,-1.514004e-002
2.136775e+003,-1.517168e-002
2.138704e+003,-1.519891e-002
2.140632e+003,-1.518307e-002
2.142561e+003,-1.518688e-002
2.144489e+003,-1.519274e-002
2.146418e+003,-1.515517e-002
2.148346e+003,-1.506637e-002
2.150275e+003,-1.503587e-002
2.152203e+003,-1.505882e-002
2.154132e+003,-1.505776e-002
2.156060e+003,-1.504611e-002
2.157989e+003,-1.510541e-002
2.159917e+003,-1.507232e-002
2.161846e+003,-1.501852e-002
2.163774e+003,-1.503632e-002
2.165703e+003,-1.497908e-002
2.167631e+003,-1.493833e-002
2.169560e+003,-1.489377e-002
2.171488e+003,-1.484449e-002
2.173417e+003,-1.486630e-002
2.175345e+003,-1.489822e-002
2.177274e+003,-1.494509e-002
2.179202e+003,-1.495008e-002
2.181131e+003,-1.488916e-002
2.183059e+003,-1.482771e-002
2.184988e+003,-1.490507e-002
2.186916e+003,-1.499186e-002
2.188845e+003,-1.501215e-002
2.190773e+003,-1.494749e-002
2.192702e+003,-1.486534e-002
2.194630e+003,-1.492870e-002
2.196559e+003,-1.501500e-002
2.198487e+003,-1.507482e-002
2.200416e+003,-1.508893e-002
2.202344e+003,-1.507901e-002
2.204273e+003,-1.510404e-002
2.206201e+003,-1.507363e-002
2.208130e+003,-1.499979e-002
2.210058e+003,-1.503558e-002
2.211987e+003,-1.517399e-002
2.213915e+003,-1.515524e-002
2.215844e+003,-1.515437e-002
2.217772e+003,-1.520025e-002
2.219701e+003,-1.513728e-002
2.221629e+003,-1.516381e-002
2.223558e+003,-1.523509e-002
2.225486e+003,-1.523660e-002
2.227415e+003,-1.522396e-002
2.229343e+003,-1.526501e-002
2.231272e+003,-1.522047e-002
2.233200e+003,-1.520141e-002
2.235129e+003,-1.522403e-002
2.237057e+003,-1.525285e-002
2.238986e+003,-1.530867e-002
2.240914e+003,-1.540120e-002
2.242843e+003,-1.538764e-002
2.244771e+003,-1.537369e-002
2.246700e+003,-1.545808e-002
2.248628e+003,-1.543202e-002
2.250557e+003,-1.538591e-002
2.252485e+003,-1.541233e-002
2.254414e+003,-1.542336e-002
2.256342e+003,-1.543762e-002
2.258271e+003,-1.550365e-002
2.260199e+003,-1.550959e-002
2.262128e+003,-1.548753e-002
2.264056e+003,-1.537312e-002
2.265985e+003,-1.532869e-002
2.267913e+003,-1.545009e-002
2.269842e+003,-1.550007e-002
2.271770e+003,-1.546918e-002
2.273699e+003,-1.543890e-002
2.275627e+003,-1.544561e-002
2.277556e+003,-1.554716e-002
2.279484e+003,-1.569247e-002
2.281413e+003,-1.571656e-002
2.283341e+003,-1.570033e-002
2.285270e+003,-1.571998e-002
2.287198e+003,-1.564986e-002
2.289127e+003,-1.553977e-002
2.291055e+003,-1.551874e-002
2.292984e+003,-1.555036e-002
2.294912e+003,-1.557938e-002
2.296841e+003,-1.562547e-002
2.298769e+003,-1.561611e-002
2.300698e+003,-1.550275e-002
2.302626e+003,-1.539925e-002
2.304555e+003,-1.530058e-002
2.306483e+003,-1.524220e-002
2.308412e+003,-1.510256e-002
2.310340e+003,-1.500012e-002
2.312269e+003,-1.497566e-002
2.314197e+003,-1.489585e-002
2.316125e+003,-1.472485e-002
2.318054e+003,-1.455861e-002
2.319983e+003,-1.441501e-002
2.321911e+003,-1.423051e-002
2.323840e+003,-1.405989e-002
2.325768e+003,-1.387799e-002
2.327697e+003,-1.370572e-002
2.329625e+003,-1.361621e-002
2.331553e+003,-1.361601e-002
2.333482e+003,-1.356974e-002
2.335411e+003,-1.343724e-002
2.337339e+003,-1.345739e-002
2.339268e+003,-1.351238e-002
2.341196e+003,-1.351861e-002
2.343125e+003,-1.370791e-002
2.345053e+003,-1.393736e-002
2.346981e+003,-1.441273e-002
2.348910e+003,-1.486380e-002
2.350839e+003,-1.451606e-002
2.352767e+003,-1.389372e-002
2.354696e+003,-1.339127e-002
2.356624e+003,-1.286814e-002
2.358552e+003,-1.264758e-002
2.360481e+003,-1.269987e-002
2.362409e+003,-1.281892e-002
2.364338e+003,-1.287190e-002
2.366267e+003,-1.298174e-002
2.368195e+003,-1.327026e-002
2.370124e+003,-1.361566e-002
2.372052e+003,-1.397089e-002
2.373980e+003,-1.441706e-002
2.375909e+003,-1.481772e-002
2.377838e+003,-1.509261e-002
2.379766e+003,-1.521900e-002
2.381695e+003,-1.537654e-002
2.383623e+003,-1.543522e-002
2.385552e+003,-1.541348e-002
2.387480e+003,-1.541402e-002
2.389408e+003,-1.531433e-002
2.391337e+003,-1.528474e-002
2.393266e+003,-1.528330e-002
2.395194e+003,-1.519990e-002
2.397123e+003,-1.517322e-002
2.399051e+003,-1.523970e-002
2.400979e+003,-1.529959e-002
2.402908e+003,-1.528058e-002
2.404836e+003,-1.522642e-002
2.406765e+003,-1.524610e-002
2.408694e+003,-1.522838e-002
2.410622e+003,-1.516199e-002
2.412551e+003,-1.514957e-002
2.414479e+003,-1.521568e-002
2.416407e+003,-1.523887e-002
2.418336e+003,-1.514023e-002
2.420264e+003,-1.509661e-002
2.422193e+003,-1.507917e-002
2.424122e+003,-1.503376e-002
2.426050e+003,-1.506067e-002
2.427979e+003,-1.505478e-002
2.429907e+003,-1.501372e-002
2.431835e+003,-1.492697e-002
2.433764e+003,-1.484779e-002
2.435692e+003,-1.483693e-002
2.437621e+003,-1.483082e-002
2.439550e+003,-1.480136e-002
2.441478e+003,-1.485605e-002
2.443406e+003,-1.492261e-002
2.445335e+003,-1.494323e-002
2.447263e+003,-1.490373e-002
2.449192e+003,-1.481516e-002
2.451121e+003,-1.474992e-002
2.453049e+003,-1.474547e-002
2.454978e+003,-1.470608e-002
2.456906e+003,-1.466008e-002
2.458834e+003,-1.464886e-002
2.460763e+003,-1.461587e-002
2.462691e+003,-1.464377e-002
2.464620e+003,-1.465732e-002
2.466549e+003,-1.453878e-002
2.468477e+003,-1.456390e-002
2.470406e+003,-1.463890e-002
2.472334e+003,-1.466863e-002
2.474262e+003,-1.462788e-002
2.476191e+003,-1.458408e-002
2.478119e+003,-1.458828e-002
2.480048e+003,-1.450590e-002
2.481977e+003,-1.448161e-002
2.483905e+003,-1.455009e-002
2.485833e+003,-1.452936e-002
2.487762e+003,-1.439748e-002
2.489690e+003,-1.430871e-002
2.491619e+003,-1.441020e-002
2.493547e+003,-1.438023e-002
2.495476e+003,-1.435225e-002
2.497405e+003,-1.441844e-002
2.499333e+003,-1.440238e-002
2.501261e+003,-1.418331e-002
2.503190e+003,-1.413058e-002
2.505118e+003,-1.428813e-002
2.507047e+003,-1.438199e-002
2.508975e+003,-1.430695e-002
2.510904e+003,-1.423817e-002
2.512833e+003,-1.415919e-002
2.514761e+003,-1.408584e-002
2.516689e+003,-1.411336e-002
2.518618e+003,-1.418331e-002
2.520546e+003,-1.416557e-002
2.522475e+003,-1.413760e-002
2.524403e+003,-1.411416e-002
2.526332e+003,-1.407592e-002
2.528260e+003,-1.398870e-002
2.530189e+003,-1.394978e-002
2.532117e+003,-1.393017e-002
2.534046e+003,-1.397269e-002
2.535974e+003,-1.392606e-002
2.537903e+003,-1.390546e-002
2.539831e+003,-1.401321e-002
2.541760e+003,-1.399370e-002
2.543688e+003,-1.400820e-002
2.545617e+003,-1.409815e-002
2.547545e+003,-1.402424e-002
2.549474e+003,-1.392170e-002
2.551402e+003,-1.397997e-002
2.553331e+003,-1.400769e-002
2.555259e+003,-1.398908e-002
2.557188e+003,-1.396662e-002
2.559116e+003,-1.402152e-002
2.561045e+003,-1.404773e-002
2.562973e+003,-1.395757e-002
2.564902e+003,-1.388114e-002
2.566830e+003,-1.394513e-002
2.568759e+003,-1.398077e-002
2.570687e+003,-1.395440e-002
2.572616e+003,-1.392167e-002
2.574544e+003,-1.388515e-002
2.576473e+003,-1.394326e-002
2.578401e+003,-1.402633e-002
2.580330e+003,-1.401818e-002
2.582258e+003,-1.393932e-002
2.584187e+003,-1.386480e-002
2.586115e+003,-1.390412e-002
2.588044e+003,-1.395340e-002
2.589972e+003,-1.393075e-002
2.591901e+003,-1.387828e-002
2.593829e+003,-1.380392e-002
2.595758e+003,-1.377779e-002
2.597686e+003,-1.377657e-002
2.599615e+003,-1.377708e-002
2.601543e+003,-1.379545e-002
2.603472e+003,-1.390187e-002
2.605400e+003,-1.391233e-002
2.607329e+003,-1.385020e-002
2.609257e+003,-1.381409e-002
2.611186e+003,-1.373866e-002
2.613114e+003,-1.369808e-002
2.615043e+003,-1.370807e-002
2.616971e+003,-1.362227e-002
2.618900e+003,-1.363843e-002
2.620828e+003,-1.364340e-002
2.622757e+003,-1.357240e-002
2.624685e+003,-1.347570e-002
2.626614e+003,-1.353251e-002
2.628542e+003,-1.365997e-002
2.630471e+003,-1.379172e-002
2.632399e+003,-1.370415e-002
2.634328e+003,-1.362536e-002
2.636256e+003,-1.368784e-002
2.638185e+003,-1.361627e-002
2.640113e+003,-1.346249e-002
2.642042e+003,-1.339066e-002
2.643970e+003,-1.341482e-002
2.645899e+003,-1.336316e-002
2.647827e+003,-1.332682e-002
2.649756e+003,-1.337906e-002
2.651684e+003,-1.340052e-002
2.653613e+003,-1.330436e-002
2.655541e+003,-1.310402e-002
2.657470e+003,-1.308058e-002
2.659398e+003,-1.312630e-002
2.661327e+003,-1.310183e-002
2.663255e+003,-1.310508e-002
2.665184e+003,-1.311382e-002
2.667112e+003,-1.304486e-002
2.669041e+003,-1.298788e-002
2.670969e+003,-1.313192e-002
2.672898e+003,-1.313835e-002
2.674826e+003,-1.301939e-002
2.676755e+003,-1.294186e-002
2.678683e+003,-1.293990e-002
2.680612e+003,-1.291741e-002
2.682540e+003,-1.285440e-002
2.684469e+003,-1.285193e-002
2.686397e+003,-1.282761e-002
2.688326e+003,-1.278713e-002
2.690254e+003,-1.277681e-002
2.692183e+003,-1.270399e-002
2.694111e+003,-1.264974e-002
2.696040e+003,-1.256544e-002
2.697968e+003,-1.248180e-002
2.699897e+003,-1.247440e-002
2.701825e+003,-1.250640e-002
2.703754e+003,-1.240865e-002
2.705682e+003,-1.230228e-002
2.707611e+003,-1.223840e-002
2.709539e+003,-1.224807e-002
2.711468e+003,-1.223573e-002
2.713396e+003,-1.219356e-002
2.715325e+003,-1.220519e-002
2.717253e+003,-1.220896e-002
2.719182e+003,-1.220397e-002
2.721110e+003,-1.205678e-002
2.723039e+003,-1.186089e-002
2.724967e+003,-1.171482e-002
2.726896e+003,-1.169124e-002
2.728824e+003,-1.182859e-002
2.730753e+003,-1.180563e-002
2.732681e+003,-1.154668e-002
2.734610e+003,-1.151455e-002
2.736538e+003,-1.152010e-002
2.738467e+003,-1.141538e-002
2.740395e+003,-1.124817e-002
2.742324e+003,-1.115191e-002
2.744252e+003,-1.115181e-002
2.746181e+003,-1.116796e-002
2.748109e+003,-1.106577e-002
2.750038e+003,-1.091332e-002
2.751966e+003,-1.091413e-002
2.753895e+003,-1.089535e-002
2.755823e+003,-1.081718e-002
2.757752e+003,-1.072477e-002
2.759680e+003,-1.053886e-002
2.761609e+003,-1.025042e-002
2.763537e+003,-1.002879e-002
2.765466e+003,-9.877558e-003
2.767394e+003,-9.612632e-003
2.769323e+003,-9.266240e-003
2.771251e+003,-8.896620e-003
2.773180e+003,-8.421016e-003
2.775108e+003,-8.056888e-003
2.777037e+003,-7.737408e-003
2.778965e+003,-7.225567e-003
2.780894e+003,-6.572026e-003
2.782822e+003,-6.039367e-003
2.784750e+003,-5.535432e-003
2.786679e+003,-4.777662e-003
2.788608e+003,-4.001595e-003
2.790536e+003,-3.335617e-003
2.792465e+003,-2.600379e-003
2.794393e+003,-1.839445e-003
2.796322e+003,-1.210751e-003
2.798250e+003,-5.619210e-004
2.800178e+003,1.611607e-004
2.802107e+003,8.126432e-004
2.804036e+003,1.378973e-003
2.805964e+003,1.858383e-003
2.807893e+003,2.096706e-003
2.809821e+003,2.167462e-003
2.811750e+003,2.315072e-003
2.813678e+003,2.360744e-003
2.815606e+003,2.225274e-003
2.817535e+003,2.061781e-003
2.819464e+003,1.856520e-003
2.821392e+003,1.423615e-003
2.823321e+003,1.010172e-003
2.825249e+003,6.168304e-004
2.827177e+003,1.867173e-004
2.829106e+003,-2.692300e-004
2.831034e+003,-9.216056e-004
2.832963e+003,-1.537544e-003
2.834892e+003,-2.101141e-003
2.836820e+003,-2.747216e-003
2.838749e+003,-3.330422e-003
2.840677e+003,-3.959898e-003
2.842605e+003,-4.793097e-003
2.844534e+003,-5.567131e-003
2.846462e+003,-6.211178e-003
2.848391e+003,-6.860403e-003
2.850320e+003,-7.267179e-003
2.852248e+003,-7.499215e-003
2.854177e+003,-7.741379e-003
2.856105e+003,-7.976415e-003
2.858033e+003,-8.108113e-003
2.859962e+003,-8.106128e-003
2.861890e+003,-8.112080e-003
2.863819e+003,-8.090974e-003
2.865748e+003,-7.980091e-003
2.867676e+003,-7.872042e-003
2.869604e+003,-7.823003e-003
2.871533e+003,-7.780989e-003
2.873461e+003,-7.654758e-003
2.875390e+003,-7.487784e-003
2.877319e+003,-7.383098e-003
2.879247e+003,-7.238504e-003
2.881176e+003,-7.109639e-003
2.883104e+003,-7.144417e-003
2.885032e+003,-7.255351e-003
2.886961e+003,-7.132129e-003
2.888889e+003,-7.135943e-003
2.890818e+003,-7.311198e-003
2.892747e+003,-7.458602e-003
2.894675e+003,-7.557701e-003
2.896604e+003,-7.623830e-003
2.898532e+003,-7.590001e-003
2.900460e+003,-7.674030e-003
2.902389e+003,-7.855577e-003
2.904317e+003,-7.937278e-003
2.906246e+003,-7.966264e-003
2.908175e+003,-8.094323e-003
2.910103e+003,-8.313403e-003
2.912031e+003,-8.493253e-003
2.913960e+003,-8.642952e-003
2.915888e+003,-8.818834e-003
2.917817e+003,-8.835425e-003
2.919745e+003,-8.751100e-003
2.921674e+003,-8.581590e-003
2.923603e+003,-8.378247e-003
2.925531e+003,-8.094681e-003
2.927459e+003,-7.821669e-003
2.929388e+003,-7.567469e-003
2.931316e+003,-7.221852e-003
2.933245e+003,-6.944573e-003
2.935173e+003,-6.756382e-003
2.937102e+003,-6.568501e-003
2.939031e+003,-6.472865e-003
2.940959e+003,-6.466499e-003
2.942887e+003,-6.606651e-003
2.944816e+003,-6.758763e-003
2.946744e+003,-6.863795e-003
2.948673e+003,-7.096796e-003
2.950601e+003,-7.473128e-003
2.952530e+003,-7.867584e-003
2.954458e+003,-8.470767e-003
2.956387e+003,-9.094659e-003
2.958315e+003,-9.585214e-003
2.960244e+003,-1.016708e-002
2.962172e+003,-1.075748e-002
2.964101e+003,-1.127525e-002
2.966029e+003,-1.178518e-002
2.967958e+003,-1.225335e-002
2.969886e+003,-1.269701e-002
2.971815e+003,-1.310826e-002
2.973743e+003,-1.347727e-002
2.975672e+003,-1.385643e-002
2.977600e+003,-1.418863e-002
2.979529e+003,-1.434763e-002
2.981457e+003,-1.460363e-002
2.983386e+003,-1.488371e-002
2.985314e+003,-1.519501e-002
2.987243e+003,-1.542198e-002
2.989171e+003,-1.552910e-002
2.991100e+003,-1.554530e-002
2.993028e+003,-1.565149e-002
2.994957e+003,-1.585555e-002
2.996885e+003,-1.592404e-002
2.998814e+003,-1.593237e-002
3.000742e+003,-1.607333e-002
3.002671e+003,-1.621591e-002
3.004599e+003,-1.622150e-002
3.006528e+003,-1.621901e-002
3.008456e+003,-1.628348e-002
3.010385e+003,-1.645802e-002
3.012313e+003,-1.656663e-002
3.014242e+003,-1.658216e-002
3.016170e+003,-1.655636e-002
3.018099e+003,-1.655292e-002
3.020027e+003,-1.647706e-002
3.021956e+003,-1.658277e-002
3.023884e+003,-1.674284e-002
3.025813e+003,-1.680010e-002
3.027741e+003,-1.681629e-002
3.029670e+003,-1.662538e-002
3.031598e+003,-1.659505e-002
3.033527e+003,-1.674734e-002
3.035455e+003,-1.679331e-002
3.037384e+003,-1.679863e-002
3.039312e+003,-1.698121e-002
3.041241e+003,-1.713795e-002
3.043169e+003,-1.716070e-002
3.045098e+003,-1.709275e-002
3.047026e+003,-1.702024e-002
3.048955e+003,-1.702929e-002
3.050883e+003,-1.713652e-002
3.052812e+003,-1.727802e-002
3.054740e+003,-1.733167e-002
3.056669e+003,-1.737060e-002
3.058597e+003,-1.741615e-002
3.060526e+003,-1.741307e-002
3.062454e+003,-1.737487e-002
3.064383e+003,-1.741985e-002
3.066311e+003,-1.750403e-002
3.068240e+003,-1.752144e-002
3.070168e+003,-1.759294e-002
3.072097e+003,-1.769271e-002
3.074025e+003,-1.765906e-002
3.075954e+003,-1.757395e-002
3.077882e+003,-1.761019e-002
3.079811e+003,-1.774924e-002
3.081739e+003,-1.776527e-002
3.083668e+003,-1.769431e-002
3.085596e+003,-1.771578e-002
3.087525e+003,-1.786837e-002
3.089453e+003,-1.793546e-002
3.091382e+003,-1.795066e-002
3.093310e+003,-1.798325e-002
3.095239e+003,-1.798131e-002
3.097167e+003,-1.802149e-002
3.099096e+003,-1.817369e-002
3.101024e+003,-1.824607e-002
3.102953e+003,-1.826663e-002
3.104881e+003,-1.828496e-002
3.106810e+003,-1.822354e-002
3.108738e+003,-1.819415e-002
3.110667e+003,-1.836462e-002
3.112595e+003,-1.836986e-002
3.114524e+003,-1.833924e-002
3.116452e+003,-1.834814e-002
3.118381e+003,-1.841795e-002
3.120309e+003,-1.851842e-002
3.122238e+003,-1.854909e-002
3.124166e+003,-1.861595e-002
3.126095e+003,-1.860855e-002
3.128023e+003,-1.857601e-002
3.129952e+003,-1.854696e-002
3.131880e+003,-1.856535e-002
3.133809e+003,-1.857227e-002
3.135737e+003,-1.862925e-002
3.137666e+003,-1.858598e-002
3.139594e+003,-1.851515e-002
3.141523e+003,-1.850365e-002
3.143451e+003,-1.853093e-002
3.145380e+003,-1.870368e-002
3.147308e+003,-1.869016e-002
3.149237e+003,-1.869016e-002
3.151165e+003,-1.880665e-002
3.153094e+003,-1.882401e-002
3.155022e+003,-1.873275e-002
3.156951e+003,-1.872193e-002
3.158879e+003,-1.867988e-002
3.160808e+003,-1.860481e-002
3.162736e+003,-1.872167e-002
3.164665e+003,-1.882636e-002
3.166593e+003,-1.883378e-002
3.168522e+003,-1.882398e-002
3.170450e+003,-1.883800e-002
3.172379e+003,-1.878301e-002
3.174307e+003,-1.873833e-002
3.176236e+003,-1.884355e-002
3.178164e+003,-1.885755e-002
3.180093e+003,-1.876125e-002
3.182021e+003,-1.881881e-002
3.183950e+003,-1.894244e-002
3.185878e+003,-1.891861e-002
3.187807e+003,-1.887477e-002
3.189735e+003,-1.883835e-002
3.191664e+003,-1.882734e-002
3.193592e+003,-1.891211e-002
3.195521e+003,-1.888594e-002
3.197449e+003,-1.882423e-002
3.199378e+003,-1.893863e-002
3.201306e+003,-1.899078e-002
3.203235e+003,-1.902525e-002
3.205163e+003,-1.894818e-002
3.207092e+003,-1.892464e-002
3.209020e+003,-1.887959e-002
3.210948e+003,-1.880938e-002
3.212877e+003,-1.877606e-002
3.214806e+003,-1.880634e-002
3.216734e+003,-1.885723e-002
3.218663e+003,-1.886332e-002
3.220591e+003,-1.888045e-002
3.222520e+003,-1.871168e-002
3.224448e+003,-1.855379e-002
3.226376e+003,-1.852467e-002
3.228305e+003,-1.848806e-002
3.230234e+003,-1.841795e-002
3.232162e+003,-1.848416e-002
3.234091e+003,-1.855766e-002
3.236019e+003,-1.848445e-002
3.237948e+003,-1.839235e-002
3.239876e+003,-1.829836e-002
3.241804e+003,-1.815269e-002
3.243733e+003,-1.822920e-002
3.245662e+003,-1.827454e-002
3.247590e+003,-1.837120e-002
3.249519e+003,-1.829960e-002
3.251447e+003,-1.824588e-002
3.253375e+003,-1.817951e-002
3.255304e+003,-1.802854e-002
3.257232e+003,-1.791082e-002
3.259161e+003,-1.792268e-002
3.261090e+003,-1.795696e-002
3.263018e+003,-1.790198e-002
3.264947e+003,-1.793798e-002
3.266875e+003,-1.798677e-002
3.268803e+003,-1.792771e-002
3.270732e+003,-1.784239e-002
3.272660e+003,-1.772526e-002
3.274589e+003,-1.771056e-002
3.276518e+003,-1.770490e-002
3.278446e+003,-1.774650e-002
3.280375e+003,-1.792666e-002
3.282303e+003,-1.788663e-002
3.284231e+003,-1.775967e-002
3.286160e+003,-1.774371e-002
3.288088e+003,-1.776785e-002
3.290017e+003,-1.790580e-002
3.291946e+003,-1.803888e-002
3.293874e+003,-1.815215e-002
3.295802e+003,-1.816035e-002
3.297731e+003,-1.807832e-002
3.299659e+003,-1.808433e-002
3.301588e+003,-1.818383e-002
3.303516e+003,-1.836069e-002
3.305445e+003,-1.849873e-002
3.307374e+003,-1.871180e-002
3.309302e+003,-1.882284e-002
3.311230e+003,-1.879863e-002
3.313159e+003,-1.888426e-002
3.315087e+003,-1.893530e-002
3.317016e+003,-1.897149e-002
3.318944e+003,-1.917187e-002
3.320873e+003,-1.923362e-002
3.322802e+003,-1.929568e-002
3.324730e+003,-1.948441e-002
3.326658e+003,-1.959126e-002
3.328587e+003,-1.957875e-002
3.330515e+003,-1.959341e-002
3.332444e+003,-1.970226e-002
3.334372e+003,-1.969776e-002
3.336301e+003,-1.975247e-002
3.338229e+003,-1.991145e-002
3.340158e+003,-1.997006e-002
3.342086e+003,-2.004514e-002
3.344015e+003,-1.994474e-002
3.345943e+003,-1.981193e-002
3.347872e+003,-1.987862e-002
3.349800e+003,-1.994439e-002
3.351729e+003,-1.999467e-002
3.353657e+003,-2.012468e-002
3.355586e+003,-2.020666e-002
3.357514e+003,-2.031532e-002
3.359443e+003,-2.035029e-002
3.361371e+003,-2.032174e-002
3.363300e+003,-2.036835e-002
3.365229e+003,-2.055784e-002
3.367157e+003,-2.059172e-002
3.369085e+003,-2.061482e-002
3.371014e+003,-2.072309e-002
3.372942e+003,-2.079047e-002
3.374871e+003,-2.081453e-002
3.376799e+003,-2.077332e-002
3.378728e+003,-2.089260e-002
3.380656e+003,-2.109904e-002
3.382585e+003,-2.126276e-002
3.384513e+003,-2.131223e-002
3.386442e+003,-2.132569e-002
3.388370e+003,-2.122108e-002
3.390299e+003,-2.127566e-002
3.392227e+003,-2.140481e-002
3.394156e+003,-2.140449e-002
3.396084e+003,-2.139055e-002
3.398013e+003,-2.135942e-002
3.399941e+003,-2.138386e-002
3.401870e+003,-2.155104e-002
3.403798e+003,-2.162503e-002
3.405727e+003,-2.169000e-002
3.407655e+003,-2.163001e-002
3.409584e+003,-2.164546e-002
3.411512e+003,-2.181143e-002
3.413441e+003,-2.189341e-002
3.415369e+003,-2.179967e-002
3.417298e+003,-2.177144e-002
3.419226e+003,-2.184177e-002
3.421155e+003,-2.188229e-002
3.423083e+003,-2.186124e-002
3.425012e+003,-2.193203e-002
3.426940e+003,-2.211083e-002
3.428869e+003,-2.209799e-002
3.430797e+003,-2.192869e-002
3.432726e+003,-2.186159e-002
3.434654e+003,-2.203494e-002
3.436583e+003,-2.231201e-002
3.438511e+003,-2.228749e-002
3.440440e+003,-2.210983e-002
3.442368e+003,-2.200133e-002
3.444297e+003,-2.203853e-002
3.446225e+003,-2.206442e-002
3.448154e+003,-2.221468e-002
3.450082e+003,-2.236022e-002
3.452011e+003,-2.238892e-002
3.453939e+003,-2.245865e-002
3.455868e+003,-2.261919e-002
3.457796e+003,-2.253768e-002
3.459725e+003,-2.236708e-002
3.461653e+003,-2.234099e-002
3.463582e+003,-2.251742e-002
3.465510e+003,-2.271300e-002
3.467439e+003,-2.266384e-002
3.469367e+003,-2.259981e-002
3.471296e+003,-2.267903e-002
3.473224e+003,-2.263089e-002
3.475153e+003,-2.266224e-002
3.477081e+003,-2.261000e-002
3.479010e+003,-2.261484e-002
3.480938e+003,-2.257804e-002
3.482867e+003,-2.254423e-002
3.484795e+003,-2.252982e-002
3.486724e+003,-2.248077e-002
3.488652e+003,-2.251418e-002
3.490581e+003,-2.270133e-002
3.492509e+003,-2.274517e-002
3.494438e+003,-2.254643e-002
3.496366e+003,-2.236573e-002
3.498295e+003,-2.250421e-002
3.500223e+003,-2.273771e-002
3.502152e+003,-2.270551e-002
3.504080e+003,-2.266105e-002
3.506009e+003,-2.255171e-002
3.507937e+003,-2.237851e-002
3.509866e+003,-2.247967e-002
3.511794e+003,-2.256867e-002
3.513723e+003,-2.251094e-002
3.515651e+003,-2.267372e-002
3.517580e+003,-2.269438e-002
3.519508e+003,-2.268026e-002
3.521437e+003,-2.274334e-002
3.523365e+003,-2.278085e-002
3.525294e+003,-2.270086e-002
3.527222e+003,-2.253923e-002
3.529151e+003,-2.251204e-002
3.531079e+003,-2.263475e-002
3.533008e+003,-2.269029e-002
3.534936e+003,-2.257304e-002
3.536865e+003,-2.251374e-002
3.538793e+003,-2.248678e-002
3.540722e+003,-2.227480e-002
3.542650e+003,-2.216011e-002
3.544579e+003,-2.220013e-002
3.546507e+003,-2.226476e-002
3.548436e+003,-2.255411e-002
3.550364e+003,-2.265362e-002
3.552293e+003,-2.251783e-002
3.554221e+003,-2.261598e-002
3.556150e+003,-2.267054e-002
3.558078e+003,-2.257927e-002
3.560007e+003,-2.250132e-002
3.561935e+003,-2.226038e-002
3.563864e+003,-2.224710e-002
3.565792e+003,-2.207182e-002
3.567721e+003,-2.199702e-002
3.569649e+003,-2.240255e-002
3.571578e+003,-2.267973e-002
3.573506e+003,-2.255574e-002
3.575435e+003,-2.234650e-002
3.577363e+003,-2.222317e-002
3.579292e+003,-2.225462e-002
3.581220e+003,-2.245176e-002
3.583149e+003,-2.261038e-002
3.585077e+003,-2.238543e-002
3.587006e+003,-2.215879e-002
3.588934e+003,-2.210614e-002
3.590863e+003,-2.234030e-002
3.592791e+003,-2.251969e-002
3.594720e+003,-2.242285e-002
3.596648e+003,-2.226649e-002
3.598577e+003,-2.212356e-002
3.600505e+003,-2.209818e-002
3.602434e+003,-2.225894e-002
3.604362e+003,-2.223914e-002
3.606291e+003,-2.228097e-002
3.608219e+003,-2.210816e-002
3.610148e+003,-2.191915e-002
3.612076e+003,-2.197913e-002
3.614005e+003,-2.213222e-002
3.615933e+003,-2.232573e-002
3.617862e+003,-2.196858e-002
3.619790e+003,-2.173570e-002
3.621719e+003,-2.213864e-002
3.623647e+003,-2.243358e-002
3.625576e+003,-2.242492e-002
3.627504e+003,-2.175060e-002
3.629433e+003,-2.115175e-002
3.631361e+003,-2.190107e-002
3.633290e+003,-2.239852e-002
3.635218e+003,-2.251091e-002
3.637146e+003,-2.249798e-002
3.639075e+003,-2.249248e-002
3.641004e+003,-2.243254e-002
3.642932e+003,-2.247983e-002
3.644861e+003,-2.267133e-002
3.646789e+003,-2.226319e-002
3.648718e+003,-2.176536e-002
3.650646e+003,-2.181896e-002
3.652574e+003,-2.235789e-002
3.654503e+003,-2.250723e-002
3.656432e+003,-2.231270e-002
3.658360e+003,-2.278073e-002
3.660289e+003,-2.299425e-002
3.662217e+003,-2.292106e-002
3.664146e+003,-2.299692e-002
3.666074e+003,-2.311261e-002
3.668002e+003,-2.276158e-002
3.669931e+003,-2.221395e-002
3.671860e+003,-2.263979e-002
3.673788e+003,-2.268897e-002
3.675717e+003,-2.197491e-002
3.677645e+003,-2.236586e-002
3.679573e+003,-2.279745e-002
3.681502e+003,-2.300717e-002
3.683430e+003,-2.312999e-002
3.685359e+003,-2.323211e-002
3.687288e+003,-2.266601e-002
3.689216e+003,-2.209981e-002
3.691145e+003,-2.247788e-002
3.693073e+003,-2.284618e-002
3.695001e+003,-2.306077e-002
3.696930e+003,-2.311117e-002
3.698858e+003,-2.318132e-002
3.700787e+003,-2.295264e-002
3.702716e+003,-2.276969e-002
3.704644e+003,-2.294004e-002
3.706573e+003,-2.300336e-002
3.708501e+003,-2.285203e-002
3.710429e+003,-2.244330e-002
3.712358e+003,-2.225255e-002
3.714286e+003,-2.277293e-002
3.716215e+003,-2.308358e-002
3.718144e+003,-2.297115e-002
3.720072e+003,-2.286995e-002
3.722000e+003,-2.265850e-002
3.723929e+003,-2.267954e-002
3.725857e+003,-2.256700e-002
3.727786e+003,-2.254753e-002
3.729714e+003,-2.289082e-002
3.731643e+003,-2.281704e-002
3.733572e+003,-2.281610e-002
3.735500e+003,-2.254149e-002
3.737428e+003,-2.262941e-002
3.739357e+003,-2.288287e-002
3.741285e+003,-2.287539e-002
3.743214e+003,-2.229721e-002
3.745142e+003,-2.168171e-002
3.747071e+003,-2.244852e-002
3.749000e+003,-2.207028e-002
3.750928e+003,-2.165523e-002
3.752856e+003,-2.185686e-002
3.754785e+003,-2.251689e-002
3.756713e+003,-2.256555e-002
3.758642e+003,-2.244632e-002
3.760570e+003,-2.253312e-002
3.762499e+003,-2.267982e-002
3.764427e+003,-2.240101e-002
3.766356e+003,-2.235393e-002
3.768284e+003,-2.231370e-002
3.770213e+003,-2.219771e-002
3.772141e+003,-2.250393e-002
3.774070e+003,-2.271828e-002
3.775998e+003,-2.284382e-002
3.777927e+003,-2.283226e-002
3.779855e+003,-2.269023e-002
3.781784e+003,-2.270168e-002
3.783712e+003,-2.251698e-002
3.785641e+003,-2.251610e-002
3.787569e+003,-2.272863e-002
3.789498e+003,-2.272847e-002
3.791426e+003,-2.271231e-002
3.793355e+003,-2.298416e-002
3.795283e+003,-2.274469e-002
3.797212e+003,-2.261069e-002
3.799140e+003,-2.281283e-002
3.801069e+003,-2.220554e-002
3.802997e+003,-2.221537e-002
3.804926e+003,-2.274246e-002
3.806854e+003,-2.250236e-002
3.808783e+003,-2.281173e-002
3.810711e+003,-2.296512e-002
3.812640e+003,-2.290943e-002
3.814568e+003,-2.259849e-002
3.816497e+003,-2.196001e-002
3.818425e+003,-2.218640e-002
3.820354e+003,-2.168265e-002
3.822282e+003,-2.165996e-002
3.824211e+003,-2.243867e-002
3.826139e+003,-2.255171e-002
3.828068e+003,-2.240466e-002
3.829996e+003,-2.233596e-002
3.831925e+003,-2.211140e-002
3.833853e+003,-2.194057e-002
3.835782e+003,-2.212223e-002
3.837710e+003,-2.194463e-002
3.839639e+003,-2.199173e-002
3.841567e+003,-2.213455e-002
3.843496e+003,-2.234634e-002
3.845424e+003,-2.266076e-002
3.847353e+003,-2.285718e-002
3.849281e+003,-2.270419e-002
3.851210e+003,-2.205050e-002
3.853138e+003,-2.085840e-002
3.855067e+003,-2.126604e-002
3.856995e+003,-2.226460e-002
3.858924e+003,-2.262305e-002
3.860852e+003,-2.270054e-002
3.862781e+003,-2.259305e-002
3.864709e+003,-2.208092e-002
3.866638e+003,-2.231821e-002
3.868566e+003,-2.236891e-002
3.870495e+003,-2.196939e-002
3.872423e+003,-2.229583e-002
3.874352e+003,-2.208942e-002
3.876280e+003,-2.233416e-002
3.878209e+003,-2.268586e-002
3.880137e+003,-2.247527e-002
3.882066e+003,-2.232966e-002
3.883994e+003,-2.234021e-002
3.885923e+003,-2.204102e-002
3.887851e+003,-2.255480e-002
3.889780e+003,-2.255697e-002
3.891708e+003,-2.239755e-002
3.893637e+003,-2.280339e-002
3.895565e+003,-2.300946e-002
3.897494e+003,-2.284911e-002
3.899422e+003,-2.234899e-002
3.901351e+003,-2.229513e-002
3.903279e+003,-2.219226e-002
3.905208e+003,-2.227543e-002
3.907136e+003,-2.266287e-002
3.909065e+003,-2.285797e-002
3.910993e+003,-2.298570e-002
3.912922e+003,-2.313137e-002
3.914850e+003,-2.314054e-002
3.916779e+003,-2.304437e-002
3.918707e+003,-2.302960e-002
3.920636e+003,-2.296707e-002
3.922564e+003,-2.307325e-002
3.924493e+003,-2.296606e-002
3.926421e+003,-2.291449e-002
3.928350e+003,-2.295962e-002
3.930278e+003,-2.290207e-002
3.932207e+003,-2.270517e-002
3.934135e+003,-2.269938e-002
3.936064e+003,-2.271850e-002
3.937992e+003,-2.278129e-002
3.939921e+003,-2.301323e-002
3.941849e+003,-2.296440e-002
3.943778e+003,-2.281783e-002
3.945706e+003,-2.299705e-002
3.947635e+003,-2.297794e-002
3.949563e+003,-2.280629e-002
3.951492e+003,-2.261620e-002
3.953420e+003,-2.266080e-002
3.955349e+003,-2.279186e-002
3.957277e+003,-2.280443e-002
3.959206e+003,-2.296414e-002
3.961134e+003,-2.311334e-002
3.963063e+003,-2.299551e-002
3.964991e+003,-2.321091e-002
3.966920e+003,-2.331766e-002
3.968848e+003,-2.316627e-002
3.970777e+003,-2.307337e-002
3.972705e+003,-2.309445e-002
3.974634e+003,-2.306875e-002
3.976562e+003,-2.311761e-002
3.978491e+003,-2.319881e-002
3.980419e+003,-2.299925e-002
3.982348e+003,-2.297807e-002
3.984276e+003,-2.308949e-002
3.986205e+003,-2.304579e-002
3.988133e+003,-2.274963e-002
3.990062e+003,-2.267221e-002
3.991990e+003,-2.288019e-002
3.993919e+003,-2.282003e-002
3.995847e+003,-2.286995e-002
3.997776e+003,-2.311714e-002
3.999704e+003,-2.302555e-002
4.001633e+003,0.000000e+000
