3.991989e+002,5.525226e-002
4.011274e+002,5.274123e-002
4.030559e+002,4.169732e-002
4.049844e+002,3.459084e-002
4.069129e+002,3.460684e-002
4.088414e+002,3.854128e-002
4.107699e+002,3.839311e-002
4.126984e+002,3.676179e-002
4.146269e+002,2.983095e-002
4.165554e+002,2.566644e-002
4.184839e+002,2.927359e-002
4.204124e+002,3.021129e-002
4.223409e+002,3.101082e-002
4.242694e+002,3.056064e-002
4.261979e+002,2.524542e-002
4.281264e+002,2.398287e-002
4.300549e+002,2.247102e-002
4.319834e+002,1.610066e-002
4.339119e+002,1.661950e-002
4.358404e+002,2.574082e-002
4.377689e+002,2.768066e-002
4.396974e+002,2.297011e-002
4.416259e+002,1.928086e-002
4.435544e+002,2.024095e-002
4.454829e+002,2.047937e-002
4.474114e+002,2.191002e-002
4.493399e+002,1.971763e-002
4.512684e+002,1.497527e-002
4.531969e+002,1.483684e-002
4.551254e+002,1.769470e-002
4.570539e+002,1.689301e-002
4.589824e+002,1.398859e-002
4.609109e+002,1.434687e-002
4.628394e+002,1.524634e-002
4.647679e+002,1.451348e-002
4.666964e+002,1.464547e-002
4.686249e+002,1.374622e-002
4.705533e+002,1.387034e-002
4.724819e+002,1.640126e-002
4.744103e+002,1.603306e-002
4.763389e+002,1.407801e-002
4.782673e+002,1.429341e-002
4.801959e+002,1.414174e-002
4.821243e+002,1.414352e-002
4.840529e+002,1.208688e-002
4.859813e+002,1.032642e-002
4.879099e+002,1.088111e-002
4.898383e+002,1.164792e-002
4.917668e+002,1.072224e-002
4.936953e+002,1.111145e-002
4.956238e+002,1.093673e-002
4.975523e+002,1.001623e-002
4.994808e+002,1.088247e-002
5.014093e+002,1.241922e-002
5.033378e+002,9.160209e-003
5.052663e+002,3.988144e-003
5.071948e+002,5.038450e-003
5.091233e+002,6.218842e-003
5.110518e+002,4.663985e-003
5.129803e+002,4.926908e-003
5.149088e+002,5.155655e-003
5.168373e+002,5.730063e-003
5.187658e+002,6.083843e-003
5.206943e+002,7.741404e-003
5.226228e+002,6.760162e-003
5.245513e+002,5.034495e-003
5.264798e+002,4.902478e-003
5.284083e+002,6.173871e-003
5.303368e+002,4.617601e-003
5.322653e+002,3.604192e-003
5.341938e+002,4.403865e-003
5.361223e+002,4.894436e-003
5.380508e+002,4.433957e-003
5.399792e+002,6.004988e-003
5.419078e+002,5.929204e-003
5.438363e+002,5.999142e-003
5.457648e+002,6.627957e-003
5.476932e+002,6.312259e-003
5.496218e+002,5.978952e-003
5.515503e+002,7.222307e-003
5.534788e+002,6.647673e-003
5.554072e+002,6.661837e-003
5.573358e+002,6.899646e-003
5.592643e+002,7.636685e-003
5.611927e+002,7.296161e-003
5.631212e+002,7.289894e-003
5.650497e+002,7.079486e-003
5.669783e+002,7.378723e-003
5.689067e+002,7.581419e-003
5.708352e+002,7.567629e-003
5.727637e+002,7.023078e-003
5.746923e+002,6.403713e-003
5.766207e+002,7.301990e-003
5.785492e+002,6.784293e-003
5.804777e+002,-2.828600e-003
5.824063e+002,-4.047292e-003
5.843347e+002,4.529972e-003
5.862632e+002,7.671083e-003
5.881917e+002,7.241376e-003
5.901202e+002,5.333667e-003
5.920487e+002,3.453906e-003
5.939772e+002,2.998588e-003
5.959057e+002,3.133264e-003
5.978342e+002,3.622401e-003
5.997627e+002,5.165580e-003
6.016912e+002,6.671056e-003
6.036197e+002,7.539578e-003
6.055482e+002,8.914056e-003
6.074767e+002,9.761223e-003
6.094052e+002,1.040824e-002
6.113337e+002,1.174309e-002
6.132622e+002,1.079313e-002
6.151907e+002,9.814768e-003
6.171192e+002,9.213206e-003
6.190477e+002,8.338903e-003
6.209762e+002,9.262892e-003
6.229047e+002,8.096692e-003
6.248332e+002,3.889609e-003
6.267617e+002,1.094304e-003
6.286902e+002,8.707735e-004
6.306187e+002,2.156606e-003
6.325472e+002,2.512185e-003
6.344756e+002,2.432043e-003
6.364042e+002,2.731861e-003
6.383326e+002,2.748033e-003
6.402612e+002,2.729160e-003
6.421896e+002,3.163368e-003
6.441182e+002,3.110404e-003
6.460466e+002,2.790382e-003
6.479752e+002,3.390553e-003
6.499036e+002,3.269084e-003
6.518322e+002,2.785480e-003
6.537606e+002,3.049370e-003
6.556891e+002,3.737753e-003
6.576177e+002,4.060782e-003
6.595461e+002,3.514562e-003
6.614746e+002,2.707288e-003
6.634031e+002,2.378934e-003
6.653317e+002,3.617690e-003
6.672601e+002,8.294557e-003
6.691886e+002,7.630144e-003
6.711171e+002,4.559369e-003
6.730457e+002,4.465592e-003
6.749741e+002,4.493244e-003
6.769026e+002,4.396736e-003
6.788311e+002,4.457490e-003
6.807596e+002,4.702703e-003
6.826881e+002,4.973962e-003
6.846166e+002,5.345273e-003
6.865451e+002,5.432900e-003
6.884736e+002,4.810838e-003
6.904021e+002,4.272508e-003
6.923306e+002,4.368219e-003
6.942591e+002,4.866088e-003
6.961876e+002,5.028327e-003
6.981161e+002,4.612109e-003
7.000446e+002,4.163404e-003
7.019731e+002,3.908231e-003
7.039016e+002,3.991555e-003
7.058301e+002,3.829469e-003
7.077585e+002,3.400104e-003
7.096871e+002,3.071093e-003
7.116156e+002,2.958687e-003
7.135441e+002,2.654312e-003
7.154725e+002,2.099935e-003
7.174011e+002,1.775467e-003
7.193296e+002,1.754009e-003
7.212581e+002,1.791570e-003
7.231865e+002,2.041274e-003
7.251151e+002,2.043038e-003
7.270436e+002,1.887701e-003
7.289720e+002,1.917153e-003
7.309005e+002,2.007885e-003
7.328290e+002,1.978260e-003
7.347576e+002,1.844175e-003
7.366860e+002,1.884140e-003
7.386145e+002,1.895122e-003
7.405430e+002,1.993039e-003
7.424716e+002,2.112055e-003
7.444000e+002,2.228738e-003
7.463285e+002,2.573177e-003
7.482570e+002,2.665813e-003
7.501855e+002,2.634777e-003
7.521140e+002,3.417269e-003
7.540425e+002,3.938590e-003
7.559710e+002,4.158420e-003
7.578995e+002,4.663014e-003
7.598280e+002,4.628384e-003
7.617565e+002,4.655612e-003
7.636850e+002,5.037881e-003
7.656135e+002,5.497759e-003
7.675420e+002,5.513900e-003
7.694705e+002,5.276748e-003
7.713990e+002,5.281577e-003
7.733275e+002,5.506081e-003
7.752560e+002,5.670776e-003
7.771844e+002,5.888764e-003
7.791130e+002,5.963634e-003
7.810415e+002,5.857294e-003
7.829700e+002,5.434074e-003
7.848984e+002,5.155185e-003
7.868270e+002,5.064530e-003
7.887555e+002,5.284495e-003
7.906840e+002,5.271381e-003
7.926124e+002,4.792747e-003
7.945410e+002,4.666731e-003
7.964695e+002,4.466596e-003
7.983979e+002,4.048273e-003
8.003264e+002,3.967847e-003
8.022549e+002,4.422509e-003
8.041835e+002,4.445606e-003
8.061119e+002,4.192509e-003
8.080404e+002,4.570486e-003
8.099689e+002,5.089338e-003
8.118975e+002,5.230499e-003
8.138259e+002,5.443368e-003
8.157545e+002,5.224966e-003
8.176830e+002,5.331051e-003
8.196115e+002,4.938570e-003
8.215399e+002,4.137144e-003
8.234684e+002,3.795808e-003
8.253970e+002,3.866775e-003
8.273254e+002,3.920735e-003
8.292539e+002,3.362370e-003
8.311824e+002,3.022076e-003
8.331110e+002,3.212268e-003
8.350394e+002,3.059614e-003
8.369679e+002,3.139271e-003
8.388964e+002,3.084808e-003
8.408250e+002,3.085876e-003
8.427534e+002,2.816194e-003
8.446819e+002,2.343421e-003
8.466104e+002,2.254949e-003
8.485389e+002,2.347185e-003
8.504674e+002,2.347918e-003
8.523959e+002,2.371738e-003
8.543244e+002,2.498888e-003
8.562529e+002,2.567844e-003
8.581814e+002,2.533948e-003
8.601099e+002,2.509886e-003
8.620384e+002,2.170292e-003
8.639669e+002,2.072202e-003
8.658954e+002,2.395926e-003
8.678239e+002,2.102732e-003
8.697524e+002,2.076996e-003
8.716809e+002,2.447870e-003
8.736094e+002,2.357179e-003
8.755378e+002,2.378867e-003
8.774664e+002,2.691051e-003
8.793949e+002,2.747366e-003
8.813234e+002,2.799119e-003
8.832518e+002,2.953249e-003
8.851804e+002,3.020742e-003
8.871089e+002,2.851846e-003
8.890374e+002,2.543280e-003
8.909658e+002,2.613542e-003
8.928943e+002,3.092516e-003
8.948229e+002,3.245716e-003
8.967513e+002,3.236535e-003
8.986798e+002,3.178321e-003
9.006083e+002,3.210632e-003
9.025369e+002,3.207628e-003
9.044653e+002,3.102494e-003
9.063938e+002,2.947945e-003
9.083223e+002,2.602709e-003
9.102509e+002,2.309542e-003
9.121793e+002,2.489657e-003
9.141078e+002,2.413951e-003
9.160364e+002,2.334326e-003
9.179648e+002,2.288357e-003
9.198933e+002,1.991808e-003
9.218218e+002,1.946574e-003
9.237504e+002,1.604461e-003
9.256788e+002,1.124633e-003
9.276073e+002,9.852640e-004
9.295358e+002,8.312334e-004
9.314644e+002,5.579047e-004
9.333928e+002,4.843583e-004
9.353213e+002,6.381332e-004
9.372498e+002,5.861057e-004
9.391783e+002,1.026945e-004
9.411068e+002,-2.080768e-005
9.430353e+002,3.540158e-004
9.449637e+002,3.979564e-004
9.468923e+002,3.136275e-004
9.488208e+002,9.666275e-005
9.507493e+002,1.259608e-004
9.526777e+002,8.741640e-005
9.546063e+002,3.813895e-005
9.565348e+002,-6.461089e-006
9.584633e+002,-4.794231e-005
9.603917e+002,3.048439e-005
9.623203e+002,2.060100e-004
9.642488e+002,2.401225e-004
9.661772e+002,3.789868e-004
9.681057e+002,5.748583e-004
9.700343e+002,4.094978e-004
9.719628e+002,4.918882e-004
9.738912e+002,5.394589e-004
9.758197e+002,4.327141e-004
9.777483e+002,4.992523e-004
9.796768e+002,4.528138e-004
9.816052e+002,3.993825e-004
9.835337e+002,5.845463e-004
9.854623e+002,7.336437e-004
9.873907e+002,5.795364e-004
9.893192e+002,5.463262e-004
9.912477e+002,4.511222e-004
9.931763e+002,5.852431e-004
9.951047e+002,7.913650e-004
9.970332e+002,6.674014e-004
9.989617e+002,6.875451e-004
1.000890e+003,9.138699e-004
1.002819e+003,1.049197e-003
1.004747e+003,9.438540e-004
1.006676e+003,1.025217e-003
1.008604e+003,1.195164e-003
1.010533e+003,1.324197e-003
1.012461e+003,1.606257e-003
1.014390e+003,1.882243e-003
1.016318e+003,2.189940e-003
1.018247e+003,2.496755e-003
1.020175e+003,2.571677e-003
1.022104e+003,2.744965e-003
1.024032e+003,2.940806e-003
1.025961e+003,3.439378e-003
1.027889e+003,3.705203e-003
1.029818e+003,3.899204e-003
1.031746e+003,4.097539e-003
1.033675e+003,4.184580e-003
1.035603e+003,4.242227e-003
1.037532e+003,4.329330e-003
1.039460e+003,4.566234e-003
1.041389e+003,4.797906e-003
1.043317e+003,4.994239e-003
1.045246e+003,5.024573e-003
1.047174e+003,5.033289e-003
1.049103e+003,5.175069e-003
1.051031e+003,5.008048e-003
1.052960e+003,4.918195e-003
1.054888e+003,4.964745e-003
1.056817e+003,4.823603e-003
1.058745e+003,4.636858e-003
1.060674e+003,4.732917e-003
1.062602e+003,4.675875e-003
1.064531e+003,4.519090e-003
1.066459e+003,4.501279e-003
1.068388e+003,4.688971e-003
1.070316e+003,4.933544e-003
1.072245e+003,5.041065e-003
1.074173e+003,4.802160e-003
1.076102e+003,4.528029e-003
1.078030e+003,4.622457e-003
1.079959e+003,4.657722e-003
1.081887e+003,4.742999e-003
1.083816e+003,5.094434e-003
1.085744e+003,5.055815e-003
1.087673e+003,4.929690e-003
1.089601e+003,5.088969e-003
1.091530e+003,5.258670e-003
1.093458e+003,5.312871e-003
1.095387e+003,5.294557e-003
1.097315e+003,5.348863e-003
1.099244e+003,5.488364e-003
1.101172e+003,5.581826e-003
1.103101e+003,5.332896e-003
1.105029e+003,5.299018e-003
1.106958e+003,5.433705e-003
1.108886e+003,5.496417e-003
1.110815e+003,5.554574e-003
1.112743e+003,5.408878e-003
1.114672e+003,5.217086e-003
1.116600e+003,5.660705e-003
1.118529e+003,6.006668e-003
1.120457e+003,5.812697e-003
1.122386e+003,5.750577e-003
1.124314e+003,5.632441e-003
1.126243e+003,5.378786e-003
1.128171e+003,5.125680e-003
1.130100e+003,5.192271e-003
1.132028e+003,5.087997e-003
1.133957e+003,4.692420e-003
1.135885e+003,4.517986e-003
1.137814e+003,4.203951e-003
1.139742e+003,3.536542e-003
1.141671e+003,3.471440e-003
1.143599e+003,3.522278e-003
1.145528e+003,3.102561e-003
1.147456e+003,2.579810e-003
1.149385e+003,2.394093e-003
1.151313e+003,2.148082e-003
1.153242e+003,1.897085e-003
1.155170e+003,1.932762e-003
1.157099e+003,1.759198e-003
1.159027e+003,1.487347e-003
1.160956e+003,1.234638e-003
1.162884e+003,1.161575e-003
1.164813e+003,1.143402e-003
1.166741e+003,1.180778e-003
1.168670e+003,1.264611e-003
1.170598e+003,1.195065e-003
1.172526e+003,1.116361e-003
1.174455e+003,1.097958e-003
1.176384e+003,1.207292e-003
1.178312e+003,1.300036e-003
1.180240e+003,1.287541e-003
1.182169e+003,1.355539e-003
1.184098e+003,1.300136e-003
1.186026e+003,1.230949e-003
1.187954e+003,1.337126e-003
1.189883e+003,1.246866e-003
1.191812e+003,1.176359e-003
1.193740e+003,1.218190e-003
1.195668e+003,1.112109e-003
1.197597e+003,9.711171e-004
1.199526e+003,1.066701e-003
1.201454e+003,1.194699e-003
1.203382e+003,1.264445e-003
1.205311e+003,1.425144e-003
1.207240e+003,1.592222e-003
1.209168e+003,1.557771e-003
1.211096e+003,1.590327e-003
1.213025e+003,1.920980e-003
1.214953e+003,2.061881e-003
1.216882e+003,1.993106e-003
1.218810e+003,2.040109e-003
1.220739e+003,2.033551e-003
1.222667e+003,2.093876e-003
1.224596e+003,2.321834e-003
1.226524e+003,2.472062e-003
1.228453e+003,2.708955e-003
1.230381e+003,2.752701e-003
1.232310e+003,2.891537e-003
1.234238e+003,3.035790e-003
1.236167e+003,3.132897e-003
1.238095e+003,3.296360e-003
1.240024e+003,3.459684e-003
1.241952e+003,3.470205e-003
1.243881e+003,3.127223e-003
1.245809e+003,2.785613e-003
1.247738e+003,2.684149e-003
1.249666e+003,2.776910e-003
1.251595e+003,2.718190e-003
1.253523e+003,2.500388e-003
1.255452e+003,2.470230e-003
1.257380e+003,2.363209e-003
1.259309e+003,2.224308e-003
1.261237e+003,2.393327e-003
1.263166e+003,2.540814e-003
1.265094e+003,2.777343e-003
1.267023e+003,3.172113e-003
1.268951e+003,3.453405e-003
1.270880e+003,3.584882e-003
1.272808e+003,3.688761e-003
1.274737e+003,3.920434e-003
1.276665e+003,4.174611e-003
1.278594e+003,4.382444e-003
1.280522e+003,4.617501e-003
1.282451e+003,4.648981e-003
1.284379e+003,4.920273e-003
1.286308e+003,5.358456e-003
1.288236e+003,5.741680e-003
1.290165e+003,5.934544e-003
1.292093e+003,6.117749e-003
1.294022e+003,6.480085e-003
1.295950e+003,6.838280e-003
1.297879e+003,7.015536e-003
1.299807e+003,6.987419e-003
1.301736e+003,6.817479e-003
1.303664e+003,6.622607e-003
1.305593e+003,6.459570e-003
1.307521e+003,6.409698e-003
1.309450e+003,6.292828e-003
1.311378e+003,6.097352e-003
1.313307e+003,5.902534e-003
1.315235e+003,5.743158e-003
1.317164e+003,5.548868e-003
1.319092e+003,5.242136e-003
1.321021e+003,4.913303e-003
1.322949e+003,4.618104e-003
1.324878e+003,4.432451e-003
1.326806e+003,4.314036e-003
1.328735e+003,4.177087e-003
1.330663e+003,4.124332e-003
1.332592e+003,4.092890e-003
1.334520e+003,3.985536e-003
1.336449e+003,3.935747e-003
1.338377e+003,3.903216e-003
1.340306e+003,3.706105e-003
1.342234e+003,3.592866e-003
1.344163e+003,3.545762e-003
1.346091e+003,3.370083e-003
1.348020e+003,3.339998e-003
1.349948e+003,3.305141e-003
1.351877e+003,3.155558e-003
1.353805e+003,3.109669e-003
1.355734e+003,3.064986e-003
1.357662e+003,2.964058e-003
1.359591e+003,2.853247e-003
1.361519e+003,2.684816e-003
1.363448e+003,2.502254e-003
1.365376e+003,2.260079e-003
1.367305e+003,2.010182e-003
1.369233e+003,1.918418e-003
1.371162e+003,1.958822e-003
1.373090e+003,2.080292e-003
1.375019e+003,1.978460e-003
1.376947e+003,1.956293e-003
1.378876e+003,2.031287e-003
1.380804e+003,1.966644e-003
1.382733e+003,1.857917e-003
1.384661e+003,1.832262e-003
1.386590e+003,1.729158e-003
1.388518e+003,1.545401e-003
1.390447e+003,1.334800e-003
1.392375e+003,1.190479e-003
1.394304e+003,9.993118e-004
1.396232e+003,7.575743e-004
1.398161e+003,7.599310e-004
1.400089e+003,9.453815e-004
1.402018e+003,1.007880e-003
1.403946e+003,8.821282e-004
1.405875e+003,8.332253e-004
1.407803e+003,8.168923e-004
1.409732e+003,9.315347e-004
1.411660e+003,1.082080e-003
1.413589e+003,1.258164e-003
1.415517e+003,1.508326e-003
1.417446e+003,1.831264e-003
1.419374e+003,2.372504e-003
1.421303e+003,2.899843e-003
1.423231e+003,3.533803e-003
1.425160e+003,4.181369e-003
1.427088e+003,4.495654e-003
1.429017e+003,4.725380e-003
1.430945e+003,4.899530e-003
1.432874e+003,5.192271e-003
1.434802e+003,5.482089e-003
1.436731e+003,5.710457e-003
1.438659e+003,6.058778e-003
1.440588e+003,6.473964e-003
1.442516e+003,6.953614e-003
1.444445e+003,7.292320e-003
1.446373e+003,7.556469e-003
1.448302e+003,7.898143e-003
1.450230e+003,8.277468e-003
1.452159e+003,8.512515e-003
1.454087e+003,8.806958e-003
1.456016e+003,9.134051e-003
1.457944e+003,9.369358e-003
1.459873e+003,9.489872e-003
1.461801e+003,9.442326e-003
1.463730e+003,9.302565e-003
1.465658e+003,9.316207e-003
1.467587e+003,9.185455e-003
1.469515e+003,9.008733e-003
1.471444e+003,8.730717e-003
1.473372e+003,8.499776e-003
1.475301e+003,8.365046e-003
1.477229e+003,8.032220e-003
1.479158e+003,7.686866e-003
1.481086e+003,7.371544e-003
1.483015e+003,6.815359e-003
1.484943e+003,6.313671e-003
1.486872e+003,5.950029e-003
1.488800e+003,5.508363e-003
1.490729e+003,5.280806e-003
1.492657e+003,5.147742e-003
1.494586e+003,4.758342e-003
1.496514e+003,4.268393e-003
1.498443e+003,3.846016e-003
1.500371e+003,3.450666e-003
1.502300e+003,3.328779e-003
1.504228e+003,3.169443e-003
1.506157e+003,2.822530e-003
1.508085e+003,2.636410e-003
1.510014e+003,2.534981e-003
1.511942e+003,2.444205e-003
1.513871e+003,2.463432e-003
1.515799e+003,2.512219e-003
1.517728e+003,2.452735e-003
1.519656e+003,2.445238e-003
1.521585e+003,2.570177e-003
1.523513e+003,2.770607e-003
1.525442e+003,2.971931e-003
1.527370e+003,3.121183e-003
1.529299e+003,3.328245e-003
1.531227e+003,3.471107e-003
1.533156e+003,3.714359e-003
1.535084e+003,3.963533e-003
1.537013e+003,4.169225e-003
1.538941e+003,4.423379e-003
1.540870e+003,4.809129e-003
1.542798e+003,5.286810e-003
1.544727e+003,5.520846e-003
1.546655e+003,5.580751e-003
1.548584e+003,5.753969e-003
1.550512e+003,5.845977e-003
1.552441e+003,5.982950e-003
1.554369e+003,6.056022e-003
1.556298e+003,6.248286e-003
1.558226e+003,6.569623e-003
1.560155e+003,7.010619e-003
1.562083e+003,7.431941e-003
1.564012e+003,7.705517e-003
1.565940e+003,7.836027e-003
1.567869e+003,8.047713e-003
1.569797e+003,8.412778e-003
1.571726e+003,8.501397e-003
1.573654e+003,8.493525e-003
1.575583e+003,8.583445e-003
1.577511e+003,8.596592e-003
1.579440e+003,8.553233e-003
1.581368e+003,8.443858e-003
1.583297e+003,8.193756e-003
1.585225e+003,7.938297e-003
1.587154e+003,7.597031e-003
1.589082e+003,7.154765e-003
1.591010e+003,6.725769e-003
1.592939e+003,6.346720e-003
1.594868e+003,6.065161e-003
1.596796e+003,5.725800e-003
1.598724e+003,5.301198e-003
1.600653e+003,4.806315e-003
1.602582e+003,4.426426e-003
1.604510e+003,3.919264e-003
1.606438e+003,3.439612e-003
1.608367e+003,3.055844e-003
1.610296e+003,2.689284e-003
1.612224e+003,2.293587e-003
1.614152e+003,2.004989e-003
1.616081e+003,1.659105e-003
1.618010e+003,1.368037e-003
1.619938e+003,1.286012e-003
1.621866e+003,1.193968e-003
1.623795e+003,9.126082e-004
1.625724e+003,7.910663e-004
1.627652e+003,6.187881e-004
1.629580e+003,4.385516e-004
1.631509e+003,1.923857e-004
1.633438e+003,6.859288e-005
1.635366e+003,-2.769917e-005
1.637294e+003,-2.226037e-004
1.639223e+003,-5.081113e-004
1.641151e+003,-8.453538e-004
1.643080e+003,-1.246699e-003
1.645008e+003,-1.550288e-003
1.646937e+003,-1.942110e-003
1.648865e+003,-2.336084e-003
1.650794e+003,-2.566091e-003
1.652722e+003,-2.821456e-003
1.654651e+003,-3.291588e-003
1.656579e+003,-3.527663e-003
1.658508e+003,-3.761310e-003
1.660436e+003,-4.122524e-003
1.662365e+003,-4.460941e-003
1.664293e+003,-4.649932e-003
1.666222e+003,-4.802273e-003
1.668150e+003,-4.933528e-003
1.670079e+003,-4.980307e-003
1.672007e+003,-4.982370e-003
1.673936e+003,-5.012833e-003
1.675864e+003,-5.071425e-003
1.677793e+003,-5.095757e-003
1.679721e+003,-5.147462e-003
1.681650e+003,-5.090452e-003
1.683578e+003,-4.874819e-003
1.685507e+003,-4.613708e-003
1.687435e+003,-4.361592e-003
1.689364e+003,-4.179760e-003
1.691292e+003,-4.035211e-003
1.693221e+003,-3.912386e-003
1.695149e+003,-3.897806e-003
1.697078e+003,-3.828480e-003
1.699006e+003,-3.838694e-003
1.700935e+003,-3.818823e-003
1.702863e+003,-3.581001e-003
1.704792e+003,-3.460808e-003
1.706720e+003,-3.549551e-003
1.708649e+003,-3.644946e-003
1.710577e+003,-3.819907e-003
1.712506e+003,-3.878201e-003
1.714434e+003,-3.836099e-003
1.716363e+003,-3.863292e-003
1.718291e+003,-3.864409e-003
1.720220e+003,-3.760193e-003
1.722148e+003,-3.821911e-003
1.724077e+003,-3.957633e-003
1.726005e+003,-3.899152e-003
1.727934e+003,-3.852290e-003
1.729862e+003,-3.947881e-003
1.731791e+003,-4.022737e-003
1.733719e+003,-4.166075e-003
1.735648e+003,-4.100238e-003
1.737576e+003,-4.009966e-003
1.739505e+003,-4.024214e-003
1.741433e+003,-4.004681e-003
1.743362e+003,-3.873538e-003
1.745290e+003,-3.781413e-003
1.747219e+003,-3.730267e-003
1.749147e+003,-3.629831e-003
1.751076e+003,-3.496603e-003
1.753004e+003,-3.384606e-003
1.754933e+003,-3.297145e-003
1.756861e+003,-3.216606e-003
1.758790e+003,-3.225092e-003
1.760718e+003,-3.207035e-003
1.762647e+003,-3.235320e-003
1.764575e+003,-3.355477e-003
1.766504e+003,-3.302472e-003
1.768432e+003,-3.185097e-003
1.770361e+003,-3.177203e-003
1.772289e+003,-3.177038e-003
1.774218e+003,-2.981547e-003
1.776146e+003,-2.979079e-003
1.778075e+003,-3.053213e-003
1.780003e+003,-3.022416e-003
1.781932e+003,-2.938765e-003
1.783860e+003,-2.952324e-003
1.785789e+003,-2.922145e-003
1.787717e+003,-2.799795e-003
1.789646e+003,-2.821193e-003
1.791574e+003,-2.796239e-003
1.793503e+003,-2.767136e-003
1.795431e+003,-2.780206e-003
1.797360e+003,-2.793408e-003
1.799288e+003,-2.859312e-003
1.801217e+003,-2.874387e-003
1.803145e+003,-2.862241e-003
1.805074e+003,-2.837027e-003
1.807002e+003,-2.843051e-003
1.808931e+003,-2.898119e-003
1.810859e+003,-2.925338e-003
1.812788e+003,-2.923494e-003
1.814716e+003,-2.891075e-003
1.816645e+003,-2.963250e-003
1.818573e+003,-3.014947e-003
1.820502e+003,-3.021791e-003
1.822430e+003,-3.032814e-003
1.824359e+003,-3.098747e-003
1.826287e+003,-3.059267e-003
1.828216e+003,-2.942616e-003
1.830144e+003,-2.946894e-003
1.832073e+003,-3.128092e-003
1.834001e+003,-3.134177e-003
1.835930e+003,-3.120690e-003
1.837858e+003,-3.214205e-003
1.839787e+003,-3.209403e-003
1.841715e+003,-3.242259e-003
1.843644e+003,-3.254592e-003
1.845572e+003,-3.249791e-003
1.847501e+003,-3.254428e-003
1.849429e+003,-3.237162e-003
1.851358e+003,-3.134539e-003
1.853286e+003,-3.005042e-003
1.855215e+003,-2.936132e-003
1.857143e+003,-2.947947e-003
1.859072e+003,-3.041961e-003
1.861000e+003,-3.040612e-003
1.862929e+003,-3.057326e-003
1.864857e+003,-2.979441e-003
1.866786e+003,-2.976611e-003
1.868714e+003,-2.997013e-003
1.870643e+003,-3.036104e-003
1.872571e+003,-3.034919e-003
1.874500e+003,-2.931360e-003
1.876428e+003,-2.859345e-003
1.878357e+003,-2.802659e-003
1.880285e+003,-2.799334e-003
1.882214e+003,-2.808683e-003
1.884142e+003,-2.746492e-003
1.886071e+003,-2.755349e-003
1.887999e+003,-2.720941e-003
1.889928e+003,-2.698847e-003
1.891856e+003,-2.731379e-003
1.893785e+003,-2.670659e-003
1.895713e+003,-2.687651e-003
1.897642e+003,-2.711557e-003
1.899570e+003,-2.588949e-003
1.901499e+003,-2.481891e-003
1.903427e+003,-2.513846e-003
1.905356e+003,-2.571921e-003
1.907284e+003,-2.600247e-003
1.909213e+003,-2.563455e-003
1.911141e+003,-2.541682e-003
1.913070e+003,-2.549259e-003
1.914998e+003,-2.496815e-003
1.916927e+003,-2.534863e-003
1.918855e+003,-2.485284e-003
1.920784e+003,-2.438730e-003
1.922712e+003,-2.506237e-003
1.924641e+003,-2.513484e-003
1.926569e+003,-2.471677e-003
1.928498e+003,-2.538981e-003
1.930426e+003,-2.496749e-003
1.932355e+003,-2.499384e-003
1.934283e+003,-2.578541e-003
1.936212e+003,-2.564905e-003
1.938140e+003,-2.650175e-003
1.940069e+003,-2.653172e-003
1.941997e+003,-2.601301e-003
1.943926e+003,-2.571591e-003
1.945854e+003,-2.551432e-003
1.947783e+003,-2.626562e-003
1.949711e+003,-2.700954e-003
1.951640e+003,-2.721797e-003
1.953568e+003,-2.733322e-003
1.955497e+003,-2.749883e-003
1.957425e+003,-2.775762e-003
1.959354e+003,-2.747776e-003
1.961282e+003,-2.675763e-003
1.963211e+003,-2.682448e-003
1.965139e+003,-2.753966e-003
1.967068e+003,-2.776650e-003
1.968996e+003,-2.837850e-003
1.970925e+003,-2.809671e-003
1.972853e+003,-2.686663e-003
1.974782e+003,-2.654852e-003
1.976710e+003,-2.671021e-003
1.978639e+003,-2.631864e-003
1.980567e+003,-2.646684e-003
1.982496e+003,-2.722686e-003
1.984424e+003,-2.690614e-003
1.986353e+003,-2.580748e-003
1.988281e+003,-2.526562e-003
1.990210e+003,-2.495464e-003
1.992138e+003,-2.411679e-003
1.994067e+003,-2.372697e-003
1.995995e+003,-2.462255e-003
1.997924e+003,-2.537268e-003
1.999852e+003,-2.482615e-003
2.001781e+003,-2.416489e-003
2.003709e+003,-2.347091e-003
2.005638e+003,-2.282460e-003
2.007566e+003,-2.262881e-003
2.009495e+003,-2.278505e-003
2.011423e+003,-2.284174e-003
2.013352e+003,-2.220919e-003
2.015280e+003,-2.173480e-003
2.017208e+003,-2.151489e-003
2.019137e+003,-2.142917e-003
2.021066e+003,-2.182810e-003
2.022994e+003,-2.283614e-003
2.024922e+003,-2.328602e-003
2.026851e+003,-2.183469e-003
2.028780e+003,-2.071891e-003
2.030708e+003,-2.067209e-003
2.032636e+003,-2.012563e-003
2.034565e+003,-2.022457e-003
2.036494e+003,-2.141037e-003
2.038422e+003,-2.151621e-003
2.040350e+003,-2.164875e-003
2.042279e+003,-2.178227e-003
2.044208e+003,-2.154786e-003
2.046136e+003,-2.083367e-003
2.048064e+003,-2.053160e-003
2.049993e+003,-2.048544e-003
2.051921e+003,-2.094612e-003
2.053850e+003,-2.044223e-003
2.055778e+003,-1.995347e-003
2.057707e+003,-1.970939e-003
2.059635e+003,-1.988618e-003
2.061564e+003,-1.986277e-003
2.063492e+003,-2.090589e-003
2.065421e+003,-2.064867e-003
2.067349e+003,-1.951346e-003
2.069278e+003,-1.997095e-003
2.071206e+003,-1.993961e-003
2.073135e+003,-1.841194e-003
2.075063e+003,-1.758602e-003
2.076992e+003,-1.779161e-003
2.078920e+003,-1.751936e-003
2.080849e+003,-1.736624e-003
2.082777e+003,-1.806285e-003
2.084706e+003,-1.840303e-003
2.086634e+003,-1.819747e-003
2.088563e+003,-1.705073e-003
2.090491e+003,-1.598093e-003
2.092420e+003,-1.595122e-003
2.094348e+003,-1.563395e-003
2.096277e+003,-1.530049e-003
2.098205e+003,-1.541506e-003
2.100134e+003,-1.489403e-003
2.102062e+003,-1.344517e-003
2.103991e+003,-1.326944e-003
2.105919e+003,-1.295099e-003
2.107848e+003,-1.249838e-003
2.109776e+003,-1.218021e-003
2.111705e+003,-1.173578e-003
2.113633e+003,-1.206126e-003
2.115562e+003,-1.135277e-003
2.117490e+003,-1.017315e-003
2.119419e+003,-9.438240e-004
2.121347e+003,-9.288135e-004
2.123276e+003,-9.453117e-004
2.125204e+003,-9.484526e-004
2.127133e+003,-8.638393e-004
2.129061e+003,-7.402790e-004
2.130990e+003,-6.606869e-004
2.132918e+003,-7.621758e-004
2.134847e+003,-8.878462e-004
2.136775e+003,-8.093065e-004
2.138704e+003,-6.631682e-004
2.140632e+003,-6.355426e-004
2.142561e+003,-6.986323e-004
2.144489e+003,-7.523191e-004
2.146418e+003,-7.698493e-004
2.148346e+003,-7.278085e-004
2.150275e+003,-6.153269e-004
2.152203e+003,-5.726755e-004
2.154132e+003,-6.374285e-004
2.156060e+003,-6.875501e-004
2.157989e+003,-6.490083e-004
2.159917e+003,-6.930416e-004
2.161846e+003,-8.039487e-004
2.163774e+003,-7.745460e-004
2.165703e+003,-6.616133e-004
2.167631e+003,-5.685061e-004
2.169560e+003,-5.287292e-004
2.171488e+003,-5.549387e-004
2.173417e+003,-5.769772e-004
2.175345e+003,-6.106285e-004
2.177274e+003,-5.680759e-004
2.179202e+003,-5.362415e-004
2.181131e+003,-6.112902e-004
2.183059e+003,-6.942325e-004
2.184988e+003,-5.841246e-004
2.186916e+003,-4.659459e-004
2.188845e+003,-5.929594e-004
2.190773e+003,-7.409405e-004
2.192702e+003,-7.805325e-004
2.194630e+003,-7.350527e-004
2.196559e+003,-6.224075e-004
2.198487e+003,-5.653955e-004
2.200416e+003,-6.061947e-004
2.202344e+003,-6.552943e-004
2.204273e+003,-6.772616e-004
2.206201e+003,-6.750120e-004
2.208130e+003,-6.305798e-004
2.210058e+003,-5.496109e-004
2.211987e+003,-5.319393e-004
2.213915e+003,-5.510669e-004
2.215844e+003,-5.278688e-004
2.217772e+003,-5.349839e-004
2.219701e+003,-4.947076e-004
2.221629e+003,-4.653501e-004
2.223558e+003,-5.136713e-004
2.225486e+003,-5.376975e-004
2.227415e+003,-5.381939e-004
2.229343e+003,-5.580162e-004
2.231272e+003,-5.630791e-004
2.233200e+003,-5.533503e-004
2.235129e+003,-5.778045e-004
2.237057e+003,-5.991469e-004
2.238986e+003,-5.732380e-004
2.240914e+003,-5.621526e-004
2.242843e+003,-5.313105e-004
2.244771e+003,-5.076480e-004
2.246700e+003,-4.885185e-004
2.248628e+003,-5.100640e-004
2.250557e+003,-7.171240e-004
2.252485e+003,-7.500037e-004
2.254414e+003,-6.449058e-004
2.256342e+003,-6.170474e-004
2.258271e+003,-6.301166e-004
2.260199e+003,-6.345832e-004
2.262128e+003,-6.227714e-004
2.264056e+003,-6.137387e-004
2.265985e+003,-5.979558e-004
2.267913e+003,-6.170474e-004
2.269842e+003,-6.064925e-004
2.271770e+003,-6.256830e-004
2.273699e+003,-7.802349e-004
2.275627e+003,-8.772648e-004
2.277556e+003,-8.264376e-004
2.279484e+003,-8.519015e-004
2.281413e+003,-8.731976e-004
2.283341e+003,-9.026927e-004
2.285270e+003,-9.450472e-004
2.287198e+003,-9.453448e-004
2.289127e+003,-7.880404e-004
2.291055e+003,-7.810618e-004
2.292984e+003,-8.037502e-004
2.294912e+003,-7.405436e-004
2.296841e+003,-6.369653e-004
2.298769e+003,-3.856415e-004
2.300698e+003,-2.269089e-004
2.302626e+003,-7.520775e-005
2.304555e+003,5.212297e-005
2.306483e+003,2.352491e-004
2.308412e+003,4.683370e-004
2.310340e+003,7.951824e-004
2.312269e+003,1.251319e-003
2.314197e+003,1.684417e-003
2.316125e+003,2.276399e-003
2.318054e+003,2.916021e-003
2.319983e+003,3.501101e-003
2.321911e+003,4.195085e-003
2.323840e+003,4.795359e-003
2.325768e+003,5.165278e-003
2.327697e+003,5.734428e-003
2.329625e+003,6.478168e-003
2.331553e+003,6.812127e-003
2.333482e+003,6.886585e-003
2.335411e+003,7.037660e-003
2.337339e+003,7.281976e-003
2.339268e+003,7.429717e-003
2.341196e+003,7.290399e-003
2.343125e+003,6.691918e-003
2.345053e+003,5.528363e-003
2.346981e+003,3.791396e-003
2.348910e+003,2.773942e-003
2.350839e+003,3.998711e-003
2.352767e+003,6.282473e-003
2.354696e+003,8.073198e-003
2.356624e+003,9.207521e-003
2.358552e+003,9.844594e-003
2.360481e+003,1.006381e-002
2.362409e+003,9.997786e-003
2.364338e+003,9.716833e-003
2.366267e+003,9.069527e-003
2.368195e+003,8.208478e-003
2.370124e+003,7.130917e-003
2.372052e+003,5.868881e-003
2.373980e+003,4.548587e-003
2.375909e+003,3.257733e-003
2.377838e+003,2.044570e-003
2.379766e+003,1.044248e-003
2.381695e+003,4.794490e-004
2.383623e+003,2.180767e-004
2.385552e+003,-4.002408e-005
2.387480e+003,-1.477858e-004
2.389408e+003,-2.262996e-005
2.391337e+003,4.029286e-005
2.393266e+003,4.221482e-005
2.395194e+003,8.609077e-005
2.397123e+003,1.363680e-004
2.399051e+003,1.758117e-004
2.400979e+003,1.489631e-004
2.402908e+003,1.022637e-004
2.404836e+003,1.600006e-004
2.406765e+003,1.233755e-004
2.408694e+003,8.456630e-005
2.410622e+003,1.908609e-004
2.412551e+003,2.002752e-004
2.414479e+003,2.417801e-004
2.416407e+003,3.895327e-004
2.418336e+003,4.781222e-004
2.420264e+003,4.156334e-004
2.422193e+003,3.993162e-004
2.424122e+003,4.808754e-004
2.426050e+003,5.666634e-004
2.427979e+003,5.929074e-004
2.429907e+003,6.030604e-004
2.431835e+003,6.754654e-004
2.433764e+003,8.020206e-004
2.435692e+003,8.470025e-004
2.437621e+003,8.111494e-004
2.439550e+003,8.552027e-004
2.441478e+003,9.161609e-004
2.443406e+003,9.221709e-004
2.445335e+003,9.605238e-004
2.447263e+003,1.041192e-003
2.449192e+003,1.092510e-003
2.451121e+003,1.114966e-003
2.453049e+003,1.130313e-003
2.454978e+003,1.205697e-003
2.456906e+003,1.249458e-003
2.458834e+003,1.233741e-003
2.460763e+003,1.241882e-003
2.462691e+003,1.204833e-003
2.464620e+003,1.212043e-003
2.466549e+003,1.349091e-003
2.468477e+003,1.449180e-003
2.470406e+003,1.445157e-003
2.472334e+003,1.351318e-003
2.474262e+003,1.360226e-003
2.476191e+003,1.417067e-003
2.478119e+003,1.474879e-003
2.480048e+003,1.535326e-003
2.481977e+003,1.583676e-003
2.483905e+003,1.557904e-003
2.485833e+003,1.526082e-003
2.487762e+003,1.502308e-003
2.489690e+003,1.443229e-003
2.491619e+003,1.530005e-003
2.493547e+003,1.698188e-003
2.495476e+003,1.812831e-003
2.497405e+003,1.822446e-003
2.499333e+003,1.677864e-003
2.501261e+003,1.541012e-003
2.503190e+003,1.586536e-003
2.505118e+003,1.649260e-003
2.507047e+003,1.606822e-003
2.508975e+003,1.571638e-003
2.510904e+003,1.663562e-003
2.512833e+003,1.752778e-003
2.514761e+003,1.730489e-003
2.516689e+003,1.743563e-003
2.518618e+003,1.827837e-003
2.520546e+003,1.941082e-003
2.522475e+003,1.895155e-003
2.524403e+003,1.757602e-003
2.526332e+003,1.760063e-003
2.528260e+003,1.916188e-003
2.530189e+003,1.964913e-003
2.532117e+003,1.913159e-003
2.534046e+003,1.893424e-003
2.535974e+003,1.914490e-003
2.537903e+003,1.842544e-003
2.539831e+003,1.895787e-003
2.541760e+003,1.988612e-003
2.543688e+003,2.057786e-003
2.545617e+003,2.096339e-003
2.547545e+003,2.123342e-003
2.549474e+003,2.106028e-003
2.551402e+003,2.052892e-003
2.553331e+003,2.002959e-003
2.555259e+003,2.074832e-003
2.557188e+003,2.126039e-003
2.559116e+003,2.089481e-003
2.561045e+003,2.164199e-003
2.562973e+003,2.215416e-003
2.564902e+003,2.297684e-003
2.566830e+003,2.349817e-003
2.568759e+003,2.243425e-003
2.570687e+003,2.281595e-003
2.572616e+003,2.405388e-003
2.574544e+003,2.474028e-003
2.576473e+003,2.403489e-003
2.578401e+003,2.307577e-003
2.580330e+003,2.250386e-003
2.582258e+003,2.247955e-003
2.584187e+003,2.314672e-003
2.586115e+003,2.338524e-003
2.588044e+003,2.315205e-003
2.589972e+003,2.436908e-003
2.591901e+003,2.557678e-003
2.593829e+003,2.497355e-003
2.595758e+003,2.383632e-003
2.597686e+003,2.356780e-003
2.599615e+003,2.345986e-003
2.601543e+003,2.402023e-003
2.603472e+003,2.424579e-003
2.605400e+003,2.430677e-003
2.607329e+003,2.401923e-003
2.609257e+003,2.458700e-003
2.611186e+003,2.554045e-003
2.613114e+003,2.538414e-003
2.615043e+003,2.524949e-003
2.616971e+003,2.507053e-003
2.618900e+003,2.570810e-003
2.620828e+003,2.705554e-003
2.622757e+003,2.750000e-003
2.624685e+003,2.679515e-003
2.626614e+003,2.703354e-003
2.628542e+003,2.748433e-003
2.630471e+003,2.747899e-003
2.632399e+003,2.773475e-003
2.634328e+003,2.773942e-003
2.636256e+003,2.762104e-003
2.638185e+003,2.842174e-003
2.640113e+003,2.889336e-003
2.642042e+003,2.826499e-003
2.643970e+003,2.921892e-003
2.645899e+003,3.004960e-003
2.647827e+003,3.026247e-003
2.649756e+003,3.056911e-003
2.651684e+003,3.062851e-003
2.653613e+003,3.032553e-003
2.655541e+003,3.131495e-003
2.657470e+003,3.206159e-003
2.659398e+003,3.189536e-003
2.661327e+003,3.195745e-003
2.663255e+003,3.236068e-003
2.665184e+003,3.182961e-003
2.667112e+003,3.284341e-003
2.669041e+003,3.455175e-003
2.670969e+003,3.424316e-003
2.672898e+003,3.339531e-003
2.674826e+003,3.384776e-003
2.676755e+003,3.359365e-003
2.678683e+003,3.386079e-003
2.680612e+003,3.476517e-003
2.682540e+003,3.460719e-003
2.684469e+003,3.512324e-003
2.686397e+003,3.639542e-003
2.688326e+003,3.721745e-003
2.690254e+003,3.832176e-003
2.692183e+003,3.781102e-003
2.694111e+003,3.717735e-003
2.696040e+003,3.689630e-003
2.697968e+003,3.849158e-003
2.699897e+003,4.042454e-003
2.701825e+003,3.932872e-003
2.703754e+003,3.875367e-003
2.705682e+003,3.986706e-003
2.707611e+003,4.045932e-003
2.709539e+003,4.153569e-003
2.711468e+003,4.134802e-003
2.713396e+003,4.076167e-003
2.715325e+003,4.177588e-003
2.717253e+003,4.250391e-003
2.719182e+003,4.256916e-003
2.721110e+003,4.256815e-003
2.723039e+003,4.334484e-003
2.724967e+003,4.378896e-003
2.726896e+003,4.393121e-003
2.728824e+003,4.370093e-003
2.730753e+003,4.400685e-003
2.732681e+003,4.502986e-003
2.734610e+003,4.582339e-003
2.736538e+003,4.619477e-003
2.738467e+003,4.691617e-003
2.740395e+003,4.740420e-003
2.742324e+003,4.747220e-003
2.744252e+003,4.776231e-003
2.746181e+003,4.852920e-003
2.748109e+003,5.002518e-003
2.750038e+003,5.123434e-003
2.751966e+003,5.166820e-003
2.753895e+003,5.281074e-003
2.755823e+003,5.413676e-003
2.757752e+003,5.491149e-003
2.759680e+003,5.580449e-003
2.761609e+003,5.726639e-003
2.763537e+003,5.958595e-003
2.765466e+003,6.094361e-003
2.767394e+003,6.315419e-003
2.769323e+003,6.577965e-003
2.771251e+003,6.784562e-003
2.773180e+003,7.003245e-003
2.775108e+003,7.289321e-003
2.777037e+003,7.609608e-003
2.778965e+003,7.884207e-003
2.780894e+003,8.296381e-003
2.782822e+003,8.793603e-003
2.784750e+003,9.205388e-003
2.786679e+003,9.575662e-003
2.788608e+003,9.923099e-003
2.790536e+003,1.025449e-002
2.792465e+003,1.062994e-002
2.794393e+003,1.103226e-002
2.796322e+003,1.135722e-002
2.798250e+003,1.163240e-002
2.800178e+003,1.192021e-002
2.802107e+003,1.215870e-002
2.804036e+003,1.239767e-002
2.805964e+003,1.258952e-002
2.807893e+003,1.272953e-002
2.809821e+003,1.280030e-002
2.811750e+003,1.277825e-002
2.813678e+003,1.263161e-002
2.815606e+003,1.253478e-002
2.817535e+003,1.244486e-002
2.819464e+003,1.228892e-002
2.821392e+003,1.206317e-002
2.823321e+003,1.186290e-002
2.825249e+003,1.162682e-002
2.827177e+003,1.129019e-002
2.829106e+003,1.099905e-002
2.831034e+003,1.063945e-002
2.832963e+003,1.029446e-002
2.834892e+003,1.006927e-002
2.836820e+003,9.655203e-003
2.838749e+003,9.207554e-003
2.840677e+003,8.810779e-003
2.842605e+003,8.479773e-003
2.844534e+003,8.004746e-003
2.846462e+003,7.348291e-003
2.848391e+003,6.846931e-003
2.850320e+003,6.531713e-003
2.852248e+003,6.341711e-003
2.854177e+003,6.279650e-003
2.856105e+003,6.362859e-003
2.858033e+003,6.408959e-003
2.859962e+003,6.491789e-003
2.861890e+003,6.470331e-003
2.863819e+003,6.457484e-003
2.865748e+003,6.463202e-003
2.867676e+003,6.347729e-003
2.869604e+003,6.408521e-003
2.871533e+003,6.504267e-003
2.873461e+003,6.564880e-003
2.875390e+003,6.593675e-003
2.877319e+003,6.691548e-003
2.879247e+003,6.816335e-003
2.881176e+003,6.801929e-003
2.883104e+003,6.791024e-003
2.885032e+003,6.878236e-003
2.886961e+003,6.809300e-003
2.888889e+003,6.760162e-003
2.890818e+003,6.688587e-003
2.892747e+003,6.539752e-003
2.894675e+003,6.411985e-003
2.896604e+003,6.316293e-003
2.898532e+003,6.190978e-003
2.900460e+003,6.145708e-003
2.902389e+003,6.143322e-003
2.904317e+003,6.093017e-003
2.906246e+003,6.038887e-003
2.908175e+003,5.966758e-003
2.910103e+003,5.742184e-003
2.912031e+003,5.422701e-003
2.913960e+003,5.174398e-003
2.915888e+003,5.024640e-003
2.917817e+003,4.949496e-003
2.919745e+003,5.125714e-003
2.921674e+003,5.223692e-003
2.923603e+003,5.331017e-003
2.925531e+003,5.465580e-003
2.927459e+003,5.609985e-003
2.929388e+003,5.645733e-003
2.931316e+003,5.673293e-003
2.933245e+003,5.839226e-003
2.935173e+003,5.951877e-003
2.937102e+003,6.047522e-003
2.939031e+003,6.069697e-003
2.940959e+003,5.904079e-003
2.942887e+003,5.699814e-003
2.944816e+003,5.606025e-003
2.946744e+003,5.542123e-003
2.948673e+003,5.371271e-003
2.950601e+003,4.987435e-003
2.952530e+003,4.584684e-003
2.954458e+003,4.215728e-003
2.956387e+003,3.983363e-003
2.958315e+003,3.775252e-003
2.960244e+003,3.375627e-003
2.962172e+003,2.931999e-003
2.964101e+003,2.602709e-003
2.966029e+003,2.358079e-003
2.967958e+003,2.140190e-003
2.969886e+003,1.988612e-003
2.971815e+003,1.812365e-003
2.973743e+003,1.586137e-003
2.975672e+003,1.450343e-003
2.977600e+003,1.358298e-003
2.979529e+003,1.247963e-003
2.981457e+003,1.075204e-003
2.983386e+003,8.049418e-004
2.985314e+003,7.208989e-004
2.987243e+003,7.558152e-004
2.989171e+003,6.765273e-004
2.991100e+003,4.790510e-004
2.993028e+003,4.975938e-004
2.994957e+003,5.018730e-004
2.996885e+003,4.146716e-004
2.998814e+003,3.698007e-004
3.000742e+003,3.524241e-004
3.002671e+003,2.801061e-004
3.004599e+003,2.009050e-004
3.006528e+003,2.985077e-004
3.008456e+003,3.000329e-004
3.010385e+003,1.902642e-004
3.012313e+003,1.633815e-004
3.014242e+003,1.910266e-004
3.016170e+003,1.811484e-004
3.018099e+003,2.525548e-004
3.020027e+003,1.804192e-004
3.021956e+003,8.082144e-005
3.023884e+003,-6.295463e-007
3.025813e+003,8.092087e-005
3.027741e+003,6.332377e-005
3.029670e+003,-1.196637e-004
3.031598e+003,-1.213862e-004
3.033527e+003,-7.911688e-005
3.035455e+003,-2.703653e-005
3.037384e+003,2.982074e-006
3.039312e+003,-4.181315e-005
3.041241e+003,-1.608360e-004
3.043169e+003,-2.436325e-004
3.045098e+003,-2.390294e-004
3.047026e+003,-1.928635e-004
3.048955e+003,-2.393275e-004
3.050883e+003,-2.461162e-004
3.052812e+003,-2.108801e-004
3.054740e+003,-3.388621e-004
3.056669e+003,-3.471391e-004
3.058597e+003,-3.781929e-004
3.060526e+003,-5.064897e-004
3.062454e+003,-4.545930e-004
3.064383e+003,-4.557514e-004
3.066311e+003,-4.885185e-004
3.068240e+003,-3.117126e-004
3.070168e+003,-2.615145e-004
3.072097e+003,-4.923246e-004
3.074025e+003,-6.109594e-004
3.075954e+003,-6.000404e-004
3.077882e+003,-6.148636e-004
3.079811e+003,-6.369984e-004
3.081739e+003,-7.266177e-004
3.083668e+003,-7.211928e-004
3.085596e+003,-6.657818e-004
3.087525e+003,-7.249638e-004
3.089453e+003,-7.452406e-004
3.091382e+003,-7.991531e-004
3.093310e+003,-7.126252e-004
3.095239e+003,-5.922976e-004
3.097167e+003,-5.790619e-004
3.099096e+003,-6.651863e-004
3.101024e+003,-7.575782e-004
3.102953e+003,-8.668816e-004
3.104881e+003,-9.419064e-004
3.106810e+003,-8.373178e-004
3.108738e+003,-7.215567e-004
3.110667e+003,-6.235986e-004
3.112595e+003,-5.631123e-004
3.114524e+003,-5.953418e-004
3.116452e+003,-7.731569e-004
3.118381e+003,-8.761736e-004
3.120309e+003,-9.285820e-004
3.122238e+003,-7.422967e-004
3.124166e+003,-6.944971e-004
3.126095e+003,-8.084797e-004
3.128023e+003,-8.459490e-004
3.129952e+003,-8.076528e-004
3.131880e+003,-8.243211e-004
3.133809e+003,-8.377808e-004
3.135737e+003,-7.845015e-004
3.137666e+003,-7.507644e-004
3.139594e+003,-8.021297e-004
3.141523e+003,-9.261353e-004
3.143451e+003,-9.002128e-004
3.145380e+003,-8.455522e-004
3.147308e+003,-1.020059e-003
3.149237e+003,-1.019728e-003
3.151165e+003,-7.888672e-004
3.153094e+003,-6.550958e-004
3.155022e+003,-5.872681e-004
3.156951e+003,-7.217882e-004
3.158879e+003,-7.656488e-004
3.160808e+003,-6.785187e-004
3.162736e+003,-7.095157e-004
3.164665e+003,-7.363427e-004
3.166593e+003,-7.339611e-004
3.168522e+003,-7.799703e-004
3.170450e+003,-8.075205e-004
3.172379e+003,-8.115554e-004
3.174307e+003,-8.210470e-004
3.176236e+003,-7.673025e-004
3.178164e+003,-7.459021e-004
3.180093e+003,-6.985661e-004
3.182021e+003,-7.218875e-004
3.183950e+003,-7.155693e-004
3.185878e+003,-7.293632e-004
3.187807e+003,-6.446080e-004
3.189735e+003,-5.757859e-004
3.191664e+003,-7.632342e-004
3.193592e+003,-7.687910e-004
3.195521e+003,-6.872854e-004
3.197449e+003,-7.747445e-004
3.199378e+003,-9.285820e-004
3.201306e+003,-9.473616e-004
3.203235e+003,-8.334486e-004
3.205163e+003,-8.621859e-004
3.207092e+003,-9.973813e-004
3.209020e+003,-8.014021e-004
3.210948e+003,-6.461961e-004
3.212877e+003,-6.252198e-004
3.214806e+003,-6.087094e-004
3.216734e+003,-7.024035e-004
3.218663e+003,-6.355426e-004
3.220591e+003,-5.415032e-004
3.222520e+003,-4.686931e-004
3.224448e+003,-4.725324e-004
3.226376e+003,-4.437693e-004
3.228305e+003,-3.459141e-004
3.230234e+003,-2.007790e-004
3.232162e+003,-2.965478e-004
3.234091e+003,-2.730049e-004
3.236019e+003,-2.250543e-004
3.237948e+003,-2.499244e-004
3.239876e+003,-1.108192e-004
3.241804e+003,1.724638e-004
3.243733e+003,3.258298e-004
3.245662e+003,2.862730e-004
3.247590e+003,3.753057e-004
3.249519e+003,4.675741e-004
3.251447e+003,5.459944e-004
3.253375e+003,4.508569e-004
3.255304e+003,4.889359e-004
3.257232e+003,6.451680e-004
3.259161e+003,7.596323e-004
3.261090e+003,8.295403e-004
3.263018e+003,9.127742e-004
3.264947e+003,8.956082e-004
3.266875e+003,7.822035e-004
3.268803e+003,8.892001e-004
3.270732e+003,8.708730e-004
3.272660e+003,8.547379e-004
3.274589e+003,8.513516e-004
3.276518e+003,8.656606e-004
3.278446e+003,9.609887e-004
3.280375e+003,9.537163e-004
3.282303e+003,8.774800e-004
3.284231e+003,8.826926e-004
3.286160e+003,7.406469e-004
3.288088e+003,5.543216e-004
3.290017e+003,5.117916e-004
3.291946e+003,6.903992e-004
3.293874e+003,7.420408e-004
3.295802e+003,5.909498e-004
3.297731e+003,5.177296e-004
3.299659e+003,4.498618e-004
3.301588e+003,3.291457e-004
3.303516e+003,2.081648e-004
3.305445e+003,1.773033e-004
3.307374e+003,2.013359e-004
3.309302e+003,4.340581e-006
3.311230e+003,-9.634310e-005
3.313159e+003,-1.650755e-004
3.315087e+003,-2.439968e-004
3.317016e+003,-2.106152e-004
3.318944e+003,-2.342939e-004
3.320873e+003,-4.448616e-004
3.322802e+003,-7.046199e-004
3.324730e+003,-8.250155e-004
3.326658e+003,-8.528936e-004
3.328587e+003,-8.092073e-004
3.330515e+003,-9.261353e-004
3.332444e+003,-1.092611e-003
3.334372e+003,-1.196609e-003
3.336301e+003,-1.187787e-003
3.338229e+003,-1.092115e-003
3.340158e+003,-1.075986e-003
3.342086e+003,-1.160360e-003
3.344015e+003,-1.309469e-003
3.345943e+003,-1.343361e-003
3.347872e+003,-1.371635e-003
3.349800e+003,-1.479199e-003
3.351729e+003,-1.583402e-003
3.353657e+003,-1.650348e-003
3.355586e+003,-1.614566e-003
3.357514e+003,-1.534176e-003
3.359443e+003,-1.645298e-003
3.361371e+003,-1.851026e-003
3.363300e+003,-1.833011e-003
3.365229e+003,-1.929971e-003
3.367157e+003,-2.064373e-003
3.369085e+003,-2.107702e-003
3.371014e+003,-2.289415e-003
3.372942e+003,-2.378364e-003
3.374871e+003,-2.433030e-003
3.376799e+003,-2.401629e-003
3.378728e+003,-2.441201e-003
3.380656e+003,-2.569944e-003
3.382585e+003,-2.677179e-003
3.384513e+003,-2.735528e-003
3.386442e+003,-2.825406e-003
3.388370e+003,-2.975624e-003
3.390299e+003,-2.926062e-003
3.392227e+003,-2.862340e-003
3.394156e+003,-2.988227e-003
3.396084e+003,-3.011261e-003
3.398013e+003,-3.156842e-003
3.399941e+003,-3.305925e-003
3.401870e+003,-3.163782e-003
3.403798e+003,-3.011294e-003
3.405727e+003,-2.968482e-003
3.407655e+003,-3.040052e-003
3.409584e+003,-3.039230e-003
3.411512e+003,-3.198878e-003
3.413441e+003,-3.401998e-003
3.415369e+003,-3.476093e-003
3.417298e+003,-3.458803e-003
3.419226e+003,-3.375927e-003
3.421155e+003,-3.353077e-003
3.423083e+003,-3.479906e-003
3.425012e+003,-3.443123e-003
3.426940e+003,-3.391511e-003
3.428869e+003,-3.441315e-003
3.430797e+003,-3.494631e-003
3.432726e+003,-3.434050e-003
3.434654e+003,-3.404661e-003
3.436583e+003,-3.656544e-003
3.438511e+003,-3.721825e-003
3.440440e+003,-3.593587e-003
3.442368e+003,-3.690976e-003
3.444297e+003,-3.713710e-003
3.446225e+003,-3.662688e-003
3.448154e+003,-3.627991e-003
3.450082e+003,-3.585536e-003
3.452011e+003,-3.620664e-003
3.453939e+003,-3.674910e-003
3.455868e+003,-3.767880e-003
3.457796e+003,-3.793533e-003
3.459725e+003,-3.829760e-003
3.461653e+003,-3.779639e-003
3.463582e+003,-3.662787e-003
3.465510e+003,-3.789263e-003
3.467439e+003,-3.861749e-003
3.469367e+003,-3.755824e-003
3.471296e+003,-3.758485e-003
3.473224e+003,-3.808215e-003
3.475153e+003,-3.920989e-003
3.477081e+003,-3.920070e-003
3.479010e+003,-3.862307e-003
3.480938e+003,-3.917213e-003
3.482867e+003,-4.051001e-003
3.484795e+003,-4.007701e-003
3.486724e+003,-3.941577e-003
3.488652e+003,-3.919413e-003
3.490581e+003,-3.936947e-003
3.492509e+003,-3.988528e-003
3.494438e+003,-4.018108e-003
3.496366e+003,-4.058223e-003
3.498295e+003,-4.021259e-003
3.500223e+003,-3.996473e-003
3.502152e+003,-3.987018e-003
3.504080e+003,-3.965217e-003
3.506009e+003,-4.034128e-003
3.507937e+003,-4.063344e-003
3.509866e+003,-4.105325e-003
3.511794e+003,-4.022376e-003
3.513723e+003,-4.009539e-003
3.515651e+003,-4.059569e-003
3.517580e+003,-3.990892e-003
3.519508e+003,-3.959833e-003
3.521437e+003,-4.134241e-003
3.523365e+003,-4.175100e-003
3.525294e+003,-4.238235e-003
3.527222e+003,-4.323933e-003
3.529151e+003,-4.213265e-003
3.531079e+003,-4.107164e-003
3.533008e+003,-3.905523e-003
3.534936e+003,-3.972375e-003
3.536865e+003,-4.112021e-003
3.538793e+003,-4.227440e-003
3.540722e+003,-4.308349e-003
3.542650e+003,-4.255199e-003
3.544579e+003,-4.128333e-003
3.546507e+003,-3.883127e-003
3.548436e+003,-3.928607e-003
3.550364e+003,-4.045453e-003
3.552293e+003,-3.894785e-003
3.554221e+003,-3.864113e-003
3.556150e+003,-3.996276e-003
3.558078e+003,-4.079461e-003
3.560007e+003,-4.146909e-003
3.561935e+003,-4.200828e-003
3.563864e+003,-4.098039e-003
3.565792e+003,-3.998673e-003
3.567721e+003,-4.157149e-003
3.569649e+003,-4.101420e-003
3.571578e+003,-3.947586e-003
3.573506e+003,-3.870090e-003
3.575435e+003,-3.763938e-003
3.577363e+003,-3.843587e-003
3.579292e+003,-3.929920e-003
3.581220e+003,-3.927097e-003
3.583149e+003,-3.892388e-003
3.585077e+003,-4.001759e-003
3.587006e+003,-4.101354e-003
3.588934e+003,-4.082743e-003
3.590863e+003,-3.982782e-003
3.592791e+003,-3.893209e-003
3.594720e+003,-3.897248e-003
3.596648e+003,-3.785289e-003
3.598577e+003,-3.889104e-003
3.600505e+003,-3.864606e-003
3.602434e+003,-3.752802e-003
3.604362e+003,-3.855180e-003
3.606291e+003,-3.972145e-003
3.608219e+003,-3.984884e-003
3.610148e+003,-4.001595e-003
3.612076e+003,-4.086288e-003
3.614005e+003,-4.171261e-003
3.615933e+003,-4.106442e-003
3.617862e+003,-3.943317e-003
3.619790e+003,-3.972375e-003
3.621719e+003,-4.096693e-003
3.623647e+003,-4.092984e-003
3.625576e+003,-4.128695e-003
3.627504e+003,-4.016827e-003
3.629433e+003,-3.743079e-003
3.631361e+003,-3.864047e-003
3.633290e+003,-3.883193e-003
3.635218e+003,-3.841781e-003
3.637146e+003,-3.850714e-003
3.639075e+003,-3.829629e-003
3.641004e+003,-3.997655e-003
3.642932e+003,-4.324851e-003
3.644861e+003,-4.463335e-003
3.646789e+003,-4.427094e-003
3.648718e+003,-4.507344e-003
3.650646e+003,-4.526986e-003
3.652574e+003,-4.568890e-003
3.654503e+003,-4.399544e-003
3.656432e+003,-4.171884e-003
3.658360e+003,-4.257430e-003
3.660289e+003,-4.412893e-003
3.662217e+003,-4.417812e-003
3.664146e+003,-4.478650e-003
3.666074e+003,-4.495210e-003
3.668002e+003,-4.578038e-003
3.669931e+003,-4.669896e-003
3.671860e+003,-4.711229e-003
3.673788e+003,-4.816494e-003
3.675717e+003,-4.740628e-003
3.677645e+003,-4.450413e-003
3.679573e+003,-4.190524e-003
3.681502e+003,-4.239811e-003
3.683430e+003,-4.320652e-003
3.685359e+003,-4.352998e-003
3.687288e+003,-4.487865e-003
3.689216e+003,-4.560529e-003
3.691145e+003,-4.380322e-003
3.693073e+003,-4.084582e-003
3.695001e+003,-4.096890e-003
3.696930e+003,-4.114680e-003
3.698858e+003,-4.068234e-003
3.700787e+003,-3.964462e-003
3.702716e+003,-3.861289e-003
3.704644e+003,-3.769095e-003
3.706573e+003,-3.840500e-003
3.708501e+003,-4.183403e-003
3.710429e+003,-4.214282e-003
3.712358e+003,-4.110380e-003
3.714286e+003,-4.200893e-003
3.716215e+003,-4.225143e-003
3.718144e+003,-4.014103e-003
3.720072e+003,-3.953791e-003
3.722000e+003,-3.983505e-003
3.723929e+003,-4.101978e-003
3.725857e+003,-4.091343e-003
3.727786e+003,-4.174739e-003
3.729714e+003,-4.260416e-003
3.731643e+003,-4.259038e-003
3.733572e+003,-4.254871e-003
3.735500e+003,-4.290141e-003
3.737428e+003,-4.368513e-003
3.739357e+003,-4.389178e-003
3.741285e+003,-4.141166e-003
3.743214e+003,-4.080281e-003
3.745142e+003,-4.055761e-003
3.747071e+003,-4.047718e-003
3.749000e+003,-4.003860e-003
3.750928e+003,-3.984457e-003
3.752856e+003,-3.743079e-003
3.754785e+003,-3.608374e-003
3.756713e+003,-3.614683e-003
3.758642e+003,-3.686738e-003
3.760570e+003,-3.560988e-003
3.762499e+003,-3.490950e-003
3.764427e+003,-3.653554e-003
3.766356e+003,-3.556354e-003
3.768284e+003,-3.654704e-003
3.770213e+003,-3.630094e-003
3.772141e+003,-3.503276e-003
3.774070e+003,-3.549025e-003
3.775998e+003,-3.532034e-003
3.777927e+003,-3.473168e-003
3.779855e+003,-3.305465e-003
3.781784e+003,-3.432177e-003
3.783712e+003,-3.621781e-003
3.785641e+003,-3.566443e-003
3.787569e+003,-3.492988e-003
3.789498e+003,-3.603774e-003
3.791426e+003,-3.831501e-003
3.793355e+003,-3.845262e-003
3.795283e+003,-3.737954e-003
3.797212e+003,-3.590498e-003
3.799140e+003,-3.655066e-003
3.801069e+003,-3.652076e-003
3.802997e+003,-3.697645e-003
3.804926e+003,-3.590367e-003
3.806854e+003,-3.449961e-003
3.808783e+003,-3.463504e-003
3.810711e+003,-3.372771e-003
3.812640e+003,-3.344199e-003
3.814568e+003,-3.682467e-003
3.816497e+003,-3.608276e-003
3.818425e+003,-3.403675e-003
3.820354e+003,-3.353537e-003
3.822282e+003,-3.277185e-003
3.824211e+003,-3.354983e-003
3.826139e+003,-3.359948e-003
3.828068e+003,-3.268207e-003
3.829996e+003,-3.253310e-003
3.831925e+003,-3.389242e-003
3.833853e+003,-3.580311e-003
3.835782e+003,-3.567002e-003
3.837710e+003,-3.417186e-003
3.839639e+003,-3.460808e-003
3.841567e+003,-3.400716e-003
3.843496e+003,-3.193188e-003
3.845424e+003,-3.173026e-003
3.847353e+003,-3.555039e-003
3.849281e+003,-3.773727e-003
3.851210e+003,-3.684405e-003
3.853138e+003,-3.592930e-003
3.855067e+003,-3.301354e-003
3.856995e+003,-3.219797e-003
3.858924e+003,-3.330882e-003
3.860852e+003,-3.404332e-003
3.862781e+003,-3.260380e-003
3.864709e+003,-3.317565e-003
3.866638e+003,-3.441743e-003
3.868566e+003,-3.365669e-003
3.870495e+003,-3.273797e-003
3.872423e+003,-3.091904e-003
3.874352e+003,-3.221901e-003
3.876280e+003,-3.451670e-003
3.878209e+003,-3.520104e-003
3.880137e+003,-3.431092e-003
3.882066e+003,-3.622438e-003
3.883994e+003,-3.697087e-003
3.885923e+003,-3.413734e-003
3.887851e+003,-3.161875e-003
3.889780e+003,-3.031925e-003
3.891708e+003,-3.189110e-003
3.893637e+003,-3.314705e-003
3.895565e+003,-3.330258e-003
3.897494e+003,-3.403313e-003
3.899422e+003,-3.419027e-003
3.901351e+003,-3.439080e-003
3.903279e+003,-3.428495e-003
3.905208e+003,-3.378919e-003
3.907136e+003,-3.417022e-003
3.909065e+003,-3.291851e-003
3.910993e+003,-3.207397e-003
3.912922e+003,-3.304413e-003
3.914850e+003,-3.299250e-003
3.916779e+003,-3.184637e-003
3.918707e+003,-3.256631e-003
3.920636e+003,-3.413965e-003
3.922564e+003,-3.245022e-003
3.924493e+003,-3.116939e-003
3.926421e+003,-3.265116e-003
3.928350e+003,-3.524738e-003
3.930278e+003,-3.730037e-003
3.932207e+003,-3.574691e-003
3.934135e+003,-3.377834e-003
3.936064e+003,-3.336637e-003
3.937992e+003,-3.262814e-003
3.939921e+003,-3.191412e-003
3.941849e+003,-3.154177e-003
3.943778e+003,-3.342325e-003
3.945706e+003,-3.283663e-003
3.947635e+003,-3.195195e-003
3.949563e+003,-3.192925e-003
3.951492e+003,-3.095194e-003
3.953420e+003,-3.271331e-003
3.955349e+003,-3.606633e-003
3.957277e+003,-3.418107e-003
3.959206e+003,-3.218350e-003
3.961134e+003,-3.289977e-003
3.963063e+003,-3.438751e-003
3.964991e+003,-3.479117e-003
3.966920e+003,-3.337163e-003
3.968848e+003,-3.247094e-003
3.970777e+003,-3.254493e-003
3.972705e+003,-3.200622e-003
3.974634e+003,-3.228117e-003
3.976562e+003,-3.292673e-003
3.978491e+003,-3.282643e-003
3.980419e+003,-3.323385e-003
3.982348e+003,-3.189570e-003
3.984276e+003,-3.103188e-003
3.986205e+003,-3.201543e-003
3.988133e+003,-3.244660e-003
3.990062e+003,-3.284222e-003
3.991990e+003,-3.316974e-003
3.993919e+003,-3.465673e-003
3.995847e+003,-3.523292e-003
3.997776e+003,-3.415904e-003
3.999704e+003,-3.423860e-003
4.001633e+003,0.000000e+000
