3.991989e+002,-1.413093e-002
4.011274e+002,-2.099812e-002
4.030559e+002,-2.492932e-002
4.049844e+002,-2.873901e-002
4.069129e+002,-2.450353e-002
4.088414e+002,-1.624374e-002
4.107699e+002,-1.843672e-002
4.126984e+002,-2.514145e-002
4.146269e+002,-2.435096e-002
4.165554e+002,-1.933663e-002
4.184839e+002,-1.789785e-002
4.204124e+002,-1.049853e-002
4.223409e+002,-4.845985e-003
4.242694e+002,-9.090896e-003
4.261979e+002,-1.971334e-002
4.281264e+002,-1.597418e-002
4.300549e+002,-9.823562e-003
4.319834e+002,-1.062571e-002
4.339119e+002,-9.631041e-003
4.358404e+002,-6.798072e-003
4.377689e+002,-7.370198e-003
4.396974e+002,-1.524073e-002
4.416259e+002,-2.146388e-002
4.435544e+002,-1.693138e-002
4.454829e+002,-1.455695e-002
4.474114e+002,-1.254716e-002
4.493399e+002,-1.213325e-002
4.512684e+002,-1.368399e-002
4.531969e+002,-1.369879e-002
4.551254e+002,-1.410277e-002
4.570539e+002,-1.381265e-002
4.589824e+002,-1.488141e-002
4.609109e+002,-1.720853e-002
4.628394e+002,-1.561809e-002
4.647679e+002,-1.574257e-002
4.666964e+002,-1.572161e-002
4.686249e+002,-1.422323e-002
4.705533e+002,-1.301058e-002
4.724819e+002,-1.377657e-002
4.744103e+002,-1.486399e-002
4.763389e+002,-1.555742e-002
4.782673e+002,-1.601659e-002
4.801959e+002,-1.608652e-002
4.821243e+002,-1.519373e-002
4.840529e+002,-1.543202e-002
4.859813e+002,-1.607688e-002
4.879099e+002,-1.634756e-002
4.898383e+002,-1.607854e-002
4.917668e+002,-1.568013e-002
4.936953e+002,-1.665691e-002
4.956238e+002,-1.569726e-002
4.975523e+002,-1.559907e-002
4.994808e+002,-1.761426e-002
5.014093e+002,-1.754731e-002
5.033378e+002,-1.578667e-002
5.052663e+002,-1.496670e-002
5.071948e+002,-1.525010e-002
5.091233e+002,-1.670908e-002
5.110518e+002,-1.798070e-002
5.129803e+002,-1.802184e-002
5.149088e+002,-1.743691e-002
5.168373e+002,-1.771473e-002
5.187658e+002,-1.855433e-002
5.206943e+002,-1.935343e-002
5.226228e+002,-1.935501e-002
5.245513e+002,-1.847412e-002
5.264798e+002,-1.845761e-002
5.284083e+002,-1.740543e-002
5.303368e+002,-1.708782e-002
5.322653e+002,-1.757525e-002
5.341938e+002,-1.743939e-002
5.361223e+002,-1.815888e-002
5.380508e+002,-1.876115e-002
5.399792e+002,-1.829766e-002
5.419078e+002,-1.723165e-002
5.438363e+002,-1.644331e-002
5.457648e+002,-1.654175e-002
5.476932e+002,-1.686388e-002
5.496218e+002,-1.743459e-002
5.515503e+002,-1.783409e-002
5.534788e+002,-1.823606e-002
5.554072e+002,-1.786996e-002
5.573358e+002,-1.740762e-002
5.592643e+002,-1.744496e-002
5.611927e+002,-1.744140e-002
5.631212e+002,-1.631160e-002
5.650497e+002,-1.621406e-002
5.669783e+002,-1.670538e-002
5.689067e+002,-1.655078e-002
5.708352e+002,-1.622973e-002
5.727637e+002,-1.612726e-002
5.746923e+002,-1.619552e-002
5.766207e+002,-1.797584e-002
5.785492e+002,-2.013512e-002
5.804777e+002,-2.309493e-002
5.824063e+002,-2.057933e-002
5.843347e+002,-1.725448e-002
5.862632e+002,-1.703251e-002
5.881917e+002,-1.641450e-002
5.901202e+002,-1.610032e-002
5.920487e+002,-1.594745e-002
5.939772e+002,-1.618204e-002
5.959057e+002,-1.564446e-002
5.978342e+002,-1.481622e-002
5.997627e+002,-1.404654e-002
6.016912e+002,-1.402976e-002
6.036197e+002,-1.368132e-002
6.055482e+002,-1.206413e-002
6.074767e+002,-9.827352e-003
6.094052e+002,-9.355945e-003
6.113337e+002,-1.159337e-002
6.132622e+002,-1.237432e-002
6.151907e+002,-1.116725e-002
6.171192e+002,-1.151139e-002
6.190477e+002,-1.273784e-002
6.209762e+002,-1.263435e-002
6.229047e+002,-1.310720e-002
6.248332e+002,-1.499275e-002
6.267617e+002,-1.657987e-002
6.286902e+002,-1.750903e-002
6.306187e+002,-1.737156e-002
6.325472e+002,-1.701795e-002
6.344756e+002,-1.690964e-002
6.364042e+002,-1.643709e-002
6.383326e+002,-1.633792e-002
6.402612e+002,-1.655276e-002
6.421896e+002,-1.647014e-002
6.441182e+002,-1.666285e-002
6.460466e+002,-1.714248e-002
6.479752e+002,-1.710575e-002
6.499036e+002,-1.752698e-002
6.518322e+002,-1.750753e-002
6.537606e+002,-1.748535e-002
6.556891e+002,-1.795807e-002
6.576177e+002,-1.813553e-002
6.595461e+002,-1.756494e-002
6.614746e+002,-1.741374e-002
6.634031e+002,-1.803172e-002
6.653317e+002,-1.759444e-002
6.672601e+002,-1.680102e-002
6.691886e+002,-1.698698e-002
6.711171e+002,-1.730155e-002
6.730457e+002,-1.712814e-002
6.749741e+002,-1.731215e-002
6.769026e+002,-1.699370e-002
6.788311e+002,-1.659011e-002
6.807596e+002,-1.654325e-002
6.826881e+002,-1.677160e-002
6.846166e+002,-1.668022e-002
6.865451e+002,-1.634421e-002
6.884736e+002,-1.565616e-002
6.904021e+002,-1.500140e-002
6.923306e+002,-1.482877e-002
6.942591e+002,-1.478605e-002
6.961876e+002,-1.532524e-002
6.981161e+002,-1.535335e-002
7.000446e+002,-1.489707e-002
7.019731e+002,-1.457684e-002
7.039016e+002,-1.456217e-002
7.058301e+002,-1.498005e-002
7.077585e+002,-1.501055e-002
7.096871e+002,-1.506656e-002
7.116156e+002,-1.480360e-002
7.135441e+002,-1.458357e-002
7.154725e+002,-1.492658e-002
7.174011e+002,-1.530419e-002
7.193296e+002,-1.513959e-002
7.212581e+002,-1.505507e-002
7.231865e+002,-1.516768e-002
7.251151e+002,-1.506461e-002
7.270436e+002,-1.539618e-002
7.289720e+002,-1.547567e-002
7.309005e+002,-1.522345e-002
7.328290e+002,-1.522201e-002
7.347576e+002,-1.478679e-002
7.366860e+002,-1.397917e-002
7.386145e+002,-1.378527e-002
7.405430e+002,-1.427389e-002
7.424716e+002,-1.451128e-002
7.444000e+002,-1.439466e-002
7.463285e+002,-1.443988e-002
7.482570e+002,-1.472786e-002
7.501855e+002,-1.423673e-002
7.521140e+002,-1.321604e-002
7.540425e+002,-1.280589e-002
7.559710e+002,-1.274003e-002
7.578995e+002,-1.267670e-002
7.598280e+002,-1.288406e-002
7.617565e+002,-1.310196e-002
7.636850e+002,-1.279273e-002
7.656135e+002,-1.242688e-002
7.675420e+002,-1.225113e-002
7.694705e+002,-1.226398e-002
7.713990e+002,-1.254001e-002
7.733275e+002,-1.267780e-002
7.752560e+002,-1.277645e-002
7.771844e+002,-1.288490e-002
7.791130e+002,-1.300126e-002
7.810415e+002,-1.322401e-002
7.829700e+002,-1.313838e-002
7.848984e+002,-1.313829e-002
7.868270e+002,-1.336682e-002
7.887555e+002,-1.354270e-002
7.906840e+002,-1.399742e-002
7.926124e+002,-1.435183e-002
7.945410e+002,-1.435314e-002
7.964695e+002,-1.455566e-002
7.983979e+002,-1.442286e-002
8.003264e+002,-1.428386e-002
8.022549e+002,-1.444344e-002
8.041835e+002,-1.421441e-002
8.061119e+002,-1.370155e-002
8.080404e+002,-1.338244e-002
8.099689e+002,-1.379384e-002
8.118975e+002,-1.439796e-002
8.138259e+002,-1.424805e-002
8.157545e+002,-1.374116e-002
8.176830e+002,-1.364616e-002
8.196115e+002,-1.414261e-002
8.215399e+002,-1.440793e-002
8.234684e+002,-1.415165e-002
8.253970e+002,-1.435831e-002
8.273254e+002,-1.470377e-002
8.292539e+002,-1.462218e-002
8.311824e+002,-1.473891e-002
8.331110e+002,-1.456310e-002
8.350394e+002,-1.410563e-002
8.369679e+002,-1.375471e-002
8.388964e+002,-1.398113e-002
8.408250e+002,-1.417923e-002
8.427534e+002,-1.429534e-002
8.446819e+002,-1.416907e-002
8.466104e+002,-1.419043e-002
8.485389e+002,-1.416326e-002
8.504674e+002,-1.425857e-002
8.523959e+002,-1.458953e-002
8.543244e+002,-1.493257e-002
8.562529e+002,-1.497419e-002
8.581814e+002,-1.497860e-002
8.601099e+002,-1.493107e-002
8.620384e+002,-1.526299e-002
8.639669e+002,-1.567991e-002
8.658954e+002,-1.565910e-002
8.678239e+002,-1.517853e-002
8.697524e+002,-1.512221e-002
8.716809e+002,-1.540663e-002
8.736094e+002,-1.565060e-002
8.755378e+002,-1.576280e-002
8.774664e+002,-1.580718e-002
8.793949e+002,-1.560595e-002
8.813234e+002,-1.540468e-002
8.832518e+002,-1.539720e-002
8.851804e+002,-1.544587e-002
8.871089e+002,-1.550486e-002
8.890374e+002,-1.540654e-002
8.909658e+002,-1.551090e-002
8.928943e+002,-1.519386e-002
8.948229e+002,-1.473449e-002
8.967513e+002,-1.455240e-002
8.986798e+002,-1.479825e-002
9.006083e+002,-1.517703e-002
9.025369e+002,-1.508717e-002
9.044653e+002,-1.476632e-002
9.063938e+002,-1.483251e-002
9.083223e+002,-1.478426e-002
9.102509e+002,-1.474505e-002
9.121793e+002,-1.510484e-002
9.141078e+002,-1.529869e-002
9.160364e+002,-1.513524e-002
9.179648e+002,-1.501036e-002
9.198933e+002,-1.521958e-002
9.218218e+002,-1.542611e-002
9.237504e+002,-1.563037e-002
9.256788e+002,-1.586584e-002
9.276073e+002,-1.592295e-002
9.295358e+002,-1.576564e-002
9.314644e+002,-1.549322e-002
9.333928e+002,-1.538946e-002
9.353213e+002,-1.534728e-002
9.372498e+002,-1.542553e-002
9.391783e+002,-1.562557e-002
9.411068e+002,-1.565904e-002
9.430353e+002,-1.537369e-002
9.449637e+002,-1.517751e-002
9.468923e+002,-1.531212e-002
9.488208e+002,-1.513783e-002
9.507493e+002,-1.496036e-002
9.526777e+002,-1.491519e-002
9.546063e+002,-1.497505e-002
9.565348e+002,-1.475306e-002
9.584633e+002,-1.468782e-002
9.603917e+002,-1.493167e-002
9.623203e+002,-1.522076e-002
9.642488e+002,-1.498437e-002
9.661772e+002,-1.481782e-002
9.681057e+002,-1.498501e-002
9.700343e+002,-1.512048e-002
9.719628e+002,-1.518822e-002
9.738912e+002,-1.516407e-002
9.758197e+002,-1.518154e-002
9.777483e+002,-1.520397e-002
9.796768e+002,-1.498494e-002
9.816052e+002,-1.504163e-002
9.835337e+002,-1.528385e-002
9.854623e+002,-1.544040e-002
9.873907e+002,-1.552389e-002
9.893192e+002,-1.549367e-002
9.912477e+002,-1.547957e-002
9.931763e+002,-1.554828e-002
9.951047e+002,-1.545147e-002
9.970332e+002,-1.536205e-002
9.989617e+002,-1.548868e-002
1.000890e+003,-1.553987e-002
1.002819e+003,-1.527505e-002
1.004747e+003,-1.498760e-002
1.006676e+003,-1.475066e-002
1.008604e+003,-1.453519e-002
1.010533e+003,-1.440873e-002
1.012461e+003,-1.418289e-002
1.014390e+003,-1.390598e-002
1.016318e+003,-1.364918e-002
1.018247e+003,-1.331959e-002
1.020175e+003,-1.317705e-002
1.022104e+003,-1.284044e-002
1.024032e+003,-1.222223e-002
1.025961e+003,-1.170143e-002
1.027889e+003,-1.142755e-002
1.029818e+003,-1.118911e-002
1.031746e+003,-1.070712e-002
1.033675e+003,-1.032439e-002
1.035603e+003,-9.919597e-003
1.037532e+003,-9.449975e-003
1.039460e+003,-9.233512e-003
1.041389e+003,-8.891621e-003
1.043317e+003,-8.630868e-003
1.045246e+003,-8.626549e-003
1.047174e+003,-8.361379e-003
1.049103e+003,-8.225661e-003
1.051031e+003,-8.191327e-003
1.052960e+003,-7.891468e-003
1.054888e+003,-7.664622e-003
1.056817e+003,-7.744536e-003
1.058745e+003,-7.847507e-003
1.060674e+003,-7.769858e-003
1.062602e+003,-7.677026e-003
1.064531e+003,-7.579777e-003
1.066459e+003,-7.538391e-003
1.068388e+003,-7.638741e-003
1.070316e+003,-7.724779e-003
1.072245e+003,-7.641769e-003
1.074173e+003,-7.522922e-003
1.076102e+003,-7.694116e-003
1.078030e+003,-8.024460e-003
1.079959e+003,-7.884667e-003
1.081887e+003,-7.641671e-003
1.083816e+003,-7.703783e-003
1.085744e+003,-7.640759e-003
1.087673e+003,-7.539824e-003
1.089601e+003,-7.628388e-003
1.091530e+003,-7.504555e-003
1.093458e+003,-7.108954e-003
1.095387e+003,-7.076324e-003
1.097315e+003,-7.037661e-003
1.099244e+003,-7.045844e-003
1.101172e+003,-7.085876e-003
1.103101e+003,-7.008318e-003
1.105029e+003,-7.151881e-003
1.106958e+003,-7.403099e-003
1.108886e+003,-7.228468e-003
1.110815e+003,-6.975746e-003
1.112743e+003,-6.923573e-003
1.114672e+003,-7.111399e-003
1.116600e+003,-7.248834e-003
1.118529e+003,-7.292790e-003
1.120457e+003,-7.446714e-003
1.122386e+003,-7.371892e-003
1.124314e+003,-7.226838e-003
1.126243e+003,-7.442903e-003
1.128171e+003,-7.684676e-003
1.130100e+003,-7.560533e-003
1.132028e+003,-7.655116e-003
1.133957e+003,-7.886196e-003
1.135885e+003,-8.072631e-003
1.137814e+003,-8.329233e-003
1.139742e+003,-8.637625e-003
1.141671e+003,-8.986823e-003
1.143599e+003,-9.006426e-003
1.145528e+003,-9.128890e-003
1.147456e+003,-9.521944e-003
1.149385e+003,-9.900294e-003
1.151313e+003,-1.019485e-002
1.153242e+003,-1.049558e-002
1.155170e+003,-1.074914e-002
1.157099e+003,-1.085890e-002
1.159027e+003,-1.105673e-002
1.160956e+003,-1.103822e-002
1.162884e+003,-1.109271e-002
1.164813e+003,-1.122983e-002
1.166741e+003,-1.135764e-002
1.168670e+003,-1.134408e-002
1.170598e+003,-1.120913e-002
1.172526e+003,-1.129666e-002
1.174455e+003,-1.132946e-002
1.176384e+003,-1.121336e-002
1.178312e+003,-1.124626e-002
1.180240e+003,-1.123696e-002
1.182169e+003,-1.124348e-002
1.184098e+003,-1.138498e-002
1.186026e+003,-1.146237e-002
1.187954e+003,-1.164327e-002
1.189883e+003,-1.201556e-002
1.191812e+003,-1.207048e-002
1.193740e+003,-1.193175e-002
1.195668e+003,-1.207505e-002
1.197597e+003,-1.221341e-002
1.199526e+003,-1.222517e-002
1.201454e+003,-1.236618e-002
1.203382e+003,-1.238923e-002
1.205311e+003,-1.231903e-002
1.207240e+003,-1.238675e-002
1.209168e+003,-1.232141e-002
1.211096e+003,-1.215126e-002
1.213025e+003,-1.205391e-002
1.214953e+003,-1.196270e-002
1.216882e+003,-1.199825e-002
1.218810e+003,-1.209419e-002
1.220739e+003,-1.208923e-002
1.222667e+003,-1.193636e-002
1.224596e+003,-1.171991e-002
1.226524e+003,-1.169688e-002
1.228453e+003,-1.171472e-002
1.230381e+003,-1.151684e-002
1.232310e+003,-1.136990e-002
1.234238e+003,-1.134524e-002
1.236167e+003,-1.119834e-002
1.238095e+003,-1.111277e-002
1.240024e+003,-1.114768e-002
1.241952e+003,-1.104310e-002
1.243881e+003,-1.107827e-002
1.245809e+003,-1.119883e-002
1.247738e+003,-1.124736e-002
1.249666e+003,-1.138184e-002
1.251595e+003,-1.147624e-002
1.253523e+003,-1.139985e-002
1.255452e+003,-1.146766e-002
1.257380e+003,-1.159705e-002
1.259309e+003,-1.167037e-002
1.261237e+003,-1.159695e-002
1.263166e+003,-1.131135e-002
1.265094e+003,-1.103434e-002
1.267023e+003,-1.081502e-002
1.268951e+003,-1.070356e-002
1.270880e+003,-1.052217e-002
1.272808e+003,-1.021537e-002
1.274737e+003,-9.989933e-003
1.276665e+003,-9.721901e-003
1.278594e+003,-9.470627e-003
1.280522e+003,-9.416840e-003
1.282451e+003,-9.243632e-003
1.284379e+003,-8.949238e-003
1.286308e+003,-8.507712e-003
1.288236e+003,-8.284179e-003
1.290165e+003,-7.977651e-003
1.292093e+003,-7.715827e-003
1.294022e+003,-7.805495e-003
1.295950e+003,-7.836248e-003
1.297879e+003,-7.745448e-003
1.299807e+003,-7.677351e-003
1.301736e+003,-7.735943e-003
1.303664e+003,-7.740598e-003
1.305593e+003,-7.761982e-003
1.307521e+003,-7.934935e-003
1.309450e+003,-8.260025e-003
1.311378e+003,-8.658575e-003
1.313307e+003,-8.845619e-003
1.315235e+003,-8.862793e-003
1.317164e+003,-9.078436e-003
1.319092e+003,-9.558150e-003
1.321021e+003,-1.004514e-002
1.322949e+003,-1.029812e-002
1.324878e+003,-1.039062e-002
1.326806e+003,-1.045396e-002
1.328735e+003,-1.043283e-002
1.330663e+003,-1.044694e-002
1.332592e+003,-1.058352e-002
1.334520e+003,-1.080687e-002
1.336449e+003,-1.091131e-002
1.338377e+003,-1.085541e-002
1.340306e+003,-1.085328e-002
1.342234e+003,-1.087293e-002
1.344163e+003,-1.088837e-002
1.346091e+003,-1.096915e-002
1.348020e+003,-1.095739e-002
1.349948e+003,-1.097370e-002
1.351877e+003,-1.109574e-002
1.353805e+003,-1.114616e-002
1.355734e+003,-1.127180e-002
1.357662e+003,-1.145946e-002
1.359591e+003,-1.157924e-002
1.361519e+003,-1.159140e-002
1.363448e+003,-1.160898e-002
1.365376e+003,-1.173478e-002
1.367305e+003,-1.183549e-002
1.369233e+003,-1.183465e-002
1.371162e+003,-1.193037e-002
1.373090e+003,-1.199313e-002
1.375019e+003,-1.175823e-002
1.376947e+003,-1.170595e-002
1.378876e+003,-1.167263e-002
1.380804e+003,-1.160018e-002
1.382733e+003,-1.168605e-002
1.384661e+003,-1.188085e-002
1.386590e+003,-1.193353e-002
1.388518e+003,-1.198310e-002
1.390447e+003,-1.212584e-002
1.392375e+003,-1.235552e-002
1.394304e+003,-1.241876e-002
1.396232e+003,-1.248834e-002
1.398161e+003,-1.261372e-002
1.400089e+003,-1.258723e-002
1.402018e+003,-1.255775e-002
1.403946e+003,-1.259000e-002
1.405875e+003,-1.263229e-002
1.407803e+003,-1.275116e-002
1.409732e+003,-1.289120e-002
1.411660e+003,-1.295199e-002
1.413589e+003,-1.295482e-002
1.415517e+003,-1.283700e-002
1.417446e+003,-1.260474e-002
1.419374e+003,-1.219002e-002
1.421303e+003,-1.181269e-002
1.423231e+003,-1.148990e-002
1.425160e+003,-1.091106e-002
1.427088e+003,-1.043691e-002
1.429017e+003,-1.008697e-002
1.430945e+003,-9.842187e-003
1.432874e+003,-9.563369e-003
1.434802e+003,-9.146118e-003
1.436731e+003,-8.607415e-003
1.438659e+003,-8.229432e-003
1.440588e+003,-7.949738e-003
1.442516e+003,-7.626825e-003
1.444445e+003,-7.362771e-003
1.446373e+003,-6.863241e-003
1.448302e+003,-6.347135e-003
1.450230e+003,-5.988356e-003
1.452159e+003,-5.483446e-003
1.454087e+003,-5.082199e-003
1.456016e+003,-4.718801e-003
1.457944e+003,-4.279807e-003
1.459873e+003,-4.197809e-003
1.461801e+003,-4.181401e-003
1.463730e+003,-4.178480e-003
1.465658e+003,-4.059667e-003
1.467587e+003,-4.254215e-003
1.469515e+003,-4.662094e-003
1.471444e+003,-4.889267e-003
1.473372e+003,-5.049974e-003
1.475301e+003,-5.354517e-003
1.477229e+003,-5.749397e-003
1.479158e+003,-6.179069e-003
1.481086e+003,-6.692698e-003
1.483015e+003,-7.214064e-003
1.484943e+003,-7.670775e-003
1.486872e+003,-8.005789e-003
1.488800e+003,-8.322245e-003
1.490729e+003,-8.656139e-003
1.492657e+003,-9.131551e-003
1.494586e+003,-9.459474e-003
1.496514e+003,-9.630165e-003
1.498443e+003,-9.796772e-003
1.500371e+003,-1.011015e-002
1.502300e+003,-1.040168e-002
1.504228e+003,-1.067030e-002
1.506157e+003,-1.080855e-002
1.508085e+003,-1.081466e-002
1.510014e+003,-1.105107e-002
1.511942e+003,-1.124949e-002
1.513871e+003,-1.140115e-002
1.515799e+003,-1.158924e-002
1.517728e+003,-1.151329e-002
1.519656e+003,-1.144836e-002
1.521585e+003,-1.133130e-002
1.523513e+003,-1.134337e-002
1.525442e+003,-1.131077e-002
1.527370e+003,-1.129801e-002
1.529299e+003,-1.135163e-002
1.531227e+003,-1.128320e-002
1.533156e+003,-1.101842e-002
1.535084e+003,-1.087713e-002
1.537013e+003,-1.092262e-002
1.538941e+003,-1.066157e-002
1.540870e+003,-1.026201e-002
1.542798e+003,-1.017255e-002
1.544727e+003,-1.010746e-002
1.546655e+003,-1.007473e-002
1.548584e+003,-1.002014e-002
1.550512e+003,-9.726728e-003
1.552441e+003,-9.737388e-003
1.554369e+003,-9.646887e-003
1.556298e+003,-9.512381e-003
1.558226e+003,-9.166103e-003
1.560155e+003,-8.578439e-003
1.562083e+003,-8.346460e-003
1.564012e+003,-8.113739e-003
1.565940e+003,-7.891240e-003
1.567869e+003,-7.743039e-003
1.569797e+003,-7.431633e-003
1.571726e+003,-7.246097e-003
1.573654e+003,-7.365377e-003
1.575583e+003,-7.150871e-003
1.577511e+003,-6.894582e-003
1.579440e+003,-7.077791e-003
1.581368e+003,-7.046854e-003
1.583297e+003,-7.088223e-003
1.585225e+003,-7.168894e-003
1.587154e+003,-7.219310e-003
1.589082e+003,-7.450525e-003
1.591010e+003,-7.806732e-003
1.592939e+003,-8.050384e-003
1.594868e+003,-8.340967e-003
1.596796e+003,-8.671924e-003
1.598724e+003,-8.902983e-003
1.600653e+003,-9.294813e-003
1.602582e+003,-9.751579e-003
1.604510e+003,-1.009603e-002
1.606438e+003,-1.029741e-002
1.608367e+003,-1.059655e-002
1.610296e+003,-1.087642e-002
1.612224e+003,-1.118727e-002
1.614152e+003,-1.153155e-002
1.616081e+003,-1.170772e-002
1.618010e+003,-1.168443e-002
1.619938e+003,-1.188401e-002
1.621866e+003,-1.212584e-002
1.623795e+003,-1.234560e-002
1.625724e+003,-1.248979e-002
1.627652e+003,-1.258749e-002
1.629580e+003,-1.274322e-002
1.631509e+003,-1.298913e-002
1.633438e+003,-1.318480e-002
1.635366e+003,-1.314221e-002
1.637294e+003,-1.328694e-002
1.639223e+003,-1.378421e-002
1.641151e+003,-1.415130e-002
1.643080e+003,-1.460882e-002
1.645008e+003,-1.499384e-002
1.646937e+003,-1.503078e-002
1.648865e+003,-1.529191e-002
1.650794e+003,-1.574724e-002
1.652722e+003,-1.544827e-002
1.654651e+003,-1.539266e-002
1.656579e+003,-1.596006e-002
1.658508e+003,-1.636390e-002
1.660436e+003,-1.657693e-002
1.662365e+003,-1.661262e-002
1.664293e+003,-1.656896e-002
1.666222e+003,-1.661262e-002
1.668150e+003,-1.667834e-002
1.670079e+003,-1.680736e-002
1.672007e+003,-1.688456e-002
1.673936e+003,-1.705035e-002
1.675864e+003,-1.695846e-002
1.677793e+003,-1.699832e-002
1.679721e+003,-1.700737e-002
1.681650e+003,-1.714706e-002
1.683578e+003,-1.703993e-002
1.685507e+003,-1.675559e-002
1.687435e+003,-1.697283e-002
1.689364e+003,-1.712257e-002
1.691292e+003,-1.715245e-002
1.693221e+003,-1.712282e-002
1.695149e+003,-1.685511e-002
1.697078e+003,-1.652616e-002
1.699006e+003,-1.656213e-002
1.700935e+003,-1.625246e-002
1.702863e+003,-1.631070e-002
1.704792e+003,-1.631396e-002
1.706720e+003,-1.616985e-002
1.708649e+003,-1.616270e-002
1.710577e+003,-1.616423e-002
1.712506e+003,-1.610906e-002
1.714434e+003,-1.605718e-002
1.716363e+003,-1.605172e-002
1.718291e+003,-1.583769e-002
1.720220e+003,-1.589484e-002
1.722148e+003,-1.606768e-002
1.724077e+003,-1.608202e-002
1.726005e+003,-1.616430e-002
1.727934e+003,-1.622667e-002
1.729862e+003,-1.608342e-002
1.731791e+003,-1.602959e-002
1.733719e+003,-1.589717e-002
1.735648e+003,-1.593062e-002
1.737576e+003,-1.624368e-002
1.739505e+003,-1.611570e-002
1.741433e+003,-1.595515e-002
1.743362e+003,-1.592959e-002
1.745290e+003,-1.576651e-002
1.747219e+003,-1.568802e-002
1.749147e+003,-1.579117e-002
1.751076e+003,-1.568780e-002
1.753004e+003,-1.559012e-002
1.754933e+003,-1.564008e-002
1.756861e+003,-1.547247e-002
1.758790e+003,-1.547420e-002
1.760718e+003,-1.548523e-002
1.762647e+003,-1.542576e-002
1.764575e+003,-1.551813e-002
1.766504e+003,-1.559348e-002
1.768432e+003,-1.554342e-002
1.770361e+003,-1.556960e-002
1.772289e+003,-1.546039e-002
1.774218e+003,-1.542528e-002
1.776146e+003,-1.540922e-002
1.778075e+003,-1.536867e-002
1.780003e+003,-1.543263e-002
1.781932e+003,-1.547139e-002
1.783860e+003,-1.553523e-002
1.785789e+003,-1.560812e-002
1.787717e+003,-1.561020e-002
1.789646e+003,-1.548584e-002
1.791574e+003,-1.545150e-002
1.793503e+003,-1.549486e-002
1.795431e+003,-1.557318e-002
1.797360e+003,-1.554927e-002
1.799288e+003,-1.549047e-002
1.801217e+003,-1.548533e-002
1.803145e+003,-1.550777e-002
1.805074e+003,-1.547529e-002
1.807002e+003,-1.552983e-002
1.808931e+003,-1.564695e-002
1.810859e+003,-1.552705e-002
1.812788e+003,-1.539714e-002
1.814716e+003,-1.546880e-002
1.816645e+003,-1.554837e-002
1.818573e+003,-1.563312e-002
1.820502e+003,-1.564146e-002
1.822430e+003,-1.558424e-002
1.824359e+003,-1.553143e-002
1.826287e+003,-1.554041e-002
1.828216e+003,-1.558002e-002
1.830144e+003,-1.554662e-002
1.832073e+003,-1.551222e-002
1.834001e+003,-1.556017e-002
1.835930e+003,-1.567952e-002
1.837858e+003,-1.567891e-002
1.839787e+003,-1.566079e-002
1.841715e+003,-1.568700e-002
1.843644e+003,-1.562439e-002
1.845572e+003,-1.560467e-002
1.847501e+003,-1.560895e-002
1.849429e+003,-1.559597e-002
1.851358e+003,-1.563072e-002
1.853286e+003,-1.559821e-002
1.855215e+003,-1.555413e-002
1.857143e+003,-1.556608e-002
1.859072e+003,-1.567933e-002
1.861000e+003,-1.569100e-002
1.862929e+003,-1.561828e-002
1.864857e+003,-1.557689e-002
1.866786e+003,-1.562554e-002
1.868714e+003,-1.556615e-002
1.870643e+003,-1.547753e-002
1.872571e+003,-1.546339e-002
1.874500e+003,-1.552245e-002
1.876428e+003,-1.559613e-002
1.878357e+003,-1.557398e-002
1.880285e+003,-1.556791e-002
1.882214e+003,-1.567572e-002
1.884142e+003,-1.574692e-002
1.886071e+003,-1.570394e-002
1.887999e+003,-1.568470e-002
1.889928e+003,-1.569016e-002
1.891856e+003,-1.567802e-002
1.893785e+003,-1.567169e-002
1.895713e+003,-1.567457e-002
1.897642e+003,-1.561790e-002
1.899570e+003,-1.562119e-002
1.901499e+003,-1.567383e-002
1.903427e+003,-1.565057e-002
1.905356e+003,-1.566824e-002
1.907284e+003,-1.563983e-002
1.909213e+003,-1.556314e-002
1.911141e+003,-1.558098e-002
1.913070e+003,-1.562918e-002
1.914998e+003,-1.563158e-002
1.916927e+003,-1.565801e-002
1.918855e+003,-1.564862e-002
1.920784e+003,-1.564916e-002
1.922712e+003,-1.565999e-002
1.924641e+003,-1.563689e-002
1.926569e+003,-1.569863e-002
1.928498e+003,-1.574280e-002
1.930426e+003,-1.572490e-002
1.932355e+003,-1.572979e-002
1.934283e+003,-1.568642e-002
1.936212e+003,-1.566623e-002
1.938140e+003,-1.565389e-002
1.940069e+003,-1.578127e-002
1.941997e+003,-1.584622e-002
1.943926e+003,-1.581002e-002
1.945854e+003,-1.586104e-002
1.947783e+003,-1.593084e-002
1.949711e+003,-1.588631e-002
1.951640e+003,-1.580044e-002
1.953568e+003,-1.577213e-002
1.955497e+003,-1.577449e-002
1.957425e+003,-1.585724e-002
1.959354e+003,-1.594256e-002
1.961282e+003,-1.590452e-002
1.963211e+003,-1.593787e-002
1.965139e+003,-1.589468e-002
1.967068e+003,-1.583031e-002
1.968996e+003,-1.584906e-002
1.970925e+003,-1.585849e-002
1.972853e+003,-1.591203e-002
1.974782e+003,-1.589245e-002
1.976710e+003,-1.586376e-002
1.978639e+003,-1.591120e-002
1.980567e+003,-1.595802e-002
1.982496e+003,-1.594889e-002
1.984424e+003,-1.595626e-002
1.986353e+003,-1.586615e-002
1.988281e+003,-1.575145e-002
1.990210e+003,-1.573209e-002
1.992138e+003,-1.569994e-002
1.994067e+003,-1.571714e-002
1.995995e+003,-1.571631e-002
1.997924e+003,-1.566872e-002
1.999852e+003,-1.567792e-002
2.001781e+003,-1.574842e-002
2.003709e+003,-1.575615e-002
2.005638e+003,-1.576321e-002
2.007566e+003,-1.575842e-002
2.009495e+003,-1.577440e-002
2.011423e+003,-1.579916e-002
2.013352e+003,-1.573068e-002
2.015280e+003,-1.568706e-002
2.017208e+003,-1.569116e-002
2.019137e+003,-1.582047e-002
2.021066e+003,-1.582571e-002
2.022994e+003,-1.571726e-002
2.024922e+003,-1.568476e-002
2.026851e+003,-1.570375e-002
2.028780e+003,-1.574212e-002
2.030708e+003,-1.575277e-002
2.032636e+003,-1.570864e-002
2.034565e+003,-1.572845e-002
2.036494e+003,-1.579108e-002
2.038422e+003,-1.574973e-002
2.040350e+003,-1.570758e-002
2.042279e+003,-1.565012e-002
2.044208e+003,-1.568518e-002
2.046136e+003,-1.575018e-002
2.048064e+003,-1.568345e-002
2.049993e+003,-1.565999e-002
2.051921e+003,-1.570208e-002
2.053850e+003,-1.574941e-002
2.055778e+003,-1.574919e-002
2.057707e+003,-1.573430e-002
2.059635e+003,-1.555761e-002
2.061564e+003,-1.549415e-002
2.063492e+003,-1.562899e-002
2.065421e+003,-1.568751e-002
2.067349e+003,-1.563852e-002
2.069278e+003,-1.562784e-002
2.071206e+003,-1.569122e-002
2.073135e+003,-1.566025e-002
2.075063e+003,-1.559313e-002
2.076992e+003,-1.561713e-002
2.078920e+003,-1.559303e-002
2.080849e+003,-1.555381e-002
2.082777e+003,-1.559588e-002
2.084706e+003,-1.564865e-002
2.086634e+003,-1.567383e-002
2.088563e+003,-1.564759e-002
2.090491e+003,-1.551829e-002
2.092420e+003,-1.547158e-002
2.094348e+003,-1.553712e-002
2.096277e+003,-1.551429e-002
2.098205e+003,-1.550042e-002
2.100134e+003,-1.560368e-002
2.102062e+003,-1.560821e-002
2.103991e+003,-1.554403e-002
2.105919e+003,-1.547203e-002
2.107848e+003,-1.545786e-002
2.109776e+003,-1.551135e-002
2.111705e+003,-1.546614e-002
2.113633e+003,-1.541603e-002
2.115562e+003,-1.540932e-002
2.117490e+003,-1.536231e-002
2.119419e+003,-1.532306e-002
2.121347e+003,-1.533132e-002
2.123276e+003,-1.534852e-002
2.125204e+003,-1.534782e-002
2.127133e+003,-1.530160e-002
2.129061e+003,-1.522841e-002
2.130990e+003,-1.518576e-002
2.132918e+003,-1.513757e-002
2.134847e+003,-1.518138e-002
2.136775e+003,-1.521091e-002
2.138704e+003,-1.520022e-002
2.140632e+003,-1.515536e-002
2.142561e+003,-1.522067e-002
2.144489e+003,-1.522662e-002
2.146418e+003,-1.515572e-002
2.148346e+003,-1.510573e-002
2.150275e+003,-1.510887e-002
2.152203e+003,-1.513933e-002
2.154132e+003,-1.509146e-002
2.156060e+003,-1.502662e-002
2.157989e+003,-1.506016e-002
2.159917e+003,-1.511213e-002
2.161846e+003,-1.511607e-002
2.163774e+003,-1.503488e-002
2.165703e+003,-1.500847e-002
2.167631e+003,-1.501250e-002
2.169560e+003,-1.500860e-002
2.171488e+003,-1.493932e-002
2.173417e+003,-1.493388e-002
2.175345e+003,-1.495024e-002
2.177274e+003,-1.492963e-002
2.179202e+003,-1.495354e-002
2.181131e+003,-1.495293e-002
2.183059e+003,-1.489117e-002
2.184988e+003,-1.493084e-002
2.186916e+003,-1.498059e-002
2.188845e+003,-1.496554e-002
2.190773e+003,-1.487545e-002
2.192702e+003,-1.483639e-002
2.194630e+003,-1.488993e-002
2.196559e+003,-1.493664e-002
2.198487e+003,-1.493148e-002
2.200416e+003,-1.491022e-002
2.202344e+003,-1.495824e-002
2.204273e+003,-1.494880e-002
2.206201e+003,-1.494134e-002
2.208130e+003,-1.499397e-002
2.210058e+003,-1.509812e-002
2.211987e+003,-1.513271e-002
2.213915e+003,-1.507178e-002
2.215844e+003,-1.509783e-002
2.217772e+003,-1.508077e-002
2.219701e+003,-1.500671e-002
2.221629e+003,-1.510407e-002
2.223558e+003,-1.517546e-002
2.225486e+003,-1.519357e-002
2.227415e+003,-1.516359e-002
2.229343e+003,-1.517818e-002
2.231272e+003,-1.515223e-002
2.233200e+003,-1.521001e-002
2.235129e+003,-1.526485e-002
2.237057e+003,-1.520873e-002
2.238986e+003,-1.521321e-002
2.240914e+003,-1.534651e-002
2.242843e+003,-1.540059e-002
2.244771e+003,-1.536912e-002
2.246700e+003,-1.535725e-002
2.248628e+003,-1.540794e-002
2.250557e+003,-1.540484e-002
2.252485e+003,-1.538629e-002
2.254414e+003,-1.542448e-002
2.256342e+003,-1.542678e-002
2.258271e+003,-1.545329e-002
2.260199e+003,-1.555352e-002
2.262128e+003,-1.566079e-002
2.264056e+003,-1.557660e-002
2.265985e+003,-1.547983e-002
2.267913e+003,-1.551848e-002
2.269842e+003,-1.560195e-002
2.271770e+003,-1.567764e-002
2.273699e+003,-1.568940e-002
2.275627e+003,-1.560460e-002
2.277556e+003,-1.562634e-002
2.279484e+003,-1.566405e-002
2.281413e+003,-1.555880e-002
2.283341e+003,-1.562669e-002
2.285270e+003,-1.578338e-002
2.287198e+003,-1.570554e-002
2.289127e+003,-1.571621e-002
2.291055e+003,-1.572487e-002
2.292984e+003,-1.569266e-002
2.294912e+003,-1.573845e-002
2.296841e+003,-1.574219e-002
2.298769e+003,-1.569665e-002
2.300698e+003,-1.567473e-002
2.302626e+003,-1.569435e-002
2.304555e+003,-1.566389e-002
2.306483e+003,-1.560400e-002
2.308412e+003,-1.552708e-002
2.310340e+003,-1.548242e-002
2.312269e+003,-1.551756e-002
2.314197e+003,-1.561167e-002
2.316125e+003,-1.555611e-002
2.318054e+003,-1.543295e-002
2.319983e+003,-1.543222e-002
2.321911e+003,-1.545281e-002
2.323840e+003,-1.533016e-002
2.325768e+003,-1.516141e-002
2.327697e+003,-1.515543e-002
2.329625e+003,-1.513079e-002
2.331553e+003,-1.516772e-002
2.333482e+003,-1.513559e-002
2.335411e+003,-1.508496e-002
2.337339e+003,-1.505968e-002
2.339268e+003,-1.504425e-002
2.341196e+003,-1.500847e-002
2.343125e+003,-1.509312e-002
2.345053e+003,-1.519533e-002
2.346981e+003,-1.527579e-002
2.348910e+003,-1.547864e-002
2.350839e+003,-1.545329e-002
2.352767e+003,-1.531417e-002
2.354696e+003,-1.521772e-002
2.356624e+003,-1.503187e-002
2.358552e+003,-1.493532e-002
2.360481e+003,-1.492447e-002
2.362409e+003,-1.486585e-002
2.364338e+003,-1.484737e-002
2.366267e+003,-1.482762e-002
2.368195e+003,-1.489021e-002
2.370124e+003,-1.499246e-002
2.372052e+003,-1.509607e-002
2.373980e+003,-1.519536e-002
2.375909e+003,-1.535076e-002
2.377838e+003,-1.534747e-002
2.379766e+003,-1.532412e-002
2.381695e+003,-1.539905e-002
2.383623e+003,-1.547219e-002
2.385552e+003,-1.538565e-002
2.387480e+003,-1.533173e-002
2.389408e+003,-1.530429e-002
2.391337e+003,-1.521123e-002
2.393266e+003,-1.519942e-002
2.395194e+003,-1.523222e-002
2.397123e+003,-1.526152e-002
2.399051e+003,-1.528538e-002
2.400979e+003,-1.522211e-002
2.402908e+003,-1.518522e-002
2.404836e+003,-1.521385e-002
2.406765e+003,-1.524280e-002
2.408694e+003,-1.520796e-002
2.410622e+003,-1.522255e-002
2.412551e+003,-1.525525e-002
2.414479e+003,-1.522930e-002
2.416407e+003,-1.524597e-002
2.418336e+003,-1.525000e-002
2.420264e+003,-1.521296e-002
2.422193e+003,-1.513748e-002
2.424122e+003,-1.510247e-002
2.426050e+003,-1.506896e-002
2.427979e+003,-1.503587e-002
2.429907e+003,-1.503776e-002
2.431835e+003,-1.500876e-002
2.433764e+003,-1.495219e-002
2.435692e+003,-1.488035e-002
2.437621e+003,-1.483719e-002
2.439550e+003,-1.479844e-002
2.441478e+003,-1.486716e-002
2.443406e+003,-1.494454e-002
2.445335e+003,-1.491253e-002
2.447263e+003,-1.485499e-002
2.449192e+003,-1.487850e-002
2.451121e+003,-1.486585e-002
2.453049e+003,-1.484984e-002
2.454978e+003,-1.481407e-002
2.456906e+003,-1.476863e-002
2.458834e+003,-1.473609e-002
2.460763e+003,-1.473199e-002
2.462691e+003,-1.477263e-002
2.464620e+003,-1.475617e-002
2.466549e+003,-1.468429e-002
2.468477e+003,-1.469044e-002
2.470406e+003,-1.464012e-002
2.472334e+003,-1.471693e-002
2.474262e+003,-1.471309e-002
2.476191e+003,-1.462894e-002
2.478119e+003,-1.466735e-002
2.480048e+003,-1.466206e-002
2.481977e+003,-1.458771e-002
2.483905e+003,-1.457072e-002
2.485833e+003,-1.461263e-002
2.487762e+003,-1.458998e-002
2.489690e+003,-1.450824e-002
2.491619e+003,-1.448767e-002
2.493547e+003,-1.439350e-002
2.495476e+003,-1.435574e-002
2.497405e+003,-1.434523e-002
2.499333e+003,-1.435879e-002
2.501261e+003,-1.425340e-002
2.503190e+003,-1.419979e-002
2.505118e+003,-1.433372e-002
2.507047e+003,-1.442786e-002
2.508975e+003,-1.434834e-002
2.510904e+003,-1.428505e-002
2.512833e+003,-1.422596e-002
2.514761e+003,-1.423308e-002
2.516689e+003,-1.424244e-002
2.518618e+003,-1.426588e-002
2.520546e+003,-1.424648e-002
2.522475e+003,-1.422631e-002
2.524403e+003,-1.424574e-002
2.526332e+003,-1.426870e-002
2.528260e+003,-1.416342e-002
2.530189e+003,-1.412622e-002
2.532117e+003,-1.414447e-002
2.534046e+003,-1.412343e-002
2.535974e+003,-1.406149e-002
2.537903e+003,-1.407961e-002
2.539831e+003,-1.412173e-002
2.541760e+003,-1.414784e-002
2.543688e+003,-1.422881e-002
2.545617e+003,-1.425517e-002
2.547545e+003,-1.408834e-002
2.549474e+003,-1.391034e-002
2.551402e+003,-1.398905e-002
2.553331e+003,-1.411509e-002
2.555259e+003,-1.411230e-002
2.557188e+003,-1.408253e-002
2.559116e+003,-1.414226e-002
2.561045e+003,-1.412208e-002
2.562973e+003,-1.407551e-002
2.564902e+003,-1.414524e-002
2.566830e+003,-1.414883e-002
2.568759e+003,-1.399726e-002
2.570687e+003,-1.391830e-002
2.572616e+003,-1.395921e-002
2.574544e+003,-1.396739e-002
2.576473e+003,-1.405536e-002
2.578401e+003,-1.406588e-002
2.580330e+003,-1.402033e-002
2.582258e+003,-1.397917e-002
2.584187e+003,-1.395985e-002
2.586115e+003,-1.398167e-002
2.588044e+003,-1.399252e-002
2.589972e+003,-1.397981e-002
2.591901e+003,-1.403951e-002
2.593829e+003,-1.402319e-002
2.595758e+003,-1.397371e-002
2.597686e+003,-1.393730e-002
2.599615e+003,-1.389102e-002
2.601543e+003,-1.386047e-002
2.603472e+003,-1.399020e-002
2.605400e+003,-1.403916e-002
2.607329e+003,-1.395289e-002
2.609257e+003,-1.387735e-002
2.611186e+003,-1.386862e-002
2.613114e+003,-1.390598e-002
2.615043e+003,-1.388306e-002
2.616971e+003,-1.378029e-002
2.618900e+003,-1.376745e-002
2.620828e+003,-1.381551e-002
2.622757e+003,-1.372598e-002
2.624685e+003,-1.360320e-002
2.626614e+003,-1.368514e-002
2.628542e+003,-1.379217e-002
2.630471e+003,-1.385556e-002
2.632399e+003,-1.380784e-002
2.634328e+003,-1.388441e-002
2.636256e+003,-1.388377e-002
2.638185e+003,-1.377930e-002
2.640113e+003,-1.366559e-002
2.642042e+003,-1.358255e-002
2.643970e+003,-1.361441e-002
2.645899e+003,-1.358801e-002
2.647827e+003,-1.355378e-002
2.649756e+003,-1.351931e-002
2.651684e+003,-1.349924e-002
2.653613e+003,-1.346105e-002
2.655541e+003,-1.333154e-002
2.657470e+003,-1.331281e-002
2.659398e+003,-1.336595e-002
2.661327e+003,-1.335426e-002
2.663255e+003,-1.337013e-002
2.665184e+003,-1.343599e-002
2.667112e+003,-1.343802e-002
2.669041e+003,-1.336586e-002
2.670969e+003,-1.339731e-002
2.672898e+003,-1.328694e-002
2.674826e+003,-1.315909e-002
2.676755e+003,-1.308505e-002
2.678683e+003,-1.310096e-002
2.680612e+003,-1.318355e-002
2.682540e+003,-1.313649e-002
2.684469e+003,-1.299386e-002
2.686397e+003,-1.284826e-002
2.688326e+003,-1.284630e-002
2.690254e+003,-1.285788e-002
2.692183e+003,-1.280319e-002
2.694111e+003,-1.278434e-002
2.696040e+003,-1.271416e-002
2.697968e+003,-1.269283e-002
2.699897e+003,-1.266637e-002
2.701825e+003,-1.266785e-002
2.703754e+003,-1.267899e-002
2.705682e+003,-1.263802e-002
2.707611e+003,-1.248486e-002
2.709539e+003,-1.233362e-002
2.711468e+003,-1.235516e-002
2.713396e+003,-1.234740e-002
2.715325e+003,-1.230737e-002
2.717253e+003,-1.224172e-002
2.719182e+003,-1.230186e-002
2.721110e+003,-1.226846e-002
2.723039e+003,-1.213576e-002
2.724967e+003,-1.200670e-002
2.726896e+003,-1.192337e-002
2.728824e+003,-1.190032e-002
2.730753e+003,-1.189458e-002
2.732681e+003,-1.178170e-002
2.734610e+003,-1.173101e-002
2.736538e+003,-1.169946e-002
2.738467e+003,-1.169043e-002
2.740395e+003,-1.160711e-002
2.742324e+003,-1.148835e-002
2.744252e+003,-1.134502e-002
2.746181e+003,-1.134608e-002
2.748109e+003,-1.129094e-002
2.750038e+003,-1.112123e-002
2.751966e+003,-1.102142e-002
2.753895e+003,-1.090101e-002
2.755823e+003,-1.087532e-002
2.757752e+003,-1.087012e-002
2.759680e+003,-1.077749e-002
2.761609e+003,-1.051894e-002
2.763537e+003,-1.020485e-002
2.765466e+003,-1.002024e-002
2.767394e+003,-9.711176e-003
2.769323e+003,-9.394272e-003
2.771251e+003,-9.091512e-003
2.773180e+003,-8.624567e-003
2.775108e+003,-8.198382e-003
2.777037e+003,-7.804519e-003
2.778965e+003,-7.331333e-003
2.780894e+003,-6.714362e-003
2.782822e+003,-6.128074e-003
2.784750e+003,-5.554864e-003
2.786679e+003,-4.829241e-003
2.788608e+003,-4.086846e-003
2.790536e+003,-3.412321e-003
2.792465e+003,-2.727724e-003
2.794393e+003,-2.037199e-003
2.796322e+003,-1.330214e-003
2.798250e+003,-6.268080e-004
2.800178e+003,8.416861e-005
2.802107e+003,6.929214e-004
2.804036e+003,1.183336e-003
2.805964e+003,1.680825e-003
2.807893e+003,1.964248e-003
2.809821e+003,1.981955e-003
2.811750e+003,2.079659e-003
2.813678e+003,2.163067e-003
2.815606e+003,2.095507e-003
2.817535e+003,1.901977e-003
2.819464e+003,1.695860e-003
2.821392e+003,1.390041e-003
2.823321e+003,9.684272e-004
2.825249e+003,4.522500e-004
2.827177e+003,4.817957e-005
2.829106e+003,-3.185001e-004
2.831034e+003,-1.002439e-003
2.832963e+003,-1.681441e-003
2.834892e+003,-2.188249e-003
2.836820e+003,-2.831365e-003
2.838749e+003,-3.473956e-003
2.840677e+003,-4.167552e-003
2.842605e+003,-4.937852e-003
2.844534e+003,-5.768263e-003
2.846462e+003,-6.569969e-003
2.848391e+003,-7.229086e-003
2.850320e+003,-7.656581e-003
2.852248e+003,-7.845262e-003
2.854177e+003,-7.986987e-003
2.856105e+003,-8.195455e-003
2.858033e+003,-8.315125e-003
2.859962e+003,-8.231806e-003
2.861890e+003,-8.255279e-003
2.863819e+003,-8.255702e-003
2.865748e+003,-8.148697e-003
2.867676e+003,-8.102519e-003
2.869604e+003,-8.097283e-003
2.871533e+003,-8.014376e-003
2.873461e+003,-7.923646e-003
2.875390e+003,-7.821474e-003
2.877319e+003,-7.684350e-003
2.879247e+003,-7.430721e-003
2.881176e+003,-7.257795e-003
2.883104e+003,-7.265126e-003
2.885032e+003,-7.356418e-003
2.886961e+003,-7.333320e-003
2.888889e+003,-7.396128e-003
2.890818e+003,-7.598597e-003
2.892747e+003,-7.747368e-003
2.894675e+003,-7.799442e-003
2.896604e+003,-7.851250e-003
2.898532e+003,-7.991834e-003
2.900460e+003,-8.093965e-003
2.902389e+003,-8.080371e-003
2.904317e+003,-8.208234e-003
2.906246e+003,-8.322732e-003
2.908175e+003,-8.287885e-003
2.910103e+003,-8.391767e-003
2.912031e+003,-8.672183e-003
2.913960e+003,-8.956574e-003
2.915888e+003,-9.236788e-003
2.917817e+003,-9.243957e-003
2.919745e+003,-9.099981e-003
2.921674e+003,-8.871007e-003
2.923603e+003,-8.669390e-003
2.925531e+003,-8.340511e-003
2.927459e+003,-7.929404e-003
2.929388e+003,-7.584759e-003
2.931316e+003,-7.314717e-003
2.933245e+003,-7.118113e-003
2.935173e+003,-6.859425e-003
2.937102e+003,-6.700039e-003
2.939031e+003,-6.659678e-003
2.940959e+003,-6.585667e-003
2.942887e+003,-6.688522e-003
2.944816e+003,-6.893734e-003
2.946744e+003,-7.025174e-003
2.948673e+003,-7.289271e-003
2.950601e+003,-7.772462e-003
2.952530e+003,-8.243282e-003
2.954458e+003,-8.713300e-003
2.956387e+003,-9.271624e-003
2.958315e+003,-9.892651e-003
2.960244e+003,-1.048090e-002
2.962172e+003,-1.104306e-002
2.964101e+003,-1.150997e-002
2.966029e+003,-1.200347e-002
2.967958e+003,-1.252652e-002
2.969886e+003,-1.300244e-002
2.971815e+003,-1.348559e-002
2.973743e+003,-1.376235e-002
2.975672e+003,-1.395575e-002
2.977600e+003,-1.423025e-002
2.979529e+003,-1.450949e-002
2.981457e+003,-1.489335e-002
2.983386e+003,-1.526805e-002
2.985314e+003,-1.550310e-002
2.987243e+003,-1.563877e-002
2.989171e+003,-1.574053e-002
2.991100e+003,-1.579871e-002
2.993028e+003,-1.593027e-002
2.994957e+003,-1.610121e-002
2.996885e+003,-1.625297e-002
2.998814e+003,-1.630758e-002
3.000742e+003,-1.638939e-002
3.002671e+003,-1.650383e-002
3.004599e+003,-1.651439e-002
3.006528e+003,-1.648635e-002
3.008456e+003,-1.659824e-002
3.010385e+003,-1.670076e-002
3.012313e+003,-1.665691e-002
3.014242e+003,-1.669862e-002
3.016170e+003,-1.683455e-002
3.018099e+003,-1.689211e-002
3.020027e+003,-1.680399e-002
3.021956e+003,-1.678958e-002
3.023884e+003,-1.682365e-002
3.025813e+003,-1.687659e-002
3.027741e+003,-1.705892e-002
3.029670e+003,-1.712292e-002
3.031598e+003,-1.701601e-002
3.033527e+003,-1.694033e-002
3.035455e+003,-1.703398e-002
3.037384e+003,-1.715413e-002
3.039312e+003,-1.728454e-002
3.041241e+003,-1.741055e-002
3.043169e+003,-1.750563e-002
3.045098e+003,-1.746912e-002
3.047026e+003,-1.739830e-002
3.048955e+003,-1.740747e-002
3.050883e+003,-1.754244e-002
3.052812e+003,-1.766698e-002
3.054740e+003,-1.772481e-002
3.056669e+003,-1.765050e-002
3.058597e+003,-1.764172e-002
3.060526e+003,-1.775175e-002
3.062454e+003,-1.777217e-002
3.064383e+003,-1.780996e-002
3.066311e+003,-1.787744e-002
3.068240e+003,-1.790987e-002
3.070168e+003,-1.799634e-002
3.072097e+003,-1.794201e-002
3.074025e+003,-1.779876e-002
3.075954e+003,-1.779787e-002
3.077882e+003,-1.795692e-002
3.079811e+003,-1.824553e-002
3.081739e+003,-1.831329e-002
3.083668e+003,-1.821605e-002
3.085596e+003,-1.807832e-002
3.087525e+003,-1.808356e-002
3.089453e+003,-1.813654e-002
3.091382e+003,-1.822542e-002
3.093310e+003,-1.831355e-002
3.095239e+003,-1.825865e-002
3.097167e+003,-1.826466e-002
3.099096e+003,-1.841849e-002
3.101024e+003,-1.848178e-002
3.102953e+003,-1.847441e-002
3.104881e+003,-1.859274e-002
3.106810e+003,-1.863007e-002
3.108738e+003,-1.850572e-002
3.110667e+003,-1.855004e-002
3.112595e+003,-1.862531e-002
3.114524e+003,-1.861198e-002
3.116452e+003,-1.865782e-002
3.118381e+003,-1.883045e-002
3.120309e+003,-1.896721e-002
3.122238e+003,-1.890022e-002
3.124166e+003,-1.885472e-002
3.126095e+003,-1.890253e-002
3.128023e+003,-1.896429e-002
3.129952e+003,-1.897362e-002
3.131880e+003,-1.893660e-002
3.133809e+003,-1.887341e-002
3.135737e+003,-1.885149e-002
3.137666e+003,-1.883071e-002
3.139594e+003,-1.881446e-002
3.141523e+003,-1.889803e-002
3.143451e+003,-1.893695e-002
3.145380e+003,-1.899239e-002
3.147308e+003,-1.898319e-002
3.149237e+003,-1.904380e-002
3.151165e+003,-1.914892e-002
3.153094e+003,-1.922357e-002
3.155022e+003,-1.917111e-002
3.156951e+003,-1.911366e-002
3.158879e+003,-1.907957e-002
3.160808e+003,-1.898913e-002
3.162736e+003,-1.905883e-002
3.164665e+003,-1.914530e-002
3.166593e+003,-1.912003e-002
3.168522e+003,-1.916188e-002
3.170450e+003,-1.911797e-002
3.172379e+003,-1.901396e-002
3.174307e+003,-1.900311e-002
3.176236e+003,-1.898453e-002
3.178164e+003,-1.904304e-002
3.180093e+003,-1.904815e-002
3.182021e+003,-1.903927e-002
3.183950e+003,-1.905782e-002
3.185878e+003,-1.910224e-002
3.187807e+003,-1.919698e-002
3.189735e+003,-1.924120e-002
3.191664e+003,-1.931644e-002
3.193592e+003,-1.936040e-002
3.195521e+003,-1.937130e-002
3.197449e+003,-1.925889e-002
3.199378e+003,-1.916150e-002
3.201306e+003,-1.919365e-002
3.203235e+003,-1.927721e-002
3.205163e+003,-1.925001e-002
3.207092e+003,-1.924339e-002
3.209020e+003,-1.915367e-002
3.210948e+003,-1.907754e-002
3.212877e+003,-1.900276e-002
3.214806e+003,-1.897289e-002
3.216734e+003,-1.902278e-002
3.218663e+003,-1.912637e-002
3.220591e+003,-1.920608e-002
3.222520e+003,-1.906711e-002
3.224448e+003,-1.902278e-002
3.226376e+003,-1.894110e-002
3.228305e+003,-1.870492e-002
3.230234e+003,-1.871146e-002
3.232162e+003,-1.876518e-002
3.234091e+003,-1.873278e-002
3.236019e+003,-1.870527e-002
3.237948e+003,-1.867521e-002
3.239876e+003,-1.852258e-002
3.241804e+003,-1.839130e-002
3.243733e+003,-1.853210e-002
3.245662e+003,-1.858798e-002
3.247590e+003,-1.858014e-002
3.249519e+003,-1.849607e-002
3.251447e+003,-1.840093e-002
3.253375e+003,-1.840569e-002
3.255304e+003,-1.847044e-002
3.257232e+003,-1.828419e-002
3.259161e+003,-1.814732e-002
3.261090e+003,-1.820953e-002
3.263018e+003,-1.823425e-002
3.264947e+003,-1.826373e-002
3.266875e+003,-1.832743e-002
3.268803e+003,-1.829858e-002
3.270732e+003,-1.812269e-002
3.272660e+003,-1.796719e-002
3.274589e+003,-1.797307e-002
3.276518e+003,-1.796144e-002
3.278446e+003,-1.789572e-002
3.280375e+003,-1.802368e-002
3.282303e+003,-1.802572e-002
3.284231e+003,-1.804225e-002
3.286160e+003,-1.810155e-002
3.288088e+003,-1.809856e-002
3.290017e+003,-1.821519e-002
3.291946e+003,-1.824594e-002
3.293874e+003,-1.829299e-002
3.295802e+003,-1.833915e-002
3.297731e+003,-1.834950e-002
3.299659e+003,-1.847987e-002
3.301588e+003,-1.844361e-002
3.303516e+003,-1.843811e-002
3.305445e+003,-1.865315e-002
3.307374e+003,-1.881316e-002
3.309302e+003,-1.887909e-002
3.311230e+003,-1.903968e-002
3.313159e+003,-1.920503e-002
3.315087e+003,-1.931385e-002
3.317016e+003,-1.935302e-002
3.318944e+003,-1.951026e-002
3.320873e+003,-1.943695e-002
3.322802e+003,-1.949781e-002
3.324730e+003,-1.978793e-002
3.326658e+003,-1.984102e-002
3.328587e+003,-1.975694e-002
3.330515e+003,-1.980205e-002
3.332444e+003,-1.993914e-002
3.334372e+003,-2.010396e-002
3.336301e+003,-2.014293e-002
3.338229e+003,-2.012300e-002
3.340158e+003,-2.016352e-002
3.342086e+003,-2.021002e-002
3.344015e+003,-2.013176e-002
3.345943e+003,-2.021577e-002
3.347872e+003,-2.041008e-002
3.349800e+003,-2.046224e-002
3.351729e+003,-2.038918e-002
3.353657e+003,-2.045380e-002
3.355586e+003,-2.048101e-002
3.357514e+003,-2.065052e-002
3.359443e+003,-2.065570e-002
3.361371e+003,-2.055114e-002
3.363300e+003,-2.063140e-002
3.365229e+003,-2.075187e-002
3.367157e+003,-2.081700e-002
3.369085e+003,-2.104803e-002
3.371014e+003,-2.123534e-002
3.372942e+003,-2.125544e-002
3.374871e+003,-2.125351e-002
3.376799e+003,-2.124632e-002
3.378728e+003,-2.125752e-002
3.380656e+003,-2.140323e-002
3.382585e+003,-2.160366e-002
3.384513e+003,-2.167033e-002
3.386442e+003,-2.168763e-002
3.388370e+003,-2.153508e-002
3.390299e+003,-2.161034e-002
3.392227e+003,-2.178221e-002
3.394156e+003,-2.174594e-002
3.396084e+003,-2.176170e-002
3.398013e+003,-2.181870e-002
3.399941e+003,-2.185201e-002
3.401870e+003,-2.191962e-002
3.403798e+003,-2.198949e-002
3.405727e+003,-2.203822e-002
3.407655e+003,-2.203755e-002
3.409584e+003,-2.197251e-002
3.411512e+003,-2.204338e-002
3.413441e+003,-2.220542e-002
3.415369e+003,-2.221493e-002
3.417298e+003,-2.222251e-002
3.419226e+003,-2.236542e-002
3.421155e+003,-2.243902e-002
3.423083e+003,-2.234093e-002
3.425012e+003,-2.225557e-002
3.426940e+003,-2.239991e-002
3.428869e+003,-2.238732e-002
3.430797e+003,-2.228717e-002
3.432726e+003,-2.238549e-002
3.434654e+003,-2.254608e-002
3.436583e+003,-2.268951e-002
3.438511e+003,-2.264542e-002
3.440440e+003,-2.249468e-002
3.442368e+003,-2.238933e-002
3.444297e+003,-2.241429e-002
3.446225e+003,-2.243918e-002
3.448154e+003,-2.256423e-002
3.450082e+003,-2.262931e-002
3.452011e+003,-2.271121e-002
3.453939e+003,-2.278701e-002
3.455868e+003,-2.287020e-002
3.457796e+003,-2.275570e-002
3.459725e+003,-2.263780e-002
3.461653e+003,-2.265815e-002
3.463582e+003,-2.270963e-002
3.465510e+003,-2.285090e-002
3.467439e+003,-2.289981e-002
3.469367e+003,-2.291527e-002
3.471296e+003,-2.286542e-002
3.473224e+003,-2.286954e-002
3.475153e+003,-2.280308e-002
3.477081e+003,-2.277400e-002
3.479010e+003,-2.282716e-002
3.480938e+003,-2.281531e-002
3.482867e+003,-2.276821e-002
3.484795e+003,-2.277931e-002
3.486724e+003,-2.284700e-002
3.488652e+003,-2.281764e-002
3.490581e+003,-2.295676e-002
3.492509e+003,-2.304456e-002
3.494438e+003,-2.286291e-002
3.496366e+003,-2.267133e-002
3.498295e+003,-2.280421e-002
3.500223e+003,-2.302319e-002
3.502152e+003,-2.307315e-002
3.504080e+003,-2.310231e-002
3.506009e+003,-2.295927e-002
3.507937e+003,-2.268875e-002
3.509866e+003,-2.262104e-002
3.511794e+003,-2.273127e-002
3.513723e+003,-2.294469e-002
3.515651e+003,-2.302011e-002
3.517580e+003,-2.291351e-002
3.519508e+003,-2.297471e-002
3.521437e+003,-2.283895e-002
3.523365e+003,-2.285973e-002
3.525294e+003,-2.295245e-002
3.527222e+003,-2.290575e-002
3.529151e+003,-2.278871e-002
3.531079e+003,-2.283248e-002
3.533008e+003,-2.295271e-002
3.534936e+003,-2.293297e-002
3.536865e+003,-2.289091e-002
3.538793e+003,-2.277478e-002
3.540722e+003,-2.271058e-002
3.542650e+003,-2.274325e-002
3.544579e+003,-2.286674e-002
3.546507e+003,-2.294057e-002
3.548436e+003,-2.291398e-002
3.550364e+003,-2.294557e-002
3.552293e+003,-2.301703e-002
3.554221e+003,-2.312713e-002
3.556150e+003,-2.310121e-002
3.558078e+003,-2.288447e-002
3.560007e+003,-2.279094e-002
3.561935e+003,-2.278692e-002
3.563864e+003,-2.300302e-002
3.565792e+003,-2.296688e-002
3.567721e+003,-2.272724e-002
3.569649e+003,-2.277478e-002
3.571578e+003,-2.298335e-002
3.573506e+003,-2.299504e-002
3.575435e+003,-2.275529e-002
3.577363e+003,-2.272325e-002
3.579292e+003,-2.283703e-002
3.581220e+003,-2.308148e-002
3.583149e+003,-2.337085e-002
3.585077e+003,-2.329288e-002
3.587006e+003,-2.308670e-002
3.588934e+003,-2.292696e-002
3.590863e+003,-2.284147e-002
3.592791e+003,-2.295283e-002
3.594720e+003,-2.303249e-002
3.596648e+003,-2.297313e-002
3.598577e+003,-2.284332e-002
3.600505e+003,-2.267608e-002
3.602434e+003,-2.264954e-002
3.604362e+003,-2.276724e-002
3.606291e+003,-2.294303e-002
3.608219e+003,-2.293649e-002
3.610148e+003,-2.287259e-002
3.612076e+003,-2.281371e-002
3.614005e+003,-2.270054e-002
3.615933e+003,-2.285068e-002
3.617862e+003,-2.264809e-002
3.619790e+003,-2.233155e-002
3.621719e+003,-2.259613e-002
3.623647e+003,-2.306910e-002
3.625576e+003,-2.320833e-002
3.627504e+003,-2.298526e-002
3.629433e+003,-2.240632e-002
3.631361e+003,-2.257314e-002
3.633290e+003,-2.279434e-002
3.635218e+003,-2.284602e-002
3.637146e+003,-2.297134e-002
3.639075e+003,-2.300883e-002
3.641004e+003,-2.290864e-002
3.642932e+003,-2.293228e-002
3.644861e+003,-2.326116e-002
3.646789e+003,-2.346767e-002
3.648718e+003,-2.320104e-002
3.650646e+003,-2.274290e-002
3.652574e+003,-2.284936e-002
3.654503e+003,-2.311117e-002
3.656432e+003,-2.290829e-002
3.658360e+003,-2.306674e-002
3.660289e+003,-2.340102e-002
3.662217e+003,-2.356296e-002
3.664146e+003,-2.346315e-002
3.666074e+003,-2.359036e-002
3.668002e+003,-2.373614e-002
3.669931e+003,-2.348286e-002
3.671860e+003,-2.351692e-002
3.673788e+003,-2.386320e-002
3.675717e+003,-2.328572e-002
3.677645e+003,-2.307196e-002
3.679573e+003,-2.336397e-002
3.681502e+003,-2.338881e-002
3.683430e+003,-2.340494e-002
3.685359e+003,-2.354642e-002
3.687288e+003,-2.333665e-002
3.689216e+003,-2.282833e-002
3.691145e+003,-2.280890e-002
3.693073e+003,-2.302753e-002
3.695001e+003,-2.342268e-002
3.696930e+003,-2.359199e-002
3.698858e+003,-2.356393e-002
3.700787e+003,-2.323581e-002
3.702716e+003,-2.311073e-002
3.704644e+003,-2.330632e-002
3.706573e+003,-2.341901e-002
3.708501e+003,-2.340262e-002
3.710429e+003,-2.314001e-002
3.712358e+003,-2.295362e-002
3.714286e+003,-2.304264e-002
3.716215e+003,-2.333546e-002
3.718144e+003,-2.342695e-002
3.720072e+003,-2.334102e-002
3.722000e+003,-2.329140e-002
3.723929e+003,-2.338799e-002
3.725857e+003,-2.318782e-002
3.727786e+003,-2.298819e-002
3.729714e+003,-2.347856e-002
3.731643e+003,-2.376886e-002
3.733572e+003,-2.365789e-002
3.735500e+003,-2.311318e-002
3.737428e+003,-2.305408e-002
3.739357e+003,-2.349846e-002
3.741285e+003,-2.358527e-002
3.743214e+003,-2.336023e-002
3.745142e+003,-2.267080e-002
3.747071e+003,-2.328697e-002
3.749000e+003,-2.319222e-002
3.750928e+003,-2.268262e-002
3.752856e+003,-2.260192e-002
3.754785e+003,-2.291512e-002
3.756713e+003,-2.291141e-002
3.758642e+003,-2.293193e-002
3.760570e+003,-2.303872e-002
3.762499e+003,-2.311384e-002
3.764427e+003,-2.313800e-002
3.766356e+003,-2.307441e-002
3.768284e+003,-2.302825e-002
3.770213e+003,-2.300563e-002
3.772141e+003,-2.313794e-002
3.774070e+003,-2.314337e-002
3.775998e+003,-2.316212e-002
3.777927e+003,-2.316750e-002
3.779855e+003,-2.321298e-002
3.781784e+003,-2.322360e-002
3.783712e+003,-2.303824e-002
3.785641e+003,-2.302345e-002
3.787569e+003,-2.319611e-002
3.789498e+003,-2.314171e-002
3.791426e+003,-2.313812e-002
3.793355e+003,-2.324637e-002
3.795283e+003,-2.313592e-002
3.797212e+003,-2.314877e-002
3.799140e+003,-2.343599e-002
3.801069e+003,-2.318735e-002
3.802997e+003,-2.305022e-002
3.804926e+003,-2.346349e-002
3.806854e+003,-2.324960e-002
3.808783e+003,-2.326637e-002
3.810711e+003,-2.338560e-002
3.812640e+003,-2.349862e-002
3.814568e+003,-2.343050e-002
3.816497e+003,-2.295720e-002
3.818425e+003,-2.303652e-002
3.820354e+003,-2.276001e-002
3.822282e+003,-2.280600e-002
3.824211e+003,-2.329395e-002
3.826139e+003,-2.335474e-002
3.828068e+003,-2.319756e-002
3.829996e+003,-2.300962e-002
3.831925e+003,-2.283178e-002
3.833853e+003,-2.300748e-002
3.835782e+003,-2.322460e-002
3.837710e+003,-2.289091e-002
3.839639e+003,-2.287639e-002
3.841567e+003,-2.301889e-002
3.843496e+003,-2.318760e-002
3.845424e+003,-2.320723e-002
3.847353e+003,-2.331869e-002
3.849281e+003,-2.354316e-002
3.851210e+003,-2.352668e-002
3.853138e+003,-2.281767e-002
3.855067e+003,-2.249364e-002
3.856995e+003,-2.291710e-002
3.858924e+003,-2.318506e-002
3.860852e+003,-2.330560e-002
3.862781e+003,-2.328688e-002
3.864709e+003,-2.307648e-002
3.866638e+003,-2.328694e-002
3.868566e+003,-2.336695e-002
3.870495e+003,-2.283015e-002
3.872423e+003,-2.317928e-002
3.874352e+003,-2.316178e-002
3.876280e+003,-2.316332e-002
3.878209e+003,-2.337584e-002
3.880137e+003,-2.326238e-002
3.882066e+003,-2.327338e-002
3.883994e+003,-2.347253e-002
3.885923e+003,-2.321411e-002
3.887851e+003,-2.347815e-002
3.889780e+003,-2.361951e-002
3.891708e+003,-2.341326e-002
3.893637e+003,-2.350690e-002
3.895565e+003,-2.353619e-002
3.897494e+003,-2.341621e-002
3.899422e+003,-2.309087e-002
3.901351e+003,-2.308968e-002
3.903279e+003,-2.304682e-002
3.905208e+003,-2.297822e-002
3.907136e+003,-2.317013e-002
3.909065e+003,-2.330274e-002
3.910993e+003,-2.341725e-002
3.912922e+003,-2.344362e-002
3.914850e+003,-2.345919e-002
3.916779e+003,-2.338403e-002
3.918707e+003,-2.331197e-002
3.920636e+003,-2.343898e-002
3.922564e+003,-2.375643e-002
3.924493e+003,-2.361220e-002
3.926421e+003,-2.354598e-002
3.928350e+003,-2.363103e-002
3.930278e+003,-2.357737e-002
3.932207e+003,-2.341474e-002
3.934135e+003,-2.310646e-002
3.936064e+003,-2.301062e-002
3.937992e+003,-2.320924e-002
3.939921e+003,-2.348509e-002
3.941849e+003,-2.346713e-002
3.943778e+003,-2.332202e-002
3.945706e+003,-2.346355e-002
3.947635e+003,-2.345731e-002
3.949563e+003,-2.338658e-002
3.951492e+003,-2.345483e-002
3.953420e+003,-2.351161e-002
3.955349e+003,-2.359532e-002
3.957277e+003,-2.366567e-002
3.959206e+003,-2.360323e-002
3.961134e+003,-2.347253e-002
3.963063e+003,-2.346782e-002
3.964991e+003,-2.359469e-002
3.966920e+003,-2.354981e-002
3.968848e+003,-2.351547e-002
3.970777e+003,-2.356889e-002
3.972705e+003,-2.367157e-002
3.974634e+003,-2.377143e-002
3.976562e+003,-2.363627e-002
3.978491e+003,-2.357777e-002
3.980419e+003,-2.362808e-002
3.982348e+003,-2.365666e-002
3.984276e+003,-2.346582e-002
3.986205e+003,-2.346845e-002
3.988133e+003,-2.345203e-002
3.990062e+003,-2.345119e-002
3.991990e+003,-2.349620e-002
3.993919e+003,-2.349469e-002
3.995847e+003,-2.356444e-002
3.997776e+003,-2.363332e-002
3.999704e+003,-2.358929e-002
4.001633e+003,0.000000e+000
