3.991989e+002,2.250805e-002
4.011274e+002,2.237354e-002
4.030559e+002,1.779249e-002
4.049844e+002,1.925208e-002
4.069129e+002,1.990945e-002
4.088414e+002,1.916162e-002
4.107699e+002,1.880942e-002
4.126984e+002,1.437793e-002
4.146269e+002,9.151343e-003
4.165554e+002,9.088202e-003
4.184839e+002,1.521500e-002
4.204124e+002,1.865399e-002
4.223409e+002,1.923300e-002
4.242694e+002,1.918191e-002
4.261979e+002,1.698034e-002
4.281264e+002,1.184918e-002
4.300549e+002,8.637859e-003
4.319834e+002,7.172247e-003
4.339119e+002,9.517202e-003
4.358404e+002,1.637260e-002
4.377689e+002,1.680651e-002
4.396974e+002,1.332259e-002
4.416259e+002,1.032442e-002
4.435544e+002,1.226711e-002
4.454829e+002,1.664560e-002
4.474114e+002,1.915508e-002
4.493399e+002,1.584714e-002
4.512684e+002,1.041560e-002
4.531969e+002,1.113035e-002
4.551254e+002,1.518021e-002
4.570539e+002,1.279211e-002
4.589824e+002,8.342618e-003
4.609109e+002,8.707931e-003
4.628394e+002,1.110513e-002
4.647679e+002,1.173713e-002
4.666964e+002,1.049289e-002
4.686249e+002,8.324177e-003
4.705533e+002,9.613601e-003
4.724819e+002,1.350357e-002
4.744103e+002,1.510154e-002
4.763389e+002,1.463776e-002
4.782673e+002,1.223756e-002
4.801959e+002,1.025541e-002
4.821243e+002,1.244295e-002
4.840529e+002,1.417026e-002
4.859813e+002,1.273509e-002
4.879099e+002,1.154705e-002
4.898383e+002,1.163117e-002
4.917668e+002,1.043553e-002
4.936953e+002,1.115038e-002
4.956238e+002,1.257182e-002
4.975523e+002,1.193581e-002
4.994808e+002,1.268060e-002
5.014093e+002,1.326137e-002
5.033378e+002,1.069796e-002
5.052663e+002,7.417987e-003
5.071948e+002,8.266728e-003
5.091233e+002,9.590194e-003
5.110518e+002,9.195912e-003
5.129803e+002,8.772098e-003
5.149088e+002,8.453622e-003
5.168373e+002,8.428250e-003
5.187658e+002,8.524612e-003
5.206943e+002,9.184676e-003
5.226228e+002,8.990263e-003
5.245513e+002,9.147113e-003
5.264798e+002,9.715613e-003
5.284083e+002,9.563638e-003
5.303368e+002,9.128367e-003
5.322653e+002,9.098522e-003
5.341938e+002,8.563473e-003
5.361223e+002,7.712533e-003
5.380508e+002,7.953854e-003
5.399792e+002,9.722390e-003
5.419078e+002,9.512833e-003
5.438363e+002,9.405655e-003
5.457648e+002,1.027078e-002
5.476932e+002,1.026247e-002
5.496218e+002,9.590127e-003
5.515503e+002,8.819807e-003
5.534788e+002,8.551747e-003
5.554072e+002,1.053478e-002
5.573358e+002,1.165258e-002
5.592643e+002,1.131386e-002
5.611927e+002,9.726626e-003
5.631212e+002,9.573020e-003
5.650497e+002,1.078457e-002
5.669783e+002,1.183736e-002
5.689067e+002,1.218375e-002
5.708352e+002,1.222574e-002
5.727637e+002,1.100527e-002
5.746923e+002,9.243837e-003
5.766207e+002,9.796501e-003
5.785492e+002,1.152759e-002
5.804777e+002,8.648506e-003
5.824063e+002,5.124942e-003
5.843347e+002,8.574760e-003
5.862632e+002,1.211077e-002
5.881917e+002,1.202066e-002
5.901202e+002,1.048817e-002
5.920487e+002,9.505213e-003
5.939772e+002,9.547549e-003
5.959057e+002,1.123796e-002
5.978342e+002,1.419508e-002
5.997627e+002,1.586879e-002
6.016912e+002,1.647707e-002
6.036197e+002,1.737151e-002
6.055482e+002,1.908704e-002
6.074767e+002,2.060533e-002
6.094052e+002,2.198362e-002
6.113337e+002,2.341609e-002
6.132622e+002,2.204361e-002
6.151907e+002,2.052519e-002
6.171192e+002,2.054172e-002
6.190477e+002,2.002064e-002
6.209762e+002,1.981195e-002
6.229047e+002,1.771506e-002
6.248332e+002,1.426698e-002
6.267617e+002,1.124428e-002
6.286902e+002,8.868130e-003
6.306187e+002,8.133591e-003
6.325472e+002,7.802392e-003
6.344756e+002,7.610518e-003
6.364042e+002,7.130142e-003
6.383326e+002,6.873052e-003
6.402612e+002,6.823268e-003
6.421896e+002,7.156583e-003
6.441182e+002,6.441846e-003
6.460466e+002,6.119530e-003
6.479752e+002,6.255446e-003
6.499036e+002,5.677087e-003
6.518322e+002,5.194920e-003
6.537606e+002,5.285837e-003
6.556891e+002,5.323000e-003
6.576177e+002,5.142344e-003
6.595461e+002,4.795829e-003
6.614746e+002,3.850127e-003
6.634031e+002,3.593468e-003
6.653317e+002,4.811508e-003
6.672601e+002,9.482759e-003
6.691886e+002,9.021655e-003
6.711171e+002,5.672454e-003
6.730457e+002,4.878754e-003
6.749741e+002,4.899228e-003
6.769026e+002,5.070263e-003
6.788311e+002,5.264238e-003
6.807596e+002,5.420989e-003
6.826881e+002,5.562427e-003
6.846166e+002,5.930010e-003
6.865451e+002,5.990643e-003
6.884736e+002,5.618880e-003
6.904021e+002,5.328636e-003
6.923306e+002,5.557493e-003
6.942591e+002,5.802287e-003
6.961876e+002,5.853197e-003
6.981161e+002,5.817701e-003
7.000446e+002,5.697330e-003
7.019731e+002,5.500242e-003
7.039016e+002,5.791441e-003
7.058301e+002,5.923393e-003
7.077585e+002,5.931756e-003
7.096871e+002,6.015638e-003
7.116156e+002,6.669004e-003
7.135441e+002,7.113133e-003
7.154725e+002,7.087468e-003
7.174011e+002,7.092251e-003
7.193296e+002,7.486784e-003
7.212581e+002,7.858429e-003
7.231865e+002,8.106111e-003
7.251151e+002,8.519340e-003
7.270436e+002,8.983971e-003
7.289720e+002,9.250335e-003
7.309005e+002,9.411851e-003
7.328290e+002,9.264213e-003
7.347576e+002,9.064147e-003
7.366860e+002,9.149279e-003
7.386145e+002,9.083161e-003
7.405430e+002,9.483810e-003
7.424716e+002,9.803211e-003
7.444000e+002,9.596224e-003
7.463285e+002,9.398273e-003
7.482570e+002,9.304630e-003
7.501855e+002,9.408837e-003
7.521140e+002,1.002969e-002
7.540425e+002,1.030657e-002
7.559710e+002,9.994734e-003
7.578995e+002,1.018821e-002
7.598280e+002,1.035727e-002
7.617565e+002,1.068251e-002
7.636850e+002,1.096014e-002
7.656135e+002,1.119600e-002
7.675420e+002,1.159609e-002
7.694705e+002,1.124853e-002
7.713990e+002,1.069823e-002
7.733275e+002,1.078053e-002
7.752560e+002,1.086542e-002
7.771844e+002,1.072391e-002
7.791130e+002,1.019231e-002
7.810415e+002,9.660759e-003
7.829700e+002,9.278734e-003
7.848984e+002,9.093346e-003
7.868270e+002,9.157366e-003
7.887555e+002,9.268275e-003
7.906840e+002,8.997096e-003
7.926124e+002,8.537926e-003
7.945410e+002,7.945282e-003
7.964695e+002,7.532127e-003
7.983979e+002,7.278337e-003
8.003264e+002,7.146377e-003
8.022549e+002,7.649028e-003
8.041835e+002,8.352819e-003
8.061119e+002,8.151316e-003
8.080404e+002,7.903372e-003
8.099689e+002,8.276827e-003
8.118975e+002,8.796577e-003
8.138259e+002,9.229012e-003
8.157545e+002,9.092466e-003
8.176830e+002,9.308286e-003
8.196115e+002,9.382157e-003
8.215399e+002,9.048855e-003
8.234684e+002,8.544954e-003
8.253970e+002,8.564250e-003
8.273254e+002,8.816223e-003
8.292539e+002,8.395550e-003
8.311824e+002,8.071037e-003
8.331110e+002,8.183931e-003
8.350394e+002,7.937015e-003
8.369679e+002,8.008628e-003
8.388964e+002,8.332384e-003
8.408250e+002,8.450110e-003
8.427534e+002,8.131430e-003
8.446819e+002,7.596423e-003
8.466104e+002,7.785930e-003
8.485389e+002,8.126299e-003
8.504674e+002,8.074447e-003
8.523959e+002,7.818619e-003
8.543244e+002,8.074515e-003
8.562529e+002,8.238396e-003
8.581814e+002,7.778813e-003
8.601099e+002,7.654457e-003
8.620384e+002,7.613553e-003
8.639669e+002,7.676546e-003
8.658954e+002,7.866021e-003
8.678239e+002,7.558559e-003
8.697524e+002,7.726091e-003
8.716809e+002,8.083730e-003
8.736094e+002,7.849657e-003
8.755378e+002,7.631054e-003
8.774664e+002,7.944540e-003
8.793949e+002,7.880259e-003
8.813234e+002,7.629537e-003
8.832518e+002,7.701942e-003
8.851804e+002,7.622657e-003
8.871089e+002,7.508595e-003
8.890374e+002,7.511292e-003
8.909658e+002,7.701031e-003
8.928943e+002,7.948184e-003
8.948229e+002,7.792441e-003
8.967513e+002,7.724573e-003
8.986798e+002,7.908872e-003
9.006083e+002,7.847127e-003
9.025369e+002,7.905059e-003
9.044653e+002,8.036676e-003
9.063938e+002,7.872735e-003
9.083223e+002,7.585532e-003
9.102509e+002,7.075310e-003
9.121793e+002,7.042577e-003
9.141078e+002,6.938261e-003
9.160364e+002,6.841175e-003
9.179648e+002,6.795703e-003
9.198933e+002,6.505948e-003
9.218218e+002,6.160798e-003
9.237504e+002,6.039727e-003
9.256788e+002,5.874758e-003
9.276073e+002,5.630494e-003
9.295358e+002,5.318573e-003
9.314644e+002,5.003222e-003
9.333928e+002,5.044853e-003
9.353213e+002,5.193143e-003
9.372498e+002,5.109520e-003
9.391783e+002,4.840388e-003
9.411068e+002,4.878486e-003
9.430353e+002,5.260716e-003
9.449637e+002,5.411461e-003
9.468923e+002,5.325751e-003
9.488208e+002,5.136208e-003
9.507493e+002,5.298917e-003
9.526777e+002,5.674636e-003
9.546063e+002,5.815753e-003
9.565348e+002,5.768037e-003
9.584633e+002,5.611966e-003
9.603917e+002,5.536619e-003
9.623203e+002,5.599916e-003
9.642488e+002,5.634791e-003
9.661772e+002,5.726773e-003
9.681057e+002,5.688400e-003
9.700343e+002,5.297106e-003
9.719628e+002,5.208534e-003
9.738912e+002,5.269201e-003
9.758197e+002,5.188314e-003
9.777483e+002,5.169805e-003
9.796768e+002,4.900032e-003
9.816052e+002,4.461105e-003
9.835337e+002,4.293958e-003
9.854623e+002,4.143734e-003
9.873907e+002,3.928893e-003
9.893192e+002,3.877741e-003
9.912477e+002,3.613079e-003
9.931763e+002,3.527356e-003
9.951047e+002,3.456912e-003
9.970332e+002,3.374525e-003
9.989617e+002,3.413429e-003
1.000890e+003,3.367913e-003
1.002819e+003,3.393759e-003
1.004747e+003,3.417637e-003
1.006676e+003,3.411625e-003
1.008604e+003,3.410290e-003
1.010533e+003,3.462757e-003
1.012461e+003,3.581040e-003
1.014390e+003,3.820176e-003
1.016318e+003,4.085699e-003
1.018247e+003,4.177689e-003
1.020175e+003,4.364437e-003
1.022104e+003,4.659062e-003
1.024032e+003,4.928047e-003
1.025961e+003,5.408475e-003
1.027889e+003,5.672958e-003
1.029818e+003,5.671984e-003
1.031746e+003,5.951507e-003
1.033675e+003,6.495388e-003
1.035603e+003,6.849657e-003
1.037532e+003,7.169283e-003
1.039460e+003,7.608461e-003
1.041389e+003,7.808768e-003
1.043317e+003,7.991415e-003
1.045246e+003,8.163740e-003
1.047174e+003,8.231743e-003
1.049103e+003,8.296887e-003
1.051031e+003,8.211112e-003
1.052960e+003,8.272943e-003
1.054888e+003,8.326372e-003
1.056817e+003,8.439839e-003
1.058745e+003,8.425109e-003
1.060674e+003,8.440075e-003
1.062602e+003,8.459941e-003
1.064531e+003,8.311477e-003
1.066459e+003,8.275712e-003
1.068388e+003,8.265615e-003
1.070316e+003,8.357379e-003
1.072245e+003,8.571854e-003
1.074173e+003,8.631065e-003
1.076102e+003,8.377410e-003
1.078030e+003,8.327622e-003
1.079959e+003,8.216211e-003
1.081887e+003,8.272436e-003
1.083816e+003,8.700427e-003
1.085744e+003,8.756851e-003
1.087673e+003,8.661553e-003
1.089601e+003,8.788902e-003
1.091530e+003,9.027880e-003
1.093458e+003,9.236052e-003
1.095387e+003,9.395497e-003
1.097315e+003,9.404368e-003
1.099244e+003,9.541486e-003
1.101172e+003,9.751972e-003
1.103101e+003,9.631183e-003
1.105029e+003,9.471551e-003
1.106958e+003,9.429492e-003
1.108886e+003,9.658388e-003
1.110815e+003,9.715240e-003
1.112743e+003,9.539318e-003
1.114672e+003,9.521605e-003
1.116600e+003,9.843916e-003
1.118529e+003,1.013187e-002
1.120457e+003,9.976731e-003
1.122386e+003,9.915031e-003
1.124314e+003,9.846390e-003
1.126243e+003,9.706973e-003
1.128171e+003,9.595817e-003
1.130100e+003,9.599510e-003
1.132028e+003,9.400440e-003
1.133957e+003,9.181834e-003
1.135885e+003,9.094496e-003
1.137814e+003,8.712191e-003
1.139742e+003,8.026651e-003
1.141671e+003,7.717727e-003
1.143599e+003,7.548748e-003
1.145528e+003,7.192897e-003
1.147456e+003,6.795804e-003
1.149385e+003,6.603936e-003
1.151313e+003,6.400485e-003
1.153242e+003,6.115027e-003
1.155170e+003,6.020979e-003
1.157099e+003,5.897362e-003
1.159027e+003,5.773880e-003
1.160956e+003,5.528229e-003
1.162884e+003,5.447663e-003
1.164813e+003,5.307034e-003
1.166741e+003,5.236033e-003
1.168670e+003,5.238414e-003
1.170598e+003,5.238750e-003
1.172526e+003,5.271817e-003
1.174455e+003,5.103385e-003
1.176384e+003,5.068017e-003
1.178312e+003,5.088265e-003
1.180240e+003,4.988106e-003
1.182169e+003,4.856404e-003
1.184098e+003,4.788023e-003
1.186026e+003,4.686727e-003
1.187954e+003,4.652363e-003
1.189883e+003,4.609933e-003
1.191812e+003,4.420668e-003
1.193740e+003,4.211044e-003
1.195668e+003,3.813825e-003
1.197597e+003,3.464861e-003
1.199526e+003,3.430895e-003
1.201454e+003,3.471908e-003
1.203382e+003,3.501769e-003
1.205311e+003,3.339330e-003
1.207240e+003,3.320432e-003
1.209168e+003,3.264410e-003
1.211096e+003,3.126089e-003
1.213025e+003,3.219578e-003
1.214953e+003,3.338329e-003
1.216882e+003,3.207895e-003
1.218810e+003,3.139906e-003
1.220739e+003,3.163135e-003
1.222667e+003,3.314690e-003
1.224596e+003,3.510787e-003
1.226524e+003,3.633928e-003
1.228453e+003,3.855810e-003
1.230381e+003,3.872793e-003
1.232310e+003,3.975337e-003
1.234238e+003,4.125101e-003
1.236167e+003,4.184647e-003
1.238095e+003,4.352924e-003
1.240024e+003,4.537003e-003
1.241952e+003,4.603737e-003
1.243881e+003,4.448151e-003
1.245809e+003,4.345260e-003
1.247738e+003,4.395363e-003
1.249666e+003,4.665425e-003
1.251595e+003,4.671554e-003
1.253523e+003,4.640809e-003
1.255452e+003,4.729835e-003
1.257380e+003,4.649851e-003
1.259309e+003,4.681803e-003
1.261237e+003,4.907907e-003
1.263166e+003,4.969873e-003
1.265094e+003,5.180300e-003
1.267023e+003,5.615658e-003
1.268951e+003,5.844163e-003
1.270880e+003,6.060424e-003
1.272808e+003,6.112507e-003
1.274737e+003,6.256388e-003
1.276665e+003,6.551054e-003
1.278594e+003,6.748249e-003
1.280522e+003,6.856928e-003
1.282451e+003,6.987520e-003
1.284379e+003,7.224598e-003
1.286308e+003,7.485773e-003
1.288236e+003,7.804316e-003
1.290165e+003,8.135380e-003
1.292093e+003,8.331270e-003
1.294022e+003,8.466563e-003
1.295950e+003,8.631607e-003
1.297879e+003,8.786637e-003
1.299807e+003,8.836207e-003
1.301736e+003,8.834923e-003
1.303664e+003,8.686195e-003
1.305593e+003,8.384706e-003
1.307521e+003,8.273618e-003
1.309450e+003,8.116846e-003
1.311378e+003,7.837445e-003
1.313307e+003,7.603538e-003
1.315235e+003,7.417010e-003
1.317164e+003,7.327027e-003
1.319092e+003,7.060021e-003
1.321021e+003,6.740543e-003
1.322949e+003,6.604878e-003
1.324878e+003,6.562861e-003
1.326806e+003,6.392751e-003
1.328735e+003,6.332364e-003
1.330663e+003,6.427790e-003
1.332592e+003,6.618873e-003
1.334520e+003,6.662880e-003
1.336449e+003,6.630614e-003
1.338377e+003,6.680477e-003
1.340306e+003,6.750908e-003
1.342234e+003,6.861775e-003
1.344163e+003,6.924963e-003
1.346091e+003,7.011932e-003
1.348020e+003,7.217051e-003
1.349948e+003,7.277191e-003
1.351877e+003,7.150588e-003
1.353805e+003,7.122159e-003
1.355734e+003,7.099694e-003
1.357662e+003,6.894361e-003
1.359591e+003,6.747206e-003
1.361519e+003,6.624626e-003
1.363448e+003,6.377149e-003
1.365376e+003,6.001091e-003
1.367305e+003,5.804940e-003
1.369233e+003,5.727814e-003
1.371162e+003,5.695484e-003
1.373090e+003,5.780562e-003
1.375019e+003,5.731474e-003
1.376947e+003,5.747455e-003
1.378876e+003,5.795336e-003
1.380804e+003,5.778211e-003
1.382733e+003,5.886178e-003
1.384661e+003,5.928263e-003
1.386590e+003,5.970621e-003
1.388518e+003,5.779286e-003
1.390447e+003,5.450414e-003
1.392375e+003,5.367010e-003
1.394304e+003,5.386367e-003
1.396232e+003,5.124339e-003
1.398161e+003,4.981268e-003
1.400089e+003,4.924193e-003
1.402018e+003,4.733888e-003
1.403946e+003,4.542293e-003
1.405875e+003,4.339872e-003
1.407803e+003,4.055832e-003
1.409732e+003,3.920936e-003
1.411660e+003,3.905021e-003
1.413589e+003,3.912544e-003
1.415517e+003,4.029009e-003
1.417446e+003,4.443397e-003
1.419374e+003,4.967929e-003
1.421303e+003,5.132285e-003
1.423231e+003,5.602131e-003
1.425160e+003,6.227749e-003
1.427088e+003,6.546143e-003
1.429017e+003,6.786716e-003
1.430945e+003,7.124247e-003
1.432874e+003,7.626165e-003
1.434802e+003,8.207769e-003
1.436731e+003,8.569117e-003
1.438659e+003,8.686871e-003
1.440588e+003,9.093346e-003
1.442516e+003,9.596766e-003
1.444445e+003,9.901166e-003
1.446373e+003,1.033589e-002
1.448302e+003,1.071620e-002
1.450230e+003,1.093350e-002
1.452159e+003,1.128679e-002
1.454087e+003,1.181761e-002
1.456016e+003,1.250054e-002
1.457944e+003,1.264495e-002
1.459873e+003,1.229319e-002
1.461801e+003,1.207220e-002
1.463730e+003,1.206596e-002
1.465658e+003,1.196939e-002
1.467587e+003,1.153344e-002
1.469515e+003,1.124088e-002
1.471444e+003,1.116955e-002
1.473372e+003,1.090490e-002
1.475301e+003,1.037264e-002
1.477229e+003,9.692031e-003
1.479158e+003,8.990634e-003
1.481086e+003,8.466563e-003
1.483015e+003,7.894565e-003
1.484943e+003,7.459885e-003
1.486872e+003,7.179018e-003
1.488800e+003,6.934221e-003
1.490729e+003,6.719982e-003
1.492657e+003,6.272389e-003
1.494586e+003,5.921545e-003
1.496514e+003,5.778917e-003
1.498443e+003,5.525779e-003
1.500371e+003,5.198910e-003
1.502300e+003,5.079381e-003
1.504228e+003,5.391902e-003
1.506157e+003,5.755178e-003
1.508085e+003,5.371170e-003
1.510014e+003,4.892191e-003
1.511942e+003,4.634580e-003
1.513871e+003,4.478279e-003
1.515799e+003,4.640073e-003
1.517728e+003,4.825479e-003
1.519656e+003,4.982106e-003
1.521585e+003,5.179093e-003
1.523513e+003,5.047602e-003
1.525442e+003,5.165881e-003
1.527370e+003,5.220104e-003
1.529299e+003,5.230131e-003
1.531227e+003,5.373888e-003
1.533156e+003,5.856052e-003
1.535084e+003,5.995548e-003
1.537013e+003,6.064120e-003
1.538941e+003,6.674118e-003
1.540870e+003,7.143750e-003
1.542798e+003,7.213144e-003
1.544727e+003,7.264724e-003
1.546655e+003,7.118084e-003
1.548584e+003,7.165510e-003
1.550512e+003,7.331374e-003
1.552441e+003,7.546084e-003
1.554369e+003,7.844327e-003
1.556298e+003,8.117893e-003
1.558226e+003,8.882740e-003
1.560155e+003,9.029368e-003
1.562083e+003,8.721251e-003
1.564012e+003,8.895556e-003
1.565940e+003,9.083060e-003
1.567869e+003,9.350095e-003
1.569797e+003,9.672414e-003
1.571726e+003,9.558455e-003
1.573654e+003,9.459325e-003
1.575583e+003,9.645344e-003
1.577511e+003,9.578406e-003
1.579440e+003,9.376842e-003
1.581368e+003,9.271896e-003
1.583297e+003,9.043915e-003
1.585225e+003,8.848719e-003
1.587154e+003,8.677339e-003
1.589082e+003,8.435717e-003
1.591010e+003,8.251430e-003
1.592939e+003,8.089401e-003
1.594868e+003,8.065974e-003
1.596796e+003,8.008088e-003
1.598724e+003,7.829752e-003
1.600653e+003,7.556840e-003
1.602582e+003,7.457727e-003
1.604510e+003,7.300239e-003
1.606438e+003,7.040286e-003
1.608367e+003,6.865983e-003
1.610296e+003,6.540425e-003
1.612224e+003,6.210506e-003
1.614152e+003,6.172258e-003
1.616081e+003,6.245059e-003
1.618010e+003,6.108944e-003
1.619938e+003,5.860955e-003
1.621866e+003,5.911838e-003
1.623795e+003,5.726807e-003
1.625724e+003,5.419111e-003
1.627652e+003,5.325717e-003
1.629580e+003,5.171347e-003
1.631509e+003,5.003792e-003
1.633438e+003,5.162528e-003
1.635366e+003,5.378617e-003
1.637294e+003,5.029333e-003
1.639223e+003,4.558365e-003
1.641151e+003,4.218739e-003
1.643080e+003,3.964537e-003
1.645008e+003,4.002323e-003
1.646937e+003,3.953803e-003
1.648865e+003,3.524617e-003
1.650794e+003,3.430060e-003
1.652722e+003,3.874097e-003
1.654651e+003,3.413395e-003
1.656579e+003,2.818795e-003
1.658508e+003,2.665613e-003
1.660436e+003,2.640110e-003
1.662365e+003,2.639110e-003
1.664293e+003,2.534881e-003
1.666222e+003,2.421514e-003
1.668150e+003,2.562311e-003
1.670079e+003,2.630910e-003
1.672007e+003,2.285692e-003
1.673936e+003,2.126305e-003
1.675864e+003,2.013810e-003
1.677793e+003,1.530537e-003
1.679721e+003,1.219586e-003
1.681650e+003,1.165694e-003
1.683578e+003,1.421455e-003
1.685507e+003,1.059825e-003
1.687435e+003,4.567278e-004
1.689364e+003,2.396584e-004
1.691292e+003,1.221824e-004
1.693221e+003,1.392516e-004
1.695149e+003,4.720521e-004
1.697078e+003,4.939117e-004
1.699006e+003,5.601938e-004
1.700935e+003,6.695916e-004
1.702863e+003,2.182756e-004
1.704792e+003,1.439250e-004
1.706720e+003,8.151738e-005
1.708649e+003,-1.262886e-004
1.710577e+003,-2.909188e-004
1.712506e+003,-1.942546e-004
1.714434e+003,6.063953e-005
1.716363e+003,3.274878e-004
1.718291e+003,3.166449e-004
1.720220e+003,-2.392212e-005
1.722148e+003,-2.192920e-004
1.724077e+003,-2.661835e-004
1.726005e+003,-3.310154e-004
1.727934e+003,-3.631960e-004
1.729862e+003,-3.417094e-004
1.731791e+003,-2.251868e-004
1.733719e+003,3.545357e-006
1.735648e+003,-2.176030e-004
1.737576e+003,-3.847477e-004
1.739505e+003,-3.186988e-004
1.741433e+003,-3.771666e-004
1.743362e+003,-2.862169e-004
1.745290e+003,-3.150567e-004
1.747219e+003,-2.424735e-004
1.749147e+003,-1.216843e-004
1.751076e+003,-2.458476e-005
1.753004e+003,-1.782577e-004
1.754933e+003,-2.428377e-004
1.756861e+003,-8.862451e-005
1.758790e+003,-1.287398e-004
1.760718e+003,-1.226780e-004
1.762647e+003,-1.465271e-004
1.764575e+003,-4.062652e-004
1.766504e+003,-3.932886e-004
1.768432e+003,-1.807417e-004
1.770361e+003,-1.233405e-004
1.772289e+003,-8.478173e-005
1.774218e+003,-1.843187e-004
1.776146e+003,-3.597529e-004
1.778075e+003,-4.850433e-004
1.780003e+003,-4.922915e-004
1.781932e+003,-5.087071e-004
1.783860e+003,-5.097992e-004
1.785789e+003,-3.408817e-004
1.787717e+003,-2.956207e-004
1.789646e+003,-3.703138e-004
1.791574e+003,-2.123042e-004
1.793503e+003,-2.250543e-004
1.795431e+003,-3.613089e-004
1.797360e+003,-2.590309e-004
1.799288e+003,-1.696794e-004
1.801217e+003,-2.125360e-004
1.803145e+003,-3.847145e-004
1.805074e+003,-3.793185e-004
1.807002e+003,-3.556476e-004
1.808931e+003,-4.066955e-004
1.810859e+003,-3.265126e-004
1.812788e+003,-2.519113e-004
1.814716e+003,-3.001569e-004
1.816645e+003,-2.973756e-004
1.818573e+003,-2.645941e-004
1.820502e+003,-2.840977e-004
1.822430e+003,-2.686671e-004
1.824359e+003,-1.675596e-004
1.826287e+003,-1.581862e-004
1.828216e+003,-2.209147e-004
1.830144e+003,-1.813047e-004
1.832073e+003,-4.188773e-004
1.834001e+003,-4.819322e-004
1.835930e+003,-4.596571e-004
1.837858e+003,-4.847785e-004
1.839787e+003,-4.453581e-004
1.841715e+003,-4.224192e-004
1.843644e+003,-2.215439e-004
1.845572e+003,-2.767798e-004
1.847501e+003,-5.028161e-004
1.849429e+003,-5.893196e-004
1.851358e+003,-4.714402e-004
1.853286e+003,-3.303201e-004
1.855215e+003,-3.342270e-004
1.857143e+003,-3.588259e-004
1.859072e+003,-4.389036e-004
1.861000e+003,-5.791612e-004
1.862929e+003,-5.805509e-004
1.864857e+003,-4.580022e-004
1.866786e+003,-4.039480e-004
1.868714e+003,-3.566740e-004
1.870643e+003,-4.305290e-004
1.872571e+003,-5.509676e-004
1.874500e+003,-4.632649e-004
1.876428e+003,-4.084831e-004
1.878357e+003,-4.456891e-004
1.880285e+003,-4.633311e-004
1.882214e+003,-4.693550e-004
1.884142e+003,-4.364872e-004
1.886071e+003,-3.976914e-004
1.887999e+003,-3.415439e-004
1.889928e+003,-3.675329e-004
1.891856e+003,-4.605839e-004
1.893785e+003,-3.602826e-004
1.895713e+003,-3.131694e-004
1.897642e+003,-4.260273e-004
1.899570e+003,-3.944141e-004
1.901499e+003,-3.256849e-004
1.903427e+003,-3.560449e-004
1.905356e+003,-4.145078e-004
1.907284e+003,-4.223199e-004
1.909213e+003,-4.151036e-004
1.911141e+003,-4.159312e-004
1.913070e+003,-4.617093e-004
1.914998e+003,-4.286754e-004
1.916927e+003,-2.934353e-004
1.918855e+003,-2.143243e-004
1.920784e+003,-2.523087e-004
1.922712e+003,-3.563098e-004
1.924641e+003,-4.573733e-004
1.926569e+003,-3.778618e-004
1.928498e+003,-3.896802e-004
1.930426e+003,-4.014983e-004
1.932355e+003,-4.506872e-004
1.934283e+003,-4.523422e-004
1.936212e+003,-3.885216e-004
1.938140e+003,-4.146402e-004
1.940069e+003,-4.516471e-004
1.941997e+003,-3.752796e-004
1.943926e+003,-2.911175e-004
1.945854e+003,-3.020774e-004
1.947783e+003,-3.610110e-004
1.949711e+003,-3.803116e-004
1.951640e+003,-4.251666e-004
1.953568e+003,-4.451595e-004
1.955497e+003,-4.553543e-004
1.957425e+003,-4.491315e-004
1.959354e+003,-4.202345e-004
1.961282e+003,-4.250011e-004
1.963211e+003,-4.513823e-004
1.965139e+003,-4.755112e-004
1.967068e+003,-4.726648e-004
1.968996e+003,-5.206543e-004
1.970925e+003,-5.011282e-004
1.972853e+003,-4.250011e-004
1.974782e+003,-3.578658e-004
1.976710e+003,-3.577665e-004
1.978639e+003,-4.448947e-004
1.980567e+003,-4.832230e-004
1.982496e+003,-4.771331e-004
1.984424e+003,-4.941449e-004
1.986353e+003,-4.912324e-004
1.988281e+003,-5.135720e-004
1.990210e+003,-5.469304e-004
1.992138e+003,-4.876249e-004
1.994067e+003,-4.403600e-004
1.995995e+003,-4.739226e-004
1.997924e+003,-5.879299e-004
1.999852e+003,-5.805509e-004
2.001781e+003,-4.919274e-004
2.003709e+003,-4.922915e-004
2.005638e+003,-5.285637e-004
2.007566e+003,-4.533352e-004
2.009495e+003,-4.123230e-004
2.011423e+003,-4.240081e-004
2.013352e+003,-3.561112e-004
2.015280e+003,-3.102226e-004
2.017208e+003,-3.427027e-004
2.019137e+003,-3.343263e-004
2.021066e+003,-3.201887e-004
2.022994e+003,-3.766369e-004
2.024922e+003,-3.999755e-004
2.026851e+003,-3.624014e-004
2.028780e+003,-3.574354e-004
2.030708e+003,-3.184339e-004
2.032636e+003,-2.027330e-004
2.034565e+003,-1.590143e-004
2.036494e+003,-2.325056e-004
2.038422e+003,-3.146594e-004
2.040350e+003,-3.443912e-004
2.042279e+003,-3.346905e-004
2.044208e+003,-3.592894e-004
2.046136e+003,-3.729953e-004
2.048064e+003,-3.305519e-004
2.049993e+003,-3.121761e-004
2.051921e+003,-3.639574e-004
2.053850e+003,-3.623021e-004
2.055778e+003,-3.680295e-004
2.057707e+003,-3.134674e-004
2.059635e+003,-2.523749e-004
2.061564e+003,-2.734354e-004
2.063492e+003,-4.008362e-004
2.065421e+003,-4.543613e-004
2.067349e+003,-3.363459e-004
2.069278e+003,-2.714486e-004
2.071206e+003,-2.074358e-004
2.073135e+003,-8.441733e-005
2.075063e+003,-5.549597e-005
2.076992e+003,-1.045584e-004
2.078920e+003,-1.879287e-004
2.080849e+003,-2.358503e-004
2.082777e+003,-2.422085e-004
2.084706e+003,-1.884587e-004
2.086634e+003,-2.076676e-004
2.088563e+003,-2.315121e-004
2.090491e+003,-1.650755e-004
2.092420e+003,-1.736539e-004
2.094348e+003,-1.179743e-004
2.096277e+003,-3.323217e-005
2.098205e+003,1.474490e-005
2.100134e+003,-1.388294e-005
2.102062e+003,-5.036345e-006
2.103991e+003,-5.678803e-005
2.105919e+003,-8.372165e-005
2.107848e+003,-7.355694e-006
2.109776e+003,9.343899e-006
2.111705e+003,-5.837825e-005
2.113633e+003,-1.812394e-005
2.115562e+003,8.055632e-005
2.117490e+003,9.000138e-005
2.119419e+003,1.047162e-004
2.121347e+003,6.302552e-005
2.123276e+003,4.645641e-005
2.125204e+003,1.274522e-004
2.127133e+003,1.415054e-004
2.129061e+003,1.844964e-004
2.130990e+003,2.121428e-004
2.132918e+003,1.393841e-004
2.134847e+003,1.614259e-004
2.136775e+003,2.301106e-004
2.138704e+003,2.073029e-004
2.140632e+003,1.676575e-004
2.142561e+003,1.800877e-004
2.144489e+003,1.213538e-004
2.146418e+003,1.045836e-004
2.148346e+003,1.614259e-004
2.150275e+003,2.025625e-004
2.152203e+003,2.833885e-004
2.154132e+003,3.173081e-004
2.156060e+003,3.148875e-004
2.157989e+003,4.003111e-004
2.159917e+003,3.901628e-004
2.161846e+003,3.484116e-004
2.163774e+003,3.800812e-004
2.165703e+003,4.418683e-004
2.167631e+003,4.422663e-004
2.169560e+003,4.595139e-004
2.171488e+003,4.189500e-004
2.173417e+003,3.877087e-004
2.175345e+003,4.431619e-004
2.177274e+003,5.595967e-004
2.179202e+003,5.208148e-004
2.181131e+003,4.775915e-004
2.183059e+003,4.190163e-004
2.184988e+003,3.676452e-004
2.186916e+003,4.107581e-004
2.188845e+003,4.540411e-004
2.190773e+003,4.195138e-004
2.192702e+003,3.205244e-004
2.194630e+003,3.004640e-004
2.196559e+003,3.633010e-004
2.198487e+003,3.917216e-004
2.200416e+003,3.068965e-004
2.202344e+003,2.452280e-004
2.204273e+003,2.675404e-004
2.206201e+003,2.704911e-004
2.208130e+003,2.379013e-004
2.210058e+003,1.931150e-004
2.211987e+003,1.906951e-004
2.213915e+003,2.249058e-004
2.215844e+003,2.716184e-004
2.217772e+003,2.504993e-004
2.219701e+003,2.827254e-004
2.221629e+003,2.597823e-004
2.223558e+003,2.154247e-004
2.225486e+003,2.343209e-004
2.227415e+003,2.279226e-004
2.229343e+003,2.107836e-004
2.231272e+003,2.076675e-004
2.233200e+003,2.292818e-004
2.235129e+003,2.443660e-004
2.237057e+003,1.784303e-004
2.238986e+003,1.897007e-004
2.240914e+003,2.628324e-004
2.242843e+003,2.830901e-004
2.244771e+003,2.467530e-004
2.246700e+003,2.675735e-004
2.248628e+003,2.576273e-004
2.250557e+003,1.092898e-004
2.252485e+003,8.927227e-005
2.254414e+003,1.832699e-004
2.256342e+003,2.176126e-004
2.258271e+003,2.179110e-004
2.260199e+003,2.521901e-004
2.262128e+003,3.205244e-004
2.264056e+003,3.636326e-004
2.265985e+003,3.528552e-004
2.267913e+003,2.570305e-004
2.269842e+003,1.689502e-004
2.271770e+003,1.826732e-004
2.273699e+003,1.270876e-004
2.275627e+003,6.872544e-005
2.277556e+003,1.243698e-004
2.279484e+003,1.616579e-004
2.281413e+003,2.079659e-004
2.283341e+003,1.927503e-004
2.285270e+003,1.318604e-004
2.287198e+003,1.444553e-004
2.289127e+003,2.969494e-004
2.291055e+003,3.548448e-004
2.292984e+003,3.877419e-004
2.294912e+003,4.236596e-004
2.296841e+003,5.368380e-004
2.298769e+003,7.542884e-004
2.300698e+003,9.178875e-004
2.302626e+003,1.121410e-003
2.304555e+003,1.249724e-003
2.306483e+003,1.476042e-003
2.308412e+003,1.726131e-003
2.310340e+003,2.022699e-003
2.312269e+003,2.502188e-003
2.314197e+003,2.988045e-003
2.316125e+003,3.552710e-003
2.318054e+003,4.176652e-003
2.319983e+003,4.777504e-003
2.321911e+003,5.408844e-003
2.323840e+003,6.088212e-003
2.325768e+003,6.537902e-003
2.327697e+003,6.997184e-003
2.329625e+003,7.622994e-003
2.331553e+003,7.904519e-003
2.333482e+003,8.035596e-003
2.335411e+003,8.190988e-003
2.337339e+003,8.384132e-003
2.339268e+003,8.503425e-003
2.341196e+003,8.312659e-003
2.343125e+003,7.739684e-003
2.345053e+003,6.553308e-003
2.346981e+003,4.677415e-003
2.348910e+003,3.592298e-003
2.350839e+003,4.794891e-003
2.352767e+003,7.186429e-003
2.354696e+003,9.100485e-003
2.356624e+003,1.030820e-002
2.358552e+003,1.099501e-002
2.360481e+003,1.120698e-002
2.362409e+003,1.117261e-002
2.364338e+003,1.091247e-002
2.366267e+003,1.021660e-002
2.368195e+003,9.268444e-003
2.370124e+003,8.157258e-003
2.372052e+003,6.746028e-003
2.373980e+003,5.341046e-003
2.375909e+003,3.956244e-003
2.377838e+003,2.725192e-003
2.379766e+003,1.774802e-003
2.381695e+003,1.113238e-003
2.383623e+003,8.197140e-004
2.385552e+003,6.582424e-004
2.387480e+003,5.520988e-004
2.389408e+003,6.018659e-004
2.391337e+003,5.244971e-004
2.393266e+003,4.139088e-004
2.395194e+003,5.004465e-004
2.397123e+003,6.152045e-004
2.399051e+003,6.667045e-004
2.400979e+003,6.923572e-004
2.402908e+003,6.268844e-004
2.404836e+003,5.729008e-004
2.406765e+003,5.318286e-004
2.408694e+003,5.253596e-004
2.410622e+003,6.110901e-004
2.412551e+003,6.297380e-004
2.414479e+003,6.921249e-004
2.416407e+003,7.896057e-004
2.418336e+003,8.320966e-004
2.420264e+003,7.811412e-004
2.422193e+003,6.460639e-004
2.424122e+003,6.666381e-004
2.426050e+003,7.541556e-004
2.427979e+003,8.001949e-004
2.429907e+003,8.314990e-004
2.431835e+003,8.974343e-004
2.433764e+003,9.586310e-004
2.435692e+003,9.446510e-004
2.437621e+003,9.126745e-004
2.439550e+003,8.984636e-004
2.441478e+003,9.531186e-004
2.443406e+003,9.920056e-004
2.445335e+003,1.003297e-003
2.447263e+003,1.012164e-003
2.449192e+003,1.079721e-003
2.451121e+003,1.107624e-003
2.453049e+003,1.094171e-003
2.454978e+003,1.167189e-003
2.456906e+003,1.261952e-003
2.458834e+003,1.258895e-003
2.460763e+003,1.254409e-003
2.462691e+003,1.198553e-003
2.464620e+003,1.175794e-003
2.466549e+003,1.251053e-003
2.468477e+003,1.284184e-003
2.470406e+003,1.253612e-003
2.472334e+003,1.209717e-003
2.474262e+003,1.235967e-003
2.476191e+003,1.283320e-003
2.478119e+003,1.328452e-003
2.480048e+003,1.366940e-003
2.481977e+003,1.382163e-003
2.483905e+003,1.357467e-003
2.485833e+003,1.297344e-003
2.487762e+003,1.298408e-003
2.489690e+003,1.296846e-003
2.491619e+003,1.347862e-003
2.493547e+003,1.388978e-003
2.495476e+003,1.476807e-003
2.497405e+003,1.539948e-003
2.499333e+003,1.438907e-003
2.501261e+003,1.425610e-003
2.503190e+003,1.455297e-003
2.505118e+003,1.513746e-003
2.507047e+003,1.545733e-003
2.508975e+003,1.544403e-003
2.510904e+003,1.487114e-003
2.512833e+003,1.516240e-003
2.514761e+003,1.566683e-003
2.516689e+003,1.562626e-003
2.518618e+003,1.579918e-003
2.520546e+003,1.627076e-003
2.522475e+003,1.607387e-003
2.524403e+003,1.552550e-003
2.526332e+003,1.563357e-003
2.528260e+003,1.602399e-003
2.530189e+003,1.630867e-003
2.532117e+003,1.663961e-003
2.534046e+003,1.606323e-003
2.535974e+003,1.569742e-003
2.537903e+003,1.520130e-003
2.539831e+003,1.633927e-003
2.541760e+003,1.692001e-003
2.543688e+003,1.728027e-003
2.545617e+003,1.774735e-003
2.547545e+003,1.755173e-003
2.549474e+003,1.721407e-003
2.551402e+003,1.606689e-003
2.553331e+003,1.509324e-003
2.555259e+003,1.558236e-003
2.557188e+003,1.700018e-003
2.559116e+003,1.736011e-003
2.561045e+003,1.772839e-003
2.562973e+003,1.757435e-003
2.564902e+003,1.795995e-003
2.566830e+003,1.872792e-003
2.568759e+003,1.762459e-003
2.570687e+003,1.783186e-003
2.572616e+003,1.954229e-003
2.574544e+003,2.013311e-003
2.576473e+003,1.979292e-003
2.578401e+003,1.886270e-003
2.580330e+003,1.822080e-003
2.582258e+003,1.872859e-003
2.584187e+003,1.988246e-003
2.586115e+003,1.957790e-003
2.588044e+003,1.937288e-003
2.589972e+003,1.982554e-003
2.591901e+003,2.039876e-003
2.593829e+003,1.991941e-003
2.595758e+003,1.962650e-003
2.597686e+003,2.050129e-003
2.599615e+003,2.020002e-003
2.601543e+003,1.980857e-003
2.603472e+003,1.930998e-003
2.605400e+003,1.923909e-003
2.607329e+003,2.016074e-003
2.609257e+003,2.097072e-003
2.611186e+003,2.090247e-003
2.613114e+003,2.085785e-003
2.615043e+003,2.120146e-003
2.616971e+003,2.086618e-003
2.618900e+003,2.143287e-003
2.620828e+003,2.235299e-003
2.622757e+003,2.321434e-003
2.624685e+003,2.223709e-003
2.626614e+003,2.187076e-003
2.628542e+003,2.220612e-003
2.630471e+003,2.263909e-003
2.632399e+003,2.360977e-003
2.634328e+003,2.372904e-003
2.636256e+003,2.363143e-003
2.638185e+003,2.430810e-003
2.640113e+003,2.497455e-003
2.642042e+003,2.446071e-003
2.643970e+003,2.487558e-003
2.645899e+003,2.597109e-003
2.647827e+003,2.661813e-003
2.649756e+003,2.756836e-003
2.651684e+003,2.790882e-003
2.653613e+003,2.720791e-003
2.655541e+003,2.707788e-003
2.657470e+003,2.704254e-003
2.659398e+003,2.728827e-003
2.661327e+003,2.840106e-003
2.663255e+003,2.870657e-003
2.665184e+003,2.842374e-003
2.667112e+003,2.978937e-003
2.669041e+003,3.149050e-003
2.670969e+003,3.171679e-003
2.672898e+003,3.131829e-003
2.674826e+003,3.095119e-003
2.676755e+003,3.049270e-003
2.678683e+003,3.099391e-003
2.680612e+003,3.182460e-003
2.682540e+003,3.197814e-003
2.684469e+003,3.250089e-003
2.686397e+003,3.264944e-003
2.688326e+003,3.277564e-003
2.690254e+003,3.440780e-003
2.692183e+003,3.476918e-003
2.694111e+003,3.476484e-003
2.696040e+003,3.467600e-003
2.697968e+003,3.471975e-003
2.699897e+003,3.612678e-003
2.701825e+003,3.692471e-003
2.703754e+003,3.647093e-003
2.705682e+003,3.727593e-003
2.707611e+003,3.797546e-003
2.709539e+003,3.804566e-003
2.711468e+003,3.837424e-003
2.713396e+003,3.899438e-003
2.715325e+003,3.995301e-003
2.717253e+003,4.026602e-003
2.719182e+003,4.088609e-003
2.721110e+003,4.172671e-003
2.723039e+003,4.299480e-003
2.724967e+003,4.365475e-003
2.726896e+003,4.400183e-003
2.728824e+003,4.449289e-003
2.730753e+003,4.582775e-003
2.732681e+003,4.680564e-003
2.734610e+003,4.695100e-003
2.736538e+003,4.732950e-003
2.738467e+003,4.776934e-003
2.740395e+003,4.789497e-003
2.742324e+003,4.877011e-003
2.744252e+003,4.985089e-003
2.746181e+003,5.105732e-003
2.748109e+003,5.219064e-003
2.750038e+003,5.382677e-003
2.751966e+003,5.546150e-003
2.753895e+003,5.626667e-003
2.755823e+003,5.722207e-003
2.757752e+003,5.805645e-003
2.759680e+003,5.976601e-003
2.761609e+003,6.205095e-003
2.763537e+003,6.496228e-003
2.765466e+003,6.712881e-003
2.767394e+003,6.920048e-003
2.769323e+003,7.145771e-003
2.771251e+003,7.515843e-003
2.773180e+003,7.932662e-003
2.775108e+003,8.326609e-003
2.777037e+003,8.831203e-003
2.778965e+003,9.303411e-003
2.780894e+003,9.914589e-003
2.782822e+003,1.068061e-002
2.784750e+003,1.138627e-002
2.786679e+003,1.211758e-002
2.788608e+003,1.276522e-002
2.790536e+003,1.339735e-002
2.792465e+003,1.409328e-002
2.794393e+003,1.479299e-002
2.796322e+003,1.555987e-002
2.798250e+003,1.622763e-002
2.800178e+003,1.676994e-002
2.802107e+003,1.740921e-002
2.804036e+003,1.805398e-002
2.805964e+003,1.847281e-002
2.807893e+003,1.880855e-002
2.809821e+003,1.909483e-002
2.811750e+003,1.917956e-002
2.813678e+003,1.913368e-002
2.815606e+003,1.908697e-002
2.817535e+003,1.894275e-002
2.819464e+003,1.875444e-002
2.821392e+003,1.841152e-002
2.823321e+003,1.802169e-002
2.825249e+003,1.763107e-002
2.827177e+003,1.712025e-002
2.829106e+003,1.647827e-002
2.831034e+003,1.580965e-002
2.832963e+003,1.525344e-002
2.834892e+003,1.485052e-002
2.836820e+003,1.430961e-002
2.838749e+003,1.361932e-002
2.840677e+003,1.284555e-002
2.842605e+003,1.226387e-002
2.844534e+003,1.169199e-002
2.846462e+003,1.087890e-002
2.848391e+003,1.011308e-002
2.850320e+003,9.643413e-003
2.852248e+003,9.380193e-003
2.854177e+003,9.155911e-003
2.856105e+003,9.040871e-003
2.858033e+003,9.073519e-003
2.859962e+003,9.180819e-003
2.861890e+003,9.119603e-003
2.863819e+003,9.115339e-003
2.865748e+003,9.156724e-003
2.867676e+003,9.145048e-003
2.869604e+003,9.360217e-003
2.871533e+003,9.439109e-003
2.873461e+003,9.478493e-003
2.875390e+003,9.607335e-003
2.877319e+003,9.754920e-003
2.879247e+003,9.880556e-003
2.881176e+003,9.885302e-003
2.883104e+003,9.880150e-003
2.885032e+003,1.003973e-002
2.886961e+003,1.011939e-002
2.888889e+003,1.004414e-002
2.890818e+003,9.785351e-003
2.892747e+003,9.549242e-003
2.894675e+003,9.431727e-003
2.896604e+003,9.406162e-003
2.898532e+003,9.333980e-003
2.900460e+003,9.248745e-003
2.902389e+003,9.236695e-003
2.904317e+003,9.120923e-003
2.906246e+003,8.961747e-003
2.908175e+003,8.897281e-003
2.910103e+003,8.854637e-003
2.912031e+003,8.717161e-003
2.913960e+003,8.404232e-003
2.915888e+003,8.134266e-003
2.917817e+003,8.091528e-003
2.919745e+003,8.407643e-003
2.921674e+003,8.734909e-003
2.923603e+003,9.004368e-003
2.925531e+003,9.277008e-003
2.927459e+003,9.586773e-003
2.929388e+003,9.850457e-003
2.931316e+003,1.007835e-002
2.933245e+003,1.031064e-002
2.935173e+003,1.055878e-002
2.937102e+003,1.076779e-002
2.939031e+003,1.090717e-002
2.940959e+003,1.083902e-002
2.942887e+003,1.073657e-002
2.944816e+003,1.069035e-002
2.946744e+003,1.056268e-002
2.948673e+003,1.030009e-002
2.950601e+003,9.910624e-003
2.952530e+003,9.370002e-003
2.954458e+003,8.821634e-003
2.956387e+003,8.392408e-003
2.958315e+003,7.954124e-003
2.960244e+003,7.265668e-003
2.962172e+003,6.548801e-003
2.964101e+003,6.101619e-003
2.966029e+003,5.695584e-003
2.967958e+003,5.127021e-003
2.969886e+003,4.651828e-003
2.971815e+003,4.309251e-003
2.973743e+003,3.938924e-003
2.975672e+003,3.591897e-003
2.977600e+003,3.298931e-003
2.979529e+003,3.050805e-003
2.981457e+003,2.823264e-003
2.983386e+003,2.502387e-003
2.985314e+003,2.276300e-003
2.987243e+003,2.193470e-003
2.989171e+003,2.100834e-003
2.991100e+003,1.874057e-003
2.993028e+003,1.759465e-003
2.994957e+003,1.741101e-003
2.996885e+003,1.684417e-003
2.998814e+003,1.585073e-003
3.000742e+003,1.443927e-003
3.002671e+003,1.370762e-003
3.004599e+003,1.322802e-003
3.006528e+003,1.379371e-003
3.008456e+003,1.363616e-003
3.010385e+003,1.294918e-003
3.012313e+003,1.251385e-003
3.014242e+003,1.165561e-003
3.016170e+003,1.138685e-003
3.018099e+003,1.174698e-003
3.020027e+003,1.031494e-003
3.021956e+003,9.550114e-004
3.023884e+003,9.546461e-004
3.025813e+003,9.115124e-004
3.027741e+003,8.131079e-004
3.029670e+003,7.965766e-004
3.031598e+003,8.353831e-004
3.033527e+003,7.434348e-004
3.035455e+003,6.925231e-004
3.037384e+003,7.122366e-004
3.039312e+003,7.305570e-004
3.041241e+003,6.310985e-004
3.043169e+003,5.103984e-004
3.045098e+003,5.434731e-004
3.047026e+003,5.904853e-004
3.048955e+003,5.084079e-004
3.050883e+003,4.227641e-004
3.052812e+003,4.314206e-004
3.054740e+003,3.727522e-004
3.056669e+003,3.564034e-004
3.058597e+003,3.434044e-004
3.060526e+003,2.372714e-004
3.062454e+003,2.575610e-004
3.064383e+003,3.303394e-004
3.066311e+003,2.679714e-004
3.068240e+003,2.444986e-004
3.070168e+003,2.748012e-004
3.072097e+003,1.012694e-004
3.074025e+003,7.620836e-007
3.075954e+003,1.043185e-004
3.077882e+003,3.989521e-005
3.079811e+003,-3.379540e-005
3.081739e+003,-6.844953e-005
3.083668e+003,-1.342384e-004
3.085596e+003,-2.827401e-004
3.087525e+003,-4.208965e-004
3.089453e+003,-4.184138e-004
3.091382e+003,-3.841187e-004
3.093310e+003,-2.653888e-004
3.095239e+003,-2.044883e-004
3.097167e+003,-3.109841e-004
3.099096e+003,-3.634939e-004
3.101024e+003,-3.171426e-004
3.102953e+003,-3.031369e-004
3.104881e+003,-3.519066e-004
3.106810e+003,-3.485296e-004
3.108738e+003,-3.672349e-004
3.110667e+003,-3.609116e-004
3.112595e+003,-4.227171e-004
3.114524e+003,-4.204993e-004
3.116452e+003,-5.467649e-004
3.118381e+003,-5.335278e-004
3.120309e+003,-4.864003e-004
3.122238e+003,-4.506872e-004
3.124166e+003,-3.856415e-004
3.126095e+003,-3.393918e-004
3.128023e+003,-4.469800e-004
3.129952e+003,-5.464340e-004
3.131880e+003,-6.505963e-004
3.133809e+003,-6.078491e-004
3.135737e+003,-5.865401e-004
3.137666e+003,-5.105273e-004
3.139594e+003,-4.755775e-004
3.141523e+003,-5.574867e-004
3.143451e+003,-5.394846e-004
3.145380e+003,-5.469966e-004
3.147308e+003,-6.747473e-004
3.149237e+003,-6.962835e-004
3.151165e+003,-6.167827e-004
3.153094e+003,-5.202902e-004
3.155022e+003,-4.809393e-004
3.156951e+003,-5.412054e-004
3.158879e+003,-5.200586e-004
3.160808e+003,-5.454412e-004
3.162736e+003,-4.980172e-004
3.164665e+003,-5.220773e-004
3.166593e+003,-6.752435e-004
3.168522e+003,-6.657487e-004
3.170450e+003,-5.577515e-004
3.172379e+003,-5.650977e-004
3.174307e+003,-6.387188e-004
3.176236e+003,-5.762161e-004
3.178164e+003,-5.171132e-004
3.180093e+003,-4.823956e-004
3.182021e+003,-4.854405e-004
3.183950e+003,-4.400952e-004
3.185878e+003,-4.721684e-004
3.187807e+003,-3.948776e-004
3.189735e+003,-2.918791e-004
3.191664e+003,-4.168911e-004
3.193592e+003,-4.549901e-004
3.195521e+003,-3.661755e-004
3.197449e+003,-3.915341e-004
3.199378e+003,-4.354942e-004
3.201306e+003,-4.928872e-004
3.203235e+003,-4.876911e-004
3.205163e+003,-4.896438e-004
3.207092e+003,-4.979841e-004
3.209020e+003,-3.597198e-004
3.210948e+003,-2.233985e-004
3.212877e+003,-2.325387e-004
3.214806e+003,-2.375723e-004
3.216734e+003,-2.451227e-004
3.218663e+003,-2.249550e-004
3.220591e+003,-2.462155e-004
3.222520e+003,-2.478713e-004
3.224448e+003,-1.906777e-004
3.226376e+003,-1.546090e-004
3.228305e+003,-5.420391e-005
3.230234e+003,-2.836181e-005
3.232162e+003,-1.277129e-004
3.234091e+003,-3.674410e-005
3.236019e+003,2.170334e-005
3.237948e+003,-3.147620e-005
3.239876e+003,1.371634e-004
3.241804e+003,3.862164e-004
3.243733e+003,4.456495e-004
3.245662e+003,5.321604e-004
3.247590e+003,6.411860e-004
3.249519e+003,5.517007e-004
3.251447e+003,4.435267e-004
3.253375e+003,3.603827e-004
3.255304e+003,4.888364e-004
3.257232e+003,8.204111e-004
3.259161e+003,9.525209e-004
3.261090e+003,1.001238e-003
3.263018e+003,8.803353e-004
3.264947e+003,7.203015e-004
3.266875e+003,7.637813e-004
3.268803e+003,9.694899e-004
3.270732e+003,9.906107e-004
3.272660e+003,9.129070e-004
3.274589e+003,9.501300e-004
3.276518e+003,9.553767e-004
3.278446e+003,9.432563e-004
3.280375e+003,9.833711e-004
3.282303e+003,1.111079e-003
3.284231e+003,1.129549e-003
3.286160e+003,9.912418e-004
3.288088e+003,8.932508e-004
3.290017e+003,7.757307e-004
3.291946e+003,8.470689e-004
3.293874e+003,9.379433e-004
3.295802e+003,8.939148e-004
3.297731e+003,8.414251e-004
3.299659e+003,7.936222e-004
3.301588e+003,6.304348e-004
3.303516e+003,2.975793e-004
3.305445e+003,2.542456e-004
3.307374e+003,4.792168e-004
3.309302e+003,4.412050e-004
3.311230e+003,1.383235e-004
3.313159e+003,-1.852153e-005
3.315087e+003,4.638790e-006
3.317016e+003,-1.292226e-006
3.318944e+003,-6.454031e-005
3.320873e+003,-2.430033e-004
3.322802e+003,-2.886341e-004
3.324730e+003,-3.748161e-004
3.326658e+003,-5.133735e-004
3.328587e+003,-5.790619e-004
3.330515e+003,-5.995109e-004
3.332444e+003,-7.099788e-004
3.334372e+003,-8.142673e-004
3.336301e+003,-6.996908e-004
3.338229e+003,-7.414698e-004
3.340158e+003,-9.681900e-004
3.342086e+003,-1.017216e-003
3.344015e+003,-9.989350e-004
3.345943e+003,-1.031826e-003
3.347872e+003,-1.084679e-003
3.349800e+003,-1.110425e-003
3.351729e+003,-1.092677e-003
3.353657e+003,-1.278812e-003
3.355586e+003,-1.452088e-003
3.357514e+003,-1.361396e-003
3.359443e+003,-1.344914e-003
3.361371e+003,-1.494455e-003
3.363300e+003,-1.482798e-003
3.365229e+003,-1.411434e-003
3.367157e+003,-1.613872e-003
3.369085e+003,-1.866334e-003
3.371014e+003,-1.987431e-003
3.372942e+003,-1.990663e-003
3.374871e+003,-2.128805e-003
3.376799e+003,-2.110769e-003
3.378728e+003,-2.149049e-003
3.380656e+003,-2.289316e-003
3.382585e+003,-2.278241e-003
3.384513e+003,-2.364096e-003
3.386442e+003,-2.505446e-003
3.388370e+003,-2.535522e-003
3.390299e+003,-2.519315e-003
3.392227e+003,-2.515658e-003
3.394156e+003,-2.625442e-003
3.396084e+003,-2.646684e-003
3.398013e+003,-2.706321e-003
3.399941e+003,-2.781029e-003
3.401870e+003,-2.789655e-003
3.403798e+003,-2.722818e-003
3.405727e+003,-2.603606e-003
3.407655e+003,-2.708626e-003
3.409584e+003,-2.832155e-003
3.411512e+003,-2.861451e-003
3.413441e+003,-2.895782e-003
3.415369e+003,-2.922770e-003
3.417298e+003,-2.913094e-003
3.419226e+003,-2.882123e-003
3.421155e+003,-2.857337e-003
3.423083e+003,-2.958972e-003
3.425012e+003,-2.942813e-003
3.426940e+003,-2.931031e-003
3.428869e+003,-3.005799e-003
3.430797e+003,-3.129868e-003
3.432726e+003,-3.122335e-003
3.434654e+003,-3.040217e-003
3.436583e+003,-3.207463e-003
3.438511e+003,-3.260084e-003
3.440440e+003,-3.017776e-003
3.442368e+003,-3.076277e-003
3.444297e+003,-3.327035e-003
3.446225e+003,-3.326739e-003
3.448154e+003,-3.141250e-003
3.450082e+003,-3.059991e-003
3.452011e+003,-3.082462e-003
3.453939e+003,-3.171282e-003
3.455868e+003,-3.275343e-003
3.457796e+003,-3.246206e-003
3.459725e+003,-3.349328e-003
3.461653e+003,-3.392004e-003
3.463582e+003,-3.323846e-003
3.465510e+003,-3.433787e-003
3.467439e+003,-3.554776e-003
3.469367e+003,-3.469585e-003
3.471296e+003,-3.337557e-003
3.473224e+003,-3.288595e-003
3.475153e+003,-3.483127e-003
3.477081e+003,-3.621781e-003
3.479010e+003,-3.621387e-003
3.480938e+003,-3.636501e-003
3.482867e+003,-3.703920e-003
3.484795e+003,-3.627367e-003
3.486724e+003,-3.596873e-003
3.488652e+003,-3.557899e-003
3.490581e+003,-3.501829e-003
3.492509e+003,-3.474417e-003
3.494438e+003,-3.596873e-003
3.496366e+003,-3.665284e-003
3.498295e+003,-3.662491e-003
3.500223e+003,-3.716765e-003
3.502152e+003,-3.554053e-003
3.504080e+003,-3.486776e-003
3.506009e+003,-3.594770e-003
3.507937e+003,-3.706450e-003
3.509866e+003,-3.717324e-003
3.511794e+003,-3.628352e-003
3.513723e+003,-3.637750e-003
3.515651e+003,-3.779015e-003
3.517580e+003,-3.811598e-003
3.519508e+003,-3.718704e-003
3.521437e+003,-3.708191e-003
3.523365e+003,-3.723533e-003
3.525294e+003,-3.803354e-003
3.527222e+003,-3.787851e-003
3.529151e+003,-3.730464e-003
3.531079e+003,-3.808379e-003
3.533008e+003,-3.735688e-003
3.534936e+003,-3.617772e-003
3.536865e+003,-3.670409e-003
3.538793e+003,-3.912189e-003
3.540722e+003,-4.091048e-003
3.542650e+003,-4.110544e-003
3.544579e+003,-3.902798e-003
3.546507e+003,-3.673793e-003
3.548436e+003,-3.779934e-003
3.550364e+003,-3.900729e-003
3.552293e+003,-3.801843e-003
3.554221e+003,-3.867397e-003
3.556150e+003,-3.887495e-003
3.558078e+003,-3.787884e-003
3.560007e+003,-3.967910e-003
3.561935e+003,-4.202534e-003
3.563864e+003,-4.089308e-003
3.565792e+003,-3.799971e-003
3.567721e+003,-3.841814e-003
3.569649e+003,-3.956911e-003
3.571578e+003,-3.846346e-003
3.573506e+003,-3.635088e-003
3.575435e+003,-3.685588e-003
3.577363e+003,-3.920070e-003
3.579292e+003,-4.083268e-003
3.581220e+003,-4.200500e-003
3.583149e+003,-4.225602e-003
3.585077e+003,-4.029565e-003
3.587006e+003,-3.798657e-003
3.588934e+003,-3.918034e-003
3.590863e+003,-4.129252e-003
3.592791e+003,-4.050312e-003
3.594720e+003,-3.955072e-003
3.596648e+003,-4.006880e-003
3.598577e+003,-4.217826e-003
3.600505e+003,-4.156230e-003
3.602434e+003,-3.953266e-003
3.604362e+003,-3.904571e-003
3.606291e+003,-4.043418e-003
3.608219e+003,-4.122032e-003
3.610148e+003,-4.202370e-003
3.612076e+003,-4.251852e-003
3.614005e+003,-4.194593e-003
3.615933e+003,-4.032487e-003
3.617862e+003,-3.928640e-003
3.619790e+003,-4.155114e-003
3.621719e+003,-4.390917e-003
3.623647e+003,-4.372253e-003
3.625576e+003,-4.271834e-003
3.627504e+003,-3.967745e-003
3.629433e+003,-3.727639e-003
3.631361e+003,-4.160759e-003
3.633290e+003,-4.308776e-003
3.635218e+003,-4.199089e-003
3.637146e+003,-4.072699e-003
3.639075e+003,-3.993354e-003
3.641004e+003,-4.270259e-003
3.642932e+003,-4.479568e-003
3.644861e+003,-4.578759e-003
3.646789e+003,-4.336694e-003
3.648718e+003,-4.134733e-003
3.650646e+003,-4.225438e-003
3.652574e+003,-4.509180e-003
3.654503e+003,-4.535479e-003
3.656432e+003,-4.375304e-003
3.658360e+003,-4.524198e-003
3.660289e+003,-4.664717e-003
3.662217e+003,-4.963371e-003
3.664146e+003,-5.230132e-003
3.666074e+003,-5.174966e-003
3.668002e+003,-4.904961e-003
3.669931e+003,-4.611643e-003
3.671860e+003,-4.465434e-003
3.673788e+003,-4.421683e-003
3.675717e+003,-4.421814e-003
3.677645e+003,-4.637640e-003
3.679573e+003,-4.725716e-003
3.681502e+003,-4.760850e-003
3.683430e+003,-4.741251e-003
3.685359e+003,-4.737285e-003
3.687288e+003,-4.431293e-003
3.689216e+003,-4.186225e-003
3.691145e+003,-4.284466e-003
3.693073e+003,-4.500982e-003
3.695001e+003,-4.762226e-003
3.696930e+003,-4.658718e-003
3.698858e+003,-4.477010e-003
3.700787e+003,-4.370777e-003
3.702716e+003,-4.398724e-003
3.704644e+003,-4.447101e-003
3.706573e+003,-4.367923e-003
3.708501e+003,-4.451496e-003
3.710429e+003,-4.485668e-003
3.712358e+003,-4.491308e-003
3.714286e+003,-4.666815e-003
3.716215e+003,-4.620789e-003
3.718144e+003,-4.387965e-003
3.720072e+003,-4.337579e-003
3.722000e+003,-4.249457e-003
3.723929e+003,-4.299163e-003
3.725857e+003,-4.453660e-003
3.727786e+003,-4.769502e-003
3.729714e+003,-4.836778e-003
3.731643e+003,-4.420765e-003
3.733572e+003,-4.104013e-003
3.735500e+003,-4.015842e-003
3.737428e+003,-4.471337e-003
3.739357e+003,-4.873803e-003
3.741285e+003,-4.771894e-003
3.743214e+003,-4.381962e-003
3.745142e+003,-4.289485e-003
3.747071e+003,-4.643213e-003
3.749000e+003,-4.384258e-003
3.750928e+003,-4.253231e-003
3.752856e+003,-4.371761e-003
3.754785e+003,-4.493210e-003
3.756713e+003,-4.526199e-003
3.758642e+003,-4.523608e-003
3.760570e+003,-4.469632e-003
3.762499e+003,-4.546594e-003
3.764427e+003,-4.581677e-003
3.766356e+003,-4.449593e-003
3.768284e+003,-4.385374e-003
3.770213e+003,-4.314156e-003
3.772141e+003,-4.432736e-003
3.774070e+003,-4.376419e-003
3.775998e+003,-4.322751e-003
3.777927e+003,-4.392819e-003
3.779855e+003,-4.433359e-003
3.781784e+003,-4.586857e-003
3.783712e+003,-4.566890e-003
3.785641e+003,-4.543413e-003
3.787569e+003,-4.579185e-003
3.789498e+003,-4.684450e-003
3.791426e+003,-4.834943e-003
3.793355e+003,-4.836679e-003
3.795283e+003,-4.658259e-003
3.797212e+003,-4.427160e-003
3.799140e+003,-4.255757e-003
3.801069e+003,-4.236529e-003
3.802997e+003,-4.753214e-003
3.804926e+003,-4.812825e-003
3.806854e+003,-4.504130e-003
3.808783e+003,-4.562431e-003
3.810711e+003,-4.653768e-003
3.812640e+003,-4.825735e-003
3.814568e+003,-4.983222e-003
3.816497e+003,-4.551512e-003
3.818425e+003,-4.305791e-003
3.820354e+003,-4.077721e-003
3.822282e+003,-4.288140e-003
3.824211e+003,-4.821050e-003
3.826139e+003,-4.900570e-003
3.828068e+003,-4.877375e-003
3.829996e+003,-4.741251e-003
3.831925e+003,-4.655768e-003
3.833853e+003,-4.706608e-003
3.835782e+003,-4.571021e-003
3.837710e+003,-4.331150e-003
3.839639e+003,-4.417812e-003
3.841567e+003,-4.417025e-003
3.843496e+003,-4.422043e-003
3.845424e+003,-4.809941e-003
3.847353e+003,-5.183119e-003
3.849281e+003,-5.025147e-003
3.851210e+003,-4.477010e-003
3.853138e+003,-3.886838e-003
3.855067e+003,-4.050016e-003
3.856995e+003,-4.691268e-003
3.858924e+003,-4.915772e-003
3.860852e+003,-4.875965e-003
3.862781e+003,-4.820033e-003
3.864709e+003,-4.694578e-003
3.866638e+003,-4.793982e-003
3.868566e+003,-4.783692e-003
3.870495e+003,-4.781168e-003
3.872423e+003,-4.829307e-003
3.874352e+003,-4.829569e-003
3.876280e+003,-4.937361e-003
3.878209e+003,-4.991640e-003
3.880137e+003,-4.869543e-003
3.882066e+003,-4.885106e-003
3.883994e+003,-4.970709e-003
3.885923e+003,-4.875703e-003
3.887851e+003,-4.944634e-003
3.889780e+003,-4.835664e-003
3.891708e+003,-4.830224e-003
3.893637e+003,-5.014666e-003
3.895565e+003,-5.060356e-003
3.897494e+003,-5.005103e-003
3.899422e+003,-4.942636e-003
3.901351e+003,-5.121201e-003
3.903279e+003,-5.145465e-003
3.905208e+003,-5.047681e-003
3.907136e+003,-5.209245e-003
3.909065e+003,-5.254979e-003
3.910993e+003,-5.157875e-003
3.912922e+003,-5.201257e-003
3.914850e+003,-5.032714e-003
3.916779e+003,-4.908565e-003
3.918707e+003,-5.001106e-003
3.920636e+003,-5.138589e-003
3.922564e+003,-5.078794e-003
3.924493e+003,-5.142911e-003
3.926421e+003,-5.190715e-003
3.928350e+003,-5.333439e-003
3.930278e+003,-5.611094e-003
3.932207e+003,-5.602753e-003
3.934135e+003,-5.351374e-003
3.936064e+003,-5.252360e-003
3.937992e+003,-5.246599e-003
3.939921e+003,-5.329544e-003
3.941849e+003,-5.337694e-003
3.943778e+003,-5.302083e-003
3.945706e+003,-5.162884e-003
3.947635e+003,-4.868790e-003
3.949563e+003,-4.930252e-003
3.951492e+003,-5.186949e-003
3.953420e+003,-5.253997e-003
3.955349e+003,-5.320740e-003
3.957277e+003,-5.392741e-003
3.959206e+003,-5.520579e-003
3.961134e+003,-5.376607e-003
3.963063e+003,-5.085278e-003
3.964991e+003,-4.975557e-003
3.966920e+003,-5.058325e-003
3.968848e+003,-5.042244e-003
3.970777e+003,-5.090747e-003
3.972705e+003,-5.133841e-003
3.974634e+003,-5.145039e-003
3.976562e+003,-5.323162e-003
3.978491e+003,-5.310102e-003
3.980419e+003,-5.326337e-003
3.982348e+003,-5.307091e-003
3.984276e+003,-5.208427e-003
3.986205e+003,-5.224240e-003
3.988133e+003,-5.171201e-003
3.990062e+003,-5.162066e-003
3.991990e+003,-5.285651e-003
3.993919e+003,-5.460182e-003
3.995847e+003,-5.594837e-003
3.997776e+003,-5.303425e-003
3.999704e+003,-5.036251e-003
4.001633e+003,0.000000e+000
