3.991989e+002,-2.381117e-002
4.011274e+002,-2.500505e-002
4.030559e+002,-2.560135e-002
4.049844e+002,-2.543407e-002
4.069129e+002,-1.887297e-002
4.088414e+002,-1.701097e-002
4.107699e+002,-2.163553e-002
4.126984e+002,-2.164410e-002
4.146269e+002,-1.478698e-002
4.165554e+002,-9.576495e-003
4.184839e+002,-1.024440e-002
4.204124e+002,-5.688705e-003
4.223409e+002,-1.972684e-004
4.242694e+002,-1.272502e-003
4.261979e+002,-8.042805e-003
4.281264e+002,-3.010702e-003
4.300549e+002,1.103804e-003
4.319834e+002,1.475378e-004
4.339119e+002,2.044137e-003
4.358404e+002,3.426253e-003
4.377689e+002,2.269904e-003
4.396974e+002,-2.635685e-003
4.416259e+002,-9.408377e-003
4.435544e+002,-6.000611e-003
4.454829e+002,-1.762265e-003
4.474114e+002,1.192989e-004
4.493399e+002,1.159382e-003
4.512684e+002,1.929467e-003
4.531969e+002,2.892902e-004
4.551254e+002,-1.267282e-003
4.570539e+002,-1.947289e-003
4.589824e+002,-4.123837e-003
4.609109e+002,-5.311543e-003
4.628394e+002,-1.857492e-003
4.647679e+002,-1.844790e-003
4.666964e+002,-3.292048e-003
4.686249e+002,-4.012888e-003
4.705533e+002,-3.016230e-003
4.724819e+002,-2.303983e-003
4.744103e+002,-2.083565e-003
4.763389e+002,-3.109340e-003
4.782673e+002,-4.693562e-003
4.801959e+002,-6.670413e-003
4.821243e+002,-6.263502e-003
4.840529e+002,-5.751817e-003
4.859813e+002,-6.736482e-003
4.879099e+002,-6.161363e-003
4.898383e+002,-4.042959e-003
4.917668e+002,-4.892904e-003
4.936953e+002,-6.618106e-003
4.956238e+002,-4.335480e-003
4.975523e+002,-3.330126e-003
4.994808e+002,-5.877719e-003
5.014093e+002,-6.873579e-003
5.033378e+002,-5.951981e-003
5.052663e+002,-3.978449e-003
5.071948e+002,-5.218772e-003
5.091233e+002,-7.770965e-003
5.110518e+002,-8.361184e-003
5.129803e+002,-7.701050e-003
5.149088e+002,-7.302564e-003
5.168373e+002,-7.701701e-003
5.187658e+002,-7.751404e-003
5.206943e+002,-7.383457e-003
5.226228e+002,-7.047343e-003
5.245513e+002,-7.303639e-003
5.264798e+002,-8.031420e-003
5.284083e+002,-7.605141e-003
5.303368e+002,-6.041490e-003
5.322653e+002,-6.474334e-003
5.341938e+002,-5.950510e-003
5.361223e+002,-6.227216e-003
5.380508e+002,-6.620357e-003
5.399792e+002,-6.587919e-003
5.419078e+002,-5.798703e-003
5.438363e+002,-4.283842e-003
5.457648e+002,-4.048342e-003
5.476932e+002,-5.010277e-003
5.496218e+002,-4.676058e-003
5.515503e+002,-3.265675e-003
5.534788e+002,-3.788311e-003
5.554072e+002,-4.338433e-003
5.573358e+002,-3.857118e-003
5.592643e+002,-3.312995e-003
5.611927e+002,-3.680824e-003
5.631212e+002,-3.368990e-003
5.650497e+002,-2.283647e-003
5.669783e+002,-2.551795e-003
5.689067e+002,-2.931722e-003
5.708352e+002,-2.195107e-003
5.727637e+002,-1.686392e-003
5.746923e+002,-3.105294e-003
5.766207e+002,-5.680038e-003
5.785492e+002,-3.091246e-003
5.804777e+002,8.023478e-003
5.824063e+002,5.318069e-003
5.843347e+002,-3.135493e-003
5.862632e+002,-3.637487e-003
5.881917e+002,-4.088323e-003
5.901202e+002,-4.130729e-003
5.920487e+002,-3.917968e-003
5.939772e+002,-3.937177e-003
5.959057e+002,-4.624264e-003
5.978342e+002,-4.675829e-003
5.997627e+002,-4.524297e-003
6.016912e+002,-4.486750e-003
6.036197e+002,-4.402003e-003
6.055482e+002,-1.964375e-003
6.074767e+002,-4.937808e-004
6.094052e+002,-1.078101e-003
6.113337e+002,-2.656103e-003
6.132622e+002,-3.215685e-003
6.151907e+002,-3.683452e-003
6.171192e+002,-4.411942e-003
6.190477e+002,-4.588299e-003
6.209762e+002,-3.775829e-003
6.229047e+002,-4.184945e-003
6.248332e+002,-5.069329e-003
6.267617e+002,-6.079034e-003
6.286902e+002,-6.060083e-003
6.306187e+002,-5.146185e-003
6.325472e+002,-4.727519e-003
6.344756e+002,-4.290306e-003
6.364042e+002,-3.776814e-003
6.383326e+002,-3.814390e-003
6.402612e+002,-3.945386e-003
6.421896e+002,-3.359488e-003
6.441182e+002,-3.210587e-003
6.460466e+002,-3.631113e-003
6.479752e+002,-3.294811e-003
6.499036e+002,-3.487104e-003
6.518322e+002,-3.273962e-003
6.537606e+002,-2.633709e-003
6.556891e+002,-2.281010e-003
6.576177e+002,-2.483637e-003
6.595461e+002,-2.986121e-003
6.614746e+002,-3.236537e-003
6.634031e+002,-3.389604e-003
6.653317e+002,-2.751595e-003
6.672601e+002,-1.829349e-003
6.691886e+002,-1.622917e-003
6.711171e+002,-1.735601e-003
6.730457e+002,-1.617240e-003
6.749741e+002,-1.925386e-003
6.769026e+002,-1.987695e-003
6.788311e+002,-1.627704e-003
6.807596e+002,-1.186630e-003
6.826881e+002,-8.597389e-004
6.846166e+002,-8.644676e-004
6.865451e+002,-1.096544e-003
6.884736e+002,-9.273918e-004
6.904021e+002,-7.300909e-004
6.923306e+002,-5.139361e-004
6.942591e+002,-4.310587e-004
6.961876e+002,-8.055362e-004
6.981161e+002,-1.181938e-003
7.000446e+002,-1.527705e-003
7.019731e+002,-1.336755e-003
7.039016e+002,-1.052915e-003
7.058301e+002,-1.487388e-003
7.077585e+002,-1.741475e-003
7.096871e+002,-1.835057e-003
7.116156e+002,-1.713885e-003
7.135441e+002,-1.922318e-003
7.154725e+002,-2.689692e-003
7.174011e+002,-3.674056e-003
7.193296e+002,-3.708651e-003
7.212581e+002,-3.370239e-003
7.231865e+002,-3.544095e-003
7.251151e+002,-3.603872e-003
7.270436e+002,-3.926046e-003
7.289720e+002,-4.223470e-003
7.309005e+002,-3.822469e-003
7.328290e+002,-3.585010e-003
7.347576e+002,-3.477112e-003
7.366860e+002,-3.053411e-003
7.386145e+002,-2.990893e-003
7.405430e+002,-3.451407e-003
7.424716e+002,-3.383916e-003
7.444000e+002,-3.071835e-003
7.463285e+002,-2.844269e-003
7.482570e+002,-2.807004e-003
7.501855e+002,-2.461332e-003
7.521140e+002,-1.841458e-003
7.540425e+002,-1.426989e-003
7.559710e+002,-1.286708e-003
7.578995e+002,-1.063691e-003
7.598280e+002,-4.407572e-004
7.617565e+002,-4.290726e-004
7.636850e+002,-6.849697e-004
7.656135e+002,-3.146594e-004
7.675420e+002,3.140254e-004
7.694705e+002,8.191829e-004
7.713990e+002,7.377925e-004
7.733275e+002,5.148104e-004
7.752560e+002,2.509966e-004
7.771844e+002,2.619041e-004
7.791130e+002,6.108578e-004
7.810415e+002,9.241964e-004
7.829700e+002,8.825930e-004
7.848984e+002,8.389353e-004
7.868270e+002,8.072986e-004
7.887555e+002,6.856203e-004
7.906840e+002,2.317682e-004
7.926124e+002,1.931757e-005
7.945410e+002,8.973625e-005
7.964695e+002,-1.757736e-004
7.983979e+002,-7.040413e-005
8.003264e+002,9.822040e-005
8.022549e+002,-9.819819e-005
8.041835e+002,-1.112499e-004
8.061119e+002,1.379921e-004
8.080404e+002,8.004604e-004
8.099689e+002,8.536091e-004
8.118975e+002,4.306246e-004
8.138259e+002,6.114219e-004
8.157545e+002,7.682623e-004
8.176830e+002,2.570968e-004
8.196115e+002,-5.232687e-004
8.215399e+002,-9.136041e-004
8.234684e+002,-6.794780e-004
8.253970e+002,-8.033203e-004
8.273254e+002,-1.297643e-003
8.292539e+002,-1.433330e-003
8.311824e+002,-1.373419e-003
8.331110e+002,-1.367209e-003
8.350394e+002,-1.277755e-003
8.369679e+002,-1.039627e-003
8.388964e+002,-1.525196e-003
8.408250e+002,-1.734214e-003
8.427534e+002,-1.575050e-003
8.446819e+002,-1.495610e-003
8.466104e+002,-1.779128e-003
8.485389e+002,-1.945739e-003
8.504674e+002,-1.910013e-003
8.523959e+002,-1.821694e-003
8.543244e+002,-2.098766e-003
8.562529e+002,-2.406868e-003
8.581814e+002,-2.343993e-003
8.601099e+002,-1.976810e-003
8.620384e+002,-2.021237e-003
8.639669e+002,-2.350288e-003
8.658954e+002,-2.292183e-003
8.678239e+002,-2.157918e-003
8.697524e+002,-2.405023e-003
8.716809e+002,-2.437544e-003
8.736094e+002,-2.422322e-003
8.755378e+002,-2.367127e-003
8.774664e+002,-2.280779e-003
8.793949e+002,-2.064670e-003
8.813234e+002,-1.657049e-003
8.832518e+002,-1.588816e-003
8.851804e+002,-1.846803e-003
8.871089e+002,-1.841656e-003
8.890374e+002,-1.417412e-003
8.909658e+002,-1.291069e-003
8.928943e+002,-1.106988e-003
8.948229e+002,-8.878462e-004
8.967513e+002,-9.743061e-004
8.986798e+002,-1.188183e-003
9.006083e+002,-1.261666e-003
9.025369e+002,-1.211776e-003
9.044653e+002,-9.518249e-004
9.063938e+002,-9.483534e-004
9.083223e+002,-9.086775e-004
9.102509e+002,-1.129692e-003
9.121793e+002,-1.559368e-003
9.141078e+002,-1.745600e-003
9.160364e+002,-1.837102e-003
9.179648e+002,-1.745864e-003
9.198933e+002,-1.792228e-003
9.218218e+002,-2.132894e-003
9.237504e+002,-2.404858e-003
9.256788e+002,-2.799235e-003
9.276073e+002,-2.874519e-003
9.295358e+002,-2.550181e-003
9.314644e+002,-2.685774e-003
9.333928e+002,-2.880641e-003
9.353213e+002,-2.837027e-003
9.372498e+002,-2.745669e-003
9.391783e+002,-3.096017e-003
9.411068e+002,-3.476192e-003
9.430353e+002,-3.380563e-003
9.449637e+002,-3.388486e-003
9.468923e+002,-3.422742e-003
9.488208e+002,-3.442005e-003
9.507493e+002,-3.453807e-003
9.526777e+002,-3.287872e-003
9.546063e+002,-3.166644e-003
9.565348e+002,-2.869450e-003
9.584633e+002,-2.746196e-003
9.603917e+002,-2.809243e-003
9.623203e+002,-2.882254e-003
9.642488e+002,-2.856514e-003
9.661772e+002,-2.720447e-003
9.681057e+002,-2.476422e-003
9.700343e+002,-2.569911e-003
9.719628e+002,-2.768716e-003
9.738912e+002,-2.923231e-003
9.758197e+002,-2.979342e-003
9.777483e+002,-2.805292e-003
9.796768e+002,-2.592342e-003
9.816052e+002,-2.663908e-003
9.835337e+002,-2.697365e-003
9.854623e+002,-2.430921e-003
9.873907e+002,-2.341620e-003
9.893192e+002,-2.490588e-003
9.912477e+002,-2.474840e-003
9.931763e+002,-2.219436e-003
9.951047e+002,-2.150236e-003
9.970332e+002,-1.885898e-003
9.989617e+002,-1.694874e-003
1.000890e+003,-1.733521e-003
1.002819e+003,-1.604695e-003
1.004747e+003,-1.554052e-003
1.006676e+003,-1.318752e-003
1.008604e+003,-1.029909e-003
1.010533e+003,-1.036619e-003
1.012461e+003,-9.848190e-004
1.014390e+003,-8.897310e-004
1.016318e+003,-6.019925e-004
1.018247e+003,-2.845944e-004
1.020175e+003,-2.282667e-004
1.022104e+003,-1.868720e-005
1.024032e+003,2.633629e-004
1.025961e+003,4.402099e-004
1.027889e+003,6.674677e-004
1.029818e+003,9.263215e-004
1.031746e+003,1.216163e-003
1.033675e+003,1.391670e-003
1.035603e+003,1.725732e-003
1.037532e+003,1.922511e-003
1.039460e+003,1.979359e-003
1.041389e+003,2.207390e-003
1.043317e+003,2.235399e-003
1.045246e+003,2.145318e-003
1.047174e+003,2.320069e-003
1.049103e+003,2.288291e-003
1.051031e+003,2.145851e-003
1.052960e+003,2.280863e-003
1.054888e+003,2.273968e-003
1.056817e+003,1.982055e-003
1.058745e+003,1.955960e-003
1.060674e+003,2.054490e-003
1.062602e+003,2.272369e-003
1.064531e+003,2.420048e-003
1.066459e+003,2.213818e-003
1.068388e+003,2.066475e-003
1.070316e+003,2.133864e-003
1.072245e+003,2.159603e-003
1.074173e+003,2.255649e-003
1.076102e+003,2.238563e-003
1.078030e+003,2.188641e-003
1.079959e+003,2.342555e-003
1.081887e+003,2.434675e-003
1.083816e+003,2.517118e-003
1.085744e+003,2.653745e-003
1.087673e+003,2.875894e-003
1.089601e+003,2.781912e-003
1.091530e+003,2.751334e-003
1.093458e+003,3.104096e-003
1.095387e+003,3.247552e-003
1.097315e+003,3.206159e-003
1.099244e+003,2.944742e-003
1.101172e+003,3.054742e-003
1.103101e+003,3.422278e-003
1.105029e+003,3.255697e-003
1.106958e+003,3.131629e-003
1.108886e+003,3.184529e-003
1.110815e+003,3.343604e-003
1.112743e+003,3.455509e-003
1.114672e+003,3.288047e-003
1.116600e+003,3.292788e-003
1.118529e+003,3.340232e-003
1.120457e+003,3.321400e-003
1.122386e+003,3.474547e-003
1.124314e+003,3.576363e-003
1.126243e+003,3.278465e-003
1.128171e+003,3.058513e-003
1.130100e+003,3.024445e-003
1.132028e+003,2.727193e-003
1.133957e+003,2.569510e-003
1.135885e+003,2.468630e-003
1.137814e+003,2.173889e-003
1.139742e+003,1.766850e-003
1.141671e+003,1.407692e-003
1.143599e+003,1.214867e-003
1.145528e+003,1.028206e-003
1.147456e+003,7.162856e-004
1.149385e+003,3.790863e-004
1.151313e+003,6.166683e-005
1.153242e+003,-8.521239e-005
1.155170e+003,-2.518120e-004
1.157099e+003,-4.358583e-004
1.159027e+003,-6.421597e-004
1.160956e+003,-7.821863e-004
1.162884e+003,-7.805325e-004
1.164813e+003,-7.981940e-004
1.166741e+003,-8.524637e-004
1.168670e+003,-7.564536e-004
1.170598e+003,-5.781684e-004
1.172526e+003,-5.652301e-004
1.174455e+003,-5.290601e-004
1.176384e+003,-5.243277e-004
1.178312e+003,-5.516295e-004
1.180240e+003,-5.477577e-004
1.182169e+003,-6.430530e-004
1.184098e+003,-5.565932e-004
1.186026e+003,-3.549524e-004
1.187954e+003,-4.390691e-004
1.189883e+003,-8.149618e-004
1.191812e+003,-8.824233e-004
1.193740e+003,-6.299181e-004
1.195668e+003,-5.789295e-004
1.197597e+003,-5.462024e-004
1.199526e+003,-4.813695e-004
1.201454e+003,-4.739556e-004
1.203382e+003,-3.744189e-004
1.205311e+003,-3.393918e-004
1.207240e+003,-2.628722e-004
1.209168e+003,-3.995781e-005
1.211096e+003,1.466429e-004
1.213025e+003,1.739223e-004
1.214953e+003,2.258341e-004
1.216882e+003,3.667498e-004
1.218810e+003,4.254837e-004
1.220739e+003,5.223739e-004
1.222667e+003,8.225025e-004
1.224596e+003,1.085601e-003
1.226524e+003,1.059991e-003
1.228453e+003,1.083708e-003
1.230381e+003,1.331443e-003
1.232310e+003,1.546931e-003
1.234238e+003,1.688509e-003
1.236167e+003,1.863741e-003
1.238095e+003,1.864240e-003
1.240024e+003,1.790771e-003
1.241952e+003,1.890063e-003
1.243881e+003,1.820350e-003
1.245809e+003,1.741766e-003
1.247738e+003,1.712459e-003
1.249666e+003,1.638218e-003
1.251595e+003,1.491935e-003
1.253523e+003,1.338655e-003
1.255452e+003,1.251784e-003
1.257380e+003,1.263647e-003
1.259309e+003,1.280562e-003
1.261237e+003,1.384922e-003
1.263166e+003,1.487480e-003
1.265094e+003,1.647830e-003
1.267023e+003,2.029290e-003
1.268951e+003,2.292554e-003
1.270880e+003,2.456068e-003
1.272808e+003,2.745232e-003
1.274737e+003,3.031786e-003
1.276665e+003,3.280068e-003
1.278594e+003,3.532767e-003
1.280522e+003,3.680441e-003
1.282451e+003,3.820376e-003
1.284379e+003,4.150859e-003
1.286308e+003,4.726251e-003
1.288236e+003,5.038551e-003
1.290165e+003,5.317768e-003
1.292093e+003,5.621129e-003
1.294022e+003,5.603541e-003
1.295950e+003,5.846145e-003
1.297879e+003,6.139693e-003
1.299807e+003,6.235580e-003
1.301736e+003,6.108205e-003
1.303664e+003,5.965381e-003
1.305593e+003,5.939247e-003
1.307521e+003,5.821462e-003
1.309450e+003,5.643216e-003
1.311378e+003,5.388581e-003
1.313307e+003,5.240292e-003
1.315235e+003,5.080253e-003
1.317164e+003,4.824608e-003
1.319092e+003,4.463349e-003
1.321021e+003,3.982527e-003
1.322949e+003,3.709848e-003
1.324878e+003,3.616988e-003
1.326806e+003,3.480859e-003
1.328735e+003,3.402876e-003
1.330663e+003,3.231528e-003
1.332592e+003,3.072361e-003
1.334520e+003,2.947678e-003
1.336449e+003,2.902444e-003
1.338377e+003,2.893705e-003
1.340306e+003,2.891637e-003
1.342234e+003,2.819829e-003
1.344163e+003,2.751434e-003
1.346091e+003,2.676248e-003
1.348020e+003,2.616076e-003
1.349948e+003,2.451502e-003
1.351877e+003,2.286692e-003
1.353805e+003,2.193137e-003
1.355734e+003,2.010182e-003
1.357662e+003,1.718214e-003
1.359591e+003,1.567082e-003
1.361519e+003,1.519797e-003
1.363448e+003,1.403903e-003
1.365376e+003,1.243543e-003
1.367305e+003,1.136658e-003
1.369233e+003,1.141210e-003
1.371162e+003,9.675306e-004
1.373090e+003,9.231339e-004
1.375019e+003,9.691910e-004
1.376947e+003,9.463776e-004
1.378876e+003,1.059858e-003
1.380804e+003,1.209651e-003
1.382733e+003,1.103173e-003
1.384661e+003,8.947117e-004
1.386590e+003,7.642128e-004
1.388518e+003,5.910162e-004
1.390447e+003,4.133781e-004
1.392375e+003,3.331912e-004
1.394304e+003,4.149369e-004
1.396232e+003,3.522251e-004
1.398161e+003,1.798557e-004
1.400089e+003,2.060986e-005
1.402018e+003,1.212723e-005
1.403946e+003,7.807081e-005
1.405875e+003,1.823418e-004
1.407803e+003,1.873140e-004
1.409732e+003,1.220498e-004
1.411660e+003,1.674917e-004
1.413589e+003,2.889255e-004
1.415517e+003,5.842145e-004
1.417446e+003,1.134931e-003
1.419374e+003,1.720076e-003
1.421303e+003,2.087783e-003
1.423231e+003,2.562011e-003
1.425160e+003,3.216306e-003
1.427088e+003,3.671552e-003
1.429017e+003,4.012690e-003
1.430945e+003,4.187524e-003
1.432874e+003,4.223858e-003
1.434802e+003,4.486180e-003
1.436731e+003,4.912531e-003
1.438659e+003,5.220506e-003
1.440588e+003,5.533230e-003
1.442516e+003,5.834659e-003
1.444445e+003,6.197297e-003
1.446373e+003,6.667927e-003
1.448302e+003,7.108754e-003
1.450230e+003,7.463896e-003
1.452159e+003,7.853638e-003
1.454087e+003,8.278177e-003
1.456016e+003,8.636068e-003
1.457944e+003,8.803949e-003
1.459873e+003,8.842902e-003
1.461801e+003,8.785420e-003
1.463730e+003,8.775919e-003
1.465658e+003,8.777237e-003
1.467587e+003,8.609671e-003
1.469515e+003,8.539074e-003
1.471444e+003,8.567731e-003
1.473372e+003,8.319482e-003
1.475301e+003,8.045148e-003
1.477229e+003,7.683764e-003
1.479158e+003,7.298486e-003
1.481086e+003,6.797857e-003
1.483015e+003,6.239782e-003
1.484943e+003,5.915197e-003
1.486872e+003,5.668258e-003
1.488800e+003,5.376437e-003
1.490729e+003,4.867763e-003
1.492657e+003,4.367148e-003
1.494586e+003,4.175882e-003
1.496514e+003,3.932003e-003
1.498443e+003,3.560795e-003
1.500371e+003,3.040728e-003
1.502300e+003,2.610976e-003
1.504228e+003,2.636610e-003
1.506157e+003,2.718124e-003
1.508085e+003,2.513185e-003
1.510014e+003,2.257414e-003
1.511942e+003,2.011214e-003
1.513871e+003,1.948371e-003
1.515799e+003,2.017505e-003
1.517728e+003,2.061348e-003
1.519656e+003,2.164965e-003
1.521585e+003,2.239629e-003
1.523513e+003,2.185877e-003
1.525442e+003,2.385264e-003
1.527370e+003,2.565810e-003
1.529299e+003,2.705187e-003
1.531227e+003,2.946344e-003
1.533156e+003,3.386613e-003
1.535084e+003,3.584581e-003
1.537013e+003,3.824822e-003
1.538941e+003,4.288671e-003
1.540870e+003,4.683277e-003
1.542798e+003,4.825111e-003
1.544727e+003,4.887366e-003
1.546655e+003,5.005367e-003
1.548584e+003,5.279833e-003
1.550512e+003,5.546452e-003
1.552441e+003,5.680712e-003
1.554369e+003,5.798291e-003
1.556298e+003,6.043053e-003
1.558226e+003,6.622506e-003
1.560155e+003,6.783250e-003
1.562083e+003,6.855144e-003
1.564012e+003,7.194043e-003
1.565940e+003,7.520968e-003
1.567869e+003,7.784075e-003
1.569797e+003,7.955676e-003
1.571726e+003,7.977241e-003
1.573654e+003,8.066447e-003
1.575583e+003,8.219891e-003
1.577511e+003,8.033941e-003
1.579440e+003,7.784513e-003
1.581368e+003,7.746565e-003
1.583297e+003,7.467738e-003
1.585225e+003,7.138226e-003
1.587154e+003,6.981729e-003
1.589082e+003,6.670013e-003
1.591010e+003,6.197364e-003
1.592939e+003,5.788520e-003
1.594868e+003,5.353794e-003
1.596796e+003,4.828394e-003
1.598724e+003,4.424049e-003
1.600653e+003,3.870118e-003
1.602582e+003,3.322235e-003
1.604510e+003,2.901677e-003
1.606438e+003,2.612276e-003
1.608367e+003,2.185711e-003
1.610296e+003,1.801917e-003
1.612224e+003,1.418629e-003
1.614152e+003,1.115829e-003
1.616081e+003,8.746247e-004
1.618010e+003,6.462298e-004
1.619938e+003,4.491985e-004
1.621866e+003,3.007624e-004
1.623795e+003,-6.288385e-005
1.625724e+003,-2.239615e-004
1.627652e+003,-1.916050e-004
1.629580e+003,-4.575719e-004
1.631509e+003,-7.526167e-004
1.633438e+003,-7.166609e-004
1.635366e+003,-7.751083e-004
1.637294e+003,-1.279308e-003
1.639223e+003,-1.654738e-003
1.641151e+003,-1.979383e-003
1.643080e+003,-2.349398e-003
1.645008e+003,-2.534896e-003
1.646937e+003,-2.776552e-003
1.648865e+003,-3.325128e-003
1.650794e+003,-3.503999e-003
1.652722e+003,-3.409625e-003
1.654651e+003,-4.011640e-003
1.656579e+003,-4.553807e-003
1.658508e+003,-5.007395e-003
1.660436e+003,-5.227447e-003
1.662365e+003,-5.336843e-003
1.664293e+003,-5.672516e-003
1.666222e+003,-5.780263e-003
1.668150e+003,-5.833587e-003
1.670079e+003,-6.072630e-003
1.672007e+003,-6.260791e-003
1.673936e+003,-6.214902e-003
1.675864e+003,-6.125689e-003
1.677793e+003,-6.166100e-003
1.679721e+003,-6.068317e-003
1.681650e+003,-5.911910e-003
1.683578e+003,-5.639713e-003
1.685507e+003,-5.604585e-003
1.687435e+003,-5.649165e-003
1.689364e+003,-5.561930e-003
1.691292e+003,-5.454162e-003
1.693221e+003,-5.162197e-003
1.695149e+003,-4.897196e-003
1.697078e+003,-4.860730e-003
1.699006e+003,-4.677632e-003
1.700935e+003,-4.663143e-003
1.702863e+003,-4.844576e-003
1.704792e+003,-4.702117e-003
1.706720e+003,-4.729649e-003
1.708649e+003,-4.867086e-003
1.710577e+003,-4.952889e-003
1.712506e+003,-4.931432e-003
1.714434e+003,-4.815544e-003
1.716363e+003,-4.730599e-003
1.718291e+003,-4.798177e-003
1.720220e+003,-5.056818e-003
1.722148e+003,-5.227873e-003
1.724077e+003,-5.247712e-003
1.726005e+003,-5.192417e-003
1.727934e+003,-5.176702e-003
1.729862e+003,-5.180500e-003
1.731791e+003,-5.107186e-003
1.733719e+003,-5.047583e-003
1.735648e+003,-5.294620e-003
1.737576e+003,-5.372549e-003
1.739505e+003,-5.220965e-003
1.741433e+003,-5.108299e-003
1.743362e+003,-5.022855e-003
1.745290e+003,-4.876293e-003
1.747219e+003,-4.771894e-003
1.749147e+003,-4.718440e-003
1.751076e+003,-4.688940e-003
1.753004e+003,-4.686187e-003
1.754933e+003,-4.599873e-003
1.756861e+003,-4.457891e-003
1.758790e+003,-4.482618e-003
1.760718e+003,-4.444936e-003
1.762647e+003,-4.383635e-003
1.764575e+003,-4.428833e-003
1.766504e+003,-4.304905e-003
1.768432e+003,-4.147762e-003
1.770361e+003,-4.064689e-003
1.772289e+003,-3.998935e-003
1.774218e+003,-4.116649e-003
1.776146e+003,-4.113728e-003
1.778075e+003,-4.088389e-003
1.780003e+003,-4.112349e-003
1.781932e+003,-4.179366e-003
1.783860e+003,-4.228687e-003
1.785789e+003,-4.214938e-003
1.787717e+003,-4.146483e-003
1.789646e+003,-4.009901e-003
1.791574e+003,-3.952412e-003
1.793503e+003,-4.036262e-003
1.795431e+003,-4.102798e-003
1.797360e+003,-4.034391e-003
1.799288e+003,-3.958717e-003
1.801217e+003,-3.942135e-003
1.803145e+003,-3.929920e-003
1.805074e+003,-3.866149e-003
1.807002e+003,-3.872816e-003
1.808931e+003,-3.946338e-003
1.810859e+003,-3.996408e-003
1.812788e+003,-4.009145e-003
1.814716e+003,-4.048342e-003
1.816645e+003,-3.996769e-003
1.818573e+003,-4.011870e-003
1.820502e+003,-4.090489e-003
1.822430e+003,-4.133060e-003
1.824359e+003,-4.040070e-003
1.826287e+003,-4.140739e-003
1.828216e+003,-4.293225e-003
1.830144e+003,-4.257135e-003
1.832073e+003,-4.198334e-003
1.834001e+003,-4.265141e-003
1.835930e+003,-4.375665e-003
1.837858e+003,-4.356212e-003
1.839787e+003,-4.320193e-003
1.841715e+003,-4.253034e-003
1.843644e+003,-4.172245e-003
1.845572e+003,-4.320357e-003
1.847501e+003,-4.444904e-003
1.849429e+003,-4.423880e-003
1.851358e+003,-4.330494e-003
1.853286e+003,-4.236792e-003
1.855215e+003,-4.196595e-003
1.857143e+003,-4.266519e-003
1.859072e+003,-4.347618e-003
1.861000e+003,-4.323014e-003
1.862929e+003,-4.216743e-003
1.864857e+003,-4.082185e-003
1.866786e+003,-4.092426e-003
1.868714e+003,-4.111201e-003
1.870643e+003,-4.048441e-003
1.872571e+003,-3.990826e-003
1.874500e+003,-3.957436e-003
1.876428e+003,-3.948209e-003
1.878357e+003,-3.926046e-003
1.880285e+003,-3.927983e-003
1.882214e+003,-3.945517e-003
1.884142e+003,-3.940198e-003
1.886071e+003,-3.910317e-003
1.887999e+003,-3.906180e-003
1.889928e+003,-3.872816e-003
1.891856e+003,-3.845623e-003
1.893785e+003,-3.698138e-003
1.895713e+003,-3.651418e-003
1.897642e+003,-3.694787e-003
1.899570e+003,-3.759142e-003
1.901499e+003,-3.745772e-003
1.903427e+003,-3.660454e-003
1.905356e+003,-3.658121e-003
1.907284e+003,-3.614848e-003
1.909213e+003,-3.534400e-003
1.911141e+003,-3.545180e-003
1.913070e+003,-3.513859e-003
1.914998e+003,-3.590859e-003
1.916927e+003,-3.665054e-003
1.918855e+003,-3.695247e-003
1.920784e+003,-3.691502e-003
1.922712e+003,-3.634168e-003
1.924641e+003,-3.651057e-003
1.926569e+003,-3.713480e-003
1.928498e+003,-3.698007e-003
1.930426e+003,-3.662130e-003
1.932355e+003,-3.689925e-003
1.934283e+003,-3.694491e-003
1.936212e+003,-3.715057e-003
1.938140e+003,-3.754839e-003
1.940069e+003,-3.715714e-003
1.941997e+003,-3.681448e-003
1.943926e+003,-3.731548e-003
1.945854e+003,-3.858760e-003
1.947783e+003,-3.984884e-003
1.949711e+003,-3.965447e-003
1.951640e+003,-3.945878e-003
1.953568e+003,-3.926440e-003
1.955497e+003,-3.882471e-003
1.957425e+003,-3.911105e-003
1.959354e+003,-3.989710e-003
1.961282e+003,-3.963214e-003
1.963211e+003,-4.029696e-003
1.965139e+003,-4.037706e-003
1.967068e+003,-3.991122e-003
1.968996e+003,-3.972966e-003
1.970925e+003,-3.908084e-003
1.972853e+003,-3.862570e-003
1.974782e+003,-3.873604e-003
1.976710e+003,-3.909365e-003
1.978639e+003,-3.879088e-003
1.980567e+003,-3.798197e-003
1.982496e+003,-3.773267e-003
1.984424e+003,-3.798000e-003
1.986353e+003,-3.757302e-003
1.988281e+003,-3.688479e-003
1.990210e+003,-3.655755e-003
1.992138e+003,-3.601441e-003
1.994067e+003,-3.589742e-003
1.995995e+003,-3.559542e-003
1.997924e+003,-3.468500e-003
1.999852e+003,-3.450815e-003
2.001781e+003,-3.551030e-003
2.003709e+003,-3.557241e-003
2.005638e+003,-3.449763e-003
2.007566e+003,-3.396573e-003
2.009495e+003,-3.436877e-003
2.011423e+003,-3.446674e-003
2.013352e+003,-3.350216e-003
2.015280e+003,-3.266596e-003
2.017208e+003,-3.292706e-003
2.019137e+003,-3.355016e-003
2.021066e+003,-3.306780e-003
2.022994e+003,-3.291720e-003
2.024922e+003,-3.384475e-003
2.026851e+003,-3.341733e-003
2.028780e+003,-3.269128e-003
2.030708e+003,-3.250317e-003
2.032636e+003,-3.225289e-003
2.034565e+003,-3.314705e-003
2.036494e+003,-3.380102e-003
2.038422e+003,-3.277086e-003
2.040350e+003,-3.243082e-003
2.042279e+003,-3.266234e-003
2.044208e+003,-3.230124e-003
2.046136e+003,-3.232952e-003
2.048064e+003,-3.189208e-003
2.049993e+003,-3.182137e-003
2.051921e+003,-3.221014e-003
2.053850e+003,-3.239924e-003
2.055778e+003,-3.221375e-003
2.057707e+003,-3.154276e-003
2.059635e+003,-3.032386e-003
2.061564e+003,-3.121282e-003
2.063492e+003,-3.212758e-003
2.065421e+003,-3.219270e-003
2.067349e+003,-3.155954e-003
2.069278e+003,-3.093319e-003
2.071206e+003,-3.070519e-003
2.073135e+003,-3.048179e-003
2.075063e+003,-3.008168e-003
2.076992e+003,-2.998264e-003
2.078920e+003,-2.927049e-003
2.080849e+003,-2.878535e-003
2.082777e+003,-2.813424e-003
2.084706e+003,-2.758444e-003
2.086634e+003,-2.822674e-003
2.088563e+003,-2.783992e-003
2.090491e+003,-2.668551e-003
2.092420e+003,-2.633873e-003
2.094348e+003,-2.667431e-003
2.096277e+003,-2.638912e-003
2.098205e+003,-2.529230e-003
2.100134e+003,-2.498264e-003
2.102062e+003,-2.418400e-003
2.103991e+003,-2.361723e-003
2.105919e+003,-2.364952e-003
2.107848e+003,-2.293271e-003
2.109776e+003,-2.218908e-003
2.111705e+003,-2.225963e-003
2.113633e+003,-2.206909e-003
2.115562e+003,-2.160918e-003
2.117490e+003,-2.036638e-003
2.119419e+003,-1.951445e-003
2.121347e+003,-2.007847e-003
2.123276e+003,-1.978262e-003
2.125204e+003,-1.936140e-003
2.127133e+003,-1.915687e-003
2.129061e+003,-1.868710e-003
2.130990e+003,-1.861913e-003
2.132918e+003,-1.779425e-003
2.134847e+003,-1.715370e-003
2.136775e+003,-1.775201e-003
2.138704e+003,-1.739990e-003
2.140632e+003,-1.622950e-003
2.142561e+003,-1.664443e-003
2.144489e+003,-1.749626e-003
2.146418e+003,-1.671539e-003
2.148346e+003,-1.527936e-003
2.150275e+003,-1.528398e-003
2.152203e+003,-1.620376e-003
2.154132e+003,-1.624931e-003
2.156060e+003,-1.584326e-003
2.157989e+003,-1.688669e-003
2.159917e+003,-1.775564e-003
2.161846e+003,-1.713060e-003
2.163774e+003,-1.682431e-003
2.165703e+003,-1.702069e-003
2.167631e+003,-1.654903e-003
2.169560e+003,-1.571220e-003
2.171488e+003,-1.527903e-003
2.173417e+003,-1.619154e-003
2.175345e+003,-1.660713e-003
2.177274e+003,-1.659128e-003
2.179202e+003,-1.664707e-003
2.181131e+003,-1.574026e-003
2.183059e+003,-1.536190e-003
2.184988e+003,-1.634372e-003
2.186916e+003,-1.679329e-003
2.188845e+003,-1.700122e-003
2.190773e+003,-1.623380e-003
2.192702e+003,-1.457471e-003
2.194630e+003,-1.447002e-003
2.196559e+003,-1.544610e-003
2.198487e+003,-1.571088e-003
2.200416e+003,-1.566895e-003
2.202344e+003,-1.548010e-003
2.204273e+003,-1.548836e-003
2.206201e+003,-1.610010e-003
2.208130e+003,-1.636121e-003
2.210058e+003,-1.599843e-003
2.211987e+003,-1.605884e-003
2.213915e+003,-1.465264e-003
2.215844e+003,-1.469392e-003
2.217772e+003,-1.540317e-003
2.219701e+003,-1.490294e-003
2.221629e+003,-1.500332e-003
2.223558e+003,-1.528365e-003
2.225486e+003,-1.484284e-003
2.227415e+003,-1.409056e-003
2.229343e+003,-1.415760e-003
2.231272e+003,-1.426923e-003
2.233200e+003,-1.472529e-003
2.235129e+003,-1.473354e-003
2.237057e+003,-1.450767e-003
2.238986e+003,-1.443634e-003
2.240914e+003,-1.492870e-003
2.242843e+003,-1.459947e-003
2.244771e+003,-1.492077e-003
2.246700e+003,-1.635593e-003
2.248628e+003,-1.669064e-003
2.250557e+003,-1.641172e-003
2.252485e+003,-1.679032e-003
2.254414e+003,-1.659491e-003
2.256342e+003,-1.617042e-003
2.258271e+003,-1.693620e-003
2.260199e+003,-1.819285e-003
2.262128e+003,-1.870953e-003
2.264056e+003,-1.847364e-003
2.265985e+003,-1.763651e-003
2.267913e+003,-1.831658e-003
2.269842e+003,-1.849541e-003
2.271770e+003,-1.830669e-003
2.273699e+003,-1.836509e-003
2.275627e+003,-1.797277e-003
2.277556e+003,-1.897807e-003
2.279484e+003,-1.975359e-003
2.281413e+003,-1.971203e-003
2.283341e+003,-2.056953e-003
2.285270e+003,-2.063384e-003
2.287198e+003,-1.966123e-003
2.289127e+003,-2.030076e-003
2.291055e+003,-1.999337e-003
2.292984e+003,-1.947784e-003
2.294912e+003,-2.032582e-003
2.296841e+003,-2.041124e-003
2.298769e+003,-2.021039e-003
2.300698e+003,-2.015729e-003
2.302626e+003,-1.971566e-003
2.304555e+003,-1.936338e-003
2.306483e+003,-1.811597e-003
2.308412e+003,-1.626846e-003
2.310340e+003,-1.530016e-003
2.312269e+003,-1.477944e-003
2.314197e+003,-1.410608e-003
2.316125e+003,-1.356904e-003
2.318054e+003,-1.353898e-003
2.319983e+003,-1.277557e-003
2.321911e+003,-1.105930e-003
2.323840e+003,-8.949554e-004
2.325768e+003,-7.041567e-004
2.327697e+003,-5.725762e-004
2.329625e+003,-5.554681e-004
2.331553e+003,-6.321348e-004
2.333482e+003,-5.443492e-004
2.335411e+003,-3.407824e-004
2.337339e+003,-3.343263e-004
2.339268e+003,-3.411466e-004
2.341196e+003,-3.222084e-004
2.343125e+003,-4.370499e-004
2.345053e+003,-6.111910e-004
2.346981e+003,-7.987232e-004
2.348910e+003,-9.467995e-004
2.350839e+003,-7.497721e-004
2.352767e+003,-4.078872e-004
2.354696e+003,-1.703418e-004
2.356624e+003,1.378398e-005
2.358552e+003,1.834025e-004
2.360481e+003,2.093582e-004
2.362409e+003,4.927311e-005
2.364338e+003,-2.713593e-005
2.366267e+003,-2.004563e-005
2.368195e+003,-1.548078e-004
2.370124e+003,-2.906539e-004
2.372052e+003,-4.299001e-004
2.373980e+003,-5.898490e-004
2.375909e+003,-8.358958e-004
2.377838e+003,-9.778105e-004
2.379766e+003,-9.722895e-004
2.381695e+003,-9.971829e-004
2.383623e+003,-9.984061e-004
2.385552e+003,-8.833161e-004
2.387480e+003,-8.166485e-004
2.389408e+003,-8.041472e-004
2.391337e+003,-7.346888e-004
2.393266e+003,-6.897334e-004
2.395194e+003,-6.738210e-004
2.397123e+003,-6.917514e-004
2.399051e+003,-7.460014e-004
2.400979e+003,-7.375335e-004
2.402908e+003,-7.285032e-004
2.404836e+003,-7.245668e-004
2.406765e+003,-7.326711e-004
2.408694e+003,-7.278085e-004
2.410622e+003,-7.091187e-004
2.412551e+003,-7.162971e-004
2.414479e+003,-6.448065e-004
2.416407e+003,-6.170474e-004
2.418336e+003,-6.262455e-004
2.420264e+003,-5.957058e-004
2.422193e+003,-4.687592e-004
2.424122e+003,-3.333330e-004
2.426050e+003,-2.762831e-004
2.427979e+003,-2.251868e-004
2.429907e+003,-2.057468e-004
2.431835e+003,-1.643800e-004
2.433764e+003,-1.134030e-004
2.435692e+003,-3.598208e-005
2.437621e+003,5.500599e-005
2.439550e+003,1.195641e-004
2.441478e+003,9.308349e-005
2.443406e+003,5.030038e-005
2.445335e+003,9.971177e-005
2.447263e+003,1.402790e-004
2.449192e+003,1.252979e-004
2.451121e+003,1.884079e-004
2.453049e+003,2.225852e-004
2.454978e+003,2.205962e-004
2.456906e+003,2.603459e-004
2.458834e+003,3.675457e-004
2.460763e+003,4.819700e-004
2.462691e+003,5.571416e-004
2.464620e+003,5.125546e-004
2.466549e+003,5.143791e-004
2.468477e+003,5.386627e-004
2.470406e+003,5.416484e-004
2.472334e+003,5.225398e-004
2.474262e+003,6.198499e-004
2.476191e+003,7.409788e-004
2.478119e+003,7.290303e-004
2.480048e+003,6.751004e-004
2.481977e+003,6.318285e-004
2.483905e+003,6.801114e-004
2.485833e+003,7.241514e-004
2.487762e+003,7.797471e-004
2.489690e+003,8.888349e-004
2.491619e+003,9.207099e-004
2.493547e+003,9.667004e-004
2.495476e+003,9.239972e-004
2.497405e+003,9.122097e-004
2.499333e+003,9.655713e-004
2.501261e+003,1.035546e-003
2.503190e+003,9.165926e-004
2.505118e+003,7.689925e-004
2.507047e+003,8.322957e-004
2.508975e+003,9.982490e-004
2.510904e+003,1.076965e-003
2.512833e+003,1.147223e-003
2.514761e+003,1.083110e-003
2.516689e+003,1.060357e-003
2.518618e+003,1.142804e-003
2.520546e+003,1.222510e-003
2.522475e+003,1.190147e-003
2.524403e+003,1.158718e-003
2.526332e+003,1.162372e-003
2.528260e+003,1.233010e-003
2.530189e+003,1.233043e-003
2.532117e+003,1.257200e-003
2.534046e+003,1.260789e-003
2.535974e+003,1.287574e-003
2.537903e+003,1.317650e-003
2.539831e+003,1.267568e-003
2.541760e+003,1.265242e-003
2.543688e+003,1.262418e-003
2.545617e+003,1.252548e-003
2.547545e+003,1.362619e-003
2.549474e+003,1.496024e-003
2.551402e+003,1.527512e-003
2.553331e+003,1.523821e-003
2.555259e+003,1.514777e-003
2.557188e+003,1.461248e-003
2.559116e+003,1.418496e-003
2.561045e+003,1.437378e-003
2.562973e+003,1.560165e-003
2.564902e+003,1.542508e-003
2.566830e+003,1.484055e-003
2.568759e+003,1.569942e-003
2.570687e+003,1.636987e-003
2.572616e+003,1.634592e-003
2.574544e+003,1.717182e-003
2.576473e+003,1.706039e-003
2.578401e+003,1.624582e-003
2.580330e+003,1.562759e-003
2.582258e+003,1.597144e-003
2.584187e+003,1.650158e-003
2.586115e+003,1.680359e-003
2.588044e+003,1.758899e-003
2.589972e+003,1.799622e-003
2.591901e+003,1.776166e-003
2.593829e+003,1.798557e-003
2.595758e+003,1.772207e-003
2.597686e+003,1.797126e-003
2.599615e+003,1.861711e-003
2.601543e+003,1.845006e-003
2.603472e+003,1.721374e-003
2.605400e+003,1.700450e-003
2.607329e+003,1.748220e-003
2.609257e+003,1.793000e-003
2.611186e+003,1.801485e-003
2.613114e+003,1.812731e-003
2.615043e+003,1.839682e-003
2.616971e+003,1.941914e-003
2.618900e+003,1.984851e-003
2.620828e+003,1.961751e-003
2.622757e+003,2.086052e-003
2.624685e+003,2.194403e-003
2.626614e+003,2.140157e-003
2.628542e+003,2.002759e-003
2.630471e+003,1.998066e-003
2.632399e+003,2.037812e-003
2.634328e+003,2.011214e-003
2.636256e+003,2.032086e-003
2.638185e+003,2.127005e-003
2.640113e+003,2.180083e-003
2.642042e+003,2.191172e-003
2.643970e+003,2.180383e-003
2.645899e+003,2.261977e-003
2.647827e+003,2.368606e-003
2.649756e+003,2.391461e-003
2.651684e+003,2.389162e-003
2.653613e+003,2.433209e-003
2.655541e+003,2.538314e-003
2.657470e+003,2.526882e-003
2.659398e+003,2.548246e-003
2.661327e+003,2.609576e-003
2.663255e+003,2.584476e-003
2.665184e+003,2.588443e-003
2.667112e+003,2.621542e-003
2.669041e+003,2.587342e-003
2.670969e+003,2.569377e-003
2.672898e+003,2.707154e-003
2.674826e+003,2.759470e-003
2.676755e+003,2.803988e-003
2.678683e+003,2.834503e-003
2.680612e+003,2.809424e-003
2.682540e+003,2.817428e-003
2.684469e+003,2.962623e-003
2.686397e+003,3.040428e-003
2.688326e+003,3.054208e-003
2.690254e+003,3.080570e-003
2.692183e+003,3.082172e-003
2.694111e+003,3.069391e-003
2.696040e+003,3.165805e-003
2.697968e+003,3.256131e-003
2.699897e+003,3.230994e-003
2.701825e+003,3.222015e-003
2.703754e+003,3.320265e-003
2.705682e+003,3.361368e-003
2.707611e+003,3.408686e-003
2.709539e+003,3.470439e-003
2.711468e+003,3.459751e-003
2.713396e+003,3.421577e-003
2.715325e+003,3.405113e-003
2.717253e+003,3.493619e-003
2.719182e+003,3.510186e-003
2.721110e+003,3.537477e-003
2.723039e+003,3.621165e-003
2.724967e+003,3.623069e-003
2.726896e+003,3.638740e-003
2.728824e+003,3.666406e-003
2.730753e+003,3.640711e-003
2.732681e+003,3.734244e-003
2.734610e+003,3.849860e-003
2.736538e+003,3.919532e-003
2.738467e+003,4.026535e-003
2.740395e+003,4.152599e-003
2.742324e+003,4.146042e-003
2.744252e+003,4.114197e-003
2.746181e+003,4.114732e-003
2.748109e+003,4.257953e-003
2.750038e+003,4.452302e-003
2.751966e+003,4.476003e-003
2.753895e+003,4.493880e-003
2.755823e+003,4.535730e-003
2.757752e+003,4.530072e-003
2.759680e+003,4.670248e-003
2.761609e+003,4.839082e-003
2.763537e+003,4.951808e-003
2.765466e+003,5.117667e-003
2.767394e+003,5.366239e-003
2.769323e+003,5.591156e-003
2.771251e+003,5.892626e-003
2.773180e+003,6.238236e-003
2.775108e+003,6.525827e-003
2.777037e+003,6.721732e-003
2.778965e+003,6.975668e-003
2.780894e+003,7.385463e-003
2.782822e+003,7.743361e-003
2.784750e+003,8.081906e-003
2.786679e+003,8.603757e-003
2.788608e+003,9.075684e-003
2.790536e+003,9.399526e-003
2.792465e+003,9.735300e-003
2.794393e+003,1.005774e-002
2.796322e+003,1.035415e-002
2.798250e+003,1.067229e-002
2.800178e+003,1.100018e-002
2.802107e+003,1.126649e-002
2.804036e+003,1.148887e-002
2.805964e+003,1.171695e-002
2.807893e+003,1.176229e-002
2.809821e+003,1.170411e-002
2.811750e+003,1.177764e-002
2.813678e+003,1.179079e-002
2.815606e+003,1.165820e-002
2.817535e+003,1.149972e-002
2.819464e+003,1.130328e-002
2.821392e+003,1.119767e-002
2.823321e+003,1.103950e-002
2.825249e+003,1.067606e-002
2.827177e+003,1.042236e-002
2.829106e+003,1.023512e-002
2.831034e+003,9.926624e-003
2.832963e+003,9.584334e-003
2.834892e+003,9.249387e-003
2.836820e+003,8.853453e-003
2.838749e+003,8.552895e-003
2.840677e+003,8.126501e-003
2.842605e+003,7.579666e-003
2.844534e+003,7.077196e-003
2.846462e+003,6.577259e-003
2.848391e+003,6.113783e-003
2.850320e+003,5.902837e-003
2.852248e+003,5.792147e-003
2.854177e+003,5.634489e-003
2.856105e+003,5.485981e-003
2.858033e+003,5.482391e-003
2.859962e+003,5.509739e-003
2.861890e+003,5.528296e-003
2.863819e+003,5.600990e-003
2.865748e+003,5.675744e-003
2.867676e+003,5.697900e-003
2.869604e+003,5.652447e-003
2.871533e+003,5.679906e-003
2.873461e+003,5.780125e-003
2.875390e+003,5.900687e-003
2.877319e+003,5.980699e-003
2.879247e+003,6.085793e-003
2.881176e+003,6.126822e-003
2.883104e+003,6.072587e-003
2.885032e+003,5.989400e-003
2.886961e+003,5.954934e-003
2.888889e+003,5.921814e-003
2.890818e+003,5.947073e-003
2.892747e+003,5.832477e-003
2.894675e+003,5.626567e-003
2.896604e+003,5.522155e-003
2.898532e+003,5.423472e-003
2.900460e+003,5.381100e-003
2.902389e+003,5.297240e-003
2.904317e+003,5.192573e-003
2.906246e+003,5.153207e-003
2.908175e+003,5.088131e-003
2.910103e+003,4.948122e-003
2.912031e+003,4.650856e-003
2.913960e+003,4.373206e-003
2.915888e+003,4.259157e-003
2.917817e+003,4.287499e-003
2.919745e+003,4.257451e-003
2.921674e+003,4.323005e-003
2.923603e+003,4.273613e-003
2.925531e+003,4.416484e-003
2.927459e+003,4.680430e-003
2.929388e+003,4.767219e-003
2.931316e+003,4.832213e-003
2.933245e+003,4.852250e-003
2.935173e+003,4.925031e-003
2.937102e+003,5.076766e-003
2.939031e+003,5.155521e-003
2.940959e+003,5.161858e-003
2.942887e+003,5.095708e-003
2.944816e+003,4.957271e-003
2.946744e+003,4.728126e-003
2.948673e+003,4.504828e-003
2.950601e+003,4.258957e-003
2.952530e+003,3.964135e-003
2.954458e+003,3.535874e-003
2.956387e+003,3.118980e-003
2.958315e+003,2.805222e-003
2.960244e+003,2.502821e-003
2.962172e+003,2.190040e-003
2.964101e+003,1.993272e-003
2.966029e+003,1.716417e-003
2.967958e+003,1.438375e-003
2.969886e+003,1.271922e-003
2.971815e+003,1.087328e-003
2.973743e+003,8.497248e-004
2.975672e+003,6.209448e-004
2.977600e+003,6.136118e-004
2.979529e+003,6.417833e-004
2.981457e+003,4.832968e-004
2.983386e+003,2.669104e-004
2.985314e+003,-5.778192e-005
2.987243e+003,-1.635188e-004
2.989171e+003,-3.578329e-005
2.991100e+003,5.732227e-006
2.993028e+003,-1.783570e-004
2.994957e+003,-3.205529e-004
2.996885e+003,-3.239301e-004
2.998814e+003,-2.537657e-004
3.000742e+003,-2.199212e-004
3.002671e+003,-3.382993e-004
3.004599e+003,-4.980172e-004
3.006528e+003,-5.479563e-004
3.008456e+003,-6.030845e-004
3.010385e+003,-6.038124e-004
3.012313e+003,-5.503389e-004
3.014242e+003,-5.647668e-004
3.016170e+003,-5.276040e-004
3.018099e+003,-4.947076e-004
3.020027e+003,-5.651970e-004
3.021956e+003,-6.422590e-004
3.023884e+003,-6.529784e-004
3.025813e+003,-7.048845e-004
3.027741e+003,-8.118530e-004
3.029670e+003,-6.192311e-004
3.031598e+003,-3.826290e-004
3.033527e+003,-4.282451e-004
3.035455e+003,-6.042756e-004
3.037384e+003,-7.435206e-004
3.039312e+003,-8.762728e-004
3.041241e+003,-8.912190e-004
3.043169e+003,-8.854324e-004
3.045098e+003,-9.066606e-004
3.047026e+003,-8.600034e-004
3.048955e+003,-9.059000e-004
3.050883e+003,-1.113829e-003
3.052812e+003,-1.173314e-003
3.054740e+003,-1.124272e-003
3.056669e+003,-1.056617e-003
3.058597e+003,-1.020687e-003
3.060526e+003,-1.083059e-003
3.062454e+003,-1.164953e-003
3.064383e+003,-1.122191e-003
3.066311e+003,-1.117960e-003
3.068240e+003,-1.222845e-003
3.070168e+003,-1.390131e-003
3.072097e+003,-1.455522e-003
3.074025e+003,-1.365888e-003
3.075954e+003,-1.249475e-003
3.077882e+003,-1.227602e-003
3.079811e+003,-1.336623e-003
3.081739e+003,-1.398686e-003
3.083668e+003,-1.395119e-003
3.085596e+003,-1.386928e-003
3.087525e+003,-1.480058e-003
3.089453e+003,-1.529851e-003
3.091382e+003,-1.539261e-003
3.093310e+003,-1.562108e-003
3.095239e+003,-1.507101e-003
3.097167e+003,-1.502578e-003
3.099096e+003,-1.503073e-003
3.101024e+003,-1.548539e-003
3.102953e+003,-1.637211e-003
3.104881e+003,-1.672430e-003
3.106810e+003,-1.675896e-003
3.108738e+003,-1.651999e-003
3.110667e+003,-1.695369e-003
3.112595e+003,-1.782428e-003
3.114524e+003,-1.722499e-003
3.116452e+003,-1.625756e-003
3.118381e+003,-1.674378e-003
3.120309e+003,-1.815920e-003
3.122238e+003,-1.905593e-003
3.124166e+003,-1.869238e-003
3.126095e+003,-1.857064e-003
3.128023e+003,-1.871976e-003
3.129952e+003,-1.859406e-003
3.131880e+003,-1.834892e-003
3.133809e+003,-1.733224e-003
3.135737e+003,-1.765598e-003
3.137666e+003,-1.777841e-003
3.139594e+003,-1.714512e-003
3.141523e+003,-1.712598e-003
3.143451e+003,-1.688141e-003
3.145380e+003,-1.725865e-003
3.147308e+003,-1.705469e-003
3.149237e+003,-1.713621e-003
3.151165e+003,-1.845945e-003
3.153094e+003,-1.901337e-003
3.155022e+003,-1.856569e-003
3.156951e+003,-1.780778e-003
3.158879e+003,-1.757216e-003
3.160808e+003,-1.715502e-003
3.162736e+003,-1.789258e-003
3.164665e+003,-1.837465e-003
3.166593e+003,-1.818097e-003
3.168522e+003,-1.748537e-003
3.170450e+003,-1.739528e-003
3.172379e+003,-1.777478e-003
3.174307e+003,-1.752827e-003
3.176236e+003,-1.652164e-003
3.178164e+003,-1.691772e-003
3.180093e+003,-1.807770e-003
3.182021e+003,-1.754312e-003
3.183950e+003,-1.684709e-003
3.185878e+003,-1.766423e-003
3.187807e+003,-1.812719e-003
3.189735e+003,-1.822618e-003
3.191664e+003,-1.832747e-003
3.193592e+003,-1.860891e-003
3.195521e+003,-1.873098e-003
3.197449e+003,-1.750748e-003
3.199378e+003,-1.683157e-003
3.201306e+003,-1.692432e-003
3.203235e+003,-1.773353e-003
3.205163e+003,-1.756754e-003
3.207092e+003,-1.751903e-003
3.209020e+003,-1.723984e-003
3.210948e+003,-1.664707e-003
3.212877e+003,-1.589642e-003
3.214806e+003,-1.536157e-003
3.216734e+003,-1.529851e-003
3.218663e+003,-1.630444e-003
3.220591e+003,-1.663287e-003
3.222520e+003,-1.456711e-003
3.224448e+003,-1.315448e-003
3.226376e+003,-1.155866e-003
3.228305e+003,-1.032653e-003
3.230234e+003,-1.053213e-003
3.232162e+003,-1.052915e-003
3.234091e+003,-1.017877e-003
3.236019e+003,-1.102956e-003
3.237948e+003,-1.110061e-003
3.239876e+003,-9.727523e-004
3.241804e+003,-8.599042e-004
3.243733e+003,-8.478671e-004
3.245662e+003,-6.852343e-004
3.247590e+003,-6.094042e-004
3.249519e+003,-5.623843e-004
3.251447e+003,-5.473606e-004
3.253375e+003,-5.885586e-004
3.255304e+003,-6.392151e-004
3.257232e+003,-4.795161e-004
3.259161e+003,-2.513483e-004
3.261090e+003,-1.965729e-004
3.263018e+003,-2.382347e-004
3.264947e+003,-3.415108e-004
3.266875e+003,-3.421729e-004
3.268803e+003,-2.769454e-004
3.270732e+003,-3.261815e-004
3.272660e+003,-2.047201e-004
3.274589e+003,-1.563899e-005
3.276518e+003,8.049004e-005
3.278446e+003,4.337462e-005
3.280375e+003,-9.100967e-005
3.282303e+003,1.729631e-005
3.284231e+003,8.453316e-005
3.286160e+003,4.317580e-005
3.288088e+003,2.561337e-005
3.290017e+003,-1.571926e-004
3.291946e+003,-3.409479e-004
3.293874e+003,-4.043121e-004
3.295802e+003,-3.369419e-004
3.297731e+003,-4.419157e-004
3.299659e+003,-6.102645e-004
3.301588e+003,-6.157901e-004
3.303516e+003,-6.719021e-004
3.305445e+003,-7.681956e-004
3.307374e+003,-8.172768e-004
3.309302e+003,-1.054700e-003
3.311230e+003,-1.150777e-003
3.313159e+003,-1.233153e-003
3.315087e+003,-1.307124e-003
3.317016e+003,-1.402087e-003
3.318944e+003,-1.568480e-003
3.320873e+003,-1.552137e-003
3.322802e+003,-1.629189e-003
3.324730e+003,-1.816250e-003
3.326658e+003,-1.902492e-003
3.328587e+003,-1.860561e-003
3.330515e+003,-1.851752e-003
3.332444e+003,-1.929476e-003
3.334372e+003,-2.041057e-003
3.336301e+003,-2.118452e-003
3.338229e+003,-2.127981e-003
3.340158e+003,-2.047455e-003
3.342086e+003,-2.019060e-003
3.344015e+003,-2.026184e-003
3.345943e+003,-2.074134e-003
3.347872e+003,-2.254905e-003
3.349800e+003,-2.287240e-003
3.351729e+003,-2.294194e-003
3.353657e+003,-2.415831e-003
3.355586e+003,-2.553936e-003
3.357514e+003,-2.723740e-003
3.359443e+003,-2.783268e-003
3.361371e+003,-2.691866e-003
3.363300e+003,-2.588587e-003
3.365229e+003,-2.736713e-003
3.367157e+003,-2.960979e-003
3.369085e+003,-3.070124e-003
3.371014e+003,-3.150296e-003
3.372942e+003,-3.132171e-003
3.374871e+003,-3.200326e-003
3.376799e+003,-3.259097e-003
3.378728e+003,-3.377439e-003
3.380656e+003,-3.505741e-003
3.382585e+003,-3.612580e-003
3.384513e+003,-3.630718e-003
3.386442e+003,-3.728723e-003
3.388370e+003,-3.773464e-003
3.390299e+003,-3.786964e-003
3.392227e+003,-3.767518e-003
3.394156e+003,-3.767354e-003
3.396084e+003,-3.939410e-003
3.398013e+003,-4.000117e-003
3.399941e+003,-3.906902e-003
3.401870e+003,-3.937637e-003
3.403798e+003,-3.979795e-003
3.405727e+003,-4.074373e-003
3.407655e+003,-4.106638e-003
3.409584e+003,-4.132600e-003
3.411512e+003,-4.180548e-003
3.413441e+003,-4.185142e-003
3.415369e+003,-4.091113e-003
3.417298e+003,-3.979072e-003
3.419226e+003,-4.075784e-003
3.421155e+003,-4.236365e-003
3.423083e+003,-4.291027e-003
3.425012e+003,-4.307169e-003
3.426940e+003,-4.302247e-003
3.428869e+003,-4.314845e-003
3.430797e+003,-4.234429e-003
3.432726e+003,-4.249851e-003
3.434654e+003,-4.450479e-003
3.436583e+003,-4.623641e-003
3.438511e+003,-4.580005e-003
3.440440e+003,-4.375172e-003
3.442368e+003,-4.171720e-003
3.444297e+003,-4.215496e-003
3.446225e+003,-4.300771e-003
3.448154e+003,-4.499146e-003
3.450082e+003,-4.612233e-003
3.452011e+003,-4.580824e-003
3.453939e+003,-4.605971e-003
3.455868e+003,-4.745643e-003
3.457796e+003,-4.725683e-003
3.459725e+003,-4.590234e-003
3.461653e+003,-4.602791e-003
3.463582e+003,-4.649343e-003
3.465510e+003,-4.655768e-003
3.467439e+003,-4.659963e-003
3.469367e+003,-4.774516e-003
3.471296e+003,-4.798996e-003
3.473224e+003,-4.732107e-003
3.475153e+003,-4.836319e-003
3.477081e+003,-4.801257e-003
3.479010e+003,-4.676714e-003
3.480938e+003,-4.626723e-003
3.482867e+003,-4.621346e-003
3.484795e+003,-4.521805e-003
3.486724e+003,-4.398199e-003
3.488652e+003,-4.571644e-003
3.490581e+003,-4.872558e-003
3.492509e+003,-4.877931e-003
3.494438e+003,-4.685040e-003
3.496366e+003,-4.495834e-003
3.498295e+003,-4.583087e-003
3.500223e+003,-4.826653e-003
3.502152e+003,-4.921669e-003
3.504080e+003,-4.948532e-003
3.506009e+003,-4.920064e-003
3.507937e+003,-4.836843e-003
3.509866e+003,-4.770059e-003
3.511794e+003,-4.701330e-003
3.513723e+003,-4.777170e-003
3.515651e+003,-4.871510e-003
3.517580e+003,-4.830749e-003
3.519508e+003,-4.834124e-003
3.521437e+003,-4.844117e-003
3.523365e+003,-4.833665e-003
3.525294e+003,-4.755279e-003
3.527222e+003,-4.674616e-003
3.529151e+003,-4.670781e-003
3.531079e+003,-4.774975e-003
3.533008e+003,-4.778416e-003
3.534936e+003,-4.778514e-003
3.536865e+003,-4.845428e-003
3.538793e+003,-4.690022e-003
3.540722e+003,-4.492194e-003
3.542650e+003,-4.440377e-003
3.544579e+003,-4.429784e-003
3.546507e+003,-4.519706e-003
3.548436e+003,-4.713261e-003
3.550364e+003,-4.829831e-003
3.552293e+003,-4.869806e-003
3.554221e+003,-4.901226e-003
3.556150e+003,-4.867250e-003
3.558078e+003,-4.752362e-003
3.560007e+003,-4.708214e-003
3.561935e+003,-4.642557e-003
3.563864e+003,-4.800601e-003
3.565792e+003,-4.694546e-003
3.567721e+003,-4.463991e-003
3.569649e+003,-4.656522e-003
3.571578e+003,-4.794277e-003
3.573506e+003,-4.663340e-003
3.575435e+003,-4.542790e-003
3.577363e+003,-4.497834e-003
3.579292e+003,-4.516722e-003
3.581220e+003,-4.604725e-003
3.583149e+003,-4.683729e-003
3.585077e+003,-4.558168e-003
3.587006e+003,-4.442181e-003
3.588934e+003,-4.458251e-003
3.590863e+003,-4.467270e-003
3.592791e+003,-4.403643e-003
3.594720e+003,-4.396362e-003
3.596648e+003,-4.311434e-003
3.598577e+003,-4.227670e-003
3.600505e+003,-4.173000e-003
3.602434e+003,-4.300607e-003
3.604362e+003,-4.365561e-003
3.606291e+003,-4.343550e-003
3.608219e+003,-4.188489e-003
3.610148e+003,-4.180449e-003
3.612076e+003,-4.337317e-003
3.614005e+003,-4.516460e-003
3.615933e+003,-4.606331e-003
3.617862e+003,-4.291191e-003
3.619790e+003,-4.034062e-003
3.621719e+003,-4.157969e-003
3.623647e+003,-4.294308e-003
3.625576e+003,-4.339712e-003
3.627504e+003,-3.999657e-003
3.629433e+003,-3.835508e-003
3.631361e+003,-4.186520e-003
3.633290e+003,-4.384324e-003
3.635218e+003,-4.419813e-003
3.637146e+003,-4.475469e-003
3.639075e+003,-4.431293e-003
3.641004e+003,-4.314550e-003
3.642932e+003,-4.329050e-003
3.644861e+003,-4.409875e-003
3.646789e+003,-4.291191e-003
3.648718e+003,-4.205717e-003
3.650646e+003,-4.258250e-003
3.652574e+003,-4.410663e-003
3.654503e+003,-4.363954e-003
3.656432e+003,-4.252935e-003
3.658360e+003,-4.553447e-003
3.660289e+003,-4.683007e-003
3.662217e+003,-4.716965e-003
3.664146e+003,-4.738007e-003
3.666074e+003,-4.650424e-003
3.668002e+003,-4.447396e-003
3.669931e+003,-4.226784e-003
3.671860e+003,-4.537282e-003
3.673788e+003,-4.680614e-003
3.675717e+003,-4.536134e-003
3.677645e+003,-4.733352e-003
3.679573e+003,-4.941063e-003
3.681502e+003,-4.820492e-003
3.683430e+003,-4.731616e-003
3.685359e+003,-4.658128e-003
3.687288e+003,-4.440312e-003
3.689216e+003,-4.367595e-003
3.691145e+003,-4.464975e-003
3.693073e+003,-4.528921e-003
3.695001e+003,-4.650522e-003
3.696930e+003,-4.756688e-003
3.698858e+003,-4.740760e-003
3.700787e+003,-4.445395e-003
3.702716e+003,-4.216185e-003
3.704644e+003,-4.198859e-003
3.706573e+003,-4.320258e-003
3.708501e+003,-4.353719e-003
3.710429e+003,-4.140575e-003
3.712358e+003,-4.134274e-003
3.714286e+003,-4.391016e-003
3.716215e+003,-4.516722e-003
3.718144e+003,-4.515050e-003
3.720072e+003,-4.364545e-003
3.722000e+003,-4.250179e-003
3.723929e+003,-4.217465e-003
3.725857e+003,-4.002711e-003
3.727786e+003,-3.794157e-003
3.729714e+003,-4.060324e-003
3.731643e+003,-4.231706e-003
3.733572e+003,-4.226587e-003
3.735500e+003,-4.207194e-003
3.737428e+003,-4.419354e-003
3.739357e+003,-4.297687e-003
3.741285e+003,-3.911007e-003
3.743214e+003,-3.656577e-003
3.745142e+003,-3.522437e-003
3.747071e+003,-3.834096e-003
3.749000e+003,-3.709932e-003
3.750928e+003,-3.410973e-003
3.752856e+003,-3.350873e-003
3.754785e+003,-3.527729e-003
3.756713e+003,-3.548401e-003
3.758642e+003,-3.579128e-003
3.760570e+003,-3.668044e-003
3.762499e+003,-3.840664e-003
3.764427e+003,-3.593127e-003
3.766356e+003,-3.502947e-003
3.768284e+003,-3.493875e-003
3.770213e+003,-3.438652e-003
3.772141e+003,-3.532790e-003
3.774070e+003,-3.492889e-003
3.775998e+003,-3.593653e-003
3.777927e+003,-3.649184e-003
3.779855e+003,-3.575677e-003
3.781784e+003,-3.577945e-003
3.783712e+003,-3.534170e-003
3.785641e+003,-3.403839e-003
3.787569e+003,-3.602788e-003
3.789498e+003,-3.638046e-003
3.791426e+003,-3.522273e-003
3.793355e+003,-3.568283e-003
3.795283e+003,-3.537260e-003
3.797212e+003,-3.444307e-003
3.799140e+003,-3.516981e-003
3.801069e+003,-3.418731e-003
3.802997e+003,-3.403017e-003
3.804926e+003,-3.678886e-003
3.806854e+003,-3.693801e-003
3.808783e+003,-3.664791e-003
3.810711e+003,-3.441545e-003
3.812640e+003,-3.378919e-003
3.814568e+003,-3.353602e-003
3.816497e+003,-3.163717e-003
3.818425e+003,-3.158223e-003
3.820354e+003,-2.821654e-003
3.822282e+003,-2.915365e-003
3.824211e+003,-3.230683e-003
3.826139e+003,-3.326772e-003
3.828068e+003,-3.268108e-003
3.829996e+003,-2.960815e-003
3.831925e+003,-2.842755e-003
3.833853e+003,-2.946894e-003
3.835782e+003,-2.825110e-003
3.837710e+003,-2.643589e-003
3.839639e+003,-2.895354e-003
3.841567e+003,-2.883999e-003
3.843496e+003,-2.731840e-003
3.845424e+003,-2.693874e-003
3.847353e+003,-3.003035e-003
3.849281e+003,-3.138223e-003
3.851210e+003,-2.769276e-003
3.853138e+003,-2.199195e-003
3.855067e+003,-2.460608e-003
3.856995e+003,-2.962296e-003
3.858924e+003,-2.983225e-003
3.860852e+003,-2.983093e-003
3.862781e+003,-2.896736e-003
3.864709e+003,-2.777869e-003
3.866638e+003,-2.818921e-003
3.868566e+003,-2.882715e-003
3.870495e+003,-2.982732e-003
3.872423e+003,-3.131249e-003
3.874352e+003,-2.830278e-003
3.876280e+003,-2.914542e-003
3.878209e+003,-3.052193e-003
3.880137e+003,-3.100820e-003
3.882066e+003,-3.154474e-003
3.883994e+003,-2.944985e-003
3.885923e+003,-2.744352e-003
3.887851e+003,-2.991156e-003
3.889780e+003,-2.942320e-003
3.891708e+003,-2.958083e-003
3.893637e+003,-3.114637e-003
3.895565e+003,-3.140066e-003
3.897494e+003,-3.113749e-003
3.899422e+003,-2.977927e-003
3.901351e+003,-2.970621e-003
3.903279e+003,-2.808321e-003
3.905208e+003,-2.674479e-003
3.907136e+003,-2.841932e-003
3.909065e+003,-3.007707e-003
3.910993e+003,-3.085193e-003
3.912922e+003,-2.966870e-003
3.914850e+003,-2.722324e-003
3.916779e+003,-2.907302e-003
3.918707e+003,-3.077264e-003
3.920636e+003,-2.970852e-003
3.922564e+003,-3.018402e-003
3.924493e+003,-2.854769e-003
3.926421e+003,-2.686400e-003
3.928350e+003,-2.789128e-003
3.930278e+003,-2.853025e-003
3.932207e+003,-2.832451e-003
3.934135e+003,-2.696278e-003
3.936064e+003,-2.480738e-003
3.937992e+003,-2.479519e-003
3.939921e+003,-2.667563e-003
3.941849e+003,-2.781161e-003
3.943778e+003,-2.666970e-003
3.945706e+003,-2.837455e-003
3.947635e+003,-2.895815e-003
3.949563e+003,-2.883077e-003
3.951492e+003,-2.842491e-003
3.953420e+003,-2.720974e-003
3.955349e+003,-2.663776e-003
3.957277e+003,-2.818526e-003
3.959206e+003,-2.990794e-003
3.961134e+003,-3.104044e-003
3.963063e+003,-2.947388e-003
3.964991e+003,-2.907598e-003
3.966920e+003,-2.913094e-003
3.968848e+003,-2.783861e-003
3.970777e+003,-2.617670e-003
3.972705e+003,-2.531075e-003
3.974634e+003,-2.659067e-003
3.976562e+003,-2.680604e-003
3.978491e+003,-2.800321e-003
3.980419e+003,-2.942616e-003
3.982348e+003,-2.862702e-003
3.984276e+003,-2.679912e-003
3.986205e+003,-2.713664e-003
3.988133e+003,-2.727099e-003
3.990062e+003,-2.633248e-003
3.991990e+003,-2.511211e-003
3.993919e+003,-2.519809e-003
3.995847e+003,-2.704313e-003
3.997776e+003,-2.827118e-003
3.999704e+003,-2.683074e-003
4.001633e+003,0.000000e+000
