3.991989e+002,-1.125001e-002
4.011274e+002,-8.593057e-003
4.030559e+002,-1.869422e-002
4.049844e+002,-2.128459e-002
4.069129e+002,-1.454503e-002
4.088414e+002,-9.052995e-003
4.107699e+002,-7.874970e-003
4.126984e+002,-7.814087e-003
4.146269e+002,-1.297437e-002
4.165554e+002,-1.450257e-002
4.184839e+002,-9.427118e-003
4.204124e+002,-8.835197e-003
4.223409e+002,-8.463293e-003
4.242694e+002,-4.523740e-003
4.261979e+002,-4.884549e-003
4.281264e+002,-8.455494e-003
4.300549e+002,-1.205082e-002
4.319834e+002,-1.895766e-002
4.339119e+002,-1.925141e-002
4.358404e+002,-1.026725e-002
4.377689e+002,-7.963304e-003
4.396974e+002,-1.225683e-002
4.416259e+002,-1.225757e-002
4.435544e+002,-9.307072e-003
4.454829e+002,-7.954000e-003
4.474114e+002,-6.160612e-003
4.493399e+002,-9.132329e-003
4.512684e+002,-1.339166e-002
4.531969e+002,-1.416076e-002
4.551254e+002,-1.189204e-002
4.570539e+002,-1.108086e-002
4.589824e+002,-1.412397e-002
4.609109e+002,-1.357934e-002
4.628394e+002,-1.165156e-002
4.647679e+002,-1.233342e-002
4.666964e+002,-1.087218e-002
4.686249e+002,-1.181994e-002
4.705533e+002,-1.206200e-002
4.724819e+002,-1.117290e-002
4.744103e+002,-1.122937e-002
4.763389e+002,-1.182375e-002
4.782673e+002,-1.121307e-002
4.801959e+002,-8.957547e-003
4.821243e+002,-8.547869e-003
4.840529e+002,-8.217695e-003
4.859813e+002,-6.335021e-003
4.879099e+002,-7.909331e-003
4.898383e+002,-1.103735e-002
4.917668e+002,-1.385607e-002
4.936953e+002,-1.142038e-002
4.956238e+002,-7.978952e-003
4.975523e+002,-6.694329e-003
4.994808e+002,-6.178481e-003
5.014093e+002,-9.665780e-003
5.033378e+002,-1.025269e-002
5.052663e+002,-1.196457e-002
5.071948e+002,-1.353290e-002
5.091233e+002,-1.477638e-002
5.110518e+002,-1.547938e-002
5.129803e+002,-1.629379e-002
5.149088e+002,-1.598079e-002
5.168373e+002,-1.489207e-002
5.187658e+002,-1.383646e-002
5.206943e+002,-1.425776e-002
5.226228e+002,-1.521571e-002
5.245513e+002,-1.628766e-002
5.264798e+002,-1.587523e-002
5.284083e+002,-1.505337e-002
5.303368e+002,-1.627952e-002
5.322653e+002,-1.721102e-002
5.341938e+002,-1.620841e-002
5.361223e+002,-1.625970e-002
5.380508e+002,-1.655547e-002
5.399792e+002,-1.529108e-002
5.419078e+002,-1.612522e-002
5.438363e+002,-1.628163e-002
5.457648e+002,-1.532623e-002
5.476932e+002,-1.631089e-002
5.496218e+002,-1.619280e-002
5.515503e+002,-1.535067e-002
5.534788e+002,-1.540200e-002
5.554072e+002,-1.468304e-002
5.573358e+002,-1.316317e-002
5.592643e+002,-1.295758e-002
5.611927e+002,-1.455522e-002
5.631212e+002,-1.495440e-002
5.650497e+002,-1.466793e-002
5.669783e+002,-1.415104e-002
5.689067e+002,-1.328025e-002
5.708352e+002,-1.381419e-002
5.727637e+002,-1.512964e-002
5.746923e+002,-1.641307e-002
5.766207e+002,-1.512912e-002
5.785492e+002,-1.204076e-002
5.804777e+002,-1.166327e-002
5.824063e+002,-1.623210e-002
5.843347e+002,-1.590893e-002
5.862632e+002,-1.390842e-002
5.881917e+002,-1.425116e-002
5.901202e+002,-1.534478e-002
5.920487e+002,-1.736487e-002
5.939772e+002,-1.684542e-002
5.959057e+002,-1.496583e-002
5.978342e+002,-1.466668e-002
5.997627e+002,-1.397978e-002
6.016912e+002,-1.336300e-002
6.036197e+002,-1.304225e-002
6.055482e+002,-1.229265e-002
6.074767e+002,-1.088010e-002
6.094052e+002,-8.718821e-003
6.113337e+002,-7.199920e-003
6.132622e+002,-8.410649e-003
6.151907e+002,-8.944921e-003
6.171192e+002,-8.574281e-003
6.190477e+002,-8.919765e-003
6.209762e+002,-9.789645e-003
6.229047e+002,-1.157553e-002
6.248332e+002,-1.483793e-002
6.267617e+002,-1.695706e-002
6.286902e+002,-1.719025e-002
6.306187e+002,-1.630043e-002
6.325472e+002,-1.575916e-002
6.344756e+002,-1.508903e-002
6.364042e+002,-1.536151e-002
6.383326e+002,-1.564421e-002
6.402612e+002,-1.601126e-002
6.421896e+002,-1.558769e-002
6.441182e+002,-1.594579e-002
6.460466e+002,-1.641814e-002
6.479752e+002,-1.653467e-002
6.499036e+002,-1.695285e-002
6.518322e+002,-1.711107e-002
6.537606e+002,-1.654520e-002
6.556891e+002,-1.639303e-002
6.576177e+002,-1.656564e-002
6.595461e+002,-1.689766e-002
6.614746e+002,-1.756335e-002
6.634031e+002,-1.774027e-002
6.653317e+002,-1.729107e-002
6.672601e+002,-1.613397e-002
6.691886e+002,-1.607707e-002
6.711171e+002,-1.632797e-002
6.730457e+002,-1.590343e-002
6.749741e+002,-1.637446e-002
6.769026e+002,-1.684555e-002
6.788311e+002,-1.642114e-002
6.807596e+002,-1.610721e-002
6.826881e+002,-1.610967e-002
6.846166e+002,-1.601410e-002
6.865451e+002,-1.572142e-002
6.884736e+002,-1.534612e-002
6.904021e+002,-1.500370e-002
6.923306e+002,-1.469605e-002
6.942591e+002,-1.406803e-002
6.961876e+002,-1.388185e-002
6.981161e+002,-1.382218e-002
7.000446e+002,-1.380347e-002
7.019731e+002,-1.411214e-002
7.039016e+002,-1.419700e-002
7.058301e+002,-1.420752e-002
7.077585e+002,-1.416612e-002
7.096871e+002,-1.419950e-002
7.116156e+002,-1.420986e-002
7.135441e+002,-1.467430e-002
7.154725e+002,-1.449766e-002
7.174011e+002,-1.448071e-002
7.193296e+002,-1.460081e-002
7.212581e+002,-1.419892e-002
7.231865e+002,-1.384253e-002
7.251151e+002,-1.386108e-002
7.270436e+002,-1.391891e-002
7.289720e+002,-1.386025e-002
7.309005e+002,-1.343805e-002
7.328290e+002,-1.319576e-002
7.347576e+002,-1.339895e-002
7.366860e+002,-1.380764e-002
7.386145e+002,-1.405735e-002
7.405430e+002,-1.342847e-002
7.424716e+002,-1.281828e-002
7.444000e+002,-1.281249e-002
7.463285e+002,-1.256747e-002
7.482570e+002,-1.224079e-002
7.501855e+002,-1.221006e-002
7.521140e+002,-1.177661e-002
7.540425e+002,-1.156517e-002
7.559710e+002,-1.174958e-002
7.578995e+002,-1.146808e-002
7.598280e+002,-1.128207e-002
7.617565e+002,-1.112113e-002
7.636850e+002,-1.078926e-002
7.656135e+002,-1.034982e-002
7.675420e+002,-1.009156e-002
7.694705e+002,-1.027809e-002
7.713990e+002,-1.060948e-002
7.733275e+002,-1.053475e-002
7.752560e+002,-1.057362e-002
7.771844e+002,-1.095018e-002
7.791130e+002,-1.114632e-002
7.810415e+002,-1.106354e-002
7.829700e+002,-1.177116e-002
7.848984e+002,-1.208830e-002
7.868270e+002,-1.177193e-002
7.887555e+002,-1.187846e-002
7.906840e+002,-1.254252e-002
7.926124e+002,-1.297643e-002
7.945410e+002,-1.311517e-002
7.964695e+002,-1.303200e-002
7.983979e+002,-1.301399e-002
8.003264e+002,-1.326695e-002
8.022549e+002,-1.313491e-002
8.041835e+002,-1.280715e-002
8.061119e+002,-1.313211e-002
8.080404e+002,-1.327077e-002
8.099689e+002,-1.313031e-002
8.118975e+002,-1.292070e-002
8.138259e+002,-1.302360e-002
8.157545e+002,-1.336521e-002
8.176830e+002,-1.332415e-002
8.196115e+002,-1.325808e-002
8.215399e+002,-1.326223e-002
8.234684e+002,-1.296431e-002
8.253970e+002,-1.227757e-002
8.273254e+002,-1.168553e-002
8.292539e+002,-1.171775e-002
8.311824e+002,-1.159143e-002
8.331110e+002,-1.124875e-002
8.350394e+002,-1.136693e-002
8.369679e+002,-1.143106e-002
8.388964e+002,-1.128904e-002
8.408250e+002,-1.128268e-002
8.427534e+002,-1.153046e-002
8.446819e+002,-1.210612e-002
8.466104e+002,-1.207992e-002
8.485389e+002,-1.201778e-002
8.504674e+002,-1.232698e-002
8.523959e+002,-1.237645e-002
8.543244e+002,-1.227023e-002
8.562529e+002,-1.224585e-002
8.581814e+002,-1.203793e-002
8.601099e+002,-1.211346e-002
8.620384e+002,-1.258083e-002
8.639669e+002,-1.231854e-002
8.658954e+002,-1.222858e-002
8.678239e+002,-1.280393e-002
8.697524e+002,-1.298778e-002
8.716809e+002,-1.300286e-002
8.736094e+002,-1.309505e-002
8.755378e+002,-1.322649e-002
8.774664e+002,-1.295180e-002
8.793949e+002,-1.311176e-002
8.813234e+002,-1.340868e-002
8.832518e+002,-1.314150e-002
8.851804e+002,-1.283838e-002
8.871089e+002,-1.314417e-002
8.890374e+002,-1.354999e-002
8.909658e+002,-1.343859e-002
8.928943e+002,-1.307129e-002
8.948229e+002,-1.283018e-002
8.967513e+002,-1.266875e-002
8.986798e+002,-1.269102e-002
9.006083e+002,-1.279679e-002
9.025369e+002,-1.290194e-002
9.044653e+002,-1.277780e-002
9.063938e+002,-1.274438e-002
9.083223e+002,-1.295752e-002
9.102509e+002,-1.312022e-002
9.121793e+002,-1.273530e-002
9.141078e+002,-1.296405e-002
9.160364e+002,-1.327164e-002
9.179648e+002,-1.316908e-002
9.198933e+002,-1.328562e-002
9.218218e+002,-1.346722e-002
9.237504e+002,-1.352763e-002
9.256788e+002,-1.345295e-002
9.276073e+002,-1.352384e-002
9.295358e+002,-1.379955e-002
9.314644e+002,-1.382639e-002
9.333928e+002,-1.368909e-002
9.353213e+002,-1.356858e-002
9.372498e+002,-1.349693e-002
9.391783e+002,-1.390928e-002
9.411068e+002,-1.416448e-002
9.430353e+002,-1.407961e-002
9.449637e+002,-1.402569e-002
9.468923e+002,-1.380398e-002
9.488208e+002,-1.391586e-002
9.507493e+002,-1.387353e-002
9.526777e+002,-1.388586e-002
9.546063e+002,-1.387905e-002
9.565348e+002,-1.385893e-002
9.584633e+002,-1.412166e-002
9.603917e+002,-1.437158e-002
9.623203e+002,-1.417558e-002
9.642488e+002,-1.403942e-002
9.661772e+002,-1.400111e-002
9.681057e+002,-1.417359e-002
9.700343e+002,-1.451965e-002
9.719628e+002,-1.441716e-002
9.738912e+002,-1.429929e-002
9.758197e+002,-1.451894e-002
9.777483e+002,-1.439706e-002
9.796768e+002,-1.444120e-002
9.816052e+002,-1.482749e-002
9.835337e+002,-1.491973e-002
9.854623e+002,-1.487555e-002
9.873907e+002,-1.483376e-002
9.893192e+002,-1.484058e-002
9.912477e+002,-1.511114e-002
9.931763e+002,-1.520541e-002
9.951047e+002,-1.527105e-002
9.970332e+002,-1.539039e-002
9.989617e+002,-1.518816e-002
1.000890e+003,-1.495943e-002
1.002819e+003,-1.472414e-002
1.004747e+003,-1.457854e-002
1.006676e+003,-1.452122e-002
1.008604e+003,-1.439793e-002
1.010533e+003,-1.408128e-002
1.012461e+003,-1.380418e-002
1.014390e+003,-1.367660e-002
1.016318e+003,-1.320656e-002
1.018247e+003,-1.281940e-002
1.020175e+003,-1.260156e-002
1.022104e+003,-1.218357e-002
1.024032e+003,-1.185309e-002
1.025961e+003,-1.138856e-002
1.027889e+003,-1.093510e-002
1.029818e+003,-1.044335e-002
1.031746e+003,-9.966197e-003
1.033675e+003,-9.578926e-003
1.035603e+003,-9.307884e-003
1.037532e+003,-8.877208e-003
1.039460e+003,-8.466998e-003
1.041389e+003,-8.280343e-003
1.043317e+003,-7.955627e-003
1.045246e+003,-7.656321e-003
1.047174e+003,-7.345635e-003
1.049103e+003,-7.351792e-003
1.051031e+003,-7.646717e-003
1.052960e+003,-7.501983e-003
1.054888e+003,-7.275130e-003
1.056817e+003,-7.227653e-003
1.058745e+003,-7.255449e-003
1.060674e+003,-7.261640e-003
1.062602e+003,-7.276987e-003
1.064531e+003,-7.357591e-003
1.066459e+003,-7.451143e-003
1.068388e+003,-7.429288e-003
1.070316e+003,-7.255937e-003
1.072245e+003,-7.186819e-003
1.074173e+003,-7.263367e-003
1.076102e+003,-7.321200e-003
1.078030e+003,-7.351629e-003
1.079959e+003,-7.514684e-003
1.081887e+003,-7.656940e-003
1.083816e+003,-7.500452e-003
1.085744e+003,-7.328205e-003
1.087673e+003,-7.487230e-003
1.089601e+003,-7.496023e-003
1.091530e+003,-7.280017e-003
1.093458e+003,-7.145134e-003
1.095387e+003,-7.351532e-003
1.097315e+003,-7.638676e-003
1.099244e+003,-7.624448e-003
1.101172e+003,-7.448375e-003
1.103101e+003,-7.606183e-003
1.105029e+003,-7.676309e-003
1.106958e+003,-7.697794e-003
1.108886e+003,-7.662637e-003
1.110815e+003,-7.737961e-003
1.112743e+003,-7.861988e-003
1.114672e+003,-7.917269e-003
1.116600e+003,-7.714167e-003
1.118529e+003,-7.408181e-003
1.120457e+003,-7.343778e-003
1.122386e+003,-7.451958e-003
1.124314e+003,-7.672240e-003
1.126243e+003,-7.852942e-003
1.128171e+003,-7.950258e-003
1.130100e+003,-7.987865e-003
1.132028e+003,-8.072793e-003
1.133957e+003,-8.378442e-003
1.135885e+003,-8.523210e-003
1.137814e+003,-8.753666e-003
1.139742e+003,-9.223975e-003
1.141671e+003,-9.454255e-003
1.143599e+003,-9.612794e-003
1.145528e+003,-1.003568e-002
1.147456e+003,-1.053536e-002
1.149385e+003,-1.083531e-002
1.151313e+003,-1.108040e-002
1.153242e+003,-1.142893e-002
1.155170e+003,-1.145085e-002
1.157099e+003,-1.151109e-002
1.159027e+003,-1.171456e-002
1.160956e+003,-1.182946e-002
1.162884e+003,-1.185393e-002
1.164813e+003,-1.195509e-002
1.166741e+003,-1.208043e-002
1.168670e+003,-1.209513e-002
1.170598e+003,-1.199619e-002
1.172526e+003,-1.198062e-002
1.174455e+003,-1.202546e-002
1.176384e+003,-1.190471e-002
1.178312e+003,-1.181924e-002
1.180240e+003,-1.196496e-002
1.182169e+003,-1.207354e-002
1.184098e+003,-1.212213e-002
1.186026e+003,-1.216547e-002
1.187954e+003,-1.219105e-002
1.189883e+003,-1.233439e-002
1.191812e+003,-1.251806e-002
1.193740e+003,-1.259412e-002
1.195668e+003,-1.285054e-002
1.197597e+003,-1.309826e-002
1.199526e+003,-1.321871e-002
1.201454e+003,-1.318686e-002
1.203382e+003,-1.310228e-002
1.205311e+003,-1.308408e-002
1.207240e+003,-1.302949e-002
1.209168e+003,-1.299904e-002
1.211096e+003,-1.308505e-002
1.213025e+003,-1.287406e-002
1.214953e+003,-1.273150e-002
1.216882e+003,-1.280885e-002
1.218810e+003,-1.292925e-002
1.220739e+003,-1.303216e-002
1.222667e+003,-1.295646e-002
1.224596e+003,-1.290040e-002
1.226524e+003,-1.283986e-002
1.228453e+003,-1.269704e-002
1.230381e+003,-1.270560e-002
1.232310e+003,-1.262026e-002
1.234238e+003,-1.253261e-002
1.236167e+003,-1.252636e-002
1.238095e+003,-1.257436e-002
1.240024e+003,-1.254603e-002
1.241952e+003,-1.254072e-002
1.243881e+003,-1.283330e-002
1.245809e+003,-1.319264e-002
1.247738e+003,-1.334433e-002
1.249666e+003,-1.320389e-002
1.251595e+003,-1.325400e-002
1.253523e+003,-1.354803e-002
1.255452e+003,-1.371805e-002
1.257380e+003,-1.409405e-002
1.259309e+003,-1.433131e-002
1.261237e+003,-1.425712e-002
1.263166e+003,-1.414501e-002
1.265094e+003,-1.400208e-002
1.267023e+003,-1.382478e-002
1.268951e+003,-1.381775e-002
1.270880e+003,-1.381785e-002
1.272808e+003,-1.397898e-002
1.274737e+003,-1.399271e-002
1.276665e+003,-1.385874e-002
1.278594e+003,-1.389985e-002
1.280522e+003,-1.394942e-002
1.282451e+003,-1.407740e-002
1.284379e+003,-1.417314e-002
1.286308e+003,-1.424984e-002
1.288236e+003,-1.430124e-002
1.290165e+003,-1.424282e-002
1.292093e+003,-1.432118e-002
1.294022e+003,-1.436109e-002
1.295950e+003,-1.440889e-002
1.297879e+003,-1.447959e-002
1.299807e+003,-1.464070e-002
1.301736e+003,-1.479530e-002
1.303664e+003,-1.495623e-002
1.305593e+003,-1.515588e-002
1.307521e+003,-1.512096e-002
1.309450e+003,-1.511677e-002
1.311378e+003,-1.537644e-002
1.313307e+003,-1.559182e-002
1.315235e+003,-1.562253e-002
1.317164e+003,-1.551960e-002
1.319092e+003,-1.565005e-002
1.321021e+003,-1.584274e-002
1.322949e+003,-1.588622e-002
1.324878e+003,-1.578833e-002
1.326806e+003,-1.567428e-002
1.328735e+003,-1.541994e-002
1.330663e+003,-1.517399e-002
1.332592e+003,-1.511114e-002
1.334520e+003,-1.522531e-002
1.336449e+003,-1.519274e-002
1.338377e+003,-1.515072e-002
1.340306e+003,-1.512532e-002
1.342234e+003,-1.516308e-002
1.344163e+003,-1.517427e-002
1.346091e+003,-1.515831e-002
1.348020e+003,-1.506912e-002
1.349948e+003,-1.513748e-002
1.351877e+003,-1.520371e-002
1.353805e+003,-1.512672e-002
1.355734e+003,-1.516458e-002
1.357662e+003,-1.527623e-002
1.359591e+003,-1.528836e-002
1.361519e+003,-1.524776e-002
1.363448e+003,-1.534398e-002
1.365376e+003,-1.565456e-002
1.367305e+003,-1.595339e-002
1.369233e+003,-1.612318e-002
1.371162e+003,-1.621923e-002
1.373090e+003,-1.622153e-002
1.375019e+003,-1.634871e-002
1.376947e+003,-1.652013e-002
1.378876e+003,-1.655458e-002
1.380804e+003,-1.664904e-002
1.382733e+003,-1.666792e-002
1.384661e+003,-1.671121e-002
1.386590e+003,-1.661450e-002
1.388518e+003,-1.663510e-002
1.390447e+003,-1.691767e-002
1.392375e+003,-1.705930e-002
1.394304e+003,-1.696299e-002
1.396232e+003,-1.711480e-002
1.398161e+003,-1.718987e-002
1.400089e+003,-1.719723e-002
1.402018e+003,-1.741383e-002
1.403946e+003,-1.750190e-002
1.405875e+003,-1.751995e-002
1.407803e+003,-1.761611e-002
1.409732e+003,-1.762104e-002
1.411660e+003,-1.758085e-002
1.413589e+003,-1.753452e-002
1.415517e+003,-1.734160e-002
1.417446e+003,-1.686343e-002
1.419374e+003,-1.646201e-002
1.421303e+003,-1.652134e-002
1.423231e+003,-1.639702e-002
1.425160e+003,-1.614498e-002
1.427088e+003,-1.587264e-002
1.429017e+003,-1.539435e-002
1.430945e+003,-1.505856e-002
1.432874e+003,-1.464566e-002
1.434802e+003,-1.394083e-002
1.436731e+003,-1.330648e-002
1.438659e+003,-1.330114e-002
1.440588e+003,-1.323343e-002
1.442516e+003,-1.289512e-002
1.444445e+003,-1.264883e-002
1.446373e+003,-1.240237e-002
1.448302e+003,-1.205662e-002
1.450230e+003,-1.188794e-002
1.452159e+003,-1.176503e-002
1.454087e+003,-1.157817e-002
1.456016e+003,-1.079856e-002
1.457944e+003,-1.045891e-002
1.459873e+003,-1.109242e-002
1.461801e+003,-1.166792e-002
1.463730e+003,-1.183439e-002
1.465658e+003,-1.196225e-002
1.467587e+003,-1.251175e-002
1.469515e+003,-1.283928e-002
1.471444e+003,-1.272610e-002
1.473372e+003,-1.283262e-002
1.475301e+003,-1.336550e-002
1.477229e+003,-1.393826e-002
1.479158e+003,-1.451289e-002
1.481086e+003,-1.478499e-002
1.483015e+003,-1.517642e-002
1.484943e+003,-1.554153e-002
1.486872e+003,-1.552705e-002
1.488800e+003,-1.549290e-002
1.490729e+003,-1.554077e-002
1.492657e+003,-1.596530e-002
1.494586e+003,-1.617167e-002
1.496514e+003,-1.597405e-002
1.498443e+003,-1.601650e-002
1.500371e+003,-1.629420e-002
1.502300e+003,-1.649525e-002
1.504228e+003,-1.620921e-002
1.506157e+003,-1.533954e-002
1.508085e+003,-1.555512e-002
1.510014e+003,-1.630707e-002
1.511942e+003,-1.655591e-002
1.513871e+003,-1.655936e-002
1.515799e+003,-1.633898e-002
1.517728e+003,-1.627904e-002
1.519656e+003,-1.622367e-002
1.521585e+003,-1.592270e-002
1.523513e+003,-1.626637e-002
1.525442e+003,-1.642497e-002
1.527370e+003,-1.658861e-002
1.529299e+003,-1.673554e-002
1.531227e+003,-1.672317e-002
1.533156e+003,-1.644341e-002
1.535084e+003,-1.659454e-002
1.537013e+003,-1.678495e-002
1.538941e+003,-1.607793e-002
1.540870e+003,-1.561899e-002
1.542798e+003,-1.593601e-002
1.544727e+003,-1.635758e-002
1.546655e+003,-1.684507e-002
1.548584e+003,-1.691203e-002
1.550512e+003,-1.685368e-002
1.552441e+003,-1.690556e-002
1.554369e+003,-1.681948e-002
1.556298e+003,-1.675381e-002
1.558226e+003,-1.583555e-002
1.560155e+003,-1.562445e-002
1.562083e+003,-1.636495e-002
1.564012e+003,-1.648405e-002
1.565940e+003,-1.648443e-002
1.567869e+003,-1.624043e-002
1.569797e+003,-1.575162e-002
1.571726e+003,-1.597195e-002
1.573654e+003,-1.605383e-002
1.575583e+003,-1.539819e-002
1.577511e+003,-1.528071e-002
1.579440e+003,-1.565709e-002
1.581368e+003,-1.557165e-002
1.583297e+003,-1.548127e-002
1.585225e+003,-1.538940e-002
1.587154e+003,-1.534149e-002
1.589082e+003,-1.538015e-002
1.591010e+003,-1.543692e-002
1.592939e+003,-1.539320e-002
1.594868e+003,-1.531200e-002
1.596796e+003,-1.525426e-002
1.598724e+003,-1.528180e-002
1.600653e+003,-1.529920e-002
1.602582e+003,-1.534033e-002
1.604510e+003,-1.552094e-002
1.606438e+003,-1.559287e-002
1.608367e+003,-1.549457e-002
1.610296e+003,-1.564363e-002
1.612224e+003,-1.592844e-002
1.614152e+003,-1.596227e-002
1.616081e+003,-1.562573e-002
1.618010e+003,-1.574264e-002
1.619938e+003,-1.623296e-002
1.621866e+003,-1.632398e-002
1.623795e+003,-1.646022e-002
1.625724e+003,-1.681756e-002
1.627652e+003,-1.696707e-002
1.629580e+003,-1.705746e-002
1.631509e+003,-1.732893e-002
1.633438e+003,-1.721398e-002
1.635366e+003,-1.664815e-002
1.637294e+003,-1.688670e-002
1.639223e+003,-1.757579e-002
1.641151e+003,-1.794958e-002
1.643080e+003,-1.826354e-002
1.645008e+003,-1.803710e-002
1.646937e+003,-1.769676e-002
1.648865e+003,-1.819504e-002
1.650794e+003,-1.844459e-002
1.652722e+003,-1.748764e-002
1.654651e+003,-1.787664e-002
1.656579e+003,-1.884162e-002
1.658508e+003,-1.905918e-002
1.660436e+003,-1.898037e-002
1.662365e+003,-1.869768e-002
1.664293e+003,-1.865150e-002
1.666222e+003,-1.875931e-002
1.668150e+003,-1.834912e-002
1.670079e+003,-1.794872e-002
1.672007e+003,-1.803757e-002
1.673936e+003,-1.790049e-002
1.675864e+003,-1.774018e-002
1.677793e+003,-1.800372e-002
1.679721e+003,-1.801742e-002
1.681650e+003,-1.782188e-002
1.683578e+003,-1.707613e-002
1.685507e+003,-1.706867e-002
1.687435e+003,-1.756112e-002
1.689364e+003,-1.765152e-002
1.691292e+003,-1.767210e-002
1.693221e+003,-1.750664e-002
1.695149e+003,-1.680446e-002
1.697078e+003,-1.655368e-002
1.699006e+003,-1.641093e-002
1.700935e+003,-1.608959e-002
1.702863e+003,-1.661268e-002
1.704792e+003,-1.651987e-002
1.706720e+003,-1.641093e-002
1.708649e+003,-1.654957e-002
1.710577e+003,-1.664059e-002
1.712506e+003,-1.655891e-002
1.714434e+003,-1.631185e-002
1.716363e+003,-1.593036e-002
1.718291e+003,-1.576766e-002
1.720220e+003,-1.608275e-002
1.722148e+003,-1.631699e-002
1.724077e+003,-1.639485e-002
1.726005e+003,-1.639313e-002
1.727934e+003,-1.634731e-002
1.729862e+003,-1.632548e-002
1.731791e+003,-1.616315e-002
1.733719e+003,-1.567313e-002
1.735648e+003,-1.579980e-002
1.737576e+003,-1.623321e-002
1.739505e+003,-1.611060e-002
1.741433e+003,-1.618677e-002
1.743362e+003,-1.613441e-002
1.745290e+003,-1.608936e-002
1.747219e+003,-1.594783e-002
1.749147e+003,-1.567419e-002
1.751076e+003,-1.544341e-002
1.753004e+003,-1.561374e-002
1.754933e+003,-1.577309e-002
1.756861e+003,-1.567786e-002
1.758790e+003,-1.579092e-002
1.760718e+003,-1.571142e-002
1.762647e+003,-1.558044e-002
1.764575e+003,-1.580111e-002
1.766504e+003,-1.575666e-002
1.768432e+003,-1.560550e-002
1.770361e+003,-1.554582e-002
1.772289e+003,-1.527112e-002
1.774218e+003,-1.541204e-002
1.776146e+003,-1.574778e-002
1.778075e+003,-1.591631e-002
1.780003e+003,-1.587117e-002
1.781932e+003,-1.586753e-002
1.783860e+003,-1.600449e-002
1.785789e+003,-1.590727e-002
1.787717e+003,-1.582066e-002
1.789646e+003,-1.575037e-002
1.791574e+003,-1.541082e-002
1.793503e+003,-1.529498e-002
1.795431e+003,-1.561745e-002
1.797360e+003,-1.573065e-002
1.799288e+003,-1.570838e-002
1.801217e+003,-1.572123e-002
1.803145e+003,-1.580903e-002
1.805074e+003,-1.573331e-002
1.807002e+003,-1.571158e-002
1.808931e+003,-1.572845e-002
1.810859e+003,-1.574027e-002
1.812788e+003,-1.583459e-002
1.814716e+003,-1.595598e-002
1.816645e+003,-1.590158e-002
1.818573e+003,-1.588685e-002
1.820502e+003,-1.592484e-002
1.822430e+003,-1.592023e-002
1.824359e+003,-1.575861e-002
1.826287e+003,-1.569761e-002
1.828216e+003,-1.568387e-002
1.830144e+003,-1.568198e-002
1.832073e+003,-1.602534e-002
1.834001e+003,-1.609894e-002
1.835930e+003,-1.594575e-002
1.837858e+003,-1.600379e-002
1.839787e+003,-1.610980e-002
1.841715e+003,-1.606392e-002
1.843644e+003,-1.572695e-002
1.845572e+003,-1.573800e-002
1.847501e+003,-1.599571e-002
1.849429e+003,-1.608413e-002
1.851358e+003,-1.607650e-002
1.853286e+003,-1.604166e-002
1.855215e+003,-1.600874e-002
1.857143e+003,-1.596735e-002
1.859072e+003,-1.592854e-002
1.861000e+003,-1.591222e-002
1.862929e+003,-1.595083e-002
1.864857e+003,-1.592876e-002
1.866786e+003,-1.590458e-002
1.868714e+003,-1.585357e-002
1.870643e+003,-1.594167e-002
1.872571e+003,-1.610191e-002
1.874500e+003,-1.616966e-002
1.876428e+003,-1.615979e-002
1.878357e+003,-1.604354e-002
1.880285e+003,-1.600593e-002
1.882214e+003,-1.601407e-002
1.884142e+003,-1.604300e-002
1.886071e+003,-1.612771e-002
1.887999e+003,-1.608904e-002
1.889928e+003,-1.606491e-002
1.891856e+003,-1.625061e-002
1.893785e+003,-1.622482e-002
1.895713e+003,-1.613282e-002
1.897642e+003,-1.613978e-002
1.899570e+003,-1.606481e-002
1.901499e+003,-1.603457e-002
1.903427e+003,-1.617547e-002
1.905356e+003,-1.622890e-002
1.907284e+003,-1.613473e-002
1.909213e+003,-1.605481e-002
1.911141e+003,-1.614198e-002
1.913070e+003,-1.624965e-002
1.914998e+003,-1.616528e-002
1.916927e+003,-1.604450e-002
1.918855e+003,-1.601525e-002
1.920784e+003,-1.607848e-002
1.922712e+003,-1.613853e-002
1.924641e+003,-1.620531e-002
1.926569e+003,-1.613062e-002
1.928498e+003,-1.615095e-002
1.930426e+003,-1.620873e-002
1.932355e+003,-1.623257e-002
1.934283e+003,-1.632851e-002
1.936212e+003,-1.641811e-002
1.938140e+003,-1.641032e-002
1.940069e+003,-1.631498e-002
1.941997e+003,-1.617888e-002
1.943926e+003,-1.617001e-002
1.945854e+003,-1.627391e-002
1.947783e+003,-1.630132e-002
1.949711e+003,-1.636355e-002
1.951640e+003,-1.641610e-002
1.953568e+003,-1.640761e-002
1.955497e+003,-1.631211e-002
1.957425e+003,-1.629982e-002
1.959354e+003,-1.632490e-002
1.961282e+003,-1.643827e-002
1.963211e+003,-1.653713e-002
1.965139e+003,-1.652144e-002
1.967068e+003,-1.639970e-002
1.968996e+003,-1.652271e-002
1.970925e+003,-1.659345e-002
1.972853e+003,-1.651289e-002
1.974782e+003,-1.647777e-002
1.976710e+003,-1.646083e-002
1.978639e+003,-1.642258e-002
1.980567e+003,-1.646242e-002
1.982496e+003,-1.656599e-002
1.984424e+003,-1.657272e-002
1.986353e+003,-1.647608e-002
1.988281e+003,-1.645499e-002
1.990210e+003,-1.649636e-002
1.992138e+003,-1.645981e-002
1.994067e+003,-1.639191e-002
1.995995e+003,-1.646938e-002
1.997924e+003,-1.659613e-002
1.999852e+003,-1.662534e-002
2.001781e+003,-1.663644e-002
2.003709e+003,-1.659074e-002
2.005638e+003,-1.653659e-002
2.007566e+003,-1.649183e-002
2.009495e+003,-1.645764e-002
2.011423e+003,-1.647104e-002
2.013352e+003,-1.646357e-002
2.015280e+003,-1.652702e-002
2.017208e+003,-1.645649e-002
2.019137e+003,-1.642513e-002
2.021066e+003,-1.649068e-002
2.022994e+003,-1.658044e-002
2.024922e+003,-1.657645e-002
2.026851e+003,-1.660242e-002
2.028780e+003,-1.659011e-002
2.030708e+003,-1.652431e-002
2.032636e+003,-1.652670e-002
2.034565e+003,-1.657311e-002
2.036494e+003,-1.661836e-002
2.038422e+003,-1.664830e-002
2.040350e+003,-1.660580e-002
2.042279e+003,-1.656867e-002
2.044208e+003,-1.662190e-002
2.046136e+003,-1.661007e-002
2.048064e+003,-1.655997e-002
2.049993e+003,-1.653831e-002
2.051921e+003,-1.658500e-002
2.053850e+003,-1.666737e-002
2.055778e+003,-1.667302e-002
2.057707e+003,-1.660835e-002
2.059635e+003,-1.665532e-002
2.061564e+003,-1.668010e-002
2.063492e+003,-1.678903e-002
2.065421e+003,-1.677010e-002
2.067349e+003,-1.660669e-002
2.069278e+003,-1.666214e-002
2.071206e+003,-1.673733e-002
2.073135e+003,-1.667356e-002
2.075063e+003,-1.666724e-002
2.076992e+003,-1.667190e-002
2.078920e+003,-1.665557e-002
2.080849e+003,-1.668297e-002
2.082777e+003,-1.670812e-002
2.084706e+003,-1.676538e-002
2.086634e+003,-1.676114e-002
2.088563e+003,-1.676710e-002
2.090491e+003,-1.677364e-002
2.092420e+003,-1.675900e-002
2.094348e+003,-1.670819e-002
2.096277e+003,-1.670554e-002
2.098205e+003,-1.672687e-002
2.100134e+003,-1.676516e-002
2.102062e+003,-1.675320e-002
2.103991e+003,-1.676646e-002
2.105919e+003,-1.678658e-002
2.107848e+003,-1.676184e-002
2.109776e+003,-1.676487e-002
2.111705e+003,-1.684953e-002
2.113633e+003,-1.682949e-002
2.115562e+003,-1.671721e-002
2.117490e+003,-1.673599e-002
2.119419e+003,-1.676640e-002
2.121347e+003,-1.674775e-002
2.123276e+003,-1.676289e-002
2.125204e+003,-1.674386e-002
2.127133e+003,-1.673678e-002
2.129061e+003,-1.669572e-002
2.130990e+003,-1.664926e-002
2.132918e+003,-1.667656e-002
2.134847e+003,-1.671855e-002
2.136775e+003,-1.677549e-002
2.138704e+003,-1.677530e-002
2.140632e+003,-1.673130e-002
2.142561e+003,-1.676831e-002
2.144489e+003,-1.681154e-002
2.146418e+003,-1.683022e-002
2.148346e+003,-1.678001e-002
2.150275e+003,-1.666026e-002
2.152203e+003,-1.663491e-002
2.154132e+003,-1.671944e-002
2.156060e+003,-1.673289e-002
2.157989e+003,-1.668297e-002
2.159917e+003,-1.670037e-002
2.161846e+003,-1.678833e-002
2.163774e+003,-1.676822e-002
2.165703e+003,-1.663230e-002
2.167631e+003,-1.659473e-002
2.169560e+003,-1.658009e-002
2.171488e+003,-1.660242e-002
2.173417e+003,-1.666154e-002
2.175345e+003,-1.668274e-002
2.177274e+003,-1.665433e-002
2.179202e+003,-1.660057e-002
2.181131e+003,-1.667477e-002
2.183059e+003,-1.671950e-002
2.184988e+003,-1.658296e-002
2.186916e+003,-1.651037e-002
2.188845e+003,-1.657167e-002
2.190773e+003,-1.666792e-002
2.192702e+003,-1.671571e-002
2.194630e+003,-1.666001e-002
2.196559e+003,-1.658331e-002
2.198487e+003,-1.653573e-002
2.200416e+003,-1.657543e-002
2.202344e+003,-1.658207e-002
2.204273e+003,-1.659878e-002
2.206201e+003,-1.668631e-002
2.208130e+003,-1.669897e-002
2.210058e+003,-1.668934e-002
2.211987e+003,-1.666992e-002
2.213915e+003,-1.669196e-002
2.215844e+003,-1.662522e-002
2.217772e+003,-1.663281e-002
2.219701e+003,-1.665822e-002
2.221629e+003,-1.672158e-002
2.223558e+003,-1.685227e-002
2.225486e+003,-1.681403e-002
2.227415e+003,-1.673863e-002
2.229343e+003,-1.677424e-002
2.231272e+003,-1.680159e-002
2.233200e+003,-1.676796e-002
2.235129e+003,-1.678317e-002
2.237057e+003,-1.681578e-002
2.238986e+003,-1.680806e-002
2.240914e+003,-1.679978e-002
2.242843e+003,-1.680003e-002
2.244771e+003,-1.680102e-002
2.246700e+003,-1.681613e-002
2.248628e+003,-1.690936e-002
2.250557e+003,-1.708285e-002
2.252485e+003,-1.714582e-002
2.254414e+003,-1.705851e-002
2.256342e+003,-1.694167e-002
2.258271e+003,-1.691414e-002
2.260199e+003,-1.689696e-002
2.262128e+003,-1.689333e-002
2.264056e+003,-1.698026e-002
2.265985e+003,-1.705459e-002
2.267913e+003,-1.702875e-002
2.269842e+003,-1.699542e-002
2.271770e+003,-1.701132e-002
2.273699e+003,-1.706940e-002
2.275627e+003,-1.715184e-002
2.277556e+003,-1.715980e-002
2.279484e+003,-1.711980e-002
2.281413e+003,-1.700549e-002
2.283341e+003,-1.707339e-002
2.285270e+003,-1.710814e-002
2.287198e+003,-1.709533e-002
2.289127e+003,-1.702983e-002
2.291055e+003,-1.701610e-002
2.292984e+003,-1.711416e-002
2.294912e+003,-1.723812e-002
2.296841e+003,-1.719713e-002
2.298769e+003,-1.710750e-002
2.300698e+003,-1.714547e-002
2.302626e+003,-1.708272e-002
2.304555e+003,-1.708011e-002
2.306483e+003,-1.713432e-002
2.308412e+003,-1.711531e-002
2.310340e+003,-1.707654e-002
2.312269e+003,-1.704646e-002
2.314197e+003,-1.701445e-002
2.316125e+003,-1.687765e-002
2.318054e+003,-1.676787e-002
2.319983e+003,-1.678460e-002
2.321911e+003,-1.663909e-002
2.323840e+003,-1.645445e-002
2.325768e+003,-1.644851e-002
2.327697e+003,-1.639057e-002
2.329625e+003,-1.611877e-002
2.331553e+003,-1.605906e-002
2.333482e+003,-1.607282e-002
2.335411e+003,-1.608231e-002
2.337339e+003,-1.611210e-002
2.339268e+003,-1.615175e-002
2.341196e+003,-1.625811e-002
2.343125e+003,-1.633400e-002
2.345053e+003,-1.650418e-002
2.346981e+003,-1.677628e-002
2.348910e+003,-1.705099e-002
2.350839e+003,-1.701034e-002
2.352767e+003,-1.662544e-002
2.354696e+003,-1.627940e-002
2.356624e+003,-1.609339e-002
2.358552e+003,-1.604821e-002
2.360481e+003,-1.599500e-002
2.362409e+003,-1.595604e-002
2.364338e+003,-1.602275e-002
2.366267e+003,-1.616388e-002
2.368195e+003,-1.626108e-002
2.370124e+003,-1.639022e-002
2.372052e+003,-1.666575e-002
2.373980e+003,-1.685715e-002
2.375909e+003,-1.700266e-002
2.377838e+003,-1.724579e-002
2.379766e+003,-1.744983e-002
2.381695e+003,-1.744003e-002
2.383623e+003,-1.740960e-002
2.385552e+003,-1.743309e-002
2.387480e+003,-1.750572e-002
2.389408e+003,-1.752434e-002
2.391337e+003,-1.749299e-002
2.393266e+003,-1.749439e-002
2.395194e+003,-1.752335e-002
2.397123e+003,-1.748316e-002
2.399051e+003,-1.748694e-002
2.400979e+003,-1.755829e-002
2.402908e+003,-1.760389e-002
2.404836e+003,-1.756688e-002
2.406765e+003,-1.754983e-002
2.408694e+003,-1.763618e-002
2.410622e+003,-1.756189e-002
2.412551e+003,-1.749207e-002
2.414479e+003,-1.747033e-002
2.416407e+003,-1.746097e-002
2.418336e+003,-1.744229e-002
2.420264e+003,-1.750349e-002
2.422193e+003,-1.759689e-002
2.424122e+003,-1.750798e-002
2.426050e+003,-1.741243e-002
2.427979e+003,-1.746333e-002
2.429907e+003,-1.748818e-002
2.431835e+003,-1.749834e-002
2.433764e+003,-1.744079e-002
2.435692e+003,-1.745496e-002
2.437621e+003,-1.754859e-002
2.439550e+003,-1.755237e-002
2.441478e+003,-1.747883e-002
2.443406e+003,-1.741259e-002
2.445335e+003,-1.746549e-002
2.447263e+003,-1.747456e-002
2.449192e+003,-1.748185e-002
2.451121e+003,-1.757977e-002
2.453049e+003,-1.754267e-002
2.454978e+003,-1.749379e-002
2.456906e+003,-1.750461e-002
2.458834e+003,-1.751584e-002
2.460763e+003,-1.754311e-002
2.462691e+003,-1.763739e-002
2.464620e+003,-1.764232e-002
2.466549e+003,-1.758951e-002
2.468477e+003,-1.759119e-002
2.470406e+003,-1.760583e-002
2.472334e+003,-1.761468e-002
2.474262e+003,-1.761789e-002
2.476191e+003,-1.765562e-002
2.478119e+003,-1.765031e-002
2.480048e+003,-1.762412e-002
2.481977e+003,-1.755893e-002
2.483905e+003,-1.756917e-002
2.485833e+003,-1.767427e-002
2.487762e+003,-1.763676e-002
2.489690e+003,-1.767054e-002
2.491619e+003,-1.770748e-002
2.493547e+003,-1.762680e-002
2.495476e+003,-1.748809e-002
2.497405e+003,-1.749394e-002
2.499333e+003,-1.765597e-002
2.501261e+003,-1.769377e-002
2.503190e+003,-1.761751e-002
2.505118e+003,-1.761770e-002
2.507047e+003,-1.764897e-002
2.508975e+003,-1.765368e-002
2.510904e+003,-1.757147e-002
2.512833e+003,-1.755113e-002
2.514761e+003,-1.763485e-002
2.516689e+003,-1.767153e-002
2.518618e+003,-1.759530e-002
2.520546e+003,-1.757882e-002
2.522475e+003,-1.764986e-002
2.524403e+003,-1.760542e-002
2.526332e+003,-1.759415e-002
2.528260e+003,-1.762651e-002
2.530189e+003,-1.757589e-002
2.532117e+003,-1.757086e-002
2.534046e+003,-1.770538e-002
2.535974e+003,-1.766269e-002
2.537903e+003,-1.760462e-002
2.539831e+003,-1.756166e-002
2.541760e+003,-1.757897e-002
2.543688e+003,-1.759224e-002
2.545617e+003,-1.760453e-002
2.547545e+003,-1.751756e-002
2.549474e+003,-1.745435e-002
2.551402e+003,-1.750470e-002
2.553331e+003,-1.758267e-002
2.555259e+003,-1.754279e-002
2.557188e+003,-1.752389e-002
2.559116e+003,-1.763084e-002
2.561045e+003,-1.757738e-002
2.562973e+003,-1.758146e-002
2.564902e+003,-1.756475e-002
2.566830e+003,-1.746775e-002
2.568759e+003,-1.754229e-002
2.570687e+003,-1.754989e-002
2.572616e+003,-1.748296e-002
2.574544e+003,-1.744913e-002
2.576473e+003,-1.750340e-002
2.578401e+003,-1.754964e-002
2.580330e+003,-1.764620e-002
2.582258e+003,-1.774778e-002
2.584187e+003,-1.768486e-002
2.586115e+003,-1.765270e-002
2.588044e+003,-1.769676e-002
2.589972e+003,-1.766921e-002
2.591901e+003,-1.755151e-002
2.593829e+003,-1.756192e-002
2.595758e+003,-1.764977e-002
2.597686e+003,-1.772586e-002
2.599615e+003,-1.778057e-002
2.601543e+003,-1.773451e-002
2.603472e+003,-1.765231e-002
2.605400e+003,-1.766259e-002
2.607329e+003,-1.759062e-002
2.609257e+003,-1.749366e-002
2.611186e+003,-1.746186e-002
2.613114e+003,-1.745591e-002
2.615043e+003,-1.752408e-002
2.616971e+003,-1.759753e-002
2.618900e+003,-1.751985e-002
2.620828e+003,-1.742825e-002
2.622757e+003,-1.731349e-002
2.624685e+003,-1.732135e-002
2.626614e+003,-1.740670e-002
2.628542e+003,-1.741501e-002
2.630471e+003,-1.739909e-002
2.632399e+003,-1.737776e-002
2.634328e+003,-1.732972e-002
2.636256e+003,-1.731540e-002
2.638185e+003,-1.727464e-002
2.640113e+003,-1.719831e-002
2.642042e+003,-1.718793e-002
2.643970e+003,-1.709833e-002
2.645899e+003,-1.707256e-002
2.647827e+003,-1.702477e-002
2.649756e+003,-1.691895e-002
2.651684e+003,-1.683745e-002
2.653613e+003,-1.687274e-002
2.655541e+003,-1.686333e-002
2.657470e+003,-1.689973e-002
2.659398e+003,-1.691608e-002
2.661327e+003,-1.683430e-002
2.663255e+003,-1.676038e-002
2.665184e+003,-1.681791e-002
2.667112e+003,-1.676003e-002
2.669041e+003,-1.665647e-002
2.670969e+003,-1.665972e-002
2.672898e+003,-1.670768e-002
2.674826e+003,-1.666654e-002
2.676755e+003,-1.662394e-002
2.678683e+003,-1.659208e-002
2.680612e+003,-1.657636e-002
2.682540e+003,-1.658028e-002
2.684469e+003,-1.650096e-002
2.686397e+003,-1.638505e-002
2.688326e+003,-1.631453e-002
2.690254e+003,-1.621096e-002
2.692183e+003,-1.625013e-002
2.694111e+003,-1.639188e-002
2.696040e+003,-1.636435e-002
2.697968e+003,-1.624821e-002
2.699897e+003,-1.613470e-002
2.701825e+003,-1.608850e-002
2.703754e+003,-1.606280e-002
2.705682e+003,-1.590097e-002
2.707611e+003,-1.586935e-002
2.709539e+003,-1.582740e-002
2.711468e+003,-1.575855e-002
2.713396e+003,-1.570879e-002
2.715325e+003,-1.565840e-002
2.717253e+003,-1.567591e-002
2.719182e+003,-1.560441e-002
2.721110e+003,-1.551861e-002
2.723039e+003,-1.537491e-002
2.724967e+003,-1.526472e-002
2.726896e+003,-1.518621e-002
2.728824e+003,-1.513879e-002
2.730753e+003,-1.500661e-002
2.732681e+003,-1.488515e-002
2.734610e+003,-1.485186e-002
2.736538e+003,-1.480341e-002
2.738467e+003,-1.474765e-002
2.740395e+003,-1.462545e-002
2.742324e+003,-1.452602e-002
2.744252e+003,-1.454323e-002
2.746181e+003,-1.450609e-002
2.748109e+003,-1.438629e-002
2.750038e+003,-1.421739e-002
2.751966e+003,-1.412279e-002
2.753895e+003,-1.402951e-002
2.755823e+003,-1.390588e-002
2.757752e+003,-1.380822e-002
2.759680e+003,-1.359177e-002
2.761609e+003,-1.336682e-002
2.763537e+003,-1.309463e-002
2.765466e+003,-1.288927e-002
2.767394e+003,-1.263809e-002
2.769323e+003,-1.221263e-002
2.771251e+003,-1.170717e-002
2.773180e+003,-1.124377e-002
2.775108e+003,-1.078567e-002
2.777037e+003,-1.026696e-002
2.778965e+003,-9.699577e-003
2.780894e+003,-9.009119e-003
2.782822e+003,-8.258984e-003
2.784750e+003,-7.501983e-003
2.786679e+003,-6.683203e-003
2.788608e+003,-5.953582e-003
2.790536e+003,-5.146742e-003
2.792465e+003,-4.307825e-003
2.794393e+003,-3.512051e-003
2.796322e+003,-2.676158e-003
2.798250e+003,-1.919547e-003
2.800178e+003,-1.329190e-003
2.802107e+003,-6.549304e-004
2.804036e+003,-2.319321e-005
2.805964e+003,4.156003e-004
2.807893e+003,7.319178e-004
2.809821e+003,9.132390e-004
2.811750e+003,9.357849e-004
2.813678e+003,8.073651e-004
2.815606e+003,5.807971e-004
2.817535e+003,2.751328e-004
2.819464e+003,1.196155e-005
2.821392e+003,-3.245923e-004
2.823321e+003,-8.539188e-004
2.825249e+003,-1.412887e-003
2.827177e+003,-2.116045e-003
2.829106e+003,-2.919216e-003
2.831034e+003,-3.628188e-003
2.832963e+003,-4.326557e-003
2.834892e+003,-4.819313e-003
2.836820e+003,-5.423567e-003
2.838749e+003,-6.154013e-003
2.840677e+003,-6.894484e-003
2.842605e+003,-7.608397e-003
2.844534e+003,-8.354520e-003
2.846462e+003,-9.255601e-003
2.848391e+003,-9.984946e-003
2.850320e+003,-1.045739e-002
2.852248e+003,-1.073780e-002
2.854177e+003,-1.085425e-002
2.856105e+003,-1.083079e-002
2.858033e+003,-1.087050e-002
2.859962e+003,-1.083667e-002
2.861890e+003,-1.086019e-002
2.863819e+003,-1.087002e-002
2.865748e+003,-1.079866e-002
2.867676e+003,-1.069096e-002
2.869604e+003,-1.047514e-002
2.871533e+003,-1.042594e-002
2.873461e+003,-1.033057e-002
2.875390e+003,-1.013381e-002
2.877319e+003,-9.940971e-003
2.879247e+003,-9.721545e-003
2.881176e+003,-9.705506e-003
2.883104e+003,-9.693064e-003
2.885032e+003,-9.573190e-003
2.886961e+003,-9.605762e-003
2.888889e+003,-9.712407e-003
2.890818e+003,-9.748339e-003
2.892747e+003,-9.916617e-003
2.894675e+003,-1.008914e-002
2.896604e+003,-1.018819e-002
2.898532e+003,-1.032944e-002
2.900460e+003,-1.044516e-002
2.902389e+003,-1.057446e-002
2.904317e+003,-1.055192e-002
2.906246e+003,-1.057255e-002
2.908175e+003,-1.068313e-002
2.910103e+003,-1.073059e-002
2.912031e+003,-1.089713e-002
2.913960e+003,-1.115772e-002
2.915888e+003,-1.140357e-002
2.917817e+003,-1.141302e-002
2.919745e+003,-1.102801e-002
2.921674e+003,-1.067618e-002
2.923603e+003,-1.031278e-002
2.925531e+003,-9.901039e-003
2.927459e+003,-9.576689e-003
2.929388e+003,-9.249633e-003
2.931316e+003,-8.898146e-003
2.933245e+003,-8.606214e-003
2.935173e+003,-8.452245e-003
2.937102e+003,-8.361834e-003
2.939031e+003,-8.376102e-003
2.940959e+003,-8.542411e-003
2.942887e+003,-8.693911e-003
2.944816e+003,-8.905255e-003
2.946744e+003,-9.214438e-003
2.948673e+003,-9.620897e-003
2.950601e+003,-1.024333e-002
2.952530e+003,-1.085981e-002
2.954458e+003,-1.146756e-002
2.956387e+003,-1.214942e-002
2.958315e+003,-1.281982e-002
2.960244e+003,-1.363358e-002
2.962172e+003,-1.445331e-002
2.964101e+003,-1.502415e-002
2.966029e+003,-1.554467e-002
2.967958e+003,-1.609163e-002
2.969886e+003,-1.657983e-002
2.971815e+003,-1.697121e-002
2.973743e+003,-1.735981e-002
2.975672e+003,-1.780182e-002
2.977600e+003,-1.811999e-002
2.979529e+003,-1.822672e-002
2.981457e+003,-1.839556e-002
2.983386e+003,-1.861039e-002
2.985314e+003,-1.877924e-002
2.987243e+003,-1.886551e-002
2.989171e+003,-1.894145e-002
2.991100e+003,-1.914882e-002
2.993028e+003,-1.931058e-002
2.994957e+003,-1.927527e-002
2.996885e+003,-1.929587e-002
2.998814e+003,-1.929289e-002
3.000742e+003,-1.935213e-002
3.002671e+003,-1.945935e-002
3.004599e+003,-1.956810e-002
3.006528e+003,-1.953520e-002
3.008456e+003,-1.947510e-002
3.010385e+003,-1.964735e-002
3.012313e+003,-1.979626e-002
3.014242e+003,-1.968658e-002
3.016170e+003,-1.956627e-002
3.018099e+003,-1.958217e-002
3.020027e+003,-1.975554e-002
3.021956e+003,-1.985159e-002
3.023884e+003,-1.986220e-002
3.025813e+003,-1.980921e-002
3.027741e+003,-1.994616e-002
3.029670e+003,-2.004688e-002
3.031598e+003,-2.000262e-002
3.033527e+003,-1.995411e-002
3.035455e+003,-1.988147e-002
3.037384e+003,-1.992246e-002
3.039312e+003,-1.995233e-002
3.041241e+003,-1.995971e-002
3.043169e+003,-2.006827e-002
3.045098e+003,-2.009551e-002
3.047026e+003,-2.006182e-002
3.048955e+003,-2.002828e-002
3.050883e+003,-1.994620e-002
3.052812e+003,-1.996664e-002
3.054740e+003,-1.997676e-002
3.056669e+003,-1.992198e-002
3.058597e+003,-2.006378e-002
3.060526e+003,-2.020236e-002
3.062454e+003,-2.016687e-002
3.064383e+003,-2.008637e-002
3.066311e+003,-2.009848e-002
3.068240e+003,-2.003774e-002
3.070168e+003,-2.003391e-002
3.072097e+003,-2.016536e-002
3.074025e+003,-2.018788e-002
3.075954e+003,-2.012949e-002
3.077882e+003,-2.012370e-002
3.079811e+003,-2.012477e-002
3.081739e+003,-2.009330e-002
3.083668e+003,-2.006428e-002
3.085596e+003,-2.020505e-002
3.087525e+003,-2.031112e-002
3.089453e+003,-2.025505e-002
3.091382e+003,-2.022966e-002
3.093310e+003,-2.013442e-002
3.095239e+003,-2.001008e-002
3.097167e+003,-1.998847e-002
3.099096e+003,-1.998528e-002
3.101024e+003,-2.003989e-002
3.102953e+003,-2.013524e-002
3.104881e+003,-2.017924e-002
3.106810e+003,-2.003369e-002
3.108738e+003,-1.994844e-002
3.110667e+003,-1.994898e-002
3.112595e+003,-1.991895e-002
3.114524e+003,-1.990470e-002
3.116452e+003,-2.001929e-002
3.118381e+003,-2.002837e-002
3.120309e+003,-1.996566e-002
3.122238e+003,-1.992122e-002
3.124166e+003,-1.995832e-002
3.126095e+003,-1.995142e-002
3.128023e+003,-1.990052e-002
3.129952e+003,-1.996445e-002
3.131880e+003,-2.004464e-002
3.133809e+003,-1.998259e-002
3.135737e+003,-1.993512e-002
3.137666e+003,-1.986432e-002
3.139594e+003,-1.981655e-002
3.141523e+003,-1.982456e-002
3.143451e+003,-1.981991e-002
3.145380e+003,-1.975086e-002
3.147308e+003,-1.985827e-002
3.149237e+003,-1.996461e-002
3.151165e+003,-1.988812e-002
3.153094e+003,-1.967778e-002
3.155022e+003,-1.958508e-002
3.156951e+003,-1.962369e-002
3.158879e+003,-1.955791e-002
3.160808e+003,-1.946328e-002
3.162736e+003,-1.956015e-002
3.164665e+003,-1.964234e-002
3.166593e+003,-1.966423e-002
3.168522e+003,-1.971850e-002
3.170450e+003,-1.968766e-002
3.172379e+003,-1.964082e-002
3.174307e+003,-1.965111e-002
3.176236e+003,-1.952918e-002
3.178164e+003,-1.938927e-002
3.180093e+003,-1.935866e-002
3.182021e+003,-1.946468e-002
3.183950e+003,-1.939050e-002
3.185878e+003,-1.942941e-002
3.187807e+003,-1.940159e-002
3.189735e+003,-1.932424e-002
3.191664e+003,-1.948597e-002
3.193592e+003,-1.949639e-002
3.195521e+003,-1.947805e-002
3.197449e+003,-1.955955e-002
3.199378e+003,-1.963873e-002
3.201306e+003,-1.972056e-002
3.203235e+003,-1.962264e-002
3.205163e+003,-1.955033e-002
3.207092e+003,-1.959230e-002
3.209020e+003,-1.948644e-002
3.210948e+003,-1.941164e-002
3.212877e+003,-1.928424e-002
3.214806e+003,-1.928551e-002
3.216734e+003,-1.946987e-002
3.218663e+003,-1.945017e-002
3.220591e+003,-1.939022e-002
3.222520e+003,-1.940945e-002
3.224448e+003,-1.946531e-002
3.226376e+003,-1.942260e-002
3.228305e+003,-1.932380e-002
3.230234e+003,-1.924057e-002
3.232162e+003,-1.924957e-002
3.234091e+003,-1.920148e-002
3.236019e+003,-1.921568e-002
3.237948e+003,-1.925033e-002
3.239876e+003,-1.910532e-002
3.241804e+003,-1.894929e-002
3.243733e+003,-1.884127e-002
3.245662e+003,-1.875982e-002
3.247590e+003,-1.866981e-002
3.249519e+003,-1.869241e-002
3.251447e+003,-1.869108e-002
3.253375e+003,-1.866569e-002
3.255304e+003,-1.861874e-002
3.257232e+003,-1.851524e-002
3.259161e+003,-1.846022e-002
3.261090e+003,-1.842084e-002
3.263018e+003,-1.840804e-002
3.264947e+003,-1.843319e-002
3.266875e+003,-1.857862e-002
3.268803e+003,-1.843011e-002
3.270732e+003,-1.827863e-002
3.272660e+003,-1.838035e-002
3.274589e+003,-1.835916e-002
3.276518e+003,-1.833473e-002
3.278446e+003,-1.836758e-002
3.280375e+003,-1.831628e-002
3.282303e+003,-1.837672e-002
3.284231e+003,-1.832717e-002
3.286160e+003,-1.844237e-002
3.288088e+003,-1.862677e-002
3.290017e+003,-1.868048e-002
3.291946e+003,-1.848743e-002
3.293874e+003,-1.840566e-002
3.295802e+003,-1.857011e-002
3.297731e+003,-1.865039e-002
3.299659e+003,-1.862106e-002
3.301588e+003,-1.868911e-002
3.303516e+003,-1.888632e-002
3.305445e+003,-1.903635e-002
3.307374e+003,-1.903315e-002
3.309302e+003,-1.912450e-002
3.311230e+003,-1.929042e-002
3.313159e+003,-1.942327e-002
3.315087e+003,-1.944893e-002
3.317016e+003,-1.941129e-002
3.318944e+003,-1.945387e-002
3.320873e+003,-1.961127e-002
3.322802e+003,-1.981835e-002
3.324730e+003,-1.980303e-002
3.326658e+003,-1.975836e-002
3.328587e+003,-1.984656e-002
3.330515e+003,-1.981788e-002
3.332444e+003,-1.985545e-002
3.334372e+003,-1.996566e-002
3.336301e+003,-1.984111e-002
3.338229e+003,-1.982573e-002
3.340158e+003,-2.008988e-002
3.342086e+003,-2.007308e-002
3.344015e+003,-1.999847e-002
3.345943e+003,-1.992391e-002
3.347872e+003,-1.987726e-002
3.349800e+003,-1.988030e-002
3.351729e+003,-1.996474e-002
3.353657e+003,-1.998300e-002
3.355586e+003,-1.989632e-002
3.357514e+003,-1.983618e-002
3.359443e+003,-1.995619e-002
3.361371e+003,-2.000363e-002
3.363300e+003,-1.992835e-002
3.365229e+003,-1.995161e-002
3.367157e+003,-2.023791e-002
3.369085e+003,-2.050747e-002
3.371014e+003,-2.050826e-002
3.372942e+003,-2.044801e-002
3.374871e+003,-2.064929e-002
3.376799e+003,-2.067267e-002
3.378728e+003,-2.075323e-002
3.380656e+003,-2.086118e-002
3.382585e+003,-2.096481e-002
3.384513e+003,-2.108493e-002
3.386442e+003,-2.118390e-002
3.388370e+003,-2.125490e-002
3.390299e+003,-2.135689e-002
3.392227e+003,-2.138765e-002
3.394156e+003,-2.148321e-002
3.396084e+003,-2.149910e-002
3.398013e+003,-2.165778e-002
3.399941e+003,-2.179075e-002
3.401870e+003,-2.175905e-002
3.403798e+003,-2.173195e-002
3.405727e+003,-2.166450e-002
3.407655e+003,-2.165167e-002
3.409584e+003,-2.179034e-002
3.411512e+003,-2.178291e-002
3.413441e+003,-2.181057e-002
3.415369e+003,-2.188336e-002
3.417298e+003,-2.190185e-002
3.419226e+003,-2.179183e-002
3.421155e+003,-2.171067e-002
3.423083e+003,-2.174960e-002
3.425012e+003,-2.180074e-002
3.426940e+003,-2.185333e-002
3.428869e+003,-2.191083e-002
3.430797e+003,-2.190639e-002
3.432726e+003,-2.185648e-002
3.434654e+003,-2.176633e-002
3.436583e+003,-2.193178e-002
3.438511e+003,-2.205651e-002
3.440440e+003,-2.195427e-002
3.442368e+003,-2.200559e-002
3.444297e+003,-2.214635e-002
3.446225e+003,-2.202987e-002
3.448154e+003,-2.184347e-002
3.450082e+003,-2.189039e-002
3.452011e+003,-2.201522e-002
3.453939e+003,-2.204776e-002
3.455868e+003,-2.209852e-002
3.457796e+003,-2.211468e-002
3.459725e+003,-2.217453e-002
3.461653e+003,-2.203450e-002
3.463582e+003,-2.191556e-002
3.465510e+003,-2.207692e-002
3.467439e+003,-2.221877e-002
3.469367e+003,-2.225321e-002
3.471296e+003,-2.221738e-002
3.473224e+003,-2.204404e-002
3.475153e+003,-2.207569e-002
3.477081e+003,-2.207475e-002
3.479010e+003,-2.213886e-002
3.480938e+003,-2.223977e-002
3.482867e+003,-2.221143e-002
3.484795e+003,-2.204294e-002
3.486724e+003,-2.205799e-002
3.488652e+003,-2.216506e-002
3.490581e+003,-2.216770e-002
3.492509e+003,-2.215133e-002
3.494438e+003,-2.218266e-002
3.496366e+003,-2.209093e-002
3.498295e+003,-2.207314e-002
3.500223e+003,-2.204445e-002
3.502152e+003,-2.187662e-002
3.504080e+003,-2.192504e-002
3.506009e+003,-2.213990e-002
3.507937e+003,-2.198190e-002
3.509866e+003,-2.182718e-002
3.511794e+003,-2.186247e-002
3.513723e+003,-2.199730e-002
3.515651e+003,-2.208262e-002
3.517580e+003,-2.201699e-002
3.519508e+003,-2.202713e-002
3.521437e+003,-2.213873e-002
3.523365e+003,-2.203192e-002
3.525294e+003,-2.196810e-002
3.527222e+003,-2.190645e-002
3.529151e+003,-2.187328e-002
3.531079e+003,-2.196221e-002
3.533008e+003,-2.195383e-002
3.534936e+003,-2.189325e-002
3.536865e+003,-2.191354e-002
3.538793e+003,-2.210211e-002
3.540722e+003,-2.227782e-002
3.542650e+003,-2.213096e-002
3.544579e+003,-2.182709e-002
3.546507e+003,-2.148892e-002
3.548436e+003,-2.151922e-002
3.550364e+003,-2.158335e-002
3.552293e+003,-2.154552e-002
3.554221e+003,-2.159010e-002
3.556150e+003,-2.177799e-002
3.558078e+003,-2.183978e-002
3.560007e+003,-2.171256e-002
3.561935e+003,-2.168779e-002
3.563864e+003,-2.171808e-002
3.565792e+003,-2.146148e-002
3.567721e+003,-2.135516e-002
3.569649e+003,-2.163590e-002
3.571578e+003,-2.174052e-002
3.573506e+003,-2.173397e-002
3.575435e+003,-2.174383e-002
3.577363e+003,-2.164316e-002
3.579292e+003,-2.167843e-002
3.581220e+003,-2.174856e-002
3.583149e+003,-2.185151e-002
3.585077e+003,-2.170490e-002
3.587006e+003,-2.146255e-002
3.588934e+003,-2.151134e-002
3.590863e+003,-2.167868e-002
3.592791e+003,-2.156784e-002
3.594720e+003,-2.153319e-002
3.596648e+003,-2.158159e-002
3.598577e+003,-2.181385e-002
3.600505e+003,-2.179450e-002
3.602434e+003,-2.166910e-002
3.604362e+003,-2.167685e-002
3.606291e+003,-2.160593e-002
3.608219e+003,-2.136197e-002
3.610148e+003,-2.138676e-002
3.612076e+003,-2.145335e-002
3.614005e+003,-2.148069e-002
3.615933e+003,-2.155201e-002
3.617862e+003,-2.131144e-002
3.619790e+003,-2.133122e-002
3.621719e+003,-2.169350e-002
3.623647e+003,-2.196319e-002
3.625576e+003,-2.206659e-002
3.627504e+003,-2.142654e-002
3.629433e+003,-2.065036e-002
3.631361e+003,-2.138162e-002
3.633290e+003,-2.179611e-002
3.635218e+003,-2.180509e-002
3.637146e+003,-2.177431e-002
3.639075e+003,-2.196013e-002
3.641004e+003,-2.211222e-002
3.642932e+003,-2.200842e-002
3.644861e+003,-2.214698e-002
3.646789e+003,-2.185727e-002
3.648718e+003,-2.118977e-002
3.650646e+003,-2.098515e-002
3.652574e+003,-2.163713e-002
3.654503e+003,-2.191269e-002
3.656432e+003,-2.163836e-002
3.658360e+003,-2.191112e-002
3.660289e+003,-2.220262e-002
3.662217e+003,-2.218048e-002
3.664146e+003,-2.217180e-002
3.666074e+003,-2.228890e-002
3.668002e+003,-2.218240e-002
3.669931e+003,-2.169138e-002
3.671860e+003,-2.204042e-002
3.673788e+003,-2.213833e-002
3.675717e+003,-2.128696e-002
3.677645e+003,-2.168325e-002
3.679573e+003,-2.212982e-002
3.681502e+003,-2.220205e-002
3.683430e+003,-2.228550e-002
3.685359e+003,-2.258248e-002
3.687288e+003,-2.241262e-002
3.689216e+003,-2.197226e-002
3.691145e+003,-2.191682e-002
3.693073e+003,-2.202121e-002
3.695001e+003,-2.217280e-002
3.696930e+003,-2.217866e-002
3.698858e+003,-2.231978e-002
3.700787e+003,-2.215844e-002
3.702716e+003,-2.206039e-002
3.704644e+003,-2.219944e-002
3.706573e+003,-2.227606e-002
3.708501e+003,-2.226759e-002
3.710429e+003,-2.201097e-002
3.712358e+003,-2.170260e-002
3.714286e+003,-2.220775e-002
3.716215e+003,-2.253042e-002
3.718144e+003,-2.247766e-002
3.720072e+003,-2.248307e-002
3.722000e+003,-2.235997e-002
3.723929e+003,-2.240620e-002
3.725857e+003,-2.238691e-002
3.727786e+003,-2.257461e-002
3.729714e+003,-2.278290e-002
3.731643e+003,-2.229617e-002
3.733572e+003,-2.201661e-002
3.735500e+003,-2.164120e-002
3.737428e+003,-2.185318e-002
3.739357e+003,-2.253775e-002
3.741285e+003,-2.277519e-002
3.743214e+003,-2.181678e-002
3.745142e+003,-2.094751e-002
3.747071e+003,-2.182904e-002
3.749000e+003,-2.144199e-002
3.750928e+003,-2.121186e-002
3.752856e+003,-2.141594e-002
3.754785e+003,-2.192731e-002
3.756713e+003,-2.204392e-002
3.758642e+003,-2.201944e-002
3.760570e+003,-2.176205e-002
3.762499e+003,-2.193043e-002
3.764427e+003,-2.199220e-002
3.766356e+003,-2.194385e-002
3.768284e+003,-2.203815e-002
3.770213e+003,-2.180843e-002
3.772141e+003,-2.199431e-002
3.774070e+003,-2.233986e-002
3.775998e+003,-2.240368e-002
3.777927e+003,-2.216707e-002
3.779855e+003,-2.181458e-002
3.781784e+003,-2.218949e-002
3.783712e+003,-2.223067e-002
3.785641e+003,-2.210624e-002
3.787569e+003,-2.218990e-002
3.789498e+003,-2.254744e-002
3.791426e+003,-2.269539e-002
3.793355e+003,-2.253193e-002
3.795283e+003,-2.221319e-002
3.797212e+003,-2.204262e-002
3.799140e+003,-2.208687e-002
3.801069e+003,-2.154567e-002
3.802997e+003,-2.177862e-002
3.804926e+003,-2.229564e-002
3.806854e+003,-2.187041e-002
3.808783e+003,-2.190535e-002
3.810711e+003,-2.217000e-002
3.812640e+003,-2.244204e-002
3.814568e+003,-2.222900e-002
3.816497e+003,-2.142893e-002
3.818425e+003,-2.161690e-002
3.820354e+003,-2.130932e-002
3.822282e+003,-2.139642e-002
3.824211e+003,-2.209194e-002
3.826139e+003,-2.203500e-002
3.828068e+003,-2.206902e-002
3.829996e+003,-2.201718e-002
3.831925e+003,-2.199277e-002
3.833853e+003,-2.206914e-002
3.835782e+003,-2.191275e-002
3.837710e+003,-2.149787e-002
3.839639e+003,-2.170881e-002
3.841567e+003,-2.191348e-002
3.843496e+003,-2.192195e-002
3.845424e+003,-2.216402e-002
3.847353e+003,-2.258370e-002
3.849281e+003,-2.275127e-002
3.851210e+003,-2.213064e-002
3.853138e+003,-2.073355e-002
3.855067e+003,-2.079801e-002
3.856995e+003,-2.187041e-002
3.858924e+003,-2.232746e-002
3.860852e+003,-2.223948e-002
3.862781e+003,-2.188182e-002
3.864709e+003,-2.159972e-002
3.866638e+003,-2.212302e-002
3.868566e+003,-2.214950e-002
3.870495e+003,-2.176129e-002
3.872423e+003,-2.194315e-002
3.874352e+003,-2.185885e-002
3.876280e+003,-2.223262e-002
3.878209e+003,-2.249232e-002
3.880137e+003,-2.211761e-002
3.882066e+003,-2.228059e-002
3.883994e+003,-2.238732e-002
3.885923e+003,-2.194337e-002
3.887851e+003,-2.242939e-002
3.889780e+003,-2.251582e-002
3.891708e+003,-2.224021e-002
3.893637e+003,-2.226511e-002
3.895565e+003,-2.255093e-002
3.897494e+003,-2.264296e-002
3.899422e+003,-2.236759e-002
3.901351e+003,-2.223391e-002
3.903279e+003,-2.210321e-002
3.905208e+003,-2.218555e-002
3.907136e+003,-2.265991e-002
3.909065e+003,-2.263529e-002
3.910993e+003,-2.260346e-002
3.912922e+003,-2.277126e-002
3.914850e+003,-2.266438e-002
3.916779e+003,-2.247291e-002
3.918707e+003,-2.245519e-002
3.920636e+003,-2.253734e-002
3.922564e+003,-2.250261e-002
3.924493e+003,-2.232815e-002
3.926421e+003,-2.245623e-002
3.928350e+003,-2.276315e-002
3.930278e+003,-2.294975e-002
3.932207e+003,-2.284584e-002
3.934135e+003,-2.275029e-002
3.936064e+003,-2.285461e-002
3.937992e+003,-2.274463e-002
3.939921e+003,-2.254133e-002
3.941849e+003,-2.238508e-002
3.943778e+003,-2.265495e-002
3.945706e+003,-2.288428e-002
3.947635e+003,-2.272268e-002
3.949563e+003,-2.270960e-002
3.951492e+003,-2.284533e-002
3.953420e+003,-2.292766e-002
3.955349e+003,-2.308245e-002
3.957277e+003,-2.310250e-002
3.959206e+003,-2.312100e-002
3.961134e+003,-2.312452e-002
3.963063e+003,-2.299290e-002
3.964991e+003,-2.294554e-002
3.966920e+003,-2.280251e-002
3.968848e+003,-2.269649e-002
3.970777e+003,-2.294444e-002
3.972705e+003,-2.307755e-002
3.974634e+003,-2.305719e-002
3.976562e+003,-2.310712e-002
3.978491e+003,-2.291317e-002
3.980419e+003,-2.275485e-002
3.982348e+003,-2.272806e-002
3.984276e+003,-2.276331e-002
3.986205e+003,-2.293709e-002
3.988133e+003,-2.304113e-002
3.990062e+003,-2.297043e-002
3.991990e+003,-2.296958e-002
3.993919e+003,-2.312590e-002
3.995847e+003,-2.315006e-002
3.997776e+003,-2.281949e-002
3.999704e+003,-2.284122e-002
4.001633e+003,0.000000e+000
