3.991989e+002,-1.332585e-002
4.011274e+002,-1.286672e-002
4.030559e+002,-1.515092e-002
4.049844e+002,-1.789785e-002
4.069129e+002,-1.334128e-002
4.088414e+002,-7.636527e-003
4.107699e+002,-1.113476e-002
4.126984e+002,-1.651295e-002
4.146269e+002,-1.210995e-002
4.165554e+002,-7.817439e-003
4.184839e+002,-5.805308e-003
4.204124e+002,1.547330e-003
4.223409e+002,3.057746e-003
4.242694e+002,-3.077393e-004
4.261979e+002,-5.319922e-003
4.281264e+002,1.799422e-003
4.300549e+002,6.763360e-003
4.319834e+002,4.683578e-003
4.339119e+002,4.663683e-003
4.358404e+002,3.642649e-003
4.377689e+002,2.911384e-003
4.396974e+002,-3.790347e-003
4.416259e+002,-1.034898e-002
4.435544e+002,-7.667813e-003
4.454829e+002,-6.342727e-003
4.474114e+002,-2.078685e-003
4.493399e+002,-2.185303e-004
4.512684e+002,-7.920754e-004
4.531969e+002,-8.780915e-004
4.551254e+002,-2.629131e-003
4.570539e+002,-3.814061e-003
4.589824e+002,-5.590585e-003
4.609109e+002,-6.323918e-003
4.628394e+002,-4.669896e-003
4.647679e+002,-5.268891e-003
4.666964e+002,-5.718660e-003
4.686249e+002,-3.382634e-003
4.705533e+002,-2.496979e-003
4.724819e+002,-4.638229e-003
4.744103e+002,-5.270692e-003
4.763389e+002,-4.588103e-003
4.782673e+002,-6.039465e-003
4.801959e+002,-6.984061e-003
4.821243e+002,-6.693971e-003
4.840529e+002,-6.665323e-003
4.859813e+002,-7.316672e-003
4.879099e+002,-6.186876e-003
4.898383e+002,-5.624439e-003
4.917668e+002,-7.800614e-003
4.936953e+002,-9.604692e-003
4.956238e+002,-7.538977e-003
4.975523e+002,-6.612297e-003
4.994808e+002,-8.817600e-003
5.014093e+002,-8.953230e-003
5.033378e+002,-7.147318e-003
5.052663e+002,-5.196804e-003
5.071948e+002,-6.278395e-003
5.091233e+002,-8.281644e-003
5.110518e+002,-8.244615e-003
5.129803e+002,-7.908614e-003
5.149088e+002,-8.866364e-003
5.168373e+002,-9.028656e-003
5.187658e+002,-7.002189e-003
5.206943e+002,-7.714461e-003
5.226228e+002,-8.732006e-003
5.245513e+002,-8.046871e-003
5.264798e+002,-8.496209e-003
5.284083e+002,-9.756373e-003
5.303368e+002,-8.131625e-003
5.322653e+002,-7.024522e-003
5.341938e+002,-6.423537e-003
5.361223e+002,-6.710447e-003
5.380508e+002,-7.496316e-003
5.399792e+002,-8.190579e-003
5.419078e+002,-7.388636e-003
5.438363e+002,-5.973551e-003
5.457648e+002,-5.657014e-003
5.476932e+002,-6.204188e-003
5.496218e+002,-7.014513e-003
5.515503e+002,-6.623882e-003
5.534788e+002,-6.840670e-003
5.554072e+002,-6.747509e-003
5.573358e+002,-6.717625e-003
5.592643e+002,-6.572319e-003
5.611927e+002,-6.372343e-003
5.631212e+002,-5.415059e-003
5.650497e+002,-4.593873e-003
5.669783e+002,-4.900669e-003
5.689067e+002,-5.249512e-003
5.708352e+002,-6.290380e-003
5.727637e+002,-6.266441e-003
5.746923e+002,-7.105532e-003
5.766207e+002,-1.007453e-002
5.785492e+002,-9.365413e-003
5.804777e+002,-4.665503e-003
5.824063e+002,-6.130067e-003
5.843347e+002,-9.216839e-003
5.862632e+002,-8.879902e-003
5.881917e+002,-8.619662e-003
5.901202e+002,-8.294256e-003
5.920487e+002,-7.921824e-003
5.939772e+002,-7.775098e-003
5.959057e+002,-8.004130e-003
5.978342e+002,-7.968281e-003
5.997627e+002,-7.634508e-003
6.016912e+002,-8.014897e-003
6.036197e+002,-7.190534e-003
6.055482e+002,-5.244962e-003
6.074767e+002,-3.535945e-003
6.094052e+002,-3.519052e-003
6.113337e+002,-5.364825e-003
6.132622e+002,-6.143723e-003
6.151907e+002,-5.242998e-003
6.171192e+002,-5.349804e-003
6.190477e+002,-5.893834e-003
6.209762e+002,-5.047812e-003
6.229047e+002,-5.405569e-003
6.248332e+002,-7.649550e-003
6.267617e+002,-8.742982e-003
6.286902e+002,-8.503878e-003
6.306187e+002,-7.642843e-003
6.325472e+002,-7.280311e-003
6.344756e+002,-7.001732e-003
6.364042e+002,-6.327935e-003
6.383326e+002,-6.122422e-003
6.402612e+002,-6.177436e-003
6.421896e+002,-5.534680e-003
6.441182e+002,-5.403802e-003
6.460466e+002,-6.213987e-003
6.479752e+002,-6.220226e-003
6.499036e+002,-5.817208e-003
6.518322e+002,-5.429261e-003
6.537606e+002,-4.952987e-003
6.556891e+002,-5.190976e-003
6.576177e+002,-5.293605e-003
6.595461e+002,-5.095102e-003
6.614746e+002,-5.162033e-003
6.634031e+002,-5.591566e-003
6.653317e+002,-4.963437e-003
6.672601e+002,-4.025297e-003
6.691886e+002,-4.575087e-003
6.711171e+002,-5.447094e-003
6.730457e+002,-5.364073e-003
6.749741e+002,-5.164947e-003
6.769026e+002,-4.933233e-003
6.788311e+002,-4.884484e-003
6.807596e+002,-5.017320e-003
6.826881e+002,-5.281527e-003
6.846166e+002,-5.428018e-003
6.865451e+002,-5.309546e-003
6.884736e+002,-5.128929e-003
6.904021e+002,-5.147691e-003
6.923306e+002,-5.423338e-003
6.942591e+002,-5.600464e-003
6.961876e+002,-5.990807e-003
6.981161e+002,-6.567489e-003
7.000446e+002,-6.684835e-003
7.019731e+002,-6.498783e-003
7.039016e+002,-6.389974e-003
7.058301e+002,-6.712992e-003
7.077585e+002,-7.120786e-003
7.096871e+002,-7.219408e-003
7.116156e+002,-7.042812e-003
7.135441e+002,-7.146536e-003
7.154725e+002,-7.887498e-003
7.174011e+002,-8.627165e-003
7.193296e+002,-8.490718e-003
7.212581e+002,-8.652533e-003
7.231865e+002,-8.514989e-003
7.251151e+002,-8.107397e-003
7.270436e+002,-8.106161e-003
7.289720e+002,-8.087526e-003
7.309005e+002,-7.820595e-003
7.328290e+002,-7.641378e-003
7.347576e+002,-7.341139e-003
7.366860e+002,-7.432806e-003
7.386145e+002,-7.655768e-003
7.405430e+002,-7.898430e-003
7.424716e+002,-7.025989e-003
7.444000e+002,-6.080929e-003
7.463285e+002,-5.435544e-003
7.482570e+002,-5.556140e-003
7.501855e+002,-5.294554e-003
7.521140e+002,-4.766290e-003
7.540425e+002,-4.385242e-003
7.559710e+002,-3.838694e-003
7.578995e+002,-3.469157e-003
7.598280e+002,-3.176742e-003
7.617565e+002,-3.092792e-003
7.636850e+002,-3.057721e-003
7.656135e+002,-2.271023e-003
7.675420e+002,-1.807770e-003
7.694705e+002,-1.879069e-003
7.713990e+002,-1.812983e-003
7.733275e+002,-1.764047e-003
7.752560e+002,-2.116539e-003
7.771844e+002,-2.239148e-003
7.791130e+002,-2.396620e-003
7.810415e+002,-2.334897e-003
7.829700e+002,-2.436951e-003
7.848984e+002,-2.479090e-003
7.868270e+002,-2.590333e-003
7.887555e+002,-3.051502e-003
7.906840e+002,-3.649513e-003
7.926124e+002,-3.757040e-003
7.945410e+002,-3.708848e-003
7.964695e+002,-3.829826e-003
7.983979e+002,-4.112382e-003
8.003264e+002,-4.258250e-003
8.022549e+002,-4.384160e-003
8.041835e+002,-4.355622e-003
8.061119e+002,-4.347651e-003
8.080404e+002,-3.938228e-003
8.099689e+002,-3.859384e-003
8.118975e+002,-4.123148e-003
8.138259e+002,-4.327115e-003
8.157545e+002,-4.107098e-003
8.176830e+002,-4.247226e-003
8.196115e+002,-4.945420e-003
8.215399e+002,-5.437834e-003
8.234684e+002,-5.350065e-003
8.253970e+002,-5.448599e-003
8.273254e+002,-5.945510e-003
8.292539e+002,-6.484192e-003
8.311824e+002,-6.531359e-003
8.331110e+002,-6.478577e-003
8.350394e+002,-6.376293e-003
8.369679e+002,-5.949595e-003
8.388964e+002,-6.268336e-003
8.408250e+002,-6.807336e-003
8.427534e+002,-6.740919e-003
8.446819e+002,-6.424256e-003
8.466104e+002,-6.378808e-003
8.485389e+002,-6.127617e-003
8.504674e+002,-5.846336e-003
8.523959e+002,-5.999434e-003
8.543244e+002,-6.026198e-003
8.562529e+002,-5.932534e-003
8.581814e+002,-5.983290e-003
8.601099e+002,-5.621757e-003
8.620384e+002,-5.409169e-003
8.639669e+002,-5.774966e-003
8.658954e+002,-5.916649e-003
8.678239e+002,-5.469737e-003
8.697524e+002,-5.435904e-003
8.716809e+002,-5.825120e-003
8.736094e+002,-5.828683e-003
8.755378e+002,-5.590847e-003
8.774664e+002,-5.422913e-003
8.793949e+002,-5.251804e-003
8.813234e+002,-5.094251e-003
8.832518e+002,-4.927599e-003
8.851804e+002,-5.069788e-003
8.871089e+002,-5.032976e-003
8.890374e+002,-4.779497e-003
8.909658e+002,-5.010147e-003
8.928943e+002,-5.105549e-003
8.948229e+002,-4.853325e-003
8.967513e+002,-4.542922e-003
8.986798e+002,-4.942275e-003
9.006083e+002,-5.321558e-003
9.025369e+002,-5.173493e-003
9.044653e+002,-5.165667e-003
9.063938e+002,-5.368196e-003
9.083223e+002,-5.346531e-003
9.102509e+002,-5.546032e-003
9.121793e+002,-6.041719e-003
9.141078e+002,-6.286755e-003
9.160364e+002,-6.240542e-003
9.179648e+002,-6.209055e-003
9.198933e+002,-6.369012e-003
9.218218e+002,-6.905702e-003
9.237504e+002,-7.303639e-003
9.256788e+002,-7.570628e-003
9.276073e+002,-7.918668e-003
9.295358e+002,-7.816982e-003
9.314644e+002,-7.779655e-003
9.333928e+002,-8.041439e-003
9.353213e+002,-8.104502e-003
9.372498e+002,-7.918993e-003
9.391783e+002,-7.918278e-003
9.411068e+002,-8.197569e-003
9.430353e+002,-8.236487e-003
9.449637e+002,-8.164143e-003
9.468923e+002,-8.406879e-003
9.488208e+002,-8.222637e-003
9.507493e+002,-7.943232e-003
9.526777e+002,-7.773764e-003
9.546063e+002,-7.587755e-003
9.565348e+002,-7.451990e-003
9.584633e+002,-7.331691e-003
9.603917e+002,-7.133042e-003
9.623203e+002,-6.981322e-003
9.642488e+002,-6.897843e-003
9.661772e+002,-6.579271e-003
9.681057e+002,-6.304096e-003
9.700343e+002,-6.123762e-003
9.719628e+002,-6.014401e-003
9.738912e+002,-6.108929e-003
9.758197e+002,-6.149309e-003
9.777483e+002,-5.972963e-003
9.796768e+002,-5.775784e-003
9.816052e+002,-5.543872e-003
9.835337e+002,-5.581459e-003
9.854623e+002,-5.450007e-003
9.873907e+002,-5.156238e-003
9.893192e+002,-5.163048e-003
9.912477e+002,-5.166682e-003
9.931763e+002,-5.160920e-003
9.951047e+002,-5.095364e-003
9.970332e+002,-4.884713e-003
9.989617e+002,-4.901324e-003
1.000890e+003,-4.627543e-003
1.002819e+003,-4.214282e-003
1.004747e+003,-4.271145e-003
1.006676e+003,-4.303986e-003
1.008604e+003,-4.180121e-003
1.010533e+003,-4.125773e-003
1.012461e+003,-3.922762e-003
1.014390e+003,-3.666302e-003
1.016318e+003,-3.421394e-003
1.018247e+003,-3.032188e-003
1.020175e+003,-3.101839e-003
1.022104e+003,-3.035150e-003
1.024032e+003,-2.609732e-003
1.025961e+003,-2.444661e-003
1.027889e+003,-2.403111e-003
1.029818e+003,-2.318550e-003
1.031746e+003,-2.181062e-003
1.033675e+003,-2.009067e-003
1.035603e+003,-1.443601e-003
1.037532e+003,-1.126222e-003
1.039460e+003,-1.141623e-003
1.041389e+003,-1.026934e-003
1.043317e+003,-9.998606e-004
1.045246e+003,-1.156890e-003
1.047174e+003,-9.787361e-004
1.049103e+003,-9.255072e-004
1.051031e+003,-1.023893e-003
1.052960e+003,-7.965073e-004
1.054888e+003,-6.851351e-004
1.056817e+003,-1.000687e-003
1.058745e+003,-1.162376e-003
1.060674e+003,-1.076813e-003
1.062602e+003,-9.087767e-004
1.064531e+003,-6.947287e-004
1.066459e+003,-5.474930e-004
1.068388e+003,-5.426945e-004
1.070316e+003,-5.398155e-004
1.072245e+003,-4.064307e-004
1.074173e+003,-3.082360e-004
1.076102e+003,-4.436038e-004
1.078030e+003,-5.169477e-004
1.079959e+003,-3.897133e-004
1.081887e+003,6.627313e-005
1.083816e+003,3.957344e-004
1.085744e+003,6.274485e-004
1.087673e+003,7.835976e-004
1.089601e+003,6.930541e-004
1.091530e+003,7.714488e-004
1.093458e+003,1.303426e-003
1.095387e+003,1.615336e-003
1.097315e+003,1.909798e-003
1.099244e+003,1.960320e-003
1.101172e+003,2.082656e-003
1.103101e+003,2.218813e-003
1.105029e+003,2.119779e-003
1.106958e+003,2.086218e-003
1.108886e+003,2.182081e-003
1.110815e+003,2.427078e-003
1.112743e+003,2.585009e-003
1.114672e+003,2.534281e-003
1.116600e+003,2.589876e-003
1.118529e+003,2.517118e-003
1.120457e+003,2.398524e-003
1.122386e+003,2.429078e-003
1.124314e+003,2.453468e-003
1.126243e+003,2.131999e-003
1.128171e+003,1.829600e-003
1.130100e+003,1.688109e-003
1.132028e+003,1.388911e-003
1.133957e+003,1.110215e-003
1.135885e+003,8.561322e-004
1.137814e+003,6.755982e-004
1.139742e+003,3.268246e-004
1.141671e+003,-1.569607e-004
1.143599e+003,-5.497432e-004
1.145528e+003,-8.865566e-004
1.147456e+003,-1.158509e-003
1.149385e+003,-1.528662e-003
1.151313e+003,-1.878970e-003
1.153242e+003,-2.179348e-003
1.155170e+003,-2.571459e-003
1.157099e+003,-2.766773e-003
1.159027e+003,-3.022350e-003
1.160956e+003,-3.216409e-003
1.162884e+003,-3.325490e-003
1.164813e+003,-3.357351e-003
1.166741e+003,-3.379905e-003
1.168670e+003,-3.381648e-003
1.170598e+003,-3.411499e-003
1.172526e+003,-3.436187e-003
1.174455e+003,-3.372343e-003
1.176384e+003,-3.461663e-003
1.178312e+003,-3.571668e-003
1.180240e+003,-3.448317e-003
1.182169e+003,-3.465969e-003
1.184098e+003,-3.524672e-003
1.186026e+003,-3.477736e-003
1.187954e+003,-3.562072e-003
1.189883e+003,-3.859384e-003
1.191812e+003,-3.921777e-003
1.193740e+003,-3.693243e-003
1.195668e+003,-3.683222e-003
1.197597e+003,-3.639557e-003
1.199526e+003,-3.538081e-003
1.201454e+003,-3.515338e-003
1.203382e+003,-3.384311e-003
1.205311e+003,-3.246962e-003
1.207240e+003,-3.271397e-003
1.209168e+003,-3.078053e-003
1.211096e+003,-2.857436e-003
1.213025e+003,-2.688408e-003
1.214953e+003,-2.651361e-003
1.216882e+003,-2.586018e-003
1.218810e+003,-2.520632e-003
1.220739e+003,-2.472765e-003
1.222667e+003,-2.269177e-003
1.224596e+003,-2.139587e-003
1.226524e+003,-2.013025e-003
1.228453e+003,-1.890484e-003
1.230381e+003,-1.752002e-003
1.232310e+003,-1.634504e-003
1.234238e+003,-1.532030e-003
1.236167e+003,-1.461797e-003
1.238095e+003,-1.603573e-003
1.240024e+003,-1.706657e-003
1.241952e+003,-1.638894e-003
1.243881e+003,-1.716261e-003
1.245809e+003,-1.784177e-003
1.247738e+003,-1.933501e-003
1.249666e+003,-2.052303e-003
1.251595e+003,-2.096260e-003
1.253523e+003,-2.049104e-003
1.255452e+003,-2.019984e-003
1.257380e+003,-2.079245e-003
1.259309e+003,-2.218447e-003
1.261237e+003,-2.135366e-003
1.263166e+003,-1.777775e-003
1.265094e+003,-1.530776e-003
1.267023e+003,-1.298105e-003
1.268951e+003,-9.470640e-004
1.270880e+003,-6.467254e-004
1.272808e+003,-3.232017e-004
1.274737e+003,2.372462e-005
1.276665e+003,3.298752e-004
1.278594e+003,5.418475e-004
1.280522e+003,8.461393e-004
1.282451e+003,1.167156e-003
1.284379e+003,1.488643e-003
1.286308e+003,2.170326e-003
1.288236e+003,2.593542e-003
1.290165e+003,2.782078e-003
1.292093e+003,3.118914e-003
1.294022e+003,3.372922e-003
1.295950e+003,3.738856e-003
1.297879e+003,4.033658e-003
1.299807e+003,4.242595e-003
1.301736e+003,4.220144e-003
1.303664e+003,4.191104e-003
1.305593e+003,4.244535e-003
1.307521e+003,4.151495e-003
1.309450e+003,3.883257e-003
1.311378e+003,3.627847e-003
1.313307e+003,3.478955e-003
1.315235e+003,3.324739e-003
1.317164e+003,3.076766e-003
1.319092e+003,2.714156e-003
1.321021e+003,2.237497e-003
1.322949e+003,1.799289e-003
1.324878e+003,1.466933e-003
1.326806e+003,1.292658e-003
1.328735e+003,1.244174e-003
1.330663e+003,1.069325e-003
1.332592e+003,9.166258e-004
1.334520e+003,8.926200e-004
1.336449e+003,8.117801e-004
1.338377e+003,7.656732e-004
1.340306e+003,7.605617e-004
1.342234e+003,8.330261e-004
1.344163e+003,7.999293e-004
1.346091e+003,6.013683e-004
1.348020e+003,5.940355e-004
1.349948e+003,5.756877e-004
1.351877e+003,3.913899e-004
1.353805e+003,3.200934e-004
1.355734e+003,2.500020e-004
1.357662e+003,1.498580e-004
1.359591e+003,1.217847e-004
1.361519e+003,-6.991226e-006
1.363448e+003,-1.716998e-004
1.365376e+003,-3.464769e-004
1.367305e+003,-4.109327e-004
1.369233e+003,-4.290395e-004
1.371162e+003,-5.475592e-004
1.373090e+003,-5.456398e-004
1.375019e+003,-5.212500e-004
1.376947e+003,-4.971236e-004
1.378876e+003,-4.051397e-004
1.380804e+003,-3.852111e-004
1.382733e+003,-4.333757e-004
1.384661e+003,-6.452697e-004
1.386590e+003,-7.823516e-004
1.388518e+003,-8.995846e-004
1.390447e+003,-1.115482e-003
1.392375e+003,-1.293811e-003
1.394304e+003,-1.346631e-003
1.396232e+003,-1.484516e-003
1.398161e+003,-1.573399e-003
1.400089e+003,-1.655366e-003
1.402018e+003,-1.812785e-003
1.403946e+003,-1.815194e-003
1.405875e+003,-1.797937e-003
1.407803e+003,-1.868809e-003
1.409732e+003,-2.089863e-003
1.411660e+003,-2.157028e-003
1.413589e+003,-2.140510e-003
1.415517e+003,-1.869073e-003
1.417446e+003,-1.341445e-003
1.419374e+003,-7.488460e-004
1.421303e+003,-2.688326e-004
1.423231e+003,3.203918e-004
1.425160e+003,1.016449e-003
1.427088e+003,1.582046e-003
1.429017e+003,1.955327e-003
1.430945e+003,2.240561e-003
1.432874e+003,2.495689e-003
1.434802e+003,2.948345e-003
1.436731e+003,3.427756e-003
1.438659e+003,3.632224e-003
1.440588e+003,4.011218e-003
1.442516e+003,4.555117e-003
1.444445e+003,4.970275e-003
1.446373e+003,5.575415e-003
1.448302e+003,6.223312e-003
1.450230e+003,6.696292e-003
1.452159e+003,7.323388e-003
1.454087e+003,8.077384e-003
1.456016e+003,8.711245e-003
1.457944e+003,9.110061e-003
1.459873e+003,9.222412e-003
1.461801e+003,9.253550e-003
1.463730e+003,9.436095e-003
1.465658e+003,9.664655e-003
1.467587e+003,9.532985e-003
1.469515e+003,9.376164e-003
1.471444e+003,9.381852e-003
1.473372e+003,9.131446e-003
1.475301e+003,8.701339e-003
1.477229e+003,8.211045e-003
1.479158e+003,7.643599e-003
1.481086e+003,7.015266e-003
1.483015e+003,6.366524e-003
1.484943e+003,5.909017e-003
1.486872e+003,5.516048e-003
1.488800e+003,5.138421e-003
1.490729e+003,4.636757e-003
1.492657e+003,3.994866e-003
1.494586e+003,3.722113e-003
1.496514e+003,3.438743e-003
1.498443e+003,2.877428e-003
1.500371e+003,2.333493e-003
1.502300e+003,1.922777e-003
1.504228e+003,1.866236e-003
1.506157e+003,1.917785e-003
1.508085e+003,1.467764e-003
1.510014e+003,9.628483e-004
1.511942e+003,7.312540e-004
1.513871e+003,6.570478e-004
1.515799e+003,7.164184e-004
1.517728e+003,9.022487e-004
1.519656e+003,1.018076e-003
1.521585e+003,1.097991e-003
1.523513e+003,1.045510e-003
1.525442e+003,1.185728e-003
1.527370e+003,1.237196e-003
1.529299e+003,1.326491e-003
1.531227e+003,1.664493e-003
1.533156e+003,2.155141e-003
1.535084e+003,2.352349e-003
1.537013e+003,2.667847e-003
1.538941e+003,3.329814e-003
1.540870e+003,3.712689e-003
1.542798e+003,3.903416e-003
1.544727e+003,4.211813e-003
1.546655e+003,4.400585e-003
1.548584e+003,4.694397e-003
1.550512e+003,5.046462e-003
1.552441e+003,5.431592e-003
1.554369e+003,6.149707e-003
1.556298e+003,6.894428e-003
1.558226e+003,7.866122e-003
1.560155e+003,8.258049e-003
1.562083e+003,8.254875e-003
1.564012e+003,8.534208e-003
1.565940e+003,8.694714e-003
1.567869e+003,8.882537e-003
1.569797e+003,9.055418e-003
1.571726e+003,8.915206e-003
1.573654e+003,9.042495e-003
1.575583e+003,9.292511e-003
1.577511e+003,9.189109e-003
1.579440e+003,8.910641e-003
1.581368e+003,8.755228e-003
1.583297e+003,8.530931e-003
1.585225e+003,8.290099e-003
1.587154e+003,8.056860e-003
1.589082e+003,7.718469e-003
1.591010e+003,7.197075e-003
1.592939e+003,6.658977e-003
1.594868e+003,6.193936e-003
1.596796e+003,5.740639e-003
1.598724e+003,5.204645e-003
1.600653e+003,4.554983e-003
1.602582e+003,3.847420e-003
1.604510e+003,3.205191e-003
1.606438e+003,2.794417e-003
1.608367e+003,2.381699e-003
1.610296e+003,1.999397e-003
1.612224e+003,1.574996e-003
1.614152e+003,1.302927e-003
1.616081e+003,1.066501e-003
1.618010e+003,7.066942e-004
1.619938e+003,4.304919e-004
1.621866e+003,2.983088e-004
1.623795e+003,-1.961491e-005
1.625724e+003,-1.428505e-004
1.627652e+003,-1.174112e-004
1.629580e+003,-3.903423e-004
1.631509e+003,-6.756736e-004
1.633438e+003,-6.107278e-004
1.635366e+003,-5.872681e-004
1.637294e+003,-1.066864e-003
1.639223e+003,-1.561183e-003
1.641151e+003,-1.860165e-003
1.643080e+003,-2.145489e-003
1.645008e+003,-2.231797e-003
1.646937e+003,-2.375629e-003
1.648865e+003,-2.695455e-003
1.650794e+003,-2.742738e-003
1.652722e+003,-2.392699e-003
1.654651e+003,-2.895420e-003
1.656579e+003,-3.395883e-003
1.658508e+003,-3.694163e-003
1.660436e+003,-3.745772e-003
1.662365e+003,-3.743144e-003
1.664293e+003,-3.989086e-003
1.666222e+003,-4.087306e-003
1.668150e+003,-4.072994e-003
1.670079e+003,-4.323473e-003
1.672007e+003,-4.636000e-003
1.673936e+003,-4.825932e-003
1.675864e+003,-4.991902e-003
1.677793e+003,-5.460902e-003
1.679721e+003,-5.743381e-003
1.681650e+003,-5.884485e-003
1.683578e+003,-5.897593e-003
1.685507e+003,-6.442211e-003
1.687435e+003,-7.024392e-003
1.689364e+003,-7.184538e-003
1.691292e+003,-7.348306e-003
1.693221e+003,-7.419060e-003
1.695149e+003,-7.251636e-003
1.697078e+003,-7.294354e-003
1.699006e+003,-7.302402e-003
1.700935e+003,-7.459481e-003
1.702863e+003,-7.825574e-003
1.704792e+003,-7.851021e-003
1.706720e+003,-7.915869e-003
1.708649e+003,-8.150876e-003
1.710577e+003,-8.291038e-003
1.712506e+003,-8.251539e-003
1.714434e+003,-8.202772e-003
1.716363e+003,-8.198187e-003
1.718291e+003,-8.280896e-003
1.720220e+003,-8.599554e-003
1.722148e+003,-8.768538e-003
1.724077e+003,-8.862177e-003
1.726005e+003,-8.923725e-003
1.727934e+003,-8.942422e-003
1.729862e+003,-8.869383e-003
1.731791e+003,-8.729018e-003
1.733719e+003,-8.616868e-003
1.735648e+003,-8.969913e-003
1.737576e+003,-9.107378e-003
1.739505e+003,-8.928887e-003
1.741433e+003,-8.876786e-003
1.743362e+003,-8.824548e-003
1.745290e+003,-8.711091e-003
1.747219e+003,-8.591433e-003
1.749147e+003,-8.487209e-003
1.751076e+003,-8.472100e-003
1.753004e+003,-8.618687e-003
1.754933e+003,-8.602738e-003
1.756861e+003,-8.454455e-003
1.758790e+003,-8.527921e-003
1.760718e+003,-8.453903e-003
1.762647e+003,-8.433398e-003
1.764575e+003,-8.514632e-003
1.766504e+003,-8.451985e-003
1.768432e+003,-8.357381e-003
1.770361e+003,-8.283594e-003
1.772289e+003,-8.214996e-003
1.774218e+003,-8.382959e-003
1.776146e+003,-8.468785e-003
1.778075e+003,-8.485422e-003
1.780003e+003,-8.534126e-003
1.781932e+003,-8.621774e-003
1.783860e+003,-8.544490e-003
1.785789e+003,-8.455852e-003
1.787717e+003,-8.458387e-003
1.789646e+003,-8.363166e-003
1.791574e+003,-8.307616e-003
1.793503e+003,-8.438467e-003
1.795431e+003,-8.539096e-003
1.797360e+003,-8.492798e-003
1.799288e+003,-8.336546e-003
1.801217e+003,-8.335799e-003
1.803145e+003,-8.432521e-003
1.805074e+003,-8.430538e-003
1.807002e+003,-8.398624e-003
1.808931e+003,-8.432163e-003
1.810859e+003,-8.446039e-003
1.812788e+003,-8.505534e-003
1.814716e+003,-8.582402e-003
1.816645e+003,-8.569960e-003
1.818573e+003,-8.661173e-003
1.820502e+003,-8.686604e-003
1.822430e+003,-8.626808e-003
1.824359e+003,-8.559044e-003
1.826287e+003,-8.651267e-003
1.828216e+003,-8.771135e-003
1.830144e+003,-8.740286e-003
1.832073e+003,-8.705376e-003
1.834001e+003,-8.716125e-003
1.835930e+003,-8.819061e-003
1.837858e+003,-8.869189e-003
1.839787e+003,-8.921031e-003
1.841715e+003,-8.806431e-003
1.843644e+003,-8.632590e-003
1.845572e+003,-8.674976e-003
1.847501e+003,-8.781235e-003
1.849429e+003,-8.758537e-003
1.851358e+003,-8.694821e-003
1.853286e+003,-8.700407e-003
1.855215e+003,-8.708623e-003
1.857143e+003,-8.723887e-003
1.859072e+003,-8.757497e-003
1.861000e+003,-8.665071e-003
1.862929e+003,-8.555341e-003
1.864857e+003,-8.466706e-003
1.866786e+003,-8.485292e-003
1.868714e+003,-8.435997e-003
1.870643e+003,-8.461279e-003
1.872571e+003,-8.533476e-003
1.874500e+003,-8.520415e-003
1.876428e+003,-8.498289e-003
1.878357e+003,-8.467550e-003
1.880285e+003,-8.435899e-003
1.882214e+003,-8.487632e-003
1.884142e+003,-8.529610e-003
1.886071e+003,-8.465828e-003
1.887999e+003,-8.366416e-003
1.889928e+003,-8.312785e-003
1.891856e+003,-8.382667e-003
1.893785e+003,-8.401355e-003
1.895713e+003,-8.398722e-003
1.897642e+003,-8.399795e-003
1.899570e+003,-8.377629e-003
1.901499e+003,-8.339244e-003
1.903427e+003,-8.319189e-003
1.905356e+003,-8.370836e-003
1.907284e+003,-8.330143e-003
1.909213e+003,-8.263309e-003
1.911141e+003,-8.264739e-003
1.913070e+003,-8.240389e-003
1.914998e+003,-8.277125e-003
1.916927e+003,-8.306089e-003
1.918855e+003,-8.377077e-003
1.920784e+003,-8.358453e-003
1.922712e+003,-8.316198e-003
1.924641e+003,-8.342657e-003
1.926569e+003,-8.421601e-003
1.928498e+003,-8.448184e-003
1.930426e+003,-8.414062e-003
1.932355e+003,-8.399892e-003
1.934283e+003,-8.424656e-003
1.936212e+003,-8.422674e-003
1.938140e+003,-8.430701e-003
1.940069e+003,-8.450263e-003
1.941997e+003,-8.462124e-003
1.943926e+003,-8.486494e-003
1.945854e+003,-8.527530e-003
1.947783e+003,-8.654483e-003
1.949711e+003,-8.647466e-003
1.951640e+003,-8.665331e-003
1.953568e+003,-8.703070e-003
1.955497e+003,-8.644575e-003
1.957425e+003,-8.648896e-003
1.959354e+003,-8.748405e-003
1.961282e+003,-8.694398e-003
1.963211e+003,-8.686084e-003
1.965139e+003,-8.671924e-003
1.967068e+003,-8.573631e-003
1.968996e+003,-8.547772e-003
1.970925e+003,-8.554724e-003
1.972853e+003,-8.611931e-003
1.974782e+003,-8.527336e-003
1.976710e+003,-8.455040e-003
1.978639e+003,-8.517719e-003
1.980567e+003,-8.475284e-003
1.982496e+003,-8.466413e-003
1.984424e+003,-8.483700e-003
1.986353e+003,-8.400249e-003
1.988281e+003,-8.350816e-003
1.990210e+003,-8.305374e-003
1.992138e+003,-8.180044e-003
1.994067e+003,-8.178385e-003
1.995995e+003,-8.245330e-003
1.997924e+003,-8.182580e-003
1.999852e+003,-8.129381e-003
2.001781e+003,-8.132340e-003
2.003709e+003,-8.142616e-003
2.005638e+003,-8.080664e-003
2.007566e+003,-8.089965e-003
2.009495e+003,-8.197764e-003
2.011423e+003,-8.211485e-003
2.013352e+003,-8.116015e-003
2.015280e+003,-8.014799e-003
2.017208e+003,-7.997527e-003
2.019137e+003,-8.117869e-003
2.021066e+003,-8.122422e-003
2.022994e+003,-8.073866e-003
2.024922e+003,-8.067134e-003
2.026851e+003,-8.054742e-003
2.028780e+003,-8.034706e-003
2.030708e+003,-8.001722e-003
2.032636e+003,-7.972218e-003
2.034565e+003,-7.966297e-003
2.036494e+003,-7.989036e-003
2.038422e+003,-7.949315e-003
2.040350e+003,-7.941962e-003
2.042279e+003,-7.903669e-003
2.044208e+003,-7.865340e-003
2.046136e+003,-7.937994e-003
2.048064e+003,-7.940141e-003
2.049993e+003,-7.919644e-003
2.051921e+003,-7.988613e-003
2.053850e+003,-8.023777e-003
2.055778e+003,-7.953642e-003
2.057707e+003,-7.853104e-003
2.059635e+003,-7.674844e-003
2.061564e+003,-7.636202e-003
2.063492e+003,-7.696069e-003
2.065421e+003,-7.757458e-003
2.067349e+003,-7.796285e-003
2.069278e+003,-7.850956e-003
2.071206e+003,-7.860198e-003
2.073135e+003,-7.770216e-003
2.075063e+003,-7.679532e-003
2.076992e+003,-7.649256e-003
2.078920e+003,-7.579159e-003
2.080849e+003,-7.546760e-003
2.082777e+003,-7.502732e-003
2.084706e+003,-7.394239e-003
2.086634e+003,-7.394239e-003
2.088563e+003,-7.391177e-003
2.090491e+003,-7.302564e-003
2.092420e+003,-7.276042e-003
2.094348e+003,-7.328759e-003
2.096277e+003,-7.244305e-003
2.098205e+003,-7.147253e-003
2.100134e+003,-7.138746e-003
2.102062e+003,-7.080334e-003
2.103991e+003,-7.004373e-003
2.105919e+003,-6.943400e-003
2.107848e+003,-6.949823e-003
2.109776e+003,-6.970496e-003
2.111705e+003,-6.918780e-003
2.113633e+003,-6.819926e-003
2.115562e+003,-6.813142e-003
2.117490e+003,-6.734459e-003
2.119419e+003,-6.660265e-003
2.121347e+003,-6.662680e-003
2.123276e+003,-6.612558e-003
2.125204e+003,-6.563181e-003
2.127133e+003,-6.619835e-003
2.129061e+003,-6.542423e-003
2.130990e+003,-6.483213e-003
2.132918e+003,-6.425724e-003
2.134847e+003,-6.468066e-003
2.136775e+003,-6.532240e-003
2.138704e+003,-6.497706e-003
2.140632e+003,-6.389876e-003
2.142561e+003,-6.423798e-003
2.144489e+003,-6.438946e-003
2.146418e+003,-6.350531e-003
2.148346e+003,-6.309811e-003
2.150275e+003,-6.259909e-003
2.152203e+003,-6.258048e-003
2.154132e+003,-6.277872e-003
2.156060e+003,-6.276239e-003
2.157989e+003,-6.382171e-003
2.159917e+003,-6.457816e-003
2.161846e+003,-6.443680e-003
2.163774e+003,-6.442864e-003
2.165703e+003,-6.419456e-003
2.167631e+003,-6.338972e-003
2.169560e+003,-6.217417e-003
2.171488e+003,-6.161723e-003
2.173417e+003,-6.243187e-003
2.175345e+003,-6.272222e-003
2.177274e+003,-6.266964e-003
2.179202e+003,-6.277741e-003
2.181131e+003,-6.286396e-003
2.183059e+003,-6.259354e-003
2.184988e+003,-6.242991e-003
2.186916e+003,-6.308407e-003
2.188845e+003,-6.307068e-003
2.190773e+003,-6.119417e-003
2.192702e+003,-6.013944e-003
2.194630e+003,-6.126245e-003
2.196559e+003,-6.229339e-003
2.198487e+003,-6.258146e-003
2.200416e+003,-6.291098e-003
2.202344e+003,-6.204743e-003
2.204273e+003,-6.142841e-003
2.206201e+003,-6.122259e-003
2.208130e+003,-6.167048e-003
2.210058e+003,-6.226856e-003
2.211987e+003,-6.275129e-003
2.213915e+003,-6.180931e-003
2.215844e+003,-6.112196e-003
2.217772e+003,-6.145193e-003
2.219701e+003,-6.103734e-003
2.221629e+003,-6.080243e-003
2.223558e+003,-6.121148e-003
2.225486e+003,-6.130590e-003
2.227415e+003,-6.093672e-003
2.229343e+003,-6.082791e-003
2.231272e+003,-6.042765e-003
2.233200e+003,-6.051359e-003
2.235129e+003,-6.008159e-003
2.237057e+003,-5.987996e-003
2.238986e+003,-6.086549e-003
2.240914e+003,-6.233552e-003
2.242843e+003,-6.262228e-003
2.244771e+003,-6.204809e-003
2.246700e+003,-6.168779e-003
2.248628e+003,-6.193115e-003
2.250557e+003,-6.206540e-003
2.252485e+003,-6.238223e-003
2.254414e+003,-6.284012e-003
2.256342e+003,-6.241717e-003
2.258271e+003,-6.214510e-003
2.260199e+003,-6.265037e-003
2.262128e+003,-6.354613e-003
2.264056e+003,-6.357943e-003
2.265985e+003,-6.371396e-003
2.267913e+003,-6.441558e-003
2.269842e+003,-6.397320e-003
2.271770e+003,-6.367021e-003
2.273699e+003,-6.351707e-003
2.275627e+003,-6.285449e-003
2.277556e+003,-6.374302e-003
2.279484e+003,-6.570525e-003
2.281413e+003,-6.614842e-003
2.283341e+003,-6.673546e-003
2.285270e+003,-6.719093e-003
2.287198e+003,-6.589192e-003
2.289127e+003,-6.543957e-003
2.291055e+003,-6.570067e-003
2.292984e+003,-6.613309e-003
2.294912e+003,-6.644766e-003
2.296841e+003,-6.536711e-003
2.298769e+003,-6.533513e-003
2.300698e+003,-6.613374e-003
2.302626e+003,-6.552182e-003
2.304555e+003,-6.398920e-003
2.306483e+003,-6.266409e-003
2.308412e+003,-6.090763e-003
2.310340e+003,-5.997996e-003
2.312269e+003,-5.969662e-003
2.314197e+003,-5.809132e-003
2.316125e+003,-5.614659e-003
2.318054e+003,-5.514625e-003
2.319983e+003,-5.330919e-003
2.321911e+003,-5.163212e-003
2.323840e+003,-5.006773e-003
2.325768e+003,-4.846117e-003
2.327697e+003,-4.747806e-003
2.329625e+003,-4.616986e-003
2.331553e+003,-4.575644e-003
2.333482e+003,-4.488947e-003
2.335411e+003,-4.313631e-003
2.337339e+003,-4.265173e-003
2.339268e+003,-4.208343e-003
2.341196e+003,-4.210804e-003
2.343125e+003,-4.387079e-003
2.345053e+003,-4.685007e-003
2.346981e+003,-5.093890e-003
2.348910e+003,-5.347185e-003
2.350839e+003,-4.978571e-003
2.352767e+003,-4.369760e-003
2.354696e+003,-4.006880e-003
2.356624e+003,-3.782858e-003
2.358552e+003,-3.589644e-003
2.360481e+003,-3.482174e-003
2.362409e+003,-3.595592e-003
2.364338e+003,-3.780953e-003
2.366267e+003,-3.784237e-003
2.368195e+003,-3.882306e-003
2.370124e+003,-4.096890e-003
2.372052e+003,-4.324917e-003
2.373980e+003,-4.649506e-003
2.375909e+003,-5.004185e-003
2.377838e+003,-5.241164e-003
2.379766e+003,-5.376607e-003
2.381695e+003,-5.511125e-003
2.383623e+003,-5.500721e-003
2.385552e+003,-5.397552e-003
2.387480e+003,-5.428999e-003
2.389408e+003,-5.449418e-003
2.391337e+003,-5.364629e-003
2.393266e+003,-5.318285e-003
2.395194e+003,-5.294915e-003
2.397123e+003,-5.256158e-003
2.399051e+003,-5.280283e-003
2.400979e+003,-5.404522e-003
2.402908e+003,-5.347611e-003
2.404836e+003,-5.238415e-003
2.406765e+003,-5.200897e-003
2.408694e+003,-5.206397e-003
2.410622e+003,-5.214942e-003
2.412551e+003,-5.176865e-003
2.414479e+003,-5.111672e-003
2.416407e+003,-5.051055e-003
2.418336e+003,-5.019612e-003
2.420264e+003,-5.010310e-003
2.422193e+003,-4.953511e-003
2.424122e+003,-4.858043e-003
2.426050e+003,-4.834517e-003
2.427979e+003,-4.816396e-003
2.429907e+003,-4.673338e-003
2.431835e+003,-4.557972e-003
2.433764e+003,-4.434212e-003
2.435692e+003,-4.353916e-003
2.437621e+003,-4.347257e-003
2.439550e+003,-4.263763e-003
2.441478e+003,-4.223929e-003
2.443406e+003,-4.262942e-003
2.445335e+003,-4.205192e-003
2.447263e+003,-4.186389e-003
2.449192e+003,-4.189014e-003
2.451121e+003,-4.087404e-003
2.453049e+003,-4.070368e-003
2.454978e+003,-4.006355e-003
2.456906e+003,-3.888381e-003
2.458834e+003,-3.869072e-003
2.460763e+003,-3.814981e-003
2.462691e+003,-3.732140e-003
2.464620e+003,-3.672315e-003
2.466549e+003,-3.591221e-003
2.468477e+003,-3.596676e-003
2.470406e+003,-3.588855e-003
2.472334e+003,-3.591090e-003
2.474262e+003,-3.532856e-003
2.476191e+003,-3.386217e-003
2.478119e+003,-3.346599e-003
2.480048e+003,-3.331080e-003
2.481977e+003,-3.286787e-003
2.483905e+003,-3.235517e-003
2.485833e+003,-3.254888e-003
2.487762e+003,-3.231670e-003
2.489690e+003,-3.181150e-003
2.491619e+003,-3.166151e-003
2.493547e+003,-3.013762e-003
2.495476e+003,-3.015934e-003
2.497405e+003,-3.119012e-003
2.499333e+003,-3.093253e-003
2.501261e+003,-2.888969e-003
2.503190e+003,-2.832813e-003
2.505118e+003,-3.013992e-003
2.507047e+003,-3.130526e-003
2.508975e+003,-3.019125e-003
2.510904e+003,-2.935738e-003
2.512833e+003,-2.876889e-003
2.514761e+003,-2.812041e-003
2.516689e+003,-2.821292e-003
2.518618e+003,-2.906808e-003
2.520546e+003,-2.907433e-003
2.522475e+003,-2.845520e-003
2.524403e+003,-2.827118e-003
2.526332e+003,-2.807663e-003
2.528260e+003,-2.722324e-003
2.530189e+003,-2.626957e-003
2.532117e+003,-2.564641e-003
2.534046e+003,-2.588785e-003
2.535974e+003,-2.529593e-003
2.537903e+003,-2.519710e-003
2.539831e+003,-2.610622e-003
2.541760e+003,-2.659232e-003
2.543688e+003,-2.641184e-003
2.545617e+003,-2.608843e-003
2.547545e+003,-2.482451e-003
2.549474e+003,-2.345179e-003
2.551402e+003,-2.314233e-003
2.553331e+003,-2.386174e-003
2.555259e+003,-2.438697e-003
2.557188e+003,-2.350650e-003
2.559116e+003,-2.345608e-003
2.561045e+003,-2.269276e-003
2.562973e+003,-2.219568e-003
2.564902e+003,-2.260310e-003
2.566830e+003,-2.213403e-003
2.568759e+003,-2.144466e-003
2.570687e+003,-2.145258e-003
2.572616e+003,-2.086929e-003
2.574544e+003,-2.013025e-003
2.576473e+003,-2.086929e-003
2.578401e+003,-2.120199e-003
2.580330e+003,-2.017114e-003
2.582258e+003,-1.978954e-003
2.584187e+003,-1.992015e-003
2.586115e+003,-2.013915e-003
2.588044e+003,-2.010254e-003
2.589972e+003,-1.949598e-003
2.591901e+003,-1.904339e-003
2.593829e+003,-1.817569e-003
2.595758e+003,-1.693818e-003
2.597686e+003,-1.637409e-003
2.599615e+003,-1.662825e-003
2.601543e+003,-1.771835e-003
2.603472e+003,-1.898368e-003
2.605400e+003,-1.874483e-003
2.607329e+003,-1.718175e-003
2.609257e+003,-1.640446e-003
2.611186e+003,-1.681903e-003
2.613114e+003,-1.695633e-003
2.615043e+003,-1.663551e-003
2.616971e+003,-1.607798e-003
2.618900e+003,-1.647510e-003
2.620828e+003,-1.647774e-003
2.622757e+003,-1.534044e-003
2.624685e+003,-1.439208e-003
2.626614e+003,-1.471703e-003
2.628542e+003,-1.530049e-003
2.630471e+003,-1.663717e-003
2.632399e+003,-1.707086e-003
2.634328e+003,-1.631830e-003
2.636256e+003,-1.632259e-003
2.638185e+003,-1.638597e-003
2.640113e+003,-1.462886e-003
2.642042e+003,-1.350760e-003
2.643970e+003,-1.375995e-003
2.645899e+003,-1.318223e-003
2.647827e+003,-1.219276e-003
2.649756e+003,-1.266456e-003
2.651684e+003,-1.287005e-003
2.653613e+003,-1.075821e-003
2.655541e+003,-9.202170e-004
2.657470e+003,-9.193904e-004
2.659398e+003,-9.338391e-004
2.661327e+003,-8.649306e-004
2.663255e+003,-8.092073e-004
2.665184e+003,-7.323733e-004
2.667112e+003,-6.563199e-004
2.669041e+003,-6.892703e-004
2.670969e+003,-7.445129e-004
2.672898e+003,-6.290909e-004
2.674826e+003,-5.670501e-004
2.676755e+003,-5.212500e-004
2.678683e+003,-5.295566e-004
2.680612e+003,-4.328461e-004
2.682540e+003,-2.037928e-004
2.684469e+003,-1.656386e-004
2.686397e+003,-1.619621e-004
2.688326e+003,-1.270173e-004
2.690254e+003,-1.142311e-004
2.692183e+003,-1.128399e-004
2.694111e+003,-5.997220e-006
2.696040e+003,1.476372e-004
2.697968e+003,2.438356e-004
2.699897e+003,3.093501e-004
2.701825e+003,1.954354e-004
2.703754e+003,1.899327e-004
2.705682e+003,3.550106e-004
2.707611e+003,4.859173e-004
2.709539e+003,5.379328e-004
2.711468e+003,4.333775e-004
2.713396e+003,4.465450e-004
2.715325e+003,5.219095e-004
2.717253e+003,5.709101e-004
2.719182e+003,5.170330e-004
2.721110e+003,5.848450e-004
2.723039e+003,7.619225e-004
2.724967e+003,8.463385e-004
2.726896e+003,8.293412e-004
2.728824e+003,7.928588e-004
2.730753e+003,8.036472e-004
2.732681e+003,9.220381e-004
2.734610e+003,9.657706e-004
2.736538e+003,1.005290e-003
2.738467e+003,1.115995e-003
2.740395e+003,1.280063e-003
2.742324e+003,1.342411e-003
2.744252e+003,1.355506e-003
2.746181e+003,1.302097e-003
2.748109e+003,1.446786e-003
2.750038e+003,1.613872e-003
2.751966e+003,1.746557e-003
2.753895e+003,1.849532e-003
2.755823e+003,1.935491e-003
2.757752e+003,1.990776e-003
2.759680e+003,2.040342e-003
2.761609e+003,2.247356e-003
2.763537e+003,2.465064e-003
2.765466e+003,2.562511e-003
2.767394e+003,2.841040e-003
2.769323e+003,3.258935e-003
2.771251e+003,3.609471e-003
2.773180e+003,4.043424e-003
2.775108e+003,4.400618e-003
2.777037e+003,4.690310e-003
2.778965e+003,5.172185e-003
2.780894e+003,5.688937e-003
2.782822e+003,6.205162e-003
2.784750e+003,6.729842e-003
2.786679e+003,7.371645e-003
2.788608e+003,8.018450e-003
2.790536e+003,8.655841e-003
2.792465e+003,9.215947e-003
2.794393e+003,9.805889e-003
2.796322e+003,1.042663e-002
2.798250e+003,1.096409e-002
2.800178e+003,1.152840e-002
2.802107e+003,1.210269e-002
2.804036e+003,1.261630e-002
2.805964e+003,1.309660e-002
2.807893e+003,1.336195e-002
2.809821e+003,1.349875e-002
2.811750e+003,1.371687e-002
2.813678e+003,1.384127e-002
2.815606e+003,1.378223e-002
2.817535e+003,1.372645e-002
2.819464e+003,1.368794e-002
2.821392e+003,1.356513e-002
2.823321e+003,1.330366e-002
2.825249e+003,1.299506e-002
2.827177e+003,1.285094e-002
2.829106e+003,1.265068e-002
2.831034e+003,1.213349e-002
2.832963e+003,1.168607e-002
2.834892e+003,1.128417e-002
2.836820e+003,1.084602e-002
2.838749e+003,1.049163e-002
2.840677e+003,1.001376e-002
2.842605e+003,9.495019e-003
2.844534e+003,8.950382e-003
2.846462e+003,8.382409e-003
2.848391e+003,7.992731e-003
2.850320e+003,7.701908e-003
2.852248e+003,7.429784e-003
2.854177e+003,7.117377e-003
2.856105e+003,6.823133e-003
2.858033e+003,6.728428e-003
2.859962e+003,6.683506e-003
2.861890e+003,6.491957e-003
2.863819e+003,6.433103e-003
2.865748e+003,6.434516e-003
2.867676e+003,6.333843e-003
2.869604e+003,6.307384e-003
2.871533e+003,6.390027e-003
2.873461e+003,6.521252e-003
2.875390e+003,6.594281e-003
2.877319e+003,6.626510e-003
2.879247e+003,6.786918e-003
2.881176e+003,6.931797e-003
2.883104e+003,6.973479e-003
2.885032e+003,6.929946e-003
2.886961e+003,7.002403e-003
2.888889e+003,6.987588e-003
2.890818e+003,6.888369e-003
2.892747e+003,6.785471e-003
2.894675e+003,6.706320e-003
2.896604e+003,6.685659e-003
2.898532e+003,6.687712e-003
2.900460e+003,6.689394e-003
2.902389e+003,6.611976e-003
2.904317e+003,6.522059e-003
2.906246e+003,6.448808e-003
2.908175e+003,6.474569e-003
2.910103e+003,6.503291e-003
2.912031e+003,6.566023e-003
2.913960e+003,6.579041e-003
2.915888e+003,6.518024e-003
2.917817e+003,6.650128e-003
2.919745e+003,6.791529e-003
2.921674e+003,6.997622e-003
2.923603e+003,7.038569e-003
2.925531e+003,7.047055e-003
2.927459e+003,7.170731e-003
2.929388e+003,7.248182e-003
2.931316e+003,7.357188e-003
2.933245e+003,7.465446e-003
2.935173e+003,7.560886e-003
2.937102e+003,7.604415e-003
2.939031e+003,7.568067e-003
2.940959e+003,7.508157e-003
2.942887e+003,7.276955e-003
2.944816e+003,7.181309e-003
2.946744e+003,6.987958e-003
2.948673e+003,6.650499e-003
2.950601e+003,6.328867e-003
2.952530e+003,5.956110e-003
2.954458e+003,5.514370e-003
2.956387e+003,5.065033e-003
2.958315e+003,4.636389e-003
2.960244e+003,4.113528e-003
2.962172e+003,3.556218e-003
2.964101e+003,3.134532e-003
2.966029e+003,2.721258e-003
2.967958e+003,2.294153e-003
2.969886e+003,1.874456e-003
2.971815e+003,1.335298e-003
2.973743e+003,9.020163e-004
2.975672e+003,6.524020e-004
2.977600e+003,4.746725e-004
2.979529e+003,2.835874e-004
2.981457e+003,-1.028690e-004
2.983386e+003,-4.076224e-004
2.985314e+003,-6.832164e-004
2.987243e+003,-8.962450e-004
2.989171e+003,-1.040288e-003
2.991100e+003,-1.157220e-003
2.993028e+003,-1.381676e-003
2.994957e+003,-1.610571e-003
2.996885e+003,-1.670615e-003
2.998814e+003,-1.684544e-003
3.000742e+003,-1.815095e-003
3.002671e+003,-1.837960e-003
3.004599e+003,-1.849376e-003
3.006528e+003,-1.881609e-003
3.008456e+003,-1.989542e-003
3.010385e+003,-2.165040e-003
3.012313e+003,-2.143345e-003
3.014242e+003,-2.119705e-003
3.016170e+003,-2.181096e-003
3.018099e+003,-2.224479e-003
3.020027e+003,-2.149973e-003
3.021956e+003,-2.218743e-003
3.023884e+003,-2.401069e-003
3.025813e+003,-2.578969e-003
3.027741e+003,-2.691767e-003
3.029670e+003,-2.554990e-003
3.031598e+003,-2.418269e-003
3.033527e+003,-2.467823e-003
3.035455e+003,-2.484658e-003
3.037384e+003,-2.544153e-003
3.039312e+003,-2.715574e-003
3.041241e+003,-2.819185e-003
3.043169e+003,-2.861451e-003
3.045098e+003,-2.770066e-003
3.047026e+003,-2.689396e-003
3.048955e+003,-2.820073e-003
3.050883e+003,-3.041335e-003
3.052812e+003,-3.181512e-003
3.054740e+003,-3.175953e-003
3.056669e+003,-3.189472e-003
3.058597e+003,-3.343015e-003
3.060526e+003,-3.452886e-003
3.062454e+003,-3.495880e-003
3.064383e+003,-3.489931e-003
3.066311e+003,-3.439639e-003
3.068240e+003,-3.496998e-003
3.070168e+003,-3.635023e-003
3.072097e+003,-3.666664e-003
3.074025e+003,-3.610017e-003
3.075954e+003,-3.543898e-003
3.077882e+003,-3.638473e-003
3.079811e+003,-3.816787e-003
3.081739e+003,-3.863325e-003
3.083668e+003,-3.891764e-003
3.085596e+003,-3.881453e-003
3.087525e+003,-4.003794e-003
3.089453e+003,-4.070861e-003
3.091382e+003,-4.027661e-003
3.093310e+003,-4.029040e-003
3.095239e+003,-4.011903e-003
3.097167e+003,-4.057665e-003
3.099096e+003,-4.216185e-003
3.101024e+003,-4.264780e-003
3.102953e+003,-4.257299e-003
3.104881e+003,-4.350439e-003
3.106810e+003,-4.387801e-003
3.108738e+003,-4.258250e-003
3.110667e+003,-4.374024e-003
3.112595e+003,-4.541020e-003
3.114524e+003,-4.515148e-003
3.116452e+003,-4.445133e-003
3.118381e+003,-4.490030e-003
3.120309e+003,-4.648195e-003
3.122238e+003,-4.648589e-003
3.124166e+003,-4.646556e-003
3.126095e+003,-4.757736e-003
3.128023e+003,-4.801650e-003
3.129952e+003,-4.748724e-003
3.131880e+003,-4.657702e-003
3.133809e+003,-4.646294e-003
3.135737e+003,-4.717489e-003
3.137666e+003,-4.655309e-003
3.139594e+003,-4.648228e-003
3.141523e+003,-4.646196e-003
3.143451e+003,-4.673469e-003
3.145380e+003,-4.810072e-003
3.147308e+003,-4.831928e-003
3.149237e+003,-4.856601e-003
3.151165e+003,-4.854439e-003
3.153094e+003,-4.949777e-003
3.155022e+003,-4.904273e-003
3.156951e+003,-4.740563e-003
3.158879e+003,-4.723717e-003
3.160808e+003,-4.747904e-003
3.162736e+003,-4.824293e-003
3.164665e+003,-4.841562e-003
3.166593e+003,-4.939982e-003
3.168522e+003,-4.910039e-003
3.170450e+003,-4.860992e-003
3.172379e+003,-4.814266e-003
3.174307e+003,-4.695201e-003
3.176236e+003,-4.657603e-003
3.178164e+003,-4.768748e-003
3.180093e+003,-4.778875e-003
3.182021e+003,-4.854504e-003
3.183950e+003,-4.945977e-003
3.185878e+003,-4.824326e-003
3.187807e+003,-4.771501e-003
3.189735e+003,-4.822852e-003
3.191664e+003,-4.893035e-003
3.193592e+003,-4.950629e-003
3.195521e+003,-4.864072e-003
3.197449e+003,-4.748658e-003
3.199378e+003,-4.695824e-003
3.201306e+003,-4.611610e-003
3.203235e+003,-4.656128e-003
3.205163e+003,-4.671436e-003
3.207092e+003,-4.711622e-003
3.209020e+003,-4.737745e-003
3.210948e+003,-4.669896e-003
3.212877e+003,-4.513181e-003
3.214806e+003,-4.425324e-003
3.216734e+003,-4.502786e-003
3.218663e+003,-4.616200e-003
3.220591e+003,-4.570825e-003
3.222520e+003,-4.417485e-003
3.224448e+003,-4.337252e-003
3.226376e+003,-4.235873e-003
3.228305e+003,-4.080183e-003
3.230234e+003,-3.918526e-003
3.232162e+003,-3.939410e-003
3.234091e+003,-3.897642e-003
3.236019e+003,-3.789789e-003
3.237948e+003,-3.725471e-003
3.239876e+003,-3.596873e-003
3.241804e+003,-3.514155e-003
3.243733e+003,-3.658022e-003
3.245662e+003,-3.609261e-003
3.247590e+003,-3.554941e-003
3.249519e+003,-3.445194e-003
3.251447e+003,-3.397527e-003
3.253375e+003,-3.380661e-003
3.255304e+003,-3.214139e-003
3.257232e+003,-2.983752e-003
3.259161e+003,-2.893774e-003
3.261090e+003,-2.933302e-003
3.263018e+003,-2.940312e-003
3.264947e+003,-2.960453e-003
3.266875e+003,-2.973517e-003
3.268803e+003,-2.909079e-003
3.270732e+003,-2.760320e-003
3.272660e+003,-2.654358e-003
3.274589e+003,-2.701942e-003
3.276518e+003,-2.698024e-003
3.278446e+003,-2.588785e-003
3.280375e+003,-2.632721e-003
3.282303e+003,-2.533908e-003
3.284231e+003,-2.433030e-003
3.286160e+003,-2.494377e-003
3.288088e+003,-2.602486e-003
3.290017e+003,-2.776683e-003
3.291946e+003,-2.890154e-003
3.293874e+003,-2.986615e-003
3.295802e+003,-2.977532e-003
3.297731e+003,-2.983225e-003
3.299659e+003,-3.095260e-003
3.301588e+003,-3.221540e-003
3.303516e+003,-3.299349e-003
3.305445e+003,-3.363367e-003
3.307374e+003,-3.495716e-003
3.309302e+003,-3.613927e-003
3.311230e+003,-3.708684e-003
3.313159e+003,-3.912189e-003
3.315087e+003,-4.068727e-003
3.317016e+003,-4.044108e-003
3.318944e+003,-4.212379e-003
3.320873e+003,-4.232723e-003
3.322802e+003,-4.282267e-003
3.324730e+003,-4.631181e-003
3.326658e+003,-4.748167e-003
3.328587e+003,-4.694316e-003
3.330515e+003,-4.738531e-003
3.332444e+003,-4.858403e-003
3.334372e+003,-4.984860e-003
3.336301e+003,-5.106269e-003
3.338229e+003,-5.104566e-003
3.340158e+003,-5.050039e-003
3.342086e+003,-5.027310e-003
3.344015e+003,-4.979160e-003
3.345943e+003,-5.070901e-003
3.347872e+003,-5.403017e-003
3.349800e+003,-5.493588e-003
3.351729e+003,-5.411885e-003
3.353657e+003,-5.611127e-003
3.355586e+003,-5.810963e-003
3.357514e+003,-5.923807e-003
3.359443e+003,-5.887297e-003
3.361371e+003,-5.836529e-003
3.363300e+003,-5.903542e-003
3.365229e+003,-6.083478e-003
3.367157e+003,-6.166688e-003
3.369085e+003,-6.322285e-003
3.371014e+003,-6.398300e-003
3.372942e+003,-6.365290e-003
3.374871e+003,-6.584917e-003
3.376799e+003,-6.656807e-003
3.378728e+003,-6.777064e-003
3.380656e+003,-7.012166e-003
3.382585e+003,-7.169611e-003
3.384513e+003,-7.233519e-003
3.386442e+003,-7.281484e-003
3.388370e+003,-7.276694e-003
3.390299e+003,-7.343908e-003
3.392227e+003,-7.457690e-003
3.394156e+003,-7.546206e-003
3.396084e+003,-7.545718e-003
3.398013e+003,-7.464921e-003
3.399941e+003,-7.455801e-003
3.401870e+003,-7.569586e-003
3.403798e+003,-7.675300e-003
3.405727e+003,-7.738287e-003
3.407655e+003,-7.683276e-003
3.409584e+003,-7.603318e-003
3.411512e+003,-7.667325e-003
3.413441e+003,-7.707299e-003
3.415369e+003,-7.689558e-003
3.417298e+003,-7.686954e-003
3.419226e+003,-7.749451e-003
3.421155e+003,-7.971242e-003
3.423083e+003,-8.014962e-003
3.425012e+003,-7.961677e-003
3.426940e+003,-8.063947e-003
3.428869e+003,-7.953902e-003
3.430797e+003,-7.878810e-003
3.432726e+003,-7.899212e-003
3.434654e+003,-8.012295e-003
3.436583e+003,-8.270883e-003
3.438511e+003,-8.281188e-003
3.440440e+003,-8.219320e-003
3.442368e+003,-8.151591e-003
3.444297e+003,-8.105803e-003
3.446225e+003,-8.073997e-003
3.448154e+003,-8.176629e-003
3.450082e+003,-8.331898e-003
3.452011e+003,-8.352538e-003
3.453939e+003,-8.425663e-003
3.455868e+003,-8.570220e-003
3.457796e+003,-8.452441e-003
3.459725e+003,-8.472425e-003
3.461653e+003,-8.488834e-003
3.463582e+003,-8.456762e-003
3.465510e+003,-8.592343e-003
3.467439e+003,-8.685435e-003
3.469367e+003,-8.759316e-003
3.471296e+003,-8.744800e-003
3.473224e+003,-8.682837e-003
3.475153e+003,-8.707260e-003
3.477081e+003,-8.684915e-003
3.479010e+003,-8.675236e-003
3.480938e+003,-8.584189e-003
3.482867e+003,-8.648181e-003
3.484795e+003,-8.592343e-003
3.486724e+003,-8.561904e-003
3.488652e+003,-8.635839e-003
3.490581e+003,-8.838184e-003
3.492509e+003,-8.901912e-003
3.494438e+003,-8.667052e-003
3.496366e+003,-8.439735e-003
3.498295e+003,-8.612450e-003
3.500223e+003,-8.805424e-003
3.502152e+003,-8.760485e-003
3.504080e+003,-8.754251e-003
3.506009e+003,-8.630608e-003
3.507937e+003,-8.545205e-003
3.509866e+003,-8.653346e-003
3.511794e+003,-8.709435e-003
3.513723e+003,-8.797372e-003
3.515651e+003,-8.922589e-003
3.517580e+003,-8.919927e-003
3.519508e+003,-9.045271e-003
3.521437e+003,-8.936157e-003
3.523365e+003,-8.846009e-003
3.525294e+003,-8.870000e-003
3.527222e+003,-8.864417e-003
3.529151e+003,-8.842016e-003
3.531079e+003,-8.905417e-003
3.533008e+003,-9.146994e-003
3.534936e+003,-9.220375e-003
3.536865e+003,-9.029306e-003
3.538793e+003,-8.858021e-003
3.540722e+003,-8.745775e-003
3.542650e+003,-8.653605e-003
3.544579e+003,-8.619142e-003
3.546507e+003,-8.688261e-003
3.548436e+003,-8.843768e-003
3.550364e+003,-8.878376e-003
3.552293e+003,-8.842405e-003
3.554221e+003,-8.858345e-003
3.556150e+003,-8.852437e-003
3.558078e+003,-8.890453e-003
3.560007e+003,-8.928789e-003
3.561935e+003,-8.689332e-003
3.563864e+003,-8.732915e-003
3.565792e+003,-8.653898e-003
3.567721e+003,-8.601016e-003
3.569649e+003,-8.956185e-003
3.571578e+003,-9.106827e-003
3.573506e+003,-8.926322e-003
3.575435e+003,-8.777208e-003
3.577363e+003,-8.707292e-003
3.579292e+003,-8.736422e-003
3.581220e+003,-8.913825e-003
3.583149e+003,-9.025800e-003
3.585077e+003,-8.855229e-003
3.587006e+003,-8.651786e-003
3.588934e+003,-8.582142e-003
3.590863e+003,-8.731032e-003
3.592791e+003,-8.816529e-003
3.594720e+003,-8.882629e-003
3.596648e+003,-8.760874e-003
3.598577e+003,-8.530000e-003
3.600505e+003,-8.575645e-003
3.602434e+003,-8.786559e-003
3.604362e+003,-8.629536e-003
3.606291e+003,-8.590913e-003
3.608219e+003,-8.654710e-003
3.610148e+003,-8.618135e-003
3.612076e+003,-8.518173e-003
3.614005e+003,-8.592505e-003
3.615933e+003,-8.626970e-003
3.617862e+003,-8.377954e-003
3.619790e+003,-8.225563e-003
3.621719e+003,-8.490296e-003
3.623647e+003,-8.712228e-003
3.625576e+003,-8.664778e-003
3.627504e+003,-8.163980e-003
3.629433e+003,-8.033958e-003
3.631361e+003,-8.563658e-003
3.633290e+003,-8.666143e-003
3.635218e+003,-8.632752e-003
3.637146e+003,-8.683097e-003
3.639075e+003,-8.658023e-003
3.641004e+003,-8.607675e-003
3.642932e+003,-8.827697e-003
3.644861e+003,-8.861267e-003
3.646789e+003,-8.528635e-003
3.648718e+003,-8.457575e-003
3.650646e+003,-8.486722e-003
3.652574e+003,-8.680206e-003
3.654503e+003,-8.669650e-003
3.656432e+003,-8.534321e-003
3.658360e+003,-9.077235e-003
3.660289e+003,-9.339017e-003
3.662217e+003,-9.215898e-003
3.664146e+003,-9.078598e-003
3.666074e+003,-9.013728e-003
3.668002e+003,-9.032550e-003
3.669931e+003,-8.899639e-003
3.671860e+003,-8.971407e-003
3.673788e+003,-8.956476e-003
3.675717e+003,-8.777987e-003
3.677645e+003,-8.727330e-003
3.679573e+003,-8.831106e-003
3.681502e+003,-8.961442e-003
3.683430e+003,-9.098877e-003
3.685359e+003,-9.134405e-003
3.687288e+003,-8.782079e-003
3.689216e+003,-8.574768e-003
3.691145e+003,-8.640710e-003
3.693073e+003,-8.639346e-003
3.695001e+003,-8.819938e-003
3.696930e+003,-8.929405e-003
3.698858e+003,-8.930509e-003
3.700787e+003,-8.728466e-003
3.702716e+003,-8.658023e-003
3.704644e+003,-8.810035e-003
3.706573e+003,-8.855684e-003
3.708501e+003,-8.819483e-003
3.710429e+003,-8.540818e-003
3.712358e+003,-8.397910e-003
3.714286e+003,-8.597054e-003
3.716215e+003,-8.875130e-003
3.718144e+003,-8.771623e-003
3.720072e+003,-8.556154e-003
3.722000e+003,-8.354423e-003
3.723929e+003,-8.424981e-003
3.725857e+003,-8.509109e-003
3.727786e+003,-8.345485e-003
3.729714e+003,-8.473659e-003
3.731643e+003,-8.479280e-003
3.733572e+003,-8.459492e-003
3.735500e+003,-8.355430e-003
3.737428e+003,-8.298514e-003
3.739357e+003,-8.375452e-003
3.741285e+003,-8.228652e-003
3.743214e+003,-7.838103e-003
3.745142e+003,-7.661986e-003
3.747071e+003,-8.083949e-003
3.749000e+003,-7.907963e-003
3.750928e+003,-7.722468e-003
3.752856e+003,-7.731452e-003
3.754785e+003,-8.055620e-003
3.756713e+003,-7.980123e-003
3.758642e+003,-7.732363e-003
3.760570e+003,-7.708308e-003
3.762499e+003,-7.921368e-003
3.764427e+003,-7.913853e-003
3.766356e+003,-8.019515e-003
3.768284e+003,-7.856944e-003
3.770213e+003,-7.691023e-003
3.772141e+003,-7.931552e-003
3.774070e+003,-8.008488e-003
3.775998e+003,-8.050481e-003
3.777927e+003,-8.087786e-003
3.779855e+003,-7.931031e-003
3.781784e+003,-7.857204e-003
3.783712e+003,-7.803835e-003
3.785641e+003,-7.662734e-003
3.787569e+003,-7.793454e-003
3.789498e+003,-7.966395e-003
3.791426e+003,-8.090876e-003
3.793355e+003,-8.061800e-003
3.795283e+003,-7.729466e-003
3.797212e+003,-7.727546e-003
3.799140e+003,-7.963370e-003
3.801069e+003,-7.775098e-003
3.802997e+003,-7.694278e-003
3.804926e+003,-7.845783e-003
3.806854e+003,-7.738222e-003
3.808783e+003,-8.007675e-003
3.810711e+003,-8.024492e-003
3.812640e+003,-7.760485e-003
3.814568e+003,-7.481563e-003
3.816497e+003,-7.252158e-003
3.818425e+003,-7.371436e-003
3.820354e+003,-7.119613e-003
3.822282e+003,-7.087571e-003
3.824211e+003,-7.462087e-003
3.826139e+003,-7.702710e-003
3.828068e+003,-7.492603e-003
3.829996e+003,-7.200214e-003
3.831925e+003,-7.091189e-003
3.833853e+003,-7.079682e-003
3.835782e+003,-7.209958e-003
3.837710e+003,-7.251636e-003
3.839639e+003,-7.413621e-003
3.841567e+003,-7.343322e-003
3.843496e+003,-7.242317e-003
3.845424e+003,-7.415803e-003
3.847353e+003,-7.635127e-003
3.849281e+003,-7.414076e-003
3.851210e+003,-6.823156e-003
3.853138e+003,-6.338841e-003
3.855067e+003,-6.785774e-003
3.856995e+003,-7.298394e-003
3.858924e+003,-7.453260e-003
3.860852e+003,-7.316802e-003
3.862781e+003,-6.990484e-003
3.864709e+003,-6.772432e-003
3.866638e+003,-6.962964e-003
3.868566e+003,-6.978159e-003
3.870495e+003,-6.995114e-003
3.872423e+003,-7.259196e-003
3.874352e+003,-7.176325e-003
3.876280e+003,-7.403555e-003
3.878209e+003,-7.535818e-003
3.880137e+003,-7.294256e-003
3.882066e+003,-7.237527e-003
3.883994e+003,-7.361142e-003
3.885923e+003,-7.186559e-003
3.887851e+003,-7.417041e-003
3.889780e+003,-7.273044e-003
3.891708e+003,-7.295690e-003
3.893637e+003,-7.505891e-003
3.895565e+003,-7.332506e-003
3.897494e+003,-7.124991e-003
3.899422e+003,-6.917932e-003
3.901351e+003,-7.002547e-003
3.903279e+003,-7.123622e-003
3.905208e+003,-7.162637e-003
3.907136e+003,-7.390265e-003
3.909065e+003,-7.506282e-003
3.910993e+003,-7.452902e-003
3.912922e+003,-7.366126e-003
3.914850e+003,-7.170491e-003
3.916779e+003,-7.082876e-003
3.918707e+003,-7.238309e-003
3.920636e+003,-7.500908e-003
3.922564e+003,-7.637145e-003
3.924493e+003,-7.462478e-003
3.926421e+003,-7.348991e-003
3.928350e+003,-7.361761e-003
3.930278e+003,-7.261868e-003
3.932207e+003,-7.113127e-003
3.934135e+003,-6.871263e-003
3.936064e+003,-6.822992e-003
3.937992e+003,-7.008058e-003
3.939921e+003,-7.296700e-003
3.941849e+003,-7.349446e-003
3.943778e+003,-7.110780e-003
3.945706e+003,-7.106673e-003
3.947635e+003,-7.150773e-003
3.949563e+003,-7.017643e-003
3.951492e+003,-7.037661e-003
3.953420e+003,-7.209697e-003
3.955349e+003,-7.113094e-003
3.957277e+003,-7.100773e-003
3.959206e+003,-7.169220e-003
3.961134e+003,-7.231270e-003
3.963063e+003,-7.214781e-003
3.964991e+003,-7.451795e-003
3.966920e+003,-7.489803e-003
3.968848e+003,-7.100316e-003
3.970777e+003,-6.926084e-003
3.972705e+003,-7.105206e-003
3.974634e+003,-7.070261e-003
3.976562e+003,-6.934628e-003
3.978491e+003,-7.039486e-003
3.980419e+003,-7.095100e-003
3.982348e+003,-7.181377e-003
3.984276e+003,-7.121699e-003
3.986205e+003,-7.085843e-003
3.988133e+003,-7.045355e-003
3.990062e+003,-7.054157e-003
3.991990e+003,-6.950671e-003
3.993919e+003,-6.866143e-003
3.995847e+003,-7.005515e-003
3.997776e+003,-7.105662e-003
3.999704e+003,-7.064328e-003
4.001633e+003,0.000000e+000
