3.991989e+002,-4.957704e-003
4.011274e+002,1.049472e-002
4.030559e+002,6.888705e-003
4.049844e+002,-8.805489e-003
4.069129e+002,-7.657460e-003
4.088414e+002,8.581722e-003
4.107699e+002,1.649658e-002
4.126984e+002,8.441933e-003
4.146269e+002,1.125064e-003
4.165554e+002,1.287042e-003
4.184839e+002,2.039976e-003
4.204124e+002,1.652187e-003
4.223409e+002,-2.561347e-003
4.242694e+002,-3.604812e-004
4.261979e+002,4.565865e-003
4.281264e+002,1.312665e-003
4.300549e+002,1.669682e-003
4.319834e+002,6.929373e-003
4.339119e+002,9.445475e-003
4.358404e+002,6.911193e-003
4.377689e+002,1.582013e-003
4.396974e+002,-1.007199e-003
4.416259e+002,1.283471e-004
4.435544e+002,3.790828e-003
4.454829e+002,4.159423e-003
4.474114e+002,2.544780e-003
4.493399e+002,3.507113e-003
4.512684e+002,4.089780e-003
4.531969e+002,3.071794e-003
4.551254e+002,2.745360e-004
4.570539e+002,-6.009006e-004
4.589824e+002,8.672542e-004
4.609109e+002,4.913906e-004
4.628394e+002,-4.463511e-004
4.647679e+002,7.660052e-004
4.666964e+002,9.882528e-004
4.686249e+002,-1.112705e-003
4.705533e+002,6.398655e-005
4.724819e+002,6.748681e-004
4.744103e+002,-1.120042e-003
4.763389e+002,6.865916e-005
4.782673e+002,-1.969372e-004
4.801959e+002,-1.890682e-003
4.821243e+002,-1.829217e-003
4.840529e+002,1.472395e-004
4.859813e+002,-2.431689e-004
4.879099e+002,-2.431646e-003
4.898383e+002,-3.130888e-003
4.917668e+002,-2.869582e-003
4.936953e+002,-2.709713e-003
4.956238e+002,-2.181425e-003
4.975523e+002,-2.359614e-003
4.994808e+002,-3.796982e-003
5.014093e+002,-6.543859e-003
5.033378e+002,-5.541779e-003
5.052663e+002,-4.187570e-003
5.071948e+002,-3.101774e-003
5.091233e+002,-3.500383e-003
5.110518e+002,-3.354523e-003
5.129803e+002,-4.489275e-003
5.149088e+002,-5.718660e-003
5.168373e+002,-5.962962e-003
5.187658e+002,-6.637685e-003
5.206943e+002,-6.109191e-003
5.226228e+002,-3.914915e-003
5.245513e+002,-4.185864e-003
5.264798e+002,-4.265895e-003
5.284083e+002,-4.547971e-003
5.303368e+002,-5.933547e-003
5.322653e+002,-6.126081e-003
5.341938e+002,-5.058718e-003
5.361223e+002,-5.060978e-003
5.380508e+002,-6.002604e-003
5.399792e+002,-6.821623e-003
5.419078e+002,-5.594216e-003
5.438363e+002,-4.602955e-003
5.457648e+002,-4.320488e-003
5.476932e+002,-5.444084e-003
5.496218e+002,-3.814061e-003
5.515503e+002,-2.101503e-003
5.534788e+002,-3.228085e-003
5.554072e+002,-4.849589e-003
5.573358e+002,-4.722602e-003
5.592643e+002,-3.687132e-003
5.611927e+002,-4.179202e-003
5.631212e+002,-4.757212e-003
5.650497e+002,-5.350556e-003
5.669783e+002,-5.679253e-003
5.689067e+002,-4.723324e-003
5.708352e+002,-5.023936e-003
5.727637e+002,-4.984925e-003
5.746923e+002,-5.149787e-003
5.766207e+002,-5.108660e-003
5.785492e+002,-3.112597e-003
5.804777e+002,4.559168e-003
5.824063e+002,2.332594e-003
5.843347e+002,-5.439601e-003
5.862632e+002,-7.848711e-003
5.881917e+002,-8.234569e-003
5.901202e+002,-8.022866e-003
5.920487e+002,-6.469568e-003
5.939772e+002,-7.384271e-003
5.959057e+002,-8.418969e-003
5.978342e+002,-6.450275e-003
5.997627e+002,-5.044602e-003
6.016912e+002,-3.919939e-003
6.036197e+002,-3.962394e-003
6.055482e+002,-4.142709e-003
6.074767e+002,-2.837487e-003
6.094052e+002,-7.534106e-004
6.113337e+002,-1.649886e-003
6.132622e+002,-2.810197e-003
6.151907e+002,-1.658435e-003
6.171192e+002,-7.128237e-004
6.190477e+002,-1.038437e-003
6.209762e+002,-2.452536e-003
6.229047e+002,-5.264145e-003
6.248332e+002,-7.266104e-003
6.267617e+002,-8.298320e-003
6.286902e+002,-8.312395e-003
6.306187e+002,-7.763544e-003
6.325472e+002,-6.395753e-003
6.344756e+002,-5.439699e-003
6.364042e+002,-5.064613e-003
6.383326e+002,-4.375763e-003
6.402612e+002,-4.125314e-003
6.421896e+002,-4.107820e-003
6.441182e+002,-4.149272e-003
6.460466e+002,-4.447691e-003
6.479752e+002,-4.764848e-003
6.499036e+002,-4.642688e-003
6.518322e+002,-4.354375e-003
6.537606e+002,-4.784446e-003
6.556891e+002,-5.061076e-003
6.576177e+002,-4.741808e-003
6.595461e+002,-4.197054e-003
6.614746e+002,-4.224749e-003
6.634031e+002,-4.045388e-003
6.653317e+002,-4.234790e-003
6.672601e+002,-3.752474e-003
6.691886e+002,-3.437929e-003
6.711171e+002,-4.223798e-003
6.730457e+002,-4.392163e-003
6.749741e+002,-3.705103e-003
6.769026e+002,-3.508600e-003
6.788311e+002,-3.668142e-003
6.807596e+002,-4.058485e-003
6.826881e+002,-4.074603e-003
6.846166e+002,-4.076178e-003
6.865451e+002,-4.267536e-003
6.884736e+002,-4.524166e-003
6.904021e+002,-4.545578e-003
6.923306e+002,-4.766585e-003
6.942591e+002,-5.191893e-003
6.961876e+002,-5.271150e-003
6.981161e+002,-5.123493e-003
7.000446e+002,-4.893723e-003
7.019731e+002,-4.995374e-003
7.039016e+002,-5.196968e-003
7.058301e+002,-5.354156e-003
7.077585e+002,-5.457729e-003
7.096871e+002,-5.539227e-003
7.116156e+002,-5.841008e-003
7.135441e+002,-6.028289e-003
7.154725e+002,-5.834666e-003
7.174011e+002,-6.165545e-003
7.193296e+002,-6.627700e-003
7.212581e+002,-6.555381e-003
7.231865e+002,-6.687250e-003
7.251151e+002,-6.418705e-003
7.270436e+002,-6.280942e-003
7.289720e+002,-6.112425e-003
7.309005e+002,-5.097460e-003
7.328290e+002,-5.136559e-003
7.347576e+002,-5.471274e-003
7.366860e+002,-5.278286e-003
7.386145e+002,-5.112753e-003
7.405430e+002,-4.862598e-003
7.424716e+002,-4.414238e-003
7.444000e+002,-4.299853e-003
7.463285e+002,-3.512511e-003
7.482570e+002,-2.802922e-003
7.501855e+002,-2.544581e-003
7.521140e+002,-1.896719e-003
7.540425e+002,-1.551972e-003
7.559710e+002,-1.386168e-003
7.578995e+002,-9.621400e-004
7.598280e+002,-4.882537e-004
7.617565e+002,-4.599550e-004
7.636850e+002,1.650106e-005
7.656135e+002,7.451940e-004
7.675420e+002,8.189505e-004
7.694705e+002,6.853548e-004
7.713990e+002,1.001006e-003
7.733275e+002,1.434054e-003
7.752560e+002,1.305154e-003
7.771844e+002,1.287906e-003
7.791130e+002,1.614704e-003
7.810415e+002,8.370430e-004
7.829700e+002,1.405111e-004
7.848984e+002,2.664131e-004
7.868270e+002,-9.071152e-005
7.887555e+002,-3.659769e-004
7.906840e+002,-5.007641e-004
7.926124e+002,-1.273064e-003
7.945410e+002,-1.685996e-003
7.964695e+002,-1.549034e-003
7.983979e+002,-1.595485e-003
8.003264e+002,-1.622587e-003
8.022549e+002,-1.889395e-003
8.041835e+002,-1.982747e-003
8.061119e+002,-1.881148e-003
8.080404e+002,-1.826346e-003
8.099689e+002,-2.206645e-003
8.118975e+002,-3.031300e-003
8.138259e+002,-3.585536e-003
8.157545e+002,-3.229959e-003
8.176830e+002,-3.083186e-003
8.196115e+002,-3.051108e-003
8.215399e+002,-3.124802e-003
8.234684e+002,-2.871227e-003
8.253970e+002,-2.937120e-003
8.273254e+002,-3.323583e-003
8.292539e+002,-3.111873e-003
8.311824e+002,-2.814543e-003
8.331110e+002,-2.607427e-003
8.350394e+002,-2.012365e-003
8.369679e+002,-1.667479e-003
8.388964e+002,-1.756589e-003
8.408250e+002,-1.758701e-003
8.427534e+002,-1.759691e-003
8.446819e+002,-1.784672e-003
8.466104e+002,-1.631203e-003
8.485389e+002,-1.622389e-003
8.504674e+002,-1.300054e-003
8.523959e+002,-1.065806e-003
8.543244e+002,-1.078366e-003
8.562529e+002,-1.362981e-003
8.581814e+002,-1.531337e-003
8.601099e+002,-1.326250e-003
8.620384e+002,-1.227272e-003
8.639669e+002,-1.555703e-003
8.658954e+002,-1.821463e-003
8.678239e+002,-1.852939e-003
8.697524e+002,-1.817207e-003
8.716809e+002,-1.630906e-003
8.736094e+002,-1.503733e-003
8.755378e+002,-1.662693e-003
8.774664e+002,-1.672595e-003
8.793949e+002,-1.655002e-003
8.813234e+002,-1.745402e-003
8.832518e+002,-1.719858e-003
8.851804e+002,-1.433462e-003
8.871089e+002,-1.259386e-003
8.890374e+002,-1.185705e-003
8.909658e+002,-1.057873e-003
8.928943e+002,-9.521886e-004
8.948229e+002,-8.621859e-004
8.967513e+002,-7.571151e-004
8.986798e+002,-6.911890e-004
9.006083e+002,-1.149157e-003
9.025369e+002,-1.329388e-003
9.044653e+002,-1.460344e-003
9.063938e+002,-1.744412e-003
9.083223e+002,-2.004120e-003
9.102509e+002,-2.194711e-003
9.121793e+002,-2.143741e-003
9.141078e+002,-2.531767e-003
9.160364e+002,-2.795844e-003
9.179648e+002,-3.085193e-003
9.198933e+002,-3.489701e-003
9.218218e+002,-3.540710e-003
9.237504e+002,-3.768438e-003
9.256788e+002,-3.978712e-003
9.276073e+002,-4.164730e-003
9.295358e+002,-4.627837e-003
9.314644e+002,-4.960783e-003
9.333928e+002,-5.287157e-003
9.353213e+002,-5.559967e-003
9.372498e+002,-5.788895e-003
9.391783e+002,-5.940901e-003
9.411068e+002,-5.691517e-003
9.430353e+002,-5.690438e-003
9.449637e+002,-6.063350e-003
9.468923e+002,-5.951883e-003
9.488208e+002,-5.635265e-003
9.507493e+002,-5.760252e-003
9.526777e+002,-5.939496e-003
9.546063e+002,-5.719379e-003
9.565348e+002,-5.207314e-003
9.584633e+002,-5.143304e-003
9.603917e+002,-5.477916e-003
9.623203e+002,-5.440877e-003
9.642488e+002,-5.431748e-003
9.661772e+002,-5.340803e-003
9.681057e+002,-5.362011e-003
9.700343e+002,-5.217986e-003
9.719628e+002,-4.891921e-003
9.738912e+002,-4.921571e-003
9.758197e+002,-5.164194e-003
9.777483e+002,-5.039395e-003
9.796768e+002,-4.900407e-003
9.816052e+002,-5.051153e-003
9.835337e+002,-4.987120e-003
9.854623e+002,-4.602758e-003
9.873907e+002,-4.398297e-003
9.893192e+002,-4.393016e-003
9.912477e+002,-4.183009e-003
9.931763e+002,-4.022014e-003
9.951047e+002,-4.056647e-003
9.970332e+002,-4.014431e-003
9.989617e+002,-3.904932e-003
1.000890e+003,-3.872980e-003
1.002819e+003,-3.462550e-003
1.004747e+003,-3.127335e-003
1.006676e+003,-3.142138e-003
1.008604e+003,-3.319111e-003
1.010533e+003,-3.243180e-003
1.012461e+003,-2.928694e-003
1.014390e+003,-2.651822e-003
1.016318e+003,-2.532887e-003
1.018247e+003,-2.725880e-003
1.020175e+003,-2.661537e-003
1.022104e+003,-2.202689e-003
1.024032e+003,-1.817668e-003
1.025961e+003,-1.363378e-003
1.027889e+003,-1.065079e-003
1.029818e+003,-1.155006e-003
1.031746e+003,-1.112144e-003
1.033675e+003,-9.135380e-004
1.035603e+003,-5.760507e-004
1.037532e+003,-2.053162e-004
1.039460e+003,-5.115594e-005
1.041389e+003,-1.014115e-004
1.043317e+003,4.635700e-005
1.045246e+003,1.599012e-004
1.047174e+003,1.631495e-004
1.049103e+003,9.258637e-005
1.051031e+003,2.766780e-005
1.052960e+003,-1.601073e-004
1.054888e+003,-1.113492e-004
1.056817e+003,-9.575632e-006
1.058745e+003,-4.529187e-005
1.060674e+003,-1.831926e-004
1.062602e+003,-9.939075e-005
1.064531e+003,3.147745e-006
1.066459e+003,-3.343096e-005
1.068388e+003,-1.683177e-005
1.070316e+003,7.389519e-005
1.072245e+003,2.017669e-004
1.074173e+003,1.819440e-004
1.076102e+003,3.127654e-004
1.078030e+003,7.857884e-004
1.079959e+003,1.049595e-003
1.081887e+003,1.037904e-003
1.083816e+003,7.964106e-004
1.085744e+003,7.760294e-004
1.087673e+003,1.042587e-003
1.089601e+003,1.400678e-003
1.091530e+003,1.420058e-003
1.093458e+003,1.556541e-003
1.095387e+003,1.925739e-003
1.097315e+003,1.912360e-003
1.099244e+003,1.669449e-003
1.101172e+003,1.587467e-003
1.103101e+003,1.640213e-003
1.105029e+003,1.743928e-003
1.106958e+003,1.745658e-003
1.108886e+003,1.755040e-003
1.110815e+003,1.963981e-003
1.112743e+003,2.032952e-003
1.114672e+003,1.885438e-003
1.116600e+003,2.045802e-003
1.118529e+003,2.258846e-003
1.120457e+003,2.064245e-003
1.122386e+003,2.028557e-003
1.124314e+003,2.163899e-003
1.126243e+003,2.134963e-003
1.128171e+003,1.998831e-003
1.130100e+003,1.632830e-003
1.132028e+003,1.272387e-003
1.133957e+003,1.016017e-003
1.135885e+003,7.206002e-004
1.137814e+003,3.419122e-004
1.139742e+003,-1.724284e-004
1.141671e+003,-6.408363e-004
1.143599e+003,-1.180352e-003
1.145528e+003,-1.663617e-003
1.147456e+003,-1.959527e-003
1.149385e+003,-2.329591e-003
1.151313e+003,-2.865665e-003
1.153242e+003,-3.374250e-003
1.155170e+003,-3.475238e-003
1.157099e+003,-3.578602e-003
1.159027e+003,-3.784467e-003
1.160956e+003,-3.988823e-003
1.162884e+003,-4.207719e-003
1.164813e+003,-4.412794e-003
1.166741e+003,-4.483930e-003
1.168670e+003,-4.412860e-003
1.170598e+003,-4.231706e-003
1.172526e+003,-4.128136e-003
1.174455e+003,-4.164795e-003
1.176384e+003,-4.369104e-003
1.178312e+003,-4.376058e-003
1.180240e+003,-4.226882e-003
1.182169e+003,-4.206472e-003
1.184098e+003,-4.236431e-003
1.186026e+003,-4.292503e-003
1.187954e+003,-4.136506e-003
1.189883e+003,-4.015449e-003
1.191812e+003,-4.192985e-003
1.193740e+003,-4.316716e-003
1.195668e+003,-4.343091e-003
1.197597e+003,-4.303133e-003
1.199526e+003,-4.412204e-003
1.201454e+003,-4.469730e-003
1.203382e+003,-4.277182e-003
1.205311e+003,-4.132534e-003
1.207240e+003,-3.956648e-003
1.209168e+003,-3.724354e-003
1.211096e+003,-3.616096e-003
1.213025e+003,-3.621058e-003
1.214953e+003,-3.469486e-003
1.216882e+003,-3.433459e-003
1.218810e+003,-3.529405e-003
1.220739e+003,-3.501008e-003
1.222667e+003,-3.393976e-003
1.224596e+003,-3.294909e-003
1.226524e+003,-3.124769e-003
1.228453e+003,-3.018599e-003
1.230381e+003,-3.048574e-003
1.232310e+003,-3.071704e-003
1.234238e+003,-3.059695e-003
1.236167e+003,-3.131513e-003
1.238095e+003,-3.314080e-003
1.240024e+003,-3.534236e-003
1.241952e+003,-3.638670e-003
1.243881e+003,-3.836132e-003
1.245809e+003,-4.183501e-003
1.247738e+003,-4.576628e-003
1.249666e+003,-4.766847e-003
1.251595e+003,-4.725356e-003
1.253523e+003,-4.836286e-003
1.255452e+003,-5.131090e-003
1.257380e+003,-5.299432e-003
1.259309e+003,-5.550676e-003
1.261237e+003,-5.800567e-003
1.263166e+003,-5.841466e-003
1.265094e+003,-5.778007e-003
1.267023e+003,-5.670096e-003
1.268951e+003,-5.708522e-003
1.270880e+003,-5.777713e-003
1.272808e+003,-5.852744e-003
1.274737e+003,-5.994990e-003
1.276665e+003,-6.149407e-003
1.278594e+003,-6.302725e-003
1.280522e+003,-6.430393e-003
1.282451e+003,-6.518107e-003
1.284379e+003,-6.483180e-003
1.286308e+003,-6.367543e-003
1.288236e+003,-6.421448e-003
1.290165e+003,-6.602344e-003
1.292093e+003,-6.673383e-003
1.294022e+003,-6.701736e-003
1.295950e+003,-6.639284e-003
1.297879e+003,-6.606390e-003
1.299807e+003,-6.683073e-003
1.301736e+003,-6.727380e-003
1.303664e+003,-6.704118e-003
1.305593e+003,-6.898985e-003
1.307521e+003,-7.090015e-003
1.309450e+003,-7.073977e-003
1.311378e+003,-6.964497e-003
1.313307e+003,-7.032509e-003
1.315235e+003,-7.172675e-003
1.317164e+003,-7.205070e-003
1.319092e+003,-7.283015e-003
1.321021e+003,-7.177955e-003
1.322949e+003,-7.045387e-003
1.324878e+003,-6.924030e-003
1.326806e+003,-6.626949e-003
1.328735e+003,-6.424778e-003
1.330663e+003,-6.205070e-003
1.332592e+003,-6.112981e-003
1.334520e+003,-5.957504e-003
1.336449e+003,-5.968028e-003
1.338377e+003,-6.063612e-003
1.340306e+003,-5.980741e-003
1.342234e+003,-5.832018e-003
1.344163e+003,-5.640008e-003
1.346091e+003,-5.584108e-003
1.348020e+003,-5.590225e-003
1.349948e+003,-5.655150e-003
1.351877e+003,-5.776699e-003
1.353805e+003,-5.835745e-003
1.355734e+003,-5.773626e-003
1.357662e+003,-5.905569e-003
1.359591e+003,-6.095044e-003
1.361519e+003,-6.231755e-003
1.363448e+003,-6.462321e-003
1.365376e+003,-6.675634e-003
1.367305e+003,-6.827917e-003
1.369233e+003,-7.031727e-003
1.371162e+003,-7.218235e-003
1.373090e+003,-7.439874e-003
1.375019e+003,-7.654335e-003
1.376947e+003,-7.759281e-003
1.378876e+003,-7.832180e-003
1.380804e+003,-7.970266e-003
1.382733e+003,-8.104048e-003
1.384661e+003,-8.171199e-003
1.386590e+003,-8.329915e-003
1.388518e+003,-8.448021e-003
1.390447e+003,-8.452895e-003
1.392375e+003,-8.740482e-003
1.394304e+003,-9.187027e-003
1.396232e+003,-9.166394e-003
1.398161e+003,-9.187838e-003
1.400089e+003,-9.272013e-003
1.402018e+003,-9.333601e-003
1.403946e+003,-9.528264e-003
1.405875e+003,-9.511214e-003
1.407803e+003,-9.327958e-003
1.409732e+003,-9.306327e-003
1.411660e+003,-9.302079e-003
1.413589e+003,-9.219726e-003
1.415517e+003,-9.169541e-003
1.417446e+003,-9.060783e-003
1.419374e+003,-8.886427e-003
1.421303e+003,-8.412567e-003
1.423231e+003,-8.047229e-003
1.425160e+003,-7.716609e-003
1.427088e+003,-7.347264e-003
1.429017e+003,-6.840279e-003
1.430945e+003,-6.169498e-003
1.432874e+003,-5.627481e-003
1.434802e+003,-5.539619e-003
1.436731e+003,-5.323457e-003
1.438659e+003,-4.484455e-003
1.440588e+003,-3.905983e-003
1.442516e+003,-3.638046e-003
1.444445e+003,-3.383423e-003
1.446373e+003,-3.052489e-003
1.448302e+003,-2.876264e-003
1.450230e+003,-2.672700e-003
1.452159e+003,-2.413623e-003
1.454087e+003,-2.508279e-003
1.456016e+003,-3.135263e-003
1.457944e+003,-3.152927e-003
1.459873e+003,-2.782149e-003
1.461801e+003,-2.763942e-003
1.463730e+003,-3.219501e-003
1.465658e+003,-3.541203e-003
1.467587e+003,-3.588625e-003
1.469515e+003,-3.956648e-003
1.471444e+003,-4.742628e-003
1.473372e+003,-5.320347e-003
1.475301e+003,-5.510438e-003
1.477229e+003,-5.761724e-003
1.479158e+003,-5.918382e-003
1.481086e+003,-6.292633e-003
1.483015e+003,-6.662876e-003
1.484943e+003,-7.050636e-003
1.486872e+003,-7.379841e-003
1.488800e+003,-7.626467e-003
1.490729e+003,-7.795536e-003
1.492657e+003,-7.779199e-003
1.494586e+003,-7.954878e-003
1.496514e+003,-8.300075e-003
1.498443e+003,-8.253262e-003
1.500371e+003,-8.064955e-003
1.502300e+003,-8.039390e-003
1.504228e+003,-8.539162e-003
1.506157e+003,-9.361457e-003
1.508085e+003,-9.160977e-003
1.510014e+003,-8.691314e-003
1.511942e+003,-8.528993e-003
1.513871e+003,-8.373665e-003
1.515799e+003,-8.484122e-003
1.517728e+003,-8.488574e-003
1.519656e+003,-8.580681e-003
1.521585e+003,-8.859449e-003
1.523513e+003,-8.600464e-003
1.525442e+003,-8.445519e-003
1.527370e+003,-8.189603e-003
1.529299e+003,-7.934578e-003
1.531227e+003,-7.889710e-003
1.533156e+003,-7.975243e-003
1.535084e+003,-7.653065e-003
1.537013e+003,-7.727090e-003
1.538941e+003,-8.364174e-003
1.540870e+003,-8.430180e-003
1.542798e+003,-7.887824e-003
1.544727e+003,-7.467884e-003
1.546655e+003,-7.098980e-003
1.548584e+003,-7.045290e-003
1.550512e+003,-6.917149e-003
1.552441e+003,-6.751619e-003
1.554369e+003,-6.661701e-003
1.556298e+003,-6.698017e-003
1.558226e+003,-7.137344e-003
1.560155e+003,-6.466303e-003
1.562083e+003,-5.443822e-003
1.564012e+003,-5.196935e-003
1.565940e+003,-5.224272e-003
1.567869e+003,-5.258056e-003
1.569797e+003,-5.270004e-003
1.571726e+003,-5.046993e-003
1.573654e+003,-5.193891e-003
1.575583e+003,-5.480828e-003
1.577511e+003,-5.140946e-003
1.579440e+003,-4.719980e-003
1.581368e+003,-4.718538e-003
1.583297e+003,-4.602135e-003
1.585225e+003,-4.409514e-003
1.587154e+003,-4.376583e-003
1.589082e+003,-4.325934e-003
1.591010e+003,-4.210443e-003
1.592939e+003,-4.326327e-003
1.594868e+003,-4.443493e-003
1.596796e+003,-4.418534e-003
1.598724e+003,-4.451463e-003
1.600653e+003,-4.546200e-003
1.602582e+003,-4.573283e-003
1.604510e+003,-4.674255e-003
1.606438e+003,-4.871346e-003
1.608367e+003,-5.047714e-003
1.610296e+003,-5.162950e-003
1.612224e+003,-5.324340e-003
1.614152e+003,-5.692662e-003
1.616081e+003,-6.444170e-003
1.618010e+003,-6.581588e-003
1.619938e+003,-6.275684e-003
1.621866e+003,-6.471951e-003
1.623795e+003,-6.768648e-003
1.625724e+003,-6.779609e-003
1.627652e+003,-6.848988e-003
1.629580e+003,-6.906094e-003
1.631509e+003,-6.992734e-003
1.633438e+003,-7.415608e-003
1.635366e+003,-7.986369e-003
1.637294e+003,-7.891435e-003
1.639223e+003,-7.562357e-003
1.641151e+003,-7.506966e-003
1.643080e+003,-7.663744e-003
1.645008e+003,-8.023224e-003
1.646937e+003,-8.228262e-003
1.648865e+003,-8.000715e-003
1.650794e+003,-8.311712e-003
1.652722e+003,-9.171358e-003
1.654651e+003,-8.449483e-003
1.656579e+003,-7.531585e-003
1.658508e+003,-7.212858e-003
1.660436e+003,-7.102533e-003
1.662365e+003,-6.968019e-003
1.664293e+003,-6.651553e-003
1.666222e+003,-6.505018e-003
1.668150e+003,-6.720333e-003
1.670079e+003,-6.831603e-003
1.672007e+003,-6.531946e-003
1.673936e+003,-6.631061e-003
1.675864e+003,-6.738896e-003
1.677793e+003,-6.453343e-003
1.679721e+003,-6.635434e-003
1.681650e+003,-7.075705e-003
1.683578e+003,-7.828080e-003
1.685507e+003,-7.786131e-003
1.687435e+003,-7.540084e-003
1.689364e+003,-7.574535e-003
1.691292e+003,-7.450264e-003
1.693221e+003,-7.644373e-003
1.695149e+003,-8.227611e-003
1.697078e+003,-8.219939e-003
1.699006e+003,-8.549136e-003
1.700935e+003,-8.674360e-003
1.702863e+003,-8.232944e-003
1.704792e+003,-8.470800e-003
1.706720e+003,-8.358453e-003
1.708649e+003,-8.056369e-003
1.710577e+003,-8.021955e-003
1.712506e+003,-8.204495e-003
1.714434e+003,-8.565802e-003
1.716363e+003,-9.069512e-003
1.718291e+003,-9.177327e-003
1.720220e+003,-8.735968e-003
1.722148e+003,-8.594682e-003
1.724077e+003,-8.570220e-003
1.726005e+003,-8.496047e-003
1.727934e+003,-8.578959e-003
1.729862e+003,-8.713333e-003
1.731791e+003,-8.981890e-003
1.733719e+003,-9.455098e-003
1.735648e+003,-9.107281e-003
1.737576e+003,-8.797210e-003
1.739505e+003,-8.892238e-003
1.741433e+003,-8.732526e-003
1.743362e+003,-8.721711e-003
1.745290e+003,-8.612808e-003
1.747219e+003,-8.618135e-003
1.749147e+003,-8.705214e-003
1.751076e+003,-8.729311e-003
1.753004e+003,-8.418481e-003
1.754933e+003,-8.254986e-003
1.756861e+003,-8.335636e-003
1.758790e+003,-8.317206e-003
1.760718e+003,-8.369926e-003
1.762647e+003,-8.290030e-003
1.764575e+003,-8.049245e-003
1.766504e+003,-8.193147e-003
1.768432e+003,-8.306544e-003
1.770361e+003,-8.432521e-003
1.772289e+003,-8.575353e-003
1.774218e+003,-8.307097e-003
1.776146e+003,-8.127820e-003
1.778075e+003,-8.141478e-003
1.780003e+003,-8.169671e-003
1.781932e+003,-8.075167e-003
1.783860e+003,-7.954553e-003
1.785789e+003,-7.896576e-003
1.787717e+003,-8.043651e-003
1.789646e+003,-8.263276e-003
1.791574e+003,-8.490068e-003
1.793503e+003,-8.421504e-003
1.795431e+003,-8.278198e-003
1.797360e+003,-8.189960e-003
1.799288e+003,-8.169573e-003
1.801217e+003,-8.209274e-003
1.803145e+003,-8.070257e-003
1.805074e+003,-8.098356e-003
1.807002e+003,-8.181930e-003
1.808931e+003,-8.202999e-003
1.810859e+003,-8.245070e-003
1.812788e+003,-8.308787e-003
1.814716e+003,-8.328647e-003
1.816645e+003,-8.289218e-003
1.818573e+003,-8.183912e-003
1.820502e+003,-8.259602e-003
1.822430e+003,-8.417084e-003
1.824359e+003,-8.518401e-003
1.826287e+003,-8.484480e-003
1.828216e+003,-8.492407e-003
1.830144e+003,-8.563982e-003
1.832073e+003,-8.528700e-003
1.834001e+003,-8.485389e-003
1.835930e+003,-8.466088e-003
1.837858e+003,-8.392970e-003
1.839787e+003,-8.365962e-003
1.841715e+003,-8.467258e-003
1.843644e+003,-8.723270e-003
1.845572e+003,-8.738663e-003
1.847501e+003,-8.646134e-003
1.849429e+003,-8.512357e-003
1.851358e+003,-8.347662e-003
1.853286e+003,-8.347370e-003
1.855215e+003,-8.426931e-003
1.857143e+003,-8.377435e-003
1.859072e+003,-8.376329e-003
1.861000e+003,-8.455527e-003
1.862929e+003,-8.437719e-003
1.864857e+003,-8.386535e-003
1.866786e+003,-8.488086e-003
1.868714e+003,-8.541176e-003
1.870643e+003,-8.308657e-003
1.872571e+003,-8.202706e-003
1.874500e+003,-8.235772e-003
1.876428e+003,-8.235057e-003
1.878357e+003,-8.197212e-003
1.880285e+003,-8.203324e-003
1.882214e+003,-8.130454e-003
1.884142e+003,-8.115820e-003
1.886071e+003,-8.218118e-003
1.887999e+003,-8.287170e-003
1.889928e+003,-8.247671e-003
1.891856e+003,-8.158647e-003
1.893785e+003,-8.230765e-003
1.895713e+003,-8.221402e-003
1.897642e+003,-8.145153e-003
1.899570e+003,-8.118779e-003
1.901499e+003,-8.100275e-003
1.903427e+003,-8.062418e-003
1.905356e+003,-8.131950e-003
1.907284e+003,-8.196983e-003
1.909213e+003,-8.214248e-003
1.911141e+003,-8.222832e-003
1.913070e+003,-8.191586e-003
1.914998e+003,-8.153575e-003
1.916927e+003,-8.220068e-003
1.918855e+003,-8.226376e-003
1.920784e+003,-8.192659e-003
1.922712e+003,-8.300498e-003
1.924641e+003,-8.276962e-003
1.926569e+003,-8.262691e-003
1.928498e+003,-8.341584e-003
1.930426e+003,-8.412664e-003
1.932355e+003,-8.469176e-003
1.934283e+003,-8.562488e-003
1.936212e+003,-8.513267e-003
1.938140e+003,-8.443342e-003
1.940069e+003,-8.486397e-003
1.941997e+003,-8.630348e-003
1.943926e+003,-8.646590e-003
1.945854e+003,-8.646362e-003
1.947783e+003,-8.579413e-003
1.949711e+003,-8.541728e-003
1.951640e+003,-8.605044e-003
1.953568e+003,-8.592083e-003
1.955497e+003,-8.639509e-003
1.957425e+003,-8.684525e-003
1.959354e+003,-8.572917e-003
1.961282e+003,-8.491920e-003
1.963211e+003,-8.544750e-003
1.965139e+003,-8.649481e-003
1.967068e+003,-8.748535e-003
1.968996e+003,-8.764122e-003
1.970925e+003,-8.709825e-003
1.972853e+003,-8.665266e-003
1.974782e+003,-8.555406e-003
1.976710e+003,-8.528180e-003
1.978639e+003,-8.601731e-003
1.980567e+003,-8.627165e-003
1.982496e+003,-8.613978e-003
1.984424e+003,-8.555601e-003
1.986353e+003,-8.554366e-003
1.988281e+003,-8.571292e-003
1.990210e+003,-8.536660e-003
1.992138e+003,-8.542281e-003
1.994067e+003,-8.551572e-003
1.995995e+003,-8.518239e-003
1.997924e+003,-8.424363e-003
1.999852e+003,-8.398560e-003
2.001781e+003,-8.449288e-003
2.003709e+003,-8.453155e-003
2.005638e+003,-8.488282e-003
2.007566e+003,-8.454000e-003
2.009495e+003,-8.415979e-003
2.011423e+003,-8.477071e-003
2.013352e+003,-8.485487e-003
2.015280e+003,-8.401647e-003
2.017208e+003,-8.363166e-003
2.019137e+003,-8.305374e-003
2.021066e+003,-8.390792e-003
2.022994e+003,-8.573307e-003
2.024922e+003,-8.557258e-003
2.026851e+003,-8.505405e-003
2.028780e+003,-8.561221e-003
2.030708e+003,-8.572689e-003
2.032636e+003,-8.466283e-003
2.034565e+003,-8.427093e-003
2.036494e+003,-8.436128e-003
2.038422e+003,-8.493967e-003
2.040350e+003,-8.600626e-003
2.042279e+003,-8.541599e-003
2.044208e+003,-8.589257e-003
2.046136e+003,-8.681375e-003
2.048064e+003,-8.613912e-003
2.049993e+003,-8.617843e-003
2.051921e+003,-8.624794e-003
2.053850e+003,-8.605337e-003
2.055778e+003,-8.512942e-003
2.057707e+003,-8.467063e-003
2.059635e+003,-8.534224e-003
2.061564e+003,-8.691670e-003
2.063492e+003,-8.753893e-003
2.065421e+003,-8.710182e-003
2.067349e+003,-8.676081e-003
2.069278e+003,-8.664876e-003
2.071206e+003,-8.650324e-003
2.073135e+003,-8.620929e-003
2.075063e+003,-8.700667e-003
2.076992e+003,-8.704954e-003
2.078920e+003,-8.602706e-003
2.080849e+003,-8.566907e-003
2.082777e+003,-8.542444e-003
2.084706e+003,-8.498484e-003
2.086634e+003,-8.513267e-003
2.088563e+003,-8.531332e-003
2.090491e+003,-8.517069e-003
2.092420e+003,-8.510668e-003
2.094348e+003,-8.498906e-003
2.096277e+003,-8.426443e-003
2.098205e+003,-8.458420e-003
2.100134e+003,-8.470410e-003
2.102062e+003,-8.366514e-003
2.103991e+003,-8.231252e-003
2.105919e+003,-8.227807e-003
2.107848e+003,-8.249687e-003
2.109776e+003,-8.204950e-003
2.111705e+003,-8.228457e-003
2.113633e+003,-8.303423e-003
2.115562e+003,-8.316653e-003
2.117490e+003,-8.239251e-003
2.119419e+003,-8.190773e-003
2.121347e+003,-8.198740e-003
2.123276e+003,-8.180954e-003
2.125204e+003,-8.194643e-003
2.127133e+003,-8.212656e-003
2.129061e+003,-8.188270e-003
2.130990e+003,-8.131787e-003
2.132918e+003,-8.078940e-003
2.134847e+003,-8.040528e-003
2.136775e+003,-8.121413e-003
2.138704e+003,-8.162679e-003
2.140632e+003,-8.160956e-003
2.142561e+003,-8.209664e-003
2.144489e+003,-8.170614e-003
2.146418e+003,-8.148046e-003
2.148346e+003,-8.093965e-003
2.150275e+003,-8.077509e-003
2.152203e+003,-8.184531e-003
2.154132e+003,-8.163492e-003
2.156060e+003,-8.166419e-003
2.157989e+003,-8.325689e-003
2.159917e+003,-8.407139e-003
2.161846e+003,-8.398560e-003
2.163774e+003,-8.358811e-003
2.165703e+003,-8.412729e-003
2.167631e+003,-8.487112e-003
2.169560e+003,-8.406652e-003
2.171488e+003,-8.362256e-003
2.173417e+003,-8.399795e-003
2.175345e+003,-8.474211e-003
2.177274e+003,-8.507516e-003
2.179202e+003,-8.474114e-003
2.181131e+003,-8.453903e-003
2.183059e+003,-8.384357e-003
2.184988e+003,-8.356568e-003
2.186916e+003,-8.384227e-003
2.188845e+003,-8.351791e-003
2.190773e+003,-8.255181e-003
2.192702e+003,-8.235024e-003
2.194630e+003,-8.213891e-003
2.196559e+003,-8.116990e-003
2.198487e+003,-8.204137e-003
2.200416e+003,-8.291266e-003
2.202344e+003,-8.229074e-003
2.204273e+003,-8.228716e-003
2.206201e+003,-8.184758e-003
2.208130e+003,-8.165736e-003
2.210058e+003,-8.277644e-003
2.211987e+003,-8.252385e-003
2.213915e+003,-8.136958e-003
2.215844e+003,-8.097836e-003
2.217772e+003,-8.146356e-003
2.219701e+003,-8.172239e-003
2.221629e+003,-8.176337e-003
2.223558e+003,-8.092404e-003
2.225486e+003,-8.070289e-003
2.227415e+003,-8.199357e-003
2.229343e+003,-8.206608e-003
2.231272e+003,-8.064109e-003
2.233200e+003,-8.009139e-003
2.235129e+003,-8.069898e-003
2.237057e+003,-8.122064e-003
2.238986e+003,-7.987800e-003
2.240914e+003,-7.888994e-003
2.242843e+003,-7.971535e-003
2.244771e+003,-7.991215e-003
2.246700e+003,-7.960507e-003
2.248628e+003,-7.986987e-003
2.250557e+003,-7.990045e-003
2.252485e+003,-8.024623e-003
2.254414e+003,-8.072696e-003
2.256342e+003,-8.096177e-003
2.258271e+003,-8.141998e-003
2.260199e+003,-8.089510e-003
2.262128e+003,-8.056173e-003
2.264056e+003,-8.197179e-003
2.265985e+003,-8.284959e-003
2.267913e+003,-8.286324e-003
2.269842e+003,-8.290941e-003
2.271770e+003,-8.287299e-003
2.273699e+003,-8.300791e-003
2.275627e+003,-8.309892e-003
2.277556e+003,-8.404897e-003
2.279484e+003,-8.438175e-003
2.281413e+003,-8.339440e-003
2.283341e+003,-8.338529e-003
2.285270e+003,-8.339504e-003
2.287198e+003,-8.335149e-003
2.289127e+003,-8.426346e-003
2.291055e+003,-8.490458e-003
2.292984e+003,-8.487534e-003
2.294912e+003,-8.484155e-003
2.296841e+003,-8.459751e-003
2.298769e+003,-8.443796e-003
2.300698e+003,-8.482043e-003
2.302626e+003,-8.483147e-003
2.304555e+003,-8.423128e-003
2.306483e+003,-8.492083e-003
2.308412e+003,-8.512033e-003
2.310340e+003,-8.414094e-003
2.312269e+003,-8.273127e-003
2.314197e+003,-8.160371e-003
2.316125e+003,-8.150160e-003
2.318054e+003,-8.096404e-003
2.319983e+003,-7.994111e-003
2.321911e+003,-7.873800e-003
2.323840e+003,-7.674649e-003
2.325768e+003,-7.578149e-003
2.327697e+003,-7.530315e-003
2.329625e+003,-7.386649e-003
2.331553e+003,-7.264996e-003
2.333482e+003,-7.340422e-003
2.335411e+003,-7.266658e-003
2.337339e+003,-7.182908e-003
2.339268e+003,-7.145982e-003
2.341196e+003,-7.259066e-003
2.343125e+003,-7.380688e-003
2.345053e+003,-7.588569e-003
2.346981e+003,-7.863517e-003
2.348910e+003,-8.069378e-003
2.350839e+003,-7.854016e-003
2.352767e+003,-7.414044e-003
2.354696e+003,-7.109280e-003
2.356624e+003,-6.906713e-003
2.358552e+003,-6.829353e-003
2.360481e+003,-6.884244e-003
2.362409e+003,-6.894680e-003
2.364338e+003,-6.919301e-003
2.366267e+003,-6.998472e-003
2.368195e+003,-7.088386e-003
2.370124e+003,-7.248801e-003
2.372052e+003,-7.503644e-003
2.373980e+003,-7.840185e-003
2.375909e+003,-8.058808e-003
2.377838e+003,-8.227189e-003
2.379766e+003,-8.316783e-003
2.381695e+003,-8.337326e-003
2.383623e+003,-8.490718e-003
2.385552e+003,-8.511935e-003
2.387480e+003,-8.496014e-003
2.389408e+003,-8.449126e-003
2.391337e+003,-8.399892e-003
2.393266e+003,-8.338399e-003
2.395194e+003,-8.319904e-003
2.397123e+003,-8.370122e-003
2.399051e+003,-8.349548e-003
2.400979e+003,-8.350555e-003
2.402908e+003,-8.431611e-003
2.404836e+003,-8.505177e-003
2.406765e+003,-8.520870e-003
2.408694e+003,-8.363361e-003
2.410622e+003,-8.269908e-003
2.412551e+003,-8.307259e-003
2.414479e+003,-8.372819e-003
2.416407e+003,-8.368237e-003
2.418336e+003,-8.291136e-003
2.420264e+003,-8.263666e-003
2.422193e+003,-8.252125e-003
2.424122e+003,-8.192400e-003
2.426050e+003,-8.159265e-003
2.427979e+003,-8.171752e-003
2.429907e+003,-8.181636e-003
2.431835e+003,-8.149217e-003
2.433764e+003,-8.061897e-003
2.435692e+003,-8.133088e-003
2.437621e+003,-8.222572e-003
2.439550e+003,-8.241266e-003
2.441478e+003,-8.163525e-003
2.443406e+003,-8.126291e-003
2.445335e+003,-8.123235e-003
2.447263e+003,-8.165378e-003
2.449192e+003,-8.126812e-003
2.451121e+003,-7.930055e-003
2.453049e+003,-7.793551e-003
2.454978e+003,-7.801134e-003
2.456906e+003,-7.848614e-003
2.458834e+003,-7.852518e-003
2.460763e+003,-7.879429e-003
2.462691e+003,-7.875264e-003
2.464620e+003,-7.857562e-003
2.466549e+003,-7.832050e-003
2.468477e+003,-7.866316e-003
2.470406e+003,-7.957448e-003
2.472334e+003,-7.950812e-003
2.474262e+003,-7.904124e-003
2.476191e+003,-7.926769e-003
2.478119e+003,-7.843472e-003
2.480048e+003,-7.746457e-003
2.481977e+003,-7.692098e-003
2.483905e+003,-7.676114e-003
2.485833e+003,-7.765464e-003
2.487762e+003,-7.878094e-003
2.489690e+003,-7.895339e-003
2.491619e+003,-7.841129e-003
2.493547e+003,-7.784244e-003
2.495476e+003,-7.873279e-003
2.497405e+003,-7.876597e-003
2.499333e+003,-7.765074e-003
2.501261e+003,-7.776497e-003
2.503190e+003,-7.887368e-003
2.505118e+003,-7.932495e-003
2.507047e+003,-7.914764e-003
2.508975e+003,-8.060955e-003
2.510904e+003,-8.035942e-003
2.512833e+003,-8.003154e-003
2.514761e+003,-8.056563e-003
2.516689e+003,-8.013465e-003
2.518618e+003,-7.967208e-003
2.520546e+003,-7.979862e-003
2.522475e+003,-7.953967e-003
2.524403e+003,-8.041471e-003
2.526332e+003,-8.060076e-003
2.528260e+003,-7.979862e-003
2.530189e+003,-7.989329e-003
2.532117e+003,-8.000779e-003
2.534046e+003,-7.946387e-003
2.535974e+003,-7.978659e-003
2.537903e+003,-7.958229e-003
2.539831e+003,-7.951559e-003
2.541760e+003,-7.937570e-003
2.543688e+003,-7.855902e-003
2.545617e+003,-7.806146e-003
2.547545e+003,-7.755830e-003
2.549474e+003,-7.704044e-003
2.551402e+003,-7.649973e-003
2.553331e+003,-7.630537e-003
2.555259e+003,-7.689461e-003
2.557188e+003,-7.804942e-003
2.559116e+003,-7.773113e-003
2.561045e+003,-7.724779e-003
2.562973e+003,-7.721491e-003
2.564902e+003,-7.681192e-003
2.566830e+003,-7.643364e-003
2.568759e+003,-7.646359e-003
2.570687e+003,-7.641085e-003
2.572616e+003,-7.648345e-003
2.574544e+003,-7.582936e-003
2.576473e+003,-7.498987e-003
2.578401e+003,-7.525430e-003
2.580330e+003,-7.540898e-003
2.582258e+003,-7.438213e-003
2.584187e+003,-7.392350e-003
2.586115e+003,-7.463031e-003
2.588044e+003,-7.519796e-003
2.589972e+003,-7.415673e-003
2.591901e+003,-7.352607e-003
2.593829e+003,-7.360034e-003
2.595758e+003,-7.376518e-003
2.597686e+003,-7.388734e-003
2.599615e+003,-7.381730e-003
2.601543e+003,-7.383490e-003
2.603472e+003,-7.415217e-003
2.605400e+003,-7.470815e-003
2.607329e+003,-7.550016e-003
2.609257e+003,-7.556431e-003
2.611186e+003,-7.418832e-003
2.613114e+003,-7.317063e-003
2.615043e+003,-7.370329e-003
2.616971e+003,-7.307093e-003
2.618900e+003,-7.225632e-003
2.620828e+003,-7.171664e-003
2.622757e+003,-7.154651e-003
2.624685e+003,-7.254406e-003
2.626614e+003,-7.344202e-003
2.628542e+003,-7.252353e-003
2.630471e+003,-7.134183e-003
2.632399e+003,-7.111269e-003
2.634328e+003,-7.097383e-003
2.636256e+003,-7.065208e-003
2.638185e+003,-7.044767e-003
2.640113e+003,-7.019990e-003
2.642042e+003,-6.902115e-003
2.643970e+003,-6.810761e-003
2.645899e+003,-6.857337e-003
2.647827e+003,-6.867643e-003
2.649756e+003,-6.798692e-003
2.651684e+003,-6.651194e-003
2.653613e+003,-6.536255e-003
2.655541e+003,-6.502929e-003
2.657470e+003,-6.615364e-003
2.659398e+003,-6.545818e-003
2.661327e+003,-6.480406e-003
2.663255e+003,-6.459089e-003
2.665184e+003,-6.388962e-003
2.667112e+003,-6.329469e-003
2.669041e+003,-6.274574e-003
2.670969e+003,-6.165643e-003
2.672898e+003,-6.156104e-003
2.674826e+003,-6.113895e-003
2.676755e+003,-6.030054e-003
2.678683e+003,-6.047340e-003
2.680612e+003,-6.038648e-003
2.682540e+003,-5.879713e-003
2.684469e+003,-5.753157e-003
2.686397e+003,-5.726377e-003
2.688326e+003,-5.602132e-003
2.690254e+003,-5.503076e-003
2.692183e+003,-5.563140e-003
2.694111e+003,-5.548975e-003
2.696040e+003,-5.547863e-003
2.697968e+003,-5.441008e-003
2.699897e+003,-5.260970e-003
2.701825e+003,-5.211046e-003
2.703754e+003,-5.165242e-003
2.705682e+003,-5.070017e-003
2.707611e+003,-5.069231e-003
2.709539e+003,-5.049515e-003
2.711468e+003,-4.985482e-003
2.713396e+003,-4.910039e-003
2.715325e+003,-4.868823e-003
2.717253e+003,-4.740170e-003
2.719182e+003,-4.716342e-003
2.721110e+003,-4.743709e-003
2.723039e+003,-4.630657e-003
2.724967e+003,-4.490128e-003
2.726896e+003,-4.329050e-003
2.728824e+003,-4.189244e-003
2.730753e+003,-4.073158e-003
2.732681e+003,-3.946108e-003
2.734610e+003,-4.001792e-003
2.736538e+003,-3.939410e-003
2.738467e+003,-3.764496e-003
2.740395e+003,-3.686048e-003
2.742324e+003,-3.565556e-003
2.744252e+003,-3.553068e-003
2.746181e+003,-3.589841e-003
2.748109e+003,-3.474614e-003
2.750038e+003,-3.313258e-003
2.751966e+003,-3.215718e-003
2.753895e+003,-3.193386e-003
2.755823e+003,-3.053674e-003
2.757752e+003,-2.800190e-003
2.759680e+003,-2.595833e-003
2.761609e+003,-2.370950e-003
2.763537e+003,-2.072815e-003
2.765466e+003,-1.812686e-003
2.767394e+003,-1.522224e-003
2.769323e+003,-1.140962e-003
2.771251e+003,-7.478206e-004
2.773180e+003,-2.310485e-004
2.775108e+003,3.555080e-004
2.777037e+003,9.339254e-004
2.778965e+003,1.521327e-003
2.780894e+003,2.049231e-003
2.782822e+003,2.656545e-003
2.784750e+003,3.426620e-003
2.786679e+003,4.251830e-003
2.788608e+003,5.126585e-003
2.790536e+003,5.950097e-003
2.792465e+003,6.704234e-003
2.794393e+003,7.492077e-003
2.796322e+003,8.235998e-003
2.798250e+003,9.015261e-003
2.800178e+003,9.777727e-003
2.802107e+003,1.036799e-002
2.804036e+003,1.077995e-002
2.805964e+003,1.115571e-002
2.807893e+003,1.146529e-002
2.809821e+003,1.170176e-002
2.811750e+003,1.167545e-002
2.813678e+003,1.161368e-002
2.815606e+003,1.153957e-002
2.817535e+003,1.136773e-002
2.819464e+003,1.112386e-002
2.821392e+003,1.077312e-002
2.823321e+003,1.033470e-002
2.825249e+003,9.868997e-003
2.827177e+003,9.310452e-003
2.829106e+003,8.738932e-003
2.831034e+003,8.338328e-003
2.832963e+003,7.887547e-003
2.834892e+003,7.347011e-003
2.836820e+003,6.861674e-003
2.838749e+003,6.272153e-003
2.840677e+003,5.756688e-003
2.842605e+003,5.333130e-003
2.844534e+003,4.673932e-003
2.846462e+003,4.053357e-003
2.848391e+003,3.693440e-003
2.850320e+003,3.403009e-003
2.852248e+003,3.069258e-003
2.854177e+003,2.847210e-003
2.856105e+003,2.711055e-003
2.858033e+003,2.615776e-003
2.859962e+003,2.519884e-003
2.861890e+003,2.453568e-003
2.863819e+003,2.341089e-003
2.865748e+003,2.343021e-003
2.867676e+003,2.506287e-003
2.869604e+003,2.613909e-003
2.871533e+003,2.731194e-003
2.873461e+003,2.822464e-003
2.875390e+003,2.813492e-003
2.877319e+003,2.899676e-003
2.879247e+003,3.038459e-003
2.881176e+003,3.225353e-003
2.883104e+003,3.372922e-003
2.885032e+003,3.386813e-003
2.886961e+003,3.333287e-003
2.888889e+003,3.259636e-003
2.890818e+003,3.141942e-003
2.892747e+003,3.075030e-003
2.894675e+003,3.002525e-003
2.896604e+003,2.981806e-003
2.898532e+003,2.969829e-003
2.900460e+003,2.892838e-003
2.902389e+003,2.707221e-003
2.904317e+003,2.707621e-003
2.906246e+003,2.871725e-003
2.908175e+003,3.011767e-003
2.910103e+003,3.059214e-003
2.912031e+003,3.067222e-003
2.913960e+003,3.131529e-003
2.915888e+003,3.303438e-003
2.917817e+003,3.460085e-003
2.919745e+003,3.683883e-003
2.921674e+003,3.993863e-003
2.923603e+003,4.137813e-003
2.925531e+003,4.393054e-003
2.927459e+003,4.745545e-003
2.929388e+003,4.867395e-003
2.931316e+003,4.978252e-003
2.933245e+003,5.288319e-003
2.935173e+003,5.294490e-003
2.937102e+003,5.150022e-003
2.939031e+003,4.975369e-003
2.940959e+003,4.795326e-003
2.942887e+003,4.557862e-003
2.944816e+003,4.087840e-003
2.946744e+003,3.667208e-003
2.948673e+003,3.217408e-003
2.950601e+003,2.676515e-003
2.952530e+003,1.995036e-003
2.954458e+003,1.362951e-003
2.956387e+003,6.813061e-004
2.958315e+003,-1.083017e-004
2.960244e+003,-7.993515e-004
2.962172e+003,-1.515620e-003
2.964101e+003,-2.272902e-003
2.966029e+003,-2.845520e-003
2.967958e+003,-3.404299e-003
2.969886e+003,-4.013249e-003
2.971815e+003,-4.430801e-003
2.973743e+003,-4.783266e-003
2.975672e+003,-5.175883e-003
2.977600e+003,-5.518617e-003
2.979529e+003,-5.897332e-003
2.981457e+003,-6.073480e-003
2.983386e+003,-6.141861e-003
2.985314e+003,-6.248478e-003
2.987243e+003,-6.447304e-003
2.989171e+003,-6.557274e-003
2.991100e+003,-6.611579e-003
2.993028e+003,-6.785285e-003
2.994957e+003,-6.772008e-003
2.996885e+003,-6.751325e-003
2.998814e+003,-6.860403e-003
3.000742e+003,-6.848727e-003
3.002671e+003,-6.952008e-003
3.004599e+003,-7.023577e-003
3.006528e+003,-6.900094e-003
3.008456e+003,-6.968312e-003
3.010385e+003,-7.024620e-003
3.012313e+003,-7.016600e-003
3.014242e+003,-7.071011e-003
3.016170e+003,-7.147579e-003
3.018099e+003,-7.111725e-003
3.020027e+003,-7.081964e-003
3.021956e+003,-7.075281e-003
3.023884e+003,-7.015198e-003
3.025813e+003,-7.011611e-003
3.027741e+003,-7.029640e-003
3.029670e+003,-6.980735e-003
3.031598e+003,-7.205102e-003
3.033527e+003,-7.288978e-003
3.035455e+003,-7.121601e-003
3.037384e+003,-6.939258e-003
3.039312e+003,-6.970594e-003
3.041241e+003,-7.148980e-003
3.043169e+003,-7.230683e-003
3.045098e+003,-7.212141e-003
3.047026e+003,-7.225209e-003
3.048955e+003,-7.273631e-003
3.050883e+003,-7.215237e-003
3.052812e+003,-7.178411e-003
3.054740e+003,-7.100088e-003
3.056669e+003,-7.113094e-003
3.058597e+003,-7.152859e-003
3.060526e+003,-7.251636e-003
3.062454e+003,-7.407431e-003
3.064383e+003,-7.358438e-003
3.066311e+003,-7.222536e-003
3.068240e+003,-7.265746e-003
3.070168e+003,-7.279496e-003
3.072097e+003,-7.263465e-003
3.074025e+003,-7.348665e-003
3.075954e+003,-7.249095e-003
3.077882e+003,-7.250985e-003
3.079811e+003,-7.223286e-003
3.081739e+003,-7.165276e-003
3.083668e+003,-7.178378e-003
3.085596e+003,-7.187699e-003
3.087525e+003,-7.152402e-003
3.089453e+003,-7.123459e-003
3.091382e+003,-7.121047e-003
3.093310e+003,-7.091906e-003
3.095239e+003,-7.035966e-003
3.097167e+003,-7.021653e-003
3.099096e+003,-6.989114e-003
3.101024e+003,-7.021490e-003
3.102953e+003,-7.059144e-003
3.104881e+003,-7.006623e-003
3.106810e+003,-6.969290e-003
3.108738e+003,-6.987875e-003
3.110667e+003,-7.037139e-003
3.112595e+003,-7.099599e-003
3.114524e+003,-7.078965e-003
3.116452e+003,-6.915160e-003
3.118381e+003,-6.824982e-003
3.120309e+003,-6.832778e-003
3.122238e+003,-6.671849e-003
3.124166e+003,-6.604139e-003
3.126095e+003,-6.781958e-003
3.128023e+003,-6.794386e-003
3.129952e+003,-6.627080e-003
3.131880e+003,-6.537332e-003
3.133809e+003,-6.609132e-003
3.135737e+003,-6.549636e-003
3.137666e+003,-6.462974e-003
3.139594e+003,-6.473942e-003
3.141523e+003,-6.509947e-003
3.143451e+003,-6.494899e-003
3.145380e+003,-6.455694e-003
3.147308e+003,-6.367021e-003
3.149237e+003,-6.332082e-003
3.151165e+003,-6.289825e-003
3.153094e+003,-6.254912e-003
3.155022e+003,-6.240411e-003
3.156951e+003,-6.112817e-003
3.158879e+003,-6.122520e-003
3.160808e+003,-6.050640e-003
3.162736e+003,-5.868697e-003
3.164665e+003,-5.877261e-003
3.166593e+003,-5.778988e-003
3.168522e+003,-5.622084e-003
3.170450e+003,-5.599384e-003
3.172379e+003,-5.573935e-003
3.174307e+003,-5.560654e-003
3.176236e+003,-5.567393e-003
3.178164e+003,-5.652828e-003
3.180093e+003,-5.645698e-003
3.182021e+003,-5.648282e-003
3.183950e+003,-5.605141e-003
3.185878e+003,-5.506348e-003
3.187807e+003,-5.445065e-003
3.189735e+003,-5.549859e-003
3.191664e+003,-5.657244e-003
3.193592e+003,-5.496631e-003
3.195521e+003,-5.362469e-003
3.197449e+003,-5.489695e-003
3.199378e+003,-5.526632e-003
3.201306e+003,-5.538082e-003
3.203235e+003,-5.608117e-003
3.205163e+003,-5.556205e-003
3.207092e+003,-5.402068e-003
3.209020e+003,-5.399548e-003
3.210948e+003,-5.423011e-003
3.212877e+003,-5.378473e-003
3.214806e+003,-5.291543e-003
3.216734e+003,-5.204891e-003
3.218663e+003,-5.136231e-003
3.220591e+003,-5.066873e-003
3.222520e+003,-5.000582e-003
3.224448e+003,-5.067069e-003
3.226376e+003,-5.057146e-003
3.228305e+003,-4.978439e-003
3.230234e+003,-4.890742e-003
3.232162e+003,-4.880159e-003
3.234091e+003,-4.831830e-003
3.236019e+003,-4.870723e-003
3.237948e+003,-4.830323e-003
3.239876e+003,-4.676189e-003
3.241804e+003,-4.524461e-003
3.243733e+003,-4.436442e-003
3.245662e+003,-4.424995e-003
3.247590e+003,-4.309695e-003
3.249519e+003,-4.082480e-003
3.251447e+003,-4.077426e-003
3.253375e+003,-4.148025e-003
3.255304e+003,-4.053299e-003
3.257232e+003,-3.964002e-003
3.259161e+003,-3.971324e-003
3.261090e+003,-3.779475e-003
3.263018e+003,-3.719623e-003
3.264947e+003,-3.736509e-003
3.266875e+003,-3.653193e-003
3.268803e+003,-3.686212e-003
3.270732e+003,-3.741075e-003
3.272660e+003,-3.628090e-003
3.274589e+003,-3.524310e-003
3.276518e+003,-3.510671e-003
3.278446e+003,-3.471688e-003
3.280375e+003,-3.449895e-003
3.282303e+003,-3.426687e-003
3.284231e+003,-3.414359e-003
3.286160e+003,-3.516915e-003
3.288088e+003,-3.558359e-003
3.290017e+003,-3.636567e-003
3.291946e+003,-3.728493e-003
3.293874e+003,-3.810120e-003
3.295802e+003,-3.931103e-003
3.297731e+003,-3.945222e-003
3.299659e+003,-3.940592e-003
3.301588e+003,-3.945484e-003
3.303516e+003,-4.081266e-003
3.305445e+003,-4.214183e-003
3.307374e+003,-4.378321e-003
3.309302e+003,-4.528560e-003
3.311230e+003,-4.612528e-003
3.313159e+003,-4.752853e-003
3.315087e+003,-4.806893e-003
3.317016e+003,-4.911873e-003
3.318944e+003,-5.123362e-003
3.320873e+003,-5.121103e-003
3.322802e+003,-5.028390e-003
3.324730e+003,-4.984369e-003
3.326658e+003,-4.897458e-003
3.328587e+003,-4.962192e-003
3.330515e+003,-5.215171e-003
3.332444e+003,-5.384560e-003
3.334372e+003,-5.255372e-003
3.336301e+003,-5.044995e-003
3.338229e+003,-5.051055e-003
3.340158e+003,-5.160069e-003
3.342086e+003,-5.232064e-003
3.344015e+003,-5.134725e-003
3.345943e+003,-4.899555e-003
3.347872e+003,-4.863515e-003
3.349800e+003,-4.954166e-003
3.351729e+003,-5.021316e-003
3.353657e+003,-5.100997e-003
3.355586e+003,-5.092188e-003
3.357514e+003,-5.129944e-003
3.359443e+003,-5.272001e-003
3.361371e+003,-5.337170e-003
3.363300e+003,-5.360833e-003
3.365229e+003,-5.443462e-003
3.367157e+003,-5.460084e-003
3.369085e+003,-5.678043e-003
3.371014e+003,-5.752830e-003
3.372942e+003,-5.776176e-003
3.374871e+003,-6.091776e-003
3.376799e+003,-6.273333e-003
3.378728e+003,-6.466695e-003
3.380656e+003,-6.672371e-003
3.382585e+003,-6.731556e-003
3.384513e+003,-6.780946e-003
3.386442e+003,-6.855870e-003
3.388370e+003,-7.048256e-003
3.390299e+003,-7.323188e-003
3.392227e+003,-7.390884e-003
3.394156e+003,-7.447788e-003
3.396084e+003,-7.633434e-003
3.398013e+003,-7.710847e-003
3.399941e+003,-7.606477e-003
3.401870e+003,-7.502243e-003
3.403798e+003,-7.560371e-003
3.405727e+003,-7.802859e-003
3.407655e+003,-7.844286e-003
3.409584e+003,-7.608300e-003
3.411512e+003,-7.623276e-003
3.413441e+003,-7.778255e-003
3.415369e+003,-7.768979e-003
3.417298e+003,-7.717781e-003
3.419226e+003,-7.606444e-003
3.421155e+003,-7.596871e-003
3.423083e+003,-7.594071e-003
3.425012e+003,-7.655768e-003
3.426940e+003,-7.600616e-003
3.428869e+003,-7.532041e-003
3.430797e+003,-7.567958e-003
3.432726e+003,-7.704207e-003
3.434654e+003,-7.764097e-003
3.436583e+003,-7.728197e-003
3.438511e+003,-7.718269e-003
3.440440e+003,-7.580787e-003
3.442368e+003,-7.484885e-003
3.444297e+003,-7.483973e-003
3.446225e+003,-7.669929e-003
3.448154e+003,-7.685359e-003
3.450082e+003,-7.603481e-003
3.452011e+003,-7.575740e-003
3.453939e+003,-7.630081e-003
3.455868e+003,-7.671133e-003
3.457796e+003,-7.743755e-003
3.459725e+003,-7.782258e-003
3.461653e+003,-7.618393e-003
3.463582e+003,-7.501103e-003
3.465510e+003,-7.705021e-003
3.467439e+003,-7.833677e-003
3.469367e+003,-7.699682e-003
3.471296e+003,-7.821930e-003
3.473224e+003,-8.082583e-003
3.475153e+003,-8.015092e-003
3.477081e+003,-7.819684e-003
3.479010e+003,-7.625198e-003
3.480938e+003,-7.644634e-003
3.482867e+003,-7.670840e-003
3.484795e+003,-7.741021e-003
3.486724e+003,-7.846010e-003
3.488652e+003,-7.804747e-003
3.490581e+003,-7.891793e-003
3.492509e+003,-7.879949e-003
3.494438e+003,-7.676212e-003
3.496366e+003,-7.712898e-003
3.498295e+003,-7.724649e-003
3.500223e+003,-7.671427e-003
3.502152e+003,-7.779362e-003
3.504080e+003,-7.838689e-003
3.506009e+003,-7.724746e-003
3.507937e+003,-7.775000e-003
3.509866e+003,-7.914015e-003
3.511794e+003,-7.870123e-003
3.513723e+003,-7.782454e-003
3.515651e+003,-7.698738e-003
3.517580e+003,-7.736399e-003
3.519508e+003,-7.760387e-003
3.521437e+003,-7.741672e-003
3.523365e+003,-7.798824e-003
3.525294e+003,-7.664980e-003
3.527222e+003,-7.551579e-003
3.529151e+003,-7.623732e-003
3.531079e+003,-7.808912e-003
3.533008e+003,-7.948762e-003
3.534936e+003,-7.930511e-003
3.536865e+003,-7.796806e-003
3.538793e+003,-7.693465e-003
3.540722e+003,-7.799507e-003
3.542650e+003,-7.905458e-003
3.544579e+003,-7.945574e-003
3.546507e+003,-7.742746e-003
3.548436e+003,-7.558384e-003
3.550364e+003,-7.687768e-003
3.552293e+003,-7.773113e-003
3.554221e+003,-7.740045e-003
3.556150e+003,-7.674096e-003
3.558078e+003,-7.626890e-003
3.560007e+003,-7.646359e-003
3.561935e+003,-7.594332e-003
3.563864e+003,-7.508333e-003
3.565792e+003,-7.605304e-003
3.567721e+003,-7.702774e-003
3.569649e+003,-7.616765e-003
3.571578e+003,-7.379157e-003
3.573506e+003,-7.486090e-003
3.575435e+003,-7.878518e-003
3.577363e+003,-7.813891e-003
3.579292e+003,-7.568869e-003
3.581220e+003,-7.550928e-003
3.583149e+003,-7.500908e-003
3.585077e+003,-7.618165e-003
3.587006e+003,-7.776628e-003
3.588934e+003,-7.582154e-003
3.590863e+003,-7.567860e-003
3.592791e+003,-7.770867e-003
3.594720e+003,-7.685522e-003
3.596648e+003,-7.467103e-003
3.598577e+003,-7.455508e-003
3.600505e+003,-7.461273e-003
3.602434e+003,-7.420461e-003
3.604362e+003,-7.517680e-003
3.606291e+003,-7.792673e-003
3.608219e+003,-7.813436e-003
3.610148e+003,-7.715990e-003
3.612076e+003,-7.757490e-003
3.614005e+003,-7.730833e-003
3.615933e+003,-7.702416e-003
3.617862e+003,-7.714167e-003
3.619790e+003,-7.582219e-003
3.621719e+003,-7.317161e-003
3.623647e+003,-7.109313e-003
3.625576e+003,-7.403751e-003
3.627504e+003,-8.004390e-003
3.629433e+003,-7.747889e-003
3.631361e+003,-7.348078e-003
3.633290e+003,-7.448798e-003
3.635218e+003,-7.507975e-003
3.637146e+003,-7.450525e-003
3.639075e+003,-7.426552e-003
3.641004e+003,-7.302108e-003
3.642932e+003,-7.296048e-003
3.644861e+003,-7.570400e-003
3.646789e+003,-7.880795e-003
3.648718e+003,-8.089965e-003
3.650646e+003,-7.897975e-003
3.652574e+003,-7.706225e-003
3.654503e+003,-7.930738e-003
3.656432e+003,-7.843570e-003
3.658360e+003,-7.381861e-003
3.660289e+003,-7.298491e-003
3.662217e+003,-7.335047e-003
3.664146e+003,-7.435314e-003
3.666074e+003,-7.614811e-003
3.668002e+003,-7.807838e-003
3.669931e+003,-7.853820e-003
3.671860e+003,-7.792282e-003
3.673788e+003,-8.143267e-003
3.675717e+003,-8.153315e-003
3.677645e+003,-7.818610e-003
3.679573e+003,-7.812622e-003
3.681502e+003,-7.720678e-003
3.683430e+003,-7.549788e-003
3.685359e+003,-7.455312e-003
3.687288e+003,-7.788963e-003
3.689216e+003,-8.020524e-003
3.691145e+003,-7.962296e-003
3.693073e+003,-7.829089e-003
3.695001e+003,-7.843212e-003
3.696930e+003,-7.634867e-003
3.698858e+003,-7.357786e-003
3.700787e+003,-7.513967e-003
3.702716e+003,-7.534190e-003
3.704644e+003,-7.196401e-003
3.706573e+003,-7.276140e-003
3.708501e+003,-7.596253e-003
3.710429e+003,-7.885286e-003
3.712358e+003,-7.850306e-003
3.714286e+003,-7.492962e-003
3.716215e+003,-7.339380e-003
3.718144e+003,-7.322406e-003
3.720072e+003,-7.297514e-003
3.722000e+003,-7.337034e-003
3.723929e+003,-7.381958e-003
3.725857e+003,-7.314521e-003
3.727786e+003,-7.118342e-003
3.729714e+003,-7.371957e-003
3.731643e+003,-7.729368e-003
3.733572e+003,-7.827527e-003
3.735500e+003,-7.678165e-003
3.737428e+003,-7.514130e-003
3.739357e+003,-7.373717e-003
3.741285e+003,-7.115734e-003
3.743214e+003,-7.559427e-003
3.745142e+003,-7.465637e-003
3.747071e+003,-7.521522e-003
3.749000e+003,-8.003252e-003
3.750928e+003,-7.808945e-003
3.752856e+003,-7.157454e-003
3.754785e+003,-6.918192e-003
3.756713e+003,-6.936323e-003
3.758642e+003,-6.839757e-003
3.760570e+003,-6.581294e-003
3.762499e+003,-6.519543e-003
3.764427e+003,-6.750804e-003
3.766356e+003,-6.772171e-003
3.768284e+003,-6.923019e-003
3.770213e+003,-6.876025e-003
3.772141e+003,-6.675405e-003
3.774070e+003,-6.645582e-003
3.775998e+003,-6.666661e-003
3.777927e+003,-6.822471e-003
3.779855e+003,-6.945943e-003
3.781784e+003,-6.797811e-003
3.783712e+003,-6.791711e-003
3.785641e+003,-6.707478e-003
3.787569e+003,-6.419783e-003
3.789498e+003,-6.226073e-003
3.791426e+003,-6.402838e-003
3.793355e+003,-6.553553e-003
3.795283e+003,-6.799637e-003
3.797212e+003,-6.903289e-003
3.799140e+003,-6.984908e-003
3.801069e+003,-6.989049e-003
3.802997e+003,-6.781664e-003
3.804926e+003,-6.763037e-003
3.806854e+003,-6.594413e-003
3.808783e+003,-6.370580e-003
3.810711e+003,-6.454257e-003
3.812640e+003,-6.428891e-003
3.814568e+003,-6.476129e-003
3.816497e+003,-6.438555e-003
3.818425e+003,-6.445117e-003
3.820354e+003,-6.731295e-003
3.822282e+003,-6.798529e-003
3.824211e+003,-6.742550e-003
3.826139e+003,-6.609686e-003
3.828068e+003,-6.262359e-003
3.829996e+003,-6.123892e-003
3.831925e+003,-6.251255e-003
3.833853e+003,-6.175769e-003
3.835782e+003,-6.373975e-003
3.837710e+003,-6.795658e-003
3.839639e+003,-6.785057e-003
3.841567e+003,-6.712633e-003
3.843496e+003,-6.411751e-003
3.845424e+003,-6.138398e-003
3.847353e+003,-6.177240e-003
3.849281e+003,-6.353600e-003
3.851210e+003,-6.718603e-003
3.853138e+003,-7.086397e-003
3.855067e+003,-6.712339e-003
3.856995e+003,-6.384358e-003
3.858924e+003,-6.216698e-003
3.860852e+003,-6.355298e-003
3.862781e+003,-6.603159e-003
3.864709e+003,-6.634585e-003
3.866638e+003,-6.375282e-003
3.868566e+003,-6.527703e-003
3.870495e+003,-6.450830e-003
3.872423e+003,-6.465389e-003
3.874352e+003,-6.289629e-003
3.876280e+003,-6.074264e-003
3.878209e+003,-6.230580e-003
3.880137e+003,-6.319771e-003
3.882066e+003,-6.097462e-003
3.883994e+003,-6.073218e-003
3.885923e+003,-6.071160e-003
3.887851e+003,-6.037766e-003
3.889780e+003,-6.243939e-003
3.891708e+003,-6.216437e-003
3.893637e+003,-6.034269e-003
3.895565e+003,-6.066226e-003
3.897494e+003,-6.104355e-003
3.899422e+003,-6.261412e-003
3.901351e+003,-6.245931e-003
3.903279e+003,-6.485073e-003
3.905208e+003,-6.437282e-003
3.907136e+003,-5.978649e-003
3.909065e+003,-5.928547e-003
3.910993e+003,-6.289727e-003
3.912922e+003,-6.074950e-003
3.914850e+003,-5.882622e-003
3.916779e+003,-5.964760e-003
3.918707e+003,-6.109419e-003
3.920636e+003,-5.921715e-003
3.922564e+003,-5.741091e-003
3.924493e+003,-5.959956e-003
3.926421e+003,-5.980087e-003
3.928350e+003,-6.118436e-003
3.930278e+003,-6.158913e-003
3.932207e+003,-5.967015e-003
3.934135e+003,-5.768623e-003
3.936064e+003,-5.869252e-003
3.937992e+003,-5.979467e-003
3.939921e+003,-6.017310e-003
3.941849e+003,-6.175508e-003
3.943778e+003,-6.037766e-003
3.945706e+003,-5.957341e-003
3.947635e+003,-5.860786e-003
3.949563e+003,-5.579921e-003
3.951492e+003,-5.541877e-003
3.953420e+003,-5.628168e-003
3.955349e+003,-5.642460e-003
3.957277e+003,-5.802855e-003
3.959206e+003,-5.764078e-003
3.961134e+003,-5.845160e-003
3.963063e+003,-5.817829e-003
3.964991e+003,-5.714506e-003
3.966920e+003,-5.989206e-003
3.968848e+003,-6.126800e-003
3.970777e+003,-6.017342e-003
3.972705e+003,-5.826917e-003
3.974634e+003,-5.767087e-003
3.976562e+003,-5.855523e-003
3.978491e+003,-5.796317e-003
3.980419e+003,-5.683243e-003
3.982348e+003,-5.843100e-003
3.984276e+003,-5.988029e-003
3.986205e+003,-5.843296e-003
3.988133e+003,-5.744754e-003
3.990062e+003,-5.804130e-003
3.991990e+003,-6.085699e-003
3.993919e+003,-6.158619e-003
3.995847e+003,-5.927010e-003
3.997776e+003,-5.849638e-003
3.999704e+003,-5.657244e-003
4.001633e+003,0.000000e+000
