3.991989e+002,-2.239619e-002
4.011274e+002,-2.248140e-002
4.030559e+002,-2.468388e-002
4.049844e+002,-2.792616e-002
4.069129e+002,-1.833839e-002
4.088414e+002,-1.003057e-002
4.107699e+002,-1.953016e-002
4.126984e+002,-2.712751e-002
4.146269e+002,-2.102214e-002
4.165554e+002,-1.296437e-002
4.184839e+002,-1.114645e-002
4.204124e+002,-3.955466e-003
4.223409e+002,-5.164489e-003
4.242694e+002,-7.674584e-003
4.261979e+002,-1.228988e-002
4.281264e+002,-4.763963e-003
4.300549e+002,1.688841e-003
4.319834e+002,9.069304e-004
4.339119e+002,1.692600e-003
4.358404e+002,2.867955e-003
4.377689e+002,2.279231e-003
4.396974e+002,-1.349009e-003
4.416259e+002,-8.462481e-003
4.435544e+002,-7.487784e-003
4.454829e+002,-3.881847e-003
4.474114e+002,-1.867588e-003
4.493399e+002,-2.384625e-003
4.512684e+002,-2.906808e-003
4.531969e+002,-3.512807e-003
4.551254e+002,-2.789095e-003
4.570539e+002,-1.087620e-003
4.589824e+002,-1.016290e-003
4.609109e+002,-1.669064e-003
4.628394e+002,-1.082762e-003
4.647679e+002,-1.728472e-003
4.666964e+002,-9.636608e-004
4.686249e+002,1.846621e-004
4.705533e+002,1.122241e-003
4.724819e+002,2.062421e-004
4.744103e+002,5.116921e-004
4.763389e+002,3.723874e-004
4.782673e+002,-1.111945e-003
4.801959e+002,-1.132705e-004
4.821243e+002,1.369400e-003
4.840529e+002,8.185853e-004
4.859813e+002,4.791837e-004
4.879099e+002,7.540560e-004
4.898383e+002,1.981689e-003
4.917668e+002,1.433622e-003
4.936953e+002,1.220830e-004
4.956238e+002,1.742885e-005
4.975523e+002,8.941804e-004
4.994808e+002,7.891078e-004
5.014093e+002,1.186625e-003
5.033378e+002,2.930531e-003
5.052663e+002,5.364830e-003
5.071948e+002,4.056634e-003
5.091233e+002,5.197532e-004
5.110518e+002,2.113140e-004
5.129803e+002,1.151608e-003
5.149088e+002,1.265176e-003
5.168373e+002,7.028776e-004
5.187658e+002,1.080967e-004
5.206943e+002,-9.039823e-004
5.226228e+002,-1.878659e-005
5.245513e+002,9.876551e-004
5.264798e+002,1.481676e-004
5.284083e+002,4.711916e-005
5.303368e+002,1.269562e-003
5.322653e+002,8.054065e-004
5.341938e+002,9.084909e-004
5.361223e+002,6.066107e-004
5.380508e+002,8.190169e-004
5.399792e+002,2.122676e-003
5.419078e+002,2.646344e-003
5.438363e+002,2.837338e-003
5.457648e+002,2.777510e-003
5.476932e+002,2.562877e-003
5.496218e+002,2.507720e-003
5.515503e+002,2.673314e-003
5.534788e+002,2.894239e-003
5.554072e+002,3.157127e-003
5.573358e+002,3.341534e-003
5.592643e+002,3.852099e-003
5.611927e+002,4.449824e-003
5.631212e+002,5.015959e-003
5.650497e+002,5.137281e-003
5.669783e+002,4.454477e-003
5.689067e+002,4.376085e-003
5.708352e+002,4.195420e-003
5.727637e+002,3.804332e-003
5.746923e+002,3.432197e-003
5.766207e+002,1.564222e-003
5.785492e+002,1.746557e-003
5.804777e+002,5.403846e-003
5.824063e+002,5.427498e-003
5.843347e+002,3.214037e-003
5.862632e+002,3.396665e-003
5.881917e+002,4.083157e-003
5.901202e+002,4.745009e-003
5.920487e+002,5.426492e-003
5.939772e+002,6.569454e-003
5.959057e+002,8.549956e-003
5.978342e+002,8.718716e-003
5.997627e+002,9.078865e-003
6.016912e+002,9.987140e-003
6.036197e+002,1.051709e-002
6.055482e+002,1.189399e-002
6.074767e+002,1.308486e-002
6.094052e+002,1.296106e-002
6.113337e+002,1.228593e-002
6.132622e+002,1.178336e-002
6.151907e+002,1.216150e-002
6.171192e+002,1.151289e-002
6.190477e+002,1.004780e-002
6.209762e+002,1.076375e-002
6.229047e+002,1.031224e-002
6.248332e+002,8.076809e-003
6.267617e+002,6.247110e-003
6.286902e+002,4.971414e-003
6.306187e+002,4.190736e-003
6.325472e+002,3.200685e-003
6.344756e+002,2.916321e-003
6.364042e+002,3.259836e-003
6.383326e+002,3.072661e-003
6.402612e+002,2.678215e-003
6.421896e+002,2.647378e-003
6.441182e+002,2.314672e-003
6.460466e+002,1.722904e-003
6.479752e+002,1.644537e-003
6.499036e+002,1.579885e-003
6.518322e+002,1.169017e-003
6.537606e+002,1.128785e-003
6.556891e+002,1.124466e-003
6.576177e+002,8.336568e-004
6.595461e+002,7.367303e-004
6.614746e+002,1.050492e-003
6.634031e+002,6.505437e-004
6.653317e+002,1.158751e-003
6.672601e+002,2.036780e-003
6.691886e+002,1.613640e-003
6.711171e+002,6.553886e-004
6.730457e+002,5.200850e-004
6.749741e+002,7.050016e-004
6.769026e+002,1.138286e-003
6.788311e+002,1.263547e-003
6.807596e+002,1.497820e-003
6.826881e+002,1.298740e-003
6.846166e+002,1.247763e-003
6.865451e+002,1.831031e-003
6.884736e+002,2.437441e-003
6.904021e+002,2.272702e-003
6.923306e+002,2.292421e-003
6.942591e+002,2.544746e-003
6.961876e+002,2.328330e-003
6.981161e+002,1.698987e-003
7.000446e+002,2.030888e-003
7.019731e+002,2.515285e-003
7.039016e+002,2.816327e-003
7.058301e+002,2.743231e-003
7.077585e+002,2.943908e-003
7.096871e+002,3.300733e-003
7.116156e+002,3.952031e-003
7.135441e+002,3.973933e-003
7.154725e+002,3.662263e-003
7.174011e+002,3.547365e-003
7.193296e+002,4.053825e-003
7.212581e+002,4.180365e-003
7.231865e+002,4.186688e-003
7.251151e+002,4.875604e-003
7.270436e+002,4.882105e-003
7.289720e+002,5.271113e-003
7.309005e+002,5.708274e-003
7.328290e+002,5.432027e-003
7.347576e+002,6.066438e-003
7.366860e+002,6.875779e-003
7.386145e+002,7.064466e-003
7.405430e+002,6.597207e-003
7.424716e+002,6.138483e-003
7.444000e+002,6.138752e-003
7.463285e+002,6.141373e-003
7.482570e+002,6.009927e-003
7.501855e+002,6.095772e-003
7.521140e+002,6.593541e-003
7.540425e+002,7.221701e-003
7.559710e+002,7.270655e-003
7.578995e+002,6.925199e-003
7.598280e+002,6.849825e-003
7.617565e+002,6.922573e-003
7.636850e+002,7.324432e-003
7.656135e+002,7.945755e-003
7.675420e+002,8.017370e-003
7.694705e+002,8.020373e-003
7.713990e+002,7.634359e-003
7.733275e+002,7.392844e-003
7.752560e+002,7.542342e-003
7.771844e+002,7.271699e-003
7.791130e+002,6.910453e-003
7.810415e+002,6.805732e-003
7.829700e+002,6.767533e-003
7.848984e+002,6.737211e-003
7.868270e+002,6.475174e-003
7.887555e+002,5.999982e-003
7.906840e+002,5.909353e-003
7.926124e+002,5.798795e-003
7.945410e+002,5.503296e-003
7.964695e+002,5.178188e-003
7.983979e+002,4.936962e-003
8.003264e+002,4.640575e-003
8.022549e+002,4.679994e-003
8.041835e+002,5.004026e-003
8.061119e+002,5.500108e-003
8.080404e+002,6.083071e-003
8.099689e+002,6.195247e-003
8.118975e+002,6.162982e-003
8.138259e+002,6.331288e-003
8.157545e+002,6.772413e-003
8.176830e+002,6.431388e-003
8.196115e+002,5.967733e-003
8.215399e+002,5.836977e-003
8.234684e+002,6.239110e-003
8.253970e+002,5.950433e-003
8.273254e+002,5.248676e-003
8.292539e+002,5.261991e-003
8.311824e+002,5.375532e-003
8.331110e+002,5.221512e-003
8.350394e+002,5.318204e-003
8.369679e+002,5.578033e-003
8.388964e+002,5.271214e-003
8.408250e+002,4.958008e-003
8.427534e+002,5.107844e-003
8.446819e+002,5.690179e-003
8.466104e+002,5.370667e-003
8.485389e+002,5.123031e-003
8.504674e+002,5.344301e-003
8.523959e+002,5.241600e-003
8.543244e+002,5.173359e-003
8.562529e+002,5.137382e-003
8.581814e+002,4.925266e-003
8.601099e+002,5.154649e-003
8.620384e+002,5.545646e-003
8.639669e+002,5.139360e-003
8.658954e+002,4.578288e-003
8.678239e+002,4.536869e-003
8.697524e+002,4.484138e-003
8.716809e+002,4.237040e-003
8.736094e+002,4.446845e-003
8.755378e+002,4.787420e-003
8.774664e+002,4.827757e-003
8.793949e+002,4.987100e-003
8.813234e+002,5.022327e-003
8.832518e+002,4.897318e-003
8.851804e+002,4.724810e-003
8.871089e+002,4.570352e-003
8.890374e+002,4.999066e-003
8.909658e+002,5.150693e-003
8.928943e+002,5.307101e-003
8.948229e+002,5.472022e-003
8.967513e+002,5.598406e-003
8.986798e+002,5.581490e-003
9.006083e+002,5.170844e-003
9.025369e+002,5.037445e-003
9.044653e+002,5.154716e-003
9.063938e+002,5.075358e-003
9.083223e+002,5.238313e-003
9.102509e+002,5.082499e-003
9.121793e+002,4.723102e-003
9.141078e+002,4.471249e-003
9.160364e+002,4.374645e-003
9.179648e+002,4.288069e-003
9.198933e+002,4.067805e-003
9.218218e+002,3.732640e-003
9.237504e+002,3.394995e-003
9.256788e+002,3.069425e-003
9.276073e+002,3.020675e-003
9.295358e+002,3.022143e-003
9.314644e+002,2.857883e-003
9.333928e+002,3.159831e-003
9.353213e+002,3.193041e-003
9.372498e+002,3.003993e-003
9.391783e+002,2.897441e-003
9.411068e+002,2.934701e-003
9.430353e+002,3.140606e-003
9.449637e+002,2.882031e-003
9.468923e+002,2.656645e-003
9.488208e+002,2.984742e-003
9.507493e+002,3.210298e-003
9.526777e+002,3.407751e-003
9.546063e+002,3.402241e-003
9.565348e+002,3.592866e-003
9.584633e+002,3.770373e-003
9.603917e+002,3.796945e-003
9.623203e+002,3.631422e-003
9.642488e+002,3.537243e-003
9.661772e+002,3.826861e-003
9.681057e+002,3.899405e-003
9.700343e+002,3.557588e-003
9.719628e+002,3.467733e-003
9.738912e+002,3.447594e-003
9.758197e+002,3.252259e-003
9.777483e+002,3.192607e-003
9.796768e+002,3.177220e-003
9.816052e+002,3.019974e-003
9.835337e+002,2.738596e-003
9.854623e+002,2.549446e-003
9.873907e+002,2.524516e-003
9.893192e+002,2.316637e-003
9.912477e+002,2.026493e-003
9.931763e+002,1.950901e-003
9.951047e+002,1.887567e-003
9.970332e+002,1.802716e-003
9.989617e+002,1.622553e-003
1.000890e+003,1.608485e-003
1.002819e+003,1.797625e-003
1.004747e+003,1.830465e-003
1.006676e+003,1.968208e-003
1.008604e+003,1.976230e-003
1.010533e+003,1.870429e-003
1.012461e+003,1.923077e-003
1.014390e+003,2.251219e-003
1.016318e+003,2.538081e-003
1.018247e+003,2.789548e-003
1.020175e+003,2.993450e-003
1.022104e+003,3.288781e-003
1.024032e+003,3.669681e-003
1.025961e+003,3.947651e-003
1.027889e+003,3.986807e-003
1.029818e+003,4.072454e-003
1.031746e+003,4.605948e-003
1.033675e+003,5.077772e-003
1.035603e+003,5.500645e-003
1.037532e+003,5.858067e-003
1.039460e+003,5.991617e-003
1.041389e+003,6.172695e-003
1.043317e+003,6.255110e-003
1.045246e+003,6.398703e-003
1.047174e+003,6.730077e-003
1.049103e+003,6.874062e-003
1.051031e+003,6.810444e-003
1.052960e+003,7.074165e-003
1.054888e+003,7.219107e-003
1.056817e+003,6.953480e-003
1.058745e+003,6.868373e-003
1.060674e+003,6.800212e-003
1.062602e+003,6.865411e-003
1.064531e+003,7.171944e-003
1.066459e+003,7.050995e-003
1.068388e+003,6.768307e-003
1.070316e+003,6.910352e-003
1.072245e+003,7.104881e-003
1.074173e+003,7.084909e-003
1.076102e+003,6.960550e-003
1.078030e+003,6.723381e-003
1.079959e+003,6.827139e-003
1.081887e+003,6.950483e-003
1.083816e+003,6.882040e-003
1.085744e+003,7.210684e-003
1.087673e+003,7.525013e-003
1.089601e+003,7.561863e-003
1.091530e+003,7.647713e-003
1.093458e+003,8.026415e-003
1.095387e+003,8.328737e-003
1.097315e+003,8.558809e-003
1.099244e+003,8.584155e-003
1.101172e+003,8.682680e-003
1.103101e+003,8.778962e-003
1.105029e+003,8.585947e-003
1.106958e+003,8.434129e-003
1.108886e+003,8.575233e-003
1.110815e+003,8.885073e-003
1.112743e+003,9.061305e-003
1.114672e+003,8.997467e-003
1.116600e+003,8.981163e-003
1.118529e+003,8.908273e-003
1.120457e+003,8.942670e-003
1.122386e+003,9.040871e-003
1.124314e+003,8.932828e-003
1.126243e+003,8.787888e-003
1.128171e+003,8.743530e-003
1.130100e+003,8.672235e-003
1.132028e+003,8.441899e-003
1.133957e+003,8.190515e-003
1.135885e+003,7.940726e-003
1.137814e+003,7.683831e-003
1.139742e+003,7.329285e-003
1.141671e+003,6.964052e-003
1.143599e+003,6.779682e-003
1.145528e+003,6.569589e-003
1.147456e+003,6.374761e-003
1.149385e+003,6.000486e-003
1.151313e+003,5.662249e-003
1.153242e+003,5.336921e-003
1.155170e+003,5.126216e-003
1.157099e+003,4.950903e-003
1.159027e+003,4.651961e-003
1.160956e+003,4.517751e-003
1.162884e+003,4.589338e-003
1.164813e+003,4.583277e-003
1.166741e+003,4.631131e-003
1.168670e+003,4.556590e-003
1.170598e+003,4.503656e-003
1.172526e+003,4.464554e-003
1.174455e+003,4.499706e-003
1.176384e+003,4.436937e-003
1.178312e+003,4.351954e-003
1.180240e+003,4.340474e-003
1.182169e+003,4.248450e-003
1.184098e+003,4.214323e-003
1.186026e+003,4.256481e-003
1.187954e+003,4.102222e-003
1.189883e+003,3.608836e-003
1.191812e+003,3.238104e-003
1.193740e+003,3.178688e-003
1.195668e+003,3.107000e-003
1.197597e+003,2.961556e-003
1.199526e+003,2.880296e-003
1.201454e+003,2.816094e-003
1.203382e+003,2.744031e-003
1.205311e+003,2.637110e-003
1.207240e+003,2.574143e-003
1.209168e+003,2.657879e-003
1.211096e+003,2.727893e-003
1.213025e+003,2.681416e-003
1.214953e+003,2.674181e-003
1.216882e+003,2.653912e-003
1.218810e+003,2.648311e-003
1.220739e+003,2.682716e-003
1.222667e+003,2.807756e-003
1.224596e+003,2.994617e-003
1.226524e+003,3.128792e-003
1.228453e+003,3.242177e-003
1.230381e+003,3.405447e-003
1.232310e+003,3.616621e-003
1.234238e+003,3.816833e-003
1.236167e+003,3.983864e-003
1.238095e+003,4.018408e-003
1.240024e+003,4.152967e-003
1.241952e+003,4.335086e-003
1.243881e+003,4.309017e-003
1.245809e+003,4.265247e-003
1.247738e+003,4.215460e-003
1.249666e+003,4.256012e-003
1.251595e+003,4.403698e-003
1.253523e+003,4.604608e-003
1.255452e+003,4.656048e-003
1.257380e+003,4.744942e-003
1.259309e+003,4.764170e-003
1.261237e+003,4.761156e-003
1.263166e+003,4.960991e-003
1.265094e+003,5.221881e-003
1.267023e+003,5.559507e-003
1.268951e+003,5.826532e-003
1.270880e+003,6.081189e-003
1.272808e+003,6.378595e-003
1.274737e+003,6.595896e-003
1.276665e+003,6.895236e-003
1.278594e+003,7.223015e-003
1.280522e+003,7.457221e-003
1.282451e+003,7.722853e-003
1.284379e+003,7.904249e-003
1.286308e+003,8.425244e-003
1.288236e+003,8.800737e-003
1.290165e+003,8.981840e-003
1.292093e+003,9.103158e-003
1.294022e+003,9.176927e-003
1.295950e+003,9.494849e-003
1.297879e+003,9.680782e-003
1.299807e+003,9.713681e-003
1.301736e+003,9.573597e-003
1.303664e+003,9.561233e-003
1.305593e+003,9.601339e-003
1.307521e+003,9.481709e-003
1.309450e+003,9.141360e-003
1.311378e+003,8.927687e-003
1.313307e+003,8.770814e-003
1.315235e+003,8.544582e-003
1.317164e+003,8.293881e-003
1.319092e+003,7.915520e-003
1.321021e+003,7.423245e-003
1.322949e+003,7.185924e-003
1.324878e+003,7.012875e-003
1.326806e+003,6.916244e-003
1.328735e+003,7.076388e-003
1.330663e+003,7.138933e-003
1.332592e+003,7.045607e-003
1.334520e+003,6.953883e-003
1.336449e+003,6.987857e-003
1.338377e+003,7.003144e-003
1.340306e+003,7.113705e-003
1.342234e+003,7.325578e-003
1.344163e+003,7.390013e-003
1.346091e+003,7.375285e-003
1.348020e+003,7.568404e-003
1.349948e+003,7.672297e-003
1.351877e+003,7.574304e-003
1.353805e+003,7.564291e-003
1.355734e+003,7.469828e-003
1.357662e+003,7.217051e-003
1.359591e+003,7.004356e-003
1.361519e+003,6.899141e-003
1.363448e+003,6.730346e-003
1.365376e+003,6.430917e-003
1.367305e+003,6.222405e-003
1.369233e+003,6.228589e-003
1.371162e+003,6.130686e-003
1.373090e+003,6.154143e-003
1.375019e+003,6.273464e-003
1.376947e+003,6.352268e-003
1.378876e+003,6.471038e-003
1.380804e+003,6.592195e-003
1.382733e+003,6.580555e-003
1.384661e+003,6.493168e-003
1.386590e+003,6.593709e-003
1.388518e+003,6.468482e-003
1.390447e+003,6.191886e-003
1.392375e+003,6.076082e-003
1.394304e+003,6.021081e-003
1.396232e+003,5.865657e-003
1.398161e+003,5.804537e-003
1.400089e+003,5.678026e-003
1.402018e+003,5.411596e-003
1.403946e+003,5.283891e-003
1.405875e+003,5.132922e-003
1.407803e+003,4.939241e-003
1.409732e+003,4.706120e-003
1.411660e+003,4.497128e-003
1.413589e+003,4.448753e-003
1.415517e+003,4.600657e-003
1.417446e+003,5.002954e-003
1.419374e+003,5.506115e-003
1.421303e+003,5.709147e-003
1.423231e+003,6.024239e-003
1.425160e+003,6.516275e-003
1.427088e+003,6.978631e-003
1.429017e+003,7.451087e-003
1.430945e+003,7.804214e-003
1.432874e+003,8.051865e-003
1.434802e+003,8.500283e-003
1.436731e+003,9.032074e-003
1.438659e+003,9.264721e-003
1.440588e+003,9.506466e-003
1.442516e+003,9.877912e-003
1.444445e+003,1.034566e-002
1.446373e+003,1.095732e-002
1.448302e+003,1.139355e-002
1.450230e+003,1.165044e-002
1.452159e+003,1.221371e-002
1.454087e+003,1.282613e-002
1.456016e+003,1.335809e-002
1.457944e+003,1.361262e-002
1.459873e+003,1.356342e-002
1.461801e+003,1.343962e-002
1.463730e+003,1.344031e-002
1.465658e+003,1.333024e-002
1.467587e+003,1.288203e-002
1.469515e+003,1.262530e-002
1.471444e+003,1.265154e-002
1.473372e+003,1.231919e-002
1.475301e+003,1.173819e-002
1.477229e+003,1.111513e-002
1.479158e+003,1.059117e-002
1.481086e+003,9.958457e-003
1.483015e+003,9.274570e-003
1.484943e+003,8.856497e-003
1.486872e+003,8.620926e-003
1.488800e+003,8.324379e-003
1.490729e+003,7.779960e-003
1.492657e+003,7.243701e-003
1.494586e+003,7.144188e-003
1.496514e+003,7.053151e-003
1.498443e+003,6.669004e-003
1.500371e+003,6.297299e-003
1.502300e+003,6.151556e-003
1.504228e+003,6.311082e-003
1.506157e+003,6.566595e-003
1.508085e+003,6.205834e-003
1.510014e+003,5.776768e-003
1.511942e+003,5.634287e-003
1.513871e+003,5.518732e-003
1.515799e+003,5.554842e-003
1.517728e+003,5.679034e-003
1.519656e+003,5.899444e-003
1.521585e+003,6.120672e-003
1.523513e+003,6.055653e-003
1.525442e+003,6.147926e-003
1.527370e+003,6.228892e-003
1.529299e+003,6.223951e-003
1.531227e+003,6.360203e-003
1.533156e+003,6.797486e-003
1.535084e+003,6.941696e-003
1.537013e+003,7.137957e-003
1.538941e+003,7.806272e-003
1.540870e+003,8.239713e-003
1.542798e+003,8.209660e-003
1.544727e+003,8.214117e-003
1.546655e+003,8.283142e-003
1.548584e+003,8.523597e-003
1.550512e+003,8.689069e-003
1.552441e+003,8.807026e-003
1.554369e+003,9.151986e-003
1.556298e+003,9.533764e-003
1.558226e+003,1.041730e-002
1.560155e+003,1.058645e-002
1.562083e+003,1.022250e-002
1.564012e+003,1.048681e-002
1.565940e+003,1.081116e-002
1.567869e+003,1.098468e-002
1.569797e+003,1.117105e-002
1.571726e+003,1.106132e-002
1.573654e+003,1.105173e-002
1.575583e+003,1.126210e-002
1.577511e+003,1.104082e-002
1.579440e+003,1.067898e-002
1.581368e+003,1.066305e-002
1.583297e+003,1.049136e-002
1.585225e+003,1.013584e-002
1.587154e+003,1.001416e-002
1.589082e+003,9.932184e-003
1.591010e+003,9.608080e-003
1.592939e+003,9.248812e-003
1.594868e+003,9.096188e-003
1.596796e+003,8.977848e-003
1.598724e+003,8.813112e-003
1.600653e+003,8.498290e-003
1.602582e+003,8.163740e-003
1.604510e+003,7.904283e-003
1.606438e+003,7.749399e-003
1.608367e+003,7.497437e-003
1.610296e+003,7.261760e-003
1.612224e+003,6.966173e-003
1.614152e+003,6.854471e-003
1.616081e+003,6.905235e-003
1.618010e+003,6.576586e-003
1.619938e+003,6.164528e-003
1.621866e+003,6.152295e-003
1.623795e+003,6.083138e-003
1.625724e+003,5.927289e-003
1.627652e+003,5.916742e-003
1.629580e+003,5.723886e-003
1.631509e+003,5.504773e-003
1.633438e+003,5.727679e-003
1.635366e+003,6.026322e-003
1.637294e+003,5.489974e-003
1.639223e+003,4.873460e-003
1.641151e+003,4.524581e-003
1.643080e+003,4.215962e-003
1.645008e+003,4.185918e-003
1.646937e+003,4.222118e-003
1.648865e+003,3.791931e-003
1.650794e+003,3.672822e-003
1.652722e+003,4.260864e-003
1.654651e+003,3.715329e-003
1.656579e+003,2.991481e-003
1.658508e+003,2.657812e-003
1.660436e+003,2.615542e-003
1.662365e+003,2.664580e-003
1.664293e+003,2.489224e-003
1.666222e+003,2.453368e-003
1.668150e+003,2.555312e-003
1.670079e+003,2.394060e-003
1.672007e+003,2.123209e-003
1.673936e+003,1.947206e-003
1.675864e+003,1.753277e-003
1.677793e+003,1.313762e-003
1.679721e+003,1.070056e-003
1.681650e+003,1.073809e-003
1.683578e+003,1.298075e-003
1.685507e+003,8.242620e-004
1.687435e+003,1.662653e-004
1.689364e+003,-6.192311e-005
1.691292e+003,-1.753762e-004
1.693221e+003,-1.154899e-004
1.695149e+003,1.751156e-004
1.697078e+003,2.093913e-004
1.699006e+003,3.731170e-004
1.700935e+003,2.433714e-004
1.702863e+003,-2.785017e-004
1.704792e+003,-1.759724e-004
1.706720e+003,-1.811060e-004
1.708649e+003,-3.111497e-004
1.710577e+003,-3.494235e-004
1.712506e+003,-2.826408e-004
1.714434e+003,-9.551493e-005
1.716363e+003,1.048156e-004
1.718291e+003,-4.903561e-005
1.720220e+003,-4.047093e-004
1.722148e+003,-5.728409e-004
1.724077e+003,-6.318701e-004
1.726005e+003,-6.874508e-004
1.727934e+003,-6.942325e-004
1.729862e+003,-5.652963e-004
1.731791e+003,-4.098403e-004
1.733719e+003,-2.829057e-004
1.735648e+003,-7.371366e-004
1.737576e+003,-1.061476e-003
1.739505e+003,-8.255447e-004
1.741433e+003,-7.878750e-004
1.743362e+003,-8.377478e-004
1.745290e+003,-6.603230e-004
1.747219e+003,-4.399297e-004
1.749147e+003,-4.261266e-004
1.751076e+003,-4.278478e-004
1.753004e+003,-5.550049e-004
1.754933e+003,-5.815767e-004
1.756861e+003,-4.640924e-004
1.758790e+003,-5.528208e-004
1.760718e+003,-5.377968e-004
1.762647e+003,-5.206543e-004
1.764575e+003,-6.109924e-004
1.766504e+003,-5.443492e-004
1.768432e+003,-4.397973e-004
1.770361e+003,-3.361141e-004
1.772289e+003,-2.552559e-004
1.774218e+003,-5.674802e-004
1.776146e+003,-6.826540e-004
1.778075e+003,-6.781879e-004
1.780003e+003,-6.934386e-004
1.781932e+003,-7.339280e-004
1.783860e+003,-7.846669e-004
1.785789e+003,-8.143996e-004
1.787717e+003,-8.492560e-004
1.789646e+003,-7.044214e-004
1.791574e+003,-4.786886e-004
1.793503e+003,-6.021580e-004
1.795431e+003,-7.963089e-004
1.797360e+003,-6.924792e-004
1.799288e+003,-5.395507e-004
1.801217e+003,-5.669839e-004
1.803145e+003,-5.754220e-004
1.805074e+003,-5.068206e-004
1.807002e+003,-5.587773e-004
1.808931e+003,-6.758059e-004
1.810859e+003,-6.041102e-004
1.812788e+003,-4.643903e-004
1.814716e+003,-4.922915e-004
1.816645e+003,-5.348846e-004
1.818573e+003,-6.193635e-004
1.820502e+003,-6.314731e-004
1.822430e+003,-6.208855e-004
1.824359e+003,-5.726424e-004
1.826287e+003,-5.716497e-004
1.828216e+003,-5.815105e-004
1.830144e+003,-5.370026e-004
1.832073e+003,-5.457060e-004
1.834001e+003,-6.127130e-004
1.835930e+003,-6.823893e-004
1.837858e+003,-7.435867e-004
1.839787e+003,-7.612166e-004
1.841715e+003,-6.148306e-004
1.843644e+003,-4.974545e-004
1.845572e+003,-6.747473e-004
1.847501e+003,-7.856921e-004
1.849429e+003,-7.218875e-004
1.851358e+003,-6.678660e-004
1.853286e+003,-7.381951e-004
1.855215e+003,-7.796065e-004
1.857143e+003,-7.654834e-004
1.859072e+003,-7.826163e-004
1.861000e+003,-8.259746e-004
1.862929e+003,-7.741822e-004
1.864857e+003,-5.795251e-004
1.866786e+003,-5.138037e-004
1.868714e+003,-5.595384e-004
1.870643e+003,-6.201906e-004
1.872571e+003,-5.955403e-004
1.874500e+003,-5.686053e-004
1.876428e+003,-6.316716e-004
1.878357e+003,-6.529784e-004
1.880285e+003,-5.398486e-004
1.882214e+003,-4.754120e-004
1.884142e+003,-5.193305e-004
1.886071e+003,-6.194296e-004
1.887999e+003,-5.315422e-004
1.889928e+003,-4.379768e-004
1.891856e+003,-4.837525e-004
1.893785e+003,-4.494956e-004
1.895713e+003,-4.439679e-004
1.897642e+003,-4.875256e-004
1.899570e+003,-5.307149e-004
1.901499e+003,-5.330314e-004
1.903427e+003,-5.662890e-004
1.905356e+003,-6.105954e-004
1.907284e+003,-5.259825e-004
1.909213e+003,-4.633311e-004
1.911141e+003,-4.985467e-004
1.913070e+003,-4.891143e-004
1.914998e+003,-4.759746e-004
1.916927e+003,-4.711754e-004
1.918855e+003,-5.043715e-004
1.920784e+003,-5.759514e-004
1.922712e+003,-6.032499e-004
1.924641e+003,-6.214810e-004
1.926569e+003,-6.612825e-004
1.928498e+003,-6.843081e-004
1.930426e+003,-6.483797e-004
1.932355e+003,-5.893196e-004
1.934283e+003,-5.800215e-004
1.936212e+003,-6.216465e-004
1.938140e+003,-5.986507e-004
1.940069e+003,-5.394846e-004
1.941997e+003,-4.759746e-004
1.943926e+003,-4.122568e-004
1.945854e+003,-4.820977e-004
1.947783e+003,-6.703473e-004
1.949711e+003,-7.097473e-004
1.951640e+003,-6.501331e-004
1.953568e+003,-6.233008e-004
1.955497e+003,-6.181393e-004
1.957425e+003,-6.768976e-004
1.959354e+003,-7.223506e-004
1.961282e+003,-6.335906e-004
1.963211e+003,-6.669397e-004
1.965139e+003,-6.617125e-004
1.967068e+003,-6.166173e-004
1.968996e+003,-6.386196e-004
1.970925e+003,-6.228376e-004
1.972853e+003,-6.970775e-004
1.974782e+003,-6.872854e-004
1.976710e+003,-6.097682e-004
1.978639e+003,-6.167496e-004
1.980567e+003,-6.920492e-004
1.982496e+003,-7.367727e-004
1.984424e+003,-7.557260e-004
1.986353e+003,-7.556929e-004
1.988281e+003,-6.594298e-004
1.990210e+003,-5.476254e-004
1.992138e+003,-5.259493e-004
1.994067e+003,-5.760507e-004
1.995995e+003,-5.498425e-004
1.997924e+003,-4.992086e-004
1.999852e+003,-4.849440e-004
2.001781e+003,-5.834297e-004
2.003709e+003,-6.501331e-004
2.005638e+003,-5.798229e-004
2.007566e+003,-5.847864e-004
2.009495e+003,-6.391159e-004
2.011423e+003,-6.897665e-004
2.013352e+003,-5.892203e-004
2.015280e+003,-4.766035e-004
2.017208e+003,-5.580493e-004
2.019137e+003,-6.024227e-004
2.021066e+003,-5.652301e-004
2.022994e+003,-5.421651e-004
2.024922e+003,-4.957997e-004
2.026851e+003,-4.891804e-004
2.028780e+003,-5.338587e-004
2.030708e+003,-5.064897e-004
2.032636e+003,-4.743859e-004
2.034565e+003,-5.385579e-004
2.036494e+003,-5.386241e-004
2.038422e+003,-4.089465e-004
2.040350e+003,-3.540916e-004
2.042279e+003,-3.706448e-004
2.044208e+003,-4.191090e-004
2.046136e+003,-4.802442e-004
2.048064e+003,-4.456229e-004
2.049993e+003,-3.705455e-004
2.051921e+003,-4.104030e-004
2.053850e+003,-4.393339e-004
2.055778e+003,-4.029218e-004
2.057707e+003,-3.968969e-004
2.059635e+003,-3.194603e-004
2.061564e+003,-3.254862e-004
2.063492e+003,-3.692213e-004
2.065421e+003,-3.441594e-004
2.067349e+003,-3.144607e-004
2.069278e+003,-2.827401e-004
2.071206e+003,-3.342601e-004
2.073135e+003,-3.563429e-004
2.075063e+003,-3.040971e-004
2.076992e+003,-3.153216e-004
2.078920e+003,-2.594614e-004
2.080849e+003,-1.678577e-004
2.082777e+003,-1.912076e-004
2.084706e+003,-2.044552e-004
2.086634e+003,-2.004809e-004
2.088563e+003,-1.600079e-004
2.090491e+003,-9.534930e-005
2.092420e+003,-3.975903e-005
2.094348e+003,-6.324828e-005
2.096277e+003,-2.723533e-005
2.098205e+003,2.587846e-005
2.100134e+003,-4.704779e-005
2.102062e+003,-2.650642e-005
2.103991e+003,3.711171e-005
2.105919e+003,4.715230e-005
2.107848e+003,6.693127e-006
2.109776e+003,-3.976067e-006
2.111705e+003,1.159515e-004
2.113633e+003,2.172480e-004
2.115562e+003,2.266960e-004
2.117490e+003,1.359702e-004
2.119419e+003,6.236274e-005
2.121347e+003,8.327382e-005
2.123276e+003,1.312306e-004
2.125204e+003,1.060087e-004
2.127133e+003,1.013689e-004
2.129061e+003,2.260330e-004
2.130990e+003,2.666783e-004
2.132918e+003,3.044097e-004
2.134847e+003,2.799403e-004
2.136775e+003,2.021315e-004
2.138704e+003,1.925515e-004
2.140632e+003,2.304090e-004
2.142561e+003,2.290829e-004
2.144489e+003,2.484107e-004
2.146418e+003,3.190654e-004
2.148346e+003,3.602501e-004
2.150275e+003,4.224988e-004
2.152203e+003,4.311884e-004
2.154132e+003,4.045230e-004
2.156060e+003,4.294637e-004
2.157989e+003,3.820710e-004
2.159917e+003,3.924180e-004
2.161846e+003,5.331225e-004
2.163774e+003,5.719718e-004
2.165703e+003,4.795817e-004
2.167631e+003,4.606417e-004
2.169560e+003,5.686209e-004
2.171488e+003,6.509419e-004
2.173417e+003,5.934383e-004
2.175345e+003,5.548192e-004
2.177274e+003,5.448664e-004
2.179202e+003,5.944005e-004
2.181131e+003,5.943342e-004
2.183059e+003,5.651372e-004
2.184988e+003,5.704124e-004
2.186916e+003,5.184927e-004
2.188845e+003,4.933809e-004
2.190773e+003,5.681232e-004
2.192702e+003,6.850230e-004
2.194630e+003,5.909830e-004
2.196559e+003,4.271753e-004
2.198487e+003,4.028648e-004
2.200416e+003,4.330126e-004
2.202344e+003,4.656834e-004
2.204273e+003,5.135166e-004
2.206201e+003,5.491130e-004
2.208130e+003,5.331556e-004
2.210058e+003,4.507574e-004
2.211987e+003,3.751399e-004
2.213915e+003,4.255832e-004
2.215844e+003,4.210726e-004
2.217772e+003,3.995483e-004
2.219701e+003,4.165289e-004
2.221629e+003,4.095641e-004
2.223558e+003,4.493311e-004
2.225486e+003,3.866807e-004
2.227415e+003,3.352470e-004
2.229343e+003,3.884715e-004
2.231272e+003,5.142464e-004
2.233200e+003,4.551025e-004
2.235129e+003,4.191821e-004
2.237057e+003,4.313211e-004
2.238986e+003,4.336760e-004
2.240914e+003,3.756042e-004
2.242843e+003,3.582936e-004
2.244771e+003,3.672473e-004
2.246700e+003,3.333238e-004
2.248628e+003,3.287146e-004
2.250557e+003,3.677115e-004
2.252485e+003,3.145891e-004
2.254414e+003,2.622688e-004
2.256342e+003,3.664182e-004
2.258271e+003,3.869460e-004
2.260199e+003,3.358108e-004
2.262128e+003,2.558701e-004
2.264056e+003,3.112070e-004
2.265985e+003,4.066787e-004
2.267913e+003,2.984414e-004
2.269842e+003,2.084963e-004
2.271770e+003,1.853251e-004
2.273699e+003,1.258282e-004
2.275627e+003,1.910929e-004
2.277556e+003,2.570968e-004
2.279484e+003,2.299780e-004
2.281413e+003,1.825738e-004
2.283341e+003,7.131031e-005
2.285270e+003,8.483142e-005
2.287198e+003,1.697789e-004
2.289127e+003,1.008386e-004
2.291055e+003,9.795526e-005
2.292984e+003,2.097891e-004
2.294912e+003,2.320334e-004
2.296841e+003,2.145296e-004
2.298769e+003,2.206625e-004
2.300698e+003,2.214581e-004
2.302626e+003,1.944409e-004
2.304555e+003,2.842837e-004
2.306483e+003,4.741418e-004
2.308412e+003,6.338194e-004
2.310340e+003,6.837287e-004
2.312269e+003,6.504110e-004
2.314197e+003,7.411447e-004
2.316125e+003,8.913251e-004
2.318054e+003,9.962897e-004
2.319983e+003,1.114401e-003
2.321911e+003,1.159282e-003
2.323840e+003,1.185263e-003
2.325768e+003,1.305054e-003
2.327697e+003,1.412812e-003
2.329625e+003,1.499748e-003
2.331553e+003,1.469825e-003
2.333482e+003,1.518102e-003
2.335411e+003,1.708700e-003
2.337339e+003,1.760463e-003
2.339268e+003,1.756737e-003
2.341196e+003,1.767749e-003
2.343125e+003,1.645102e-003
2.345053e+003,1.467897e-003
2.346981e+003,1.147787e-003
2.348910e+003,9.535835e-004
2.350839e+003,1.230351e-003
2.352767e+003,1.657608e-003
2.354696e+003,1.911761e-003
2.356624e+003,2.225274e-003
2.358552e+003,2.504020e-003
2.360481e+003,2.481993e-003
2.362409e+003,2.363609e-003
2.364338e+003,2.305512e-003
2.366267e+003,2.248688e-003
2.368195e+003,2.107560e-003
2.370124e+003,1.937488e-003
2.372052e+003,1.776498e-003
2.373980e+003,1.536157e-003
2.375909e+003,1.252548e-003
2.377838e+003,1.152538e-003
2.379766e+003,1.115630e-003
2.381695e+003,1.100084e-003
2.383623e+003,1.046207e-003
2.385552e+003,9.586642e-004
2.387480e+003,9.188173e-004
2.389408e+003,1.015153e-003
2.391337e+003,1.039498e-003
2.393266e+003,9.931015e-004
2.395194e+003,9.997768e-004
2.397123e+003,1.017312e-003
2.399051e+003,9.132722e-004
2.400979e+003,8.077966e-004
2.402908e+003,8.236644e-004
2.404836e+003,9.369804e-004
2.406765e+003,9.557087e-004
2.408694e+003,8.975671e-004
2.410622e+003,8.823274e-004
2.412551e+003,9.627487e-004
2.414479e+003,1.059825e-003
2.416407e+003,1.032125e-003
2.418336e+003,9.965553e-004
2.420264e+003,9.852640e-004
2.422193e+003,1.053514e-003
2.424122e+003,1.119185e-003
2.426050e+003,1.098257e-003
2.427979e+003,1.130645e-003
2.429907e+003,1.217791e-003
2.431835e+003,1.291030e-003
2.433764e+003,1.354476e-003
2.435692e+003,1.428602e-003
2.437621e+003,1.432059e-003
2.439550e+003,1.488178e-003
2.441478e+003,1.476674e-003
2.443406e+003,1.423748e-003
2.445335e+003,1.462677e-003
2.447263e+003,1.498518e-003
2.449192e+003,1.457591e-003
2.451121e+003,1.537953e-003
2.453049e+003,1.569709e-003
2.454978e+003,1.607620e-003
2.456906e+003,1.650424e-003
2.458834e+003,1.622287e-003
2.460763e+003,1.662464e-003
2.462691e+003,1.710929e-003
2.464620e+003,1.717914e-003
2.466549e+003,1.760196e-003
2.468477e+003,1.762958e-003
2.470406e+003,1.764089e-003
2.472334e+003,1.682554e-003
2.474262e+003,1.675004e-003
2.476191e+003,1.763490e-003
2.478119e+003,1.780990e-003
2.480048e+003,1.762991e-003
2.481977e+003,1.775101e-003
2.483905e+003,1.863974e-003
2.485833e+003,1.892592e-003
2.487762e+003,1.913692e-003
2.489690e+003,1.939418e-003
2.491619e+003,1.941182e-003
2.493547e+003,2.032086e-003
2.495476e+003,2.097904e-003
2.497405e+003,2.106095e-003
2.499333e+003,2.123109e-003
2.501261e+003,2.195468e-003
2.503190e+003,2.165997e-003
2.505118e+003,2.100401e-003
2.507047e+003,2.090280e-003
2.508975e+003,2.187176e-003
2.510904e+003,2.257447e-003
2.512833e+003,2.219912e-003
2.514761e+003,2.223842e-003
2.516689e+003,2.276533e-003
2.518618e+003,2.300748e-003
2.520546e+003,2.321035e-003
2.522475e+003,2.300182e-003
2.524403e+003,2.225374e-003
2.526332e+003,2.249754e-003
2.528260e+003,2.412818e-003
2.530189e+003,2.459200e-003
2.532117e+003,2.422747e-003
2.534046e+003,2.317737e-003
2.535974e+003,2.377068e-003
2.537903e+003,2.455901e-003
2.539831e+003,2.358645e-003
2.541760e+003,2.341122e-003
2.543688e+003,2.344886e-003
2.545617e+003,2.318270e-003
2.547545e+003,2.412951e-003
2.549474e+003,2.459933e-003
2.551402e+003,2.386130e-003
2.553331e+003,2.360144e-003
2.555259e+003,2.351249e-003
2.557188e+003,2.411019e-003
2.559116e+003,2.345120e-003
2.561045e+003,2.402722e-003
2.562973e+003,2.576410e-003
2.564902e+003,2.518651e-003
2.566830e+003,2.448237e-003
2.568759e+003,2.484392e-003
2.570687e+003,2.534015e-003
2.572616e+003,2.658312e-003
2.574544e+003,2.712256e-003
2.576473e+003,2.609842e-003
2.578401e+003,2.494789e-003
2.580330e+003,2.512952e-003
2.582258e+003,2.623343e-003
2.584187e+003,2.735929e-003
2.586115e+003,2.779511e-003
2.588044e+003,2.767740e-003
2.589972e+003,2.775743e-003
2.591901e+003,2.743531e-003
2.593829e+003,2.808057e-003
2.595758e+003,2.846643e-003
2.597686e+003,2.821330e-003
2.599615e+003,2.864053e-003
2.601543e+003,2.812625e-003
2.603472e+003,2.688917e-003
2.605400e+003,2.678115e-003
2.607329e+003,2.767106e-003
2.609257e+003,2.836704e-003
2.611186e+003,2.827433e-003
2.613114e+003,2.822397e-003
2.615043e+003,2.835737e-003
2.616971e+003,3.003225e-003
2.618900e+003,3.035656e-003
2.620828e+003,2.998921e-003
2.622757e+003,3.020908e-003
2.624685e+003,3.111638e-003
2.626614e+003,3.141307e-003
2.628542e+003,3.091615e-003
2.630471e+003,2.995385e-003
2.632399e+003,2.918155e-003
2.634328e+003,2.919623e-003
2.636256e+003,2.914920e-003
2.638185e+003,3.021509e-003
2.640113e+003,3.164203e-003
2.642042e+003,3.238305e-003
2.643970e+003,3.272689e-003
2.645899e+003,3.319397e-003
2.647827e+003,3.376562e-003
2.649756e+003,3.385311e-003
2.651684e+003,3.380135e-003
2.653613e+003,3.485970e-003
2.655541e+003,3.606698e-003
2.657470e+003,3.637136e-003
2.659398e+003,3.648429e-003
2.661327e+003,3.621566e-003
2.663255e+003,3.558289e-003
2.665184e+003,3.546731e-003
2.667112e+003,3.663165e-003
2.669041e+003,3.820811e-003
2.670969e+003,3.804131e-003
2.672898e+003,3.734979e-003
2.674826e+003,3.800555e-003
2.676755e+003,3.889943e-003
2.678683e+003,3.932939e-003
2.680612e+003,3.923042e-003
2.682540e+003,3.950627e-003
2.684469e+003,3.976675e-003
2.686397e+003,4.025164e-003
2.688326e+003,4.087505e-003
2.690254e+003,4.086535e-003
2.692183e+003,4.136207e-003
2.694111e+003,4.261466e-003
2.696040e+003,4.278130e-003
2.697968e+003,4.309385e-003
2.699897e+003,4.387565e-003
2.701825e+003,4.385925e-003
2.703754e+003,4.403698e-003
2.705682e+003,4.501111e-003
2.707611e+003,4.525351e-003
2.709539e+003,4.541992e-003
2.711468e+003,4.598078e-003
2.713396e+003,4.733520e-003
2.715325e+003,4.814490e-003
2.717253e+003,4.810034e-003
2.719182e+003,4.729634e-003
2.721110e+003,4.835698e-003
2.723039e+003,5.059301e-003
2.724967e+003,5.150760e-003
2.726896e+003,5.171380e-003
2.728824e+003,5.277552e-003
2.730753e+003,5.303378e-003
2.732681e+003,5.320284e-003
2.734610e+003,5.385528e-003
2.736538e+003,5.457426e-003
2.738467e+003,5.540579e-003
2.740395e+003,5.647647e-003
2.742324e+003,5.645532e-003
2.744252e+003,5.637442e-003
2.746181e+003,5.772167e-003
2.748109e+003,5.951037e-003
2.750038e+003,6.064926e-003
2.751966e+003,6.137844e-003
2.753895e+003,6.201969e-003
2.755823e+003,6.242203e-003
2.757752e+003,6.299451e-003
2.759680e+003,6.413734e-003
2.761609e+003,6.657160e-003
2.763537e+003,6.980887e-003
2.765466e+003,7.158672e-003
2.767394e+003,7.426279e-003
2.769323e+003,7.725653e-003
2.771251e+003,8.081771e-003
2.773180e+003,8.513021e-003
2.775108e+003,8.909118e-003
2.777037e+003,9.302531e-003
2.778965e+003,9.793417e-003
2.780894e+003,1.039446e-002
2.782822e+003,1.090157e-002
2.784750e+003,1.154640e-002
2.786679e+003,1.238110e-002
2.788608e+003,1.308028e-002
2.790536e+003,1.376263e-002
2.792465e+003,1.451269e-002
2.794393e+003,1.519641e-002
2.796322e+003,1.579862e-002
2.798250e+003,1.646041e-002
2.800178e+003,1.720088e-002
2.802107e+003,1.784230e-002
2.804036e+003,1.841933e-002
2.805964e+003,1.893836e-002
2.807893e+003,1.921118e-002
2.809821e+003,1.920453e-002
2.811750e+003,1.929607e-002
2.813678e+003,1.941483e-002
2.815606e+003,1.935361e-002
2.817535e+003,1.923113e-002
2.819464e+003,1.902019e-002
2.821392e+003,1.868069e-002
2.823321e+003,1.833762e-002
2.825249e+003,1.789160e-002
2.827177e+003,1.747975e-002
2.829106e+003,1.708947e-002
2.831034e+003,1.650667e-002
2.832963e+003,1.589289e-002
2.834892e+003,1.538734e-002
2.836820e+003,1.479385e-002
2.838749e+003,1.428369e-002
2.840677e+003,1.364910e-002
2.842605e+003,1.287511e-002
2.844534e+003,1.214497e-002
2.846462e+003,1.145417e-002
2.848391e+003,1.080036e-002
2.850320e+003,1.026803e-002
2.852248e+003,1.000338e-002
2.854177e+003,9.878963e-003
2.856105e+003,9.763968e-003
2.858033e+003,9.675937e-003
2.859962e+003,9.751938e-003
2.861890e+003,9.735977e-003
2.863819e+003,9.708057e-003
2.865748e+003,9.750481e-003
2.867676e+003,9.877404e-003
2.869604e+003,9.981851e-003
2.871533e+003,9.970323e-003
2.873461e+003,1.006414e-002
2.875390e+003,1.018312e-002
2.877319e+003,1.024496e-002
2.879247e+003,1.039422e-002
2.881176e+003,1.046740e-002
2.883104e+003,1.044717e-002
2.885032e+003,1.046485e-002
2.886961e+003,1.046149e-002
2.888889e+003,1.039863e-002
2.890818e+003,1.032904e-002
2.892747e+003,1.016674e-002
2.894675e+003,9.980901e-003
2.896604e+003,9.886386e-003
2.898532e+003,9.756275e-003
2.900460e+003,9.661166e-003
2.902389e+003,9.601813e-003
2.904317e+003,9.501589e-003
2.906246e+003,9.445542e-003
2.908175e+003,9.470500e-003
2.910103e+003,9.371052e-003
2.912031e+003,9.084008e-003
2.913960e+003,8.762598e-003
2.915888e+003,8.559215e-003
2.917817e+003,8.623225e-003
2.919745e+003,8.913380e-003
2.921674e+003,9.156520e-003
2.923603e+003,9.185726e-003
2.925531e+003,9.461831e-003
2.927459e+003,9.852389e-003
2.929388e+003,1.012824e-002
2.931316e+003,1.050843e-002
2.933245e+003,1.080240e-002
2.935173e+003,1.103685e-002
2.937102e+003,1.125996e-002
2.939031e+003,1.125703e-002
2.940959e+003,1.133590e-002
2.942887e+003,1.137909e-002
2.944816e+003,1.126686e-002
2.946744e+003,1.114297e-002
2.948673e+003,1.081188e-002
2.950601e+003,1.043736e-002
2.952530e+003,1.005882e-002
2.954458e+003,9.544230e-003
2.956387e+003,8.976731e-003
2.958315e+003,8.396901e-003
2.960244e+003,7.823882e-003
2.962172e+003,7.387148e-003
2.964101e+003,6.974489e-003
2.966029e+003,6.446151e-003
2.967958e+003,5.995985e-003
2.969886e+003,5.565179e-003
2.971815e+003,5.079012e-003
2.973743e+003,4.679760e-003
2.975672e+003,4.371231e-003
2.977600e+003,4.122760e-003
2.979529e+003,3.980219e-003
2.981457e+003,3.694209e-003
2.983386e+003,3.312586e-003
2.985314e+003,3.003626e-003
2.987243e+003,2.910717e-003
2.989171e+003,2.873859e-003
2.991100e+003,2.850145e-003
2.993028e+003,2.653478e-003
2.994957e+003,2.499388e-003
2.996885e+003,2.409286e-003
2.998814e+003,2.242526e-003
3.000742e+003,2.039177e-003
3.002671e+003,1.957458e-003
3.004599e+003,1.990277e-003
3.006528e+003,1.955594e-003
3.008456e+003,1.856187e-003
3.010385e+003,1.749950e-003
3.012313e+003,1.765719e-003
3.014242e+003,1.849898e-003
3.016170e+003,1.857219e-003
3.018099e+003,1.745791e-003
3.020027e+003,1.751414e-003
3.021956e+003,1.656976e-003
3.023884e+003,1.468296e-003
3.025813e+003,1.386219e-003
3.027741e+003,1.293389e-003
3.029670e+003,1.412180e-003
3.031598e+003,1.536423e-003
3.033527e+003,1.385487e-003
3.035455e+003,1.280529e-003
3.037384e+003,1.229288e-003
3.039312e+003,1.253379e-003
3.041241e+003,1.194865e-003
3.043169e+003,1.097858e-003
3.045098e+003,1.122806e-003
3.047026e+003,1.120480e-003
3.048955e+003,1.048001e-003
3.050883e+003,8.811321e-004
3.052812e+003,8.634694e-004
3.054740e+003,9.727443e-004
3.056669e+003,9.679291e-004
3.058597e+003,9.016510e-004
3.060526e+003,7.932903e-004
3.062454e+003,7.385890e-004
3.064383e+003,7.205006e-004
3.066311e+003,7.303911e-004
3.068240e+003,6.397923e-004
3.070168e+003,5.028018e-004
3.072097e+003,5.048253e-004
3.074025e+003,5.845463e-004
3.075954e+003,6.141427e-004
3.077882e+003,4.935136e-004
3.079811e+003,4.534772e-004
3.081739e+003,4.552683e-004
3.083668e+003,3.482126e-004
3.085596e+003,3.162470e-004
3.087525e+003,2.903844e-004
3.089453e+003,3.272556e-004
3.091382e+003,2.501346e-004
3.093310e+003,1.196304e-004
3.095239e+003,7.674521e-005
3.097167e+003,8.963683e-005
3.099096e+003,7.896560e-005
3.101024e+003,4.456757e-005
3.102953e+003,-6.626803e-007
3.104881e+003,-1.124755e-004
3.106810e+003,-1.386769e-004
3.108738e+003,-7.905062e-005
3.110667e+003,-1.139330e-004
3.112595e+003,-1.352652e-004
3.114524e+003,-9.551493e-005
3.116452e+003,-8.925393e-005
3.118381e+003,-1.771316e-004
3.120309e+003,-2.888328e-004
3.122238e+003,-3.649506e-004
3.124166e+003,-4.279471e-004
3.126095e+003,-3.788219e-004
3.128023e+003,-3.529991e-004
3.129952e+003,-3.739885e-004
3.131880e+003,-4.065300e-004
3.133809e+003,-4.137795e-004
3.135737e+003,-5.162196e-004
3.137666e+003,-4.405586e-004
3.139594e+003,-3.626001e-004
3.141523e+003,-4.483702e-004
3.143451e+003,-4.964616e-004
3.145380e+003,-5.006979e-004
3.147308e+003,-4.695867e-004
3.149237e+003,-5.398155e-004
3.151165e+003,-6.914868e-004
3.153094e+003,-7.201673e-004
3.155022e+003,-6.084116e-004
3.156951e+003,-4.796485e-004
3.158879e+003,-5.257508e-004
3.160808e+003,-6.074190e-004
3.162736e+003,-6.371969e-004
3.164665e+003,-6.299842e-004
3.166593e+003,-6.684285e-004
3.168522e+003,-7.321749e-004
3.170450e+003,-6.438801e-004
3.172379e+003,-4.866982e-004
3.174307e+003,-4.539972e-004
3.176236e+003,-4.802773e-004
3.178164e+003,-5.499418e-004
3.180093e+003,-5.350501e-004
3.182021e+003,-5.015915e-004
3.183950e+003,-4.642910e-004
3.185878e+003,-4.971236e-004
3.187807e+003,-4.811710e-004
3.189735e+003,-5.022534e-004
3.191664e+003,-5.519935e-004
3.193592e+003,-6.284292e-004
3.195521e+003,-6.573124e-004
3.197449e+003,-5.127446e-004
3.199378e+003,-4.253983e-004
3.201306e+003,-3.876609e-004
3.203235e+003,-3.808082e-004
3.205163e+003,-3.978238e-004
3.207092e+003,-4.857715e-004
3.209020e+003,-4.412206e-004
3.210948e+003,-3.699165e-004
3.212877e+003,-3.120106e-004
3.214806e+003,-3.181359e-004
3.216734e+003,-3.322073e-004
3.218663e+003,-3.368425e-004
3.220591e+003,-3.579651e-004
3.222520e+003,-3.385973e-004
3.224448e+003,-3.168777e-004
3.226376e+003,-1.444073e-004
3.228305e+003,8.029120e-005
3.230234e+003,1.747841e-004
3.232162e+003,9.308349e-005
3.234091e+003,2.932462e-005
3.236019e+003,1.484430e-005
3.237948e+003,1.197298e-004
3.239876e+003,3.209555e-004
3.241804e+003,4.262798e-004
3.243733e+003,3.719563e-004
3.245662e+003,4.312216e-004
3.247590e+003,4.532119e-004
3.249519e+003,5.526960e-004
3.251447e+003,4.857515e-004
3.253375e+003,3.882062e-004
3.255304e+003,5.091046e-004
3.257232e+003,7.279018e-004
3.259161e+003,7.433353e-004
3.261090e+003,6.431106e-004
3.263018e+003,6.793813e-004
3.264947e+003,7.233217e-004
3.266875e+003,7.345730e-004
3.268803e+003,8.564643e-004
3.270732e+003,9.040085e-004
3.272660e+003,1.033653e-003
3.274589e+003,1.112840e-003
3.276518e+003,1.077197e-003
3.278446e+003,9.819431e-004
3.280375e+003,8.264530e-004
3.282303e+003,9.659366e-004
3.284231e+003,1.013725e-003
3.286160e+003,9.156297e-004
3.288088e+003,8.311670e-004
3.290017e+003,8.365450e-004
3.291946e+003,8.964382e-004
3.293874e+003,7.420408e-004
3.295802e+003,6.977335e-004
3.297731e+003,6.989283e-004
3.299659e+003,7.061632e-004
3.301588e+003,6.837287e-004
3.303516e+003,5.529282e-004
3.305445e+003,4.566946e-004
3.307374e+003,3.365071e-004
3.309302e+003,1.908277e-004
3.311230e+003,1.525428e-004
3.313159e+003,5.722626e-005
3.315087e+003,-3.909641e-005
3.317016e+003,-1.686858e-004
3.318944e+003,-2.924751e-004
3.320873e+003,-1.867033e-004
3.322802e+003,-2.977067e-004
3.324730e+003,-6.780886e-004
3.326658e+003,-7.469937e-004
3.328587e+003,-6.093050e-004
3.330515e+003,-6.672044e-004
3.332444e+003,-8.191288e-004
3.334372e+003,-9.304336e-004
3.336301e+003,-9.725870e-004
3.338229e+003,-8.969394e-004
3.340158e+003,-8.766035e-004
3.342086e+003,-9.451464e-004
3.344015e+003,-9.531474e-004
3.345943e+003,-9.410798e-004
3.347872e+003,-1.042999e-003
3.349800e+003,-1.081836e-003
3.351729e+003,-1.077639e-003
3.353657e+003,-1.244155e-003
3.355586e+003,-1.373518e-003
3.357514e+003,-1.524535e-003
3.359443e+003,-1.579837e-003
3.361371e+003,-1.368002e-003
3.363300e+003,-1.440661e-003
3.365229e+003,-1.627968e-003
3.367157e+003,-1.736360e-003
3.369085e+003,-1.871514e-003
3.371014e+003,-1.872702e-003
3.372942e+003,-1.906154e-003
3.374871e+003,-2.058965e-003
3.376799e+003,-2.130058e-003
3.378728e+003,-2.138664e-003
3.380656e+003,-2.226029e-003
3.382585e+003,-2.373355e-003
3.384513e+003,-2.417083e-003
3.386442e+003,-2.407692e-003
3.388370e+003,-2.327383e-003
3.390299e+003,-2.489567e-003
3.392227e+003,-2.586611e-003
3.394156e+003,-2.665983e-003
3.396084e+003,-2.825110e-003
3.398013e+003,-2.823398e-003
3.399941e+003,-2.722522e-003
3.401870e+003,-2.700460e-003
3.403798e+003,-2.785441e-003
3.405727e+003,-2.832616e-003
3.407655e+003,-2.787943e-003
3.409584e+003,-2.670593e-003
3.411512e+003,-2.744088e-003
3.413441e+003,-2.864743e-003
3.415369e+003,-2.911876e-003
3.417298e+003,-2.822114e-003
3.419226e+003,-2.872248e-003
3.421155e+003,-3.004252e-003
3.423083e+003,-2.963711e-003
3.425012e+003,-2.956899e-003
3.426940e+003,-3.100030e-003
3.428869e+003,-3.164703e-003
3.430797e+003,-3.120854e-003
3.432726e+003,-3.180722e-003
3.434654e+003,-3.371686e-003
3.436583e+003,-3.538508e-003
3.438511e+003,-3.456371e-003
3.440440e+003,-3.266826e-003
3.442368e+003,-3.202694e-003
3.444297e+003,-3.201707e-003
3.446225e+003,-3.127993e-003
3.448154e+003,-3.274718e-003
3.450082e+003,-3.334598e-003
3.452011e+003,-3.409625e-003
3.453939e+003,-3.587475e-003
3.455868e+003,-3.603774e-003
3.457796e+003,-3.470439e-003
3.459725e+003,-3.395061e-003
3.461653e+003,-3.359455e-003
3.463582e+003,-3.427607e-003
3.465510e+003,-3.634924e-003
3.467439e+003,-3.638571e-003
3.469367e+003,-3.498477e-003
3.471296e+003,-3.432966e-003
3.473224e+003,-3.578405e-003
3.475153e+003,-3.673070e-003
3.477081e+003,-3.481549e-003
3.479010e+003,-3.446115e-003
3.480938e+003,-3.454102e-003
3.482867e+003,-3.531311e-003
3.484795e+003,-3.577419e-003
3.486724e+003,-3.529930e-003
3.488652e+003,-3.467054e-003
3.490581e+003,-3.479840e-003
3.492509e+003,-3.600882e-003
3.494438e+003,-3.487400e-003
3.496366e+003,-3.348243e-003
3.498295e+003,-3.486052e-003
3.500223e+003,-3.657924e-003
3.502152e+003,-3.681810e-003
3.504080e+003,-3.650071e-003
3.506009e+003,-3.469848e-003
3.507937e+003,-3.330619e-003
3.509866e+003,-3.356167e-003
3.511794e+003,-3.432900e-003
3.513723e+003,-3.597333e-003
3.515651e+003,-3.840763e-003
3.517580e+003,-3.775730e-003
3.519508e+003,-3.713415e-003
3.521437e+003,-3.724617e-003
3.523365e+003,-3.796259e-003
3.525294e+003,-3.743900e-003
3.527222e+003,-3.720970e-003
3.529151e+003,-3.717061e-003
3.531079e+003,-3.821090e-003
3.533008e+003,-3.892979e-003
3.534936e+003,-3.868612e-003
3.536865e+003,-3.822732e-003
3.538793e+003,-3.713612e-003
3.540722e+003,-3.541894e-003
3.542650e+003,-3.507318e-003
3.544579e+003,-3.437272e-003
3.546507e+003,-3.494861e-003
3.548436e+003,-3.739498e-003
3.550364e+003,-3.864047e-003
3.552293e+003,-3.844080e-003
3.554221e+003,-3.930643e-003
3.556150e+003,-3.986460e-003
3.558078e+003,-3.871338e-003
3.560007e+003,-3.803912e-003
3.561935e+003,-3.675370e-003
3.563864e+003,-3.728822e-003
3.565792e+003,-3.639031e-003
3.567721e+003,-3.446871e-003
3.569649e+003,-3.686377e-003
3.571578e+003,-3.997130e-003
3.573506e+003,-3.932712e-003
3.575435e+003,-3.759503e-003
3.577363e+003,-3.747087e-003
3.579292e+003,-3.799478e-003
3.581220e+003,-3.985967e-003
3.583149e+003,-4.128235e-003
3.585077e+003,-3.867791e-003
3.587006e+003,-3.778194e-003
3.588934e+003,-3.923879e-003
3.590863e+003,-3.880205e-003
3.592791e+003,-3.991844e-003
3.594720e+003,-4.058288e-003
3.596648e+003,-4.041875e-003
3.598577e+003,-4.007406e-003
3.600505e+003,-3.963904e-003
3.602434e+003,-4.119242e-003
3.604362e+003,-4.205291e-003
3.606291e+003,-4.150027e-003
3.608219e+003,-3.967548e-003
3.610148e+003,-3.982421e-003
3.612076e+003,-3.958880e-003
3.614005e+003,-3.881584e-003
3.615933e+003,-3.940099e-003
3.617862e+003,-3.702080e-003
3.619790e+003,-3.601506e-003
3.621719e+003,-3.983735e-003
3.623647e+003,-4.127250e-003
3.625576e+003,-3.970372e-003
3.627504e+003,-3.453642e-003
3.629433e+003,-3.206476e-003
3.631361e+003,-3.728296e-003
3.633290e+003,-4.042007e-003
3.635218e+003,-4.080281e-003
3.637146e+003,-4.131615e-003
3.639075e+003,-4.216021e-003
3.641004e+003,-4.166075e-003
3.642932e+003,-4.177365e-003
3.644861e+003,-4.278101e-003
3.646789e+003,-3.884835e-003
3.648718e+003,-3.659206e-003
3.650646e+003,-3.838431e-003
3.652574e+003,-4.061867e-003
3.654503e+003,-4.052019e-003
3.656432e+003,-4.055039e-003
3.658360e+003,-4.396624e-003
3.660289e+003,-4.576726e-003
3.662217e+003,-4.675632e-003
3.664146e+003,-4.562168e-003
3.666074e+003,-4.385734e-003
3.668002e+003,-4.163811e-003
3.669931e+003,-4.072732e-003
3.671860e+003,-4.374582e-003
3.673788e+003,-4.281447e-003
3.675717e+003,-3.768964e-003
3.677645e+003,-3.925061e-003
3.679573e+003,-4.259661e-003
3.681502e+003,-4.342238e-003
3.683430e+003,-4.398199e-003
3.685359e+003,-4.447232e-003
3.687288e+003,-3.973885e-003
3.689216e+003,-3.535978e-003
3.691145e+003,-3.828184e-003
3.693073e+003,-4.162859e-003
3.695001e+003,-4.363199e-003
3.696930e+003,-4.278625e-003
3.698858e+003,-4.224585e-003
3.700787e+003,-4.067874e-003
3.702716e+003,-4.097580e-003
3.704644e+003,-4.206177e-003
3.706573e+003,-4.142282e-003
3.708501e+003,-3.913371e-003
3.710429e+003,-3.692356e-003
3.712358e+003,-3.869039e-003
3.714286e+003,-4.274262e-003
3.716215e+003,-4.480618e-003
3.718144e+003,-4.340237e-003
3.720072e+003,-4.294702e-003
3.722000e+003,-4.249227e-003
3.723929e+003,-4.159709e-003
3.725857e+003,-3.927786e-003
3.727786e+003,-3.835607e-003
3.729714e+003,-3.984916e-003
3.731643e+003,-3.912320e-003
3.733572e+003,-3.834785e-003
3.735500e+003,-3.677801e-003
3.737428e+003,-3.982060e-003
3.739357e+003,-4.162498e-003
3.741285e+003,-3.808839e-003
3.743214e+003,-3.210489e-003
3.745142e+003,-3.093418e-003
3.747071e+003,-3.372047e-003
3.749000e+003,-3.070486e-003
3.750928e+003,-2.975360e-003
3.752856e+003,-3.316250e-003
3.754785e+003,-3.762197e-003
3.756713e+003,-3.490687e-003
3.758642e+003,-3.325325e-003
3.760570e+003,-3.586423e-003
3.762499e+003,-3.809660e-003
3.764427e+003,-3.665612e-003
3.766356e+003,-3.655821e-003
3.768284e+003,-3.570649e-003
3.770213e+003,-3.506102e-003
3.772141e+003,-3.594770e-003
3.774070e+003,-3.667781e-003
3.775998e+003,-3.734012e-003
3.777927e+003,-3.845229e-003
3.779855e+003,-3.870681e-003
3.781784e+003,-3.686935e-003
3.783712e+003,-3.535616e-003
3.785641e+003,-3.603347e-003
3.787569e+003,-3.808675e-003
3.789498e+003,-3.836657e-003
3.791426e+003,-3.893340e-003
3.793355e+003,-3.951329e-003
3.795283e+003,-3.608177e-003
3.797212e+003,-3.506234e-003
3.799140e+003,-3.664035e-003
3.801069e+003,-3.370042e-003
3.802997e+003,-3.640379e-003
3.804926e+003,-4.058059e-003
3.806854e+003,-3.811598e-003
3.808783e+003,-3.851995e-003
3.810711e+003,-3.950541e-003
3.812640e+003,-3.962558e-003
3.814568e+003,-3.752211e-003
3.816497e+003,-3.527926e-003
3.818425e+003,-3.497885e-003
3.820354e+003,-3.082363e-003
3.822282e+003,-3.245647e-003
3.824211e+003,-3.682730e-003
3.826139e+003,-3.811236e-003
3.828068e+003,-3.853374e-003
3.829996e+003,-3.652470e-003
3.831925e+003,-3.454168e-003
3.833853e+003,-3.396639e-003
3.835782e+003,-3.257881e-003
3.837710e+003,-3.175657e-003
3.839639e+003,-3.468566e-003
3.841567e+003,-3.536438e-003
3.843496e+003,-3.558589e-003
3.845424e+003,-3.727705e-003
3.847353e+003,-4.068957e-003
3.849281e+003,-3.920628e-003
3.851210e+003,-3.110459e-003
3.853138e+003,-2.679616e-003
3.855067e+003,-3.226934e-003
3.856995e+003,-3.654244e-003
3.858924e+003,-3.752737e-003
3.860852e+003,-3.803190e-003
3.862781e+003,-3.761014e-003
3.864709e+003,-3.617279e-003
3.866638e+003,-3.524672e-003
3.868566e+003,-3.371258e-003
3.870495e+003,-3.252586e-003
3.872423e+003,-3.568480e-003
3.874352e+003,-3.572490e-003
3.876280e+003,-3.790413e-003
3.878209e+003,-3.903093e-003
3.880137e+003,-3.731088e-003
3.882066e+003,-3.722876e-003
3.883994e+003,-3.781643e-003
3.885923e+003,-3.624344e-003
3.887851e+003,-3.850911e-003
3.889780e+003,-3.875377e-003
3.891708e+003,-3.886641e-003
3.893637e+003,-4.001759e-003
3.895565e+003,-3.910219e-003
3.897494e+003,-3.736870e-003
3.899422e+003,-3.427344e-003
3.901351e+003,-3.509652e-003
3.903279e+003,-3.564438e-003
3.905208e+003,-3.674713e-003
3.907136e+003,-4.102733e-003
3.909065e+003,-4.079362e-003
3.910993e+003,-3.892388e-003
3.912922e+003,-3.912780e-003
3.914850e+003,-3.858596e-003
3.916779e+003,-3.901517e-003
3.918707e+003,-4.045519e-003
3.920636e+003,-4.140641e-003
3.922564e+003,-4.160431e-003
3.924493e+003,-3.803846e-003
3.926421e+003,-3.795701e-003
3.928350e+003,-4.037181e-003
3.930278e+003,-4.023721e-003
3.932207e+003,-3.774745e-003
3.934135e+003,-3.460808e-003
3.936064e+003,-3.507384e-003
3.937992e+003,-3.737889e-003
3.939921e+003,-3.960555e-003
3.941849e+003,-3.997097e-003
3.943778e+003,-3.936849e-003
3.945706e+003,-3.984785e-003
3.947635e+003,-3.856855e-003
3.949563e+003,-3.825458e-003
3.951492e+003,-3.834588e-003
3.953420e+003,-3.837577e-003
3.955349e+003,-3.850188e-003
3.957277e+003,-3.974870e-003
3.959206e+003,-3.898693e-003
3.961134e+003,-3.903980e-003
3.963063e+003,-3.863588e-003
3.964991e+003,-3.931891e-003
3.966920e+003,-3.988988e-003
3.968848e+003,-3.921974e-003
3.970777e+003,-3.917968e-003
3.972705e+003,-3.922992e-003
3.974634e+003,-3.951591e-003
3.976562e+003,-3.912320e-003
3.978491e+003,-3.886214e-003
3.980419e+003,-3.790347e-003
3.982348e+003,-3.906804e-003
3.984276e+003,-3.949983e-003
3.986205e+003,-3.919118e-003
3.988133e+003,-3.653554e-003
3.990062e+003,-3.538048e-003
3.991990e+003,-3.664035e-003
3.993919e+003,-3.734472e-003
3.995847e+003,-3.745247e-003
3.997776e+003,-3.822075e-003
3.999704e+003,-3.893340e-003
4.001633e+003,0.000000e+000
