3.991989e+002,1.651094e-002
4.011274e+002,2.118591e-002
4.030559e+002,1.276518e-002
4.049844e+002,8.144968e-003
4.069129e+002,1.404830e-002
4.088414e+002,1.804407e-002
4.107699e+002,1.788128e-002
4.126984e+002,1.293057e-002
4.146269e+002,7.238344e-003
4.165554e+002,8.838912e-003
4.184839e+002,1.495607e-002
4.204124e+002,1.489890e-002
4.223409e+002,1.751424e-002
4.242694e+002,1.702465e-002
4.261979e+002,1.154457e-002
4.281264e+002,7.610552e-003
4.300549e+002,9.519404e-003
4.319834e+002,4.779312e-003
4.339119e+002,2.469730e-003
4.358404e+002,9.695318e-003
4.377689e+002,1.271486e-002
4.396974e+002,1.111468e-002
4.416259e+002,9.660217e-003
4.435544e+002,1.142838e-002
4.454829e+002,1.393158e-002
4.474114e+002,1.281538e-002
4.493399e+002,8.975717e-003
4.512684e+002,6.832019e-003
4.531969e+002,7.185351e-003
4.551254e+002,1.092997e-002
4.570539e+002,1.238137e-002
4.589824e+002,1.051780e-002
4.609109e+002,1.016236e-002
4.628394e+002,1.148128e-002
4.647679e+002,1.082805e-002
4.666964e+002,1.059555e-002
4.686249e+002,8.698331e-003
4.705533e+002,7.830494e-003
4.724819e+002,9.094158e-003
4.744103e+002,1.093548e-002
4.763389e+002,1.194351e-002
4.782673e+002,1.163386e-002
4.801959e+002,1.123255e-002
4.821243e+002,1.246272e-002
4.840529e+002,1.231098e-002
4.859813e+002,1.212763e-002
4.879099e+002,1.048057e-002
4.898383e+002,9.294474e-003
4.917668e+002,1.012543e-002
4.936953e+002,1.216395e-002
4.956238e+002,1.196888e-002
4.975523e+002,9.143492e-003
4.994808e+002,8.979877e-003
5.014093e+002,1.022101e-002
5.033378e+002,8.700663e-003
5.052663e+002,6.406066e-003
5.071948e+002,6.017620e-003
5.091233e+002,7.523766e-003
5.110518e+002,7.348898e-003
5.129803e+002,6.492293e-003
5.149088e+002,6.334717e-003
5.168373e+002,6.885709e-003
5.187658e+002,7.413032e-003
5.206943e+002,8.610279e-003
5.226228e+002,8.402644e-003
5.245513e+002,6.646696e-003
5.264798e+002,5.864011e-003
5.284083e+002,7.908197e-003
5.303368e+002,7.712870e-003
5.322653e+002,6.115127e-003
5.341938e+002,5.377611e-003
5.361223e+002,6.180761e-003
5.380508e+002,6.911867e-003
5.399792e+002,7.891731e-003
5.419078e+002,7.247272e-003
5.438363e+002,7.239759e-003
5.457648e+002,7.392102e-003
5.476932e+002,7.813357e-003
5.496218e+002,8.734807e-003
5.515503e+002,9.224849e-003
5.534788e+002,9.021182e-003
5.554072e+002,9.814260e-003
5.573358e+002,9.948015e-003
5.592643e+002,9.470738e-003
5.611927e+002,8.200374e-003
5.631212e+002,8.182648e-003
5.650497e+002,9.114697e-003
5.669783e+002,1.135644e-002
5.689067e+002,1.191977e-002
5.708352e+002,1.093350e-002
5.727637e+002,8.460414e-003
5.746923e+002,8.162254e-003
5.766207e+002,1.001606e-002
5.785492e+002,9.879133e-003
5.804777e+002,-5.891873e-004
5.824063e+002,-1.219210e-003
5.843347e+002,8.925691e-003
5.862632e+002,1.224704e-002
5.881917e+002,1.164070e-002
5.901202e+002,9.476494e-003
5.920487e+002,7.796691e-003
5.939772e+002,9.752480e-003
5.959057e+002,1.238499e-002
5.978342e+002,1.267228e-002
5.997627e+002,1.368172e-002
6.016912e+002,1.448425e-002
6.036197e+002,1.587501e-002
6.055482e+002,1.680345e-002
6.074767e+002,1.772973e-002
6.094052e+002,1.889347e-002
6.113337e+002,2.004250e-002
6.132622e+002,1.948985e-002
6.151907e+002,1.913655e-002
6.171192e+002,1.903649e-002
6.190477e+002,1.833226e-002
6.209762e+002,1.828052e-002
6.229047e+002,1.609375e-002
6.248332e+002,1.249478e-002
6.267617e+002,9.573088e-003
6.286902e+002,7.541398e-003
6.306187e+002,6.802939e-003
6.325472e+002,6.616552e-003
6.344756e+002,6.538642e-003
6.364042e+002,5.927658e-003
6.383326e+002,5.795135e-003
6.402612e+002,5.752021e-003
6.421896e+002,6.347124e-003
6.441182e+002,5.867369e-003
6.460466e+002,5.156225e-003
6.479752e+002,5.356678e-003
6.499036e+002,4.686425e-003
6.518322e+002,4.326988e-003
6.537606e+002,4.500107e-003
6.556891e+002,4.465089e-003
6.576177e+002,4.370997e-003
6.595461e+002,4.168255e-003
6.614746e+002,3.366644e-003
6.634031e+002,2.889136e-003
6.653317e+002,4.034695e-003
6.672601e+002,8.480145e-003
6.691886e+002,7.801785e-003
6.711171e+002,4.265515e-003
6.730457e+002,4.150391e-003
6.749741e+002,4.242528e-003
6.769026e+002,3.815730e-003
6.788311e+002,3.708879e-003
6.807596e+002,4.252633e-003
6.826881e+002,4.519525e-003
6.846166e+002,4.584282e-003
6.865451e+002,4.766549e-003
6.884736e+002,4.691516e-003
6.904021e+002,4.556624e-003
6.923306e+002,4.731811e-003
6.942591e+002,4.788157e-003
6.961876e+002,4.907270e-003
6.981161e+002,5.260347e-003
7.000446e+002,5.134699e-003
7.019731e+002,4.536869e-003
7.039016e+002,4.607153e-003
7.058301e+002,4.933342e-003
7.077585e+002,4.999836e-003
7.096871e+002,5.419513e-003
7.116156e+002,5.575784e-003
7.135441e+002,5.311193e-003
7.154725e+002,5.093461e-003
7.174011e+002,5.448938e-003
7.193296e+002,5.944588e-003
7.212581e+002,6.549877e-003
7.231865e+002,7.202229e-003
7.251151e+002,7.360120e-003
7.270436e+002,7.715366e-003
7.289720e+002,8.206419e-003
7.309005e+002,8.150404e-003
7.328290e+002,7.988108e-003
7.347576e+002,8.085486e-003
7.366860e+002,8.184438e-003
7.386145e+002,7.906240e-003
7.405430e+002,8.144598e-003
7.424716e+002,8.662771e-003
7.444000e+002,9.046994e-003
7.463285e+002,9.128638e-003
7.482570e+002,8.879222e-003
7.501855e+002,8.719121e-003
7.521140e+002,9.409311e-003
7.540425e+002,9.821852e-003
7.559710e+002,9.771897e-003
7.578995e+002,1.016077e-002
7.598280e+002,1.024235e-002
7.617565e+002,1.024815e-002
7.636850e+002,1.033952e-002
7.656135e+002,1.065398e-002
7.675420e+002,1.066672e-002
7.694705e+002,1.014778e-002
7.713990e+002,9.990429e-003
7.733275e+002,1.016877e-002
7.752560e+002,1.005896e-002
7.771844e+002,9.907742e-003
7.791130e+002,9.521300e-003
7.810415e+002,9.365330e-003
7.829700e+002,8.943584e-003
7.848984e+002,8.666793e-003
7.868270e+002,8.987049e-003
7.887555e+002,8.924440e-003
7.906840e+002,8.247818e-003
7.926124e+002,7.764949e-003
7.945410e+002,7.495852e-003
7.964695e+002,7.257380e-003
7.983979e+002,6.778403e-003
8.003264e+002,6.523203e-003
8.022549e+002,6.809872e-003
8.041835e+002,7.318434e-003
8.061119e+002,7.338417e-003
8.080404e+002,7.399854e-003
8.099689e+002,7.682415e-003
8.118975e+002,8.087173e-003
8.138259e+002,8.571482e-003
8.157545e+002,8.489369e-003
8.176830e+002,8.591658e-003
8.196115e+002,8.532147e-003
8.215399e+002,8.253997e-003
8.234684e+002,7.996917e-003
8.253970e+002,8.053046e-003
8.273254e+002,8.288681e-003
8.292539e+002,8.003127e-003
8.311824e+002,7.533206e-003
8.331110e+002,7.592782e-003
8.350394e+002,7.621950e-003
8.369679e+002,7.853031e-003
8.388964e+002,8.148142e-003
8.408250e+002,8.396766e-003
8.427534e+002,8.309248e-003
8.446819e+002,7.723731e-003
8.466104e+002,7.480110e-003
8.485389e+002,7.547602e-003
8.504674e+002,7.474008e-003
8.523959e+002,7.368140e-003
8.543244e+002,7.338687e-003
8.562529e+002,7.429683e-003
8.581814e+002,7.589073e-003
8.601099e+002,7.462176e-003
8.620384e+002,7.042071e-003
8.639669e+002,7.205328e-003
8.658954e+002,7.466424e-003
8.678239e+002,7.241376e-003
8.697524e+002,7.030925e-003
8.716809e+002,6.964085e-003
8.736094e+002,7.163085e-003
8.755378e+002,7.518305e-003
8.774664e+002,7.739516e-003
8.793949e+002,7.546017e-003
8.813234e+002,7.108855e-003
8.832518e+002,7.062984e-003
8.851804e+002,7.395675e-003
8.871089e+002,7.334205e-003
8.890374e+002,6.982267e-003
8.909658e+002,7.091139e-003
8.928943e+002,7.602291e-003
8.948229e+002,7.654997e-003
8.967513e+002,7.470334e-003
8.986798e+002,7.420448e-003
9.006083e+002,7.386879e-003
9.025369e+002,7.733883e-003
9.044653e+002,7.890482e-003
9.063938e+002,7.397529e-003
9.083223e+002,7.057259e-003
9.102509e+002,6.908197e-003
9.121793e+002,6.797318e-003
9.141078e+002,6.555125e-003
9.160364e+002,6.324160e-003
9.179648e+002,6.272792e-003
9.198933e+002,6.112574e-003
9.218218e+002,5.923560e-003
9.237504e+002,5.664498e-003
9.256788e+002,5.362348e-003
9.276073e+002,5.214403e-003
9.295358e+002,5.094635e-003
9.314644e+002,4.769899e-003
9.333928e+002,4.857108e-003
9.353213e+002,5.065033e-003
9.372498e+002,4.907673e-003
9.391783e+002,4.583043e-003
9.411068e+002,4.688200e-003
9.430353e+002,4.884953e-003
9.449637e+002,4.916486e-003
9.468923e+002,4.830270e-003
9.488208e+002,4.627614e-003
9.507493e+002,5.072576e-003
9.526777e+002,5.299991e-003
9.546063e+002,5.265378e-003
9.565348e+002,5.341181e-003
9.584633e+002,5.245960e-003
9.603917e+002,5.146032e-003
9.623203e+002,5.226106e-003
9.642488e+002,5.455783e-003
9.661772e+002,5.407335e-003
9.681057e+002,5.363891e-003
9.700343e+002,5.148647e-003
9.719628e+002,4.973291e-003
9.738912e+002,4.954892e-003
9.758197e+002,4.988206e-003
9.777483e+002,4.890918e-003
9.796768e+002,4.880932e-003
9.816052e+002,4.598982e-003
9.835337e+002,4.357141e-003
9.854623e+002,4.106136e-003
9.873907e+002,3.757405e-003
9.893192e+002,3.420508e-003
9.912477e+002,3.240308e-003
9.931763e+002,3.139839e-003
9.951047e+002,2.992749e-003
9.970332e+002,2.779478e-003
9.989617e+002,2.652845e-003
1.000890e+003,2.619109e-003
1.002819e+003,2.770307e-003
1.004747e+003,2.928296e-003
1.006676e+003,3.139839e-003
1.008604e+003,3.146847e-003
1.010533e+003,3.063018e-003
1.012461e+003,3.068423e-003
1.014390e+003,3.140606e-003
1.016318e+003,3.535306e-003
1.018247e+003,3.968315e-003
1.020175e+003,4.084996e-003
1.022104e+003,4.188796e-003
1.024032e+003,4.528699e-003
1.025961e+003,5.067112e-003
1.027889e+003,5.288755e-003
1.029818e+003,5.418004e-003
1.031746e+003,5.928263e-003
1.033675e+003,6.412523e-003
1.035603e+003,6.505007e-003
1.037532e+003,6.617023e-003
1.039460e+003,7.121991e-003
1.041389e+003,7.521237e-003
1.043317e+003,7.742113e-003
1.045246e+003,7.838422e-003
1.047174e+003,7.800335e-003
1.049103e+003,7.876413e-003
1.051031e+003,7.902326e-003
1.052960e+003,8.070328e-003
1.054888e+003,8.132983e-003
1.056817e+003,8.049299e-003
1.058745e+003,8.070058e-003
1.060674e+003,8.181567e-003
1.062602e+003,8.072252e-003
1.064531e+003,7.954124e-003
1.066459e+003,7.989998e-003
1.068388e+003,8.108744e-003
1.070316e+003,8.118433e-003
1.072245e+003,8.247648e-003
1.074173e+003,8.249135e-003
1.076102e+003,8.084709e-003
1.078030e+003,8.091223e-003
1.079959e+003,7.945721e-003
1.081887e+003,7.892474e-003
1.083816e+003,8.263419e-003
1.085744e+003,8.282500e-003
1.087673e+003,8.182581e-003
1.089601e+003,8.474536e-003
1.091530e+003,8.847569e-003
1.093458e+003,8.922951e-003
1.095387e+003,8.976766e-003
1.097315e+003,9.053287e-003
1.099244e+003,9.305408e-003
1.101172e+003,9.508498e-003
1.103101e+003,9.274131e-003
1.105029e+003,9.259169e-003
1.106958e+003,9.421197e-003
1.108886e+003,9.601305e-003
1.110815e+003,9.431558e-003
1.112743e+003,9.219366e-003
1.114672e+003,9.301989e-003
1.116600e+003,9.713681e-003
1.118529e+003,9.875641e-003
1.120457e+003,9.704161e-003
1.122386e+003,9.634063e-003
1.124314e+003,9.567296e-003
1.126243e+003,9.329715e-003
1.128171e+003,9.233885e-003
1.130100e+003,9.311028e-003
1.132028e+003,9.146233e-003
1.133957e+003,8.838473e-003
1.135885e+003,8.624374e-003
1.137814e+003,8.403353e-003
1.139742e+003,7.848274e-003
1.141671e+003,7.541398e-003
1.143599e+003,7.261726e-003
1.145528e+003,6.860126e-003
1.147456e+003,6.580993e-003
1.149385e+003,6.340265e-003
1.151313e+003,5.961383e-003
1.153242e+003,5.715493e-003
1.155170e+003,5.771127e-003
1.157099e+003,5.658422e-003
1.159027e+003,5.334371e-003
1.160956e+003,5.215476e-003
1.162884e+003,5.216784e-003
1.164813e+003,5.019646e-003
1.166741e+003,4.953551e-003
1.168670e+003,4.837239e-003
1.170598e+003,4.780552e-003
1.172526e+003,4.945206e-003
1.174455e+003,4.988307e-003
1.176384e+003,4.984888e-003
1.178312e+003,4.885121e-003
1.180240e+003,4.610937e-003
1.182169e+003,4.546009e-003
1.184098e+003,4.489996e-003
1.186026e+003,4.203550e-003
1.187954e+003,4.189699e-003
1.189883e+003,4.242494e-003
1.191812e+003,4.229847e-003
1.193740e+003,4.043424e-003
1.195668e+003,3.583245e-003
1.197597e+003,3.217241e-003
1.199526e+003,3.217041e-003
1.201454e+003,3.201553e-003
1.203382e+003,3.148783e-003
1.205311e+003,2.987278e-003
1.207240e+003,2.995352e-003
1.209168e+003,2.878195e-003
1.211096e+003,2.743131e-003
1.213025e+003,2.927696e-003
1.214953e+003,3.139105e-003
1.216882e+003,3.008463e-003
1.218810e+003,2.894806e-003
1.220739e+003,2.963057e-003
1.222667e+003,3.153422e-003
1.224596e+003,3.275627e-003
1.226524e+003,3.297796e-003
1.228453e+003,3.443352e-003
1.230381e+003,3.549737e-003
1.232310e+003,3.679873e-003
1.234238e+003,3.793302e-003
1.236167e+003,3.868748e-003
1.238095e+003,3.958886e-003
1.240024e+003,4.154037e-003
1.241952e+003,4.284655e-003
1.243881e+003,4.152264e-003
1.245809e+003,3.934443e-003
1.247738e+003,3.861560e-003
1.249666e+003,4.066601e-003
1.251595e+003,4.147547e-003
1.253523e+003,4.137478e-003
1.255452e+003,4.198398e-003
1.257380e+003,4.258254e-003
1.259309e+003,4.215226e-003
1.261237e+003,4.301487e-003
1.263166e+003,4.408618e-003
1.265094e+003,4.653736e-003
1.267023e+003,4.958444e-003
1.268951e+003,5.165747e-003
1.270880e+003,5.334002e-003
1.272808e+003,5.427934e-003
1.274737e+003,5.573737e-003
1.276665e+003,5.733689e-003
1.278594e+003,5.856287e-003
1.280522e+003,6.101686e-003
1.282451e+003,6.313100e-003
1.284379e+003,6.429135e-003
1.286308e+003,6.519100e-003
1.288236e+003,6.833601e-003
1.290165e+003,7.066925e-003
1.292093e+003,7.070562e-003
1.294022e+003,7.143952e-003
1.295950e+003,7.376060e-003
1.297879e+003,7.552592e-003
1.299807e+003,7.521372e-003
1.301736e+003,7.376229e-003
1.303664e+003,7.228035e-003
1.305593e+003,7.092655e-003
1.307521e+003,7.021765e-003
1.309450e+003,6.923078e-003
1.311378e+003,6.679334e-003
1.313307e+003,6.442452e-003
1.315235e+003,6.283179e-003
1.317164e+003,6.209901e-003
1.319092e+003,5.961283e-003
1.321021e+003,5.748160e-003
1.322949e+003,5.611697e-003
1.324878e+003,5.476150e-003
1.326806e+003,5.451790e-003
1.328735e+003,5.564910e-003
1.330663e+003,5.716600e-003
1.332592e+003,5.812932e-003
1.334520e+003,5.688635e-003
1.336449e+003,5.654226e-003
1.338377e+003,5.851921e-003
1.340306e+003,5.905960e-003
1.342234e+003,5.998638e-003
1.344163e+003,6.106827e-003
1.346091e+003,6.237564e-003
1.348020e+003,6.441275e-003
1.349948e+003,6.466027e-003
1.351877e+003,6.322143e-003
1.353805e+003,6.309872e-003
1.355734e+003,6.335322e-003
1.357662e+003,6.136467e-003
1.359591e+003,5.939281e-003
1.361519e+003,5.720361e-003
1.363448e+003,5.430484e-003
1.365376e+003,5.203102e-003
1.367305e+003,4.954456e-003
1.369233e+003,4.840724e-003
1.371162e+003,4.887265e-003
1.373090e+003,4.920876e-003
1.375019e+003,4.815729e-003
1.376947e+003,4.829231e-003
1.378876e+003,4.901976e-003
1.380804e+003,4.918865e-003
1.382733e+003,4.970644e-003
1.384661e+003,4.938370e-003
1.386590e+003,4.861799e-003
1.388518e+003,4.772948e-003
1.390447e+003,4.541891e-003
1.392375e+003,4.376587e-003
1.394304e+003,4.310824e-003
1.396232e+003,4.082455e-003
1.398161e+003,3.883390e-003
1.400089e+003,3.819173e-003
1.402018e+003,3.712822e-003
1.403946e+003,3.398368e-003
1.405875e+003,3.190938e-003
1.407803e+003,3.155959e-003
1.409732e+003,3.125321e-003
1.411660e+003,3.051372e-003
1.413589e+003,3.034355e-003
1.415517e+003,3.132597e-003
1.417446e+003,3.354156e-003
1.419374e+003,3.685721e-003
1.421303e+003,4.118913e-003
1.423231e+003,4.626844e-003
1.425160e+003,5.134531e-003
1.427088e+003,5.521215e-003
1.429017e+003,5.803765e-003
1.430945e+003,6.109617e-003
1.432874e+003,6.582036e-003
1.434802e+003,7.088108e-003
1.436731e+003,7.352874e-003
1.438659e+003,7.629402e-003
1.440588e+003,8.079375e-003
1.442516e+003,8.608793e-003
1.444445e+003,8.949435e-003
1.446373e+003,9.317189e-003
1.448302e+003,9.722424e-003
1.450230e+003,9.923099e-003
1.452159e+003,1.008466e-002
1.454087e+003,1.035995e-002
1.456016e+003,1.071076e-002
1.457944e+003,1.099674e-002
1.459873e+003,1.092042e-002
1.461801e+003,1.072129e-002
1.463730e+003,1.048050e-002
1.465658e+003,1.031994e-002
1.467587e+003,1.006475e-002
1.469515e+003,9.673328e-003
1.471444e+003,9.209483e-003
1.473372e+003,8.882773e-003
1.475301e+003,8.506331e-003
1.477229e+003,7.938803e-003
1.479158e+003,7.328443e-003
1.481086e+003,6.957755e-003
1.483015e+003,6.526701e-003
1.484943e+003,6.018258e-003
1.486872e+003,5.564205e-003
1.488800e+003,5.274366e-003
1.490729e+003,5.204913e-003
1.492657e+003,4.949496e-003
1.494586e+003,4.559771e-003
1.496514e+003,4.350849e-003
1.498443e+003,4.217869e-003
1.500371e+003,4.017104e-003
1.502300e+003,3.849425e-003
1.504228e+003,3.792967e-003
1.506157e+003,3.820644e-003
1.508085e+003,3.637036e-003
1.510014e+003,3.381938e-003
1.511942e+003,3.372154e-003
1.513871e+003,3.458882e-003
1.515799e+003,3.518737e-003
1.517728e+003,3.571284e-003
1.519656e+003,3.675028e-003
1.521585e+003,3.794638e-003
1.523513e+003,3.859889e-003
1.525442e+003,3.950994e-003
1.527370e+003,4.046902e-003
1.529299e+003,4.182205e-003
1.531227e+003,4.296434e-003
1.533156e+003,4.565564e-003
1.535084e+003,4.803333e-003
1.537013e+003,4.879257e-003
1.538941e+003,5.003188e-003
1.540870e+003,5.247737e-003
1.542798e+003,5.528162e-003
1.544727e+003,5.669937e-003
1.546655e+003,5.687762e-003
1.548584e+003,5.880401e-003
1.550512e+003,6.078837e-003
1.552441e+003,6.160126e-003
1.554369e+003,6.243345e-003
1.556298e+003,6.372240e-003
1.558226e+003,6.663284e-003
1.560155e+003,7.054497e-003
1.562083e+003,7.226957e-003
1.564012e+003,7.431132e-003
1.565940e+003,7.606034e-003
1.567869e+003,7.783873e-003
1.569797e+003,8.091088e-003
1.571726e+003,8.103849e-003
1.573654e+003,7.917882e-003
1.575583e+003,7.970086e-003
1.577511e+003,8.016391e-003
1.579440e+003,7.840818e-003
1.581368e+003,7.713005e-003
1.583297e+003,7.624951e-003
1.585225e+003,7.545646e-003
1.587154e+003,7.444851e-003
1.589082e+003,7.354728e-003
1.591010e+003,7.177569e-003
1.592939e+003,7.050827e-003
1.594868e+003,7.038603e-003
1.596796e+003,6.988934e-003
1.598724e+003,6.869215e-003
1.600653e+003,6.714497e-003
1.602582e+003,6.681016e-003
1.604510e+003,6.498616e-003
1.606438e+003,6.189600e-003
1.608367e+003,5.996657e-003
1.610296e+003,5.861190e-003
1.612224e+003,5.601661e-003
1.614152e+003,5.489068e-003
1.616081e+003,5.413038e-003
1.618010e+003,5.201157e-003
1.619938e+003,5.015691e-003
1.621866e+003,4.937833e-003
1.623795e+003,4.747320e-003
1.625724e+003,4.682975e-003
1.627652e+003,4.701062e-003
1.629580e+003,4.568276e-003
1.631509e+003,4.307042e-003
1.633438e+003,4.178525e-003
1.635366e+003,4.120452e-003
1.637294e+003,4.034595e-003
1.639223e+003,3.879245e-003
1.641151e+003,3.686155e-003
1.643080e+003,3.336759e-003
1.645008e+003,2.995985e-003
1.646937e+003,2.859250e-003
1.648865e+003,2.762104e-003
1.650794e+003,2.590842e-003
1.652722e+003,2.583176e-003
1.654651e+003,2.388729e-003
1.656579e+003,2.241794e-003
1.658508e+003,2.284826e-003
1.660436e+003,2.241794e-003
1.662365e+003,2.171957e-003
1.664293e+003,2.192304e-003
1.666222e+003,2.089048e-003
1.668150e+003,2.077229e-003
1.670079e+003,2.092744e-003
1.672007e+003,1.970472e-003
1.673936e+003,1.827338e-003
1.675864e+003,1.660036e-003
1.677793e+003,1.333769e-003
1.679721e+003,1.149914e-003
1.681650e+003,9.845666e-004
1.683578e+003,8.771148e-004
1.685507e+003,6.640829e-004
1.687435e+003,4.142736e-004
1.689364e+003,2.449628e-004
1.691292e+003,1.411077e-004
1.693221e+003,7.982724e-005
1.695149e+003,5.865121e-005
1.697078e+003,1.196635e-004
1.699006e+003,2.929148e-005
1.700935e+003,-3.349722e-005
1.702863e+003,-6.182372e-005
1.704792e+003,-3.644592e-005
1.706720e+003,-5.699017e-006
1.708649e+003,-6.232066e-005
1.710577e+003,-1.576232e-004
1.712506e+003,-1.404325e-004
1.714434e+003,-1.118130e-004
1.716363e+003,-5.897459e-005
1.718291e+003,-3.826813e-005
1.720220e+003,-8.272782e-005
1.722148e+003,-1.457653e-004
1.724077e+003,-1.932610e-004
1.726005e+003,-1.957118e-004
1.727934e+003,-2.495270e-004
1.729862e+003,-3.140965e-004
1.731791e+003,-2.988325e-004
1.733719e+003,-3.704793e-004
1.735648e+003,-4.357921e-004
1.737576e+003,-5.077804e-004
1.739505e+003,-5.713850e-004
1.741433e+003,-5.956396e-004
1.743362e+003,-4.358583e-004
1.745290e+003,-3.398554e-004
1.747219e+003,-2.827401e-004
1.749147e+003,-2.069722e-004
1.751076e+003,-8.170085e-005
1.753004e+003,-1.209887e-004
1.754933e+003,-2.409833e-004
1.756861e+003,-2.035610e-004
1.758790e+003,-2.241602e-004
1.760718e+003,-1.893860e-004
1.762647e+003,-1.887567e-004
1.764575e+003,-2.843295e-004
1.766504e+003,-2.780381e-004
1.768432e+003,-2.283991e-004
1.770361e+003,-2.792302e-004
1.772289e+003,-3.019449e-004
1.774218e+003,-3.108848e-004
1.776146e+003,-3.439276e-004
1.778075e+003,-3.285322e-004
1.780003e+003,-3.381337e-004
1.781932e+003,-4.021935e-004
1.783860e+003,-4.550563e-004
1.785789e+003,-4.017631e-004
1.787717e+003,-3.526349e-004
1.789646e+003,-3.710421e-004
1.791574e+003,-3.526349e-004
1.793503e+003,-2.931373e-004
1.795431e+003,-2.746275e-004
1.797360e+003,-3.138316e-004
1.799288e+003,-3.587266e-004
1.801217e+003,-3.292937e-004
1.803145e+003,-3.031700e-004
1.805074e+003,-2.460499e-004
1.807002e+003,-1.251292e-004
1.808931e+003,-1.498063e-004
1.810859e+003,-2.282667e-004
1.812788e+003,-2.620774e-004
1.814716e+003,-2.006796e-004
1.816645e+003,-1.669303e-004
1.818573e+003,-1.734552e-004
1.820502e+003,-1.972022e-004
1.822430e+003,-2.146886e-004
1.824359e+003,-2.046539e-004
1.826287e+003,-1.177755e-004
1.828216e+003,-1.421880e-004
1.830144e+003,-1.788207e-004
1.832073e+003,-3.282674e-004
1.834001e+003,-3.267112e-004
1.835930e+003,-2.626072e-004
1.837858e+003,-3.045607e-004
1.839787e+003,-3.378358e-004
1.841715e+003,-3.723332e-004
1.843644e+003,-3.348891e-004
1.845572e+003,-3.562105e-004
1.847501e+003,-4.274175e-004
1.849429e+003,-3.693868e-004
1.851358e+003,-2.854884e-004
1.853286e+003,-2.574414e-004
1.855215e+003,-1.963742e-004
1.857143e+003,-2.212790e-004
1.859072e+003,-2.569116e-004
1.861000e+003,-2.452883e-004
1.862929e+003,-3.634939e-004
1.864857e+003,-3.881243e-004
1.866786e+003,-4.192414e-004
1.868714e+003,-3.716711e-004
1.870643e+003,-3.543234e-004
1.872571e+003,-3.211820e-004
1.874500e+003,-2.389632e-004
1.876428e+003,-2.094229e-004
1.878357e+003,-1.949169e-004
1.880285e+003,-1.742170e-004
1.882214e+003,-1.828283e-004
1.884142e+003,-1.579213e-004
1.886071e+003,-2.019713e-004
1.887999e+003,-2.554546e-004
1.889928e+003,-2.764818e-004
1.891856e+003,-2.814818e-004
1.893785e+003,-2.856209e-004
1.895713e+003,-2.985014e-004
1.897642e+003,-2.863162e-004
1.899570e+003,-2.314790e-004
1.901499e+003,-1.196637e-004
1.903427e+003,-1.108855e-004
1.905356e+003,-1.912076e-004
1.907284e+003,-2.479044e-004
1.909213e+003,-2.985676e-004
1.911141e+003,-3.300222e-004
1.913070e+003,-3.521714e-004
1.914998e+003,-2.237628e-004
1.916927e+003,-1.498063e-004
1.918855e+003,-1.594780e-004
1.920784e+003,-1.757405e-004
1.922712e+003,-1.994874e-004
1.924641e+003,-2.364795e-004
1.926569e+003,-1.584512e-004
1.928498e+003,-2.133970e-004
1.930426e+003,-2.705877e-004
1.932355e+003,-3.522045e-004
1.934283e+003,-3.945796e-004
1.936212e+003,-3.456493e-004
1.938140e+003,-3.334323e-004
1.940069e+003,-2.249881e-004
1.941997e+003,-7.557217e-005
1.943926e+003,-9.379234e-005
1.945854e+003,-2.025343e-004
1.947783e+003,-2.259154e-004
1.949711e+003,-2.428046e-004
1.951640e+003,-2.503549e-004
1.953568e+003,-2.268426e-004
1.955497e+003,-2.711506e-004
1.957425e+003,-2.691969e-004
1.959354e+003,-1.576563e-004
1.961282e+003,-1.182724e-004
1.963211e+003,-2.009777e-004
1.965139e+003,-2.743626e-004
1.967068e+003,-3.077724e-004
1.968996e+003,-4.141767e-004
1.970925e+003,-4.057024e-004
1.972853e+003,-2.731043e-004
1.974782e+003,-2.677730e-004
1.976710e+003,-2.887334e-004
1.978639e+003,-2.885679e-004
1.980567e+003,-3.781267e-004
1.982496e+003,-4.400952e-004
1.984424e+003,-4.233791e-004
1.986353e+003,-4.214923e-004
1.988281e+003,-4.316214e-004
1.990210e+003,-4.281127e-004
1.992138e+003,-3.267112e-004
1.994067e+003,-3.000576e-004
1.995995e+003,-3.853104e-004
1.997924e+003,-4.296022e-004
1.999852e+003,-4.355604e-004
2.001781e+003,-4.348653e-004
2.003709e+003,-3.628318e-004
2.005638e+003,-3.920637e-004
2.007566e+003,-3.328695e-004
2.009495e+003,-2.890645e-004
2.011423e+003,-3.629311e-004
2.013352e+003,-2.936671e-004
2.015280e+003,-2.396255e-004
2.017208e+003,-3.129376e-004
2.019137e+003,-2.666471e-004
2.021066e+003,-2.327043e-004
2.022994e+003,-3.013489e-004
2.024922e+003,-3.213475e-004
2.026851e+003,-2.818461e-004
2.028780e+003,-2.601237e-004
2.030708e+003,-2.757533e-004
2.032636e+003,-2.223388e-004
2.034565e+003,-1.667647e-004
2.036494e+003,-2.183647e-004
2.038422e+003,-1.976327e-004
2.040350e+003,-2.276374e-004
2.042279e+003,-2.504874e-004
2.044208e+003,-2.655544e-004
2.046136e+003,-2.626735e-004
2.048064e+003,-1.767010e-004
2.049993e+003,-1.046247e-004
2.051921e+003,-2.075683e-004
2.053850e+003,-2.589978e-004
2.055778e+003,-2.643623e-004
2.057707e+003,-2.233323e-004
2.059635e+003,-1.806423e-004
2.061564e+003,-1.680233e-004
2.063492e+003,-2.082969e-004
2.065421e+003,-2.009446e-004
2.067349e+003,-1.270836e-004
2.069278e+003,-1.465271e-004
2.071206e+003,-1.128068e-004
2.073135e+003,-6.596486e-005
2.075063e+003,-8.123706e-005
2.076992e+003,-1.031671e-004
2.078920e+003,-9.647560e-005
2.080849e+003,-5.652299e-005
2.082777e+003,-7.040413e-005
2.084706e+003,-7.729483e-005
2.086634e+003,-1.220155e-004
2.088563e+003,-1.717991e-004
2.090491e+003,-6.662744e-005
2.092420e+003,-3.551824e-005
2.094348e+003,-4.323777e-005
2.096277e+003,8.813744e-006
2.098205e+003,-1.418114e-005
2.100134e+003,-1.139796e-005
2.102062e+003,7.846850e-005
2.103991e+003,3.969640e-005
2.105919e+003,1.017666e-004
2.107848e+003,1.871482e-004
2.109776e+003,1.463446e-004
2.111705e+003,4.585993e-005
2.113633e+003,7.885973e-006
2.115562e+003,1.171115e-004
2.117490e+003,1.321587e-004
2.119419e+003,1.696794e-004
2.121347e+003,2.151595e-004
2.123276e+003,1.395499e-004
2.125204e+003,1.203927e-004
2.127133e+003,1.610281e-004
2.129061e+003,2.283536e-004
2.130990e+003,2.661147e-004
2.132918e+003,2.178778e-004
2.134847e+003,1.846953e-004
2.136775e+003,2.171485e-004
2.138704e+003,2.140324e-004
2.140632e+003,1.995127e-004
2.142561e+003,1.574815e-004
2.144489e+003,1.695468e-004
2.146418e+003,2.198006e-004
2.148346e+003,3.247024e-004
2.150275e+003,3.402873e-004
2.152203e+003,3.350149e-004
2.154132e+003,3.172417e-004
2.156060e+003,3.054375e-004
2.157989e+003,3.632678e-004
2.159917e+003,3.761016e-004
2.161846e+003,3.058023e-004
2.163774e+003,3.096154e-004
2.165703e+003,3.538831e-004
2.167631e+003,4.455831e-004
2.169560e+003,5.496438e-004
2.171488e+003,5.448664e-004
2.173417e+003,4.573911e-004
2.175345e+003,4.091661e-004
2.177274e+003,4.698628e-004
2.179202e+003,4.701945e-004
2.181131e+003,4.246546e-004
2.183059e+003,4.161972e-004
2.184988e+003,4.405416e-004
2.186916e+003,4.772266e-004
2.188845e+003,4.448203e-004
2.190773e+003,3.108091e-004
2.192702e+003,2.408187e-004
2.194630e+003,3.102122e-004
2.196559e+003,3.403205e-004
2.198487e+003,3.631352e-004
2.200416e+003,3.183360e-004
2.202344e+003,3.448303e-004
2.204273e+003,3.515287e-004
2.206201e+003,3.082891e-004
2.208130e+003,3.548780e-004
2.210058e+003,3.766322e-004
2.211987e+003,3.413484e-004
2.213915e+003,3.143570e-004
2.215844e+003,3.672473e-004
2.217772e+003,4.047220e-004
2.219701e+003,4.503262e-004
2.221629e+003,4.025000e-004
2.223558e+003,3.124338e-004
2.225486e+003,3.483784e-004
2.227415e+003,3.374356e-004
2.229343e+003,3.358771e-004
2.231272e+003,3.266588e-004
2.233200e+003,4.061481e-004
2.235129e+003,4.395466e-004
2.237057e+003,3.447308e-004
2.238986e+003,2.563674e-004
2.240914e+003,2.958220e-004
2.242843e+003,4.423990e-004
2.244771e+003,4.529133e-004
2.246700e+003,4.198123e-004
2.248628e+003,3.899639e-004
2.250557e+003,1.960652e-004
2.252485e+003,1.131012e-004
2.254414e+003,2.193033e-004
2.256342e+003,2.657832e-004
2.258271e+003,2.386969e-004
2.260199e+003,2.553065e-004
2.262128e+003,3.121686e-004
2.264056e+003,3.446645e-004
2.265985e+003,3.186012e-004
2.267913e+003,2.322986e-004
2.269842e+003,2.784815e-004
2.271770e+003,3.205907e-004
2.273699e+003,2.250053e-004
2.275627e+003,1.737565e-004
2.277556e+003,1.884079e-004
2.279484e+003,1.329541e-004
2.281413e+003,1.353405e-004
2.283341e+003,1.176418e-004
2.285270e+003,2.025293e-004
2.287198e+003,3.095159e-004
2.289127e+003,4.066124e-004
2.291055e+003,3.571993e-004
2.292984e+003,3.119365e-004
2.294912e+003,3.360760e-004
2.296841e+003,5.223739e-004
2.298769e+003,7.985683e-004
2.300698e+003,8.633366e-004
2.302626e+003,9.619517e-004
2.304555e+003,1.102110e-003
2.306483e+003,1.321572e-003
2.308412e+003,1.604095e-003
2.310340e+003,1.888799e-003
2.312269e+003,2.312041e-003
2.314197e+003,2.835504e-003
2.316125e+003,3.325741e-003
2.318054e+003,3.771910e-003
2.319983e+003,4.324076e-003
2.321911e+003,5.006909e-003
2.323840e+003,5.639825e-003
2.325768e+003,6.105954e-003
2.327697e+003,6.604609e-003
2.329625e+003,7.270991e-003
2.331553e+003,7.622792e-003
2.333482e+003,7.674321e-003
2.335411e+003,7.764645e-003
2.337339e+003,7.902157e-003
2.339268e+003,7.967758e-003
2.341196e+003,7.779116e-003
2.343125e+003,7.369152e-003
2.345053e+003,6.265262e-003
2.346981e+003,4.409087e-003
2.348910e+003,3.333454e-003
2.350839e+003,4.553778e-003
2.352767e+003,6.838045e-003
2.354696e+003,8.665880e-003
2.356624e+003,9.816429e-003
2.358552e+003,1.050090e-002
2.360481e+003,1.078195e-002
2.362409e+003,1.075148e-002
2.364338e+003,1.045104e-002
2.366267e+003,9.776236e-003
2.368195e+003,8.757154e-003
2.370124e+003,7.577238e-003
2.372052e+003,6.334448e-003
2.373980e+003,5.125110e-003
2.375909e+003,3.909702e-003
2.377838e+003,2.700786e-003
2.379766e+003,1.710064e-003
2.381695e+003,1.072514e-003
2.383623e+003,8.101535e-004
2.385552e+003,7.546867e-004
2.387480e+003,6.754322e-004
2.389408e+003,6.513401e-004
2.391337e+003,6.566828e-004
2.393266e+003,6.142755e-004
2.395194e+003,6.096965e-004
2.397123e+003,6.485527e-004
2.399051e+003,6.760627e-004
2.400979e+003,7.186088e-004
2.402908e+003,6.872133e-004
2.404836e+003,6.489841e-004
2.406765e+003,5.869684e-004
2.408694e+003,6.193853e-004
2.410622e+003,7.634825e-004
2.412551e+003,7.251139e-004
2.414479e+003,7.358342e-004
2.416407e+003,7.826018e-004
2.418336e+003,7.130331e-004
2.420264e+003,6.214757e-004
2.422193e+003,6.525015e-004
2.424122e+003,7.447957e-004
2.426050e+003,7.211644e-004
2.427979e+003,7.261760e-004
2.429907e+003,7.657396e-004
2.431835e+003,7.785853e-004
2.433764e+003,8.271501e-004
2.435692e+003,9.007878e-004
2.437621e+003,9.631140e-004
2.439550e+003,9.817106e-004
2.441478e+003,9.679955e-004
2.443406e+003,9.387735e-004
2.445335e+003,9.885849e-004
2.447263e+003,1.103339e-003
2.449192e+003,1.072979e-003
2.451121e+003,9.844670e-004
2.453049e+003,1.019571e-003
2.454978e+003,1.044115e-003
2.456906e+003,1.056537e-003
2.458834e+003,1.071849e-003
2.460763e+003,1.088159e-003
2.462691e+003,1.035679e-003
2.464620e+003,1.017877e-003
2.466549e+003,1.017345e-003
2.468477e+003,1.074208e-003
2.470406e+003,1.161542e-003
2.472334e+003,1.095201e-003
2.474262e+003,1.065439e-003
2.476191e+003,1.079888e-003
2.478119e+003,1.078924e-003
2.480048e+003,1.095167e-003
2.481977e+003,1.211744e-003
2.483905e+003,1.198454e-003
2.485833e+003,1.161907e-003
2.487762e+003,1.217791e-003
2.489690e+003,1.155130e-003
2.491619e+003,1.213538e-003
2.493547e+003,1.307248e-003
2.495476e+003,1.276109e-003
2.497405e+003,1.258862e-003
2.499333e+003,1.250554e-003
2.501261e+003,1.261221e-003
2.503190e+003,1.330412e-003
2.505118e+003,1.373754e-003
2.507047e+003,1.325560e-003
2.508975e+003,1.282456e-003
2.510904e+003,1.262052e-003
2.512833e+003,1.362287e-003
2.514761e+003,1.402274e-003
2.516689e+003,1.372059e-003
2.518618e+003,1.468695e-003
2.520546e+003,1.507761e-003
2.522475e+003,1.398219e-003
2.524403e+003,1.415803e-003
2.526332e+003,1.491636e-003
2.528260e+003,1.505001e-003
2.530189e+003,1.467565e-003
2.532117e+003,1.444027e-003
2.534046e+003,1.353246e-003
2.535974e+003,1.355938e-003
2.537903e+003,1.344771e-003
2.539831e+003,1.460516e-003
2.541760e+003,1.475943e-003
2.543688e+003,1.481196e-003
2.545617e+003,1.537487e-003
2.547545e+003,1.515508e-003
2.549474e+003,1.430031e-003
2.551402e+003,1.380335e-003
2.553331e+003,1.428934e-003
2.555259e+003,1.504237e-003
2.557188e+003,1.542342e-003
2.559116e+003,1.456627e-003
2.561045e+003,1.436348e-003
2.562973e+003,1.419493e-003
2.564902e+003,1.510953e-003
2.566830e+003,1.576659e-003
2.568759e+003,1.532233e-003
2.570687e+003,1.584707e-003
2.572616e+003,1.672842e-003
2.574544e+003,1.721041e-003
2.576473e+003,1.713856e-003
2.578401e+003,1.676567e-003
2.580330e+003,1.630069e-003
2.582258e+003,1.541510e-003
2.584187e+003,1.588764e-003
2.586115e+003,1.672509e-003
2.588044e+003,1.703145e-003
2.589972e+003,1.703643e-003
2.591901e+003,1.736210e-003
2.593829e+003,1.672509e-003
2.595758e+003,1.629470e-003
2.597686e+003,1.700716e-003
2.599615e+003,1.737142e-003
2.601543e+003,1.763224e-003
2.603472e+003,1.764954e-003
2.605400e+003,1.684517e-003
2.607329e+003,1.687511e-003
2.609257e+003,1.756005e-003
2.611186e+003,1.789441e-003
2.613114e+003,1.899581e-003
2.615043e+003,1.998498e-003
2.616971e+003,1.931830e-003
2.618900e+003,1.964480e-003
2.620828e+003,2.004956e-003
2.622757e+003,2.074832e-003
2.624685e+003,2.064278e-003
2.626614e+003,2.026627e-003
2.628542e+003,2.078993e-003
2.630471e+003,2.171391e-003
2.632399e+003,2.151945e-003
2.634328e+003,2.154642e-003
2.636256e+003,2.203294e-003
2.638185e+003,2.286392e-003
2.640113e+003,2.267373e-003
2.642042e+003,2.236298e-003
2.643970e+003,2.349217e-003
2.645899e+003,2.411618e-003
2.647827e+003,2.483359e-003
2.649756e+003,2.577276e-003
2.651684e+003,2.581976e-003
2.653613e+003,2.492057e-003
2.655541e+003,2.492956e-003
2.657470e+003,2.536148e-003
2.659398e+003,2.602509e-003
2.661327e+003,2.630343e-003
2.663255e+003,2.725126e-003
2.665184e+003,2.739196e-003
2.667112e+003,2.798919e-003
2.669041e+003,2.864787e-003
2.670969e+003,2.895673e-003
2.672898e+003,2.877995e-003
2.674826e+003,2.851846e-003
2.676755e+003,2.900476e-003
2.678683e+003,2.919723e-003
2.680612e+003,2.889136e-003
2.682540e+003,2.923760e-003
2.684469e+003,3.008497e-003
2.686397e+003,3.123285e-003
2.688326e+003,3.200985e-003
2.690254e+003,3.301001e-003
2.692183e+003,3.276796e-003
2.694111e+003,3.171446e-003
2.696040e+003,3.164036e-003
2.697968e+003,3.268516e-003
2.699897e+003,3.408720e-003
2.701825e+003,3.503506e-003
2.703754e+003,3.573990e-003
2.705682e+003,3.587655e-003
2.707611e+003,3.596040e-003
2.709539e+003,3.629050e-003
2.711468e+003,3.638472e-003
2.713396e+003,3.718036e-003
2.715325e+003,3.845213e-003
2.717253e+003,3.887837e-003
2.719182e+003,3.906058e-003
2.721110e+003,3.910538e-003
2.723039e+003,4.108878e-003
2.724967e+003,4.261466e-003
2.726896e+003,4.278130e-003
2.728824e+003,4.399347e-003
2.730753e+003,4.473860e-003
2.732681e+003,4.450193e-003
2.734610e+003,4.558666e-003
2.736538e+003,4.680530e-003
2.738467e+003,4.758409e-003
2.740395e+003,4.872320e-003
2.742324e+003,4.906567e-003
2.744252e+003,4.899965e-003
2.746181e+003,4.988642e-003
2.748109e+003,5.034965e-003
2.750038e+003,5.133861e-003
2.751966e+003,5.268128e-003
2.753895e+003,5.377175e-003
2.755823e+003,5.480545e-003
2.757752e+003,5.601494e-003
2.759680e+003,5.763337e-003
2.761609e+003,5.980061e-003
2.763537e+003,6.271784e-003
2.765466e+003,6.515669e-003
2.767394e+003,6.811690e-003
2.769323e+003,7.116198e-003
2.771251e+003,7.467637e-003
2.773180e+003,7.831169e-003
2.775108e+003,8.297360e-003
2.777037e+003,8.916796e-003
2.778965e+003,9.358254e-003
2.780894e+003,9.961882e-003
2.782822e+003,1.072292e-002
2.784750e+003,1.137726e-002
2.786679e+003,1.210967e-002
2.788608e+003,1.283541e-002
2.790536e+003,1.341632e-002
2.792465e+003,1.415814e-002
2.794393e+003,1.499891e-002
2.796322e+003,1.567799e-002
2.798250e+003,1.632553e-002
2.800178e+003,1.696122e-002
2.802107e+003,1.761561e-002
2.804036e+003,1.821670e-002
2.805964e+003,1.868546e-002
2.807893e+003,1.906910e-002
2.809821e+003,1.934311e-002
2.811750e+003,1.942786e-002
2.813678e+003,1.932687e-002
2.815606e+003,1.921229e-002
2.817535e+003,1.900928e-002
2.819464e+003,1.879423e-002
2.821392e+003,1.847828e-002
2.823321e+003,1.808037e-002
2.825249e+003,1.767986e-002
2.827177e+003,1.716099e-002
2.829106e+003,1.653568e-002
2.831034e+003,1.583958e-002
2.832963e+003,1.520636e-002
2.834892e+003,1.478620e-002
2.836820e+003,1.429287e-002
2.838749e+003,1.366671e-002
2.840677e+003,1.296536e-002
2.842605e+003,1.233617e-002
2.844534e+003,1.160691e-002
2.846462e+003,1.073369e-002
2.848391e+003,1.001498e-002
2.850320e+003,9.528683e-003
2.852248e+003,9.284184e-003
2.854177e+003,9.192494e-003
2.856105e+003,9.138891e-003
2.858033e+003,9.072538e-003
2.859962e+003,9.144033e-003
2.861890e+003,9.092466e-003
2.863819e+003,8.964351e-003
2.865748e+003,9.008868e-003
2.867676e+003,9.195337e-003
2.869604e+003,9.366414e-003
2.871533e+003,9.373929e-003
2.873461e+003,9.527972e-003
2.875390e+003,9.691048e-003
2.877319e+003,9.733606e-003
2.879247e+003,9.890691e-003
2.881176e+003,9.945473e-003
2.883104e+003,1.000664e-002
2.885032e+003,1.014045e-002
2.886961e+003,1.008914e-002
2.888889e+003,9.959745e-003
2.890818e+003,9.853846e-003
2.892747e+003,9.602152e-003
2.894675e+003,9.444696e-003
2.896604e+003,9.407178e-003
2.898532e+003,9.358795e-003
2.900460e+003,9.328259e-003
2.902389e+003,9.271457e-003
2.904317e+003,9.158720e-003
2.906246e+003,9.101636e-003
2.908175e+003,8.952817e-003
2.910103e+003,8.746911e-003
2.912031e+003,8.548435e-003
2.913960e+003,8.238362e-003
2.915888e+003,8.015378e-003
2.917817e+003,8.131397e-003
2.919745e+003,8.477847e-003
2.921674e+003,8.858357e-003
2.923603e+003,9.229621e-003
2.925531e+003,9.534509e-003
2.927459e+003,9.851270e-003
2.929388e+003,1.007374e-002
2.931316e+003,1.031031e-002
2.933245e+003,1.060020e-002
2.935173e+003,1.077608e-002
2.937102e+003,1.083206e-002
2.939031e+003,1.099875e-002
2.940959e+003,1.110098e-002
2.942887e+003,1.098414e-002
2.944816e+003,1.075247e-002
2.946744e+003,1.060923e-002
2.948673e+003,1.044788e-002
2.950601e+003,9.962763e-003
2.952530e+003,9.394447e-003
2.954458e+003,8.899582e-003
2.956387e+003,8.339140e-003
2.958315e+003,7.825873e-003
2.960244e+003,7.205901e-003
2.962172e+003,6.497136e-003
2.964101e+003,5.977004e-003
2.966029e+003,5.497692e-003
2.967958e+003,4.954322e-003
2.969886e+003,4.569180e-003
2.971815e+003,4.211245e-003
2.973743e+003,3.826828e-003
2.975672e+003,3.529159e-003
2.977600e+003,3.330115e-003
2.979529e+003,3.080737e-003
2.981457e+003,2.783746e-003
2.983386e+003,2.503787e-003
2.985314e+003,2.233667e-003
2.987243e+003,2.123841e-003
2.989171e+003,2.085652e-003
2.991100e+003,1.790971e-003
2.993028e+003,1.650557e-003
2.994957e+003,1.609715e-003
2.996885e+003,1.495792e-003
2.998814e+003,1.439838e-003
3.000742e+003,1.366109e-003
3.002671e+003,1.315324e-003
3.004599e+003,1.222742e-003
3.006528e+003,1.269064e-003
3.008456e+003,1.228723e-003
3.010385e+003,1.124300e-003
3.012313e+003,1.058663e-003
3.014242e+003,9.929687e-004
3.016170e+003,1.024121e-003
3.018099e+003,1.027508e-003
3.020027e+003,8.781772e-004
3.021956e+003,8.721347e-004
3.023884e+003,8.629050e-004
3.025813e+003,7.791496e-004
3.027741e+003,6.200158e-004
3.029670e+003,5.554165e-004
3.031598e+003,6.427124e-004
3.033527e+003,6.447698e-004
3.035455e+003,7.082208e-004
3.037384e+003,7.674324e-004
3.039312e+003,6.934524e-004
3.041241e+003,6.157354e-004
3.043169e+003,5.079767e-004
3.045098e+003,4.657166e-004
3.047026e+003,5.239995e-004
3.048955e+003,4.954708e-004
3.050883e+003,4.654181e-004
3.052812e+003,5.398238e-004
3.054740e+003,4.845573e-004
3.056669e+003,4.220676e-004
3.058597e+003,3.006629e-004
3.060526e+003,2.176789e-004
3.062454e+003,3.319643e-004
3.064383e+003,3.779256e-004
3.066311e+003,2.817638e-004
3.068240e+003,3.474168e-004
3.070168e+003,3.708951e-004
3.072097e+003,2.245743e-004
3.074025e+003,6.339004e-005
3.075954e+003,-1.961491e-005
3.077882e+003,-3.140993e-005
3.079811e+003,3.108084e-005
3.081739e+003,4.592621e-005
3.083668e+003,-2.243117e-005
3.085596e+003,-9.733690e-005
3.087525e+003,-1.064135e-004
3.089453e+003,-5.698681e-005
3.091382e+003,-7.272313e-005
3.093310e+003,-4.124992e-005
3.095239e+003,-1.491006e-005
3.097167e+003,-3.256954e-005
3.099096e+003,-4.784292e-005
3.101024e+003,-1.402669e-004
3.102953e+003,-2.273063e-004
3.104881e+003,-2.307835e-004
3.106810e+003,-1.361927e-004
3.108738e+003,-1.278123e-004
3.110667e+003,-6.881395e-005
3.112595e+003,-5.923962e-005
3.114524e+003,-8.127019e-005
3.116452e+003,-2.307504e-004
3.118381e+003,-3.517079e-004
3.120309e+003,-3.131694e-004
3.122238e+003,-2.316114e-004
3.124166e+003,-2.745281e-004
3.126095e+003,-3.378358e-004
3.128023e+003,-4.134154e-004
3.129952e+003,-4.276161e-004
3.131880e+003,-4.180497e-004
3.133809e+003,-3.653148e-004
3.135737e+003,-3.357831e-004
3.137666e+003,-3.075075e-004
3.139594e+003,-2.650908e-004
3.141523e+003,-2.896606e-004
3.143451e+003,-2.149536e-004
3.145380e+003,-2.214777e-004
3.147308e+003,-3.572368e-004
3.149237e+003,-4.209958e-004
3.151165e+003,-3.090637e-004
3.153094e+003,-1.954468e-004
3.155022e+003,-1.367558e-004
3.156951e+003,-1.403331e-004
3.158879e+003,-2.608522e-004
3.160808e+003,-2.667134e-004
3.162736e+003,-1.179080e-004
3.164665e+003,-1.030456e-005
3.166593e+003,-1.028690e-004
3.168522e+003,-2.471759e-004
3.170450e+003,-2.245245e-004
3.172379e+003,-1.220487e-004
3.174307e+003,-8.146896e-005
3.176236e+003,-1.971431e-005
3.178164e+003,8.681205e-006
3.180093e+003,1.023854e-005
3.182021e+003,-8.938644e-005
3.183950e+003,-1.087654e-004
3.185878e+003,-1.367227e-004
3.187807e+003,-1.047023e-005
3.189735e+003,1.341804e-004
3.191664e+003,-7.060290e-005
3.193592e+003,-5.672177e-005
3.195521e+003,2.866189e-005
3.197449e+003,-5.374009e-005
3.199378e+003,-7.215994e-005
3.201306e+003,-4.254202e-005
3.203235e+003,5.954595e-005
3.205163e+003,3.134593e-005
3.207092e+003,-6.175746e-005
3.209020e+003,5.782275e-005
3.210948e+003,7.356380e-005
3.212877e+003,5.308398e-005
3.214806e+003,9.000138e-005
3.216734e+003,1.357051e-004
3.218663e+003,1.714362e-004
3.220591e+003,2.023304e-004
3.222520e+003,3.026523e-004
3.224448e+003,2.430068e-004
3.226376e+003,2.397578e-004
3.228305e+003,4.232948e-004
3.230234e+003,4.415035e-004
3.232162e+003,2.773210e-004
3.234091e+003,3.650586e-004
3.236019e+003,4.090998e-004
3.237948e+003,3.261282e-004
3.239876e+003,5.324258e-004
3.241804e+003,8.538415e-004
3.243733e+003,8.599834e-004
3.245662e+003,8.358479e-004
3.247590e+003,9.900462e-004
3.249519e+003,9.966218e-004
3.251447e+003,9.936993e-004
3.253375e+003,8.845851e-004
3.255304e+003,9.238311e-004
3.257232e+003,1.071916e-003
3.259161e+003,1.115398e-003
3.261090e+003,1.278335e-003
3.263018e+003,1.250687e-003
3.264947e+003,1.100615e-003
3.266875e+003,1.037572e-003
3.268803e+003,1.149216e-003
3.270732e+003,1.301964e-003
3.272660e+003,1.365112e-003
3.274589e+003,1.377776e-003
3.276518e+003,1.382064e-003
3.278446e+003,1.404900e-003
3.280375e+003,1.442464e-003
3.282303e+003,1.488444e-003
3.284231e+003,1.534195e-003
3.286160e+003,1.365045e-003
3.288088e+003,1.287507e-003
3.290017e+003,1.116328e-003
3.291946e+003,1.119816e-003
3.293874e+003,1.250488e-003
3.295802e+003,1.192706e-003
3.297731e+003,1.093174e-003
3.299659e+003,1.074174e-003
3.301588e+003,1.031992e-003
3.303516e+003,9.779580e-004
3.305445e+003,8.694454e-004
3.307374e+003,7.239523e-004
3.309302e+003,5.780433e-004
3.311230e+003,5.991452e-004
3.313159e+003,6.178922e-004
3.315087e+003,4.922863e-004
3.317016e+003,4.918218e-004
3.318944e+003,4.315533e-004
3.320873e+003,2.979441e-004
3.322802e+003,1.745189e-004
3.324730e+003,4.970109e-007
3.326658e+003,-1.267192e-004
3.328587e+003,-8.484798e-005
3.330515e+003,-1.622271e-004
3.332444e+003,-3.634277e-004
3.334372e+003,-3.956059e-004
3.336301e+003,-3.070109e-004
3.338229e+003,-2.514808e-004
3.340158e+003,-3.210827e-004
3.342086e+003,-3.344587e-004
3.344015e+003,-4.968257e-004
3.345943e+003,-5.742969e-004
3.347872e+003,-5.238644e-004
3.349800e+003,-5.784332e-004
3.351729e+003,-6.373624e-004
3.353657e+003,-6.969782e-004
3.355586e+003,-7.483498e-004
3.357514e+003,-7.606543e-004
3.359443e+003,-8.537534e-004
3.361371e+003,-9.283506e-004
3.363300e+003,-8.815635e-004
3.365229e+003,-8.275620e-004
3.367157e+003,-1.007927e-003
3.369085e+003,-1.302763e-003
3.371014e+003,-1.383361e-003
3.372942e+003,-1.211016e-003
3.374871e+003,-1.272700e-003
3.376799e+003,-1.281521e-003
3.378728e+003,-1.478209e-003
3.380656e+003,-1.730353e-003
3.382585e+003,-1.907737e-003
3.384513e+003,-1.951808e-003
3.386442e+003,-1.921493e-003
3.388370e+003,-2.010353e-003
3.390299e+003,-2.073277e-003
3.392227e+003,-1.959889e-003
3.394156e+003,-2.090589e-003
3.396084e+003,-2.123002e-003
3.398013e+003,-2.273825e-003
3.399941e+003,-2.428944e-003
3.401870e+003,-2.393292e-003
3.403798e+003,-2.396851e-003
3.405727e+003,-2.340862e-003
3.407655e+003,-2.293271e-003
3.409584e+003,-2.324812e-003
3.411512e+003,-2.412634e-003
3.413441e+003,-2.464726e-003
3.415369e+003,-2.349167e-003
3.417298e+003,-2.333447e-003
3.419226e+003,-2.469206e-003
3.421155e+003,-2.449768e-003
3.423083e+003,-2.308465e-003
3.425012e+003,-2.321286e-003
3.426940e+003,-2.466834e-003
3.428869e+003,-2.554035e-003
3.430797e+003,-2.608448e-003
3.432726e+003,-2.593725e-003
3.434654e+003,-2.495003e-003
3.436583e+003,-2.558053e-003
3.438511e+003,-2.656729e-003
3.440440e+003,-2.611181e-003
3.442368e+003,-2.823398e-003
3.444297e+003,-3.021857e-003
3.446225e+003,-2.947092e-003
3.448154e+003,-2.767992e-003
3.450082e+003,-2.681526e-003
3.452011e+003,-2.716299e-003
3.453939e+003,-2.765391e-003
3.455868e+003,-2.851840e-003
3.457796e+003,-2.800420e-003
3.459725e+003,-2.861089e-003
3.461653e+003,-2.813885e-003
3.463582e+003,-2.576795e-003
3.465510e+003,-2.742738e-003
3.467439e+003,-2.945347e-003
3.469367e+003,-2.896802e-003
3.471296e+003,-2.845980e-003
3.473224e+003,-2.791729e-003
3.475153e+003,-2.845223e-003
3.477081e+003,-2.959367e-003
3.479010e+003,-3.001390e-003
3.480938e+003,-2.982765e-003
3.482867e+003,-3.097826e-003
3.484795e+003,-2.950119e-003
3.486724e+003,-2.844861e-003
3.488652e+003,-2.961736e-003
3.490581e+003,-2.911350e-003
3.492509e+003,-2.925864e-003
3.494438e+003,-3.012907e-003
3.496366e+003,-2.927839e-003
3.498295e+003,-2.867673e-003
3.500223e+003,-2.838409e-003
3.502152e+003,-2.839924e-003
3.504080e+003,-2.860266e-003
3.506009e+003,-2.924877e-003
3.507937e+003,-2.981448e-003
3.509866e+003,-2.997013e-003
3.511794e+003,-2.925173e-003
3.513723e+003,-2.889594e-003
3.515651e+003,-3.046172e-003
3.517580e+003,-2.995302e-003
3.519508e+003,-2.914444e-003
3.521437e+003,-3.116907e-003
3.523365e+003,-3.322925e-003
3.525294e+003,-3.252422e-003
3.527222e+003,-3.095359e-003
3.529151e+003,-3.137105e-003
3.531079e+003,-3.357811e-003
3.533008e+003,-3.368694e-003
3.534936e+003,-3.244726e-003
3.536865e+003,-3.142664e-003
3.538793e+003,-3.229203e-003
3.540722e+003,-3.342226e-003
3.542650e+003,-3.345021e-003
3.544579e+003,-3.417285e-003
3.546507e+003,-3.234399e-003
3.548436e+003,-3.116709e-003
3.550364e+003,-3.169802e-003
3.552293e+003,-3.192958e-003
3.554221e+003,-3.232294e-003
3.556150e+003,-3.273699e-003
3.558078e+003,-3.253310e-003
3.560007e+003,-3.241799e-003
3.561935e+003,-3.364025e-003
3.563864e+003,-3.350446e-003
3.565792e+003,-3.306944e-003
3.567721e+003,-3.284123e-003
3.569649e+003,-3.307865e-003
3.571578e+003,-3.395061e-003
3.573506e+003,-3.325589e-003
3.575435e+003,-3.280999e-003
3.577363e+003,-3.368529e-003
3.579292e+003,-3.315001e-003
3.581220e+003,-3.206378e-003
3.583149e+003,-3.211673e-003
3.585077e+003,-3.311351e-003
3.587006e+003,-3.428594e-003
3.588934e+003,-3.561711e-003
3.590863e+003,-3.509389e-003
3.592791e+003,-3.484179e-003
3.594720e+003,-3.521550e-003
3.596648e+003,-3.549682e-003
3.598577e+003,-3.555335e-003
3.600505e+003,-3.447199e-003
3.602434e+003,-3.401045e-003
3.604362e+003,-3.494138e-003
3.606291e+003,-3.641397e-003
3.608219e+003,-3.571865e-003
3.610148e+003,-3.573410e-003
3.612076e+003,-3.624771e-003
3.614005e+003,-3.674352e-003
3.615933e+003,-3.730661e-003
3.617862e+003,-3.821090e-003
3.619790e+003,-3.926637e-003
3.621719e+003,-3.833406e-003
3.623647e+003,-3.725898e-003
3.625576e+003,-3.578536e-003
3.627504e+003,-3.458376e-003
3.629433e+003,-3.234070e-003
3.631361e+003,-3.527926e-003
3.633290e+003,-3.804306e-003
3.635218e+003,-3.771788e-003
3.637146e+003,-3.654704e-003
3.639075e+003,-3.759011e-003
3.641004e+003,-4.007077e-003
3.642932e+003,-4.054842e-003
3.644861e+003,-4.030156e-003
3.646789e+003,-4.008489e-003
3.648718e+003,-3.987084e-003
3.650646e+003,-3.981863e-003
3.652574e+003,-4.160168e-003
3.654503e+003,-4.214544e-003
3.656432e+003,-4.053398e-003
3.658360e+003,-4.077064e-003
3.660289e+003,-4.127447e-003
3.662217e+003,-4.041646e-003
3.664146e+003,-4.115927e-003
3.666074e+003,-4.222682e-003
3.668002e+003,-4.286926e-003
3.669931e+003,-4.285581e-003
3.671860e+003,-4.175921e-003
3.673788e+003,-4.143168e-003
3.675717e+003,-4.099221e-003
3.677645e+003,-4.129449e-003
3.679573e+003,-4.187669e-003
3.681502e+003,-4.223798e-003
3.683430e+003,-4.129942e-003
3.685359e+003,-4.107426e-003
3.687288e+003,-4.130992e-003
3.689216e+003,-4.057731e-003
3.691145e+003,-4.053102e-003
3.693073e+003,-4.084778e-003
3.695001e+003,-4.132534e-003
3.696930e+003,-3.929625e-003
3.698858e+003,-3.752178e-003
3.700787e+003,-3.739334e-003
3.702716e+003,-3.783679e-003
3.704644e+003,-3.755824e-003
3.706573e+003,-3.662130e-003
3.708501e+003,-3.850648e-003
3.710429e+003,-3.835738e-003
3.712358e+003,-3.916031e-003
3.714286e+003,-4.304249e-003
3.716215e+003,-4.446839e-003
3.718144e+003,-4.192296e-003
3.720072e+003,-3.984654e-003
3.722000e+003,-3.944926e-003
3.723929e+003,-3.994273e-003
3.725857e+003,-4.081365e-003
3.727786e+003,-4.209983e-003
3.729714e+003,-4.114384e-003
3.731643e+003,-4.033800e-003
3.733572e+003,-3.916392e-003
3.735500e+003,-3.818627e-003
3.737428e+003,-3.836296e-003
3.739357e+003,-3.992730e-003
3.741285e+003,-3.932383e-003
3.743214e+003,-3.639196e-003
3.745142e+003,-3.575020e-003
3.747071e+003,-3.837577e-003
3.749000e+003,-3.689563e-003
3.750928e+003,-3.555138e-003
3.752856e+003,-3.684997e-003
3.754785e+003,-3.762427e-003
3.756713e+003,-3.875607e-003
3.758642e+003,-3.707731e-003
3.760570e+003,-3.437075e-003
3.762499e+003,-3.550734e-003
3.764427e+003,-3.834129e-003
3.766356e+003,-3.731647e-003
3.768284e+003,-3.697974e-003
3.770213e+003,-3.738775e-003
3.772141e+003,-3.733191e-003
3.774070e+003,-3.675075e-003
3.775998e+003,-3.630784e-003
3.777927e+003,-3.652010e-003
3.779855e+003,-3.525559e-003
3.781784e+003,-3.635023e-003
3.783712e+003,-3.724650e-003
3.785641e+003,-3.776091e-003
3.787569e+003,-3.784664e-003
3.789498e+003,-3.958552e-003
3.791426e+003,-4.006880e-003
3.793355e+003,-3.867331e-003
3.795283e+003,-3.663969e-003
3.797212e+003,-3.605055e-003
3.799140e+003,-3.793172e-003
3.801069e+003,-3.923912e-003
3.802997e+003,-4.057402e-003
3.804926e+003,-4.016532e-003
3.806854e+003,-3.814160e-003
3.808783e+003,-3.859220e-003
3.810711e+003,-3.799084e-003
3.812640e+003,-3.777175e-003
3.814568e+003,-4.072272e-003
3.816497e+003,-3.849072e-003
3.818425e+003,-3.717882e-003
3.820354e+003,-3.731450e-003
3.822282e+003,-3.780920e-003
3.824211e+003,-4.088225e-003
3.826139e+003,-4.145400e-003
3.828068e+003,-4.043090e-003
3.829996e+003,-3.813799e-003
3.831925e+003,-3.771986e-003
3.833853e+003,-3.964856e-003
3.835782e+003,-4.038593e-003
3.837710e+003,-3.720412e-003
3.839639e+003,-4.002481e-003
3.841567e+003,-4.205914e-003
3.843496e+003,-4.012002e-003
3.845424e+003,-4.079658e-003
3.847353e+003,-4.307923e-003
3.849281e+003,-4.090883e-003
3.851210e+003,-3.731187e-003
3.853138e+003,-3.603544e-003
3.855067e+003,-3.571767e-003
3.856995e+003,-3.877643e-003
3.858924e+003,-4.133060e-003
3.860852e+003,-4.202173e-003
3.862781e+003,-4.093509e-003
3.864709e+003,-4.002481e-003
3.866638e+003,-4.168373e-003
3.868566e+003,-4.125708e-003
3.870495e+003,-3.869630e-003
3.872423e+003,-3.907493e-003
3.874352e+003,-3.932810e-003
3.876280e+003,-3.962722e-003
3.878209e+003,-3.928147e-003
3.880137e+003,-3.889104e-003
3.882066e+003,-4.001430e-003
3.883994e+003,-4.234003e-003
3.885923e+003,-4.211493e-003
3.887851e+003,-4.189868e-003
3.889780e+003,-4.184092e-003
3.891708e+003,-4.039315e-003
3.893637e+003,-4.099614e-003
3.895565e+003,-4.388883e-003
3.897494e+003,-4.465598e-003
3.899422e+003,-4.264517e-003
3.901351e+003,-4.301230e-003
3.903279e+003,-4.401741e-003
3.905208e+003,-4.311926e-003
3.907136e+003,-4.315633e-003
3.909065e+003,-4.266683e-003
3.910993e+003,-4.229606e-003
3.912922e+003,-4.083564e-003
3.914850e+003,-3.979992e-003
3.916779e+003,-3.989250e-003
3.918707e+003,-4.131714e-003
3.920636e+003,-4.244995e-003
3.922564e+003,-4.221566e-003
3.924493e+003,-4.284761e-003
3.926421e+003,-4.154490e-003
3.928350e+003,-4.224388e-003
3.930278e+003,-4.411253e-003
3.932207e+003,-4.376058e-003
3.934135e+003,-4.356015e-003
3.936064e+003,-4.366644e-003
3.937992e+003,-4.307923e-003
3.939921e+003,-4.266420e-003
3.941849e+003,-4.353096e-003
3.943778e+003,-4.379765e-003
3.945706e+003,-4.245257e-003
3.947635e+003,-4.287484e-003
3.949563e+003,-4.283580e-003
3.951492e+003,-4.215594e-003
3.953420e+003,-4.164598e-003
3.955349e+003,-4.314616e-003
3.957277e+003,-4.388719e-003
3.959206e+003,-4.400035e-003
3.961134e+003,-4.439131e-003
3.963063e+003,-4.251196e-003
3.964991e+003,-4.183304e-003
3.966920e+003,-4.182385e-003
3.968848e+003,-3.925554e-003
3.970777e+003,-3.893242e-003
3.972705e+003,-4.111037e-003
3.974634e+003,-4.186586e-003
3.976562e+003,-4.190983e-003
3.978491e+003,-4.181827e-003
3.980419e+003,-4.145629e-003
3.982348e+003,-4.077097e-003
3.984276e+003,-4.043648e-003
3.986205e+003,-4.199417e-003
3.988133e+003,-4.152390e-003
3.990062e+003,-4.112940e-003
3.991990e+003,-4.209163e-003
3.993919e+003,-4.273639e-003
3.995847e+003,-4.372122e-003
3.997776e+003,-4.241746e-003
3.999704e+003,-4.176084e-003
4.001633e+003,0.000000e+000
