3.991989e+002,1.019654e-004
4.011274e+002,1.735346e-003
4.030559e+002,-9.076261e-003
4.049844e+002,-1.039518e-002
4.069129e+002,-7.300219e-003
4.088414e+002,-3.295600e-003
4.107699e+002,-5.427167e-003
4.126984e+002,-6.409629e-003
4.146269e+002,-7.823557e-003
4.165554e+002,-9.581616e-003
4.184839e+002,-6.028943e-003
4.204124e+002,-4.956689e-003
4.223409e+002,-3.081738e-003
4.242694e+002,-2.049467e-003
4.261979e+002,-5.934365e-003
4.281264e+002,-8.583410e-003
4.300549e+002,-1.022100e-002
4.319834e+002,-1.512212e-002
4.339119e+002,-1.452532e-002
4.358404e+002,-6.773443e-003
4.377689e+002,-4.940637e-003
4.396974e+002,-1.015834e-002
4.416259e+002,-1.281937e-002
4.435544e+002,-9.778015e-003
4.454829e+002,-6.745910e-003
4.474114e+002,-2.129168e-003
4.493399e+002,-5.442644e-003
4.512684e+002,-1.207747e-002
4.531969e+002,-1.217111e-002
4.551254e+002,-6.790765e-003
4.570539e+002,-5.242081e-003
4.589824e+002,-8.617161e-003
4.609109e+002,-9.527518e-003
4.628394e+002,-8.588023e-003
4.647679e+002,-9.179890e-003
4.666964e+002,-9.748501e-003
4.686249e+002,-1.262695e-002
4.705533e+002,-1.244291e-002
4.724819e+002,-1.034481e-002
4.744103e+002,-1.131148e-002
4.763389e+002,-1.239613e-002
4.782673e+002,-1.201114e-002
4.801959e+002,-1.055144e-002
4.821243e+002,-7.636234e-003
4.840529e+002,-1.129611e-002
4.859813e+002,-1.572672e-002
4.879099e+002,-1.473971e-002
4.898383e+002,-1.212932e-002
4.917668e+002,-1.295643e-002
4.936953e+002,-1.146469e-002
4.956238e+002,-8.558655e-003
4.975523e+002,-9.790746e-003
4.994808e+002,-1.060955e-002
5.014093e+002,-1.075748e-002
5.033378e+002,-1.135909e-002
5.052663e+002,-1.218944e-002
5.071948e+002,-1.329051e-002
5.091233e+002,-1.264546e-002
5.110518e+002,-1.314844e-002
5.129803e+002,-1.448927e-002
5.149088e+002,-1.509674e-002
5.168373e+002,-1.406056e-002
5.187658e+002,-1.414617e-002
5.206943e+002,-1.365207e-002
5.226228e+002,-1.341643e-002
5.245513e+002,-1.439350e-002
5.264798e+002,-1.442472e-002
5.284083e+002,-1.351594e-002
5.303368e+002,-1.484840e-002
5.322653e+002,-1.497764e-002
5.341938e+002,-1.512839e-002
5.361223e+002,-1.530617e-002
5.380508e+002,-1.525317e-002
5.399792e+002,-1.368428e-002
5.419078e+002,-1.451321e-002
5.438363e+002,-1.574430e-002
5.457648e+002,-1.535837e-002
5.476932e+002,-1.507293e-002
5.496218e+002,-1.523321e-002
5.515503e+002,-1.477327e-002
5.534788e+002,-1.447991e-002
5.554072e+002,-1.308485e-002
5.573358e+002,-1.266914e-002
5.592643e+002,-1.260992e-002
5.611927e+002,-1.344617e-002
5.631212e+002,-1.347730e-002
5.650497e+002,-1.359453e-002
5.669783e+002,-1.332389e-002
5.689067e+002,-1.231455e-002
5.708352e+002,-1.178144e-002
5.727637e+002,-1.384616e-002
5.746923e+002,-1.551426e-002
5.766207e+002,-1.394423e-002
5.785492e+002,-1.407702e-002
5.804777e+002,-2.633234e-002
5.824063e+002,-2.666667e-002
5.843347e+002,-1.508631e-002
5.862632e+002,-1.209474e-002
5.881917e+002,-1.240157e-002
5.901202e+002,-1.407506e-002
5.920487e+002,-1.598389e-002
5.939772e+002,-1.457188e-002
5.959057e+002,-1.287969e-002
5.978342e+002,-1.378832e-002
5.997627e+002,-1.343243e-002
6.016912e+002,-1.283758e-002
6.036197e+002,-1.222165e-002
6.055482e+002,-1.062591e-002
6.074767e+002,-8.658640e-003
6.094052e+002,-7.181996e-003
6.113337e+002,-6.224701e-003
6.132622e+002,-7.272230e-003
6.151907e+002,-7.580135e-003
6.171192e+002,-7.137540e-003
6.190477e+002,-7.883236e-003
6.209762e+002,-8.412209e-003
6.229047e+002,-1.041155e-002
6.248332e+002,-1.367159e-002
6.267617e+002,-1.593068e-002
6.286902e+002,-1.664974e-002
6.306187e+002,-1.605207e-002
6.325472e+002,-1.526229e-002
6.344756e+002,-1.469611e-002
6.364042e+002,-1.502975e-002
6.383326e+002,-1.532649e-002
6.402612e+002,-1.546579e-002
6.421896e+002,-1.521145e-002
6.441182e+002,-1.515319e-002
6.460466e+002,-1.553872e-002
6.479752e+002,-1.556560e-002
6.499036e+002,-1.565539e-002
6.518322e+002,-1.591276e-002
6.537606e+002,-1.591187e-002
6.556891e+002,-1.581657e-002
6.576177e+002,-1.566894e-002
6.595461e+002,-1.539010e-002
6.614746e+002,-1.618399e-002
6.634031e+002,-1.693979e-002
6.653317e+002,-1.638930e-002
6.672601e+002,-1.411605e-002
6.691886e+002,-1.444245e-002
6.711171e+002,-1.579047e-002
6.730457e+002,-1.538079e-002
6.749741e+002,-1.552699e-002
6.769026e+002,-1.584664e-002
6.788311e+002,-1.561256e-002
6.807596e+002,-1.523701e-002
6.826881e+002,-1.488336e-002
6.846166e+002,-1.493107e-002
6.865451e+002,-1.481407e-002
6.884736e+002,-1.447129e-002
6.904021e+002,-1.410053e-002
6.923306e+002,-1.428681e-002
6.942591e+002,-1.416095e-002
6.961876e+002,-1.522102e-002
6.981161e+002,-1.563973e-002
7.000446e+002,-1.421973e-002
7.019731e+002,-1.391195e-002
7.039016e+002,-1.423086e-002
7.058301e+002,-1.409100e-002
7.077585e+002,-1.375015e-002
7.096871e+002,-1.323337e-002
7.116156e+002,-1.288319e-002
7.135441e+002,-1.349593e-002
7.154725e+002,-1.392661e-002
7.174011e+002,-1.409796e-002
7.193296e+002,-1.414954e-002
7.212581e+002,-1.416458e-002
7.231865e+002,-1.418991e-002
7.251151e+002,-1.418767e-002
7.270436e+002,-1.360959e-002
7.289720e+002,-1.322186e-002
7.309005e+002,-1.299100e-002
7.328290e+002,-1.284983e-002
7.347576e+002,-1.316069e-002
7.366860e+002,-1.364058e-002
7.386145e+002,-1.348809e-002
7.405430e+002,-1.312253e-002
7.424716e+002,-1.284485e-002
7.444000e+002,-1.257123e-002
7.463285e+002,-1.234064e-002
7.482570e+002,-1.215219e-002
7.501855e+002,-1.189600e-002
7.521140e+002,-1.108567e-002
7.540425e+002,-1.062170e-002
7.559710e+002,-1.107779e-002
7.578995e+002,-1.073460e-002
7.598280e+002,-1.062620e-002
7.617565e+002,-1.061899e-002
7.636850e+002,-1.038201e-002
7.656135e+002,-1.015511e-002
7.675420e+002,-9.920212e-003
7.694705e+002,-1.018139e-002
7.713990e+002,-1.060356e-002
7.733275e+002,-1.078816e-002
7.752560e+002,-1.052101e-002
7.771844e+002,-1.031035e-002
7.791130e+002,-1.062762e-002
7.810415e+002,-1.095577e-002
7.829700e+002,-1.146495e-002
7.848984e+002,-1.143826e-002
7.868270e+002,-1.129898e-002
7.887555e+002,-1.151784e-002
7.906840e+002,-1.203425e-002
7.926124e+002,-1.210702e-002
7.945410e+002,-1.228733e-002
7.964695e+002,-1.277594e-002
7.983979e+002,-1.300145e-002
8.003264e+002,-1.290953e-002
8.022549e+002,-1.265727e-002
8.041835e+002,-1.275136e-002
8.061119e+002,-1.285485e-002
8.080404e+002,-1.274611e-002
8.099689e+002,-1.260960e-002
8.118975e+002,-1.230453e-002
8.138259e+002,-1.217201e-002
8.157545e+002,-1.246349e-002
8.176830e+002,-1.227348e-002
8.196115e+002,-1.243155e-002
8.215399e+002,-1.272204e-002
8.234684e+002,-1.244275e-002
8.253970e+002,-1.191248e-002
8.273254e+002,-1.139966e-002
8.292539e+002,-1.126644e-002
8.311824e+002,-1.149722e-002
8.331110e+002,-1.146108e-002
8.350394e+002,-1.157814e-002
8.369679e+002,-1.139321e-002
8.388964e+002,-1.096815e-002
8.408250e+002,-1.100743e-002
8.427534e+002,-1.148170e-002
8.446819e+002,-1.181640e-002
8.466104e+002,-1.173001e-002
8.485389e+002,-1.172294e-002
8.504674e+002,-1.184558e-002
8.523959e+002,-1.197505e-002
8.543244e+002,-1.182981e-002
8.562529e+002,-1.172830e-002
8.581814e+002,-1.189555e-002
8.601099e+002,-1.204482e-002
8.620384e+002,-1.235542e-002
8.639669e+002,-1.237490e-002
8.658954e+002,-1.231133e-002
8.678239e+002,-1.259959e-002
8.697524e+002,-1.265704e-002
8.716809e+002,-1.269173e-002
8.736094e+002,-1.293729e-002
8.755378e+002,-1.320389e-002
8.774664e+002,-1.299556e-002
8.793949e+002,-1.285527e-002
8.813234e+002,-1.303798e-002
8.832518e+002,-1.305103e-002
8.851804e+002,-1.301138e-002
8.871089e+002,-1.287927e-002
8.890374e+002,-1.299868e-002
8.909658e+002,-1.294990e-002
8.928943e+002,-1.270998e-002
8.948229e+002,-1.252028e-002
8.967513e+002,-1.244700e-002
8.986798e+002,-1.253190e-002
9.006083e+002,-1.264143e-002
9.025369e+002,-1.257893e-002
9.044653e+002,-1.234334e-002
9.063938e+002,-1.233729e-002
9.083223e+002,-1.240482e-002
9.102509e+002,-1.264481e-002
9.121793e+002,-1.241525e-002
9.141078e+002,-1.232234e-002
9.160364e+002,-1.278163e-002
9.179648e+002,-1.290960e-002
9.198933e+002,-1.301148e-002
9.218218e+002,-1.303389e-002
9.237504e+002,-1.327576e-002
9.256788e+002,-1.348087e-002
9.276073e+002,-1.338468e-002
9.295358e+002,-1.362292e-002
9.314644e+002,-1.380453e-002
9.333928e+002,-1.372608e-002
9.353213e+002,-1.380639e-002
9.372498e+002,-1.390896e-002
9.391783e+002,-1.402251e-002
9.411068e+002,-1.380032e-002
9.430353e+002,-1.362019e-002
9.449637e+002,-1.360747e-002
9.468923e+002,-1.352233e-002
9.488208e+002,-1.372206e-002
9.507493e+002,-1.360066e-002
9.526777e+002,-1.359614e-002
9.546063e+002,-1.373150e-002
9.565348e+002,-1.376466e-002
9.584633e+002,-1.379474e-002
9.603917e+002,-1.389349e-002
9.623203e+002,-1.381085e-002
9.642488e+002,-1.394888e-002
9.661772e+002,-1.416560e-002
9.681057e+002,-1.417769e-002
9.700343e+002,-1.430249e-002
9.719628e+002,-1.424840e-002
9.738912e+002,-1.424423e-002
9.758197e+002,-1.459674e-002
9.777483e+002,-1.477122e-002
9.796768e+002,-1.455775e-002
9.816052e+002,-1.465021e-002
9.835337e+002,-1.486575e-002
9.854623e+002,-1.482083e-002
9.873907e+002,-1.482771e-002
9.893192e+002,-1.488445e-002
9.912477e+002,-1.497780e-002
9.931763e+002,-1.501237e-002
9.951047e+002,-1.501676e-002
9.970332e+002,-1.500655e-002
9.989617e+002,-1.487459e-002
1.000890e+003,-1.479194e-002
1.002819e+003,-1.456121e-002
1.004747e+003,-1.445376e-002
1.006676e+003,-1.452731e-002
1.008604e+003,-1.430496e-002
1.010533e+003,-1.389173e-002
1.012461e+003,-1.365564e-002
1.014390e+003,-1.350120e-002
1.016318e+003,-1.317786e-002
1.018247e+003,-1.296865e-002
1.020175e+003,-1.283825e-002
1.022104e+003,-1.251947e-002
1.024032e+003,-1.191886e-002
1.025961e+003,-1.121326e-002
1.027889e+003,-1.087739e-002
1.029818e+003,-1.057938e-002
1.031746e+003,-1.018071e-002
1.033675e+003,-9.643030e-003
1.035603e+003,-9.243178e-003
1.037532e+003,-8.847794e-003
1.039460e+003,-8.353026e-003
1.041389e+003,-8.054286e-003
1.043317e+003,-7.800874e-003
1.045246e+003,-7.480130e-003
1.047174e+003,-7.364367e-003
1.049103e+003,-7.403458e-003
1.051031e+003,-7.569944e-003
1.052960e+003,-7.345668e-003
1.054888e+003,-7.204450e-003
1.056817e+003,-7.250691e-003
1.058745e+003,-7.349186e-003
1.060674e+003,-7.269102e-003
1.062602e+003,-7.036617e-003
1.064531e+003,-7.196303e-003
1.066459e+003,-7.351369e-003
1.068388e+003,-7.267277e-003
1.070316e+003,-7.235571e-003
1.072245e+003,-7.095296e-003
1.074173e+003,-7.059666e-003
1.076102e+003,-7.285719e-003
1.078030e+003,-7.368439e-003
1.079959e+003,-7.512143e-003
1.081887e+003,-7.493874e-003
1.083816e+003,-7.419582e-003
1.085744e+003,-7.397073e-003
1.087673e+003,-7.413327e-003
1.089601e+003,-7.406389e-003
1.091530e+003,-7.338142e-003
1.093458e+003,-7.415771e-003
1.095387e+003,-7.498400e-003
1.097315e+003,-7.417041e-003
1.099244e+003,-7.312632e-003
1.101172e+003,-7.334135e-003
1.103101e+003,-7.542070e-003
1.105029e+003,-7.513218e-003
1.106958e+003,-7.519926e-003
1.108886e+003,-7.524323e-003
1.110815e+003,-7.583880e-003
1.112743e+003,-7.656549e-003
1.114672e+003,-7.711075e-003
1.116600e+003,-7.407171e-003
1.118529e+003,-7.403490e-003
1.120457e+003,-7.676895e-003
1.122386e+003,-7.605500e-003
1.124314e+003,-7.537283e-003
1.126243e+003,-7.678523e-003
1.128171e+003,-7.866934e-003
1.130100e+003,-7.751762e-003
1.132028e+003,-7.917204e-003
1.133957e+003,-8.227807e-003
1.135885e+003,-8.392028e-003
1.137814e+003,-8.744638e-003
1.139742e+003,-9.356949e-003
1.141671e+003,-9.607674e-003
1.143599e+003,-9.775099e-003
1.145528e+003,-1.010024e-002
1.147456e+003,-1.050302e-002
1.149385e+003,-1.083189e-002
1.151313e+003,-1.106848e-002
1.153242e+003,-1.124116e-002
1.155170e+003,-1.128197e-002
1.157099e+003,-1.137236e-002
1.159027e+003,-1.147050e-002
1.160956e+003,-1.148099e-002
1.162884e+003,-1.145762e-002
1.164813e+003,-1.170656e-002
1.166741e+003,-1.188536e-002
1.168670e+003,-1.190513e-002
1.170598e+003,-1.189907e-002
1.172526e+003,-1.194104e-002
1.174455e+003,-1.196467e-002
1.176384e+003,-1.181708e-002
1.178312e+003,-1.167908e-002
1.180240e+003,-1.182401e-002
1.182169e+003,-1.193485e-002
1.184098e+003,-1.212500e-002
1.186026e+003,-1.213969e-002
1.187954e+003,-1.216843e-002
1.189883e+003,-1.233710e-002
1.191812e+003,-1.247057e-002
1.193740e+003,-1.260246e-002
1.195668e+003,-1.283205e-002
1.197597e+003,-1.303566e-002
1.199526e+003,-1.312974e-002
1.201454e+003,-1.296688e-002
1.203382e+003,-1.284710e-002
1.205311e+003,-1.298691e-002
1.207240e+003,-1.316336e-002
1.209168e+003,-1.319290e-002
1.211096e+003,-1.309691e-002
1.213025e+003,-1.290320e-002
1.214953e+003,-1.286183e-002
1.216882e+003,-1.299109e-002
1.218810e+003,-1.312212e-002
1.220739e+003,-1.313944e-002
1.222667e+003,-1.303389e-002
1.224596e+003,-1.286421e-002
1.226524e+003,-1.278392e-002
1.228453e+003,-1.274447e-002
1.230381e+003,-1.275702e-002
1.232310e+003,-1.273530e-002
1.234238e+003,-1.275065e-002
1.236167e+003,-1.273002e-002
1.238095e+003,-1.259261e-002
1.240024e+003,-1.251909e-002
1.241952e+003,-1.255640e-002
1.243881e+003,-1.279971e-002
1.245809e+003,-1.302939e-002
1.247738e+003,-1.317558e-002
1.249666e+003,-1.316166e-002
1.251595e+003,-1.325776e-002
1.253523e+003,-1.349683e-002
1.255452e+003,-1.376707e-002
1.257380e+003,-1.404378e-002
1.259309e+003,-1.417984e-002
1.261237e+003,-1.424475e-002
1.263166e+003,-1.425892e-002
1.265094e+003,-1.410409e-002
1.267023e+003,-1.386792e-002
1.268951e+003,-1.375041e-002
1.270880e+003,-1.374187e-002
1.272808e+003,-1.390351e-002
1.274737e+003,-1.398860e-002
1.276665e+003,-1.395972e-002
1.278594e+003,-1.394833e-002
1.280522e+003,-1.408394e-002
1.282451e+003,-1.426854e-002
1.284379e+003,-1.425036e-002
1.286308e+003,-1.417474e-002
1.288236e+003,-1.421682e-002
1.290165e+003,-1.432814e-002
1.292093e+003,-1.441479e-002
1.294022e+003,-1.438501e-002
1.295950e+003,-1.444088e-002
1.297879e+003,-1.451305e-002
1.299807e+003,-1.457659e-002
1.301736e+003,-1.468240e-002
1.303664e+003,-1.486626e-002
1.305593e+003,-1.501871e-002
1.307521e+003,-1.506288e-002
1.309450e+003,-1.516004e-002
1.311378e+003,-1.544382e-002
1.313307e+003,-1.563663e-002
1.315235e+003,-1.556640e-002
1.317164e+003,-1.536691e-002
1.319092e+003,-1.542122e-002
1.321021e+003,-1.563593e-002
1.322949e+003,-1.572605e-002
1.324878e+003,-1.558437e-002
1.326806e+003,-1.555237e-002
1.328735e+003,-1.542166e-002
1.330663e+003,-1.526069e-002
1.332592e+003,-1.511517e-002
1.334520e+003,-1.506707e-002
1.336449e+003,-1.494739e-002
1.338377e+003,-1.469611e-002
1.340306e+003,-1.465902e-002
1.342234e+003,-1.499800e-002
1.344163e+003,-1.522467e-002
1.346091e+003,-1.534568e-002
1.348020e+003,-1.522706e-002
1.349948e+003,-1.520713e-002
1.351877e+003,-1.523746e-002
1.353805e+003,-1.518794e-002
1.355734e+003,-1.508628e-002
1.357662e+003,-1.507946e-002
1.359591e+003,-1.505642e-002
1.361519e+003,-1.488346e-002
1.363448e+003,-1.498459e-002
1.365376e+003,-1.556554e-002
1.367305e+003,-1.580753e-002
1.369233e+003,-1.601531e-002
1.371162e+003,-1.605424e-002
1.373090e+003,-1.571484e-002
1.375019e+003,-1.587277e-002
1.376947e+003,-1.631476e-002
1.378876e+003,-1.639517e-002
1.380804e+003,-1.662015e-002
1.382733e+003,-1.680720e-002
1.384661e+003,-1.672052e-002
1.386590e+003,-1.610782e-002
1.388518e+003,-1.622711e-002
1.390447e+003,-1.684431e-002
1.392375e+003,-1.685932e-002
1.394304e+003,-1.627359e-002
1.396232e+003,-1.651879e-002
1.398161e+003,-1.664387e-002
1.400089e+003,-1.679885e-002
1.402018e+003,-1.728719e-002
1.403946e+003,-1.725152e-002
1.405875e+003,-1.728146e-002
1.407803e+003,-1.754391e-002
1.409732e+003,-1.762053e-002
1.411660e+003,-1.753131e-002
1.413589e+003,-1.733533e-002
1.415517e+003,-1.706539e-002
1.417446e+003,-1.617789e-002
1.419374e+003,-1.540788e-002
1.421303e+003,-1.614603e-002
1.423231e+003,-1.627123e-002
1.425160e+003,-1.596476e-002
1.427088e+003,-1.579430e-002
1.429017e+003,-1.520451e-002
1.430945e+003,-1.485089e-002
1.432874e+003,-1.454910e-002
1.434802e+003,-1.335763e-002
1.436731e+003,-1.207876e-002
1.438659e+003,-1.286296e-002
1.440588e+003,-1.324040e-002
1.442516e+003,-1.296405e-002
1.444445e+003,-1.263129e-002
1.446373e+003,-1.202832e-002
1.448302e+003,-1.157672e-002
1.450230e+003,-1.173684e-002
1.452159e+003,-1.162224e-002
1.454087e+003,-1.099302e-002
1.456016e+003,-8.843639e-003
1.457944e+003,-8.513657e-003
1.459873e+003,-1.050697e-002
1.461801e+003,-1.146224e-002
1.463730e+003,-1.110757e-002
1.465658e+003,-1.128061e-002
1.467587e+003,-1.241966e-002
1.469515e+003,-1.257658e-002
1.471444e+003,-1.149983e-002
1.473372e+003,-1.140208e-002
1.475301e+003,-1.244575e-002
1.477229e+003,-1.341662e-002
1.479158e+003,-1.439600e-002
1.481086e+003,-1.469051e-002
1.483015e+003,-1.518167e-002
1.484943e+003,-1.542537e-002
1.486872e+003,-1.497620e-002
1.488800e+003,-1.443959e-002
1.490729e+003,-1.452968e-002
1.492657e+003,-1.551174e-002
1.494586e+003,-1.547407e-002
1.496514e+003,-1.473695e-002
1.498443e+003,-1.498946e-002
1.500371e+003,-1.585999e-002
1.502300e+003,-1.637612e-002
1.504228e+003,-1.511908e-002
1.506157e+003,-1.248403e-002
1.508085e+003,-1.324738e-002
1.510014e+003,-1.529399e-002
1.511942e+003,-1.591455e-002
1.513871e+003,-1.601745e-002
1.515799e+003,-1.534248e-002
1.517728e+003,-1.504483e-002
1.519656e+003,-1.466738e-002
1.521585e+003,-1.384038e-002
1.523513e+003,-1.485595e-002
1.525442e+003,-1.519721e-002
1.527370e+003,-1.571698e-002
1.529299e+003,-1.630716e-002
1.531227e+003,-1.619995e-002
1.533156e+003,-1.517197e-002
1.535084e+003,-1.566645e-002
1.537013e+003,-1.570544e-002
1.538941e+003,-1.344489e-002
1.540870e+003,-1.267297e-002
1.542798e+003,-1.403810e-002
1.544727e+003,-1.516887e-002
1.546655e+003,-1.624103e-002
1.548584e+003,-1.642541e-002
1.550512e+003,-1.637312e-002
1.552441e+003,-1.630521e-002
1.554369e+003,-1.573171e-002
1.556298e+003,-1.501586e-002
1.558226e+003,-1.237420e-002
1.560155e+003,-1.287763e-002
1.562083e+003,-1.549741e-002
1.564012e+003,-1.585644e-002
1.565940e+003,-1.584037e-002
1.567869e+003,-1.533154e-002
1.569797e+003,-1.447773e-002
1.571726e+003,-1.537197e-002
1.573654e+003,-1.544545e-002
1.575583e+003,-1.391509e-002
1.577511e+003,-1.427040e-002
1.579440e+003,-1.544370e-002
1.581368e+003,-1.551209e-002
1.583297e+003,-1.553974e-002
1.585225e+003,-1.547158e-002
1.587154e+003,-1.542592e-002
1.589082e+003,-1.531132e-002
1.591010e+003,-1.534596e-002
1.592939e+003,-1.528689e-002
1.594868e+003,-1.512848e-002
1.596796e+003,-1.504518e-002
1.598724e+003,-1.519366e-002
1.600653e+003,-1.532018e-002
1.602582e+003,-1.535102e-002
1.604510e+003,-1.543081e-002
1.606438e+003,-1.552385e-002
1.608367e+003,-1.540558e-002
1.610296e+003,-1.566920e-002
1.612224e+003,-1.597460e-002
1.614152e+003,-1.566086e-002
1.616081e+003,-1.444270e-002
1.618010e+003,-1.499221e-002
1.619938e+003,-1.620908e-002
1.621866e+003,-1.579951e-002
1.623795e+003,-1.562138e-002
1.625724e+003,-1.622798e-002
1.627652e+003,-1.639865e-002
1.629580e+003,-1.691414e-002
1.631509e+003,-1.736898e-002
1.633438e+003,-1.645435e-002
1.635366e+003,-1.487369e-002
1.637294e+003,-1.585651e-002
1.639223e+003,-1.725175e-002
1.641151e+003,-1.776657e-002
1.643080e+003,-1.804053e-002
1.645008e+003,-1.704449e-002
1.646937e+003,-1.618319e-002
1.648865e+003,-1.742153e-002
1.650794e+003,-1.704532e-002
1.652722e+003,-1.396672e-002
1.654651e+003,-1.568416e-002
1.656579e+003,-1.836348e-002
1.658508e+003,-1.898783e-002
1.660436e+003,-1.873497e-002
1.662365e+003,-1.798248e-002
1.664293e+003,-1.827374e-002
1.666222e+003,-1.851328e-002
1.668150e+003,-1.729336e-002
1.670079e+003,-1.654750e-002
1.672007e+003,-1.724503e-002
1.673936e+003,-1.691229e-002
1.675864e+003,-1.651110e-002
1.677793e+003,-1.748917e-002
1.679721e+003,-1.754706e-002
1.681650e+003,-1.689422e-002
1.683578e+003,-1.479120e-002
1.685507e+003,-1.522051e-002
1.687435e+003,-1.690279e-002
1.689364e+003,-1.723047e-002
1.691292e+003,-1.742504e-002
1.693221e+003,-1.710594e-002
1.695149e+003,-1.539116e-002
1.697078e+003,-1.509232e-002
1.699006e+003,-1.419549e-002
1.700935e+003,-1.360240e-002
1.702863e+003,-1.562445e-002
1.704792e+003,-1.556110e-002
1.706720e+003,-1.572586e-002
1.708649e+003,-1.627126e-002
1.710577e+003,-1.652029e-002
1.712506e+003,-1.625051e-002
1.714434e+003,-1.531382e-002
1.716363e+003,-1.407756e-002
1.718291e+003,-1.405940e-002
1.720220e+003,-1.567054e-002
1.722148e+003,-1.629274e-002
1.724077e+003,-1.631016e-002
1.726005e+003,-1.640732e-002
1.727934e+003,-1.614045e-002
1.729862e+003,-1.585977e-002
1.731791e+003,-1.510816e-002
1.733719e+003,-1.344633e-002
1.735648e+003,-1.450683e-002
1.737576e+003,-1.569016e-002
1.739505e+003,-1.519776e-002
1.741433e+003,-1.552344e-002
1.743362e+003,-1.560125e-002
1.745290e+003,-1.567044e-002
1.747219e+003,-1.532972e-002
1.749147e+003,-1.481353e-002
1.751076e+003,-1.445302e-002
1.753004e+003,-1.524482e-002
1.754933e+003,-1.559543e-002
1.756861e+003,-1.524757e-002
1.758790e+003,-1.548497e-002
1.760718e+003,-1.512471e-002
1.762647e+003,-1.497684e-002
1.764575e+003,-1.566824e-002
1.766504e+003,-1.542122e-002
1.768432e+003,-1.501545e-002
1.770361e+003,-1.461763e-002
1.772289e+003,-1.396284e-002
1.774218e+003,-1.471024e-002
1.776146e+003,-1.543247e-002
1.778075e+003,-1.560636e-002
1.780003e+003,-1.549182e-002
1.781932e+003,-1.561435e-002
1.783860e+003,-1.563321e-002
1.785789e+003,-1.552088e-002
1.787717e+003,-1.567339e-002
1.789646e+003,-1.533106e-002
1.791574e+003,-1.447514e-002
1.793503e+003,-1.461503e-002
1.795431e+003,-1.538984e-002
1.797360e+003,-1.547394e-002
1.799288e+003,-1.529495e-002
1.801217e+003,-1.528279e-002
1.803145e+003,-1.565207e-002
1.805074e+003,-1.578072e-002
1.807002e+003,-1.577932e-002
1.808931e+003,-1.565725e-002
1.810859e+003,-1.555675e-002
1.812788e+003,-1.577440e-002
1.814716e+003,-1.603463e-002
1.816645e+003,-1.594470e-002
1.818573e+003,-1.596939e-002
1.820502e+003,-1.598890e-002
1.822430e+003,-1.584283e-002
1.824359e+003,-1.538556e-002
1.826287e+003,-1.542726e-002
1.828216e+003,-1.535821e-002
1.830144e+003,-1.514986e-002
1.832073e+003,-1.577600e-002
1.834001e+003,-1.608716e-002
1.835930e+003,-1.600248e-002
1.837858e+003,-1.600963e-002
1.839787e+003,-1.604868e-002
1.841715e+003,-1.580114e-002
1.843644e+003,-1.499570e-002
1.845572e+003,-1.526916e-002
1.847501e+003,-1.594020e-002
1.849429e+003,-1.608936e-002
1.851358e+003,-1.602129e-002
1.853286e+003,-1.595962e-002
1.855215e+003,-1.600628e-002
1.857143e+003,-1.601512e-002
1.859072e+003,-1.606270e-002
1.861000e+003,-1.608767e-002
1.862929e+003,-1.609958e-002
1.864857e+003,-1.597054e-002
1.866786e+003,-1.566667e-002
1.868714e+003,-1.536960e-002
1.870643e+003,-1.575353e-002
1.872571e+003,-1.611254e-002
1.874500e+003,-1.610852e-002
1.876428e+003,-1.608486e-002
1.878357e+003,-1.609224e-002
1.880285e+003,-1.619028e-002
1.882214e+003,-1.620653e-002
1.884142e+003,-1.613515e-002
1.886071e+003,-1.615296e-002
1.887999e+003,-1.597258e-002
1.889928e+003,-1.583434e-002
1.891856e+003,-1.615136e-002
1.893785e+003,-1.616075e-002
1.895713e+003,-1.617033e-002
1.897642e+003,-1.630023e-002
1.899570e+003,-1.619370e-002
1.901499e+003,-1.611615e-002
1.903427e+003,-1.625230e-002
1.905356e+003,-1.631769e-002
1.907284e+003,-1.625093e-002
1.909213e+003,-1.615092e-002
1.911141e+003,-1.621444e-002
1.913070e+003,-1.627167e-002
1.914998e+003,-1.620838e-002
1.916927e+003,-1.589695e-002
1.918855e+003,-1.580389e-002
1.920784e+003,-1.600043e-002
1.922712e+003,-1.609623e-002
1.924641e+003,-1.629420e-002
1.926569e+003,-1.631622e-002
1.928498e+003,-1.634191e-002
1.930426e+003,-1.633154e-002
1.932355e+003,-1.629561e-002
1.934283e+003,-1.631214e-002
1.936212e+003,-1.640120e-002
1.938140e+003,-1.648549e-002
1.940069e+003,-1.633365e-002
1.941997e+003,-1.606171e-002
1.943926e+003,-1.614881e-002
1.945854e+003,-1.635547e-002
1.947783e+003,-1.641894e-002
1.949711e+003,-1.642631e-002
1.951640e+003,-1.645349e-002
1.953568e+003,-1.640145e-002
1.955497e+003,-1.638978e-002
1.957425e+003,-1.650628e-002
1.959354e+003,-1.649311e-002
1.961282e+003,-1.642516e-002
1.963211e+003,-1.645818e-002
1.965139e+003,-1.640110e-002
1.967068e+003,-1.635238e-002
1.968996e+003,-1.657275e-002
1.970925e+003,-1.663077e-002
1.972853e+003,-1.658408e-002
1.974782e+003,-1.660143e-002
1.976710e+003,-1.660962e-002
1.978639e+003,-1.659428e-002
1.980567e+003,-1.663603e-002
1.982496e+003,-1.675371e-002
1.984424e+003,-1.668950e-002
1.986353e+003,-1.650950e-002
1.988281e+003,-1.647627e-002
1.990210e+003,-1.646296e-002
1.992138e+003,-1.638336e-002
1.994067e+003,-1.647553e-002
1.995995e+003,-1.661138e-002
1.997924e+003,-1.667330e-002
1.999852e+003,-1.671083e-002
2.001781e+003,-1.672352e-002
2.003709e+003,-1.664840e-002
2.005638e+003,-1.664132e-002
2.007566e+003,-1.656752e-002
2.009495e+003,-1.650743e-002
2.011423e+003,-1.658516e-002
2.013352e+003,-1.657062e-002
2.015280e+003,-1.649183e-002
2.017208e+003,-1.651917e-002
2.019137e+003,-1.658826e-002
2.021066e+003,-1.664378e-002
2.022994e+003,-1.668545e-002
2.024922e+003,-1.670595e-002
2.026851e+003,-1.670659e-002
2.028780e+003,-1.676187e-002
2.030708e+003,-1.675212e-002
2.032636e+003,-1.663922e-002
2.034565e+003,-1.670006e-002
2.036494e+003,-1.679745e-002
2.038422e+003,-1.676991e-002
2.040350e+003,-1.670076e-002
2.042279e+003,-1.667270e-002
2.044208e+003,-1.668446e-002
2.046136e+003,-1.672237e-002
2.048064e+003,-1.674954e-002
2.049993e+003,-1.674013e-002
2.051921e+003,-1.673564e-002
2.053850e+003,-1.671227e-002
2.055778e+003,-1.673165e-002
2.057707e+003,-1.673513e-002
2.059635e+003,-1.671848e-002
2.061564e+003,-1.676471e-002
2.063492e+003,-1.685103e-002
2.065421e+003,-1.683758e-002
2.067349e+003,-1.681004e-002
2.069278e+003,-1.688925e-002
2.071206e+003,-1.685247e-002
2.073135e+003,-1.673777e-002
2.075063e+003,-1.676347e-002
2.076992e+003,-1.679806e-002
2.078920e+003,-1.675524e-002
2.080849e+003,-1.676175e-002
2.082777e+003,-1.677055e-002
2.084706e+003,-1.683545e-002
2.086634e+003,-1.697312e-002
2.088563e+003,-1.703611e-002
2.090491e+003,-1.694205e-002
2.092420e+003,-1.685157e-002
2.094348e+003,-1.684361e-002
2.096277e+003,-1.691793e-002
2.098205e+003,-1.697121e-002
2.100134e+003,-1.699680e-002
2.102062e+003,-1.700944e-002
2.103991e+003,-1.705118e-002
2.105919e+003,-1.702257e-002
2.107848e+003,-1.688093e-002
2.109776e+003,-1.685227e-002
2.111705e+003,-1.689944e-002
2.113633e+003,-1.690168e-002
2.115562e+003,-1.685078e-002
2.117490e+003,-1.691130e-002
2.119419e+003,-1.691608e-002
2.121347e+003,-1.688867e-002
2.123276e+003,-1.696006e-002
2.125204e+003,-1.693705e-002
2.127133e+003,-1.687271e-002
2.129061e+003,-1.678747e-002
2.130990e+003,-1.674670e-002
2.132918e+003,-1.689208e-002
2.134847e+003,-1.697592e-002
2.136775e+003,-1.694511e-002
2.138704e+003,-1.688988e-002
2.140632e+003,-1.683720e-002
2.142561e+003,-1.691758e-002
2.144489e+003,-1.694460e-002
2.146418e+003,-1.690700e-002
2.148346e+003,-1.689642e-002
2.150275e+003,-1.684262e-002
2.152203e+003,-1.675821e-002
2.154132e+003,-1.678954e-002
2.156060e+003,-1.685422e-002
2.157989e+003,-1.682961e-002
2.159917e+003,-1.678645e-002
2.161846e+003,-1.679739e-002
2.163774e+003,-1.681597e-002
2.165703e+003,-1.674096e-002
2.167631e+003,-1.665117e-002
2.169560e+003,-1.658063e-002
2.171488e+003,-1.665357e-002
2.173417e+003,-1.672084e-002
2.175345e+003,-1.673557e-002
2.177274e+003,-1.666897e-002
2.179202e+003,-1.665089e-002
2.181131e+003,-1.679611e-002
2.183059e+003,-1.680647e-002
2.184988e+003,-1.675779e-002
2.186916e+003,-1.677080e-002
2.188845e+003,-1.682359e-002
2.190773e+003,-1.685932e-002
2.192702e+003,-1.685932e-002
2.194630e+003,-1.679350e-002
2.196559e+003,-1.674797e-002
2.198487e+003,-1.677188e-002
2.200416e+003,-1.682094e-002
2.202344e+003,-1.683720e-002
2.204273e+003,-1.684768e-002
2.206201e+003,-1.686872e-002
2.208130e+003,-1.684676e-002
2.210058e+003,-1.683914e-002
2.211987e+003,-1.688615e-002
2.213915e+003,-1.694027e-002
2.215844e+003,-1.685910e-002
2.217772e+003,-1.680048e-002
2.219701e+003,-1.681756e-002
2.221629e+003,-1.688102e-002
2.223558e+003,-1.692373e-002
2.225486e+003,-1.687898e-002
2.227415e+003,-1.691308e-002
2.229343e+003,-1.698115e-002
2.231272e+003,-1.701939e-002
2.233200e+003,-1.696104e-002
2.235129e+003,-1.686617e-002
2.237057e+003,-1.693256e-002
2.238986e+003,-1.699418e-002
2.240914e+003,-1.701524e-002
2.242843e+003,-1.703949e-002
2.244771e+003,-1.703888e-002
2.246700e+003,-1.705096e-002
2.248628e+003,-1.705593e-002
2.250557e+003,-1.712626e-002
2.252485e+003,-1.716289e-002
2.254414e+003,-1.714401e-002
2.256342e+003,-1.716617e-002
2.258271e+003,-1.715891e-002
2.260199e+003,-1.714416e-002
2.262128e+003,-1.709983e-002
2.264056e+003,-1.711789e-002
2.265985e+003,-1.715089e-002
2.267913e+003,-1.712537e-002
2.269842e+003,-1.713875e-002
2.271770e+003,-1.714904e-002
2.273699e+003,-1.721395e-002
2.275627e+003,-1.731619e-002
2.277556e+003,-1.728897e-002
2.279484e+003,-1.727349e-002
2.281413e+003,-1.726095e-002
2.283341e+003,-1.730610e-002
2.285270e+003,-1.734832e-002
2.287198e+003,-1.737837e-002
2.289127e+003,-1.732692e-002
2.291055e+003,-1.725573e-002
2.292984e+003,-1.726232e-002
2.294912e+003,-1.728120e-002
2.296841e+003,-1.724589e-002
2.298769e+003,-1.718796e-002
2.300698e+003,-1.719688e-002
2.302626e+003,-1.709511e-002
2.304555e+003,-1.704561e-002
2.306483e+003,-1.699549e-002
2.308412e+003,-1.692293e-002
2.310340e+003,-1.679286e-002
2.312269e+003,-1.655403e-002
2.314197e+003,-1.627764e-002
2.316125e+003,-1.602483e-002
2.318054e+003,-1.583210e-002
2.319983e+003,-1.568626e-002
2.321911e+003,-1.544421e-002
2.323840e+003,-1.513988e-002
2.325768e+003,-1.494848e-002
2.327697e+003,-1.470592e-002
2.329625e+003,-1.427889e-002
2.331553e+003,-1.407836e-002
2.333482e+003,-1.407560e-002
2.335411e+003,-1.409655e-002
2.337339e+003,-1.405610e-002
2.339268e+003,-1.402437e-002
2.341196e+003,-1.405296e-002
2.343125e+003,-1.425225e-002
2.345053e+003,-1.475005e-002
2.346981e+003,-1.552379e-002
2.348910e+003,-1.615766e-002
2.350839e+003,-1.578616e-002
2.352767e+003,-1.466450e-002
2.354696e+003,-1.373375e-002
2.356624e+003,-1.322732e-002
2.358552e+003,-1.300978e-002
2.360481e+003,-1.296350e-002
2.362409e+003,-1.290442e-002
2.364338e+003,-1.294536e-002
2.366267e+003,-1.322642e-002
2.368195e+003,-1.365313e-002
2.370124e+003,-1.424109e-002
2.372052e+003,-1.490257e-002
2.373980e+003,-1.540017e-002
2.375909e+003,-1.595783e-002
2.377838e+003,-1.661791e-002
2.379766e+003,-1.716576e-002
2.381695e+003,-1.744993e-002
2.383623e+003,-1.746902e-002
2.385552e+003,-1.754983e-002
2.387480e+003,-1.762502e-002
2.389408e+003,-1.753742e-002
2.391337e+003,-1.747864e-002
2.393266e+003,-1.753974e-002
2.395194e+003,-1.753354e-002
2.397123e+003,-1.751543e-002
2.399051e+003,-1.751333e-002
2.400979e+003,-1.750111e-002
2.402908e+003,-1.754439e-002
2.404836e+003,-1.758575e-002
2.406765e+003,-1.764032e-002
2.408694e+003,-1.766214e-002
2.410622e+003,-1.760220e-002
2.412551e+003,-1.769058e-002
2.414479e+003,-1.770188e-002
2.416407e+003,-1.762562e-002
2.418336e+003,-1.762756e-002
2.420264e+003,-1.772901e-002
2.422193e+003,-1.776260e-002
2.424122e+003,-1.765311e-002
2.426050e+003,-1.762177e-002
2.427979e+003,-1.771390e-002
2.429907e+003,-1.767000e-002
2.431835e+003,-1.757280e-002
2.433764e+003,-1.759781e-002
2.435692e+003,-1.766711e-002
2.437621e+003,-1.769392e-002
2.439550e+003,-1.771005e-002
2.441478e+003,-1.771823e-002
2.443406e+003,-1.772150e-002
2.445335e+003,-1.770935e-002
2.447263e+003,-1.767010e-002
2.449192e+003,-1.771489e-002
2.451121e+003,-1.775401e-002
2.453049e+003,-1.777373e-002
2.454978e+003,-1.777115e-002
2.456906e+003,-1.771571e-002
2.458834e+003,-1.771603e-002
2.460763e+003,-1.776050e-002
2.462691e+003,-1.787712e-002
2.464620e+003,-1.793117e-002
2.466549e+003,-1.788109e-002
2.468477e+003,-1.783145e-002
2.470406e+003,-1.783247e-002
2.472334e+003,-1.784443e-002
2.474262e+003,-1.784281e-002
2.476191e+003,-1.787340e-002
2.478119e+003,-1.791632e-002
2.480048e+003,-1.794891e-002
2.481977e+003,-1.781746e-002
2.483905e+003,-1.780888e-002
2.485833e+003,-1.790361e-002
2.487762e+003,-1.794198e-002
2.489690e+003,-1.795413e-002
2.491619e+003,-1.785419e-002
2.493547e+003,-1.776368e-002
2.495476e+003,-1.773124e-002
2.497405e+003,-1.777259e-002
2.499333e+003,-1.787009e-002
2.501261e+003,-1.787187e-002
2.503190e+003,-1.785422e-002
2.505118e+003,-1.785149e-002
2.507047e+003,-1.782303e-002
2.508975e+003,-1.775455e-002
2.510904e+003,-1.780579e-002
2.512833e+003,-1.783807e-002
2.514761e+003,-1.787391e-002
2.516689e+003,-1.793123e-002
2.518618e+003,-1.783336e-002
2.520546e+003,-1.773893e-002
2.522475e+003,-1.780916e-002
2.524403e+003,-1.789149e-002
2.526332e+003,-1.786815e-002
2.528260e+003,-1.779898e-002
2.530189e+003,-1.783231e-002
2.532117e+003,-1.792895e-002
2.534046e+003,-1.797740e-002
2.535974e+003,-1.789865e-002
2.537903e+003,-1.787143e-002
2.539831e+003,-1.780194e-002
2.541760e+003,-1.786243e-002
2.543688e+003,-1.786179e-002
2.545617e+003,-1.780420e-002
2.547545e+003,-1.775608e-002
2.549474e+003,-1.778241e-002
2.551402e+003,-1.787295e-002
2.553331e+003,-1.787772e-002
2.555259e+003,-1.782001e-002
2.557188e+003,-1.782147e-002
2.559116e+003,-1.785705e-002
2.561045e+003,-1.789111e-002
2.562973e+003,-1.793403e-002
2.564902e+003,-1.787028e-002
2.566830e+003,-1.777160e-002
2.568759e+003,-1.784589e-002
2.570687e+003,-1.781091e-002
2.572616e+003,-1.778575e-002
2.574544e+003,-1.777650e-002
2.576473e+003,-1.777694e-002
2.578401e+003,-1.778922e-002
2.580330e+003,-1.786122e-002
2.582258e+003,-1.795295e-002
2.584187e+003,-1.797768e-002
2.586115e+003,-1.797679e-002
2.588044e+003,-1.796894e-002
2.589972e+003,-1.789731e-002
2.591901e+003,-1.778521e-002
2.593829e+003,-1.782668e-002
2.595758e+003,-1.802429e-002
2.597686e+003,-1.805442e-002
2.599615e+003,-1.796347e-002
2.601543e+003,-1.787489e-002
2.603472e+003,-1.781613e-002
2.605400e+003,-1.788628e-002
2.607329e+003,-1.791718e-002
2.609257e+003,-1.783622e-002
2.611186e+003,-1.779590e-002
2.613114e+003,-1.780652e-002
2.615043e+003,-1.777764e-002
2.616971e+003,-1.780817e-002
2.618900e+003,-1.779440e-002
2.620828e+003,-1.773362e-002
2.622757e+003,-1.771021e-002
2.624685e+003,-1.771117e-002
2.626614e+003,-1.775252e-002
2.628542e+003,-1.768460e-002
2.630471e+003,-1.755218e-002
2.632399e+003,-1.761382e-002
2.634328e+003,-1.765111e-002
2.636256e+003,-1.762750e-002
2.638185e+003,-1.747838e-002
2.640113e+003,-1.739091e-002
2.642042e+003,-1.743656e-002
2.643970e+003,-1.738617e-002
2.645899e+003,-1.731450e-002
2.647827e+003,-1.735026e-002
2.649756e+003,-1.737353e-002
2.651684e+003,-1.732030e-002
2.653613e+003,-1.721016e-002
2.655541e+003,-1.718439e-002
2.657470e+003,-1.731215e-002
2.659398e+003,-1.732708e-002
2.661327e+003,-1.722882e-002
2.663255e+003,-1.717098e-002
2.665184e+003,-1.720662e-002
2.667112e+003,-1.714369e-002
2.669041e+003,-1.699224e-002
2.670969e+003,-1.693106e-002
2.672898e+003,-1.697857e-002
2.674826e+003,-1.695948e-002
2.676755e+003,-1.690403e-002
2.678683e+003,-1.693485e-002
2.680612e+003,-1.695610e-002
2.682540e+003,-1.683586e-002
2.684469e+003,-1.675266e-002
2.686397e+003,-1.673111e-002
2.688326e+003,-1.666654e-002
2.690254e+003,-1.652198e-002
2.692183e+003,-1.650734e-002
2.694111e+003,-1.657974e-002
2.696040e+003,-1.658274e-002
2.697968e+003,-1.649946e-002
2.699897e+003,-1.639092e-002
2.701825e+003,-1.637312e-002
2.703754e+003,-1.637823e-002
2.705682e+003,-1.627968e-002
2.707611e+003,-1.618913e-002
2.709539e+003,-1.619312e-002
2.711468e+003,-1.619989e-002
2.713396e+003,-1.614811e-002
2.715325e+003,-1.604290e-002
2.717253e+003,-1.598718e-002
2.719182e+003,-1.588880e-002
2.721110e+003,-1.580600e-002
2.723039e+003,-1.570624e-002
2.724967e+003,-1.564063e-002
2.726896e+003,-1.559351e-002
2.728824e+003,-1.553728e-002
2.730753e+003,-1.545895e-002
2.732681e+003,-1.539275e-002
2.734610e+003,-1.534331e-002
2.736538e+003,-1.529984e-002
2.738467e+003,-1.522572e-002
2.740395e+003,-1.513892e-002
2.742324e+003,-1.504598e-002
2.744252e+003,-1.493007e-002
2.746181e+003,-1.485675e-002
2.748109e+003,-1.484042e-002
2.750038e+003,-1.472059e-002
2.751966e+003,-1.462324e-002
2.753895e+003,-1.450061e-002
2.755823e+003,-1.424234e-002
2.757752e+003,-1.412237e-002
2.759680e+003,-1.398196e-002
2.761609e+003,-1.378466e-002
2.763537e+003,-1.348835e-002
2.765466e+003,-1.326158e-002
2.767394e+003,-1.291159e-002
2.769323e+003,-1.250164e-002
2.771251e+003,-1.214185e-002
2.773180e+003,-1.177141e-002
2.775108e+003,-1.122821e-002
2.777037e+003,-1.069212e-002
2.778965e+003,-1.022570e-002
2.780894e+003,-9.557663e-003
2.782822e+003,-8.757693e-003
2.784750e+003,-7.922019e-003
2.786679e+003,-7.114659e-003
2.788608e+003,-6.456379e-003
2.790536e+003,-5.711498e-003
2.792465e+003,-4.874196e-003
2.794393e+003,-3.977989e-003
2.796322e+003,-3.174571e-003
2.798250e+003,-2.414908e-003
2.800178e+003,-1.731046e-003
2.802107e+003,-1.074036e-003
2.804036e+003,-5.013929e-004
2.805964e+003,-7.056977e-005
2.807893e+003,2.515602e-004
2.809821e+003,4.147711e-004
2.811750e+003,4.460806e-004
2.813678e+003,3.438355e-004
2.815606e+003,2.032255e-004
2.817535e+003,-8.905517e-005
2.819464e+003,-4.713409e-004
2.821392e+003,-9.021637e-004
2.823321e+003,-1.404432e-003
2.825249e+003,-1.921361e-003
2.827177e+003,-2.525673e-003
2.829106e+003,-3.241470e-003
2.831034e+003,-4.008620e-003
2.832963e+003,-4.621478e-003
2.834892e+003,-5.109020e-003
2.836820e+003,-5.800044e-003
2.838749e+003,-6.569708e-003
2.840677e+003,-7.351988e-003
2.842605e+003,-8.048790e-003
2.844534e+003,-8.787729e-003
2.846462e+003,-9.709815e-003
2.848391e+003,-1.044652e-002
2.850320e+003,-1.088443e-002
2.852248e+003,-1.110095e-002
2.854177e+003,-1.122014e-002
2.856105e+003,-1.133827e-002
2.858033e+003,-1.141825e-002
2.859962e+003,-1.131270e-002
2.861890e+003,-1.130512e-002
2.863819e+003,-1.126579e-002
2.865748e+003,-1.125953e-002
2.867676e+003,-1.123858e-002
2.869604e+003,-1.104103e-002
2.871533e+003,-1.087357e-002
2.873461e+003,-1.076266e-002
2.875390e+003,-1.063810e-002
2.877319e+003,-1.049468e-002
2.879247e+003,-1.032064e-002
2.881176e+003,-1.016637e-002
2.883104e+003,-1.011277e-002
2.885032e+003,-1.000078e-002
2.886961e+003,-9.990969e-003
2.888889e+003,-1.012484e-002
2.890818e+003,-1.031459e-002
2.892747e+003,-1.043439e-002
2.894675e+003,-1.054238e-002
2.896604e+003,-1.061737e-002
2.898532e+003,-1.071750e-002
2.900460e+003,-1.084565e-002
2.902389e+003,-1.098133e-002
2.904317e+003,-1.106632e-002
2.906246e+003,-1.107439e-002
2.908175e+003,-1.111658e-002
2.910103e+003,-1.123144e-002
2.912031e+003,-1.150212e-002
2.913960e+003,-1.182191e-002
2.915888e+003,-1.195722e-002
2.917817e+003,-1.189852e-002
2.919745e+003,-1.160440e-002
2.921674e+003,-1.120490e-002
2.923603e+003,-1.079391e-002
2.925531e+003,-1.040184e-002
2.927459e+003,-1.008020e-002
2.929388e+003,-9.765801e-003
2.931316e+003,-9.381918e-003
2.933245e+003,-9.098715e-003
2.935173e+003,-8.925478e-003
2.937102e+003,-8.845197e-003
2.939031e+003,-8.850359e-003
2.940959e+003,-9.016941e-003
2.942887e+003,-9.244086e-003
2.944816e+003,-9.398358e-003
2.946744e+003,-9.486836e-003
2.948673e+003,-9.854431e-003
2.950601e+003,-1.053391e-002
2.952530e+003,-1.126224e-002
2.954458e+003,-1.189400e-002
2.956387e+003,-1.250795e-002
2.958315e+003,-1.313703e-002
2.960244e+003,-1.396412e-002
2.962172e+003,-1.476296e-002
2.964101e+003,-1.536512e-002
2.966029e+003,-1.595432e-002
2.967958e+003,-1.646880e-002
2.969886e+003,-1.688466e-002
2.971815e+003,-1.721618e-002
2.973743e+003,-1.765152e-002
2.975672e+003,-1.807568e-002
2.977600e+003,-1.836631e-002
2.979529e+003,-1.852220e-002
2.981457e+003,-1.872228e-002
2.983386e+003,-1.896860e-002
2.985314e+003,-1.923308e-002
2.987243e+003,-1.934414e-002
2.989171e+003,-1.937441e-002
2.991100e+003,-1.958198e-002
2.993028e+003,-1.971878e-002
2.994957e+003,-1.967179e-002
2.996885e+003,-1.968516e-002
2.998814e+003,-1.974076e-002
3.000742e+003,-1.981481e-002
3.002671e+003,-1.991806e-002
3.004599e+003,-1.993949e-002
3.006528e+003,-1.992322e-002
3.008456e+003,-1.997306e-002
3.010385e+003,-1.995398e-002
3.012313e+003,-2.006090e-002
3.014242e+003,-2.015647e-002
3.016170e+003,-2.008143e-002
3.018099e+003,-2.002651e-002
3.020027e+003,-2.017915e-002
3.021956e+003,-2.018019e-002
3.023884e+003,-2.016621e-002
3.025813e+003,-2.019892e-002
3.027741e+003,-2.036329e-002
3.029670e+003,-2.039525e-002
3.031598e+003,-2.029878e-002
3.033527e+003,-2.029265e-002
3.035455e+003,-2.022678e-002
3.037384e+003,-2.018212e-002
3.039312e+003,-2.017184e-002
3.041241e+003,-2.029486e-002
3.043169e+003,-2.045180e-002
3.045098e+003,-2.049865e-002
3.047026e+003,-2.043439e-002
3.048955e+003,-2.041264e-002
3.050883e+003,-2.044027e-002
3.052812e+003,-2.041122e-002
3.054740e+003,-2.044649e-002
3.056669e+003,-2.040420e-002
3.058597e+003,-2.042762e-002
3.060526e+003,-2.050961e-002
3.062454e+003,-2.047592e-002
3.064383e+003,-2.044757e-002
3.066311e+003,-2.048155e-002
3.068240e+003,-2.040420e-002
3.070168e+003,-2.038441e-002
3.072097e+003,-2.055958e-002
3.074025e+003,-2.067545e-002
3.075954e+003,-2.066995e-002
3.077882e+003,-2.066783e-002
3.079811e+003,-2.062923e-002
3.081739e+003,-2.058356e-002
3.083668e+003,-2.058420e-002
3.085596e+003,-2.064379e-002
3.087525e+003,-2.070458e-002
3.089453e+003,-2.067267e-002
3.091382e+003,-2.066588e-002
3.093310e+003,-2.059039e-002
3.095239e+003,-2.052150e-002
3.097167e+003,-2.050576e-002
3.099096e+003,-2.040145e-002
3.101024e+003,-2.046445e-002
3.102953e+003,-2.057687e-002
3.104881e+003,-2.061207e-002
3.106810e+003,-2.051982e-002
3.108738e+003,-2.045158e-002
3.110667e+003,-2.049094e-002
3.112595e+003,-2.053183e-002
3.114524e+003,-2.051167e-002
3.116452e+003,-2.051824e-002
3.118381e+003,-2.046856e-002
3.120309e+003,-2.046337e-002
3.122238e+003,-2.045127e-002
3.124166e+003,-2.041839e-002
3.126095e+003,-2.040948e-002
3.128023e+003,-2.043104e-002
3.129952e+003,-2.047794e-002
3.131880e+003,-2.047911e-002
3.133809e+003,-2.043511e-002
3.135737e+003,-2.041709e-002
3.137666e+003,-2.041308e-002
3.139594e+003,-2.036237e-002
3.141523e+003,-2.025587e-002
3.143451e+003,-2.016327e-002
3.145380e+003,-2.027817e-002
3.147308e+003,-2.043562e-002
3.149237e+003,-2.039591e-002
3.151165e+003,-2.032399e-002
3.153094e+003,-2.032139e-002
3.155022e+003,-2.024458e-002
3.156951e+003,-2.021887e-002
3.158879e+003,-2.016292e-002
3.160808e+003,-2.004540e-002
3.162736e+003,-2.004394e-002
3.164665e+003,-2.005356e-002
3.166593e+003,-2.004074e-002
3.168522e+003,-2.011395e-002
3.170450e+003,-2.005637e-002
3.172379e+003,-2.005913e-002
3.174307e+003,-2.019591e-002
3.176236e+003,-2.013274e-002
3.178164e+003,-1.996464e-002
3.180093e+003,-1.992654e-002
3.182021e+003,-1.995626e-002
3.183950e+003,-1.998097e-002
3.185878e+003,-1.994670e-002
3.187807e+003,-1.991648e-002
3.189735e+003,-1.992936e-002
3.191664e+003,-1.994958e-002
3.193592e+003,-2.003002e-002
3.195521e+003,-2.004328e-002
3.197449e+003,-2.001420e-002
3.199378e+003,-1.998863e-002
3.201306e+003,-2.001255e-002
3.203235e+003,-2.001923e-002
3.205163e+003,-2.002610e-002
3.207092e+003,-2.008409e-002
3.209020e+003,-1.996904e-002
3.210948e+003,-1.989236e-002
3.212877e+003,-1.987609e-002
3.214806e+003,-1.987796e-002
3.216734e+003,-1.988207e-002
3.218663e+003,-1.985172e-002
3.220591e+003,-1.988957e-002
3.222520e+003,-1.989211e-002
3.224448e+003,-1.991708e-002
3.226376e+003,-1.996224e-002
3.228305e+003,-1.979838e-002
3.230234e+003,-1.967208e-002
3.232162e+003,-1.974611e-002
3.234091e+003,-1.969272e-002
3.236019e+003,-1.975564e-002
3.237948e+003,-1.989378e-002
3.239876e+003,-1.975019e-002
3.241804e+003,-1.945695e-002
3.243733e+003,-1.941680e-002
3.245662e+003,-1.950561e-002
3.247590e+003,-1.944472e-002
3.249519e+003,-1.927616e-002
3.251447e+003,-1.919064e-002
3.253375e+003,-1.935289e-002
3.255304e+003,-1.937431e-002
3.257232e+003,-1.920094e-002
3.259161e+003,-1.917593e-002
3.261090e+003,-1.904799e-002
3.263018e+003,-1.893511e-002
3.264947e+003,-1.899740e-002
3.266875e+003,-1.910538e-002
3.268803e+003,-1.909130e-002
3.270732e+003,-1.901104e-002
3.272660e+003,-1.898897e-002
3.274589e+003,-1.888734e-002
3.276518e+003,-1.890374e-002
3.278446e+003,-1.891839e-002
3.280375e+003,-1.884327e-002
3.282303e+003,-1.886154e-002
3.284231e+003,-1.890456e-002
3.286160e+003,-1.900727e-002
3.288088e+003,-1.907951e-002
3.290017e+003,-1.924481e-002
3.291946e+003,-1.922326e-002
3.293874e+003,-1.911217e-002
3.295802e+003,-1.913132e-002
3.297731e+003,-1.922754e-002
3.299659e+003,-1.930158e-002
3.301588e+003,-1.942767e-002
3.303516e+003,-1.965352e-002
3.305445e+003,-1.967515e-002
3.307374e+003,-1.960767e-002
3.309302e+003,-1.972382e-002
3.311230e+003,-1.987970e-002
3.313159e+003,-1.998759e-002
3.315087e+003,-2.010076e-002
3.317016e+003,-2.008757e-002
3.318944e+003,-2.011958e-002
3.320873e+003,-2.027093e-002
3.322802e+003,-2.031741e-002
3.324730e+003,-2.043837e-002
3.326658e+003,-2.051638e-002
3.328587e+003,-2.055001e-002
3.330515e+003,-2.056258e-002
3.332444e+003,-2.062189e-002
3.334372e+003,-2.065561e-002
3.336301e+003,-2.062698e-002
3.338229e+003,-2.060834e-002
3.340158e+003,-2.063419e-002
3.342086e+003,-2.061444e-002
3.344015e+003,-2.060692e-002
3.345943e+003,-2.053916e-002
3.347872e+003,-2.046928e-002
3.349800e+003,-2.052956e-002
3.351729e+003,-2.067504e-002
3.353657e+003,-2.068780e-002
3.355586e+003,-2.065273e-002
3.357514e+003,-2.055247e-002
3.359443e+003,-2.058388e-002
3.361371e+003,-2.072239e-002
3.363300e+003,-2.069513e-002
3.365229e+003,-2.062278e-002
3.367157e+003,-2.078699e-002
3.369085e+003,-2.111895e-002
3.371014e+003,-2.130364e-002
3.372942e+003,-2.119409e-002
3.374871e+003,-2.121738e-002
3.376799e+003,-2.135393e-002
3.378728e+003,-2.154536e-002
3.380656e+003,-2.170358e-002
3.382585e+003,-2.172697e-002
3.384513e+003,-2.179504e-002
3.386442e+003,-2.195327e-002
3.388370e+003,-2.206946e-002
3.390299e+003,-2.207790e-002
3.392227e+003,-2.198524e-002
3.394156e+003,-2.220076e-002
3.396084e+003,-2.232057e-002
3.398013e+003,-2.235509e-002
3.399941e+003,-2.240850e-002
3.401870e+003,-2.233375e-002
3.403798e+003,-2.228550e-002
3.405727e+003,-2.229013e-002
3.407655e+003,-2.233360e-002
3.409584e+003,-2.246784e-002
3.411512e+003,-2.255137e-002
3.413441e+003,-2.265476e-002
3.415369e+003,-2.264224e-002
3.417298e+003,-2.255775e-002
3.419226e+003,-2.254281e-002
3.421155e+003,-2.255945e-002
3.423083e+003,-2.263853e-002
3.425012e+003,-2.261255e-002
3.426940e+003,-2.265328e-002
3.428869e+003,-2.270526e-002
3.430797e+003,-2.269089e-002
3.432726e+003,-2.266183e-002
3.434654e+003,-2.268932e-002
3.436583e+003,-2.283650e-002
3.438511e+003,-2.287102e-002
3.440440e+003,-2.277243e-002
3.442368e+003,-2.287815e-002
3.444297e+003,-2.289176e-002
3.446225e+003,-2.265249e-002
3.448154e+003,-2.263840e-002
3.450082e+003,-2.268951e-002
3.452011e+003,-2.277985e-002
3.453939e+003,-2.282374e-002
3.455868e+003,-2.293413e-002
3.457796e+003,-2.291464e-002
3.459725e+003,-2.288026e-002
3.461653e+003,-2.273740e-002
3.463582e+003,-2.262217e-002
3.465510e+003,-2.279195e-002
3.467439e+003,-2.297750e-002
3.469367e+003,-2.303293e-002
3.471296e+003,-2.301691e-002
3.473224e+003,-2.285659e-002
3.475153e+003,-2.278629e-002
3.477081e+003,-2.282609e-002
3.479010e+003,-2.291119e-002
3.480938e+003,-2.286259e-002
3.482867e+003,-2.283650e-002
3.484795e+003,-2.287674e-002
3.486724e+003,-2.288255e-002
3.488652e+003,-2.281867e-002
3.490581e+003,-2.284043e-002
3.492509e+003,-2.291197e-002
3.494438e+003,-2.287362e-002
3.496366e+003,-2.277422e-002
3.498295e+003,-2.282628e-002
3.500223e+003,-2.282785e-002
3.502152e+003,-2.271825e-002
3.504080e+003,-2.268784e-002
3.506009e+003,-2.278928e-002
3.507937e+003,-2.279704e-002
3.509866e+003,-2.276579e-002
3.511794e+003,-2.277755e-002
3.513723e+003,-2.282150e-002
3.515651e+003,-2.281430e-002
3.517580e+003,-2.271677e-002
3.519508e+003,-2.270558e-002
3.521437e+003,-2.271872e-002
3.523365e+003,-2.272221e-002
3.525294e+003,-2.266897e-002
3.527222e+003,-2.264743e-002
3.529151e+003,-2.268775e-002
3.531079e+003,-2.277702e-002
3.533008e+003,-2.273240e-002
3.534936e+003,-2.266935e-002
3.536865e+003,-2.273416e-002
3.538793e+003,-2.292784e-002
3.540722e+003,-2.300893e-002
3.542650e+003,-2.286646e-002
3.544579e+003,-2.255989e-002
3.546507e+003,-2.216912e-002
3.548436e+003,-2.223120e-002
3.550364e+003,-2.240148e-002
3.552293e+003,-2.234128e-002
3.554221e+003,-2.240255e-002
3.556150e+003,-2.255854e-002
3.558078e+003,-2.266517e-002
3.560007e+003,-2.267869e-002
3.561935e+003,-2.266661e-002
3.563864e+003,-2.245988e-002
3.565792e+003,-2.173520e-002
3.567721e+003,-2.151036e-002
3.569649e+003,-2.228270e-002
3.571578e+003,-2.268448e-002
3.573506e+003,-2.265570e-002
3.575435e+003,-2.262337e-002
3.577363e+003,-2.270375e-002
3.579292e+003,-2.276400e-002
3.581220e+003,-2.270866e-002
3.583149e+003,-2.267083e-002
3.585077e+003,-2.215054e-002
3.587006e+003,-2.136891e-002
3.588934e+003,-2.172974e-002
3.590863e+003,-2.249748e-002
3.592791e+003,-2.237146e-002
3.594720e+003,-2.208268e-002
3.596648e+003,-2.215083e-002
3.598577e+003,-2.239739e-002
3.600505e+003,-2.245063e-002
3.602434e+003,-2.259103e-002
3.604362e+003,-2.264872e-002
3.606291e+003,-2.232057e-002
3.608219e+003,-2.165438e-002
3.610148e+003,-2.165936e-002
3.612076e+003,-2.185797e-002
3.614005e+003,-2.219642e-002
3.615933e+003,-2.235755e-002
3.617862e+003,-2.178054e-002
3.619790e+003,-2.162746e-002
3.621719e+003,-2.227351e-002
3.623647e+003,-2.270856e-002
3.625576e+003,-2.256889e-002
3.627504e+003,-2.109405e-002
3.629433e+003,-2.008399e-002
3.631361e+003,-2.172177e-002
3.633290e+003,-2.236214e-002
3.635218e+003,-2.255530e-002
3.637146e+003,-2.260497e-002
3.639075e+003,-2.259912e-002
3.641004e+003,-2.277151e-002
3.642932e+003,-2.293441e-002
3.644861e+003,-2.285285e-002
3.646789e+003,-2.173541e-002
3.648718e+003,-2.048736e-002
3.650646e+003,-2.075594e-002
3.652574e+003,-2.242999e-002
3.654503e+003,-2.256442e-002
3.656432e+003,-2.192791e-002
3.658360e+003,-2.270061e-002
3.660289e+003,-2.311217e-002
3.662217e+003,-2.320510e-002
3.664146e+003,-2.344908e-002
3.666074e+003,-2.350697e-002
3.668002e+003,-2.266699e-002
3.669931e+003,-2.146703e-002
3.671860e+003,-2.207462e-002
3.673788e+003,-2.170919e-002
3.675717e+003,-2.045459e-002
3.677645e+003,-2.181423e-002
3.679573e+003,-2.266765e-002
3.681502e+003,-2.313944e-002
3.683430e+003,-2.336921e-002
3.685359e+003,-2.334450e-002
3.687288e+003,-2.227323e-002
3.689216e+003,-2.145713e-002
3.691145e+003,-2.191379e-002
3.693073e+003,-2.284194e-002
3.695001e+003,-2.331232e-002
3.696930e+003,-2.317739e-002
3.698858e+003,-2.307727e-002
3.700787e+003,-2.262557e-002
3.702716e+003,-2.271432e-002
3.704644e+003,-2.323506e-002
3.706573e+003,-2.302238e-002
3.708501e+003,-2.233209e-002
3.710429e+003,-2.155627e-002
3.712358e+003,-2.153483e-002
3.714286e+003,-2.292407e-002
3.716215e+003,-2.352043e-002
3.718144e+003,-2.313128e-002
3.720072e+003,-2.289902e-002
3.722000e+003,-2.277092e-002
3.723929e+003,-2.290638e-002
3.725857e+003,-2.278594e-002
3.727786e+003,-2.310435e-002
3.729714e+003,-2.319178e-002
3.731643e+003,-2.211471e-002
3.733572e+003,-2.153946e-002
3.735500e+003,-2.103553e-002
3.737428e+003,-2.183742e-002
3.739357e+003,-2.299076e-002
3.741285e+003,-2.298633e-002
3.743214e+003,-2.094312e-002
3.745142e+003,-2.001761e-002
3.747071e+003,-2.162591e-002
3.749000e+003,-2.062262e-002
3.750928e+003,-2.002325e-002
3.752856e+003,-2.100794e-002
3.754785e+003,-2.246224e-002
3.756713e+003,-2.247781e-002
3.758642e+003,-2.217671e-002
3.760570e+003,-2.219859e-002
3.762499e+003,-2.293404e-002
3.764427e+003,-2.272919e-002
3.766356e+003,-2.255357e-002
3.768284e+003,-2.253454e-002
3.770213e+003,-2.219062e-002
3.772141e+003,-2.270621e-002
3.774070e+003,-2.324646e-002
3.775998e+003,-2.322683e-002
3.777927e+003,-2.267885e-002
3.779855e+003,-2.250824e-002
3.781784e+003,-2.311318e-002
3.783712e+003,-2.316649e-002
3.785641e+003,-2.314359e-002
3.787569e+003,-2.313831e-002
3.789498e+003,-2.346086e-002
3.791426e+003,-2.365867e-002
3.793355e+003,-2.345442e-002
3.795283e+003,-2.283710e-002
3.797212e+003,-2.270885e-002
3.799140e+003,-2.244984e-002
3.801069e+003,-2.134497e-002
3.802997e+003,-2.232730e-002
3.804926e+003,-2.282069e-002
3.806854e+003,-2.175329e-002
3.808783e+003,-2.253932e-002
3.810711e+003,-2.320748e-002
3.812640e+003,-2.343794e-002
3.814568e+003,-2.274859e-002
3.816497e+003,-2.175555e-002
3.818425e+003,-2.232368e-002
3.820354e+003,-2.139982e-002
3.822282e+003,-2.150967e-002
3.824211e+003,-2.285093e-002
3.826139e+003,-2.293561e-002
3.828068e+003,-2.307146e-002
3.829996e+003,-2.289179e-002
3.831925e+003,-2.243071e-002
3.833853e+003,-2.247810e-002
3.835782e+003,-2.216229e-002
3.837710e+003,-2.120230e-002
3.839639e+003,-2.155148e-002
3.841567e+003,-2.228044e-002
3.843496e+003,-2.249282e-002
3.845424e+003,-2.297247e-002
3.847353e+003,-2.354874e-002
3.849281e+003,-2.342356e-002
3.851210e+003,-2.192573e-002
3.853138e+003,-1.950903e-002
3.855067e+003,-2.036813e-002
3.856995e+003,-2.247577e-002
3.858924e+003,-2.328280e-002
3.860852e+003,-2.297725e-002
3.862781e+003,-2.234449e-002
3.864709e+003,-2.198984e-002
3.866638e+003,-2.274737e-002
3.868566e+003,-2.221779e-002
3.870495e+003,-2.159533e-002
3.872423e+003,-2.228557e-002
3.874352e+003,-2.254731e-002
3.876280e+003,-2.332751e-002
3.878209e+003,-2.315261e-002
3.880137e+003,-2.248480e-002
3.882066e+003,-2.295893e-002
3.883994e+003,-2.272523e-002
3.885923e+003,-2.209194e-002
3.887851e+003,-2.304440e-002
3.889780e+003,-2.280060e-002
3.891708e+003,-2.235525e-002
3.893637e+003,-2.310215e-002
3.895565e+003,-2.360097e-002
3.897494e+003,-2.334045e-002
3.899422e+003,-2.252998e-002
3.901351e+003,-2.226973e-002
3.903279e+003,-2.219308e-002
3.905208e+003,-2.251912e-002
3.907136e+003,-2.345797e-002
3.909065e+003,-2.378103e-002
3.910993e+003,-2.391884e-002
3.912922e+003,-2.397014e-002
3.914850e+003,-2.345963e-002
3.916779e+003,-2.282877e-002
3.918707e+003,-2.301295e-002
3.920636e+003,-2.340419e-002
3.922564e+003,-2.326892e-002
3.924493e+003,-2.294827e-002
3.926421e+003,-2.331722e-002
3.928350e+003,-2.374887e-002
3.930278e+003,-2.376986e-002
3.932207e+003,-2.351617e-002
3.934135e+003,-2.363611e-002
3.936064e+003,-2.374250e-002
3.937992e+003,-2.370461e-002
3.939921e+003,-2.374103e-002
3.941849e+003,-2.359626e-002
3.943778e+003,-2.385380e-002
3.945706e+003,-2.395640e-002
3.947635e+003,-2.365588e-002
3.949563e+003,-2.366912e-002
3.951492e+003,-2.382598e-002
3.953420e+003,-2.397239e-002
3.955349e+003,-2.413394e-002
3.957277e+003,-2.409867e-002
3.959206e+003,-2.419709e-002
3.961134e+003,-2.425572e-002
3.963063e+003,-2.394170e-002
3.964991e+003,-2.378470e-002
3.966920e+003,-2.382676e-002
3.968848e+003,-2.372550e-002
3.970777e+003,-2.376867e-002
3.972705e+003,-2.395324e-002
3.974634e+003,-2.392730e-002
3.976562e+003,-2.407353e-002
3.978491e+003,-2.413102e-002
3.980419e+003,-2.397371e-002
3.982348e+003,-2.402074e-002
3.984276e+003,-2.408197e-002
3.986205e+003,-2.406795e-002
3.988133e+003,-2.405096e-002
3.990062e+003,-2.406820e-002
3.991990e+003,-2.413309e-002
3.993919e+003,-2.419069e-002
3.995847e+003,-2.423679e-002
3.997776e+003,-2.407441e-002
3.999704e+003,-2.408764e-002
4.001633e+003,0.000000e+000
