3.991989e+002,-2.858522e-003
4.011274e+002,1.304296e-002
4.030559e+002,1.233733e-002
4.049844e+002,4.039979e-003
4.069129e+002,2.045169e-003
4.088414e+002,7.961211e-003
4.107699e+002,8.696539e-003
4.126984e+002,6.649119e-003
4.146269e+002,9.477003e-003
4.165554e+002,1.192682e-002
4.184839e+002,9.925743e-003
4.204124e+002,8.847096e-003
4.223409e+002,9.089184e-003
4.242694e+002,6.279650e-003
4.261979e+002,6.766288e-003
4.281264e+002,5.705152e-003
4.300549e+002,-3.079830e-003
4.319834e+002,4.770200e-003
4.339119e+002,6.958765e-003
4.358404e+002,1.397255e-003
4.377689e+002,8.221478e-003
4.396974e+002,9.993887e-003
4.416259e+002,6.384479e-003
4.435544e+002,8.339005e-003
4.454829e+002,1.012288e-002
4.474114e+002,1.130335e-002
4.493399e+002,1.214801e-002
4.512684e+002,8.091021e-003
4.531969e+002,3.857883e-003
4.551254e+002,3.379233e-003
4.570539e+002,5.532558e-003
4.589824e+002,5.826197e-003
4.609109e+002,4.935588e-003
4.628394e+002,4.919535e-003
4.647679e+002,6.193398e-003
4.666964e+002,6.664192e-003
4.686249e+002,5.472627e-003
4.705533e+002,3.744905e-003
4.724819e+002,3.653642e-003
4.744103e+002,5.461755e-003
4.763389e+002,7.115928e-003
4.782673e+002,6.157101e-003
4.801959e+002,4.748794e-003
4.821243e+002,4.954791e-003
4.840529e+002,3.283506e-003
4.859813e+002,2.218181e-003
4.879099e+002,2.436775e-003
4.898383e+002,2.613542e-003
4.917668e+002,1.715818e-003
4.936953e+002,7.537905e-004
4.956238e+002,-5.562293e-004
4.975523e+002,-1.381511e-003
4.994808e+002,-1.416652e-003
5.014093e+002,-2.281504e-003
5.033378e+002,-9.457746e-004
5.052663e+002,2.651778e-003
5.071948e+002,2.466297e-003
5.091233e+002,-8.941618e-004
5.110518e+002,-1.748372e-003
5.129803e+002,-3.000205e-003
5.149088e+002,-3.832027e-003
5.168373e+002,-2.927839e-003
5.187658e+002,-2.155511e-003
5.206943e+002,-2.463408e-003
5.226228e+002,-2.798148e-003
5.245513e+002,-2.643753e-003
5.264798e+002,-2.541386e-003
5.284083e+002,-2.616253e-003
5.303368e+002,-1.938416e-003
5.322653e+002,-1.644176e-003
5.341938e+002,-1.779623e-003
5.361223e+002,-2.187030e-003
5.380508e+002,-2.897098e-003
5.399792e+002,-2.609535e-003
5.419078e+002,-1.614335e-003
5.438363e+002,-1.758503e-003
5.457648e+002,-9.563543e-004
5.476932e+002,-9.980424e-004
5.496218e+002,-7.561890e-004
5.515503e+002,-3.198245e-004
5.534788e+002,3.477152e-004
5.554072e+002,8.902958e-004
5.573358e+002,4.301934e-004
5.592643e+002,-1.355633e-004
5.611927e+002,1.244341e-003
5.631212e+002,1.637453e-003
5.650497e+002,1.955017e-004
5.669783e+002,-3.391932e-004
5.689067e+002,8.079626e-004
5.708352e+002,2.172091e-003
5.727637e+002,8.886689e-004
5.746923e+002,-6.470893e-004
5.766207e+002,8.489944e-004
5.785492e+002,-4.638938e-004
5.804777e+002,-4.118848e-003
5.824063e+002,-2.682547e-003
5.843347e+002,-1.541044e-003
5.862632e+002,-1.166672e-003
5.881917e+002,-7.063731e-004
5.901202e+002,-4.083507e-004
5.920487e+002,1.522776e-004
5.939772e+002,1.246401e-003
5.959057e+002,1.380601e-003
5.978342e+002,-9.290449e-004
5.997627e+002,-9.175718e-004
6.016912e+002,-2.919011e-005
6.036197e+002,1.434278e-004
6.055482e+002,1.046805e-003
6.074767e+002,1.288637e-003
6.094052e+002,1.594118e-003
6.113337e+002,2.089348e-003
6.132622e+002,2.215916e-003
6.151907e+002,1.447551e-003
6.171192e+002,9.592619e-004
6.190477e+002,7.022802e-004
6.209762e+002,8.431515e-004
6.229047e+002,-1.028256e-003
6.248332e+002,-2.119903e-003
6.267617e+002,-2.633544e-003
6.286902e+002,-3.567166e-003
6.306187e+002,-3.395982e-003
6.325472e+002,-3.009879e-003
6.344756e+002,-2.834393e-003
6.364042e+002,-2.429999e-003
6.383326e+002,-1.879663e-003
6.402612e+002,-1.977305e-003
6.421896e+002,-1.951610e-003
6.441182e+002,-1.644110e-003
6.460466e+002,-1.796848e-003
6.479752e+002,-1.708835e-003
6.499036e+002,-1.021381e-003
6.518322e+002,-1.010406e-003
6.537606e+002,-1.222779e-003
6.556891e+002,-1.256743e-003
6.576177e+002,-1.143936e-003
6.595461e+002,-1.498285e-003
6.614746e+002,-1.581586e-003
6.634031e+002,-1.134253e-003
6.653317e+002,-1.511295e-003
6.672601e+002,-1.432868e-003
6.691886e+002,-4.271527e-004
6.711171e+002,-2.827401e-004
6.730457e+002,5.069538e-006
6.749741e+002,1.067047e-004
6.769026e+002,6.975276e-005
6.788311e+002,6.927223e-004
6.807596e+002,6.799123e-004
6.826881e+002,2.036233e-004
6.846166e+002,-4.111740e-005
6.865451e+002,-5.732151e-006
6.884736e+002,6.976340e-004
6.904021e+002,1.459552e-003
6.923306e+002,1.236764e-003
6.942591e+002,4.591823e-004
6.961876e+002,1.784303e-004
6.981161e+002,4.040919e-004
7.000446e+002,9.878381e-005
7.019731e+002,1.563877e-004
7.039016e+002,5.269852e-004
7.058301e+002,-8.587494e-005
7.077585e+002,-7.913478e-004
7.096871e+002,-8.710812e-004
7.116156e+002,-1.159435e-003
7.135441e+002,-1.357366e-003
7.154725e+002,-1.674180e-003
7.174011e+002,-1.893354e-003
7.193296e+002,-1.622950e-003
7.212581e+002,-2.415435e-003
7.231865e+002,-2.544416e-003
7.251151e+002,-1.956822e-003
7.270436e+002,-2.672009e-003
7.289720e+002,-3.205522e-003
7.309005e+002,-3.277250e-003
7.328290e+002,-2.766773e-003
7.347576e+002,-2.367424e-003
7.366860e+002,-2.242741e-003
7.386145e+002,-1.815359e-003
7.405430e+002,-1.592844e-003
7.424716e+002,-2.017246e-003
7.444000e+002,-2.140873e-003
7.463285e+002,-2.031263e-003
7.482570e+002,-1.704545e-003
7.501855e+002,-1.221655e-003
7.521140e+002,-8.203856e-004
7.540425e+002,4.122070e-005
7.559710e+002,3.716578e-004
7.578995e+002,4.156334e-004
7.598280e+002,6.076725e-004
7.617565e+002,8.408608e-004
7.636850e+002,1.208056e-003
7.656135e+002,1.693199e-003
7.675420e+002,1.616999e-003
7.694705e+002,1.498385e-003
7.713990e+002,1.360891e-003
7.733275e+002,1.763590e-003
7.752560e+002,1.915056e-003
7.771844e+002,2.080725e-003
7.791130e+002,2.091812e-003
7.810415e+002,2.056488e-003
7.829700e+002,2.114152e-003
7.848984e+002,2.035781e-003
7.868270e+002,1.900047e-003
7.887555e+002,1.759964e-003
7.906840e+002,1.665491e-003
7.926124e+002,1.229653e-003
7.945410e+002,8.370098e-004
7.964695e+002,6.494487e-004
7.983979e+002,7.379252e-004
8.003264e+002,8.731971e-004
8.022549e+002,7.649430e-004
8.041835e+002,7.171817e-004
8.061119e+002,1.211744e-003
8.080404e+002,1.252581e-003
8.099689e+002,1.363816e-003
8.118975e+002,1.689506e-003
8.138259e+002,1.848034e-003
8.157545e+002,1.604161e-003
8.176830e+002,1.481728e-003
8.196115e+002,9.842013e-004
8.215399e+002,6.338194e-004
8.234684e+002,3.100465e-004
8.253970e+002,-5.705307e-005
8.273254e+002,1.191332e-004
8.292539e+002,1.380584e-004
8.311824e+002,-4.583994e-004
8.331110e+002,-8.973030e-004
8.350394e+002,-4.219888e-004
8.369679e+002,-6.826870e-004
8.388964e+002,-1.029612e-003
8.408250e+002,-6.357742e-004
8.427534e+002,-6.545665e-004
8.446819e+002,-1.137062e-003
8.466104e+002,-1.243792e-003
8.485389e+002,-1.186300e-003
8.504674e+002,-1.020356e-003
8.523959e+002,-1.279770e-003
8.543244e+002,-1.504592e-003
8.562529e+002,-1.624205e-003
8.581814e+002,-1.631632e-003
8.601099e+002,-1.188712e-003
8.620384e+002,-1.325292e-003
8.639669e+002,-1.391419e-003
8.658954e+002,-1.438317e-003
8.678239e+002,-1.537709e-003
8.697524e+002,-1.440695e-003
8.716809e+002,-1.375797e-003
8.736094e+002,-1.110227e-003
8.755378e+002,-6.854990e-004
8.774664e+002,-1.051758e-003
8.793949e+002,-1.130353e-003
8.813234e+002,-1.024819e-003
8.832518e+002,-9.705704e-004
8.851804e+002,-8.834814e-004
8.871089e+002,-5.962683e-004
8.890374e+002,-6.433177e-004
8.909658e+002,-1.015364e-003
8.928943e+002,-8.437334e-004
8.948229e+002,-4.104692e-004
8.967513e+002,-3.036336e-004
8.986798e+002,-2.052169e-004
9.006083e+002,-6.911211e-005
9.025369e+002,-1.121774e-004
9.044653e+002,-3.804109e-004
9.063938e+002,-5.736682e-004
9.083223e+002,-6.691563e-004
9.102509e+002,-7.282385e-004
9.121793e+002,-1.024587e-003
9.141078e+002,-1.277557e-003
9.160364e+002,-1.154180e-003
9.179648e+002,-1.002869e-003
9.198933e+002,-1.221853e-003
9.218218e+002,-1.478638e-003
9.237504e+002,-1.619880e-003
9.256788e+002,-1.555703e-003
9.276073e+002,-1.657874e-003
9.295358e+002,-1.781966e-003
9.314644e+002,-2.019588e-003
9.333928e+002,-2.523202e-003
9.353213e+002,-2.784716e-003
9.372498e+002,-2.522181e-003
9.391783e+002,-2.426967e-003
9.411068e+002,-2.451712e-003
9.430353e+002,-2.717945e-003
9.449637e+002,-2.907861e-003
9.468923e+002,-2.682448e-003
9.488208e+002,-2.645861e-003
9.507493e+002,-2.483077e-003
9.526777e+002,-2.580550e-003
9.546063e+002,-2.835348e-003
9.565348e+002,-2.548072e-003
9.584633e+002,-2.363733e-003
9.603917e+002,-2.272473e-003
9.623203e+002,-2.139752e-003
9.642488e+002,-2.375531e-003
9.661772e+002,-2.423047e-003
9.681057e+002,-2.227677e-003
9.700343e+002,-2.199425e-003
9.719628e+002,-2.071792e-003
9.738912e+002,-1.758503e-003
9.758197e+002,-1.935018e-003
9.777483e+002,-1.999601e-003
9.796768e+002,-1.729825e-003
9.816052e+002,-1.887218e-003
9.835337e+002,-1.833110e-003
9.854623e+002,-1.691970e-003
9.873907e+002,-1.573135e-003
9.893192e+002,-1.443171e-003
9.912477e+002,-1.511493e-003
9.931763e+002,-1.565310e-003
9.951047e+002,-1.562405e-003
9.970332e+002,-1.518823e-003
9.989617e+002,-1.251688e-003
1.000890e+003,-1.162012e-003
1.002819e+003,-1.298502e-003
1.004747e+003,-1.179460e-003
1.006676e+003,-1.080878e-003
1.008604e+003,-9.906704e-004
1.010533e+003,-6.356419e-004
1.012461e+003,-4.738233e-004
1.014390e+003,-3.815034e-004
1.016318e+003,-1.710705e-004
1.018247e+003,-3.147722e-006
1.020175e+003,1.662984e-004
1.022104e+003,4.326478e-004
1.024032e+003,7.294950e-004
1.025961e+003,9.698884e-004
1.027889e+003,1.425942e-003
1.029818e+003,1.663895e-003
1.031746e+003,1.820217e-003
1.033675e+003,2.145685e-003
1.035603e+003,2.185045e-003
1.037532e+003,2.311741e-003
1.039460e+003,2.593276e-003
1.041389e+003,2.655845e-003
1.043317e+003,2.568444e-003
1.045246e+003,2.550312e-003
1.047174e+003,2.471562e-003
1.049103e+003,2.385397e-003
1.051031e+003,2.645644e-003
1.052960e+003,2.848011e-003
1.054888e+003,2.588109e-003
1.056817e+003,2.511919e-003
1.058745e+003,2.545346e-003
1.060674e+003,2.596876e-003
1.062602e+003,2.533181e-003
1.064531e+003,2.739930e-003
1.066459e+003,2.996953e-003
1.068388e+003,2.884466e-003
1.070316e+003,2.609676e-003
1.072245e+003,2.694685e-003
1.074173e+003,2.886134e-003
1.076102e+003,2.717490e-003
1.078030e+003,2.548746e-003
1.079959e+003,2.928563e-003
1.081887e+003,3.202721e-003
1.083816e+003,3.281971e-003
1.085744e+003,3.181025e-003
1.087673e+003,3.318896e-003
1.089601e+003,3.577966e-003
1.091530e+003,3.631690e-003
1.093458e+003,3.506178e-003
1.095387e+003,3.456912e-003
1.097315e+003,3.432431e-003
1.099244e+003,3.453138e-003
1.101172e+003,3.437007e-003
1.103101e+003,3.493018e-003
1.105029e+003,3.596341e-003
1.106958e+003,3.686456e-003
1.108886e+003,3.711686e-003
1.110815e+003,3.541753e-003
1.112743e+003,3.533135e-003
1.114672e+003,3.715763e-003
1.116600e+003,3.583812e-003
1.118529e+003,3.472576e-003
1.120457e+003,3.679204e-003
1.122386e+003,3.841035e-003
1.124314e+003,3.495923e-003
1.126243e+003,3.540216e-003
1.128171e+003,3.680341e-003
1.130100e+003,3.456043e-003
1.132028e+003,3.335658e-003
1.133957e+003,3.068090e-003
1.135885e+003,2.675215e-003
1.137814e+003,2.378334e-003
1.139742e+003,1.999963e-003
1.141671e+003,1.772306e-003
1.143599e+003,1.672110e-003
1.145528e+003,1.462777e-003
1.147456e+003,1.115165e-003
1.149385e+003,7.533258e-004
1.151313e+003,5.228716e-004
1.153242e+003,3.842266e-004
1.155170e+003,1.803197e-004
1.157099e+003,4.035914e-005
1.159027e+003,-1.280111e-004
1.160956e+003,-2.496926e-004
1.162884e+003,-2.483349e-004
1.164813e+003,-2.466129e-004
1.166741e+003,-2.923095e-004
1.168670e+003,-2.009446e-004
1.170598e+003,-1.496407e-004
1.172526e+003,-1.439435e-004
1.174455e+003,-1.816359e-004
1.176384e+003,-1.934928e-004
1.178312e+003,-8.773008e-005
1.180240e+003,-5.668864e-005
1.182169e+003,-2.284654e-004
1.184098e+003,-4.101382e-004
1.186026e+003,-5.404112e-004
1.187954e+003,-3.070440e-004
1.189883e+003,-2.532359e-004
1.191812e+003,-2.830050e-004
1.193740e+003,-2.020044e-004
1.195668e+003,-2.379366e-004
1.197597e+003,-1.402669e-004
1.199526e+003,-9.011524e-005
1.201454e+003,-1.843849e-004
1.203382e+003,-7.785801e-005
1.205311e+003,1.264911e-004
1.207240e+003,1.757122e-004
1.209168e+003,2.104853e-004
1.211096e+003,3.871781e-004
1.213025e+003,5.999747e-004
1.214953e+003,8.016886e-004
1.216882e+003,7.670341e-004
1.218810e+003,8.666234e-004
1.220739e+003,1.115231e-003
1.222667e+003,1.235701e-003
1.224596e+003,1.318248e-003
1.226524e+003,1.443163e-003
1.228453e+003,1.520928e-003
1.230381e+003,1.653584e-003
1.232310e+003,1.811533e-003
1.234238e+003,2.037712e-003
1.236167e+003,2.237997e-003
1.238095e+003,2.221911e-003
1.240024e+003,2.267606e-003
1.241952e+003,2.218247e-003
1.243881e+003,2.046201e-003
1.245809e+003,2.043971e-003
1.247738e+003,2.053059e-003
1.249666e+003,1.975131e-003
1.251595e+003,1.908566e-003
1.253523e+003,1.872626e-003
1.255452e+003,1.841213e-003
1.257380e+003,1.659737e-003
1.259309e+003,1.478835e-003
1.261237e+003,1.634160e-003
1.263166e+003,1.898782e-003
1.265094e+003,2.265108e-003
1.267023e+003,2.611076e-003
1.268951e+003,2.716490e-003
1.270880e+003,2.933834e-003
1.272808e+003,3.165137e-003
1.274737e+003,3.422045e-003
1.276665e+003,3.875400e-003
1.278594e+003,4.230516e-003
1.280522e+003,4.429673e-003
1.282451e+003,4.497697e-003
1.284379e+003,4.648010e-003
1.286308e+003,4.996920e-003
1.288236e+003,5.542324e-003
1.290165e+003,5.963029e-003
1.292093e+003,6.273699e-003
1.294022e+003,6.599462e-003
1.295950e+003,6.648379e-003
1.297879e+003,6.742293e-003
1.299807e+003,6.814887e-003
1.301736e+003,6.703594e-003
1.303664e+003,6.735091e-003
1.305593e+003,6.510456e-003
1.307521e+003,6.221564e-003
1.309450e+003,6.060357e-003
1.311378e+003,5.806149e-003
1.313307e+003,5.592599e-003
1.315235e+003,5.405993e-003
1.317164e+003,5.078577e-003
1.319092e+003,4.725012e-003
1.321021e+003,4.458093e-003
1.322949e+003,4.212349e-003
1.324878e+003,4.005868e-003
1.326806e+003,3.811619e-003
1.328735e+003,3.680909e-003
1.330663e+003,3.672956e-003
1.332592e+003,3.411325e-003
1.334520e+003,3.152054e-003
1.336449e+003,3.094652e-003
1.338377e+003,3.103829e-003
1.340306e+003,3.166139e-003
1.342234e+003,3.175851e-003
1.344163e+003,3.007162e-003
1.346091e+003,2.878262e-003
1.348020e+003,2.802521e-003
1.349948e+003,2.689817e-003
1.351877e+003,2.671247e-003
1.353805e+003,2.546046e-003
1.355734e+003,2.322400e-003
1.357662e+003,2.156806e-003
1.359591e+003,1.976663e-003
1.361519e+003,1.751879e-003
1.363448e+003,1.556175e-003
1.365376e+003,1.667520e-003
1.367305e+003,1.620557e-003
1.369233e+003,1.492566e-003
1.371162e+003,1.416934e-003
1.373090e+003,1.185363e-003
1.375019e+003,1.194865e-003
1.376947e+003,1.402340e-003
1.378876e+003,1.476308e-003
1.380804e+003,1.476574e-003
1.382733e+003,1.360193e-003
1.384661e+003,1.333869e-003
1.386590e+003,9.990128e-004
1.388518e+003,7.253462e-004
1.390447e+003,7.700547e-004
1.392375e+003,6.273489e-004
1.394304e+003,2.579588e-004
1.396232e+003,1.777674e-004
1.398161e+003,1.257619e-004
1.400089e+003,1.615916e-004
1.402018e+003,4.469762e-004
1.403946e+003,4.540079e-004
1.405875e+003,4.876422e-004
1.407803e+003,6.265526e-004
1.409732e+003,5.434399e-004
1.411660e+003,5.750242e-004
1.413589e+003,6.517383e-004
1.415517e+003,7.597319e-004
1.417446e+003,7.756311e-004
1.419374e+003,1.060622e-003
1.421303e+003,2.050495e-003
1.423231e+003,2.757236e-003
1.425160e+003,3.380535e-003
1.427088e+003,3.888740e-003
1.429017e+003,4.091218e-003
1.430945e+003,4.318253e-003
1.432874e+003,4.659598e-003
1.434802e+003,4.605546e-003
1.436731e+003,4.412133e-003
1.438659e+003,5.363958e-003
1.440588e+003,5.994406e-003
1.442516e+003,6.354722e-003
1.444445e+003,6.716179e-003
1.446373e+003,6.905336e-003
1.448302e+003,7.303642e-003
1.450230e+003,7.966476e-003
1.452159e+003,8.263351e-003
1.454087e+003,8.090043e-003
1.456016e+003,7.315199e-003
1.457944e+003,7.658943e-003
1.459873e+003,8.819875e-003
1.461801e+003,9.246510e-003
1.463730e+003,8.947439e-003
1.465658e+003,8.759454e-003
1.467587e+003,8.966787e-003
1.469515e+003,8.689509e-003
1.471444e+003,7.770481e-003
1.473372e+003,7.399753e-003
1.475301e+003,7.588466e-003
1.477229e+003,7.522586e-003
1.479158e+003,7.494065e-003
1.481086e+003,7.230831e-003
1.483015e+003,6.882276e-003
1.484943e+003,6.275851e-003
1.486872e+003,5.588035e-003
1.488800e+003,4.925165e-003
1.490729e+003,4.658593e-003
1.492657e+003,4.606249e-003
1.494586e+003,3.993495e-003
1.496514e+003,3.276762e-003
1.498443e+003,3.164370e-003
1.500371e+003,3.210165e-003
1.502300e+003,3.088979e-003
1.504228e+003,2.037179e-003
1.506157e+003,4.823681e-004
1.508085e+003,8.589874e-004
1.510014e+003,1.654149e-003
1.511942e+003,1.721041e-003
1.513871e+003,1.729790e-003
1.515799e+003,1.457990e-003
1.517728e+003,1.389642e-003
1.519656e+003,1.191941e-003
1.521585e+003,8.448446e-004
1.523513e+003,1.543705e-003
1.525442e+003,1.923776e-003
1.527370e+003,2.197466e-003
1.529299e+003,2.650678e-003
1.531227e+003,2.763471e-003
1.533156e+003,2.575110e-003
1.535084e+003,3.169410e-003
1.537013e+003,3.295458e-003
1.538941e+003,2.465564e-003
1.540870e+003,2.575210e-003
1.542798e+003,3.562665e-003
1.544727e+003,4.408853e-003
1.546655e+003,5.192908e-003
1.548584e+003,5.484505e-003
1.550512e+003,5.572227e-003
1.552441e+003,5.547291e-003
1.554369e+003,5.351848e-003
1.556298e+003,5.100233e-003
1.558226e+003,3.867979e-003
1.560155e+003,4.676578e-003
1.562083e+003,6.610462e-003
1.564012e+003,7.293836e-003
1.565940e+003,7.678975e-003
1.567869e+003,7.688317e-003
1.569797e+003,7.537285e-003
1.571726e+003,8.111411e-003
1.573654e+003,8.212226e-003
1.575583e+003,7.553198e-003
1.577511e+003,7.658538e-003
1.579440e+003,8.144598e-003
1.581368e+003,8.063612e-003
1.583297e+003,7.842572e-003
1.585225e+003,7.638439e-003
1.587154e+003,7.390148e-003
1.589082e+003,6.982503e-003
1.591010e+003,6.485466e-003
1.592939e+003,5.940053e-003
1.594868e+003,5.455749e-003
1.596796e+003,5.060474e-003
1.598724e+003,4.734457e-003
1.600653e+003,4.177454e-003
1.602582e+003,3.592566e-003
1.604510e+003,3.155358e-003
1.606438e+003,2.718557e-003
1.608367e+003,2.263276e-003
1.610296e+003,1.965546e-003
1.612224e+003,1.629404e-003
1.614152e+003,1.028106e-003
1.616081e+003,5.901573e-005
1.618010e+003,1.210224e-004
1.619938e+003,4.625323e-004
1.621866e+003,5.063176e-005
1.623795e+003,-3.554159e-004
1.625724e+003,-2.355523e-004
1.627652e+003,-2.076676e-004
1.629580e+003,-2.390626e-004
1.631509e+003,-4.432066e-004
1.633438e+003,-1.164358e-003
1.635366e+003,-2.275572e-003
1.637294e+003,-1.998414e-003
1.639223e+003,-1.658336e-003
1.641151e+003,-1.850531e-003
1.643080e+003,-2.172491e-003
1.645008e+003,-3.138914e-003
1.646937e+003,-3.995554e-003
1.648865e+003,-3.813043e-003
1.650794e+003,-4.562988e-003
1.652722e+003,-6.353209e-003
1.654651e+003,-5.747304e-003
1.656579e+003,-4.818460e-003
1.658508e+003,-4.850081e-003
1.660436e+003,-5.384167e-003
1.662365e+003,-6.144670e-003
1.664293e+003,-6.097559e-003
1.666222e+003,-6.098017e-003
1.668150e+003,-6.773704e-003
1.670079e+003,-7.079421e-003
1.672007e+003,-6.813598e-003
1.673936e+003,-7.054450e-003
1.675864e+003,-7.132390e-003
1.677793e+003,-6.529825e-003
1.679721e+003,-6.473583e-003
1.681650e+003,-6.767637e-003
1.683578e+003,-7.622853e-003
1.685507e+003,-7.106021e-003
1.687435e+003,-6.154209e-003
1.689364e+003,-5.743904e-003
1.691292e+003,-5.345745e-003
1.693221e+003,-5.493719e-003
1.695149e+003,-6.265233e-003
1.697078e+003,-6.265429e-003
1.699006e+003,-6.687902e-003
1.700935e+003,-6.779772e-003
1.702863e+003,-5.611911e-003
1.704792e+003,-5.517798e-003
1.706720e+003,-5.341098e-003
1.708649e+003,-5.143238e-003
1.710577e+003,-5.123821e-003
1.712506e+003,-5.387014e-003
1.714434e+003,-5.762476e-003
1.716363e+003,-6.339070e-003
1.718291e+003,-6.408813e-003
1.720220e+003,-5.527810e-003
1.722148e+003,-5.150508e-003
1.724077e+003,-5.183479e-003
1.726005e+003,-5.179157e-003
1.727934e+003,-5.277894e-003
1.729862e+003,-5.472648e-003
1.731791e+003,-5.896939e-003
1.733719e+003,-6.672306e-003
1.735648e+003,-6.160841e-003
1.737576e+003,-5.677978e-003
1.739505e+003,-5.911354e-003
1.741433e+003,-5.632746e-003
1.743362e+003,-5.373826e-003
1.745290e+003,-5.238054e-003
1.747219e+003,-5.350196e-003
1.749147e+003,-5.478996e-003
1.751076e+003,-5.441335e-003
1.753004e+003,-4.940768e-003
1.754933e+003,-4.771763e-003
1.756861e+003,-4.808007e-003
1.758790e+003,-4.645966e-003
1.760718e+003,-4.888121e-003
1.762647e+003,-4.832289e-003
1.764575e+003,-4.484389e-003
1.766504e+003,-4.675009e-003
1.768432e+003,-4.885172e-003
1.770361e+003,-5.029504e-003
1.772289e+003,-5.218805e-003
1.774218e+003,-4.763111e-003
1.776146e+003,-4.313631e-003
1.778075e+003,-4.188325e-003
1.780003e+003,-4.244109e-003
1.781932e+003,-4.223141e-003
1.783860e+003,-4.195446e-003
1.785789e+003,-4.118093e-003
1.787717e+003,-4.123377e-003
1.789646e+003,-4.369137e-003
1.791574e+003,-4.734074e-003
1.793503e+003,-4.536102e-003
1.795431e+003,-4.106179e-003
1.797360e+003,-4.119472e-003
1.799288e+003,-4.327279e-003
1.801217e+003,-4.375304e-003
1.803145e+003,-4.126036e-003
1.805074e+003,-3.987346e-003
1.807002e+003,-3.933434e-003
1.808931e+003,-4.028514e-003
1.810859e+003,-4.130532e-003
1.812788e+003,-4.184748e-003
1.814716e+003,-4.206439e-003
1.816645e+003,-4.217366e-003
1.818573e+003,-4.165714e-003
1.820502e+003,-4.189244e-003
1.822430e+003,-4.160628e-003
1.824359e+003,-4.385078e-003
1.826287e+003,-4.388096e-003
1.828216e+003,-4.382520e-003
1.830144e+003,-4.536232e-003
1.832073e+003,-4.449823e-003
1.834001e+003,-4.362051e-003
1.835930e+003,-4.339974e-003
1.837858e+003,-4.379633e-003
1.839787e+003,-4.250835e-003
1.841715e+003,-4.362379e-003
1.843644e+003,-4.865055e-003
1.845572e+003,-4.655046e-003
1.847501e+003,-4.334660e-003
1.849429e+003,-4.231673e-003
1.851358e+003,-4.095315e-003
1.853286e+003,-4.088553e-003
1.855215e+003,-4.136539e-003
1.857143e+003,-4.187407e-003
1.859072e+003,-4.216054e-003
1.861000e+003,-4.229310e-003
1.862929e+003,-4.193871e-003
1.864857e+003,-4.221829e-003
1.866786e+003,-4.417944e-003
1.868714e+003,-4.561710e-003
1.870643e+003,-4.344337e-003
1.872571e+003,-4.095708e-003
1.874500e+003,-3.940756e-003
1.876428e+003,-3.829760e-003
1.878357e+003,-3.816787e-003
1.880285e+003,-3.827396e-003
1.882214e+003,-3.832191e-003
1.884142e+003,-3.909037e-003
1.886071e+003,-3.886772e-003
1.887999e+003,-3.953726e-003
1.889928e+003,-4.007766e-003
1.891856e+003,-3.786668e-003
1.893785e+003,-3.730136e-003
1.895713e+003,-3.750174e-003
1.897642e+003,-3.738940e-003
1.899570e+003,-3.679937e-003
1.901499e+003,-3.565260e-003
1.903427e+003,-3.530654e-003
1.905356e+003,-3.612285e-003
1.907284e+003,-3.638637e-003
1.909213e+003,-3.677473e-003
1.911141e+003,-3.624804e-003
1.913070e+003,-3.551589e-003
1.914998e+003,-3.609919e-003
1.916927e+003,-3.841157e-003
1.918855e+003,-3.818232e-003
1.920784e+003,-3.662458e-003
1.922712e+003,-3.678163e-003
1.924641e+003,-3.674286e-003
1.926569e+003,-3.613040e-003
1.928498e+003,-3.520695e-003
1.930426e+003,-3.520564e-003
1.932355e+003,-3.564636e-003
1.934283e+003,-3.668766e-003
1.936212e+003,-3.705826e-003
1.938140e+003,-3.722810e-003
1.940069e+003,-3.786110e-003
1.941997e+003,-3.952872e-003
1.943926e+003,-3.884047e-003
1.945854e+003,-3.720182e-003
1.947783e+003,-3.714860e-003
1.949711e+003,-3.740320e-003
1.951640e+003,-3.791759e-003
1.953568e+003,-3.823454e-003
1.955497e+003,-3.748992e-003
1.957425e+003,-3.743079e-003
1.959354e+003,-3.849729e-003
1.961282e+003,-3.876724e-003
1.963211e+003,-3.887002e-003
1.965139e+003,-3.902371e-003
1.967068e+003,-3.951624e-003
1.968996e+003,-3.863226e-003
1.970925e+003,-3.763412e-003
1.972853e+003,-3.679707e-003
1.974782e+003,-3.637914e-003
1.976710e+003,-3.644387e-003
1.978639e+003,-3.657267e-003
1.980567e+003,-3.672183e-003
1.982496e+003,-3.682204e-003
1.984424e+003,-3.619744e-003
1.986353e+003,-3.590301e-003
1.988281e+003,-3.600882e-003
1.990210e+003,-3.607651e-003
1.992138e+003,-3.586620e-003
1.994067e+003,-3.512939e-003
1.995995e+003,-3.420441e-003
1.997924e+003,-3.350446e-003
1.999852e+003,-3.429612e-003
2.001781e+003,-3.399467e-003
2.003709e+003,-3.297902e-003
2.005638e+003,-3.259196e-003
2.007566e+003,-3.221079e-003
2.009495e+003,-3.199339e-003
2.011423e+003,-3.166348e-003
2.013352e+003,-3.161151e-003
2.015280e+003,-3.125394e-003
2.017208e+003,-3.197070e-003
2.019137e+003,-3.157006e-003
2.021066e+003,-3.097793e-003
2.022994e+003,-3.148092e-003
2.024922e+003,-3.153125e-003
2.026851e+003,-3.194701e-003
2.028780e+003,-3.267681e-003
2.030708e+003,-3.224105e-003
2.032636e+003,-3.228117e-003
2.034565e+003,-3.177959e-003
2.036494e+003,-3.062458e-003
2.038422e+003,-3.114374e-003
2.040350e+003,-3.137730e-003
2.042279e+003,-3.124868e-003
2.044208e+003,-3.097628e-003
2.046136e+003,-3.083811e-003
2.048064e+003,-3.033505e-003
2.049993e+003,-2.947552e-003
2.051921e+003,-2.896276e-003
2.053850e+003,-2.881003e-003
2.055778e+003,-2.918558e-003
2.057707e+003,-2.925041e-003
2.059635e+003,-2.937778e-003
2.061564e+003,-3.001554e-003
2.063492e+003,-3.014256e-003
2.065421e+003,-2.970325e-003
2.067349e+003,-2.833439e-003
2.069278e+003,-2.673557e-003
2.071206e+003,-2.639834e-003
2.073135e+003,-2.641777e-003
2.075063e+003,-2.692689e-003
2.076992e+003,-2.624290e-003
2.078920e+003,-2.616056e-003
2.080849e+003,-2.728350e-003
2.082777e+003,-2.688671e-003
2.084706e+003,-2.616879e-003
2.086634e+003,-2.582988e-003
2.088563e+003,-2.507785e-003
2.090491e+003,-2.409405e-003
2.092420e+003,-2.332360e-003
2.094348e+003,-2.289382e-003
2.096277e+003,-2.263046e-003
2.098205e+003,-2.311662e-003
2.100134e+003,-2.279791e-003
2.102062e+003,-2.158083e-003
2.103991e+003,-2.033967e-003
2.105919e+003,-1.996138e-003
2.107848e+003,-2.009067e-003
2.109776e+003,-1.942836e-003
2.111705e+003,-1.829019e-003
2.113633e+003,-1.856041e-003
2.115562e+003,-1.892232e-003
2.117490e+003,-1.845780e-003
2.119419e+003,-1.742003e-003
2.121347e+003,-1.601658e-003
2.123276e+003,-1.524898e-003
2.125204e+003,-1.558377e-003
2.127133e+003,-1.599545e-003
2.129061e+003,-1.606247e-003
2.130990e+003,-1.569734e-003
2.132918e+003,-1.505153e-003
2.134847e+003,-1.423621e-003
2.136775e+003,-1.376358e-003
2.138704e+003,-1.388480e-003
2.140632e+003,-1.403442e-003
2.142561e+003,-1.336623e-003
2.144489e+003,-1.319412e-003
2.146418e+003,-1.424149e-003
2.148346e+003,-1.388744e-003
2.150275e+003,-1.374146e-003
2.152203e+003,-1.402220e-003
2.154132e+003,-1.375202e-003
2.156060e+003,-1.396836e-003
2.157989e+003,-1.365459e-003
2.159917e+003,-1.383361e-003
2.161846e+003,-1.387126e-003
2.163774e+003,-1.318322e-003
2.165703e+003,-1.261930e-003
2.167631e+003,-1.189373e-003
2.169560e+003,-1.263219e-003
2.171488e+003,-1.368927e-003
2.173417e+003,-1.406183e-003
2.175345e+003,-1.416949e-003
2.177274e+003,-1.426659e-003
2.179202e+003,-1.447828e-003
2.181131e+003,-1.438383e-003
2.183059e+003,-1.356474e-003
2.184988e+003,-1.248649e-003
2.186916e+003,-1.324334e-003
2.188845e+003,-1.484185e-003
2.190773e+003,-1.421507e-003
2.192702e+003,-1.316109e-003
2.194630e+003,-1.250003e-003
2.196559e+003,-1.228627e-003
2.198487e+003,-1.268670e-003
2.200416e+003,-1.317496e-003
2.202344e+003,-1.328662e-003
2.204273e+003,-1.307718e-003
2.206201e+003,-1.311583e-003
2.208130e+003,-1.284230e-003
2.210058e+003,-1.330412e-003
2.211987e+003,-1.374146e-003
2.213915e+003,-1.372131e-003
2.215844e+003,-1.420417e-003
2.217772e+003,-1.388315e-003
2.219701e+003,-1.242305e-003
2.221629e+003,-1.286939e-003
2.223558e+003,-1.354426e-003
2.225486e+003,-1.202227e-003
2.227415e+003,-1.208373e-003
2.229343e+003,-1.326812e-003
2.231272e+003,-1.383328e-003
2.233200e+003,-1.416190e-003
2.235129e+003,-1.426494e-003
2.237057e+003,-1.448191e-003
2.238986e+003,-1.370942e-003
2.240914e+003,-1.294339e-003
2.242843e+003,-1.345706e-003
2.244771e+003,-1.313499e-003
2.246700e+003,-1.261930e-003
2.248628e+003,-1.340950e-003
2.250557e+003,-1.417841e-003
2.252485e+003,-1.429334e-003
2.254414e+003,-1.461995e-003
2.256342e+003,-1.493794e-003
2.258271e+003,-1.524997e-003
2.260199e+003,-1.554151e-003
2.262128e+003,-1.529455e-003
2.264056e+003,-1.590434e-003
2.265985e+003,-1.660086e-003
2.267913e+003,-1.652824e-003
2.269842e+003,-1.680154e-003
2.271770e+003,-1.704875e-003
2.273699e+003,-1.781075e-003
2.275627e+003,-1.764047e-003
2.277556e+003,-1.752728e-003
2.279484e+003,-1.803183e-003
2.281413e+003,-1.767215e-003
2.283341e+003,-1.808562e-003
2.285270e+003,-1.870458e-003
2.287198e+003,-1.799520e-003
2.289127e+003,-1.732696e-003
2.291055e+003,-1.662363e-003
2.292984e+003,-1.752035e-003
2.294912e+003,-1.828722e-003
2.296841e+003,-1.696293e-003
2.298769e+003,-1.672595e-003
2.300698e+003,-1.856206e-003
2.302626e+003,-1.933303e-003
2.304555e+003,-1.765697e-003
2.306483e+003,-1.649688e-003
2.308412e+003,-1.699099e-003
2.310340e+003,-1.754048e-003
2.312269e+003,-1.734413e-003
2.314197e+003,-1.786552e-003
2.316125e+003,-1.736987e-003
2.318054e+003,-1.777247e-003
2.319983e+003,-1.748735e-003
2.321911e+003,-1.621366e-003
2.323840e+003,-1.560754e-003
2.325768e+003,-1.527738e-003
2.327697e+003,-1.581586e-003
2.329625e+003,-1.660152e-003
2.331553e+003,-1.664278e-003
2.333482e+003,-1.601031e-003
2.335411e+003,-1.529092e-003
2.337339e+003,-1.548638e-003
2.339268e+003,-1.466618e-003
2.341196e+003,-1.368200e-003
2.343125e+003,-1.336953e-003
2.345053e+003,-1.291762e-003
2.346981e+003,-1.223770e-003
2.348910e+003,-1.197898e-003
2.350839e+003,-1.306727e-003
2.352767e+003,-1.365459e-003
2.354696e+003,-1.421804e-003
2.356624e+003,-1.389702e-003
2.358552e+003,-1.483624e-003
2.360481e+003,-1.585581e-003
2.362409e+003,-1.545996e-003
2.364338e+003,-1.421045e-003
2.366267e+003,-1.321526e-003
2.368195e+003,-1.303424e-003
2.370124e+003,-1.133922e-003
2.372052e+003,-1.076912e-003
2.373980e+003,-1.099056e-003
2.375909e+003,-1.029083e-003
2.377838e+003,-8.438326e-004
2.379766e+003,-7.286355e-004
2.381695e+003,-6.682631e-004
2.383623e+003,-6.651201e-004
2.385552e+003,-6.785518e-004
2.387480e+003,-5.869041e-004
2.389408e+003,-6.238632e-004
2.391337e+003,-6.846720e-004
2.393266e+003,-6.353111e-004
2.395194e+003,-5.920329e-004
2.397123e+003,-4.490984e-004
2.399051e+003,-4.212606e-004
2.400979e+003,-4.021935e-004
2.402908e+003,-3.170433e-004
2.404836e+003,-3.080373e-004
2.406765e+003,-3.143614e-004
2.408694e+003,-1.882599e-004
2.410622e+003,-9.647560e-005
2.412551e+003,-7.398201e-005
2.414479e+003,-7.842119e-005
2.416407e+003,1.408219e-005
2.418336e+003,5.205670e-005
2.420264e+003,6.521268e-005
2.422193e+003,7.581730e-005
2.424122e+003,1.454165e-004
2.426050e+003,1.964630e-004
2.427979e+003,2.661479e-004
2.429907e+003,2.877651e-004
2.431835e+003,2.719831e-004
2.433764e+003,1.716019e-004
2.435692e+003,1.690828e-004
2.437621e+003,2.669104e-004
2.439550e+003,4.130797e-004
2.441478e+003,5.782092e-004
2.443406e+003,5.890255e-004
2.445335e+003,5.445347e-004
2.447263e+003,5.906181e-004
2.449192e+003,6.595034e-004
2.451121e+003,6.749676e-004
2.453049e+003,7.149249e-004
2.454978e+003,7.447957e-004
2.456906e+003,7.370622e-004
2.458834e+003,7.920953e-004
2.460763e+003,8.948445e-004
2.462691e+003,9.647079e-004
2.464620e+003,9.868912e-004
2.466549e+003,1.008910e-003
2.468477e+003,9.842013e-004
2.470406e+003,9.771278e-004
2.472334e+003,1.003031e-003
2.474262e+003,1.009441e-003
2.476191e+003,1.084438e-003
2.478119e+003,1.122639e-003
2.480048e+003,1.143834e-003
2.481977e+003,1.198852e-003
2.483905e+003,1.214867e-003
2.485833e+003,1.264411e-003
2.487762e+003,1.348493e-003
2.489690e+003,1.411748e-003
2.491619e+003,1.355473e-003
2.493547e+003,1.255040e-003
2.495476e+003,1.229886e-003
2.497405e+003,1.254044e-003
2.499333e+003,1.344638e-003
2.501261e+003,1.371062e-003
2.503190e+003,1.352315e-003
2.505118e+003,1.257765e-003
2.507047e+003,1.261122e-003
2.508975e+003,1.432059e-003
2.510904e+003,1.473981e-003
2.512833e+003,1.472917e-003
2.514761e+003,1.493331e-003
2.516689e+003,1.493830e-003
2.518618e+003,1.468562e-003
2.520546e+003,1.577956e-003
2.522475e+003,1.652952e-003
2.524403e+003,1.607221e-003
2.526332e+003,1.642342e-003
2.528260e+003,1.713091e-003
2.530189e+003,1.771441e-003
2.532117e+003,1.741899e-003
2.534046e+003,1.753177e-003
2.535974e+003,1.728193e-003
2.537903e+003,1.624448e-003
2.539831e+003,1.631233e-003
2.541760e+003,1.710363e-003
2.543688e+003,1.784017e-003
2.545617e+003,1.825208e-003
2.547545e+003,1.805877e-003
2.549474e+003,1.833260e-003
2.551402e+003,1.961651e-003
2.553331e+003,1.996035e-003
2.555259e+003,1.986282e-003
2.557188e+003,2.005588e-003
2.559116e+003,2.028824e-003
2.561045e+003,2.068640e-003
2.562973e+003,2.066509e-003
2.564902e+003,2.070870e-003
2.566830e+003,2.098603e-003
2.568759e+003,2.089115e-003
2.570687e+003,2.146084e-003
2.572616e+003,2.133331e-003
2.574544e+003,2.108991e-003
2.576473e+003,2.117515e-003
2.578401e+003,2.111289e-003
2.580330e+003,2.136960e-003
2.582258e+003,2.197932e-003
2.584187e+003,2.104430e-003
2.586115e+003,2.152278e-003
2.588044e+003,2.289523e-003
2.589972e+003,2.228005e-003
2.591901e+003,2.210055e-003
2.593829e+003,2.278997e-003
2.595758e+003,2.346219e-003
2.597686e+003,2.425179e-003
2.599615e+003,2.443006e-003
2.601543e+003,2.388196e-003
2.603472e+003,2.414384e-003
2.605400e+003,2.418648e-003
2.607329e+003,2.379734e-003
2.609257e+003,2.294686e-003
2.611186e+003,2.319402e-003
2.613114e+003,2.484859e-003
2.615043e+003,2.459999e-003
2.616971e+003,2.362410e-003
2.618900e+003,2.384298e-003
2.620828e+003,2.463098e-003
2.622757e+003,2.452435e-003
2.624685e+003,2.390062e-003
2.626614e+003,2.435708e-003
2.628542e+003,2.531782e-003
2.630471e+003,2.572077e-003
2.632399e+003,2.596042e-003
2.634328e+003,2.683116e-003
2.636256e+003,2.692051e-003
2.638185e+003,2.621409e-003
2.640113e+003,2.683549e-003
2.642042e+003,2.735929e-003
2.643970e+003,2.753334e-003
2.645899e+003,2.868756e-003
2.647827e+003,2.860418e-003
2.649756e+003,2.826632e-003
2.651684e+003,2.904980e-003
2.653613e+003,2.931799e-003
2.655541e+003,2.912618e-003
2.657470e+003,2.875794e-003
2.659398e+003,2.883465e-003
2.661327e+003,3.008630e-003
2.663255e+003,3.276796e-003
2.665184e+003,3.334355e-003
2.667112e+003,3.322903e-003
2.669041e+003,3.221046e-003
2.670969e+003,3.141875e-003
2.672898e+003,3.213903e-003
2.674826e+003,3.275727e-003
2.676755e+003,3.334389e-003
2.678683e+003,3.363038e-003
2.680612e+003,3.390820e-003
2.682540e+003,3.358530e-003
2.684469e+003,3.405514e-003
2.686397e+003,3.500132e-003
2.688326e+003,3.565872e-003
2.690254e+003,3.633594e-003
2.692183e+003,3.697717e-003
2.694111e+003,3.689196e-003
2.696040e+003,3.706306e-003
2.697968e+003,3.793803e-003
2.699897e+003,3.761984e-003
2.701825e+003,3.762017e-003
2.703754e+003,3.859889e-003
2.705682e+003,3.874865e-003
2.707611e+003,3.824588e-003
2.709539e+003,3.848690e-003
2.711468e+003,3.963935e-003
2.713396e+003,3.987509e-003
2.715325e+003,3.940228e-003
2.717253e+003,3.945210e-003
2.719182e+003,3.901076e-003
2.721110e+003,3.958953e-003
2.723039e+003,4.153736e-003
2.724967e+003,4.302558e-003
2.726896e+003,4.467165e-003
2.728824e+003,4.446310e-003
2.730753e+003,4.377457e-003
2.732681e+003,4.453540e-003
2.734610e+003,4.444201e-003
2.736538e+003,4.410359e-003
2.738467e+003,4.398074e-003
2.740395e+003,4.351987e-003
2.742324e+003,4.416953e-003
2.744252e+003,4.616128e-003
2.746181e+003,4.687028e-003
2.748109e+003,4.762094e-003
2.750038e+003,4.877347e-003
2.751966e+003,4.966890e-003
2.753895e+003,4.982139e-003
2.755823e+003,5.141606e-003
2.757752e+003,5.359899e-003
2.759680e+003,5.464372e-003
2.761609e+003,5.555345e-003
2.763537e+003,5.715593e-003
2.765466e+003,5.883995e-003
2.767394e+003,5.987183e-003
2.769323e+003,6.212422e-003
2.771251e+003,6.492663e-003
2.773180e+003,6.669441e-003
2.775108e+003,6.899343e-003
2.777037e+003,7.240062e-003
2.778965e+003,7.589613e-003
2.780894e+003,7.924563e-003
2.782822e+003,8.450683e-003
2.784750e+003,8.995675e-003
2.786679e+003,9.266887e-003
2.788608e+003,9.503858e-003
2.790536e+003,9.916556e-003
2.792465e+003,1.024126e-002
2.794393e+003,1.047368e-002
2.796322e+003,1.081337e-002
2.798250e+003,1.125431e-002
2.800178e+003,1.161150e-002
2.802107e+003,1.186443e-002
2.804036e+003,1.206736e-002
2.805964e+003,1.215577e-002
2.807893e+003,1.222274e-002
2.809821e+003,1.242300e-002
2.811750e+003,1.244148e-002
2.813678e+003,1.231875e-002
2.815606e+003,1.222867e-002
2.817535e+003,1.211312e-002
2.819464e+003,1.196282e-002
2.821392e+003,1.175340e-002
2.823321e+003,1.160875e-002
2.825249e+003,1.133770e-002
2.827177e+003,1.095732e-002
2.829106e+003,1.064030e-002
2.831034e+003,1.037176e-002
2.832963e+003,1.006523e-002
2.834892e+003,9.726794e-003
2.836820e+003,9.375080e-003
2.838749e+003,9.034375e-003
2.840677e+003,8.581756e-003
2.842605e+003,7.993947e-003
2.844534e+003,7.454794e-003
2.846462e+003,6.981055e-003
2.848391e+003,6.538238e-003
2.850320e+003,6.278036e-003
2.852248e+003,6.208220e-003
2.854177e+003,6.091068e-003
2.856105e+003,5.979591e-003
2.858033e+003,5.972402e-003
2.859962e+003,5.951776e-003
2.861890e+003,6.045204e-003
2.863819e+003,6.100443e-003
2.865748e+003,6.171955e-003
2.867676e+003,6.187852e-003
2.869604e+003,6.247615e-003
2.871533e+003,6.248724e-003
2.873461e+003,6.210438e-003
2.875390e+003,6.325270e-003
2.877319e+003,6.446084e-003
2.879247e+003,6.595929e-003
2.881176e+003,6.601682e-003
2.883104e+003,6.507294e-003
2.885032e+003,6.418038e-003
2.886961e+003,6.383504e-003
2.888889e+003,6.482170e-003
2.890818e+003,6.488190e-003
2.892747e+003,6.469894e-003
2.894675e+003,6.351124e-003
2.896604e+003,6.184290e-003
2.898532e+003,6.090127e-003
2.900460e+003,6.002871e-003
2.902389e+003,5.881610e-003
2.904317e+003,5.765888e-003
2.906246e+003,5.705085e-003
2.908175e+003,5.616698e-003
2.910103e+003,5.398310e-003
2.912031e+003,5.141673e-003
2.913960e+003,4.941084e-003
2.915888e+003,4.766281e-003
2.917817e+003,4.709235e-003
2.919745e+003,4.865854e-003
2.921674e+003,5.004194e-003
2.923603e+003,5.056552e-003
2.925531e+003,5.112202e-003
2.927459e+003,5.204611e-003
2.929388e+003,5.242170e-003
2.931316e+003,5.343227e-003
2.933245e+003,5.528129e-003
2.935173e+003,5.654965e-003
2.937102e+003,5.723114e-003
2.939031e+003,5.679168e-003
2.940959e+003,5.585114e-003
2.942887e+003,5.570683e-003
2.944816e+003,5.496920e-003
2.946744e+003,5.347621e-003
2.948673e+003,5.123467e-003
2.950601e+003,4.901272e-003
2.952530e+003,4.582440e-003
2.954458e+003,4.285659e-003
2.956387e+003,4.007005e-003
2.958315e+003,3.543958e-003
2.960244e+003,3.185564e-003
2.962172e+003,2.999088e-003
2.964101e+003,2.766206e-003
2.966029e+003,2.414650e-003
2.967958e+003,2.166263e-003
2.969886e+003,2.036880e-003
2.971815e+003,1.747821e-003
2.973743e+003,1.576726e-003
2.975672e+003,1.399183e-003
2.977600e+003,1.209119e-003
2.979529e+003,1.186326e-003
2.981457e+003,1.126692e-003
2.983386e+003,8.427199e-004
2.985314e+003,5.991452e-004
2.987243e+003,5.811621e-004
2.989171e+003,6.220730e-004
2.991100e+003,5.088060e-004
2.993028e+003,3.787547e-004
2.994957e+003,3.101791e-004
2.996885e+003,3.053381e-004
2.998814e+003,2.992372e-004
3.000742e+003,2.571300e-004
3.002671e+003,1.050476e-004
3.004599e+003,9.973461e-006
3.006528e+003,5.517168e-005
3.008456e+003,1.537029e-004
3.010385e+003,1.064396e-004
3.012313e+003,1.653420e-005
3.014242e+003,-8.283502e-007
3.016170e+003,6.514641e-005
3.018099e+003,1.268888e-004
3.020027e+003,6.090464e-005
3.021956e+003,6.812893e-005
3.023884e+003,2.428793e-005
3.025813e+003,-1.430823e-004
3.027741e+003,-9.790005e-005
3.029670e+003,5.676232e-005
3.031598e+003,3.340040e-005
3.033527e+003,-9.137407e-005
3.035455e+003,-2.288297e-004
3.037384e+003,-2.825414e-004
3.039312e+003,-2.908195e-004
3.041241e+003,-3.012496e-004
3.043169e+003,-3.478343e-004
3.045098e+003,-4.451595e-004
3.047026e+003,-4.279471e-004
3.048955e+003,-3.507809e-004
3.050883e+003,-3.617393e-004
3.052812e+003,-4.438355e-004
3.054740e+003,-4.843814e-004
3.056669e+003,-3.675660e-004
3.058597e+003,-3.273403e-004
3.060526e+003,-5.364400e-004
3.062454e+003,-6.677999e-004
3.064383e+003,-6.918507e-004
3.066311e+003,-6.929754e-004
3.068240e+003,-7.184141e-004
3.070168e+003,-7.480191e-004
3.072097e+003,-5.409406e-004
3.074025e+003,-4.849440e-004
3.075954e+003,-6.816615e-004
3.077882e+003,-8.743880e-004
3.079811e+003,-8.426090e-004
3.081739e+003,-7.440498e-004
3.083668e+003,-7.902894e-004
3.085596e+003,-9.700414e-004
3.087525e+003,-1.014935e-003
3.089453e+003,-9.244491e-004
3.091382e+003,-8.326218e-004
3.093310e+003,-8.421461e-004
3.095239e+003,-1.024290e-003
3.097167e+003,-1.102229e-003
3.099096e+003,-9.584372e-004
3.101024e+003,-1.023893e-003
3.102953e+003,-1.171562e-003
3.104881e+003,-1.078267e-003
3.106810e+003,-9.982408e-004
3.108738e+003,-1.032950e-003
3.110667e+003,-1.138880e-003
3.112595e+003,-1.153652e-003
3.114524e+003,-1.136104e-003
3.116452e+003,-1.095520e-003
3.118381e+003,-1.101204e-003
3.120309e+003,-1.151702e-003
3.122238e+003,-1.180881e-003
3.124166e+003,-1.167498e-003
3.126095e+003,-1.021348e-003
3.128023e+003,-1.052320e-003
3.129952e+003,-1.255323e-003
3.131880e+003,-1.297841e-003
3.133809e+003,-1.341974e-003
3.135737e+003,-1.359612e-003
3.137666e+003,-1.266886e-003
3.139594e+003,-1.286080e-003
3.141523e+003,-1.274980e-003
3.143451e+003,-1.105368e-003
3.145380e+003,-1.074796e-003
3.147308e+003,-1.084910e-003
3.149237e+003,-1.198526e-003
3.151165e+003,-1.279374e-003
3.153094e+003,-1.219739e-003
3.155022e+003,-1.256281e-003
3.156951e+003,-1.426362e-003
3.158879e+003,-1.353469e-003
3.160808e+003,-1.240455e-003
3.162736e+003,-1.367407e-003
3.164665e+003,-1.390792e-003
3.166593e+003,-1.271511e-003
3.168522e+003,-1.203846e-003
3.170450e+003,-1.213197e-003
3.172379e+003,-1.169646e-003
3.174307e+003,-1.083886e-003
3.176236e+003,-1.094330e-003
3.178164e+003,-1.178369e-003
3.180093e+003,-1.201467e-003
3.182021e+003,-1.330313e-003
3.183950e+003,-1.370677e-003
3.185878e+003,-1.245411e-003
3.187807e+003,-1.257536e-003
3.189735e+003,-1.371900e-003
3.191664e+003,-1.518823e-003
3.193592e+003,-1.503899e-003
3.195521e+003,-1.312806e-003
3.197449e+003,-1.197039e-003
3.199378e+003,-1.224166e-003
3.201306e+003,-1.144200e-003
3.203235e+003,-1.061377e-003
3.205163e+003,-1.179460e-003
3.207092e+003,-1.245973e-003
3.209020e+003,-1.132270e-003
3.210948e+003,-1.111350e-003
3.212877e+003,-1.163103e-003
3.214806e+003,-1.147340e-003
3.216734e+003,-1.041082e-003
3.218663e+003,-9.930506e-004
3.220591e+003,-9.171090e-004
3.222520e+003,-8.541833e-004
3.224448e+003,-7.275770e-004
3.226376e+003,-7.208951e-004
3.228305e+003,-6.430530e-004
3.230234e+003,-4.810716e-004
3.232162e+003,-5.366055e-004
3.234091e+003,-5.237320e-004
3.236019e+003,-4.697853e-004
3.237948e+003,-4.823624e-004
3.239876e+003,-4.304297e-004
3.241804e+003,-3.790536e-004
3.243733e+003,-3.982542e-004
3.245662e+003,-4.322834e-004
3.247590e+003,-4.296022e-004
3.249519e+003,-2.545273e-004
3.251447e+003,-3.790369e-005
3.253375e+003,-3.956024e-005
3.255304e+003,3.823837e-005
3.257232e+003,2.969494e-004
3.259161e+003,3.973595e-004
3.261090e+003,4.637928e-004
3.263018e+003,3.767317e-004
3.264947e+003,3.105770e-004
3.266875e+003,4.205088e-004
3.268803e+003,4.252184e-004
3.270732e+003,4.298617e-004
3.272660e+003,4.354007e-004
3.274589e+003,5.159714e-004
3.276518e+003,6.351136e-004
3.278446e+003,6.704544e-004
3.280375e+003,6.367395e-004
3.282303e+003,5.494779e-004
3.284231e+003,4.899974e-004
3.286160e+003,4.810744e-004
3.288088e+003,4.298617e-004
3.290017e+003,4.319513e-004
3.291946e+003,3.051060e-004
3.293874e+003,2.232483e-004
3.295802e+003,2.647222e-004
3.297731e+003,2.583235e-004
3.299659e+003,1.664642e-004
3.301588e+003,6.716789e-005
3.303516e+003,-1.497400e-004
3.305445e+003,-2.671770e-004
3.307374e+003,-3.825296e-004
3.309302e+003,-5.081113e-004
3.311230e+003,-7.115997e-004
3.313159e+003,-8.139696e-004
3.315087e+003,-7.588351e-004
3.317016e+003,-7.845015e-004
3.318944e+003,-8.873502e-004
3.320873e+003,-8.822249e-004
3.322802e+003,-8.694278e-004
3.324730e+003,-9.742400e-004
3.326658e+003,-1.173677e-003
3.328587e+003,-1.388018e-003
3.330515e+003,-1.418138e-003
3.332444e+003,-1.371536e-003
3.334372e+003,-1.461169e-003
3.336301e+003,-1.636319e-003
3.338229e+003,-1.613212e-003
3.340158e+003,-1.625426e-003
3.342086e+003,-1.751177e-003
3.344015e+003,-1.776290e-003
3.345943e+003,-1.711607e-003
3.347872e+003,-1.635296e-003
3.349800e+003,-1.713027e-003
3.351729e+003,-1.731673e-003
3.353657e+003,-1.866400e-003
3.355586e+003,-1.996534e-003
3.357514e+003,-2.049005e-003
3.359443e+003,-2.064604e-003
3.361371e+003,-2.098107e-003
3.363300e+003,-2.170579e-003
3.365229e+003,-2.126398e-003
3.367157e+003,-2.234171e-003
3.369085e+003,-2.477509e-003
3.371014e+003,-2.577619e-003
3.372942e+003,-2.609930e-003
3.374871e+003,-2.724267e-003
3.376799e+003,-2.845092e-003
3.378728e+003,-2.986022e-003
3.380656e+003,-3.078284e-003
3.382585e+003,-3.132796e-003
3.384513e+003,-3.177499e-003
3.386442e+003,-3.198615e-003
3.388370e+003,-3.190129e-003
3.390299e+003,-3.301946e-003
3.392227e+003,-3.471228e-003
3.394156e+003,-3.410250e-003
3.396084e+003,-3.359192e-003
3.398013e+003,-3.441841e-003
3.399941e+003,-3.532691e-003
3.401870e+003,-3.560265e-003
3.403798e+003,-3.560429e-003
3.405727e+003,-3.581724e-003
3.407655e+003,-3.630554e-003
3.409584e+003,-3.590498e-003
3.411512e+003,-3.576860e-003
3.413441e+003,-3.664331e-003
3.415369e+003,-3.721825e-003
3.417298e+003,-3.632066e-003
3.419226e+003,-3.649776e-003
3.421155e+003,-3.836887e-003
3.423083e+003,-3.806835e-003
3.425012e+003,-3.571109e-003
3.426940e+003,-3.566213e-003
3.428869e+003,-3.734669e-003
3.430797e+003,-3.799642e-003
3.432726e+003,-3.749714e-003
3.434654e+003,-3.749616e-003
3.436583e+003,-3.745181e-003
3.438511e+003,-3.758222e-003
3.440440e+003,-3.814784e-003
3.442368e+003,-3.941216e-003
3.444297e+003,-4.158954e-003
3.446225e+003,-4.080741e-003
3.448154e+003,-3.819874e-003
3.450082e+003,-3.918855e-003
3.452011e+003,-4.176281e-003
3.453939e+003,-4.312352e-003
3.455868e+003,-4.276427e-003
3.457796e+003,-4.254772e-003
3.459725e+003,-4.233511e-003
3.461653e+003,-4.219204e-003
3.463582e+003,-4.205422e-003
3.465510e+003,-4.193215e-003
3.467439e+003,-4.189408e-003
3.469367e+003,-4.259300e-003
3.471296e+003,-4.405415e-003
3.473224e+003,-4.355622e-003
3.475153e+003,-4.202698e-003
3.477081e+003,-4.313107e-003
3.479010e+003,-4.457497e-003
3.480938e+003,-4.426603e-003
3.482867e+003,-4.109920e-003
3.484795e+003,-4.122064e-003
3.486724e+003,-4.328099e-003
3.488652e+003,-4.195971e-003
3.490581e+003,-4.151373e-003
3.492509e+003,-4.233543e-003
3.494438e+003,-4.325934e-003
3.496366e+003,-4.261597e-003
3.498295e+003,-4.193346e-003
3.500223e+003,-4.347618e-003
3.502152e+003,-4.413254e-003
3.504080e+003,-4.142019e-003
3.506009e+003,-3.901057e-003
3.507937e+003,-4.028482e-003
3.509866e+003,-4.223765e-003
3.511794e+003,-4.343321e-003
3.513723e+003,-4.352440e-003
3.515651e+003,-4.248735e-003
3.517580e+003,-4.139427e-003
3.519508e+003,-4.173525e-003
3.521437e+003,-4.306775e-003
3.523365e+003,-4.220319e-003
3.525294e+003,-4.131583e-003
3.527222e+003,-4.232165e-003
3.529151e+003,-4.289780e-003
3.531079e+003,-4.273966e-003
3.533008e+003,-4.163450e-003
3.534936e+003,-4.118093e-003
3.536865e+003,-4.046241e-003
3.538793e+003,-4.022638e-003
3.540722e+003,-4.203781e-003
3.542650e+003,-4.271637e-003
3.544579e+003,-4.376878e-003
3.546507e+003,-4.571906e-003
3.548436e+003,-4.378354e-003
3.550364e+003,-4.122787e-003
3.552293e+003,-4.168077e-003
3.554221e+003,-4.272818e-003
3.556150e+003,-4.356803e-003
3.558078e+003,-4.371498e-003
3.560007e+003,-4.340598e-003
3.561935e+003,-4.364184e-003
3.563864e+003,-4.430014e-003
3.565792e+003,-4.670355e-003
3.567721e+003,-4.665143e-003
3.569649e+003,-4.394525e-003
3.571578e+003,-4.187866e-003
3.573506e+003,-4.053266e-003
3.575435e+003,-4.145826e-003
3.577363e+003,-4.391442e-003
3.579292e+003,-4.478912e-003
3.581220e+003,-4.177988e-003
3.583149e+003,-4.044797e-003
3.585077e+003,-4.380617e-003
3.587006e+003,-4.709492e-003
3.588934e+003,-4.498785e-003
3.590863e+003,-4.371761e-003
3.592791e+003,-4.477994e-003
3.594720e+003,-4.445035e-003
3.596648e+003,-4.340860e-003
3.598577e+003,-4.223306e-003
3.600505e+003,-4.119143e-003
3.602434e+003,-4.211099e-003
3.604362e+003,-4.358738e-003
3.606291e+003,-4.413680e-003
3.608219e+003,-4.390425e-003
3.610148e+003,-4.130171e-003
3.612076e+003,-4.259694e-003
3.614005e+003,-4.321472e-003
3.615933e+003,-4.312090e-003
3.617862e+003,-4.643507e-003
3.619790e+003,-4.527117e-003
3.621719e+003,-4.218548e-003
3.623647e+003,-4.201615e-003
3.625576e+003,-4.270784e-003
3.627504e+003,-4.853063e-003
3.629433e+003,-4.877276e-003
3.631361e+003,-4.371892e-003
3.633290e+003,-4.362543e-003
3.635218e+003,-4.431424e-003
3.637146e+003,-4.388195e-003
3.639075e+003,-4.389933e-003
3.641004e+003,-4.384783e-003
3.642932e+003,-4.286368e-003
3.644861e+003,-4.613511e-003
3.646789e+003,-5.270103e-003
3.648718e+003,-5.469278e-003
3.650646e+003,-4.978210e-003
3.652574e+003,-4.616888e-003
3.654503e+003,-4.743021e-003
3.656432e+003,-4.409678e-003
3.658360e+003,-4.052478e-003
3.660289e+003,-4.321669e-003
3.662217e+003,-4.485930e-003
3.664146e+003,-4.401019e-003
3.666074e+003,-4.497113e-003
3.668002e+003,-5.029602e-003
3.669931e+003,-5.365153e-003
3.671860e+003,-5.171332e-003
3.673788e+003,-5.571743e-003
3.675717e+003,-5.395752e-003
3.677645e+003,-4.699134e-003
3.679573e+003,-4.575546e-003
3.681502e+003,-4.487045e-003
3.683430e+003,-4.615413e-003
3.685359e+003,-4.567611e-003
3.687288e+003,-4.805386e-003
3.689216e+003,-5.055705e-003
3.691145e+003,-4.979094e-003
3.693073e+003,-4.736827e-003
3.695001e+003,-4.503409e-003
3.696930e+003,-4.445100e-003
3.698858e+003,-4.526527e-003
3.700787e+003,-4.904371e-003
3.702716e+003,-4.790967e-003
3.704644e+003,-4.568005e-003
3.706573e+003,-4.525182e-003
3.708501e+003,-4.686285e-003
3.710429e+003,-5.303065e-003
3.712358e+003,-5.161575e-003
3.714286e+003,-4.413254e-003
3.716215e+003,-4.079625e-003
3.718144e+003,-3.888776e-003
3.720072e+003,-3.754576e-003
3.722000e+003,-4.017090e-003
3.723929e+003,-4.571939e-003
3.725857e+003,-4.949810e-003
3.727786e+003,-4.631935e-003
3.729714e+003,-4.466549e-003
3.731643e+003,-4.721357e-003
3.733572e+003,-4.842872e-003
3.735500e+003,-5.054952e-003
3.737428e+003,-4.661635e-003
3.739357e+003,-4.232231e-003
3.741285e+003,-4.408039e-003
3.743214e+003,-5.206397e-003
3.745142e+003,-4.853587e-003
3.747071e+003,-4.321013e-003
3.749000e+003,-4.685827e-003
3.750928e+003,-4.684450e-003
3.752856e+003,-4.289092e-003
3.754785e+003,-3.826936e-003
3.756713e+003,-3.831173e-003
3.758642e+003,-3.885590e-003
3.760570e+003,-3.841222e-003
3.762499e+003,-3.600849e-003
3.764427e+003,-3.580902e-003
3.766356e+003,-3.699551e-003
3.768284e+003,-3.823356e-003
3.770213e+003,-3.703296e-003
3.772141e+003,-3.354622e-003
3.774070e+003,-3.391412e-003
3.775998e+003,-3.611660e-003
3.777927e+003,-3.910219e-003
3.779855e+003,-3.724453e-003
3.781784e+003,-3.244299e-003
3.783712e+003,-3.360277e-003
3.785641e+003,-3.413603e-003
3.787569e+003,-3.339267e-003
3.789498e+003,-3.283104e-003
3.791426e+003,-3.206641e-003
3.793355e+003,-3.179143e-003
3.795283e+003,-3.221605e-003
3.797212e+003,-3.339004e-003
3.799140e+003,-3.706811e-003
3.801069e+003,-3.913371e-003
3.802997e+003,-3.506957e-003
3.804926e+003,-3.520629e-003
3.806854e+003,-3.601999e-003
3.808783e+003,-3.171282e-003
3.810711e+003,-3.062261e-003
3.812640e+003,-3.255184e-003
3.814568e+003,-3.916556e-003
3.816497e+003,-3.894325e-003
3.818425e+003,-4.009441e-003
3.820354e+003,-4.406333e-003
3.822282e+003,-3.676159e-003
3.824211e+003,-3.260347e-003
3.826139e+003,-3.267122e-003
3.828068e+003,-3.188287e-003
3.829996e+003,-3.426227e-003
3.831925e+003,-3.549584e-003
3.833853e+003,-3.673498e-003
3.835782e+003,-3.900926e-003
3.837710e+003,-4.126069e-003
3.839639e+003,-3.957534e-003
3.841567e+003,-3.747612e-003
3.843496e+003,-3.530851e-003
3.845424e+003,-3.324240e-003
3.847353e+003,-3.289845e-003
3.849281e+003,-3.578306e-003
3.851210e+003,-4.403840e-003
3.853138e+003,-5.078466e-003
3.855067e+003,-4.040890e-003
3.856995e+003,-3.311351e-003
3.858924e+003,-3.292048e-003
3.860852e+003,-3.366787e-003
3.862781e+003,-3.621616e-003
3.864709e+003,-3.847594e-003
3.866638e+003,-3.721003e-003
3.868566e+003,-3.891403e-003
3.870495e+003,-3.756186e-003
3.872423e+003,-3.560626e-003
3.874352e+003,-3.377374e-003
3.876280e+003,-3.228117e-003
3.878209e+003,-3.657563e-003
3.880137e+003,-3.758386e-003
3.882066e+003,-3.437634e-003
3.883994e+003,-3.642744e-003
3.885923e+003,-3.527926e-003
3.887851e+003,-3.040875e-003
3.889780e+003,-3.184538e-003
3.891708e+003,-3.403214e-003
3.893637e+003,-3.389965e-003
3.895565e+003,-3.276889e-003
3.897494e+003,-3.436154e-003
3.899422e+003,-3.797179e-003
3.901351e+003,-3.855837e-003
3.903279e+003,-3.670508e-003
3.905208e+003,-3.201181e-003
3.907136e+003,-2.887389e-003
3.909065e+003,-2.887883e-003
3.910993e+003,-3.040513e-003
3.912922e+003,-3.054661e-003
3.914850e+003,-3.097201e-003
3.916779e+003,-3.215028e-003
3.918707e+003,-2.996717e-003
3.920636e+003,-2.891437e-003
3.922564e+003,-3.025706e-003
3.924493e+003,-3.066769e-003
3.926421e+003,-2.928892e-003
3.928350e+003,-2.878074e-003
3.930278e+003,-3.030379e-003
3.932207e+003,-3.054760e-003
3.934135e+003,-2.824123e-003
3.936064e+003,-2.763415e-003
3.937992e+003,-2.736680e-003
3.939921e+003,-2.763053e-003
3.941849e+003,-3.021133e-003
3.943778e+003,-2.986680e-003
3.945706e+003,-2.874223e-003
3.947635e+003,-2.904109e-003
3.949563e+003,-2.858061e-003
3.951492e+003,-3.101445e-003
3.953420e+003,-3.195063e-003
3.955349e+003,-3.241898e-003
3.957277e+003,-3.264820e-003
3.959206e+003,-3.035150e-003
3.961134e+003,-2.854638e-003
3.963063e+003,-3.096247e-003
3.964991e+003,-3.159243e-003
3.966920e+003,-2.887126e-003
3.968848e+003,-2.771811e-003
3.970777e+003,-2.755546e-003
3.972705e+003,-2.628966e-003
3.974634e+003,-2.662261e-003
3.976562e+003,-2.848285e-003
3.978491e+003,-2.690022e-003
3.980419e+003,-2.578640e-003
3.982348e+003,-2.920960e-003
3.984276e+003,-3.035643e-003
3.986205e+003,-2.925502e-003
3.988133e+003,-2.697200e-003
3.990062e+003,-2.699275e-003
3.991990e+003,-2.874717e-003
3.993919e+003,-3.054957e-003
3.995847e+003,-2.955220e-003
3.997776e+003,-2.808058e-003
3.999704e+003,-2.874058e-003
4.001633e+003,0.000000e+000
