3.991989e+002,1.336192e-002
4.011274e+002,3.666835e-004
4.030559e+002,4.643235e-004
4.049844e+002,-2.735330e-003
4.069129e+002,-1.949235e-003
4.088414e+002,5.842249e-003
4.107699e+002,4.320897e-003
4.126984e+002,-2.873301e-003
4.146269e+002,-1.773254e-003
4.165554e+002,6.002636e-003
4.184839e+002,9.130701e-003
4.204124e+002,1.050636e-002
4.223409e+002,9.918047e-003
4.242694e+002,8.275408e-003
4.261979e+002,3.449564e-003
4.281264e+002,6.162478e-003
4.300549e+002,9.071218e-003
4.319834e+002,6.646024e-003
4.339119e+002,3.931200e-003
4.358404e+002,4.879457e-003
4.377689e+002,7.255055e-003
4.396974e+002,1.680725e-003
4.416259e+002,-8.476974e-003
4.435544e+002,-4.901554e-003
4.454829e+002,3.572420e-003
4.474114e+002,5.427263e-003
4.493399e+002,-2.590309e-004
4.512684e+002,-5.298057e-003
4.531969e+002,-4.715228e-003
4.551254e+002,-1.597334e-003
4.570539e+002,5.017403e-004
4.589824e+002,1.112076e-003
4.609109e+002,-5.508683e-004
4.628394e+002,-9.163815e-004
4.647679e+002,-1.428740e-003
4.666964e+002,-9.626028e-004
4.686249e+002,1.682022e-003
4.705533e+002,4.150692e-003
4.724819e+002,2.544513e-003
4.744103e+002,2.200696e-003
4.763389e+002,1.444991e-003
4.782673e+002,-6.284292e-004
4.801959e+002,-6.110586e-004
4.821243e+002,-4.055236e-003
4.840529e+002,-6.088477e-003
4.859813e+002,-6.242371e-003
4.879099e+002,-5.750672e-003
4.898383e+002,-5.208721e-003
4.917668e+002,-2.497342e-003
4.936953e+002,8.539079e-004
4.956238e+002,2.790749e-003
4.975523e+002,1.988279e-003
4.994808e+002,-1.425999e-003
5.014093e+002,-2.188117e-003
5.033378e+002,-5.753889e-004
5.052663e+002,1.471687e-003
5.071948e+002,1.340383e-003
5.091233e+002,-3.715056e-004
5.110518e+002,-5.103287e-004
5.129803e+002,5.293405e-004
5.149088e+002,1.528411e-004
5.168373e+002,-1.105468e-003
5.187658e+002,-3.896140e-004
5.206943e+002,4.774588e-004
5.226228e+002,4.136103e-004
5.245513e+002,8.489944e-004
5.264798e+002,7.748677e-004
5.284083e+002,5.751901e-004
5.303368e+002,1.435450e-003
5.322653e+002,1.446520e-003
5.341938e+002,1.532732e-003
5.361223e+002,-3.220509e-005
5.380508e+002,-1.719297e-003
5.399792e+002,-1.815062e-003
5.419078e+002,2.007969e-005
5.438363e+002,-2.151192e-004
5.457648e+002,-1.277821e-003
5.476932e+002,-1.271941e-003
5.496218e+002,-2.061111e-004
5.515503e+002,7.031763e-004
5.534788e+002,1.945404e-004
5.554072e+002,-8.388390e-004
5.573358e+002,-8.282896e-004
5.592643e+002,-2.948919e-006
5.611927e+002,1.113770e-003
5.631212e+002,2.870356e-004
5.650497e+002,1.432621e-004
5.669783e+002,-3.854760e-004
5.689067e+002,-1.638762e-003
5.708352e+002,-1.313830e-003
5.727637e+002,-6.259477e-004
5.746923e+002,-2.285559e-003
5.766207e+002,-5.624439e-003
5.785492e+002,-4.251360e-003
5.804777e+002,5.806619e-003
5.824063e+002,1.845140e-003
5.843347e+002,-5.984989e-003
5.862632e+002,-3.274685e-003
5.881917e+002,-1.665169e-003
5.901202e+002,-1.750847e-003
5.920487e+002,-7.772913e-004
5.939772e+002,-1.580992e-003
5.959057e+002,-2.831003e-003
5.978342e+002,-9.944391e-004
5.997627e+002,3.020555e-004
6.016912e+002,5.943673e-004
6.036197e+002,-4.095424e-004
6.055482e+002,-1.032334e-004
6.074767e+002,-4.010349e-004
6.094052e+002,-1.002604e-003
6.113337e+002,-1.480784e-003
6.132622e+002,-2.476323e-003
6.151907e+002,-2.072815e-003
6.171192e+002,-1.500597e-003
6.190477e+002,-5.730395e-004
6.209762e+002,2.060432e-004
6.229047e+002,-2.277368e-004
6.248332e+002,-4.879889e-004
6.267617e+002,-4.225185e-004
6.286902e+002,2.945716e-005
6.306187e+002,4.572738e-005
6.325472e+002,-4.917620e-004
6.344756e+002,-5.952425e-004
6.364042e+002,-2.422085e-004
6.383326e+002,-6.130770e-004
6.402612e+002,-1.216501e-003
6.421896e+002,-8.706183e-004
6.441182e+002,-3.558463e-004
6.460466e+002,-2.526729e-004
6.479752e+002,-3.452188e-004
6.499036e+002,-5.058940e-004
6.518322e+002,-4.844807e-004
6.537606e+002,-8.097204e-005
6.556891e+002,-2.982033e-004
6.576177e+002,-4.886509e-004
6.595461e+002,-5.934557e-004
6.614746e+002,-7.343911e-004
6.634031e+002,-6.632013e-004
6.653317e+002,-1.710042e-004
6.672601e+002,-7.886027e-004
6.691886e+002,-1.004059e-003
6.711171e+002,-5.826686e-004
6.730457e+002,-3.812716e-004
6.749741e+002,-6.862599e-004
6.769026e+002,-5.237652e-004
6.788311e+002,-3.027065e-004
6.807596e+002,3.048439e-005
6.826881e+002,-1.283754e-004
6.846166e+002,-5.078466e-004
6.865451e+002,-3.845821e-004
6.884736e+002,-1.176762e-004
6.904021e+002,-3.194603e-004
6.923306e+002,-4.488336e-004
6.942591e+002,-5.100309e-004
6.961876e+002,-9.677272e-004
6.981161e+002,-1.254959e-003
7.000446e+002,-8.827539e-004
7.019731e+002,-4.592930e-004
7.039016e+002,-2.904552e-004
7.058301e+002,-1.628895e-004
7.077585e+002,-4.421143e-004
7.096871e+002,-5.443492e-004
7.116156e+002,-1.058504e-004
7.135441e+002,-1.801455e-004
7.154725e+002,-7.357804e-004
7.174011e+002,-1.205795e-003
7.193296e+002,-7.433221e-004
7.212581e+002,-8.740242e-004
7.231865e+002,-1.032355e-003
7.251151e+002,-5.570234e-004
7.270436e+002,-8.631780e-004
7.289720e+002,-9.122485e-004
7.309005e+002,-8.130436e-004
7.328290e+002,-1.209364e-003
7.347576e+002,-6.458322e-004
7.366860e+002,9.192355e-005
7.386145e+002,3.250008e-004
7.405430e+002,-5.291184e-005
7.424716e+002,-3.414446e-004
7.444000e+002,-3.960362e-004
7.463285e+002,-6.289916e-004
7.482570e+002,-1.199848e-003
7.501855e+002,-1.144828e-003
7.521140e+002,-8.457507e-004
7.540425e+002,-5.135390e-004
7.559710e+002,-6.203561e-004
7.578995e+002,-9.611151e-004
7.598280e+002,-1.141887e-003
7.617565e+002,-1.253605e-003
7.636850e+002,-1.565509e-003
7.656135e+002,-1.035595e-003
7.675420e+002,-4.803766e-004
7.694705e+002,-6.197274e-004
7.713990e+002,-1.118753e-003
7.733275e+002,-1.061046e-003
7.752560e+002,-8.319604e-004
7.771844e+002,-8.921117e-004
7.791130e+002,-9.999598e-004
7.810415e+002,-7.860560e-004
7.829700e+002,-8.240896e-004
7.848984e+002,-7.269485e-004
7.868270e+002,-2.941306e-004
7.887555e+002,-4.352956e-004
7.906840e+002,-6.474864e-004
7.926124e+002,-6.951918e-004
7.945410e+002,-6.129446e-004
7.964695e+002,-3.393256e-004
7.983979e+002,-1.340728e-004
8.003264e+002,-1.501044e-004
8.022549e+002,-7.674018e-004
8.041835e+002,-6.617787e-004
8.061119e+002,7.439229e-005
8.080404e+002,2.797082e-004
8.099689e+002,-4.871946e-004
8.118975e+002,-1.247096e-003
8.138259e+002,-8.880115e-004
8.157545e+002,1.954952e-005
8.176830e+002,2.819798e-005
8.196115e+002,-6.108932e-004
8.215399e+002,-8.389713e-004
8.234684e+002,-5.248573e-004
8.253970e+002,-7.114013e-004
8.273254e+002,-5.476584e-004
8.292539e+002,-5.899152e-004
8.311824e+002,-1.218384e-003
8.331110e+002,-1.224034e-003
8.350394e+002,-8.788851e-004
8.369679e+002,-4.072914e-004
8.388964e+002,-4.163615e-004
8.408250e+002,-5.141015e-004
8.427534e+002,-2.777070e-004
8.446819e+002,8.493085e-005
8.466104e+002,-3.041633e-004
8.485389e+002,-6.013308e-004
8.504674e+002,-5.939851e-004
8.523959e+002,-4.614114e-004
8.543244e+002,-5.764478e-004
8.562529e+002,-6.478503e-004
8.581814e+002,-4.204993e-004
8.601099e+002,-1.055522e-004
8.620384e+002,-5.430329e-005
8.639669e+002,-4.125878e-004
8.658954e+002,-5.548063e-004
8.678239e+002,-3.874291e-004
8.697524e+002,-3.689895e-004
8.716809e+002,-8.013690e-004
8.736094e+002,-9.464358e-004
8.755378e+002,-4.859700e-004
8.774664e+002,-2.036272e-004
8.793949e+002,-2.082306e-004
8.813234e+002,-2.935015e-004
8.832518e+002,-1.633201e-004
8.851804e+002,-4.119258e-004
8.871089e+002,-7.771920e-004
8.890374e+002,-6.014963e-004
8.909658e+002,-6.275359e-004
8.928943e+002,-2.182322e-004
8.948229e+002,4.894173e-005
8.967513e+002,-2.568785e-004
8.986798e+002,-3.679302e-004
9.006083e+002,-3.373060e-004
9.025369e+002,-4.896438e-004
9.044653e+002,-3.925272e-004
9.063938e+002,-4.262259e-004
9.083223e+002,-3.520059e-004
9.102509e+002,-4.229157e-004
9.121793e+002,-7.454390e-004
9.141078e+002,-7.290986e-004
9.160364e+002,-3.592563e-004
9.179648e+002,-3.239301e-004
9.198933e+002,-3.007529e-004
9.218218e+002,-3.737899e-004
9.237504e+002,-5.965330e-004
9.256788e+002,-8.169130e-004
9.276073e+002,-7.939275e-004
9.295358e+002,-4.823624e-004
9.314644e+002,-6.586027e-004
9.333928e+002,-7.407421e-004
9.353213e+002,-4.081189e-004
9.372498e+002,-2.863494e-004
9.391783e+002,-3.138316e-004
9.411068e+002,-4.870622e-004
9.430353e+002,-4.648867e-004
9.449637e+002,-4.680642e-004
9.468923e+002,-7.723300e-004
9.488208e+002,-8.527283e-004
9.507493e+002,-6.527799e-004
9.526777e+002,-5.964668e-004
9.546063e+002,-5.265119e-004
9.565348e+002,-2.228686e-004
9.584633e+002,-2.278361e-004
9.603917e+002,-5.039082e-004
9.623203e+002,-5.901137e-004
9.642488e+002,-4.898424e-004
9.661772e+002,-2.435332e-004
9.681057e+002,-1.533173e-004
9.700343e+002,-4.080858e-004
9.719628e+002,-6.598929e-004
9.738912e+002,-6.217457e-004
9.758197e+002,-7.081263e-004
9.777483e+002,-5.810141e-004
9.796768e+002,-4.023921e-004
9.816052e+002,-3.237645e-004
9.835337e+002,-3.965990e-004
9.854623e+002,-4.158319e-004
9.873907e+002,-4.605177e-004
9.893192e+002,-6.843081e-004
9.912477e+002,-7.773905e-004
9.931763e+002,-6.966474e-004
9.951047e+002,-5.471290e-004
9.970332e+002,-4.439348e-004
9.989617e+002,-5.049011e-004
1.000890e+003,-6.287931e-004
1.002819e+003,-6.389174e-004
1.004747e+003,-5.072178e-004
1.006676e+003,-3.708766e-004
1.008604e+003,-4.012004e-004
1.010533e+003,-5.502065e-004
1.012461e+003,-5.443492e-004
1.014390e+003,-4.832230e-004
1.016318e+003,-3.761073e-004
1.018247e+003,-3.870981e-004
1.020175e+003,-7.017750e-004
1.022104e+003,-6.144997e-004
1.024032e+003,-2.275712e-004
1.025961e+003,-2.412813e-004
1.027889e+003,-6.270726e-004
1.029818e+003,-7.310171e-004
1.031746e+003,-5.034118e-004
1.033675e+003,-4.691564e-004
1.035603e+003,-2.696605e-004
1.037532e+003,-2.004809e-004
1.039460e+003,-3.640236e-004
1.041389e+003,-3.598853e-004
1.043317e+003,-3.623683e-004
1.045246e+003,-5.459707e-004
1.047174e+003,-4.590614e-004
1.049103e+003,-3.486951e-004
1.051031e+003,-3.275059e-004
1.052960e+003,-2.289290e-004
1.054888e+003,-3.655796e-004
1.056817e+003,-6.124483e-004
1.058745e+003,-4.801118e-004
1.060674e+003,-4.693550e-004
1.062602e+003,-4.230812e-004
1.064531e+003,-2.769454e-004
1.066459e+003,-3.390939e-004
1.068388e+003,-6.327634e-004
1.070316e+003,-6.406047e-004
1.072245e+003,-4.920267e-004
1.074173e+003,-3.447222e-004
1.076102e+003,-4.084500e-004
1.078030e+003,-6.702811e-004
1.079959e+003,-6.395460e-004
1.081887e+003,-4.330778e-004
1.083816e+003,-3.405175e-004
1.085744e+003,-2.377379e-004
1.087673e+003,-1.490114e-004
1.089601e+003,-2.859851e-004
1.091530e+003,-5.048018e-004
1.093458e+003,-4.302311e-004
1.095387e+003,-4.925894e-004
1.097315e+003,-3.980887e-004
1.099244e+003,-3.517079e-004
1.101172e+003,-2.291277e-004
1.103101e+003,-2.318101e-004
1.105029e+003,-5.109906e-004
1.106958e+003,-5.527215e-004
1.108886e+003,-4.691564e-004
1.110815e+003,-4.086486e-004
1.112743e+003,-2.579713e-004
1.114672e+003,-3.630635e-004
1.116600e+003,-3.588259e-004
1.118529e+003,-4.288078e-004
1.120457e+003,-4.901071e-004
1.122386e+003,-3.978900e-004
1.124314e+003,-3.282674e-004
1.126243e+003,-5.995109e-004
1.128171e+003,-6.561875e-004
1.130100e+003,-4.840504e-004
1.132028e+003,-4.893790e-004
1.133957e+003,-5.405766e-004
1.135885e+003,-5.391867e-004
1.137814e+003,-5.535157e-004
1.139742e+003,-5.511662e-004
1.141671e+003,-4.987453e-004
1.143599e+003,-3.728960e-004
1.145528e+003,-3.154209e-004
1.147456e+003,-3.068453e-004
1.149385e+003,-3.424047e-004
1.151313e+003,-3.535619e-004
1.153242e+003,-3.539261e-004
1.155170e+003,-4.805752e-004
1.157099e+003,-5.999411e-004
1.159027e+003,-5.705246e-004
1.160956e+003,-4.143422e-004
1.162884e+003,-5.265119e-004
1.164813e+003,-6.874508e-004
1.166741e+003,-6.220766e-004
1.168670e+003,-5.031470e-004
1.170598e+003,-4.218895e-004
1.172526e+003,-4.822301e-004
1.174455e+003,-4.045769e-004
1.176384e+003,-4.406248e-004
1.178312e+003,-5.464340e-004
1.180240e+003,-3.979562e-004
1.182169e+003,-3.258504e-004
1.184098e+003,-4.147064e-004
1.186026e+003,-3.763721e-004
1.187954e+003,-4.004390e-004
1.189883e+003,-6.538386e-004
1.191812e+003,-6.153930e-004
1.193740e+003,-1.906777e-004
1.195668e+003,-2.314790e-004
1.197597e+003,-3.776632e-004
1.199526e+003,-3.466756e-004
1.201454e+003,-3.658114e-004
1.203382e+003,-3.077724e-004
1.205311e+003,-2.916473e-004
1.207240e+003,-4.069934e-004
1.209168e+003,-4.330116e-004
1.211096e+003,-5.076480e-004
1.213025e+003,-4.609480e-004
1.214953e+003,-3.961686e-004
1.216882e+003,-3.934541e-004
1.218810e+003,-5.000360e-004
1.220739e+003,-5.636417e-004
1.222667e+003,-3.226719e-004
1.224596e+003,-2.254186e-004
1.226524e+003,-3.515424e-004
1.228453e+003,-4.149050e-004
1.230381e+003,-3.124741e-004
1.232310e+003,-3.207184e-004
1.234238e+003,-4.716057e-004
1.236167e+003,-4.655487e-004
1.238095e+003,-4.302311e-004
1.240024e+003,-3.098915e-004
1.241952e+003,-1.686526e-004
1.243881e+003,-2.820778e-004
1.245809e+003,-2.898923e-004
1.247738e+003,-3.313796e-004
1.249666e+003,-5.595384e-004
1.251595e+003,-4.692557e-004
1.253523e+003,-2.614151e-004
1.255452e+003,-2.612827e-004
1.257380e+003,-2.361152e-004
1.259309e+003,-1.974009e-004
1.261237e+003,-8.339037e-005
1.263166e+003,-3.319904e-005
1.265094e+003,-2.106483e-004
1.267023e+003,-3.667052e-004
1.268951e+003,-3.697510e-004
1.270880e+003,-3.147587e-004
1.272808e+003,-3.307505e-004
1.274737e+003,-2.838328e-004
1.276665e+003,-5.291184e-005
1.278594e+003,5.344849e-005
1.280522e+003,2.869503e-005
1.282451e+003,-5.927275e-005
1.284379e+003,-2.338965e-004
1.286308e+003,-6.702499e-005
1.288236e+003,-4.194567e-005
1.290165e+003,-1.642475e-004
1.292093e+003,-2.088599e-004
1.294022e+003,-4.126871e-004
1.295950e+003,-4.396980e-004
1.297879e+003,-4.221543e-004
1.299807e+003,-4.162622e-004
1.301736e+003,-5.011282e-004
1.303664e+003,-5.201910e-004
1.305593e+003,-2.989318e-004
1.307521e+003,-1.923999e-004
1.309450e+003,-2.441955e-004
1.311378e+003,-2.863162e-004
1.313307e+003,-2.295582e-004
1.315235e+003,2.982074e-006
1.317164e+003,1.334513e-004
1.319092e+003,-1.712996e-005
1.321021e+003,-2.246238e-004
1.322949e+003,-2.763825e-004
1.324878e+003,-2.556864e-004
1.326806e+003,-2.555870e-004
1.328735e+003,-1.384120e-004
1.330663e+003,-1.237711e-004
1.332592e+003,-1.477196e-004
1.334520e+003,-1.621608e-004
1.336449e+003,-1.188687e-004
1.338377e+003,-1.446722e-004
1.340306e+003,-1.120780e-004
1.342234e+003,-1.171462e-004
1.344163e+003,-2.872434e-004
1.346091e+003,-3.510789e-004
1.348020e+003,-2.706870e-004
1.349948e+003,-2.284654e-004
1.351877e+003,-2.395924e-004
1.353805e+003,-2.050844e-004
1.355734e+003,-1.938902e-004
1.357662e+003,-3.264133e-004
1.359591e+003,-3.484303e-004
1.361519e+003,-2.901903e-004
1.363448e+003,-2.233323e-004
1.365376e+003,-1.640488e-004
1.367305e+003,-1.596436e-004
1.369233e+003,-1.979308e-004
1.371162e+003,-3.950100e-004
1.373090e+003,-4.388043e-004
1.375019e+003,-2.558851e-004
1.376947e+003,-1.148605e-004
1.378876e+003,-1.016102e-004
1.380804e+003,-7.537340e-005
1.382733e+003,-1.226780e-004
1.384661e+003,-2.188946e-004
1.386590e+003,-2.638656e-004
1.388518e+003,-2.119068e-004
1.390447e+003,-1.377495e-004
1.392375e+003,-2.289290e-004
1.394304e+003,-2.474076e-004
1.396232e+003,-2.083962e-004
1.398161e+003,-1.450366e-004
1.400089e+003,-1.951819e-004
1.402018e+003,-2.542293e-004
1.403946e+003,-3.036336e-004
1.405875e+003,-2.624086e-004
1.407803e+003,-1.620284e-004
1.409732e+003,-1.397038e-004
1.411660e+003,-1.327809e-004
1.413589e+003,-2.047201e-004
1.415517e+003,-2.628059e-004
1.417446e+003,-2.545273e-004
1.419374e+003,-2.588322e-004
1.421303e+003,-2.957200e-004
1.423231e+003,-3.703138e-004
1.425160e+003,-2.760513e-004
1.427088e+003,-1.351990e-004
1.429017e+003,-1.702425e-004
1.430945e+003,-2.999251e-004
1.432874e+003,-3.601833e-004
1.434802e+003,-2.887996e-004
1.436731e+003,-2.989980e-004
1.438659e+003,-3.525356e-004
1.440588e+003,-3.812386e-004
1.442516e+003,-3.254862e-004
1.444445e+003,-3.098915e-004
1.446373e+003,-2.468447e-004
1.448302e+003,-2.656537e-004
1.450230e+003,-3.587928e-004
1.452159e+003,-3.583293e-004
1.454087e+003,-2.547592e-004
1.456016e+003,-4.084500e-004
1.457944e+003,-4.996720e-004
1.459873e+003,-3.780274e-004
1.461801e+003,-3.271417e-004
1.463730e+003,-3.738561e-004
1.465658e+003,-3.219435e-004
1.467587e+003,-2.328036e-004
1.469515e+003,-2.041240e-004
1.471444e+003,-2.725413e-004
1.473372e+003,-2.345588e-004
1.475301e+003,-1.825964e-004
1.477229e+003,-3.062162e-004
1.479158e+003,-2.586667e-004
1.481086e+003,-1.730909e-004
1.483015e+003,-1.388757e-004
1.484943e+003,-1.933935e-004
1.486872e+003,-2.696605e-004
1.488800e+003,-1.788207e-004
1.490729e+003,-2.137282e-004
1.492657e+003,-2.943955e-004
1.494586e+003,-2.382015e-004
1.496514e+003,-2.781374e-004
1.498443e+003,-2.836673e-004
1.500371e+003,-2.620443e-004
1.502300e+003,-2.446591e-004
1.504228e+003,-2.871772e-004
1.506157e+003,-4.090789e-004
1.508085e+003,-3.268768e-004
1.510014e+003,-2.530041e-004
1.511942e+003,-1.934928e-004
1.513871e+003,-1.398031e-004
1.515799e+003,-2.732698e-004
1.517728e+003,-3.254862e-004
1.519656e+003,-3.290951e-004
1.521585e+003,-3.404182e-004
1.523513e+003,-1.719979e-004
1.525442e+003,-9.220224e-005
1.527370e+003,-1.536816e-004
1.529299e+003,-2.206498e-004
1.531227e+003,-2.593621e-004
1.533156e+003,-2.942300e-004
1.535084e+003,-2.358503e-004
1.537013e+003,-2.613820e-004
1.538941e+003,-4.056362e-004
1.540870e+003,-4.171229e-004
1.542798e+003,-3.472384e-004
1.544727e+003,-3.607130e-004
1.546655e+003,-3.159175e-004
1.548584e+003,-2.926737e-004
1.550512e+003,-2.727069e-004
1.552441e+003,-3.131032e-004
1.554369e+003,-3.506154e-004
1.556298e+003,-3.364783e-004
1.558226e+003,-4.400621e-004
1.560155e+003,-3.750148e-004
1.562083e+003,-2.597594e-004
1.564012e+003,-2.657200e-004
1.565940e+003,-1.714348e-004
1.567869e+003,-2.350886e-004
1.569797e+003,-3.693868e-004
1.571726e+003,-3.170764e-004
1.573654e+003,-3.071433e-004
1.575583e+003,-3.002232e-004
1.577511e+003,-2.916804e-004
1.579440e+003,-3.778287e-004
1.581368e+003,-2.965478e-004
1.583297e+003,-2.080651e-004
1.585225e+003,-1.771647e-004
1.587154e+003,-1.615978e-004
1.589082e+003,-2.187290e-004
1.591010e+003,-2.960842e-004
1.592939e+003,-2.879056e-004
1.594868e+003,-3.019780e-004
1.596796e+003,-2.983027e-004
1.598724e+003,-2.200868e-004
1.600653e+003,-2.411820e-004
1.602582e+003,-2.637000e-004
1.604510e+003,-1.804436e-004
1.606438e+003,-5.569475e-005
1.608367e+003,-9.379234e-005
1.610296e+003,-1.104548e-004
1.612224e+003,-1.649762e-004
1.614152e+003,-2.432682e-004
1.616081e+003,-3.018125e-004
1.618010e+003,-2.180004e-004
1.619938e+003,-1.718985e-004
1.621866e+003,-2.493614e-004
1.623795e+003,-3.753458e-004
1.625724e+003,-3.384979e-004
1.627652e+003,-2.292271e-004
1.629580e+003,-1.953475e-004
1.631509e+003,-1.902802e-004
1.633438e+003,-2.372081e-004
1.635366e+003,-2.786341e-004
1.637294e+003,-2.057799e-004
1.639223e+003,-1.877963e-004
1.641151e+003,-2.589316e-004
1.643080e+003,-3.630304e-004
1.645008e+003,-4.244715e-004
1.646937e+003,-3.583624e-004
1.648865e+003,-2.579713e-004
1.650794e+003,-3.382993e-004
1.652722e+003,-4.858045e-004
1.654651e+003,-2.810845e-004
1.656579e+003,-1.655392e-004
1.658508e+003,-2.312471e-004
1.660436e+003,-2.165763e-004
1.662365e+003,-2.400891e-004
1.664293e+003,-2.400891e-004
1.666222e+003,-1.413599e-004
1.668150e+003,-2.298563e-004
1.670079e+003,-3.178048e-004
1.672007e+003,-1.862728e-004
1.673936e+003,-2.026005e-004
1.675864e+003,-2.708857e-004
1.677793e+003,-1.983944e-004
1.679721e+003,-1.726603e-004
1.681650e+003,-2.391288e-004
1.683578e+003,-3.161162e-004
1.685507e+003,-2.954220e-004
1.687435e+003,-3.164804e-004
1.689364e+003,-3.383655e-004
1.691292e+003,-3.404844e-004
1.693221e+003,-3.560449e-004
1.695149e+003,-4.349646e-004
1.697078e+003,-3.611765e-004
1.699006e+003,-4.416509e-004
1.700935e+003,-5.217464e-004
1.702863e+003,-3.333992e-004
1.704792e+003,-3.044282e-004
1.706720e+003,-2.841970e-004
1.708649e+003,-1.606041e-004
1.710577e+003,-9.577994e-005
1.712506e+003,-1.617965e-004
1.714434e+003,-2.898923e-004
1.716363e+003,-3.687247e-004
1.718291e+003,-3.442587e-004
1.720220e+003,-2.731043e-004
1.722148e+003,-3.140965e-004
1.724077e+003,-3.570713e-004
1.726005e+003,-2.225043e-004
1.727934e+003,-1.976658e-004
1.729862e+003,-1.953806e-004
1.731791e+003,-1.897172e-004
1.733719e+003,-3.317438e-004
1.735648e+003,-3.823641e-004
1.737576e+003,-3.431000e-004
1.739505e+003,-2.813494e-004
1.741433e+003,-2.367444e-004
1.743362e+003,-2.337309e-004
1.745290e+003,-7.875247e-005
1.747219e+003,-4.784292e-005
1.749147e+003,-2.031635e-004
1.751076e+003,-2.508185e-004
1.753004e+003,-2.539644e-004
1.754933e+003,-2.196563e-004
1.756861e+003,-1.924992e-004
1.758790e+003,-2.107145e-004
1.760718e+003,-2.831375e-004
1.762647e+003,-3.213806e-004
1.764575e+003,-2.095885e-004
1.766504e+003,-1.491438e-004
1.768432e+003,-2.327043e-004
1.770361e+003,-3.050242e-004
1.772289e+003,-3.223739e-004
1.774218e+003,-2.436325e-004
1.776146e+003,-2.029979e-004
1.778075e+003,-2.239615e-004
1.780003e+003,-2.888990e-004
1.781932e+003,-2.686671e-004
1.783860e+003,-2.418774e-004
1.785789e+003,-3.601171e-004
1.787717e+003,-3.726643e-004
1.789646e+003,-2.515801e-004
1.791574e+003,-2.867798e-004
1.793503e+003,-3.177717e-004
1.795431e+003,-3.282012e-004
1.797360e+003,-2.810845e-004
1.799288e+003,-1.310585e-004
1.801217e+003,-1.962748e-004
1.803145e+003,-2.087605e-004
1.805074e+003,-1.144961e-004
1.807002e+003,-9.597871e-005
1.808931e+003,-1.905783e-004
1.810859e+003,-1.096267e-004
1.812788e+003,-1.232569e-005
1.814716e+003,-5.108968e-005
1.816645e+003,-1.012127e-004
1.818573e+003,-1.446722e-004
1.820502e+003,-1.803774e-004
1.822430e+003,-1.622602e-004
1.824359e+003,-2.279024e-004
1.826287e+003,-2.738328e-004
1.828216e+003,-2.650908e-004
1.830144e+003,-2.422748e-004
1.832073e+003,-1.091629e-004
1.834001e+003,-3.770490e-005
1.835930e+003,-1.632539e-004
1.837858e+003,-2.308829e-004
1.839787e+003,-2.633358e-004
1.841715e+003,-2.518451e-004
1.843644e+003,-2.453214e-004
1.845572e+003,-2.158478e-004
1.847501e+003,-1.965398e-004
1.849429e+003,-1.946851e-004
1.851358e+003,-1.183718e-004
1.853286e+003,-1.163180e-004
1.855215e+003,-1.401344e-004
1.857143e+003,-1.693482e-004
1.859072e+003,-2.321744e-004
1.861000e+003,-1.382463e-004
1.862929e+003,-5.539658e-005
1.864857e+003,-7.262374e-005
1.866786e+003,-1.598423e-004
1.868714e+003,-2.483349e-004
1.870643e+003,-1.667647e-004
1.872571e+003,-5.695368e-005
1.874500e+003,-5.771566e-005
1.876428e+003,-1.215849e-004
1.878357e+003,-1.454010e-004
1.880285e+003,-1.489120e-004
1.882214e+003,-1.463284e-004
1.884142e+003,-1.475871e-004
1.886071e+003,-1.051216e-004
1.887999e+003,-1.445729e-004
1.889928e+003,-1.796156e-004
1.891856e+003,-2.121717e-004
1.893785e+003,-2.252530e-004
1.895713e+003,-1.706068e-004
1.897642e+003,-1.439435e-004
1.899570e+003,-1.418899e-004
1.901499e+003,-1.017096e-004
1.903427e+003,-6.076358e-005
1.905356e+003,-7.968005e-005
1.907284e+003,-1.529529e-004
1.909213e+003,-1.699444e-004
1.911141e+003,-1.648106e-004
1.913070e+003,-9.044651e-005
1.914998e+003,-1.446722e-004
1.916927e+003,-2.460499e-004
1.918855e+003,-1.994211e-004
1.920784e+003,-8.411918e-005
1.922712e+003,-1.445729e-004
1.924641e+003,-1.597430e-004
1.926569e+003,-1.732896e-004
1.928498e+003,-2.504874e-004
1.930426e+003,-1.842193e-004
1.932355e+003,-1.037965e-004
1.934283e+003,-1.215849e-004
1.936212e+003,-9.627685e-005
1.938140e+003,-5.337566e-005
1.940069e+003,-1.262389e-005
1.941997e+003,-4.015660e-005
1.943926e+003,-8.726629e-005
1.945854e+003,-1.736208e-004
1.947783e+003,-2.576401e-004
1.949711e+003,-2.156159e-004
1.951640e+003,-1.628564e-004
1.953568e+003,-1.786882e-004
1.955497e+003,-1.277461e-004
1.957425e+003,-8.100517e-005
1.959354e+003,-1.246986e-004
1.961282e+003,-1.571926e-004
1.963211e+003,-2.534015e-004
1.965139e+003,-2.452220e-004
1.967068e+003,-1.837556e-004
1.968996e+003,-1.334103e-004
1.970925e+003,-9.296416e-005
1.972853e+003,-1.574575e-004
1.974782e+003,-1.912076e-004
1.976710e+003,-1.692488e-004
1.978639e+003,-1.257917e-004
1.980567e+003,-1.030015e-004
1.982496e+003,-1.079704e-004
1.984424e+003,-2.358503e-004
1.986353e+003,-2.672763e-004
1.988281e+003,-1.671953e-004
1.990210e+003,-1.415256e-004
1.992138e+003,-1.347352e-004
1.994067e+003,-7.626786e-005
1.995995e+003,-8.882328e-005
1.997924e+003,-3.213883e-005
1.999852e+003,-5.327627e-005
2.001781e+003,-1.621277e-004
2.003709e+003,-2.081644e-004
2.005638e+003,-1.633532e-004
2.007566e+003,-1.486139e-004
2.009495e+003,-1.844180e-004
2.011423e+003,-2.614814e-004
2.013352e+003,-1.670959e-004
2.015280e+003,-5.436956e-005
2.017208e+003,-1.195312e-004
2.019137e+003,-2.046539e-004
2.021066e+003,-1.527873e-004
2.022994e+003,-1.149599e-004
2.024922e+003,-7.517463e-005
2.026851e+003,-5.817948e-005
2.028780e+003,-1.869683e-004
2.030708e+003,-1.974671e-004
2.032636e+003,-9.137407e-005
2.034565e+003,-1.048234e-004
2.036494e+003,-1.846830e-004
2.038422e+003,-2.015076e-004
2.040350e+003,-1.451360e-004
2.042279e+003,-8.107143e-005
2.044208e+003,-1.553046e-004
2.046136e+003,-2.189277e-004
2.048064e+003,-1.841531e-004
2.049993e+003,-1.018752e-004
2.051921e+003,-1.052872e-004
2.053850e+003,-1.405981e-004
2.055778e+003,-1.979308e-004
2.057707e+003,-1.993880e-004
2.059635e+003,-1.042934e-004
2.061564e+003,-1.090636e-004
2.063492e+003,-1.323503e-004
2.065421e+003,-2.100853e-004
2.067349e+003,-1.934266e-004
2.069278e+003,-1.577556e-004
2.071206e+003,-2.031967e-004
2.073135e+003,-1.961092e-004
2.075063e+003,-1.347352e-004
2.076992e+003,-1.344702e-004
2.078920e+003,-1.228436e-004
2.080849e+003,-1.607366e-004
2.082777e+003,-2.472421e-004
2.084706e+003,-2.402216e-004
2.086634e+003,-2.049188e-004
2.088563e+003,-2.366782e-004
2.090491e+003,-1.672947e-004
2.092420e+003,-1.123761e-004
2.094348e+003,-1.857097e-004
2.096277e+003,-1.937247e-004
2.098205e+003,-1.929629e-004
2.100134e+003,-2.895281e-004
2.102062e+003,-2.701572e-004
2.103991e+003,-2.073033e-004
2.105919e+003,-1.602729e-004
2.107848e+003,-1.641813e-004
2.109776e+003,-2.440299e-004
2.111705e+003,-2.566467e-004
2.113633e+003,-2.102508e-004
2.115562e+003,-2.146886e-004
2.117490e+003,-2.176030e-004
2.119419e+003,-2.158478e-004
2.121347e+003,-2.168082e-004
2.123276e+003,-2.433676e-004
2.125204e+003,-2.312140e-004
2.127133e+003,-2.146555e-004
2.129061e+003,-1.231086e-004
2.130990e+003,-1.196637e-004
2.132918e+003,-1.381138e-004
2.134847e+003,-2.070384e-004
2.136775e+003,-2.473083e-004
2.138704e+003,-2.346250e-004
2.140632e+003,-1.723622e-004
2.142561e+003,-2.008783e-004
2.144489e+003,-3.105206e-004
2.146418e+003,-3.041965e-004
2.148346e+003,-1.955131e-004
2.150275e+003,-6.112800e-005
2.152203e+003,-1.122767e-004
2.154132e+003,-2.142250e-004
2.156060e+003,-1.859084e-004
2.157989e+003,-2.715479e-004
2.159917e+003,-4.378775e-004
2.161846e+003,-3.613089e-004
2.163774e+003,-2.237959e-004
2.165703e+003,-2.379697e-004
2.167631e+003,-2.364464e-004
2.169560e+003,-1.998848e-004
2.171488e+003,-1.927642e-004
2.173417e+003,-2.752897e-004
2.175345e+003,-2.632364e-004
2.177274e+003,-2.668127e-004
2.179202e+003,-2.664484e-004
2.181131e+003,-2.670445e-004
2.183059e+003,-2.550572e-004
2.184988e+003,-2.127678e-004
2.186916e+003,-2.581700e-004
2.188845e+003,-3.344256e-004
2.190773e+003,-2.210141e-004
2.192702e+003,-9.342794e-005
2.194630e+003,-1.511312e-004
2.196559e+003,-2.766805e-004
2.198487e+003,-3.591901e-004
2.200416e+003,-3.957714e-004
2.202344e+003,-3.268106e-004
2.204273e+003,-2.421754e-004
2.206201e+003,-2.631702e-004
2.208130e+003,-3.199238e-004
2.210058e+003,-3.131694e-004
2.211987e+003,-2.904884e-004
2.213915e+003,-2.281011e-004
2.215844e+003,-2.510834e-004
2.217772e+003,-2.098203e-004
2.219701e+003,-1.942546e-004
2.221629e+003,-2.580706e-004
2.223558e+003,-2.680379e-004
2.225486e+003,-2.810183e-004
2.227415e+003,-2.575408e-004
2.229343e+003,-2.346250e-004
2.231272e+003,-1.831926e-004
2.233200e+003,-2.372412e-004
2.235129e+003,-2.968127e-004
2.237057e+003,-3.005211e-004
2.238986e+003,-2.988656e-004
2.240914e+003,-3.400540e-004
2.242843e+003,-3.319425e-004
2.244771e+003,-2.850580e-004
2.246700e+003,-2.866805e-004
2.248628e+003,-2.151192e-004
2.250557e+003,-1.570932e-004
2.252485e+003,-1.597430e-004
2.254414e+003,-1.823977e-004
2.256342e+003,-1.201605e-004
2.258271e+003,-7.040413e-005
2.260199e+003,-1.838550e-004
2.262128e+003,-2.557857e-004
2.264056e+003,-1.561658e-004
2.265985e+003,-6.046541e-005
2.267913e+003,-1.468584e-004
2.269842e+003,-1.697788e-004
2.271770e+003,-1.107861e-004
2.273699e+003,-1.370208e-004
2.275627e+003,-1.392069e-004
2.277556e+003,-1.852129e-004
2.279484e+003,-2.377710e-004
2.281413e+003,-2.202193e-004
2.283341e+003,-2.114762e-004
2.285270e+003,-2.101515e-004
2.287198e+003,-1.577556e-004
2.289127e+003,-1.612003e-004
2.291055e+003,-1.574244e-004
2.292984e+003,-2.004147e-004
2.294912e+003,-2.996933e-004
2.296841e+003,-2.905877e-004
2.298769e+003,-2.412482e-004
2.300698e+003,-1.561658e-004
2.302626e+003,-7.305441e-005
2.304555e+003,-6.719063e-005
2.306483e+003,-1.299323e-004
2.308412e+003,-1.513962e-004
2.310340e+003,-1.704412e-004
2.312269e+003,-1.992887e-004
2.314197e+003,-1.616640e-004
2.316125e+003,-1.062810e-004
2.318054e+003,-1.820003e-004
2.319983e+003,-2.646934e-004
2.321911e+003,-2.942300e-004
2.323840e+003,-2.804553e-004
2.325768e+003,-2.298231e-004
2.327697e+003,-2.472421e-004
2.329625e+003,-3.242281e-004
2.331553e+003,-4.337729e-004
2.333482e+003,-4.245377e-004
2.335411e+003,-4.084831e-004
2.337339e+003,-4.804759e-004
2.339268e+003,-4.479068e-004
2.341196e+003,-3.903423e-004
2.343125e+003,-4.272851e-004
2.345053e+003,-3.636595e-004
2.346981e+003,-3.337965e-004
2.348910e+003,-3.932224e-004
2.350839e+003,-3.879588e-004
2.352767e+003,-4.037493e-004
2.354696e+003,-5.263134e-004
2.356624e+003,-4.575719e-004
2.358552e+003,-3.844497e-004
2.360481e+003,-4.617093e-004
2.362409e+003,-6.666750e-004
2.364338e+003,-7.693201e-004
2.366267e+003,-7.247322e-004
2.368195e+003,-6.810330e-004
2.370124e+003,-6.631682e-004
2.372052e+003,-6.083124e-004
2.373980e+003,-5.824039e-004
2.375909e+003,-6.359728e-004
2.377838e+003,-5.840253e-004
2.379766e+003,-4.206648e-004
2.381695e+003,-4.116609e-004
2.383623e+003,-3.931231e-004
2.385552e+003,-2.536664e-004
2.387480e+003,-2.574745e-004
2.389408e+003,-2.174374e-004
2.391337e+003,-1.471233e-004
2.393266e+003,-2.523087e-004
2.395194e+003,-3.146594e-004
2.397123e+003,-2.750911e-004
2.399051e+003,-2.898923e-004
2.400979e+003,-3.455830e-004
2.402908e+003,-3.723332e-004
2.404836e+003,-3.512444e-004
2.406765e+003,-3.339621e-004
2.408694e+003,-4.104692e-004
2.410622e+003,-3.987838e-004
2.412551e+003,-2.672101e-004
2.414479e+003,-2.736672e-004
2.416407e+003,-3.509796e-004
2.418336e+003,-4.593924e-004
2.420264e+003,-5.206543e-004
2.422193e+003,-4.593924e-004
2.424122e+003,-3.622690e-004
2.426050e+003,-3.213475e-004
2.427979e+003,-2.211797e-004
2.429907e+003,-1.883593e-004
2.431835e+003,-2.013420e-004
2.433764e+003,-2.289290e-004
2.435692e+003,-1.923336e-004
2.437621e+003,-1.542447e-004
2.439550e+003,-1.011464e-004
2.441478e+003,-1.446722e-004
2.443406e+003,-2.695611e-004
2.445335e+003,-3.165797e-004
2.447263e+003,-2.869785e-004
2.449192e+003,-3.523369e-004
2.451121e+003,-3.631960e-004
2.453049e+003,-3.153216e-004
2.454978e+003,-2.756540e-004
2.456906e+003,-2.591965e-004
2.458834e+003,-2.798924e-004
2.460763e+003,-2.424404e-004
2.462691e+003,-2.018719e-004
2.464620e+003,-1.390744e-004
2.466549e+003,-1.254936e-004
2.468477e+003,-2.535670e-004
2.470406e+003,-3.037329e-004
2.472334e+003,-3.597529e-004
2.474262e+003,-2.794951e-004
2.476191e+003,-1.058504e-004
2.478119e+003,-1.285742e-004
2.480048e+003,-2.715479e-004
2.481977e+003,-3.594218e-004
2.483905e+003,-3.442587e-004
2.485833e+003,-3.374385e-004
2.487762e+003,-2.956207e-004
2.489690e+003,-2.610178e-004
2.491619e+003,-2.457850e-004
2.493547e+003,-1.460634e-004
2.495476e+003,-1.997523e-004
2.497405e+003,-1.800793e-004
2.499333e+003,-1.321185e-004
2.501261e+003,-7.858683e-005
2.503190e+003,-4.612013e-005
2.505118e+003,-2.066741e-004
2.507047e+003,-3.166791e-004
2.508975e+003,-2.591303e-004
2.510904e+003,-2.316114e-004
2.512833e+003,-2.100521e-004
2.514761e+003,-2.463811e-004
2.516689e+003,-2.361152e-004
2.518618e+003,-2.239615e-004
2.520546e+003,-2.850580e-004
2.522475e+003,-3.654141e-004
2.524403e+003,-3.535619e-004
2.526332e+003,-2.620774e-004
2.528260e+003,-1.146618e-004
2.530189e+003,-7.603596e-005
2.532117e+003,-1.085667e-004
2.534046e+003,-1.806092e-004
2.535974e+003,-1.972684e-004
2.537903e+003,-1.997854e-004
2.539831e+003,-2.041240e-004
2.541760e+003,-2.397911e-004
2.543688e+003,-3.580645e-004
2.545617e+003,-3.538268e-004
2.547545e+003,-2.080319e-004
2.549474e+003,-9.028088e-005
2.551402e+003,-1.447385e-004
2.553331e+003,-2.407846e-004
2.555259e+003,-2.808196e-004
2.557188e+003,-2.779719e-004
2.559116e+003,-2.576401e-004
2.561045e+003,-1.970366e-004
2.562973e+003,-1.872332e-004
2.564902e+003,-3.287971e-004
2.566830e+003,-3.678970e-004
2.568759e+003,-2.778394e-004
2.570687e+003,-2.417449e-004
2.572616e+003,-2.246238e-004
2.574544e+003,-2.327043e-004
2.576473e+003,-2.571103e-004
2.578401e+003,-2.983027e-004
2.580330e+003,-3.269099e-004
2.582258e+003,-2.317770e-004
2.584187e+003,-1.669966e-004
2.586115e+003,-2.571103e-004
2.588044e+003,-3.216455e-004
2.589972e+003,-2.236634e-004
2.591901e+003,-1.358946e-004
2.593829e+003,-1.225124e-004
2.595758e+003,-2.212128e-004
2.597686e+003,-2.941638e-004
2.599615e+003,-1.996530e-004
2.601543e+003,-1.547747e-004
2.603472e+003,-2.650908e-004
2.605400e+003,-2.844619e-004
2.607329e+003,-2.379366e-004
2.609257e+003,-2.173380e-004
2.611186e+003,-2.047532e-004
2.613114e+003,-1.648106e-004
2.615043e+003,-1.923005e-004
2.616971e+003,-1.353646e-004
2.618900e+003,-1.794500e-004
2.620828e+003,-2.070384e-004
2.622757e+003,-1.092292e-004
2.624685e+003,1.428101e-005
2.626614e+003,-2.614197e-005
2.628542e+003,-2.528385e-004
2.630471e+003,-4.409227e-004
2.632399e+003,-3.656127e-004
2.634328e+003,-3.783915e-004
2.636256e+003,-4.602529e-004
2.638185e+003,-4.007369e-004
2.640113e+003,-3.142620e-004
2.642042e+003,-2.270745e-004
2.643970e+003,-1.666654e-004
2.645899e+003,-1.634195e-004
2.647827e+003,-1.517605e-004
2.649756e+003,-1.623927e-004
2.651684e+003,-2.705877e-004
2.653613e+003,-3.405175e-004
2.655541e+003,-2.527723e-004
2.657470e+003,-2.374730e-004
2.659398e+003,-2.200205e-004
2.661327e+003,-1.452022e-004
2.663255e+003,-1.716998e-004
2.665184e+003,-2.513815e-004
2.667112e+003,-2.417449e-004
2.669041e+003,-1.977652e-004
2.670969e+003,-2.909188e-004
2.672898e+003,-3.332337e-004
2.674826e+003,-3.120768e-004
2.676755e+003,-2.777732e-004
2.678683e+003,-3.204536e-004
2.680612e+003,-3.494235e-004
2.682540e+003,-3.451195e-004
2.684469e+003,-3.987838e-004
2.686397e+003,-2.681373e-004
2.688326e+003,-2.054818e-004
2.690254e+003,-2.627728e-004
2.692183e+003,-2.485336e-004
2.694111e+003,-2.687002e-004
2.696040e+003,-2.177023e-004
2.697968e+003,-2.193913e-004
2.699897e+003,-2.656537e-004
2.701825e+003,-3.522045e-004
2.703754e+003,-3.218442e-004
2.705682e+003,-2.144899e-004
2.707611e+003,-1.317541e-004
2.709539e+003,-1.616640e-004
2.711468e+003,-2.461162e-004
2.713396e+003,-2.579050e-004
2.715325e+003,-3.001238e-004
2.717253e+003,-3.192616e-004
2.719182e+003,-3.358161e-004
2.721110e+003,-3.407493e-004
2.723039e+003,-3.175730e-004
2.724967e+003,-2.690313e-004
2.726896e+003,-2.650908e-004
2.728824e+003,-3.037329e-004
2.730753e+003,-2.879056e-004
2.732681e+003,-1.798143e-004
2.734610e+003,-1.526548e-004
2.736538e+003,-1.142974e-004
2.738467e+003,-1.911082e-004
2.740395e+003,-2.637000e-004
2.742324e+003,-3.212813e-004
2.744252e+003,-2.853229e-004
2.746181e+003,-2.379366e-004
2.748109e+003,-1.822652e-004
2.750038e+003,-2.327705e-004
2.751966e+003,-3.063155e-004
2.753895e+003,-2.787997e-004
2.755823e+003,-3.387297e-004
2.757752e+003,-3.884885e-004
2.759680e+003,-4.259610e-004
2.761609e+003,-4.046100e-004
2.763537e+003,-3.492580e-004
2.765466e+003,-4.390029e-004
2.767394e+003,-4.262259e-004
2.769323e+003,-3.102557e-004
2.771251e+003,-2.203848e-004
2.773180e+003,-1.672947e-004
2.775108e+003,-1.820003e-004
2.777037e+003,-2.726076e-004
2.778965e+003,-4.240081e-004
2.780894e+003,-4.150705e-004
2.782822e+003,-3.820662e-004
2.784750e+003,-4.081189e-004
2.786679e+003,-3.289295e-004
2.788608e+003,-2.600244e-004
2.790536e+003,-2.962829e-004
2.792465e+003,-2.883692e-004
2.794393e+003,-2.722764e-004
2.796322e+003,-3.710090e-004
2.798250e+003,-4.122237e-004
2.800178e+003,-3.163149e-004
2.802107e+003,-1.993218e-004
2.804036e+003,-1.553046e-004
2.805964e+003,-9.071152e-005
2.807893e+003,-1.623265e-004
2.809821e+003,-3.288302e-004
2.811750e+003,-3.646858e-004
2.813678e+003,-3.105206e-004
2.815606e+003,-2.943293e-004
2.817535e+003,-1.646450e-004
2.819464e+003,-1.180074e-004
2.821392e+003,-2.321413e-004
2.823321e+003,-3.439276e-004
2.825249e+003,-3.092293e-004
2.827177e+003,-1.831926e-004
2.829106e+003,-1.381138e-004
2.831034e+003,-2.704883e-004
2.832963e+003,-3.165797e-004
2.834892e+003,-2.337309e-004
2.836820e+003,-2.283660e-004
2.838749e+003,-2.574414e-004
2.840677e+003,-2.565474e-004
2.842605e+003,-2.670114e-004
2.844534e+003,-3.086002e-004
2.846462e+003,-3.681619e-004
2.848391e+003,-2.755546e-004
2.850320e+003,-1.962748e-004
2.852248e+003,-1.890217e-004
2.854177e+003,-2.193913e-004
2.856105e+003,-3.200894e-004
2.858033e+003,-3.533964e-004
2.859962e+003,-2.287303e-004
2.861890e+003,-2.029648e-004
2.863819e+003,-2.119399e-004
2.865748e+003,-1.752768e-004
2.867676e+003,-1.785889e-004
2.869604e+003,-2.409833e-004
2.871533e+003,-2.871772e-004
2.873461e+003,-3.079380e-004
2.875390e+003,-2.452883e-004
2.877319e+003,-2.826408e-004
2.879247e+003,-2.877732e-004
2.881176e+003,-2.601237e-004
2.883104e+003,-2.745613e-004
2.885032e+003,-3.821324e-004
2.886961e+003,-3.239301e-004
2.888889e+003,-2.488316e-004
2.890818e+003,-2.393937e-004
2.892747e+003,-2.923095e-004
2.894675e+003,-3.079711e-004
2.896604e+003,-2.789984e-004
2.898532e+003,-2.679055e-004
2.900460e+003,-3.075075e-004
2.902389e+003,-3.522045e-004
2.904317e+003,-4.311911e-004
2.906246e+003,-4.414523e-004
2.908175e+003,-3.062824e-004
2.910103e+003,-2.414469e-004
2.912031e+003,-2.637994e-004
2.913960e+003,-2.414469e-004
2.915888e+003,-2.511828e-004
2.917817e+003,-1.519261e-004
2.919745e+003,-1.808079e-004
2.921674e+003,-2.605873e-004
2.923603e+003,-3.834566e-004
2.925531e+003,-4.081852e-004
2.927459e+003,-3.575016e-004
2.929388e+003,-4.335743e-004
2.931316e+003,-4.156333e-004
2.933245e+003,-3.641229e-004
2.935173e+003,-3.534957e-004
2.937102e+003,-3.008854e-004
2.939031e+003,-3.610110e-004
2.940959e+003,-4.034845e-004
2.942887e+003,-4.836863e-004
2.944816e+003,-4.470793e-004
2.946744e+003,-2.935346e-004
2.948673e+003,-2.963491e-004
2.950601e+003,-3.989163e-004
2.952530e+003,-3.505161e-004
2.954458e+003,-4.528718e-004
2.956387e+003,-4.899086e-004
2.958315e+003,-3.931893e-004
2.960244e+003,-4.220882e-004
2.962172e+003,-4.765042e-004
2.964101e+003,-3.455499e-004
2.966029e+003,-2.833692e-004
2.967958e+003,-3.401533e-004
2.969886e+003,-3.706448e-004
2.971815e+003,-3.398554e-004
2.973743e+003,-3.619048e-004
2.975672e+003,-3.925603e-004
2.977600e+003,-3.508140e-004
2.979529e+003,-2.623423e-004
2.981457e+003,-3.301215e-004
2.983386e+003,-3.585279e-004
2.985314e+003,-3.454506e-004
2.987243e+003,-3.682943e-004
2.989171e+003,-3.297573e-004
2.991100e+003,-2.985676e-004
2.993028e+003,-3.862374e-004
2.994957e+003,-3.628318e-004
2.996885e+003,-3.129376e-004
2.998814e+003,-2.304192e-004
3.000742e+003,-3.314127e-004
3.002671e+003,-4.136140e-004
3.004599e+003,-3.577003e-004
3.006528e+003,-3.071433e-004
3.008456e+003,-3.928251e-004
3.010385e+003,-5.146311e-004
3.012313e+003,-4.362224e-004
3.014242e+003,-3.781267e-004
3.016170e+003,-3.768025e-004
3.018099e+003,-2.887003e-004
3.020027e+003,-1.455997e-004
3.021956e+003,-1.753762e-004
3.023884e+003,-3.280025e-004
3.025813e+003,-3.706448e-004
3.027741e+003,-5.188010e-004
3.029670e+003,-4.445968e-004
3.031598e+003,-2.385658e-004
3.033527e+003,-1.206243e-004
3.035455e+003,-6.947653e-005
3.037384e+003,-9.256664e-005
3.039312e+003,-2.374068e-004
3.041241e+003,-3.167784e-004
3.043169e+003,-3.362797e-004
3.045098e+003,-3.251551e-004
3.047026e+003,-2.040909e-004
3.048955e+003,-2.121717e-004
3.050883e+003,-3.834235e-004
3.052812e+003,-4.949723e-004
3.054740e+003,-3.741871e-004
3.056669e+003,-2.689320e-004
3.058597e+003,-3.499863e-004
3.060526e+003,-3.836552e-004
3.062454e+003,-2.686671e-004
3.064383e+003,-2.501893e-004
3.066311e+003,-2.590971e-004
3.068240e+003,-2.288628e-004
3.070168e+003,-3.481654e-004
3.072097e+003,-3.718366e-004
3.074025e+003,-2.453876e-004
3.075954e+003,-2.054818e-004
3.077882e+003,-2.786341e-004
3.079811e+003,-3.289958e-004
3.081739e+003,-3.688240e-004
3.083668e+003,-3.064811e-004
3.085596e+003,-2.563487e-004
3.087525e+003,-3.715056e-004
3.089453e+003,-3.341276e-004
3.091382e+003,-2.169738e-004
3.093310e+003,-2.726407e-004
3.095239e+003,-2.894619e-004
3.097167e+003,-2.814487e-004
3.099096e+003,-2.359165e-004
3.101024e+003,-2.929386e-004
3.102953e+003,-3.526349e-004
3.104881e+003,-3.596205e-004
3.106810e+003,-3.678970e-004
3.108738e+003,-2.325387e-004
3.110667e+003,-2.442948e-004
3.112595e+003,-2.585673e-004
3.114524e+003,-2.730711e-004
3.116452e+003,-3.011171e-004
3.118381e+003,-2.640974e-004
3.120309e+003,-3.450864e-004
3.122238e+003,-4.164608e-004
3.124166e+003,-3.740547e-004
3.126095e+003,-3.708766e-004
3.128023e+003,-4.393670e-004
3.129952e+003,-3.563429e-004
3.131880e+003,-3.329688e-004
3.133809e+003,-3.309161e-004
3.135737e+003,-3.410804e-004
3.137666e+003,-2.677399e-004
3.139594e+003,-2.152185e-004
3.141523e+003,-3.155864e-004
3.143451e+003,-3.655796e-004
3.145380e+003,-2.391288e-004
3.147308e+003,-1.147611e-004
3.149237e+003,-2.049851e-004
3.151165e+003,-3.822648e-004
3.153094e+003,-4.500252e-004
3.155022e+003,-3.887533e-004
3.156951e+003,-3.175730e-004
3.158879e+003,-2.281673e-004
3.160808e+003,-1.653405e-004
3.162736e+003,-2.340620e-004
3.164665e+003,-3.161493e-004
3.166593e+003,-4.755775e-004
3.168522e+003,-5.340242e-004
3.170450e+003,-5.098985e-004
3.172379e+003,-3.953741e-004
3.174307e+003,-2.813825e-004
3.176236e+003,-2.908195e-004
3.178164e+003,-3.407824e-004
3.180093e+003,-2.354529e-004
3.182021e+003,-2.643292e-004
3.183950e+003,-3.795171e-004
3.185878e+003,-3.484303e-004
3.187807e+003,-3.214469e-004
3.189735e+003,-3.319756e-004
3.191664e+003,-4.172884e-004
3.193592e+003,-4.299663e-004
3.195521e+003,-3.660431e-004
3.197449e+003,-2.100521e-004
3.199378e+003,-1.476864e-004
3.201306e+003,-2.098866e-004
3.203235e+003,-3.271417e-004
3.205163e+003,-3.243936e-004
3.207092e+003,-3.327040e-004
3.209020e+003,-3.097591e-004
3.210948e+003,-2.675743e-004
3.212877e+003,-2.388639e-004
3.214806e+003,-1.982951e-004
3.216734e+003,-2.133639e-004
3.218663e+003,-3.312141e-004
3.220591e+003,-3.528004e-004
3.222520e+003,-2.125691e-004
3.224448e+003,-2.155828e-004
3.226376e+003,-1.529529e-004
3.228305e+003,-1.121774e-004
3.230234e+003,-1.180074e-004
3.232162e+003,-1.892204e-004
3.234091e+003,-2.885679e-004
3.236019e+003,-3.640236e-004
3.237948e+003,-2.706870e-004
3.239876e+003,-1.341059e-004
3.241804e+003,-9.544867e-005
3.243733e+003,-1.703087e-004
3.245662e+003,-1.575238e-004
3.247590e+003,-2.334328e-004
3.249519e+003,-2.347244e-004
3.251447e+003,-3.442918e-004
3.253375e+003,-4.259610e-004
3.255304e+003,-3.827283e-004
3.257232e+003,-2.585673e-004
3.259161e+003,-2.621436e-004
3.261090e+003,-3.282674e-004
3.263018e+003,-3.111497e-004
3.264947e+003,-4.090789e-004
3.266875e+003,-4.741212e-004
3.268803e+003,-3.852111e-004
3.270732e+003,-2.929386e-004
3.272660e+003,-2.278030e-004
3.274589e+003,-1.930623e-004
3.276518e+003,-2.829057e-004
3.278446e+003,-4.126209e-004
3.280375e+003,-3.969631e-004
3.282303e+003,-2.015407e-004
3.284231e+003,-1.916050e-004
3.286160e+003,-3.306843e-004
3.288088e+003,-3.292606e-004
3.290017e+003,-3.673673e-004
3.291946e+003,-4.021935e-004
3.293874e+003,-4.685276e-004
3.295802e+003,-4.265900e-004
3.297731e+003,-2.928393e-004
3.299659e+003,-2.938989e-004
3.301588e+003,-2.064091e-004
3.303516e+003,-1.504356e-004
3.305445e+003,-1.912407e-004
3.307374e+003,-2.422085e-004
3.309302e+003,-2.293926e-004
3.311230e+003,-2.623092e-004
3.313159e+003,-4.295029e-004
3.315087e+003,-4.820315e-004
3.317016e+003,-3.439939e-004
3.318944e+003,-3.885878e-004
3.320873e+003,-3.546544e-004
3.322802e+003,-3.640567e-004
3.324730e+003,-4.489329e-004
3.326658e+003,-4.798140e-004
3.328587e+003,-3.276383e-004
3.330515e+003,-1.532179e-004
3.332444e+003,-1.579875e-004
3.334372e+003,-2.712168e-004
3.336301e+003,-3.369087e-004
3.338229e+003,-3.117126e-004
3.340158e+003,-2.206498e-004
3.342086e+003,-1.812054e-004
3.344015e+003,-1.060822e-004
3.345943e+003,-1.054860e-004
3.347872e+003,-1.980301e-004
3.349800e+003,-1.505681e-004
3.351729e+003,-9.644248e-005
3.353657e+003,-1.769660e-004
3.355586e+003,-2.480368e-004
3.357514e+003,-2.894288e-004
3.359443e+003,-2.636007e-004
3.361371e+003,-1.400350e-004
3.363300e+003,-5.639047e-005
3.365229e+003,-1.555365e-004
3.367157e+003,-2.495601e-004
3.369085e+003,-2.850249e-004
3.371014e+003,-2.846606e-004
3.372942e+003,-1.951819e-004
3.374871e+003,-1.666322e-004
3.376799e+003,-9.733690e-005
3.378728e+003,-1.659367e-004
3.380656e+003,-1.678246e-004
3.382585e+003,-2.715148e-004
3.384513e+003,-4.328461e-004
3.386442e+003,-4.465497e-004
3.388370e+003,-3.186988e-004
3.390299e+003,-2.331679e-004
3.392227e+003,-2.024349e-004
3.394156e+003,-1.285411e-004
3.396084e+003,-2.179673e-004
3.398013e+003,-2.732036e-004
3.399941e+003,-2.372081e-004
3.401870e+003,-1.514955e-004
3.403798e+003,-4.771276e-006
3.405727e+003,-9.899322e-005
3.407655e+003,-2.575408e-004
3.409584e+003,-2.573752e-004
3.411512e+003,-1.620284e-004
3.413441e+003,-1.238374e-004
3.415369e+003,-4.327090e-005
3.417298e+003,3.611625e-006
3.419226e+003,-7.388828e-006
3.421155e+003,-1.180074e-004
3.423083e+003,-2.432682e-004
3.425012e+003,-2.922433e-004
3.426940e+003,-2.850249e-004
3.428869e+003,-2.445929e-004
3.430797e+003,-2.227030e-004
3.432726e+003,-2.648259e-004
3.434654e+003,-3.948445e-004
3.436583e+003,-5.070192e-004
3.438511e+003,-3.070440e-004
3.440440e+003,-1.246324e-004
3.442368e+003,2.326072e-005
3.444297e+003,6.892427e-005
3.446225e+003,-5.191794e-005
3.448154e+003,-1.761048e-004
3.450082e+003,-1.384120e-004
3.452011e+003,-1.754756e-004
3.453939e+003,-2.227030e-004
3.455868e+003,-2.749255e-004
3.457796e+003,-1.409625e-004
3.459725e+003,-4.105113e-005
3.461653e+003,-5.022830e-005
3.463582e+003,-1.585506e-004
3.465510e+003,-2.227030e-004
3.467439e+003,-1.712361e-004
3.469367e+003,-1.348015e-004
3.471296e+003,-1.391407e-004
3.473224e+003,-1.283092e-004
3.475153e+003,-3.206191e-004
3.477081e+003,-3.423385e-004
3.479010e+003,-1.400681e-004
3.480938e+003,-1.278955e-005
3.482867e+003,-6.129365e-005
3.484795e+003,2.935775e-005
3.486724e+003,-1.656702e-007
3.488652e+003,-7.033787e-005
3.490581e+003,-2.485336e-004
3.492509e+003,-2.403210e-004
3.494438e+003,-7.895124e-005
3.496366e+003,2.044418e-005
3.498295e+003,-6.692560e-005
3.500223e+003,-2.016732e-004
3.502152e+003,-2.488316e-004
3.504080e+003,-3.158513e-004
3.506009e+003,-2.228355e-004
3.507937e+003,-1.149736e-005
3.509866e+003,-9.774431e-006
3.511794e+003,-2.511488e-005
3.513723e+003,-1.505350e-004
3.515651e+003,-2.242264e-004
3.517580e+003,-5.542971e-005
3.519508e+003,-5.814635e-005
3.521437e+003,-1.010471e-004
3.523365e+003,-2.187290e-004
3.525294e+003,-4.186455e-004
3.527222e+003,-4.093769e-004
3.529151e+003,-1.545097e-004
3.531079e+003,-3.551824e-005
3.533008e+003,-7.842119e-005
3.534936e+003,-1.189680e-004
3.536865e+003,-1.739189e-004
3.538793e+003,-1.374845e-004
3.540722e+003,9.046535e-005
3.542650e+003,1.377932e-004
3.544579e+003,1.374286e-004
3.546507e+003,9.344804e-005
3.548436e+003,-7.269000e-005
3.550364e+003,-1.937247e-004
3.552293e+003,-2.318764e-004
3.554221e+003,-2.400891e-004
3.556150e+003,-2.783361e-004
3.558078e+003,-2.649915e-004
3.560007e+003,-2.508516e-004
3.561935e+003,-4.240950e-005
3.563864e+003,-1.180074e-004
3.565792e+003,-1.641813e-004
3.567721e+003,-7.186179e-005
3.569649e+003,-1.802454e-005
3.571578e+003,-8.365540e-005
3.573506e+003,-1.721966e-004
3.575435e+003,5.732567e-005
3.577363e+003,1.914244e-004
3.579292e+003,4.022659e-005
3.581220e+003,-1.561658e-004
3.583149e+003,-2.506529e-004
3.585077e+003,-2.339958e-004
3.587006e+003,-2.699585e-004
3.588934e+003,-1.838550e-004
3.590863e+003,-8.739880e-005
3.592791e+003,-2.507192e-004
3.594720e+003,-3.339621e-004
3.596648e+003,-2.084294e-004
3.598577e+003,-3.671096e-005
3.600505e+003,1.009380e-004
3.602434e+003,-4.545752e-005
3.604362e+003,3.247148e-006
3.606291e+003,9.225497e-005
3.608219e+003,-1.391607e-005
3.610148e+003,-7.308754e-005
3.612076e+003,-1.285742e-004
3.614005e+003,-1.845174e-004
3.615933e+003,-1.350002e-004
3.617862e+003,2.833053e-005
3.619790e+003,7.048182e-005
3.621719e+003,-1.455666e-004
3.623647e+003,-1.894854e-004
3.625576e+003,1.925130e-005
3.627504e+003,2.269944e-004
3.629433e+003,2.505006e-005
3.631361e+003,-4.903810e-006
3.633290e+003,-1.056963e-005
3.635218e+003,-1.303960e-004
3.637146e+003,-6.569983e-005
3.639075e+003,-1.259075e-005
3.641004e+003,1.669614e-004
3.642932e+003,1.082293e-004
3.644861e+003,-1.391407e-004
3.646789e+003,-1.853123e-004
3.648718e+003,-3.509134e-004
3.650646e+003,-4.636290e-004
3.652574e+003,-1.390413e-004
3.654503e+003,5.788902e-005
3.656432e+003,-6.825559e-006
3.658360e+003,-5.658925e-005
3.660289e+003,-1.214855e-004
3.662217e+003,-2.208154e-004
3.664146e+003,-8.862451e-005
3.666074e+003,3.794013e-005
3.668002e+003,4.393796e-005
3.669931e+003,-6.808512e-005
3.671860e+003,-2.510172e-004
3.673788e+003,-2.062767e-004
3.675717e+003,-3.327040e-004
3.677645e+003,-2.004809e-004
3.679573e+003,-7.656602e-005
3.681502e+003,6.677022e-005
3.683430e+003,8.029120e-005
3.685359e+003,8.145111e-005
3.687288e+003,1.017997e-004
3.689216e+003,2.269741e-005
3.691145e+003,1.176749e-004
3.693073e+003,3.250008e-004
3.695001e+003,1.857560e-004
3.696930e+003,-5.128847e-005
3.698858e+003,-1.068441e-004
3.700787e+003,-1.119916e-005
3.702716e+003,1.285128e-004
3.704644e+003,2.589203e-004
3.706573e+003,1.955680e-004
3.708501e+003,-2.610884e-005
3.710429e+003,-1.221149e-004
3.712358e+003,-1.236055e-004
3.714286e+003,-8.789571e-005
3.716215e+003,-2.844619e-004
3.718144e+003,-3.174075e-004
3.720072e+003,-1.294685e-004
3.722000e+003,-5.234863e-005
3.723929e+003,-7.414765e-005
3.725857e+003,6.249530e-005
3.727786e+003,2.806034e-004
3.729714e+003,1.534377e-004
3.731643e+003,-3.141958e-004
3.733572e+003,-5.157563e-004
3.735500e+003,-3.358824e-004
3.737428e+003,-3.075075e-004
3.739357e+003,-2.877732e-004
3.741285e+003,-9.432236e-005
3.743214e+003,-2.247894e-004
3.745142e+003,-3.303201e-004
3.747071e+003,-2.090586e-004
3.749000e+003,-1.849811e-004
3.750928e+003,-2.390294e-004
3.752856e+003,-2.367776e-004
3.754785e+003,-1.717329e-004
3.756713e+003,-9.395797e-005
3.758642e+003,-1.629558e-004
3.760570e+003,-3.156527e-004
3.762499e+003,-2.901903e-004
3.764427e+003,-2.305186e-004
3.766356e+003,-1.869020e-004
3.768284e+003,-8.862451e-005
3.770213e+003,4.181717e-005
3.772141e+003,3.482527e-005
3.774070e+003,7.190682e-005
3.775998e+003,3.058380e-005
3.777927e+003,-1.121774e-004
3.779855e+003,-2.144237e-004
3.781784e+003,-1.852153e-005
3.783712e+003,1.409751e-004
3.785641e+003,7.770627e-005
3.787569e+003,-1.444620e-005
3.789498e+003,7.598300e-005
3.791426e+003,1.152555e-004
3.793355e+003,1.356719e-004
3.795283e+003,1.420357e-004
3.797212e+003,3.147848e-005
3.799140e+003,-1.468584e-004
3.801069e+003,-3.313796e-004
3.802997e+003,-1.939565e-004
3.804926e+003,-2.056805e-004
3.806854e+003,-3.411466e-004
3.808783e+003,-1.262555e-004
3.810711e+003,1.129885e-005
3.812640e+003,-8.690189e-005
3.814568e+003,-1.050222e-004
3.816497e+003,-6.656119e-005
3.818425e+003,1.702098e-004
3.820354e+003,3.241719e-004
3.822282e+003,1.400470e-004
3.824211e+003,9.619877e-005
3.826139e+003,-5.957092e-005
3.828068e+003,1.367657e-004
3.829996e+003,3.927165e-004
3.831925e+003,3.363745e-004
3.833853e+003,2.097228e-004
3.835782e+003,6.978589e-005
3.837710e+003,8.062260e-005
3.839639e+003,1.699446e-004
3.841567e+003,2.710216e-004
3.843496e+003,2.196348e-004
3.845424e+003,1.434609e-004
3.847353e+003,4.002776e-005
3.849281e+003,1.463446e-004
3.851210e+003,3.093170e-004
3.853138e+003,1.180395e-004
3.855067e+003,1.504311e-005
3.856995e+003,1.029597e-004
3.858924e+003,2.167020e-005
3.860852e+003,1.306009e-004
3.862781e+003,2.653190e-004
3.864709e+003,1.619231e-004
3.866638e+003,2.311383e-004
3.868566e+003,2.201652e-004
3.870495e+003,3.095491e-004
3.872423e+003,3.059681e-004
3.874352e+003,1.377269e-004
3.876280e+003,1.057436e-004
3.878209e+003,1.527506e-005
3.880137e+003,-1.158874e-004
3.882066e+003,6.242902e-005
3.883994e+003,1.079641e-004
3.885923e+003,8.614936e-006
3.887851e+003,9.069734e-005
3.889780e+003,6.054011e-005
3.891708e+003,-2.574745e-004
3.893637e+003,-3.180697e-004
3.895565e+003,-8.153522e-005
3.897494e+003,2.342640e-005
3.899422e+003,1.490293e-004
3.901351e+003,2.975539e-005
3.903279e+003,-6.702499e-005
3.905208e+003,7.184054e-005
3.907136e+003,1.571169e-004
3.909065e+003,6.822835e-005
3.910993e+003,-2.726846e-005
3.912922e+003,-6.248630e-005
3.914850e+003,-1.430823e-004
3.916779e+003,-2.402547e-004
3.918707e+003,-8.706753e-005
3.920636e+003,-1.019415e-004
3.922564e+003,-2.400891e-004
3.924493e+003,-1.153243e-004
3.926421e+003,-1.852129e-004
3.928350e+003,-3.369087e-004
3.930278e+003,-1.923005e-004
3.932207e+003,-7.199430e-005
3.934135e+003,1.390195e-004
3.936064e+003,3.311684e-004
3.937992e+003,8.314126e-005
3.939921e+003,-1.043597e-004
3.941849e+003,-8.501363e-005
3.943778e+003,-7.951442e-005
3.945706e+003,-1.131049e-004
3.947635e+003,1.620557e-004
3.949563e+003,2.819628e-004
3.951492e+003,1.283471e-004
3.953420e+003,1.968939e-004
3.955349e+003,3.095822e-004
3.957277e+003,1.452839e-004
3.959206e+003,-4.254202e-005
3.961134e+003,-1.388426e-004
3.963063e+003,8.218020e-005
3.964991e+003,-7.083480e-005
3.966920e+003,-2.799918e-004
3.968848e+003,-1.630164e-005
3.970777e+003,2.240107e-004
3.972705e+003,5.000215e-005
3.974634e+003,-7.527402e-005
3.976562e+003,1.046168e-004
3.978491e+003,1.240053e-004
3.980419e+003,1.280488e-004
3.982348e+003,9.324920e-005
3.984276e+003,2.286851e-004
3.986205e+003,1.601332e-004
3.988133e+003,1.582439e-004
3.990062e+003,1.548298e-004
3.991990e+003,2.601100e-005
3.993919e+003,9.503882e-005
3.995847e+003,7.184054e-005
3.997776e+003,8.758210e-005
3.999704e+003,2.089604e-004
4.001633e+003,0.000000e+000
