3.991989e+002,-2.692606e-002
4.011274e+002,-3.158766e-002
4.030559e+002,-3.384972e-002
4.049844e+002,-3.403882e-002
4.069129e+002,-2.687321e-002
4.088414e+002,-2.009314e-002
4.107699e+002,-2.595334e-002
4.126984e+002,-2.900486e-002
4.146269e+002,-2.310941e-002
4.165554e+002,-1.776215e-002
4.184839e+002,-1.920484e-002
4.204124e+002,-1.312218e-002
4.223409e+002,-7.265843e-003
4.242694e+002,-7.875817e-003
4.261979e+002,-1.200979e-002
4.281264e+002,-6.875993e-003
4.300549e+002,-4.663536e-003
4.319834e+002,-8.432292e-003
4.339119e+002,-6.028747e-003
4.358404e+002,-4.435163e-003
4.377689e+002,-4.249293e-003
4.396974e+002,-9.304900e-003
4.416259e+002,-1.402665e-002
4.435544e+002,-1.049306e-002
4.454829e+002,-7.297873e-003
4.474114e+002,-5.579038e-003
4.493399e+002,-5.866800e-003
4.512684e+002,-6.242730e-003
4.531969e+002,-4.574726e-003
4.551254e+002,-4.873017e-003
4.570539e+002,-5.653090e-003
4.589824e+002,-6.002898e-003
4.609109e+002,-6.626786e-003
4.628394e+002,-6.184949e-003
4.647679e+002,-7.308559e-003
4.666964e+002,-6.206703e-003
4.686249e+002,-5.160494e-003
4.705533e+002,-5.780426e-003
4.724819e+002,-6.662876e-003
4.744103e+002,-7.070391e-003
4.763389e+002,-7.582806e-003
4.782673e+002,-7.002547e-003
4.801959e+002,-4.806271e-003
4.821243e+002,-4.774319e-003
4.840529e+002,-7.693204e-003
4.859813e+002,-9.911370e-003
4.879099e+002,-9.091318e-003
4.898383e+002,-9.293094e-003
4.917668e+002,-1.148496e-002
4.936953e+002,-1.095836e-002
4.956238e+002,-9.274802e-003
4.975523e+002,-8.147527e-003
4.994808e+002,-8.959170e-003
5.014093e+002,-9.725659e-003
5.033378e+002,-8.285707e-003
5.052663e+002,-6.228293e-003
5.071948e+002,-7.858115e-003
5.091233e+002,-1.102430e-002
5.110518e+002,-1.161014e-002
5.129803e+002,-1.060508e-002
5.149088e+002,-1.022602e-002
5.168373e+002,-9.666525e-003
5.187658e+002,-9.398487e-003
5.206943e+002,-1.052728e-002
5.226228e+002,-1.036432e-002
5.245513e+002,-8.868085e-003
5.264798e+002,-9.582361e-003
5.284083e+002,-1.007237e-002
5.303368e+002,-9.212654e-003
5.322653e+002,-8.481978e-003
5.341938e+002,-7.852844e-003
5.361223e+002,-8.737526e-003
5.380508e+002,-9.346216e-003
5.399792e+002,-8.489971e-003
5.419078e+002,-7.443359e-003
5.438363e+002,-7.103511e-003
5.457648e+002,-7.467265e-003
5.476932e+002,-7.513511e-003
5.496218e+002,-6.638468e-003
5.515503e+002,-5.209245e-003
5.534788e+002,-5.865885e-003
5.554072e+002,-6.483278e-003
5.573358e+002,-5.966427e-003
5.592643e+002,-5.686906e-003
5.611927e+002,-5.727554e-003
5.631212e+002,-5.157744e-003
5.650497e+002,-5.505694e-003
5.669783e+002,-6.394872e-003
5.689067e+002,-5.508802e-003
5.708352e+002,-4.731419e-003
5.727637e+002,-5.124771e-003
5.746923e+002,-6.476390e-003
5.766207e+002,-8.456437e-003
5.785492e+002,-9.334347e-003
5.804777e+002,-1.018925e-002
5.824063e+002,-8.915058e-003
5.843347e+002,-6.758405e-003
5.862632e+002,-6.702454e-003
5.881917e+002,-6.774618e-003
5.901202e+002,-6.054365e-003
5.920487e+002,-5.588295e-003
5.939772e+002,-7.308722e-003
5.959057e+002,-8.532437e-003
5.978342e+002,-7.960148e-003
5.997627e+002,-7.334982e-003
6.016912e+002,-7.364661e-003
6.036197e+002,-7.569683e-003
6.055482e+002,-6.745160e-003
6.074767e+002,-4.892446e-003
6.094052e+002,-4.729453e-003
6.113337e+002,-6.575583e-003
6.132622e+002,-7.544708e-003
6.151907e+002,-7.835402e-003
6.171192e+002,-7.221103e-003
6.190477e+002,-6.949726e-003
6.209762e+002,-6.704574e-003
6.229047e+002,-6.815196e-003
6.248332e+002,-7.898951e-003
6.267617e+002,-8.681830e-003
6.286902e+002,-8.408505e-003
6.306187e+002,-7.137735e-003
6.325472e+002,-6.353666e-003
6.344756e+002,-5.610473e-003
6.364042e+002,-5.138785e-003
6.383326e+002,-5.258056e-003
6.402612e+002,-5.472354e-003
6.421896e+002,-5.112720e-003
6.441182e+002,-4.752656e-003
6.460466e+002,-4.979553e-003
6.479752e+002,-5.095430e-003
6.499036e+002,-4.799749e-003
6.518322e+002,-4.454972e-003
6.537606e+002,-4.402856e-003
6.556891e+002,-4.626198e-003
6.576177e+002,-5.012407e-003
6.595461e+002,-5.002482e-003
6.614746e+002,-4.475371e-003
6.634031e+002,-4.354375e-003
6.653317e+002,-4.260482e-003
6.672601e+002,-4.480290e-003
6.691886e+002,-4.084319e-003
6.711171e+002,-3.419948e-003
6.730457e+002,-3.565556e-003
6.749741e+002,-3.400025e-003
6.769026e+002,-2.782247e-003
6.788311e+002,-2.870108e-003
6.807596e+002,-3.125493e-003
6.826881e+002,-3.127170e-003
6.846166e+002,-2.913654e-003
6.865451e+002,-2.847198e-003
6.884736e+002,-2.413985e-003
6.904021e+002,-1.940329e-003
6.923306e+002,-1.905791e-003
6.942591e+002,-1.958240e-003
6.961876e+002,-2.189041e-003
6.981161e+002,-2.719295e-003
7.000446e+002,-2.488480e-003
7.019731e+002,-2.134212e-003
7.039016e+002,-2.225699e-003
7.058301e+002,-2.843314e-003
7.077585e+002,-3.201872e-003
7.096871e+002,-3.508600e-003
7.116156e+002,-3.276099e-003
7.135441e+002,-3.365570e-003
7.154725e+002,-4.419420e-003
7.174011e+002,-4.997569e-003
7.193296e+002,-4.900472e-003
7.212581e+002,-5.211308e-003
7.231865e+002,-5.207150e-003
7.251151e+002,-5.060912e-003
7.270436e+002,-5.587510e-003
7.289720e+002,-5.679908e-003
7.309005e+002,-5.309382e-003
7.328290e+002,-5.273245e-003
7.347576e+002,-5.275635e-003
7.366860e+002,-4.788083e-003
7.386145e+002,-4.542233e-003
7.405430e+002,-4.777662e-003
7.424716e+002,-4.996291e-003
7.444000e+002,-4.707853e-003
7.463285e+002,-4.189310e-003
7.482570e+002,-3.946404e-003
7.501855e+002,-3.403510e-003
7.521140e+002,-2.888047e-003
7.540425e+002,-2.625805e-003
7.559710e+002,-2.542934e-003
7.578995e+002,-2.544219e-003
7.598280e+002,-2.247488e-003
7.617565e+002,-1.794472e-003
7.636850e+002,-1.263714e-003
7.656135e+002,-8.794803e-004
7.675420e+002,-6.409356e-004
7.694705e+002,-4.686931e-004
7.713990e+002,-5.798229e-004
7.733275e+002,-5.415032e-004
7.752560e+002,-5.537473e-004
7.771844e+002,-7.557260e-004
7.791130e+002,-3.982542e-004
7.810415e+002,-1.665660e-004
7.829700e+002,-2.438643e-004
7.848984e+002,-1.887236e-004
7.868270e+002,-2.148542e-004
7.887555e+002,-5.113547e-004
7.906840e+002,-9.549657e-004
7.926124e+002,-1.233318e-003
7.945410e+002,-1.368200e-003
7.964695e+002,-1.325391e-003
7.983979e+002,-1.382039e-003
8.003264e+002,-1.584294e-003
8.022549e+002,-1.688834e-003
8.041835e+002,-1.470878e-003
8.061119e+002,-1.265003e-003
8.080404e+002,-8.788851e-004
8.099689e+002,-6.155585e-004
8.118975e+002,-8.800755e-004
8.138259e+002,-7.396505e-004
8.157545e+002,-5.751242e-004
8.176830e+002,-1.168687e-003
8.196115e+002,-1.776851e-003
8.215399e+002,-1.955206e-003
8.234684e+002,-1.856701e-003
8.253970e+002,-2.290898e-003
8.273254e+002,-2.649549e-003
8.292539e+002,-2.588587e-003
8.311824e+002,-2.772008e-003
8.331110e+002,-2.988392e-003
8.350394e+002,-3.101116e-003
8.369679e+002,-2.555945e-003
8.388964e+002,-2.595207e-003
8.408250e+002,-2.911909e-003
8.427534e+002,-3.053838e-003
8.446819e+002,-2.834722e-003
8.466104e+002,-2.929188e-003
8.485389e+002,-3.202628e-003
8.504674e+002,-3.159243e-003
8.523959e+002,-2.984574e-003
8.543244e+002,-3.019323e-003
8.562529e+002,-3.044560e-003
8.581814e+002,-3.293002e-003
8.601099e+002,-3.152566e-003
8.620384e+002,-3.091246e-003
8.639669e+002,-3.379215e-003
8.658954e+002,-3.469322e-003
8.678239e+002,-3.452952e-003
8.697524e+002,-3.451769e-003
8.716809e+002,-3.481286e-003
8.736094e+002,-3.642383e-003
8.755378e+002,-3.457653e-003
8.774664e+002,-3.046797e-003
8.793949e+002,-2.636245e-003
8.813234e+002,-2.728482e-003
8.832518e+002,-3.018599e-003
8.851804e+002,-3.394634e-003
8.871089e+002,-3.350315e-003
8.890374e+002,-2.914806e-003
8.909658e+002,-2.643918e-003
8.928943e+002,-2.108461e-003
8.948229e+002,-1.873197e-003
8.967513e+002,-2.113110e-003
8.986798e+002,-2.262684e-003
9.006083e+002,-2.202425e-003
9.025369e+002,-2.070177e-003
9.044653e+002,-2.117001e-003
9.063938e+002,-1.962429e-003
9.083223e+002,-1.830669e-003
9.102509e+002,-2.168468e-003
9.121793e+002,-2.675335e-003
9.141078e+002,-2.860892e-003
9.160364e+002,-2.771646e-003
9.179648e+002,-2.699176e-003
9.198933e+002,-2.855099e-003
9.218218e+002,-3.081278e-003
9.237504e+002,-3.347323e-003
9.256788e+002,-3.889958e-003
9.276073e+002,-3.912649e-003
9.295358e+002,-3.491246e-003
9.314644e+002,-3.276922e-003
9.333928e+002,-3.568809e-003
9.353213e+002,-3.909365e-003
9.372498e+002,-3.904374e-003
9.391783e+002,-4.069219e-003
9.411068e+002,-4.212575e-003
9.430353e+002,-4.128629e-003
9.449637e+002,-4.367201e-003
9.468923e+002,-4.608987e-003
9.488208e+002,-4.395903e-003
9.507493e+002,-4.273278e-003
9.526777e+002,-4.214577e-003
9.546063e+002,-4.229606e-003
9.565348e+002,-4.028744e-003
9.584633e+002,-3.886575e-003
9.603917e+002,-3.978941e-003
9.623203e+002,-3.964626e-003
9.642488e+002,-3.804175e-003
9.661772e+002,-3.638144e-003
9.681057e+002,-3.538081e-003
9.700343e+002,-3.491509e-003
9.719628e+002,-3.478164e-003
9.738912e+002,-3.678820e-003
9.758197e+002,-3.625855e-003
9.777483e+002,-3.406929e-003
9.796768e+002,-3.169999e-003
9.816052e+002,-2.921125e-003
9.835337e+002,-3.048113e-003
9.854623e+002,-3.281854e-003
9.873907e+002,-3.352813e-003
9.893192e+002,-3.316185e-003
9.912477e+002,-3.095194e-003
9.931763e+002,-2.949659e-003
9.951047e+002,-2.959828e-003
9.970332e+002,-2.910593e-003
9.989617e+002,-2.824221e-003
1.000890e+003,-2.694796e-003
1.002819e+003,-2.527386e-003
1.004747e+003,-2.368874e-003
1.006676e+003,-2.101932e-003
1.008604e+003,-2.012431e-003
1.010533e+003,-2.047257e-003
1.012461e+003,-1.747514e-003
1.014390e+003,-1.578252e-003
1.016318e+003,-1.283437e-003
1.018247e+003,-1.032289e-003
1.020175e+003,-1.027694e-003
1.022104e+003,-9.369801e-004
1.024032e+003,-5.226400e-004
1.025961e+003,-1.777609e-004
1.027889e+003,-4.665022e-005
1.029818e+003,9.583421e-005
1.031746e+003,1.353736e-004
1.033675e+003,2.436366e-004
1.035603e+003,5.311983e-004
1.037532e+003,7.893734e-004
1.039460e+003,1.155030e-003
1.041389e+003,1.321140e-003
1.043317e+003,1.245304e-003
1.045246e+003,1.159947e-003
1.047174e+003,1.246833e-003
1.049103e+003,1.382330e-003
1.051031e+003,1.385122e-003
1.052960e+003,1.426109e-003
1.054888e+003,1.452937e-003
1.056817e+003,1.370696e-003
1.058745e+003,1.313330e-003
1.060674e+003,1.249624e-003
1.062602e+003,1.177788e-003
1.064531e+003,1.321838e-003
1.066459e+003,1.455895e-003
1.068388e+003,1.255539e-003
1.070316e+003,1.274946e-003
1.072245e+003,1.558037e-003
1.074173e+003,1.640313e-003
1.076102e+003,1.534395e-003
1.078030e+003,1.309275e-003
1.079959e+003,1.277671e-003
1.081887e+003,1.378308e-003
1.083816e+003,1.522491e-003
1.085744e+003,1.839716e-003
1.087673e+003,1.945309e-003
1.089601e+003,1.761893e-003
1.091530e+003,1.996934e-003
1.093458e+003,2.361977e-003
1.095387e+003,2.323766e-003
1.097315e+003,2.245124e-003
1.099244e+003,2.199931e-003
1.101172e+003,2.407987e-003
1.103101e+003,2.399224e-003
1.105029e+003,2.095207e-003
1.106958e+003,2.101433e-003
1.108886e+003,2.261977e-003
1.110815e+003,2.432210e-003
1.112743e+003,2.571177e-003
1.114672e+003,2.417349e-003
1.116600e+003,2.487924e-003
1.118529e+003,2.571610e-003
1.120457e+003,2.558878e-003
1.122386e+003,2.595076e-003
1.124314e+003,2.568077e-003
1.126243e+003,2.377635e-003
1.128171e+003,2.311241e-003
1.130100e+003,2.288057e-003
1.132028e+003,2.099902e-003
1.133957e+003,1.940716e-003
1.135885e+003,1.693531e-003
1.137814e+003,1.358032e-003
1.139742e+003,9.661026e-004
1.141671e+003,6.631205e-004
1.143599e+003,5.020720e-004
1.145528e+003,3.618419e-004
1.147456e+003,6.474874e-005
1.149385e+003,-2.736341e-004
1.151313e+003,-5.993124e-004
1.153242e+003,-9.152574e-004
1.155170e+003,-1.082663e-003
1.157099e+003,-1.022703e-003
1.159027e+003,-1.140631e-003
1.160956e+003,-1.234607e-003
1.162884e+003,-1.353799e-003
1.164813e+003,-1.496799e-003
1.166741e+003,-1.508851e-003
1.168670e+003,-1.376590e-003
1.170598e+003,-1.250301e-003
1.172526e+003,-1.220003e-003
1.174455e+003,-1.178535e-003
1.176384e+003,-1.199748e-003
1.178312e+003,-1.203846e-003
1.180240e+003,-1.100940e-003
1.182169e+003,-1.087488e-003
1.184098e+003,-1.056782e-003
1.186026e+003,-9.579743e-004
1.187954e+003,-1.017381e-003
1.189883e+003,-1.231204e-003
1.191812e+003,-1.337184e-003
1.193740e+003,-1.129593e-003
1.195668e+003,-1.081572e-003
1.197597e+003,-1.216534e-003
1.199526e+003,-1.123810e-003
1.201454e+003,-1.044321e-003
1.203382e+003,-9.850174e-004
1.205311e+003,-8.950546e-004
1.207240e+003,-8.567958e-004
1.209168e+003,-5.798229e-004
1.211096e+003,-3.967645e-004
1.213025e+003,-3.594549e-004
1.214953e+003,-2.200868e-004
1.216882e+003,-1.298660e-004
1.218810e+003,-8.454984e-005
1.220739e+003,-6.026664e-005
1.222667e+003,4.006090e-005
1.224596e+003,1.662321e-004
1.226524e+003,4.156003e-004
1.228453e+003,6.007710e-004
1.230381e+003,8.051741e-004
1.232310e+003,1.042288e-003
1.234238e+003,1.227460e-003
1.236167e+003,1.326657e-003
1.238095e+003,1.312997e-003
1.240024e+003,1.333038e-003
1.241952e+003,1.286112e-003
1.243881e+003,1.164166e-003
1.245809e+003,1.257998e-003
1.247738e+003,1.137655e-003
1.249666e+003,8.498908e-004
1.251595e+003,7.440323e-004
1.253523e+003,8.502892e-004
1.255452e+003,8.066680e-004
1.257380e+003,6.923572e-004
1.259309e+003,6.339853e-004
1.261237e+003,6.818039e-004
1.263166e+003,8.184857e-004
1.265094e+003,9.971199e-004
1.267023e+003,1.259194e-003
1.268951e+003,1.571671e-003
1.270880e+003,1.809304e-003
1.272808e+003,2.077795e-003
1.274737e+003,2.400590e-003
1.276665e+003,2.728860e-003
1.278594e+003,3.047568e-003
1.280522e+003,3.250489e-003
1.282451e+003,3.396731e-003
1.284379e+003,3.618559e-003
1.286308e+003,4.140757e-003
1.288236e+003,4.505330e-003
1.290165e+003,4.695133e-003
1.292093e+003,4.979190e-003
1.294022e+003,5.095674e-003
1.295950e+003,5.354699e-003
1.297879e+003,5.418507e-003
1.299807e+003,5.417265e-003
1.301736e+003,5.361744e-003
1.303664e+003,5.338799e-003
1.305593e+003,5.307739e-003
1.307521e+003,5.210278e-003
1.309450e+003,4.997222e-003
1.311378e+003,4.705885e-003
1.313307e+003,4.562717e-003
1.315235e+003,4.499002e-003
1.317164e+003,4.246643e-003
1.319092e+003,3.820343e-003
1.321021e+003,3.403844e-003
1.322949e+003,3.135166e-003
1.324878e+003,3.064286e-003
1.326806e+003,2.914353e-003
1.328735e+003,2.768540e-003
1.330663e+003,2.677048e-003
1.332592e+003,2.633676e-003
1.334520e+003,2.551512e-003
1.336449e+003,2.352415e-003
1.338377e+003,2.248355e-003
1.340306e+003,2.160203e-003
1.342234e+003,2.313373e-003
1.344163e+003,2.270804e-003
1.346091e+003,2.096106e-003
1.348020e+003,2.076230e-003
1.349948e+003,1.967676e-003
1.351877e+003,1.768414e-003
1.353805e+003,1.712658e-003
1.355734e+003,1.516406e-003
1.357662e+003,1.319146e-003
1.359591e+003,1.167721e-003
1.361519e+003,8.750896e-004
1.363448e+003,6.726446e-004
1.365376e+003,6.992933e-004
1.367305e+003,5.529282e-004
1.369233e+003,4.645225e-004
1.371162e+003,4.237591e-004
1.373090e+003,2.912796e-004
1.375019e+003,2.675404e-004
1.376947e+003,4.230294e-004
1.378876e+003,5.065503e-004
1.380804e+003,6.772242e-004
1.382733e+003,5.904522e-004
1.384661e+003,3.022876e-004
1.386590e+003,-2.004563e-005
1.388518e+003,-8.319160e-005
1.390447e+003,-1.014446e-004
1.392375e+003,-3.696848e-004
1.394304e+003,-6.766661e-004
1.396232e+003,-6.568162e-004
1.398161e+003,-7.334980e-004
1.400089e+003,-7.114343e-004
1.402018e+003,-5.833966e-004
1.403946e+003,-5.841246e-004
1.405875e+003,-4.107672e-004
1.407803e+003,-2.244251e-004
1.409732e+003,-2.842964e-004
1.411660e+003,-3.440601e-004
1.413589e+003,-2.479044e-004
1.415517e+003,-7.494273e-005
1.417446e+003,-8.474860e-005
1.419374e+003,1.195309e-004
1.421303e+003,1.180512e-003
1.423231e+003,1.940949e-003
1.425160e+003,2.552778e-003
1.427088e+003,3.109536e-003
1.429017e+003,3.257199e-003
1.430945e+003,3.492216e-003
1.432874e+003,3.845079e-003
1.434802e+003,3.889007e-003
1.436731e+003,3.783943e-003
1.438659e+003,4.503455e-003
1.440588e+003,5.067547e-003
1.442516e+003,5.425619e-003
1.444445e+003,5.743594e-003
1.446373e+003,5.991416e-003
1.448302e+003,6.257430e-003
1.450230e+003,6.704065e-003
1.452159e+003,7.180433e-003
1.454087e+003,7.372252e-003
1.456016e+003,6.627654e-003
1.457944e+003,6.788466e-003
1.459873e+003,7.727474e-003
1.461801e+003,8.065366e-003
1.463730e+003,7.776249e-003
1.465658e+003,7.672230e-003
1.467587e+003,7.861837e-003
1.469515e+003,7.735029e-003
1.471444e+003,7.169081e-003
1.473372e+003,6.849523e-003
1.475301e+003,6.946241e-003
1.477229e+003,6.823268e-003
1.479158e+003,6.591489e-003
1.481086e+003,6.082566e-003
1.483015e+003,5.692093e-003
1.484943e+003,5.176008e-003
1.486872e+003,4.582842e-003
1.488800e+003,4.009981e-003
1.490729e+003,3.623537e-003
1.492657e+003,3.590628e-003
1.494586e+003,3.266480e-003
1.496514e+003,2.603009e-003
1.498443e+003,2.348251e-003
1.500371e+003,2.306778e-003
1.502300e+003,2.153310e-003
1.504228e+003,1.309774e-003
1.506157e+003,1.106155e-004
1.508085e+003,4.643566e-004
1.510014e+003,1.011068e-003
1.511942e+003,9.956919e-004
1.513871e+003,1.007349e-003
1.515799e+003,6.786180e-004
1.517728e+003,5.559141e-004
1.519656e+003,3.519267e-004
1.521585e+003,1.090910e-004
1.523513e+003,7.775231e-004
1.525442e+003,1.148917e-003
1.527370e+003,1.534262e-003
1.529299e+003,1.967143e-003
1.531227e+003,2.109790e-003
1.533156e+003,2.011281e-003
1.535084e+003,2.527316e-003
1.537013e+003,2.672714e-003
1.538941e+003,1.955461e-003
1.540870e+003,1.984718e-003
1.542798e+003,2.893438e-003
1.544727e+003,3.615084e-003
1.546655e+003,4.281342e-003
1.548584e+003,4.507339e-003
1.550512e+003,4.611004e-003
1.552441e+003,4.726954e-003
1.554369e+003,4.626476e-003
1.556298e+003,4.378327e-003
1.558226e+003,3.475449e-003
1.560155e+003,4.143801e-003
1.562083e+003,5.716097e-003
1.564012e+003,6.371332e-003
1.565940e+003,6.784596e-003
1.567869e+003,6.734317e-003
1.569797e+003,6.606459e-003
1.571726e+003,7.167228e-003
1.573654e+003,7.277797e-003
1.575583e+003,6.715944e-003
1.577511e+003,6.897492e-003
1.579440e+003,7.261558e-003
1.581368e+003,7.195828e-003
1.583297e+003,6.985534e-003
1.585225e+003,6.747778e-003
1.587154e+003,6.610765e-003
1.589082e+003,6.320462e-003
1.591010e+003,5.895985e-003
1.592939e+003,5.394922e-003
1.594868e+003,4.873895e-003
1.596796e+003,4.413840e-003
1.598724e+003,3.989816e-003
1.600653e+003,3.434602e-003
1.602582e+003,2.943508e-003
1.604510e+003,2.516418e-003
1.606438e+003,2.177952e-003
1.608367e+003,1.701248e-003
1.610296e+003,1.390407e-003
1.612224e+003,1.096164e-003
1.614152e+003,5.448333e-004
1.616081e+003,-3.945134e-004
1.618010e+003,-3.470398e-004
1.619938e+003,-1.051878e-004
1.621866e+003,-5.260487e-004
1.623795e+003,-8.549439e-004
1.625724e+003,-7.481845e-004
1.627652e+003,-8.716764e-004
1.629580e+003,-9.146291e-004
1.631509e+003,-1.014902e-003
1.633438e+003,-1.606412e-003
1.635366e+003,-2.445320e-003
1.637294e+003,-2.315321e-003
1.639223e+003,-2.102624e-003
1.641151e+003,-2.271386e-003
1.643080e+003,-2.701185e-003
1.645008e+003,-3.681448e-003
1.646937e+003,-4.392983e-003
1.648865e+003,-4.194987e-003
1.650794e+003,-4.736532e-003
1.652722e+003,-6.236132e-003
1.654651e+003,-5.834306e-003
1.656579e+003,-5.149754e-003
1.658508e+003,-5.406616e-003
1.660436e+003,-5.822962e-003
1.662365e+003,-6.210884e-003
1.664293e+003,-6.178677e-003
1.666222e+003,-6.161429e-003
1.668150e+003,-6.769366e-003
1.670079e+003,-7.168438e-003
1.672007e+003,-6.935508e-003
1.673936e+003,-7.133955e-003
1.675864e+003,-7.188807e-003
1.677793e+003,-6.715635e-003
1.679721e+003,-6.605215e-003
1.681650e+003,-6.871916e-003
1.683578e+003,-7.603839e-003
1.685507e+003,-7.099241e-003
1.687435e+003,-6.280060e-003
1.689364e+003,-5.982375e-003
1.691292e+003,-5.762901e-003
1.693221e+003,-5.890859e-003
1.695149e+003,-6.514810e-003
1.697078e+003,-6.265265e-003
1.699006e+003,-6.609947e-003
1.700935e+003,-6.714101e-003
1.702863e+003,-5.718136e-003
1.704792e+003,-5.682851e-003
1.706720e+003,-5.552051e-003
1.708649e+003,-5.265978e-003
1.710577e+003,-5.159152e-003
1.712506e+003,-5.327548e-003
1.714434e+003,-5.753255e-003
1.716363e+003,-6.356507e-003
1.718291e+003,-6.343739e-003
1.720220e+003,-5.577304e-003
1.722148e+003,-5.326893e-003
1.724077e+003,-5.438619e-003
1.726005e+003,-5.434235e-003
1.727934e+003,-5.486357e-003
1.729862e+003,-5.600758e-003
1.731791e+003,-5.997539e-003
1.733719e+003,-6.725031e-003
1.735648e+003,-6.329535e-003
1.737576e+003,-5.879713e-003
1.739505e+003,-5.941457e-003
1.741433e+003,-5.645894e-003
1.743362e+003,-5.533339e-003
1.745290e+003,-5.411329e-003
1.747219e+003,-5.425923e-003
1.749147e+003,-5.573314e-003
1.751076e+003,-5.568113e-003
1.753004e+003,-5.138556e-003
1.754933e+003,-4.967106e-003
1.756861e+003,-4.993048e-003
1.758790e+003,-4.866464e-003
1.760718e+003,-4.983091e-003
1.762647e+003,-4.904404e-003
1.764575e+003,-4.602430e-003
1.766504e+003,-4.650162e-003
1.768432e+003,-4.739187e-003
1.770361e+003,-4.925404e-003
1.772289e+003,-5.120546e-003
1.774218e+003,-4.855979e-003
1.776146e+003,-4.544496e-003
1.778075e+003,-4.469992e-003
1.780003e+003,-4.564070e-003
1.781932e+003,-4.516820e-003
1.783860e+003,-4.475994e-003
1.785789e+003,-4.297392e-003
1.787717e+003,-4.141527e-003
1.789646e+003,-4.328952e-003
1.791574e+003,-4.729977e-003
1.793503e+003,-4.742104e-003
1.795431e+003,-4.405316e-003
1.797360e+003,-4.366775e-003
1.799288e+003,-4.463892e-003
1.801217e+003,-4.497768e-003
1.803145e+003,-4.279905e-003
1.805074e+003,-4.147303e-003
1.807002e+003,-4.169554e-003
1.808931e+003,-4.297031e-003
1.810859e+003,-4.294210e-003
1.812788e+003,-4.193051e-003
1.814716e+003,-4.144448e-003
1.816645e+003,-4.125150e-003
1.818573e+003,-4.213626e-003
1.820502e+003,-4.328755e-003
1.822430e+003,-4.327476e-003
1.824359e+003,-4.477798e-003
1.826287e+003,-4.520985e-003
1.828216e+003,-4.685466e-003
1.830144e+003,-4.808466e-003
1.832073e+003,-4.453693e-003
1.834001e+003,-4.302904e-003
1.835930e+003,-4.446117e-003
1.837858e+003,-4.512525e-003
1.839787e+003,-4.535085e-003
1.841715e+003,-4.595578e-003
1.843644e+003,-4.933233e-003
1.845572e+003,-4.830487e-003
1.847501e+003,-4.541413e-003
1.849429e+003,-4.456776e-003
1.851358e+003,-4.401315e-003
1.853286e+003,-4.370252e-003
1.855215e+003,-4.346010e-003
1.857143e+003,-4.361264e-003
1.859072e+003,-4.372253e-003
1.861000e+003,-4.336136e-003
1.862929e+003,-4.220943e-003
1.864857e+003,-4.148944e-003
1.866786e+003,-4.376583e-003
1.868714e+003,-4.596594e-003
1.870643e+003,-4.392918e-003
1.872571e+003,-4.150224e-003
1.874500e+003,-4.042729e-003
1.876428e+003,-4.030779e-003
1.878357e+003,-4.002153e-003
1.880285e+003,-4.003761e-003
1.882214e+003,-4.028022e-003
1.884142e+003,-3.993124e-003
1.886071e+003,-3.977332e-003
1.887999e+003,-4.055958e-003
1.889928e+003,-4.075456e-003
1.891856e+003,-3.962098e-003
1.893785e+003,-3.937735e-003
1.895713e+003,-3.851568e-003
1.897642e+003,-3.787851e-003
1.899570e+003,-3.790150e-003
1.901499e+003,-3.737757e-003
1.903427e+003,-3.671263e-003
1.905356e+003,-3.714236e-003
1.907284e+003,-3.711049e-003
1.909213e+003,-3.622701e-003
1.911141e+003,-3.558523e-003
1.913070e+003,-3.586522e-003
1.914998e+003,-3.708552e-003
1.916927e+003,-3.908643e-003
1.918855e+003,-3.929724e-003
1.920784e+003,-3.855377e-003
1.922712e+003,-3.961540e-003
1.924641e+003,-3.831008e-003
1.926569e+003,-3.694491e-003
1.928498e+003,-3.739400e-003
1.930426e+003,-3.784927e-003
1.932355e+003,-3.759700e-003
1.934283e+003,-3.695050e-003
1.936212e+003,-3.680726e-003
1.938140e+003,-3.714236e-003
1.940069e+003,-3.813667e-003
1.941997e+003,-3.950902e-003
1.943926e+003,-3.877840e-003
1.945854e+003,-3.859877e-003
1.947783e+003,-3.960818e-003
1.949711e+003,-3.927819e-003
1.951640e+003,-3.875279e-003
1.953568e+003,-3.932383e-003
1.955497e+003,-4.000051e-003
1.957425e+003,-3.973064e-003
1.959354e+003,-4.014267e-003
1.961282e+003,-4.043156e-003
1.963211e+003,-4.047193e-003
1.965139e+003,-4.033439e-003
1.967068e+003,-3.994634e-003
1.968996e+003,-3.966366e-003
1.970925e+003,-3.937768e-003
1.972853e+003,-3.855936e-003
1.974782e+003,-3.810612e-003
1.976710e+003,-3.908084e-003
1.978639e+003,-3.913929e-003
1.980567e+003,-3.827626e-003
1.982496e+003,-3.865230e-003
1.984424e+003,-3.934945e-003
1.986353e+003,-3.889104e-003
1.988281e+003,-3.787522e-003
1.990210e+003,-3.724288e-003
1.992138e+003,-3.671789e-003
1.994067e+003,-3.602788e-003
1.995995e+003,-3.630192e-003
1.997924e+003,-3.563649e-003
1.999852e+003,-3.475008e-003
2.001781e+003,-3.482831e-003
2.003709e+003,-3.510046e-003
2.005638e+003,-3.463504e-003
2.007566e+003,-3.425931e-003
2.009495e+003,-3.476422e-003
2.011423e+003,-3.521353e-003
2.013352e+003,-3.382108e-003
2.015280e+003,-3.318256e-003
2.017208e+003,-3.414162e-003
2.019137e+003,-3.452525e-003
2.021066e+003,-3.384475e-003
2.022994e+003,-3.281723e-003
2.024922e+003,-3.290338e-003
2.026851e+003,-3.311088e-003
2.028780e+003,-3.329140e-003
2.030708e+003,-3.320295e-003
2.032636e+003,-3.296093e-003
2.034565e+003,-3.314639e-003
2.036494e+003,-3.383916e-003
2.038422e+003,-3.317335e-003
2.040350e+003,-3.195392e-003
2.042279e+003,-3.141579e-003
2.044208e+003,-3.188024e-003
2.046136e+003,-3.267582e-003
2.048064e+003,-3.253869e-003
2.049993e+003,-3.204536e-003
2.051921e+003,-3.168453e-003
2.053850e+003,-3.170986e-003
2.055778e+003,-3.159506e-003
2.057707e+003,-3.112005e-003
2.059635e+003,-3.046666e-003
2.061564e+003,-3.069006e-003
2.063492e+003,-3.124341e-003
2.065421e+003,-3.125065e-003
2.067349e+003,-3.092036e-003
2.069278e+003,-3.120920e-003
2.071206e+003,-3.096444e-003
2.073135e+003,-3.002146e-003
2.075063e+003,-2.946433e-003
2.076992e+003,-2.979112e-003
2.078920e+003,-2.982402e-003
2.080849e+003,-2.911284e-003
2.082777e+003,-2.851840e-003
2.084706e+003,-2.844532e-003
2.086634e+003,-2.852860e-003
2.088563e+003,-2.796667e-003
2.090491e+003,-2.719690e-003
2.092420e+003,-2.627912e-003
2.094348e+003,-2.574786e-003
2.096277e+003,-2.550741e-003
2.098205e+003,-2.498297e-003
2.100134e+003,-2.457544e-003
2.102062e+003,-2.433557e-003
2.103991e+003,-2.351869e-003
2.105919e+003,-2.266079e-003
2.107848e+003,-2.258926e-003
2.109776e+003,-2.276494e-003
2.111705e+003,-2.203348e-003
2.113633e+003,-2.107439e-003
2.115562e+003,-2.066055e-003
2.117490e+003,-2.057316e-003
2.119419e+003,-2.013091e-003
2.121347e+003,-1.939900e-003
2.123276e+003,-1.866103e-003
2.125204e+003,-1.922021e-003
2.127133e+003,-2.014179e-003
2.129061e+003,-1.899556e-003
2.130990e+003,-1.774937e-003
2.132918e+003,-1.767776e-003
2.134847e+003,-1.695072e-003
2.136775e+003,-1.623941e-003
2.138704e+003,-1.617042e-003
2.140632e+003,-1.610472e-003
2.142561e+003,-1.692861e-003
2.144489e+003,-1.819384e-003
2.146418e+003,-1.746623e-003
2.148346e+003,-1.602583e-003
2.150275e+003,-1.540119e-003
2.152203e+003,-1.547350e-003
2.154132e+003,-1.573432e-003
2.156060e+003,-1.652560e-003
2.157989e+003,-1.767149e-003
2.159917e+003,-1.793515e-003
2.161846e+003,-1.655762e-003
2.163774e+003,-1.566730e-003
2.165703e+003,-1.590929e-003
2.167631e+003,-1.562042e-003
2.169560e+003,-1.489238e-003
2.171488e+003,-1.438680e-003
2.173417e+003,-1.536620e-003
2.175345e+003,-1.621201e-003
2.177274e+003,-1.626582e-003
2.179202e+003,-1.548539e-003
2.181131e+003,-1.516281e-003
2.183059e+003,-1.564716e-003
2.184988e+003,-1.614302e-003
2.186916e+003,-1.592283e-003
2.188845e+003,-1.565872e-003
2.190773e+003,-1.535332e-003
2.192702e+003,-1.488577e-003
2.194630e+003,-1.480949e-003
2.196559e+003,-1.514960e-003
2.198487e+003,-1.564056e-003
2.200416e+003,-1.567654e-003
2.202344e+003,-1.513309e-003
2.204273e+003,-1.457636e-003
2.206201e+003,-1.384814e-003
2.208130e+003,-1.404201e-003
2.210058e+003,-1.504064e-003
2.211987e+003,-1.491318e-003
2.213915e+003,-1.452517e-003
2.215844e+003,-1.464273e-003
2.217772e+003,-1.453739e-003
2.219701e+003,-1.428112e-003
2.221629e+003,-1.515983e-003
2.223558e+003,-1.541044e-003
2.225486e+003,-1.498120e-003
2.227415e+003,-1.482765e-003
2.229343e+003,-1.403805e-003
2.231272e+003,-1.408297e-003
2.233200e+003,-1.484450e-003
2.235129e+003,-1.466354e-003
2.237057e+003,-1.463547e-003
2.238986e+003,-1.451791e-003
2.240914e+003,-1.491054e-003
2.242843e+003,-1.511493e-003
2.244771e+003,-1.469392e-003
2.246700e+003,-1.494422e-003
2.248628e+003,-1.538766e-003
2.250557e+003,-1.589180e-003
2.252485e+003,-1.643945e-003
2.254414e+003,-1.577823e-003
2.256342e+003,-1.538733e-003
2.258271e+003,-1.575512e-003
2.260199e+003,-1.668106e-003
2.262128e+003,-1.762991e-003
2.264056e+003,-1.742729e-003
2.265985e+003,-1.640446e-003
2.267913e+003,-1.713522e-003
2.269842e+003,-1.805823e-003
2.271770e+003,-1.842414e-003
2.273699e+003,-1.908661e-003
2.275627e+003,-1.881246e-003
2.277556e+003,-1.900645e-003
2.279484e+003,-2.018434e-003
2.281413e+003,-2.038386e-003
2.283341e+003,-2.059822e-003
2.285270e+003,-2.092699e-003
2.287198e+003,-2.092139e-003
2.289127e+003,-2.102394e-003
2.291055e+003,-2.065659e-003
2.292984e+003,-2.039738e-003
2.294912e+003,-2.056887e-003
2.296841e+003,-2.084851e-003
2.298769e+003,-2.178161e-003
2.300698e+003,-2.169721e-003
2.302626e+003,-2.185019e-003
2.304555e+003,-2.220293e-003
2.306483e+003,-2.262321e-003
2.308412e+003,-2.149676e-003
2.310340e+003,-2.055898e-003
2.312269e+003,-2.203348e-003
2.314197e+003,-2.329987e-003
2.316125e+003,-2.313376e-003
2.318054e+003,-2.347651e-003
2.319983e+003,-2.438170e-003
2.321911e+003,-2.516976e-003
2.323840e+003,-2.531602e-003
2.325768e+003,-2.563521e-003
2.327697e+003,-2.577257e-003
2.329625e+003,-2.574523e-003
2.331553e+003,-2.658507e-003
2.333482e+003,-2.612038e-003
2.335411e+003,-2.596821e-003
2.337339e+003,-2.700592e-003
2.339268e+003,-2.690153e-003
2.341196e+003,-2.659660e-003
2.343125e+003,-2.618493e-003
2.345053e+003,-2.369797e-003
2.346981e+003,-1.991851e-003
2.348910e+003,-1.855480e-003
2.350839e+003,-1.991554e-003
2.352767e+003,-2.239214e-003
2.354696e+003,-2.447066e-003
2.356624e+003,-2.569187e-003
2.358552e+003,-2.641316e-003
2.360481e+003,-2.762098e-003
2.362409e+003,-2.835118e-003
2.364338e+003,-2.816057e-003
2.366267e+003,-2.681723e-003
2.368195e+003,-2.522247e-003
2.370124e+003,-2.349002e-003
2.372052e+003,-2.172919e-003
2.373980e+003,-1.969554e-003
2.375909e+003,-1.745138e-003
2.377838e+003,-1.443832e-003
2.379766e+003,-1.173644e-003
2.381695e+003,-1.023364e-003
2.383623e+003,-9.512960e-004
2.385552e+003,-8.328864e-004
2.387480e+003,-7.717346e-004
2.389408e+003,-6.849697e-004
2.391337e+003,-6.397445e-004
2.393266e+003,-6.771293e-004
2.395194e+003,-6.585034e-004
2.397123e+003,-6.446080e-004
2.399051e+003,-6.547980e-004
2.400979e+003,-6.896673e-004
2.402908e+003,-6.796104e-004
2.404836e+003,-6.238632e-004
2.406765e+003,-5.906431e-004
2.408694e+003,-5.291594e-004
2.410622e+003,-4.590614e-004
2.412551e+003,-4.815350e-004
2.414479e+003,-5.456398e-004
2.416407e+003,-5.217464e-004
2.418336e+003,-5.037097e-004
2.420264e+003,-5.207867e-004
2.422193e+003,-4.513823e-004
2.424122e+003,-3.542903e-004
2.426050e+003,-2.403210e-004
2.427979e+003,-1.714348e-004
2.429907e+003,-1.429830e-004
2.431835e+003,-7.517463e-005
2.433764e+003,-3.873196e-005
2.435692e+003,-1.451247e-005
2.437621e+003,7.757371e-005
2.439550e+003,1.798557e-004
2.441478e+003,1.511838e-004
2.443406e+003,9.155900e-005
2.445335e+003,1.751156e-004
2.447263e+003,2.353817e-004
2.449192e+003,1.824412e-004
2.451121e+003,2.750333e-004
2.453049e+003,3.107759e-004
2.454978e+003,3.261282e-004
2.456906e+003,3.534189e-004
2.458834e+003,3.954691e-004
2.460763e+003,4.368268e-004
2.462691e+003,5.041619e-004
2.464620e+003,5.807640e-004
2.466549e+003,6.775229e-004
2.468477e+003,6.812065e-004
2.470406e+003,6.877111e-004
2.472334e+003,6.268512e-004
2.474262e+003,6.621582e-004
2.476191e+003,7.377925e-004
2.478119e+003,7.033090e-004
2.480048e+003,6.658085e-004
2.481977e+003,6.540612e-004
2.483905e+003,6.908638e-004
2.485833e+003,7.323161e-004
2.487762e+003,7.771248e-004
2.489690e+003,8.272829e-004
2.491619e+003,8.373750e-004
2.493547e+003,9.744711e-004
2.495476e+003,1.047237e-003
2.497405e+003,9.964888e-004
2.499333e+003,1.053083e-003
2.501261e+003,1.197091e-003
2.503190e+003,1.107757e-003
2.505118e+003,8.916239e-004
2.507047e+003,8.655610e-004
2.508975e+003,1.020966e-003
2.510904e+003,1.103273e-003
2.512833e+003,1.171010e-003
2.514761e+003,1.218855e-003
2.516689e+003,1.217060e-003
2.518618e+003,1.179582e-003
2.520546e+003,1.191177e-003
2.522475e+003,1.182904e-003
2.524403e+003,1.108056e-003
2.526332e+003,1.149582e-003
2.528260e+003,1.283220e-003
2.530189e+003,1.425610e-003
2.532117e+003,1.456826e-003
2.534046e+003,1.431926e-003
2.535974e+003,1.409421e-003
2.537903e+003,1.408291e-003
2.539831e+003,1.419128e-003
2.541760e+003,1.423615e-003
2.543688e+003,1.375217e-003
2.545617e+003,1.394529e-003
2.547545e+003,1.541810e-003
2.549474e+003,1.594151e-003
2.551402e+003,1.570374e-003
2.553331e+003,1.559101e-003
2.555259e+003,1.579386e-003
2.557188e+003,1.606489e-003
2.559116e+003,1.517769e-003
2.561045e+003,1.570374e-003
2.562973e+003,1.685781e-003
2.564902e+003,1.625945e-003
2.566830e+003,1.618761e-003
2.568759e+003,1.706604e-003
2.570687e+003,1.747355e-003
2.572616e+003,1.723004e-003
2.574544e+003,1.776465e-003
2.576473e+003,1.762359e-003
2.578401e+003,1.726696e-003
2.580330e+003,1.764588e-003
2.582258e+003,1.852959e-003
2.584187e+003,1.882675e-003
2.586115e+003,1.872027e-003
2.588044e+003,1.911096e-003
2.589972e+003,1.903375e-003
2.591901e+003,1.899814e-003
2.593829e+003,1.913991e-003
2.595758e+003,1.886935e-003
2.597686e+003,1.921612e-003
2.599615e+003,2.013578e-003
2.601543e+003,2.000229e-003
2.603472e+003,1.840048e-003
2.605400e+003,1.856553e-003
2.607329e+003,1.967110e-003
2.609257e+003,2.034450e-003
2.611186e+003,2.025828e-003
2.613114e+003,2.020635e-003
2.615043e+003,1.986549e-003
2.616971e+003,1.968175e-003
2.618900e+003,1.975365e-003
2.620828e+003,1.980624e-003
2.622757e+003,2.137193e-003
2.624685e+003,2.266773e-003
2.626614e+003,2.146783e-003
2.628542e+003,2.027259e-003
2.630471e+003,2.045935e-003
2.632399e+003,2.104397e-003
2.634328e+003,2.019070e-003
2.636256e+003,2.035382e-003
2.638185e+003,2.128536e-003
2.640113e+003,2.176020e-003
2.642042e+003,2.225707e-003
2.643970e+003,2.265341e-003
2.645899e+003,2.302047e-003
2.647827e+003,2.316538e-003
2.649756e+003,2.368839e-003
2.651684e+003,2.437741e-003
2.653613e+003,2.548212e-003
2.655541e+003,2.636377e-003
2.657470e+003,2.696152e-003
2.659398e+003,2.674081e-003
2.661327e+003,2.702253e-003
2.663255e+003,2.733695e-003
2.665184e+003,2.731027e-003
2.667112e+003,2.756302e-003
2.669041e+003,2.811992e-003
2.670969e+003,2.769740e-003
2.672898e+003,2.809791e-003
2.674826e+003,2.850012e-003
2.676755e+003,2.863886e-003
2.678683e+003,2.932366e-003
2.680612e+003,2.978970e-003
2.682540e+003,3.053942e-003
2.684469e+003,3.108034e-003
2.686397e+003,3.121784e-003
2.688326e+003,3.094185e-003
2.690254e+003,3.128425e-003
2.692183e+003,3.162534e-003
2.694111e+003,3.152421e-003
2.696040e+003,3.214804e-003
2.697968e+003,3.264277e-003
2.699897e+003,3.274859e-003
2.701825e+003,3.338329e-003
2.703754e+003,3.421711e-003
2.705682e+003,3.461855e-003
2.707611e+003,3.542522e-003
2.709539e+003,3.574625e-003
2.711468e+003,3.489410e-003
2.713396e+003,3.485001e-003
2.715325e+003,3.576195e-003
2.717253e+003,3.639776e-003
2.719182e+003,3.654110e-003
2.721110e+003,3.653475e-003
2.723039e+003,3.625208e-003
2.724967e+003,3.665304e-003
2.726896e+003,3.804833e-003
2.728824e+003,3.839096e-003
2.730753e+003,3.883658e-003
2.732681e+003,4.032922e-003
2.734610e+003,4.030983e-003
2.736538e+003,4.009379e-003
2.738467e+003,4.099346e-003
2.740395e+003,4.298107e-003
2.742324e+003,4.322871e-003
2.744252e+003,4.234431e-003
2.746181e+003,4.212416e-003
2.748109e+003,4.358815e-003
2.750038e+003,4.517751e-003
2.751966e+003,4.641479e-003
2.753895e+003,4.705517e-003
2.755823e+003,4.699287e-003
2.757752e+003,4.756801e-003
2.759680e+003,4.824809e-003
2.761609e+003,4.963974e-003
2.763537e+003,5.210144e-003
2.765466e+003,5.380999e-003
2.767394e+003,5.590552e-003
2.769323e+003,5.887991e-003
2.771251e+003,6.058543e-003
2.773180e+003,6.317066e-003
2.775108e+003,6.608444e-003
2.777037e+003,6.893553e-003
2.778965e+003,7.191482e-003
2.780894e+003,7.621545e-003
2.782822e+003,8.000933e-003
2.784750e+003,8.279325e-003
2.786679e+003,8.742516e-003
2.788608e+003,9.194863e-003
2.790536e+003,9.478391e-003
2.792465e+003,9.859507e-003
2.794393e+003,1.033287e-002
2.796322e+003,1.056964e-002
2.798250e+003,1.076157e-002
2.800178e+003,1.120301e-002
2.802107e+003,1.163107e-002
2.804036e+003,1.185772e-002
2.805964e+003,1.205697e-002
2.807893e+003,1.211591e-002
2.809821e+003,1.200127e-002
2.811750e+003,1.201010e-002
2.813678e+003,1.197992e-002
2.815606e+003,1.181949e-002
2.817535e+003,1.171524e-002
2.819464e+003,1.160755e-002
2.821392e+003,1.143219e-002
2.823321e+003,1.118828e-002
2.825249e+003,1.077489e-002
2.827177e+003,1.053515e-002
2.829106e+003,1.038292e-002
2.831034e+003,1.002322e-002
2.832963e+003,9.698333e-003
2.834892e+003,9.431964e-003
2.836820e+003,8.955760e-003
2.838749e+003,8.636440e-003
2.840677e+003,8.284020e-003
2.842605e+003,7.787178e-003
2.844534e+003,7.228405e-003
2.846462e+003,6.709113e-003
2.848391e+003,6.332229e-003
2.850320e+003,6.074570e-003
2.852248e+003,5.901191e-003
2.854177e+003,5.785531e-003
2.856105e+003,5.622472e-003
2.858033e+003,5.551285e-003
2.859962e+003,5.544942e-003
2.861890e+003,5.546955e-003
2.863819e+003,5.621498e-003
2.865748e+003,5.655904e-003
2.867676e+003,5.700620e-003
2.869604e+003,5.763706e-003
2.871533e+003,5.811085e-003
2.873461e+003,5.955471e-003
2.875390e+003,6.135391e-003
2.877319e+003,6.161571e-003
2.879247e+003,6.226841e-003
2.881176e+003,6.274675e-003
2.883104e+003,6.231043e-003
2.885032e+003,6.158647e-003
2.886961e+003,6.145237e-003
2.888889e+003,6.112372e-003
2.890818e+003,5.965011e-003
2.892747e+003,5.814544e-003
2.894675e+003,5.778413e-003
2.896604e+003,5.785296e-003
2.898532e+003,5.706495e-003
2.900460e+003,5.548700e-003
2.902389e+003,5.457863e-003
2.904317e+003,5.396666e-003
2.906246e+003,5.280571e-003
2.908175e+003,5.212525e-003
2.910103e+003,5.064564e-003
2.912031e+003,4.805544e-003
2.913960e+003,4.582608e-003
2.915888e+003,4.348105e-003
2.917817e+003,4.285626e-003
2.919745e+003,4.326853e-003
2.921674e+003,4.449824e-003
2.923603e+003,4.526925e-003
2.925531e+003,4.579694e-003
2.927459e+003,4.717240e-003
2.929388e+003,4.763467e-003
2.931316e+003,4.873761e-003
2.933245e+003,5.087662e-003
2.935173e+003,5.304150e-003
2.937102e+003,5.380698e-003
2.939031e+003,5.314950e-003
2.940959e+003,5.319411e-003
2.942887e+003,5.268933e-003
2.944816e+003,5.136041e-003
2.946744e+003,4.952981e-003
2.948673e+003,4.784706e-003
2.950601e+003,4.480556e-003
2.952530e+003,4.066601e-003
2.954458e+003,3.675161e-003
2.956387e+003,3.305675e-003
2.958315e+003,2.857916e-003
2.960244e+003,2.512752e-003
2.962172e+003,2.319935e-003
2.964101e+003,2.104896e-003
2.966029e+003,1.765353e-003
2.967958e+003,1.402573e-003
2.969886e+003,1.290232e-003
2.971815e+003,1.192672e-003
2.973743e+003,1.006950e-003
2.975672e+003,8.564974e-004
2.977600e+003,8.487621e-004
2.979529e+003,8.352835e-004
2.981457e+003,5.478191e-004
2.983386e+003,2.952252e-004
2.985314e+003,1.018660e-004
2.987243e+003,-3.256954e-005
2.989171e+003,-6.029976e-005
2.991100e+003,3.628329e-005
2.993028e+003,-1.567212e-005
2.994957e+003,-9.647560e-005
2.996885e+003,-1.652743e-004
2.998814e+003,-2.518451e-004
3.000742e+003,-3.112490e-004
3.002671e+003,-3.514762e-004
3.004599e+003,-3.371736e-004
3.006528e+003,-2.096878e-004
3.008456e+003,-2.853229e-004
3.010385e+003,-5.572882e-004
3.012313e+003,-5.067544e-004
3.014242e+003,-3.566078e-004
3.016170e+003,-3.882567e-004
3.018099e+003,-4.452257e-004
3.020027e+003,-4.376789e-004
3.021956e+003,-4.868637e-004
3.023884e+003,-5.403119e-004
3.025813e+003,-6.302158e-004
3.027741e+003,-7.952174e-004
3.029670e+003,-7.072993e-004
3.031598e+003,-4.890811e-004
3.033527e+003,-4.563472e-004
3.035455e+003,-5.823708e-004
3.037384e+003,-5.602333e-004
3.039312e+003,-5.521590e-004
3.041241e+003,-7.215567e-004
3.043169e+003,-8.326880e-004
3.045098e+003,-7.735538e-004
3.047026e+003,-6.831171e-004
3.048955e+003,-7.373351e-004
3.050883e+003,-8.343415e-004
3.052812e+003,-9.001137e-004
3.054740e+003,-9.391622e-004
3.056669e+003,-9.903399e-004
3.058597e+003,-1.038801e-003
3.060526e+003,-1.030438e-003
3.062454e+003,-9.969184e-004
3.064383e+003,-1.004356e-003
3.066311e+003,-1.052023e-003
3.068240e+003,-1.043958e-003
3.070168e+003,-1.102857e-003
3.072097e+003,-1.188877e-003
3.074025e+003,-1.227338e-003
3.075954e+003,-1.191256e-003
3.077882e+003,-1.226545e-003
3.079811e+003,-1.312508e-003
3.081739e+003,-1.330941e-003
3.083668e+003,-1.282711e-003
3.085596e+003,-1.172554e-003
3.087525e+003,-1.264904e-003
3.089453e+003,-1.349670e-003
3.091382e+003,-1.361429e-003
3.093310e+003,-1.318487e-003
3.095239e+003,-1.300583e-003
3.097167e+003,-1.394821e-003
3.099096e+003,-1.452418e-003
3.101024e+003,-1.488577e-003
3.102953e+003,-1.536983e-003
3.104881e+003,-1.558443e-003
3.106810e+003,-1.456942e-003
3.108738e+003,-1.328232e-003
3.110667e+003,-1.435444e-003
3.112595e+003,-1.495544e-003
3.114524e+003,-1.486365e-003
3.116452e+003,-1.442610e-003
3.118381e+003,-1.475336e-003
3.120309e+003,-1.647774e-003
3.122238e+003,-1.712961e-003
3.124166e+003,-1.625954e-003
3.126095e+003,-1.611397e-003
3.128023e+003,-1.691805e-003
3.129952e+003,-1.613113e-003
3.131880e+003,-1.583765e-003
3.133809e+003,-1.595716e-003
3.135737e+003,-1.595320e-003
3.137666e+003,-1.572739e-003
3.139594e+003,-1.561580e-003
3.141523e+003,-1.557717e-003
3.143451e+003,-1.579473e-003
3.145380e+003,-1.646123e-003
3.147308e+003,-1.602451e-003
3.149237e+003,-1.564485e-003
3.151165e+003,-1.666093e-003
3.153094e+003,-1.725799e-003
3.155022e+003,-1.687943e-003
3.156951e+003,-1.686194e-003
3.158879e+003,-1.539855e-003
3.160808e+003,-1.335896e-003
3.162736e+003,-1.404564e-003
3.164665e+003,-1.551840e-003
3.166593e+003,-1.664212e-003
3.168522e+003,-1.687184e-003
3.170450e+003,-1.599017e-003
3.172379e+003,-1.469755e-003
3.174307e+003,-1.382436e-003
3.176236e+003,-1.367936e-003
3.178164e+003,-1.559203e-003
3.180093e+003,-1.593669e-003
3.182021e+003,-1.579903e-003
3.183950e+003,-1.541704e-003
3.185878e+003,-1.532393e-003
3.187807e+003,-1.576502e-003
3.189735e+003,-1.529653e-003
3.191664e+003,-1.587793e-003
3.193592e+003,-1.679593e-003
3.195521e+003,-1.668668e-003
3.197449e+003,-1.564980e-003
3.199378e+003,-1.502875e-003
3.201306e+003,-1.453904e-003
3.203235e+003,-1.621366e-003
3.205163e+003,-1.639984e-003
3.207092e+003,-1.576965e-003
3.209020e+003,-1.490129e-003
3.210948e+003,-1.365194e-003
3.212877e+003,-1.308412e-003
3.214806e+003,-1.370314e-003
3.216734e+003,-1.459584e-003
3.218663e+003,-1.540912e-003
3.220591e+003,-1.546558e-003
3.222520e+003,-1.378406e-003
3.224448e+003,-1.209562e-003
3.226376e+003,-1.032752e-003
3.228305e+003,-8.792158e-004
3.230234e+003,-8.461144e-004
3.232162e+003,-9.311610e-004
3.234091e+003,-9.535772e-004
3.236019e+003,-8.469411e-004
3.237948e+003,-7.648880e-004
3.239876e+003,-5.642704e-004
3.241804e+003,-4.313566e-004
3.243733e+003,-5.854482e-004
3.245662e+003,-5.464671e-004
3.247590e+003,-5.344213e-004
3.249519e+003,-4.317207e-004
3.251447e+003,-3.631960e-004
3.253375e+003,-4.681304e-004
3.255304e+003,-4.138126e-004
3.257232e+003,-2.083962e-004
3.259161e+003,-8.256218e-005
3.261090e+003,-6.987407e-005
3.263018e+003,-3.697601e-005
3.264947e+003,-1.034322e-004
3.266875e+003,-1.508000e-004
3.268803e+003,-3.836752e-005
3.270732e+003,8.430118e-005
3.272660e+003,1.837008e-004
3.274589e+003,2.075349e-004
3.276518e+003,2.006398e-004
3.278446e+003,2.841179e-004
3.280375e+003,1.964299e-004
3.282303e+003,1.599012e-004
3.284231e+003,6.454990e-005
3.286160e+003,-1.308775e-005
3.288088e+003,-1.371728e-005
3.290017e+003,-1.236055e-004
3.291946e+003,-1.899159e-004
3.293874e+003,-2.684684e-004
3.295802e+003,-3.965328e-004
3.297731e+003,-3.656789e-004
3.299659e+003,-3.308499e-004
3.301588e+003,-3.864691e-004
3.303516e+003,-4.804759e-004
3.305445e+003,-5.148296e-004
3.307374e+003,-6.357080e-004
3.309302e+003,-8.015013e-004
3.311230e+003,-9.556270e-004
3.313159e+003,-1.110755e-003
3.315087e+003,-1.211544e-003
3.317016e+003,-1.312178e-003
3.318944e+003,-1.466090e-003
3.320873e+003,-1.411896e-003
3.322802e+003,-1.467840e-003
3.324730e+003,-1.693785e-003
3.326658e+003,-1.818724e-003
3.328587e+003,-1.713984e-003
3.330515e+003,-1.570923e-003
3.332444e+003,-1.634273e-003
3.334372e+003,-1.813610e-003
3.336301e+003,-1.884842e-003
3.338229e+003,-1.911102e-003
3.340158e+003,-1.891308e-003
3.342086e+003,-1.960153e-003
3.344015e+003,-1.935843e-003
3.345943e+003,-1.996699e-003
3.347872e+003,-2.194645e-003
3.349800e+003,-2.224974e-003
3.351729e+003,-2.193063e-003
3.353657e+003,-2.352858e-003
3.355586e+003,-2.397872e-003
3.357514e+003,-2.484164e-003
3.359443e+003,-2.442981e-003
3.361371e+003,-2.316507e-003
3.363300e+003,-2.355956e-003
3.365229e+003,-2.660220e-003
3.367157e+003,-2.834821e-003
3.369085e+003,-2.869220e-003
3.371014e+003,-2.883077e-003
3.372942e+003,-2.999086e-003
3.374871e+003,-3.151743e-003
3.376799e+003,-3.140131e-003
3.378728e+003,-3.119769e-003
3.380656e+003,-3.234301e-003
3.382585e+003,-3.414556e-003
3.384513e+003,-3.612449e-003
3.386442e+003,-3.569499e-003
3.388370e+003,-3.422742e-003
3.390299e+003,-3.505938e-003
3.392227e+003,-3.585897e-003
3.394156e+003,-3.656380e-003
3.396084e+003,-3.680003e-003
3.398013e+003,-3.642678e-003
3.399941e+003,-3.632986e-003
3.401870e+003,-3.696988e-003
3.403798e+003,-3.683452e-003
3.405727e+003,-3.768898e-003
3.407655e+003,-3.800989e-003
3.409584e+003,-3.711213e-003
3.411512e+003,-3.745608e-003
3.413441e+003,-3.920890e-003
3.415369e+003,-4.050476e-003
3.417298e+003,-4.088389e-003
3.419226e+003,-4.143069e-003
3.421155e+003,-4.191443e-003
3.423083e+003,-4.024411e-003
3.425012e+003,-3.921974e-003
3.426940e+003,-4.086222e-003
3.428869e+003,-4.140181e-003
3.430797e+003,-4.068694e-003
3.432726e+003,-4.163548e-003
3.434654e+003,-4.281546e-003
3.436583e+003,-4.358279e-003
3.438511e+003,-4.273901e-003
3.440440e+003,-4.177660e-003
3.442368e+003,-4.246111e-003
3.444297e+003,-4.246012e-003
3.446225e+003,-4.247095e-003
3.448154e+003,-4.302904e-003
3.450082e+003,-4.236004e-003
3.452011e+003,-4.240992e-003
3.453939e+003,-4.423618e-003
3.455868e+003,-4.564168e-003
3.457796e+003,-4.385866e-003
3.459725e+003,-4.152423e-003
3.461653e+003,-4.260022e-003
3.463582e+003,-4.444543e-003
3.465510e+003,-4.606233e-003
3.467439e+003,-4.539643e-003
3.469367e+003,-4.503212e-003
3.471296e+003,-4.530396e-003
3.473224e+003,-4.483536e-003
3.475153e+003,-4.514000e-003
3.477081e+003,-4.502589e-003
3.479010e+003,-4.542200e-003
3.480938e+003,-4.526395e-003
3.482867e+003,-4.492456e-003
3.484795e+003,-4.356836e-003
3.486724e+003,-4.373794e-003
3.488652e+003,-4.375041e-003
3.490581e+003,-4.435720e-003
3.492509e+003,-4.554267e-003
3.494438e+003,-4.380158e-003
3.496366e+003,-4.227407e-003
3.498295e+003,-4.365200e-003
3.500223e+003,-4.430604e-003
3.502152e+003,-4.489505e-003
3.504080e+003,-4.565251e-003
3.506009e+003,-4.436016e-003
3.507937e+003,-4.305430e-003
3.509866e+003,-4.373401e-003
3.511794e+003,-4.426274e-003
3.513723e+003,-4.523740e-003
3.515651e+003,-4.639147e-003
3.517580e+003,-4.543315e-003
3.519508e+003,-4.516329e-003
3.521437e+003,-4.543479e-003
3.523365e+003,-4.647409e-003
3.525294e+003,-4.704706e-003
3.527222e+003,-4.573087e-003
3.529151e+003,-4.435393e-003
3.531079e+003,-4.458973e-003
3.533008e+003,-4.465631e-003
3.534936e+003,-4.520920e-003
3.536865e+003,-4.667896e-003
3.538793e+003,-4.482028e-003
3.540722e+003,-4.190983e-003
3.542650e+003,-4.245553e-003
3.544579e+003,-4.327312e-003
3.546507e+003,-4.429292e-003
3.548436e+003,-4.545971e-003
3.550364e+003,-4.540922e-003
3.552293e+003,-4.477273e-003
3.554221e+003,-4.417780e-003
3.556150e+003,-4.382684e-003
3.558078e+003,-4.339089e-003
3.560007e+003,-4.342960e-003
3.561935e+003,-4.327148e-003
3.563864e+003,-4.625018e-003
3.565792e+003,-4.791721e-003
3.567721e+003,-4.594857e-003
3.569649e+003,-4.474977e-003
3.571578e+003,-4.352079e-003
3.573506e+003,-4.287024e-003
3.575435e+003,-4.239253e-003
3.577363e+003,-4.132436e-003
3.579292e+003,-4.230951e-003
3.581220e+003,-4.408399e-003
3.583149e+003,-4.536200e-003
3.585077e+003,-4.581906e-003
3.587006e+003,-4.704969e-003
3.588934e+003,-4.545578e-003
3.590863e+003,-4.309170e-003
3.592791e+003,-4.480093e-003
3.594720e+003,-4.629542e-003
3.596648e+003,-4.318618e-003
3.598577e+003,-4.114483e-003
3.600505e+003,-4.185372e-003
3.602434e+003,-4.131156e-003
3.604362e+003,-4.082185e-003
3.606291e+003,-4.372253e-003
3.608219e+003,-4.489570e-003
3.610148e+003,-4.404824e-003
3.612076e+003,-4.504425e-003
3.614005e+003,-4.370875e-003
3.615933e+003,-4.329247e-003
3.617862e+003,-4.467336e-003
3.619790e+003,-4.488095e-003
3.621719e+003,-4.309334e-003
3.623647e+003,-4.214085e-003
3.625576e+003,-4.306349e-003
3.627504e+003,-4.842512e-003
3.629433e+003,-4.979750e-003
3.631361e+003,-4.439623e-003
3.633290e+003,-4.259760e-003
3.635218e+003,-4.189014e-003
3.637146e+003,-4.171064e-003
3.639075e+003,-4.231181e-003
3.641004e+003,-4.214380e-003
3.642932e+003,-4.141166e-003
3.644861e+003,-4.350898e-003
3.646789e+003,-4.880159e-003
3.648718e+003,-5.275373e-003
3.650646e+003,-5.057179e-003
3.652574e+003,-4.556070e-003
3.654503e+003,-4.534101e-003
3.656432e+003,-4.600889e-003
3.658360e+003,-4.416337e-003
3.660289e+003,-4.395575e-003
3.662217e+003,-4.362642e-003
3.664146e+003,-4.246734e-003
3.666074e+003,-4.367661e-003
3.668002e+003,-4.794179e-003
3.669931e+003,-5.177520e-003
3.671860e+003,-5.112720e-003
3.673788e+003,-5.451348e-003
3.675717e+003,-5.509783e-003
3.677645e+003,-4.802699e-003
3.679573e+003,-4.725323e-003
3.681502e+003,-4.525379e-003
3.683430e+003,-4.440902e-003
3.685359e+003,-4.605413e-003
3.687288e+003,-4.935330e-003
3.689216e+003,-5.079645e-003
3.691145e+003,-4.889398e-003
3.693073e+003,-4.514263e-003
3.695001e+003,-4.424372e-003
3.696930e+003,-4.417353e-003
3.698858e+003,-4.413254e-003
3.700787e+003,-4.465729e-003
3.702716e+003,-4.334693e-003
3.704644e+003,-4.232362e-003
3.706573e+003,-4.191935e-003
3.708501e+003,-4.397444e-003
3.710429e+003,-4.616068e-003
3.712358e+003,-4.586496e-003
3.714286e+003,-4.304872e-003
3.716215e+003,-4.169193e-003
3.718144e+003,-4.177004e-003
3.720072e+003,-4.009868e-003
3.722000e+003,-4.071616e-003
3.723929e+003,-4.209196e-003
3.725857e+003,-4.188424e-003
3.727786e+003,-3.879351e-003
3.729714e+003,-3.953365e-003
3.731643e+003,-4.554693e-003
3.733572e+003,-4.918328e-003
3.735500e+003,-4.971757e-003
3.737428e+003,-4.585644e-003
3.739357e+003,-4.097973e-003
3.741285e+003,-3.994996e-003
3.743214e+003,-4.711983e-003
3.745142e+003,-4.575218e-003
3.747071e+003,-4.143266e-003
3.749000e+003,-4.401741e-003
3.750928e+003,-4.449102e-003
3.752856e+003,-3.947750e-003
3.754785e+003,-3.625330e-003
3.756713e+003,-3.564471e-003
3.758642e+003,-3.613566e-003
3.760570e+003,-3.527038e-003
3.762499e+003,-3.360277e-003
3.764427e+003,-3.396245e-003
3.766356e+003,-3.470768e-003
3.768284e+003,-3.572325e-003
3.770213e+003,-3.379839e-003
3.772141e+003,-3.014848e-003
3.774070e+003,-2.917735e-003
3.775998e+003,-3.044165e-003
3.777927e+003,-3.391971e-003
3.779855e+003,-3.470900e-003
3.781784e+003,-3.202727e-003
3.783712e+003,-3.124243e-003
3.785641e+003,-3.034656e-003
3.787569e+003,-2.963941e-003
3.789498e+003,-3.012907e-003
3.791426e+003,-3.003199e-003
3.793355e+003,-2.967956e-003
3.795283e+003,-2.961440e-003
3.797212e+003,-2.936955e-003
3.799140e+003,-3.359619e-003
3.801069e+003,-3.797015e-003
3.802997e+003,-3.431059e-003
3.804926e+003,-3.523094e-003
3.806854e+003,-3.566213e-003
3.808783e+003,-3.067821e-003
3.810711e+003,-2.772634e-003
3.812640e+003,-2.677080e-003
3.814568e+003,-3.052423e-003
3.816497e+003,-3.057161e-003
3.818425e+003,-3.051864e-003
3.820354e+003,-3.168881e-003
3.822282e+003,-2.890581e-003
3.824211e+003,-2.782149e-003
3.826139e+003,-2.952423e-003
3.828068e+003,-2.735692e-003
3.829996e+003,-2.720151e-003
3.831925e+003,-2.862439e-003
3.833853e+003,-2.900818e-003
3.835782e+003,-2.988161e-003
3.837710e+003,-3.178387e-003
3.839639e+003,-3.086509e-003
3.841567e+003,-2.857073e-003
3.843496e+003,-2.783630e-003
3.845424e+003,-2.587500e-003
3.847353e+003,-2.646223e-003
3.849281e+003,-2.829456e-003
3.851210e+003,-3.253770e-003
3.853138e+003,-3.832946e-003
3.855067e+003,-3.338478e-003
3.856995e+003,-2.762131e-003
3.858924e+003,-2.627319e-003
3.860852e+003,-2.847692e-003
3.862781e+003,-2.865006e-003
3.864709e+003,-2.710536e-003
3.866638e+003,-2.510387e-003
3.868566e+003,-2.860694e-003
3.870495e+003,-2.778790e-003
3.872423e+003,-2.637891e-003
3.874352e+003,-2.629131e-003
3.876280e+003,-2.440806e-003
3.878209e+003,-2.576532e-003
3.880137e+003,-2.733618e-003
3.882066e+003,-2.612466e-003
3.883994e+003,-2.853947e-003
3.885923e+003,-2.842327e-003
3.887851e+003,-2.534732e-003
3.889780e+003,-2.606636e-003
3.891708e+003,-2.753373e-003
3.893637e+003,-2.619778e-003
3.895565e+003,-2.394412e-003
3.897494e+003,-2.533315e-003
3.899422e+003,-2.563225e-003
3.901351e+003,-2.616879e-003
3.903279e+003,-2.708824e-003
3.905208e+003,-2.430131e-003
3.907136e+003,-2.209117e-003
3.909065e+003,-2.117429e-003
3.910993e+003,-2.111560e-003
3.912922e+003,-2.164051e-003
3.914850e+003,-2.276890e-003
3.916779e+003,-2.284735e-003
3.918707e+003,-2.060943e-003
3.920636e+003,-2.078981e-003
3.922564e+003,-2.431317e-003
3.924493e+003,-2.361294e-003
3.926421e+003,-2.030801e-003
3.928350e+003,-2.046169e-003
3.930278e+003,-2.125376e-003
3.932207e+003,-2.079080e-003
3.934135e+003,-1.838422e-003
3.936064e+003,-1.688834e-003
3.937992e+003,-1.869864e-003
3.939921e+003,-2.095898e-003
3.941849e+003,-2.147401e-003
3.943778e+003,-1.923242e-003
3.945706e+003,-1.887119e-003
3.947635e+003,-1.991817e-003
3.949563e+003,-1.953259e-003
3.951492e+003,-1.849376e-003
3.953420e+003,-1.741310e-003
3.955349e+003,-1.664641e-003
3.957277e+003,-1.843767e-003
3.959206e+003,-2.033538e-003
3.961134e+003,-2.036737e-003
3.963063e+003,-1.964705e-003
3.964991e+003,-2.023546e-003
3.966920e+003,-2.065857e-003
3.968848e+003,-2.052963e-003
3.970777e+003,-2.052204e-003
3.972705e+003,-1.911564e-003
3.974634e+003,-1.761803e-003
3.976562e+003,-1.617603e-003
3.978491e+003,-1.808496e-003
3.980419e+003,-1.853500e-003
3.982348e+003,-1.756523e-003
3.984276e+003,-1.717185e-003
3.986205e+003,-1.795528e-003
3.988133e+003,-1.649226e-003
3.990062e+003,-1.697746e-003
3.991990e+003,-1.799059e-003
3.993919e+003,-1.579804e-003
3.995847e+003,-1.495544e-003
3.997776e+003,-1.600371e-003
3.999704e+003,-1.660878e-003
4.001633e+003,0.000000e+000
