3.991989e+002,2.877110e-002
4.011274e+002,2.592136e-002
4.030559e+002,1.660029e-002
4.049844e+002,1.435094e-002
4.069129e+002,1.931699e-002
4.088414e+002,1.992346e-002
4.107699e+002,1.809115e-002
4.126984e+002,1.648151e-002
4.146269e+002,1.565522e-002
4.165554e+002,1.662611e-002
4.184839e+002,2.046673e-002
4.204124e+002,2.132262e-002
4.223409e+002,1.896297e-002
4.242694e+002,1.975851e-002
4.261979e+002,1.930494e-002
4.281264e+002,1.383576e-002
4.300549e+002,1.083454e-002
4.319834e+002,6.393692e-003
4.339119e+002,7.540993e-003
4.358404e+002,1.389686e-002
4.377689e+002,1.650705e-002
4.396974e+002,1.371493e-002
4.416259e+002,1.165442e-002
4.435544e+002,1.457070e-002
4.454829e+002,1.722132e-002
4.474114e+002,1.756306e-002
4.493399e+002,1.333868e-002
4.512684e+002,8.774769e-003
4.531969e+002,7.833024e-003
4.551254e+002,1.029303e-002
4.570539e+002,1.066145e-002
4.589824e+002,7.728756e-003
4.609109e+002,9.044524e-003
4.628394e+002,1.005275e-002
4.647679e+002,7.781073e-003
4.666964e+002,6.335390e-003
4.686249e+002,5.710188e-003
4.705533e+002,5.963802e-003
4.724819e+002,7.500538e-003
4.744103e+002,8.479537e-003
4.763389e+002,8.147939e-003
4.782673e+002,7.837613e-003
4.801959e+002,6.959877e-003
4.821243e+002,6.919072e-003
4.840529e+002,7.751287e-003
4.859813e+002,7.029342e-003
4.879099e+002,5.586994e-003
4.898383e+002,4.700827e-003
4.917668e+002,4.277796e-003
4.936953e+002,5.304552e-003
4.956238e+002,6.581834e-003
4.975523e+002,4.223791e-003
4.994808e+002,3.229859e-003
5.014093e+002,4.471015e-003
5.033378e+002,2.614809e-003
5.052663e+002,-1.837004e-003
5.071948e+002,-1.267745e-003
5.091233e+002,1.033420e-003
5.110518e+002,5.035980e-004
5.129803e+002,-5.203564e-004
5.149088e+002,-1.615754e-003
5.168373e+002,-5.487505e-004
5.187658e+002,-3.167499e-005
5.206943e+002,1.227029e-003
5.226228e+002,1.788709e-003
5.245513e+002,-1.419230e-004
5.264798e+002,-1.474081e-003
5.284083e+002,-5.996102e-004
5.303368e+002,-1.444073e-004
5.322653e+002,3.983212e-004
5.341938e+002,3.542811e-004
5.361223e+002,-4.039811e-004
5.380508e+002,-6.427221e-004
5.399792e+002,5.505727e-004
5.419078e+002,5.037970e-004
5.438363e+002,4.525153e-004
5.457648e+002,1.549990e-003
5.476932e+002,1.659338e-003
5.496218e+002,1.431627e-003
5.515503e+002,1.983486e-003
5.534788e+002,2.727126e-003
5.554072e+002,3.433366e-003
5.573358e+002,3.766930e-003
5.592643e+002,4.478815e-003
5.611927e+002,3.671753e-003
5.631212e+002,3.078367e-003
5.650497e+002,3.070025e-003
5.669783e+002,3.419206e-003
5.689067e+002,4.010081e-003
5.708352e+002,3.823084e-003
5.727637e+002,3.205291e-003
5.746923e+002,1.911096e-003
5.766207e+002,2.576110e-003
5.785492e+002,5.738860e-003
5.804777e+002,6.942874e-003
5.824063e+002,1.759132e-003
5.843347e+002,1.362087e-003
5.862632e+002,3.626210e-003
5.881917e+002,2.653378e-003
5.901202e+002,7.498739e-004
5.920487e+002,-1.456183e-003
5.939772e+002,-2.504523e-003
5.959057e+002,-2.781885e-003
5.978342e+002,-4.220550e-004
5.997627e+002,1.010803e-003
6.016912e+002,1.569177e-003
6.036197e+002,1.840115e-003
6.055482e+002,2.848711e-003
6.074767e+002,3.636902e-003
6.094052e+002,4.756298e-003
6.113337e+002,5.683834e-003
6.132622e+002,5.236335e-003
6.151907e+002,5.032987e-003
6.171192e+002,5.565514e-003
6.190477e+002,4.707326e-003
6.209762e+002,3.881251e-003
6.229047e+002,1.763756e-003
6.248332e+002,-8.586145e-004
6.267617e+002,-2.677904e-003
6.286902e+002,-2.583284e-003
6.306187e+002,-1.607864e-003
6.325472e+002,-5.873343e-004
6.344756e+002,-2.047532e-004
6.364042e+002,-1.488126e-004
6.383326e+002,-3.284660e-004
6.402612e+002,-2.719122e-004
6.421896e+002,4.527475e-004
6.441182e+002,2.653522e-004
6.460466e+002,-2.768791e-004
6.479752e+002,-2.520107e-004
6.499036e+002,-3.670694e-004
6.518322e+002,-8.302597e-005
6.537606e+002,5.870679e-004
6.556891e+002,9.321988e-004
6.576177e+002,8.483637e-004
6.595461e+002,4.885711e-004
6.614746e+002,-2.091580e-004
6.634031e+002,-3.175068e-004
6.653317e+002,1.207059e-003
6.672601e+002,5.897899e-003
6.691886e+002,5.052630e-003
6.711171e+002,1.854190e-003
6.730457e+002,1.743263e-003
6.749741e+002,1.932163e-003
6.769026e+002,1.733216e-003
6.788311e+002,1.805344e-003
6.807596e+002,2.079493e-003
6.826881e+002,2.238363e-003
6.846166e+002,2.237997e-003
6.865451e+002,1.899947e-003
6.884736e+002,1.781456e-003
6.904021e+002,1.753909e-003
6.923306e+002,1.727495e-003
6.942591e+002,1.786213e-003
6.961876e+002,1.975831e-003
6.981161e+002,2.187309e-003
7.000446e+002,1.810202e-003
7.019731e+002,1.180878e-003
7.039016e+002,9.108816e-004
7.058301e+002,6.746358e-004
7.077585e+002,3.797164e-004
7.096871e+002,5.569425e-004
7.116156e+002,4.433277e-004
7.135441e+002,-4.590614e-004
7.154725e+002,-8.608963e-004
7.174011e+002,-5.944153e-004
7.193296e+002,-3.713069e-004
7.212581e+002,-4.643572e-004
7.231865e+002,-6.670390e-004
7.251151e+002,-9.642558e-004
7.270436e+002,-1.295628e-003
7.289720e+002,-9.883232e-004
7.309005e+002,-5.786979e-004
7.328290e+002,-7.356150e-004
7.347576e+002,-1.043098e-003
7.366860e+002,-1.101072e-003
7.386145e+002,-1.252680e-003
7.405430e+002,-7.923070e-004
7.424716e+002,-1.568282e-004
7.444000e+002,-3.333157e-005
7.463285e+002,5.629838e-005
7.482570e+002,5.878376e-005
7.501855e+002,2.462557e-004
7.521140e+002,1.119550e-003
7.540425e+002,1.648728e-003
7.559710e+002,1.806908e-003
7.578995e+002,2.114119e-003
7.598280e+002,2.274101e-003
7.617565e+002,2.731227e-003
7.636850e+002,3.183729e-003
7.656135e+002,3.402475e-003
7.675420e+002,3.332719e-003
7.694705e+002,2.923960e-003
7.713990e+002,3.035690e-003
7.733275e+002,3.477419e-003
7.752560e+002,3.415599e-003
7.771844e+002,3.353388e-003
7.791130e+002,3.417703e-003
7.810415e+002,3.426821e-003
7.829700e+002,3.067022e-003
7.848984e+002,2.759770e-003
7.868270e+002,2.867022e-003
7.887555e+002,2.992883e-003
7.906840e+002,2.836671e-003
7.926124e+002,2.379201e-003
7.945410e+002,2.021001e-003
7.964695e+002,1.953863e-003
7.983979e+002,2.077562e-003
8.003264e+002,2.187575e-003
8.022549e+002,2.275633e-003
8.041835e+002,2.236431e-003
8.061119e+002,1.791038e-003
8.080404e+002,1.842111e-003
8.099689e+002,2.366940e-003
8.118975e+002,2.694185e-003
8.138259e+002,2.661279e-003
8.157545e+002,2.355080e-003
8.176830e+002,2.414717e-003
8.196115e+002,2.282062e-003
8.215399e+002,1.543705e-003
8.234684e+002,1.381333e-003
8.253970e+002,1.565652e-003
8.273254e+002,1.506963e-003
8.292539e+002,8.951765e-004
8.311824e+002,5.190234e-004
8.331110e+002,6.837619e-004
8.350394e+002,8.116473e-004
8.369679e+002,1.039000e-003
8.388964e+002,1.063711e-003
8.408250e+002,9.929354e-004
8.427534e+002,7.367303e-004
8.446819e+002,3.444987e-004
8.466104e+002,3.610791e-004
8.485389e+002,5.834182e-004
8.504674e+002,4.504589e-004
8.523959e+002,4.575569e-004
8.543244e+002,6.503114e-004
8.562529e+002,6.467940e-004
8.581814e+002,5.895564e-004
8.601099e+002,5.619522e-004
8.620384e+002,3.763006e-004
8.639669e+002,5.670284e-004
8.658954e+002,5.460276e-004
8.678239e+002,8.698556e-005
8.697524e+002,6.938822e-005
8.716809e+002,3.543806e-004
8.736094e+002,5.065503e-004
8.755378e+002,4.822022e-004
8.774664e+002,8.065351e-004
8.793949e+002,9.933007e-004
8.813234e+002,5.729339e-004
8.832518e+002,7.669678e-004
8.851804e+002,1.081648e-003
8.871089e+002,1.013028e-003
8.890374e+002,6.941161e-004
8.909658e+002,8.212411e-004
8.928943e+002,1.340184e-003
8.948229e+002,1.429533e-003
8.967513e+002,1.199384e-003
8.986798e+002,1.187290e-003
9.006083e+002,1.534162e-003
9.025369e+002,1.601800e-003
9.044653e+002,1.354675e-003
9.063938e+002,1.024885e-003
9.083223e+002,7.293954e-004
9.102509e+002,5.577388e-004
9.121793e+002,8.191829e-004
9.141078e+002,5.411508e-004
9.160364e+002,2.637608e-004
9.179648e+002,4.911916e-004
9.198933e+002,4.634279e-004
9.218218e+002,2.599481e-004
9.237504e+002,-5.997220e-006
9.256788e+002,-2.049851e-004
9.276073e+002,-5.638403e-004
9.295358e+002,-8.929715e-004
9.314644e+002,-1.180154e-003
9.333928e+002,-1.123975e-003
9.353213e+002,-1.056716e-003
9.372498e+002,-1.172950e-003
9.391783e+002,-1.510601e-003
9.411068e+002,-1.623743e-003
9.430353e+002,-1.644044e-003
9.449637e+002,-1.618527e-003
9.468923e+002,-1.428872e-003
9.488208e+002,-1.535464e-003
9.507493e+002,-1.592481e-003
9.526777e+002,-1.582313e-003
9.546063e+002,-1.411896e-003
9.565348e+002,-1.358654e-003
9.584633e+002,-1.616943e-003
9.603917e+002,-1.688735e-003
9.623203e+002,-1.669493e-003
9.642488e+002,-1.558113e-003
9.661772e+002,-1.447002e-003
9.681057e+002,-1.490525e-003
9.700343e+002,-1.534308e-003
9.719628e+002,-1.342866e-003
9.738912e+002,-1.228990e-003
9.758197e+002,-1.271247e-003
9.777483e+002,-1.210454e-003
9.796768e+002,-1.139508e-003
9.816052e+002,-1.346631e-003
9.835337e+002,-1.423687e-003
9.854623e+002,-1.279043e-003
9.873907e+002,-1.355384e-003
9.893192e+002,-1.296520e-003
9.912477e+002,-1.290474e-003
9.931763e+002,-1.302961e-003
9.951047e+002,-1.281059e-003
9.970332e+002,-1.423555e-003
9.989617e+002,-1.156560e-003
1.000890e+003,-7.873128e-004
1.002819e+003,-8.241888e-004
1.004747e+003,-9.281522e-004
1.006676e+003,-6.669728e-004
1.008604e+003,-5.405766e-004
1.010533e+003,-5.112223e-004
1.012461e+003,-4.320848e-004
1.014390e+003,-2.656537e-004
1.016318e+003,1.189675e-004
1.018247e+003,4.592486e-004
1.020175e+003,7.566782e-004
1.022104e+003,1.074307e-003
1.024032e+003,1.282223e-003
1.025961e+003,1.561695e-003
1.027889e+003,1.665957e-003
1.029818e+003,1.832562e-003
1.031746e+003,2.088848e-003
1.033675e+003,2.189474e-003
1.035603e+003,2.285260e-003
1.037532e+003,2.513718e-003
1.039460e+003,2.733328e-003
1.041389e+003,2.844442e-003
1.043317e+003,2.990280e-003
1.045246e+003,3.170578e-003
1.047174e+003,3.245348e-003
1.049103e+003,3.199216e-003
1.051031e+003,3.051472e-003
1.052960e+003,2.964158e-003
1.054888e+003,2.917622e-003
1.056817e+003,2.988112e-003
1.058745e+003,2.946644e-003
1.060674e+003,2.799819e-003
1.062602e+003,2.812659e-003
1.064531e+003,2.774242e-003
1.066459e+003,2.744365e-003
1.068388e+003,2.829267e-003
1.070316e+003,2.848144e-003
1.072245e+003,2.913085e-003
1.074173e+003,3.034589e-003
1.076102e+003,2.970363e-003
1.078030e+003,3.038159e-003
1.079959e+003,3.041896e-003
1.081887e+003,2.849912e-003
1.083816e+003,3.036457e-003
1.085744e+003,3.316058e-003
1.087673e+003,3.365509e-003
1.089601e+003,3.382138e-003
1.091530e+003,3.423013e-003
1.093458e+003,3.351384e-003
1.095387e+003,3.380068e-003
1.097315e+003,3.337160e-003
1.099244e+003,3.507681e-003
1.101172e+003,3.661628e-003
1.103101e+003,3.458983e-003
1.105029e+003,3.401574e-003
1.106958e+003,3.483565e-003
1.108886e+003,3.575527e-003
1.110815e+003,3.592398e-003
1.112743e+003,3.480492e-003
1.114672e+003,3.522545e-003
1.116600e+003,3.832878e-003
1.118529e+003,4.067905e-003
1.120457e+003,3.936149e-003
1.122386e+003,3.889274e-003
1.124314e+003,3.878844e-003
1.126243e+003,3.537210e-003
1.128171e+003,3.227756e-003
1.130100e+003,3.328746e-003
1.132028e+003,3.277163e-003
1.133957e+003,3.035056e-003
1.135885e+003,2.879729e-003
1.137814e+003,2.459366e-003
1.139742e+003,1.784883e-003
1.141671e+003,1.646399e-003
1.143599e+003,1.483689e-003
1.145528e+003,1.095466e-003
1.147456e+003,8.230669e-004
1.149385e+003,6.231348e-004
1.151313e+003,1.796899e-004
1.153242e+003,-1.358946e-004
1.155170e+003,-4.923439e-005
1.157099e+003,-1.195312e-004
1.159027e+003,-3.325053e-004
1.160956e+003,-4.739556e-004
1.162884e+003,-6.014301e-004
1.164813e+003,-7.435867e-004
1.166741e+003,-5.942499e-004
1.168670e+003,-4.740219e-004
1.170598e+003,-5.475592e-004
1.172526e+003,-4.745514e-004
1.174455e+003,-5.465664e-004
1.176384e+003,-5.230370e-004
1.178312e+003,-3.861049e-004
1.180240e+003,-4.227171e-004
1.182169e+003,-5.714842e-004
1.184098e+003,-5.796575e-004
1.186026e+003,-5.731388e-004
1.187954e+003,-4.700501e-004
1.189883e+003,-4.736247e-004
1.191812e+003,-4.920599e-004
1.193740e+003,-3.732271e-004
1.195668e+003,-5.627482e-004
1.197597e+003,-8.441633e-004
1.199526e+003,-8.103978e-004
1.201454e+003,-6.249551e-004
1.203382e+003,-4.790527e-004
1.205311e+003,-4.275168e-004
1.207240e+003,-1.877963e-004
1.209168e+003,-1.235724e-004
1.211096e+003,-1.543109e-004
1.213025e+003,1.708727e-004
1.214953e+003,4.687019e-004
1.216882e+003,4.509564e-004
1.218810e+003,4.072094e-004
1.220739e+003,3.939767e-004
1.222667e+003,4.444554e-004
1.224596e+003,6.403896e-004
1.226524e+003,7.893734e-004
1.228453e+003,9.187509e-004
1.230381e+003,9.405666e-004
1.232310e+003,1.036177e-003
1.234238e+003,1.165860e-003
1.236167e+003,1.225999e-003
1.238095e+003,1.354742e-003
1.240024e+003,1.428635e-003
1.241952e+003,1.333969e-003
1.243881e+003,1.141708e-003
1.245809e+003,1.028903e-003
1.247738e+003,8.939481e-004
1.249666e+003,8.394665e-004
1.251595e+003,6.797132e-004
1.253523e+003,4.106586e-004
1.255452e+003,2.521238e-004
1.257380e+003,9.593364e-005
1.259309e+003,5.093000e-005
1.261237e+003,1.891371e-004
1.263166e+003,2.900197e-004
1.265094e+003,5.211465e-004
1.267023e+003,7.533590e-004
1.268951e+003,9.853968e-004
1.270880e+003,1.235103e-003
1.272808e+003,1.243477e-003
1.274737e+003,1.362553e-003
1.276665e+003,1.618429e-003
1.278594e+003,1.776997e-003
1.280522e+003,1.928668e-003
1.282451e+003,2.089914e-003
1.284379e+003,2.321368e-003
1.286308e+003,2.452202e-003
1.288236e+003,2.731127e-003
1.290165e+003,3.153089e-003
1.292093e+003,3.373489e-003
1.294022e+003,3.490479e-003
1.295950e+003,3.741830e-003
1.297879e+003,3.897866e-003
1.299807e+003,3.907027e-003
1.301736e+003,3.938456e-003
1.303664e+003,3.873495e-003
1.305593e+003,3.712689e-003
1.307521e+003,3.645155e-003
1.309450e+003,3.594436e-003
1.311378e+003,3.417637e-003
1.313307e+003,3.184062e-003
1.315235e+003,3.049003e-003
1.317164e+003,2.991848e-003
1.319092e+003,2.658446e-003
1.321021e+003,2.338324e-003
1.322949e+003,2.245990e-003
1.324878e+003,2.046967e-003
1.326806e+003,1.783485e-003
1.328735e+003,1.733882e-003
1.330663e+003,1.722172e-003
1.332592e+003,1.784849e-003
1.334520e+003,1.740868e-003
1.336449e+003,1.559467e-003
1.338377e+003,1.602798e-003
1.340306e+003,1.656943e-003
1.342234e+003,1.531535e-003
1.344163e+003,1.343906e-003
1.346091e+003,1.187423e-003
1.348020e+003,1.202972e-003
1.349948e+003,1.082279e-003
1.351877e+003,8.397321e-004
1.353805e+003,7.426715e-004
1.355734e+003,7.028776e-004
1.357662e+003,6.199494e-004
1.359591e+003,5.093700e-004
1.361519e+003,4.634611e-004
1.363448e+003,3.495059e-004
1.365376e+003,6.272727e-005
1.367305e+003,-1.692157e-004
1.369233e+003,-2.254186e-004
1.371162e+003,-3.188643e-004
1.373090e+003,-2.467785e-004
1.375019e+003,-3.543234e-004
1.376947e+003,-4.086486e-004
1.378876e+003,-3.493242e-004
1.380804e+003,-3.889519e-004
1.382733e+003,-5.240299e-004
1.384661e+003,-5.837937e-004
1.386590e+003,-5.478570e-004
1.388518e+003,-7.753068e-004
1.390447e+003,-1.157749e-003
1.392375e+003,-1.275244e-003
1.394304e+003,-1.205167e-003
1.396232e+003,-1.359513e-003
1.398161e+003,-1.423456e-003
1.400089e+003,-1.443270e-003
1.402018e+003,-1.529488e-003
1.403946e+003,-1.568546e-003
1.405875e+003,-1.612816e-003
1.407803e+003,-1.617174e-003
1.409732e+003,-1.561646e-003
1.411660e+003,-1.397397e-003
1.413589e+003,-1.164821e-003
1.415517e+003,-7.802680e-004
1.417446e+003,-8.835949e-005
1.419374e+003,5.047590e-004
1.421303e+003,7.285656e-004
1.423231e+003,1.164930e-003
1.425160e+003,1.641976e-003
1.427088e+003,1.973268e-003
1.429017e+003,2.284027e-003
1.430945e+003,2.501288e-003
1.432874e+003,2.901911e-003
1.434802e+003,3.554915e-003
1.436731e+003,4.007205e-003
1.438659e+003,3.963968e-003
1.440588e+003,4.146744e-003
1.442516e+003,4.510887e-003
1.444445e+003,4.779648e-003
1.446373e+003,5.205181e-003
1.448302e+003,5.580651e-003
1.450230e+003,5.832174e-003
1.452159e+003,6.087305e-003
1.454087e+003,6.558522e-003
1.456016e+003,7.358030e-003
1.457944e+003,7.472356e-003
1.459873e+003,6.960550e-003
1.461801e+003,6.727486e-003
1.463730e+003,6.720722e-003
1.465658e+003,6.641347e-003
1.467587e+003,6.429135e-003
1.469515e+003,6.405865e-003
1.471444e+003,6.491688e-003
1.473372e+003,6.309704e-003
1.475301e+003,5.848831e-003
1.477229e+003,5.239990e-003
1.479158e+003,4.690076e-003
1.481086e+003,4.356271e-003
1.483015e+003,3.864703e-003
1.484943e+003,3.525652e-003
1.486872e+003,3.359064e-003
1.488800e+003,3.142876e-003
1.490729e+003,2.837071e-003
1.492657e+003,2.408653e-003
1.494586e+003,2.185178e-003
1.496514e+003,2.016041e-003
1.498443e+003,1.650191e-003
1.500371e+003,1.173203e-003
1.502300e+003,9.182528e-004
1.504228e+003,1.182705e-003
1.506157e+003,1.659205e-003
1.508085e+003,1.225035e-003
1.510014e+003,5.838496e-004
1.511942e+003,3.369382e-004
1.513871e+003,3.656555e-004
1.515799e+003,5.255587e-004
1.517728e+003,5.156729e-004
1.519656e+003,6.984305e-004
1.521585e+003,1.012297e-003
1.523513e+003,9.439868e-004
1.525442e+003,1.024885e-003
1.527370e+003,9.654053e-004
1.529299e+003,1.116660e-003
1.531227e+003,1.325759e-003
1.533156e+003,1.679228e-003
1.535084e+003,1.775500e-003
1.537013e+003,2.037546e-003
1.538941e+003,2.824265e-003
1.540870e+003,3.292253e-003
1.542798e+003,3.271220e-003
1.544727e+003,3.178221e-003
1.546655e+003,3.037258e-003
1.548584e+003,3.155191e-003
1.550512e+003,3.323537e-003
1.552441e+003,3.442818e-003
1.554369e+003,3.746509e-003
1.556298e+003,4.240587e-003
1.558226e+003,5.191835e-003
1.560155e+003,5.115857e-003
1.562083e+003,4.745746e-003
1.564012e+003,5.009456e-003
1.565940e+003,5.212994e-003
1.567869e+003,5.552962e-003
1.569797e+003,5.961047e-003
1.571726e+003,5.791441e-003
1.573654e+003,5.813335e-003
1.575583e+003,6.220119e-003
1.577511e+003,6.124739e-003
1.579440e+003,5.954060e-003
1.581368e+003,5.895279e-003
1.583297e+003,5.667553e-003
1.585225e+003,5.527424e-003
1.587154e+003,5.293651e-003
1.589082e+003,4.920876e-003
1.591010e+003,4.593658e-003
1.592939e+003,4.302826e-003
1.594868e+003,4.051584e-003
1.596796e+003,3.708010e-003
1.598724e+003,3.258334e-003
1.600653e+003,2.894673e-003
1.602582e+003,2.580510e-003
1.604510e+003,2.063712e-003
1.606438e+003,1.638949e-003
1.608367e+003,1.345934e-003
1.610296e+003,9.684936e-004
1.612224e+003,6.511742e-004
1.614152e+003,6.216416e-004
1.616081e+003,6.727442e-004
1.618010e+003,1.844964e-004
1.619938e+003,-3.025078e-004
1.621866e+003,-2.683690e-004
1.623795e+003,-4.510182e-004
1.625724e+003,-7.906202e-004
1.627652e+003,-9.672644e-004
1.629580e+003,-1.159071e-003
1.631509e+003,-1.357036e-003
1.633438e+003,-1.284792e-003
1.635366e+003,-1.234706e-003
1.637294e+003,-1.632160e-003
1.639223e+003,-2.075387e-003
1.641151e+003,-2.394478e-003
1.643080e+003,-2.687486e-003
1.645008e+003,-2.758674e-003
1.646937e+003,-2.856777e-003
1.648865e+003,-3.343377e-003
1.650794e+003,-3.326411e-003
1.652722e+003,-2.906051e-003
1.654651e+003,-3.853177e-003
1.656579e+003,-4.693956e-003
1.658508e+003,-5.017025e-003
1.660436e+003,-5.194447e-003
1.662365e+003,-5.341425e-003
1.664293e+003,-5.646189e-003
1.666222e+003,-5.883341e-003
1.668150e+003,-5.692433e-003
1.670079e+003,-5.594216e-003
1.672007e+003,-5.816325e-003
1.673936e+003,-5.685892e-003
1.675864e+003,-5.643638e-003
1.677793e+003,-5.918937e-003
1.679721e+003,-5.858628e-003
1.681650e+003,-5.517537e-003
1.683578e+003,-4.822852e-003
1.685507e+003,-4.723880e-003
1.687435e+003,-4.941718e-003
1.689364e+003,-4.941489e-003
1.691292e+003,-4.941816e-003
1.693221e+003,-4.729354e-003
1.695149e+003,-4.200237e-003
1.697078e+003,-4.106605e-003
1.699006e+003,-3.796161e-003
1.700935e+003,-3.640871e-003
1.702863e+003,-4.125019e-003
1.704792e+003,-4.128891e-003
1.706720e+003,-4.247718e-003
1.708649e+003,-4.484553e-003
1.710577e+003,-4.662455e-003
1.712506e+003,-4.620723e-003
1.714434e+003,-4.369399e-003
1.716363e+003,-4.134701e-003
1.718291e+003,-4.209852e-003
1.720220e+003,-4.480913e-003
1.722148e+003,-4.683925e-003
1.724077e+003,-4.815446e-003
1.726005e+003,-4.805648e-003
1.727934e+003,-4.761931e-003
1.729862e+003,-4.779759e-003
1.731791e+003,-4.579742e-003
1.733719e+003,-4.302772e-003
1.735648e+003,-4.601053e-003
1.737576e+003,-4.682844e-003
1.739505e+003,-4.562267e-003
1.741433e+003,-4.731648e-003
1.743362e+003,-4.736204e-003
1.745290e+003,-4.622920e-003
1.747219e+003,-4.417255e-003
1.749147e+003,-4.164336e-003
1.751076e+003,-3.979729e-003
1.753004e+003,-4.129942e-003
1.754933e+003,-4.150946e-003
1.756861e+003,-4.003072e-003
1.758790e+003,-4.040168e-003
1.760718e+003,-3.920299e-003
1.762647e+003,-3.936553e-003
1.764575e+003,-4.135324e-003
1.766504e+003,-3.978219e-003
1.768432e+003,-3.861683e-003
1.770361e+003,-3.813306e-003
1.772289e+003,-3.648856e-003
1.774218e+003,-3.695543e-003
1.776146e+003,-3.856494e-003
1.778075e+003,-3.973787e-003
1.780003e+003,-3.917968e-003
1.781932e+003,-3.914422e-003
1.783860e+003,-3.943285e-003
1.785789e+003,-3.847167e-003
1.787717e+003,-3.722153e-003
1.789646e+003,-3.657004e-003
1.791574e+003,-3.455910e-003
1.793503e+003,-3.478920e-003
1.795431e+003,-3.683354e-003
1.797360e+003,-3.664857e-003
1.799288e+003,-3.509290e-003
1.801217e+003,-3.534762e-003
1.803145e+003,-3.719788e-003
1.805074e+003,-3.774022e-003
1.807002e+003,-3.727902e-003
1.808931e+003,-3.716667e-003
1.810859e+003,-3.742422e-003
1.812788e+003,-3.803485e-003
1.814716e+003,-3.826082e-003
1.816645e+003,-3.884112e-003
1.818573e+003,-3.943219e-003
1.820502e+003,-3.934550e-003
1.822430e+003,-3.870090e-003
1.824359e+003,-3.755003e-003
1.826287e+003,-3.756186e-003
1.828216e+003,-3.726916e-003
1.830144e+003,-3.729939e-003
1.832073e+003,-4.037509e-003
1.834001e+003,-4.127349e-003
1.835930e+003,-4.088028e-003
1.837858e+003,-4.098991e-003
1.839787e+003,-4.030845e-003
1.841715e+003,-4.020472e-003
1.843644e+003,-3.936553e-003
1.845572e+003,-4.025560e-003
1.847501e+003,-4.122130e-003
1.849429e+003,-4.142085e-003
1.851358e+003,-3.988528e-003
1.853286e+003,-3.922270e-003
1.855215e+003,-3.988069e-003
1.857143e+003,-3.975166e-003
1.859072e+003,-4.020931e-003
1.861000e+003,-4.011082e-003
1.862929e+003,-4.017747e-003
1.864857e+003,-3.989808e-003
1.866786e+003,-3.925619e-003
1.868714e+003,-3.830746e-003
1.870643e+003,-3.876264e-003
1.872571e+003,-3.933270e-003
1.874500e+003,-3.833406e-003
1.876428e+003,-3.761343e-003
1.878357e+003,-3.760029e-003
1.880285e+003,-3.781774e-003
1.882214e+003,-3.770803e-003
1.884142e+003,-3.691502e-003
1.886071e+003,-3.676553e-003
1.887999e+003,-3.628714e-003
1.889928e+003,-3.630192e-003
1.891856e+003,-3.714893e-003
1.893785e+003,-3.646359e-003
1.895713e+003,-3.515535e-003
1.897642e+003,-3.492429e-003
1.899570e+003,-3.486644e-003
1.901499e+003,-3.500843e-003
1.903427e+003,-3.502651e-003
1.905356e+003,-3.499069e-003
1.907284e+003,-3.521451e-003
1.909213e+003,-3.495782e-003
1.911141e+003,-3.539987e-003
1.913070e+003,-3.565457e-003
1.914998e+003,-3.510572e-003
1.916927e+003,-3.415641e-003
1.918855e+003,-3.324504e-003
1.920784e+003,-3.333085e-003
1.922712e+003,-3.398809e-003
1.924641e+003,-3.458343e-003
1.926569e+003,-3.403938e-003
1.928498e+003,-3.499791e-003
1.930426e+003,-3.523982e-003
1.932355e+003,-3.492495e-003
1.934283e+003,-3.590268e-003
1.936212e+003,-3.667518e-003
1.938140e+003,-3.631080e-003
1.940069e+003,-3.561448e-003
1.941997e+003,-3.491246e-003
1.943926e+003,-3.542255e-003
1.945854e+003,-3.680069e-003
1.947783e+003,-3.692323e-003
1.949711e+003,-3.695345e-003
1.951640e+003,-3.690253e-003
1.953568e+003,-3.711936e-003
1.955497e+003,-3.735063e-003
1.957425e+003,-3.757467e-003
1.959354e+003,-3.748827e-003
1.961282e+003,-3.774548e-003
1.963211e+003,-3.772380e-003
1.965139e+003,-3.751193e-003
1.967068e+003,-3.776354e-003
1.968996e+003,-3.893242e-003
1.970925e+003,-3.973688e-003
1.972853e+003,-3.876658e-003
1.974782e+003,-3.783876e-003
1.976710e+003,-3.816426e-003
1.978639e+003,-3.772380e-003
1.980567e+003,-3.727376e-003
1.982496e+003,-3.746988e-003
1.984424e+003,-3.651353e-003
1.986353e+003,-3.548565e-003
1.988281e+003,-3.611003e-003
1.990210e+003,-3.659665e-003
1.992138e+003,-3.568579e-003
1.994067e+003,-3.575152e-003
1.995995e+003,-3.583268e-003
1.997924e+003,-3.499791e-003
1.999852e+003,-3.486743e-003
2.001781e+003,-3.519906e-003
2.003709e+003,-3.468138e-003
2.005638e+003,-3.458902e-003
2.007566e+003,-3.395719e-003
2.009495e+003,-3.377472e-003
2.011423e+003,-3.426292e-003
2.013352e+003,-3.366425e-003
2.015280e+003,-3.342555e-003
2.017208e+003,-3.307010e-003
2.019137e+003,-3.257519e-003
2.021066e+003,-3.272318e-003
2.022994e+003,-3.321906e-003
2.024922e+003,-3.276099e-003
2.026851e+003,-3.270936e-003
2.028780e+003,-3.295962e-003
2.030708e+003,-3.281657e-003
2.032636e+003,-3.270673e-003
2.034565e+003,-3.274981e-003
2.036494e+003,-3.260610e-003
2.038422e+003,-3.244759e-003
2.040350e+003,-3.242259e-003
2.042279e+003,-3.155197e-003
2.044208e+003,-3.179801e-003
2.046136e+003,-3.313258e-003
2.048064e+003,-3.349065e-003
2.049993e+003,-3.283992e-003
2.051921e+003,-3.270706e-003
2.053850e+003,-3.275343e-003
2.055778e+003,-3.283202e-003
2.057707e+003,-3.244923e-003
2.059635e+003,-3.213482e-003
2.061564e+003,-3.206739e-003
2.063492e+003,-3.367707e-003
2.065421e+003,-3.380004e-003
2.067349e+003,-3.243476e-003
2.069278e+003,-3.286655e-003
2.071206e+003,-3.227558e-003
2.073135e+003,-3.106018e-003
2.075063e+003,-3.035742e-003
2.076992e+003,-2.967034e-003
2.078920e+003,-3.007609e-003
2.080849e+003,-3.069499e-003
2.082777e+003,-3.041270e-003
2.084706e+003,-3.024259e-003
2.086634e+003,-3.051206e-003
2.088563e+003,-3.092069e-003
2.090491e+003,-3.031267e-003
2.092420e+003,-2.971971e-003
2.094348e+003,-2.857666e-003
2.096277e+003,-2.814971e-003
2.098205e+003,-2.860727e-003
2.100134e+003,-2.869187e-003
2.102062e+003,-2.785638e-003
2.103991e+003,-2.745570e-003
2.105919e+003,-2.691240e-003
2.107848e+003,-2.511376e-003
2.109776e+003,-2.508971e-003
2.111705e+003,-2.641316e-003
2.113633e+003,-2.628308e-003
2.115562e+003,-2.476125e-003
2.117490e+003,-2.471282e-003
2.119419e+003,-2.475796e-003
2.121347e+003,-2.371873e-003
2.123276e+003,-2.342114e-003
2.125204e+003,-2.259750e-003
2.127133e+003,-2.201139e-003
2.129061e+003,-2.101767e-003
2.130990e+003,-2.068495e-003
2.132918e+003,-2.197744e-003
2.134847e+003,-2.279527e-003
2.136775e+003,-2.204634e-003
2.138704e+003,-2.091776e-003
2.140632e+003,-2.015103e-003
2.142561e+003,-2.086632e-003
2.144489e+003,-2.164809e-003
2.146418e+003,-2.171469e-003
2.148346e+003,-2.099954e-003
2.150275e+003,-2.042047e-003
2.152203e+003,-2.057514e-003
2.154132e+003,-2.034099e-003
2.156060e+003,-1.997095e-003
2.157989e+003,-2.013388e-003
2.159917e+003,-2.079146e-003
2.161846e+003,-2.166622e-003
2.163774e+003,-2.195733e-003
2.165703e+003,-2.179414e-003
2.167631e+003,-2.128409e-003
2.169560e+003,-2.027932e-003
2.171488e+003,-2.012530e-003
2.173417e+003,-2.091248e-003
2.175345e+003,-2.132828e-003
2.177274e+003,-2.067901e-003
2.179202e+003,-1.986540e-003
2.181131e+003,-2.050489e-003
2.183059e+003,-2.118880e-003
2.184988e+003,-2.083796e-003
2.186916e+003,-2.053062e-003
2.188845e+003,-2.092732e-003
2.190773e+003,-2.111560e-003
2.192702e+003,-2.111824e-003
2.194630e+003,-2.062130e-003
2.196559e+003,-1.951709e-003
2.198487e+003,-1.956855e-003
2.200416e+003,-2.033802e-003
2.202344e+003,-2.021138e-003
2.204273e+003,-2.012464e-003
2.206201e+003,-2.012266e-003
2.208130e+003,-1.954216e-003
2.210058e+003,-1.935612e-003
2.211987e+003,-1.973215e-003
2.213915e+003,-1.999700e-003
2.215844e+003,-1.961242e-003
2.217772e+003,-1.898764e-003
2.219701e+003,-1.823674e-003
2.221629e+003,-1.913246e-003
2.223558e+003,-2.027668e-003
2.225486e+003,-2.003922e-003
2.227415e+003,-1.980669e-003
2.229343e+003,-1.902426e-003
2.231272e+003,-1.850432e-003
2.233200e+003,-1.792228e-003
2.235129e+003,-1.841755e-003
2.237057e+003,-1.991389e-003
2.238986e+003,-2.054249e-003
2.240914e+003,-2.049665e-003
2.242843e+003,-1.931192e-003
2.244771e+003,-1.867984e-003
2.246700e+003,-1.940692e-003
2.248628e+003,-1.962528e-003
2.250557e+003,-2.068132e-003
2.252485e+003,-2.121551e-003
2.254414e+003,-1.981461e-003
2.256342e+003,-1.970214e-003
2.258271e+003,-2.101503e-003
2.260199e+003,-2.064867e-003
2.262128e+003,-1.919646e-003
2.264056e+003,-1.934919e-003
2.265985e+003,-1.987530e-003
2.267913e+003,-2.065395e-003
2.269842e+003,-2.101767e-003
2.271770e+003,-2.102163e-003
2.273699e+003,-2.188975e-003
2.275627e+003,-2.351309e-003
2.277556e+003,-2.357406e-003
2.279484e+003,-2.306323e-003
2.281413e+003,-2.240895e-003
2.283341e+003,-2.306554e-003
2.285270e+003,-2.361624e-003
2.287198e+003,-2.302401e-003
2.289127e+003,-2.222106e-003
2.291055e+003,-2.166128e-003
2.292984e+003,-2.113473e-003
2.294912e+003,-2.154819e-003
2.296841e+003,-2.114297e-003
2.298769e+003,-1.968103e-003
2.300698e+003,-1.853764e-003
2.302626e+003,-1.682365e-003
2.304555e+003,-1.526549e-003
2.306483e+003,-1.331866e-003
2.308412e+003,-1.090562e-003
2.310340e+003,-7.329026e-004
2.312269e+003,-2.558188e-004
2.314197e+003,1.570837e-004
2.316125e+003,6.045867e-004
2.318054e+003,1.144000e-003
2.319983e+003,1.738972e-003
2.321911e+003,2.441073e-003
2.323840e+003,3.016638e-003
2.325768e+003,3.428791e-003
2.327697e+003,3.959621e-003
2.329625e+003,4.600657e-003
2.331553e+003,4.924361e-003
2.333482e+003,4.922619e-003
2.335411e+003,4.974431e-003
2.337339e+003,5.216985e-003
2.339268e+003,5.334741e-003
2.341196e+003,5.190862e-003
2.343125e+003,4.779346e-003
2.345053e+003,3.770005e-003
2.346981e+003,2.111189e-003
2.348910e+003,1.139814e-003
2.350839e+003,2.275234e-003
2.352767e+003,4.508644e-003
2.354696e+003,6.193465e-003
2.356624e+003,7.198220e-003
2.358552e+003,7.709565e-003
2.360481e+003,7.932493e-003
2.362409e+003,7.904856e-003
2.364338e+003,7.497909e-003
2.366267e+003,6.855952e-003
2.368195e+003,6.088548e-003
2.370124e+003,5.205818e-003
2.372052e+003,4.021953e-003
2.373980e+003,2.713689e-003
2.375909e+003,1.493265e-003
2.377838e+003,3.649259e-004
2.379766e+003,-6.120843e-004
2.381695e+003,-1.161186e-003
2.383623e+003,-1.275641e-003
2.385552e+003,-1.384285e-003
2.387480e+003,-1.500795e-003
2.389408e+003,-1.506078e-003
2.391337e+003,-1.455258e-003
2.393266e+003,-1.479562e-003
2.395194e+003,-1.453739e-003
2.397123e+003,-1.382172e-003
2.399051e+003,-1.312872e-003
2.400979e+003,-1.258759e-003
2.402908e+003,-1.235268e-003
2.404836e+003,-1.263120e-003
2.406765e+003,-1.339331e-003
2.408694e+003,-1.376722e-003
2.410622e+003,-1.337481e-003
2.412551e+003,-1.292720e-003
2.414479e+003,-1.202821e-003
2.416407e+003,-1.136500e-003
2.418336e+003,-1.113598e-003
2.420264e+003,-1.143638e-003
2.422193e+003,-1.177048e-003
2.424122e+003,-1.115548e-003
2.426050e+003,-1.055857e-003
2.427979e+003,-1.051990e-003
2.429907e+003,-1.047164e-003
2.431835e+003,-9.686198e-004
2.433764e+003,-8.915166e-004
2.435692e+003,-8.714449e-004
2.437621e+003,-7.962096e-004
2.439550e+003,-7.521206e-004
2.441478e+003,-7.683940e-004
2.443406e+003,-7.450421e-004
2.445335e+003,-6.868223e-004
2.447263e+003,-6.064594e-004
2.449192e+003,-5.968308e-004
2.451121e+003,-6.178746e-004
2.453049e+003,-5.722122e-004
2.454978e+003,-5.148296e-004
2.456906e+003,-4.505548e-004
2.458834e+003,-4.741873e-004
2.460763e+003,-4.981827e-004
2.462691e+003,-4.914972e-004
2.464620e+003,-4.801780e-004
2.466549e+003,-4.036831e-004
2.468477e+003,-3.501850e-004
2.470406e+003,-4.451264e-004
2.472334e+003,-4.894783e-004
2.474262e+003,-3.971286e-004
2.476191e+003,-3.746175e-004
2.478119e+003,-3.536281e-004
2.480048e+003,-3.133018e-004
2.481977e+003,-3.036998e-004
2.483905e+003,-2.799587e-004
2.485833e+003,-2.867136e-004
2.487762e+003,-2.285647e-004
2.489690e+003,-2.262797e-004
2.491619e+003,-2.109794e-004
2.493547e+003,-1.468915e-004
2.495476e+003,-1.610347e-004
2.497405e+003,-1.219161e-004
2.499333e+003,-1.748131e-004
2.501261e+003,-2.111782e-004
2.503190e+003,-1.418899e-004
2.505118e+003,-1.125749e-004
2.507047e+003,-2.077670e-004
2.508975e+003,-2.218420e-004
2.510904e+003,-1.430161e-004
2.512833e+003,-2.869313e-005
2.514761e+003,-2.279562e-005
2.516689e+003,-4.814109e-005
2.518618e+003,1.404906e-005
2.520546e+003,8.367151e-005
2.522475e+003,7.034926e-005
2.524403e+003,1.093437e-005
2.526332e+003,6.375457e-005
2.528260e+003,1.341804e-004
2.530189e+003,7.952897e-005
2.532117e+003,1.285620e-005
2.534046e+003,5.440950e-005
2.535974e+003,1.421020e-004
2.537903e+003,9.149272e-005
2.539831e+003,1.414391e-004
2.541760e+003,1.766735e-004
2.543688e+003,2.486759e-004
2.545617e+003,2.926390e-004
2.547545e+003,2.847479e-004
2.549474e+003,3.421443e-004
2.551402e+003,3.595869e-004
2.553331e+003,3.281841e-004
2.555259e+003,3.305716e-004
2.557188e+003,3.140917e-004
2.559116e+003,2.901854e-004
2.561045e+003,3.725532e-004
2.562973e+003,4.242898e-004
2.564902e+003,4.579218e-004
2.566830e+003,5.147440e-004
2.568759e+003,4.598125e-004
2.570687e+003,4.718862e-004
2.572616e+003,5.141801e-004
2.574544e+003,6.210444e-004
2.576473e+003,6.037572e-004
2.578401e+003,5.380987e-004
2.580330e+003,5.145781e-004
2.582258e+003,4.876422e-004
2.584187e+003,5.035980e-004
2.586115e+003,4.830978e-004
2.588044e+003,3.708619e-004
2.589972e+003,3.559391e-004
2.591901e+003,4.911253e-004
2.593829e+003,5.577719e-004
2.595758e+003,5.067161e-004
2.597686e+003,4.761320e-004
2.599615e+003,4.923526e-004
2.601543e+003,5.517007e-004
2.603472e+003,5.621513e-004
2.605400e+003,5.813944e-004
2.607329e+003,6.225044e-004
2.609257e+003,6.822021e-004
2.611186e+003,7.789173e-004
2.613114e+003,7.527947e-004
2.615043e+003,7.623540e-004
2.616971e+003,7.622212e-004
2.618900e+003,8.337232e-004
2.620828e+003,8.764508e-004
2.622757e+003,8.845519e-004
2.624685e+003,8.854815e-004
2.626614e+003,8.976999e-004
2.628542e+003,8.966043e-004
2.630471e+003,9.416624e-004
2.632399e+003,9.601585e-004
2.634328e+003,1.007681e-003
2.636256e+003,1.037572e-003
2.638185e+003,1.086797e-003
2.640113e+003,1.114932e-003
2.642042e+003,1.081083e-003
2.643970e+003,1.229554e-003
2.645899e+003,1.322702e-003
2.647827e+003,1.333503e-003
2.649756e+003,1.339619e-003
2.651684e+003,1.360724e-003
2.653613e+003,1.341679e-003
2.655541e+003,1.432425e-003
2.657470e+003,1.394994e-003
2.659398e+003,1.377211e-003
2.661327e+003,1.500513e-003
2.663255e+003,1.524685e-003
2.665184e+003,1.484155e-003
2.667112e+003,1.589030e-003
2.669041e+003,1.671112e-003
2.670969e+003,1.656012e-003
2.672898e+003,1.678230e-003
2.674826e+003,1.740402e-003
2.676755e+003,1.774170e-003
2.678683e+003,1.734248e-003
2.680612e+003,1.813396e-003
2.682540e+003,1.863674e-003
2.684469e+003,1.891028e-003
2.686397e+003,1.988878e-003
2.688326e+003,1.995236e-003
2.690254e+003,2.098803e-003
2.692183e+003,2.168927e-003
2.694111e+003,2.120712e-003
2.696040e+003,2.037945e-003
2.697968e+003,2.115784e-003
2.699897e+003,2.221311e-003
2.701825e+003,2.128803e-003
2.703754e+003,2.133098e-003
2.705682e+003,2.325931e-003
2.707611e+003,2.391861e-003
2.709539e+003,2.370472e-003
2.711468e+003,2.348817e-003
2.713396e+003,2.446038e-003
2.715325e+003,2.520384e-003
2.717253e+003,2.494856e-003
2.719182e+003,2.509119e-003
2.721110e+003,2.514085e-003
2.723039e+003,2.667513e-003
2.724967e+003,2.777077e-003
2.726896e+003,2.792616e-003
2.728824e+003,2.840873e-003
2.730753e+003,2.964758e-003
2.732681e+003,2.990614e-003
2.734610e+003,2.950213e-003
2.736538e+003,2.968862e-003
2.738467e+003,3.085475e-003
2.740395e+003,3.199817e-003
2.742324e+003,3.279233e-003
2.744252e+003,3.308212e-003
2.746181e+003,3.353955e-003
2.748109e+003,3.360433e-003
2.750038e+003,3.404980e-003
2.751966e+003,3.462690e-003
2.753895e+003,3.640978e-003
2.755823e+003,3.879947e-003
2.757752e+003,3.935781e-003
2.759680e+003,3.915118e-003
2.761609e+003,4.091519e-003
2.763537e+003,4.453373e-003
2.765466e+003,4.640039e-003
2.767394e+003,4.793819e-003
2.769323e+003,5.062150e-003
2.771251e+003,5.356544e-003
2.773180e+003,5.638953e-003
2.775108e+003,5.959536e-003
2.777037e+003,6.272758e-003
2.778965e+003,6.618671e-003
2.780894e+003,7.075378e-003
2.782822e+003,7.619522e-003
2.784750e+003,8.046971e-003
2.786679e+003,8.392172e-003
2.788608e+003,8.767433e-003
2.790536e+003,9.216692e-003
2.792465e+003,9.670618e-003
2.794393e+003,1.014869e-002
2.796322e+003,1.050114e-002
2.798250e+003,1.067144e-002
2.800178e+003,1.095828e-002
2.802107e+003,1.134746e-002
2.804036e+003,1.158122e-002
2.805964e+003,1.166650e-002
2.807893e+003,1.184993e-002
2.809821e+003,1.192549e-002
2.811750e+003,1.175633e-002
2.813678e+003,1.167736e-002
2.815606e+003,1.164765e-002
2.817535e+003,1.145060e-002
2.819464e+003,1.131087e-002
2.821392e+003,1.111550e-002
2.823321e+003,1.082186e-002
2.825249e+003,1.052588e-002
2.827177e+003,1.022518e-002
2.829106e+003,9.904149e-003
2.831034e+003,9.443410e-003
2.832963e+003,9.084008e-003
2.834892e+003,8.937596e-003
2.836820e+003,8.587873e-003
2.838749e+003,8.072489e-003
2.840677e+003,7.510652e-003
2.842605e+003,7.182959e-003
2.844534e+003,6.727755e-003
2.846462e+003,6.090933e-003
2.848391e+003,5.603977e-003
2.850320e+003,5.279062e-003
2.852248e+003,5.202599e-003
2.854177e+003,5.148949e-003
2.856105e+003,5.035032e-003
2.858033e+003,5.055647e-003
2.859962e+003,5.190326e-003
2.861890e+003,5.115455e-003
2.863819e+003,4.991457e-003
2.865748e+003,4.999200e-003
2.867676e+003,5.073515e-003
2.869604e+003,5.184055e-003
2.871533e+003,5.204946e-003
2.873461e+003,5.259978e-003
2.875390e+003,5.343227e-003
2.877319e+003,5.477760e-003
2.879247e+003,5.600185e-003
2.881176e+003,5.677020e-003
2.883104e+003,5.693469e-003
2.885032e+003,5.787680e-003
2.886961e+003,5.753935e-003
2.888889e+003,5.532961e-003
2.890818e+003,5.408408e-003
2.892747e+003,5.315654e-003
2.894675e+003,5.227750e-003
2.896604e+003,5.153609e-003
2.898532e+003,5.091551e-003
2.900460e+003,5.062318e-003
2.902389e+003,4.932639e-003
2.904317e+003,4.856036e-003
2.906246e+003,4.900200e-003
2.908175e+003,4.840657e-003
2.910103e+003,4.650253e-003
2.912031e+003,4.345461e-003
2.913960e+003,4.052855e-003
2.915888e+003,3.843575e-003
2.917817e+003,3.774016e-003
2.919745e+003,3.997040e-003
2.921674e+003,4.247447e-003
2.923603e+003,4.413907e-003
2.925531e+003,4.505932e-003
2.927459e+003,4.611272e-003
2.929388e+003,4.681769e-003
2.931316e+003,4.808660e-003
2.933245e+003,4.865552e-003
2.935173e+003,4.876710e-003
2.937102e+003,4.945005e-003
2.939031e+003,5.029300e-003
2.940959e+003,4.871717e-003
2.942887e+003,4.629423e-003
2.944816e+003,4.668875e-003
2.946744e+003,4.653167e-003
2.948673e+003,4.376888e-003
2.950601e+003,3.901277e-003
2.952530e+003,3.426787e-003
2.954458e+003,3.011767e-003
2.956387e+003,2.694118e-003
2.958315e+003,2.480826e-003
2.960244e+003,2.011148e-003
2.962172e+003,1.452338e-003
2.964101e+003,1.190048e-003
2.966029e+003,9.156297e-004
2.967958e+003,6.075065e-004
2.969886e+003,3.828006e-004
2.971815e+003,1.893029e-004
2.973743e+003,3.691289e-005
2.975672e+003,-1.659036e-004
2.977600e+003,-3.247909e-004
2.979529e+003,-3.902761e-004
2.981457e+003,-4.675015e-004
2.983386e+003,-5.422313e-004
2.985314e+003,-6.779563e-004
2.987243e+003,-8.045110e-004
2.989171e+003,-8.061315e-004
2.991100e+003,-8.692956e-004
2.993028e+003,-9.306981e-004
2.994957e+003,-9.130751e-004
2.996885e+003,-9.986706e-004
2.998814e+003,-1.080746e-003
3.000742e+003,-1.084811e-003
3.002671e+003,-1.109136e-003
3.004599e+003,-1.212271e-003
3.006528e+003,-1.203119e-003
3.008456e+003,-1.180385e-003
3.010385e+003,-1.275178e-003
3.012313e+003,-1.228164e-003
3.014242e+003,-1.159170e-003
3.016170e+003,-1.251490e-003
3.018099e+003,-1.248021e-003
3.020027e+003,-1.291564e-003
3.021956e+003,-1.303523e-003
3.023884e+003,-1.351421e-003
3.025813e+003,-1.385441e-003
3.027741e+003,-1.487587e-003
3.029670e+003,-1.550090e-003
3.031598e+003,-1.446573e-003
3.033527e+003,-1.414803e-003
3.035455e+003,-1.426824e-003
3.037384e+003,-1.429962e-003
3.039312e+003,-1.411071e-003
3.041241e+003,-1.444657e-003
3.043169e+003,-1.536454e-003
3.045098e+003,-1.537379e-003
3.047026e+003,-1.518460e-003
3.048955e+003,-1.579540e-003
3.050883e+003,-1.633018e-003
3.052812e+003,-1.526153e-003
3.054740e+003,-1.485077e-003
3.056669e+003,-1.493068e-003
3.058597e+003,-1.540582e-003
3.060526e+003,-1.700287e-003
3.062454e+003,-1.662264e-003
3.064383e+003,-1.733587e-003
3.066311e+003,-1.914434e-003
3.068240e+003,-1.792426e-003
3.070168e+003,-1.689560e-003
3.072097e+003,-1.793053e-003
3.074025e+003,-1.893618e-003
3.075954e+003,-1.921460e-003
3.077882e+003,-1.866103e-003
3.079811e+003,-1.749560e-003
3.081739e+003,-1.789159e-003
3.083668e+003,-1.877551e-003
3.085596e+003,-1.947520e-003
3.087525e+003,-2.049863e-003
3.089453e+003,-1.999931e-003
3.091382e+003,-1.939141e-003
3.093310e+003,-1.841821e-003
3.095239e+003,-1.823674e-003
3.097167e+003,-1.886294e-003
3.099096e+003,-1.882137e-003
3.101024e+003,-1.894805e-003
3.102953e+003,-1.848452e-003
3.104881e+003,-1.885007e-003
3.106810e+003,-1.941648e-003
3.108738e+003,-1.881543e-003
3.110667e+003,-1.850663e-003
3.112595e+003,-1.914632e-003
3.114524e+003,-1.929740e-003
3.116452e+003,-1.888372e-003
3.118381e+003,-1.901601e-003
3.120309e+003,-1.909816e-003
3.122238e+003,-1.781075e-003
3.124166e+003,-1.751639e-003
3.126095e+003,-1.842678e-003
3.128023e+003,-1.916710e-003
3.129952e+003,-1.919712e-003
3.131880e+003,-1.993763e-003
3.133809e+003,-1.975986e-003
3.135737e+003,-1.875671e-003
3.137666e+003,-1.761539e-003
3.139594e+003,-1.686029e-003
3.141523e+003,-1.712598e-003
3.143451e+003,-1.698736e-003
3.145380e+003,-1.750550e-003
3.147308e+003,-1.845219e-003
3.149237e+003,-1.809782e-003
3.151165e+003,-1.678305e-003
3.153094e+003,-1.557717e-003
3.155022e+003,-1.629520e-003
3.156951e+003,-1.841491e-003
3.158879e+003,-1.799323e-003
3.160808e+003,-1.635296e-003
3.162736e+003,-1.534242e-003
3.164665e+003,-1.589840e-003
3.166593e+003,-1.761110e-003
3.168522e+003,-1.781900e-003
3.170450e+003,-1.632986e-003
3.172379e+003,-1.596145e-003
3.174307e+003,-1.617438e-003
3.176236e+003,-1.556462e-003
3.178164e+003,-1.470316e-003
3.180093e+003,-1.469227e-003
3.182021e+003,-1.536884e-003
3.183950e+003,-1.554349e-003
3.185878e+003,-1.536917e-003
3.187807e+003,-1.490063e-003
3.189735e+003,-1.415661e-003
3.191664e+003,-1.567258e-003
3.193592e+003,-1.605389e-003
3.195521e+003,-1.510766e-003
3.197449e+003,-1.541770e-003
3.199378e+003,-1.651371e-003
3.201306e+003,-1.684841e-003
3.203235e+003,-1.520573e-003
3.205163e+003,-1.464009e-003
3.207092e+003,-1.572838e-003
3.209020e+003,-1.544246e-003
3.210948e+003,-1.429664e-003
3.212877e+003,-1.388579e-003
3.214806e+003,-1.383195e-003
3.216734e+003,-1.414274e-003
3.218663e+003,-1.408924e-003
3.220591e+003,-1.284461e-003
3.222520e+003,-1.197535e-003
3.224448e+003,-1.291796e-003
3.226376e+003,-1.269958e-003
3.228305e+003,-1.106294e-003
3.230234e+003,-9.884555e-004
3.232162e+003,-1.000026e-003
3.234091e+003,-1.015001e-003
3.236019e+003,-1.061906e-003
3.237948e+003,-1.058237e-003
3.239876e+003,-8.648314e-004
3.241804e+003,-5.569241e-004
3.243733e+003,-4.443320e-004
3.245662e+003,-3.847477e-004
3.247590e+003,-2.920446e-004
3.249519e+003,-3.399547e-004
3.251447e+003,-1.955462e-004
3.253375e+003,-2.124035e-004
3.255304e+003,-2.494608e-004
3.257232e+003,-6.811824e-005
3.259161e+003,-2.915786e-006
3.261090e+003,2.037791e-005
3.263018e+003,3.953071e-005
3.264947e+003,2.813171e-005
3.266875e+003,-5.367681e-006
3.268803e+003,8.267730e-005
3.270732e+003,1.119081e-004
3.272660e+003,1.140955e-004
3.274589e+003,1.488968e-004
3.276518e+003,4.088933e-005
3.278446e+003,2.322758e-005
3.280375e+003,1.324238e-004
3.282303e+003,2.195022e-004
3.284231e+003,2.710879e-004
3.286160e+003,1.446210e-004
3.288088e+003,4.788133e-005
3.290017e+003,-7.521362e-006
3.291946e+003,5.344849e-005
3.293874e+003,3.340040e-005
3.295802e+003,-1.718654e-004
3.297731e+003,-2.067403e-004
3.299659e+003,-2.006796e-004
3.301588e+003,-3.611103e-004
3.303516e+003,-6.324988e-004
3.305445e+003,-6.603561e-004
3.307374e+003,-5.675133e-004
3.309302e+003,-6.897334e-004
3.311230e+003,-7.659795e-004
3.313159e+003,-8.642031e-004
3.315087e+003,-1.017943e-003
3.317016e+003,-9.245814e-004
3.318944e+003,-9.884555e-004
3.320873e+003,-1.209562e-003
3.322802e+003,-1.280563e-003
3.324730e+003,-1.363642e-003
3.326658e+003,-1.529653e-003
3.328587e+003,-1.580365e-003
3.330515e+003,-1.682068e-003
3.332444e+003,-1.769162e-003
3.334372e+003,-1.752926e-003
3.336301e+003,-1.738109e-003
3.338229e+003,-1.775828e-003
3.340158e+003,-1.915160e-003
3.342086e+003,-1.837993e-003
3.344015e+003,-1.832582e-003
3.345943e+003,-1.895927e-003
3.347872e+003,-1.921361e-003
3.349800e+003,-1.993698e-003
3.351729e+003,-2.129695e-003
3.353657e+003,-2.217062e-003
3.355586e+003,-2.283713e-003
3.357514e+003,-2.154786e-003
3.359443e+003,-2.201766e-003
3.361371e+003,-2.375300e-003
3.363300e+003,-2.296205e-003
3.365229e+003,-2.343762e-003
3.367157e+003,-2.589048e-003
3.369085e+003,-2.884394e-003
3.371014e+003,-3.034492e-003
3.372942e+003,-2.987141e-003
3.374871e+003,-2.943603e-003
3.376799e+003,-2.998395e-003
3.378728e+003,-3.120229e-003
3.380656e+003,-3.199503e-003
3.382585e+003,-3.228775e-003
3.384513e+003,-3.314080e-003
3.386442e+003,-3.405877e-003
3.388370e+003,-3.509750e-003
3.390299e+003,-3.628714e-003
3.392227e+003,-3.556584e-003
3.394156e+003,-3.680463e-003
3.396084e+003,-3.766599e-003
3.398013e+003,-3.797606e-003
3.399941e+003,-3.856034e-003
3.401870e+003,-3.803551e-003
3.403798e+003,-3.803255e-003
3.405727e+003,-3.772445e-003
3.407655e+003,-3.788048e-003
3.409584e+003,-3.829169e-003
3.411512e+003,-3.893340e-003
3.413441e+003,-3.970471e-003
3.415369e+003,-3.972407e-003
3.417298e+003,-3.930741e-003
3.419226e+003,-3.802533e-003
3.421155e+003,-3.747415e-003
3.423083e+003,-3.869630e-003
3.425012e+003,-4.006782e-003
3.426940e+003,-4.023131e-003
3.428869e+003,-3.972013e-003
3.430797e+003,-4.013807e-003
3.432726e+003,-4.137720e-003
3.434654e+003,-4.107426e-003
3.436583e+003,-4.102142e-003
3.438511e+003,-4.150749e-003
3.440440e+003,-3.977759e-003
3.442368e+003,-4.104144e-003
3.444297e+003,-4.310253e-003
3.446225e+003,-4.193707e-003
3.448154e+003,-4.174575e-003
3.450082e+003,-4.184289e-003
3.452011e+003,-4.120030e-003
3.453939e+003,-4.140575e-003
3.455868e+003,-4.231246e-003
3.457796e+003,-4.320291e-003
3.459725e+003,-4.335874e-003
3.461653e+003,-4.199515e-003
3.463582e+003,-4.135915e-003
3.465510e+003,-4.243486e-003
3.467439e+003,-4.379699e-003
3.469367e+003,-4.441722e-003
3.471296e+003,-4.348143e-003
3.473224e+003,-4.366414e-003
3.475153e+003,-4.393443e-003
3.477081e+003,-4.378780e-003
3.479010e+003,-4.435458e-003
3.480938e+003,-4.502327e-003
3.482867e+003,-4.606856e-003
3.484795e+003,-4.425356e-003
3.486724e+003,-4.216284e-003
3.488652e+003,-4.328656e-003
3.490581e+003,-4.441197e-003
3.492509e+003,-4.368316e-003
3.494438e+003,-4.355392e-003
3.496366e+003,-4.318815e-003
3.498295e+003,-4.335218e-003
3.500223e+003,-4.336661e-003
3.502152e+003,-4.228490e-003
3.504080e+003,-4.281841e-003
3.506009e+003,-4.438738e-003
3.507937e+003,-4.493407e-003
3.509866e+003,-4.420699e-003
3.511794e+003,-4.354835e-003
3.513723e+003,-4.473993e-003
3.515651e+003,-4.557251e-003
3.517580e+003,-4.450020e-003
3.519508e+003,-4.339876e-003
3.521437e+003,-4.358115e-003
3.523365e+003,-4.411417e-003
3.525294e+003,-4.496063e-003
3.527222e+003,-4.444936e-003
3.529151e+003,-4.370252e-003
3.531079e+003,-4.389539e-003
3.533008e+003,-4.538757e-003
3.534936e+003,-4.536298e-003
3.536865e+003,-4.438738e-003
3.538793e+003,-4.656522e-003
3.540722e+003,-4.686384e-003
3.542650e+003,-4.610889e-003
3.544579e+003,-4.464975e-003
3.546507e+003,-4.191705e-003
3.548436e+003,-4.173886e-003
3.550364e+003,-4.169882e-003
3.552293e+003,-4.209622e-003
3.554221e+003,-4.341680e-003
3.556150e+003,-4.379994e-003
3.558078e+003,-4.306775e-003
3.560007e+003,-4.466089e-003
3.561935e+003,-4.618265e-003
3.563864e+003,-4.390162e-003
3.565792e+003,-4.204077e-003
3.567721e+003,-4.370022e-003
3.569649e+003,-4.586464e-003
3.571578e+003,-4.540463e-003
3.573506e+003,-4.362576e-003
3.575435e+003,-4.327968e-003
3.577363e+003,-4.356672e-003
3.579292e+003,-4.477732e-003
3.581220e+003,-4.575546e-003
3.583149e+003,-4.462088e-003
3.585077e+003,-4.280889e-003
3.587006e+003,-4.180548e-003
3.588934e+003,-4.236792e-003
3.590863e+003,-4.268881e-003
3.592791e+003,-4.139525e-003
3.594720e+003,-4.013184e-003
3.596648e+003,-4.062753e-003
3.598577e+003,-4.354933e-003
3.600505e+003,-4.441657e-003
3.602434e+003,-4.245192e-003
3.604362e+003,-4.093871e-003
3.606291e+003,-4.136276e-003
3.608219e+003,-3.983505e-003
3.610148e+003,-4.003893e-003
3.612076e+003,-4.165550e-003
3.614005e+003,-4.238695e-003
3.615933e+003,-4.092065e-003
3.617862e+003,-3.958979e-003
3.619790e+003,-4.041777e-003
3.621719e+003,-4.332757e-003
3.623647e+003,-4.345158e-003
3.625576e+003,-4.178448e-003
3.627504e+003,-3.779475e-003
3.629433e+003,-3.422775e-003
3.631361e+003,-3.894227e-003
3.633290e+003,-4.162334e-003
3.635218e+003,-4.258415e-003
3.637146e+003,-4.231804e-003
3.639075e+003,-4.301591e-003
3.641004e+003,-4.576529e-003
3.642932e+003,-4.535315e-003
3.644861e+003,-4.399183e-003
3.646789e+003,-4.123508e-003
3.648718e+003,-3.843062e-003
3.650646e+003,-4.043517e-003
3.652574e+003,-4.483307e-003
3.654503e+003,-4.380585e-003
3.656432e+003,-4.126430e-003
3.658360e+003,-4.415255e-003
3.660289e+003,-4.581742e-003
3.662217e+003,-4.548758e-003
3.664146e+003,-4.671994e-003
3.666074e+003,-4.828291e-003
3.668002e+003,-4.693038e-003
3.669931e+003,-4.612593e-003
3.671860e+003,-4.668257e-003
3.673788e+003,-4.303954e-003
3.675717e+003,-4.005075e-003
3.677645e+003,-4.374943e-003
3.679573e+003,-4.546200e-003
3.681502e+003,-4.554693e-003
3.683430e+003,-4.635279e-003
3.685359e+003,-4.779497e-003
3.687288e+003,-4.595053e-003
3.689216e+003,-4.202830e-003
3.691145e+003,-4.239909e-003
3.693073e+003,-4.421093e-003
3.695001e+003,-4.471533e-003
3.696930e+003,-4.311335e-003
3.698858e+003,-4.191246e-003
3.700787e+003,-4.266519e-003
3.702716e+003,-4.329313e-003
3.704644e+003,-4.288468e-003
3.706573e+003,-4.169882e-003
3.708501e+003,-4.165780e-003
3.710429e+003,-3.989480e-003
3.712358e+003,-3.930479e-003
3.714286e+003,-4.259957e-003
3.716215e+003,-4.492292e-003
3.718144e+003,-4.325114e-003
3.720072e+003,-4.167979e-003
3.722000e+003,-3.980878e-003
3.723929e+003,-3.989907e-003
3.725857e+003,-4.171261e-003
3.727786e+003,-4.256151e-003
3.729714e+003,-4.194593e-003
3.731643e+003,-4.049459e-003
3.733572e+003,-3.819874e-003
3.735500e+003,-3.491312e-003
3.737428e+003,-3.638506e-003
3.739357e+003,-4.046701e-003
3.741285e+003,-4.130336e-003
3.743214e+003,-3.649184e-003
3.745142e+003,-3.325884e-003
3.747071e+003,-3.539429e-003
3.749000e+003,-3.332724e-003
3.750928e+003,-3.325227e-003
3.752856e+003,-3.493810e-003
3.754785e+003,-3.787391e-003
3.756713e+003,-3.852980e-003
3.758642e+003,-3.942923e-003
3.760570e+003,-3.747283e-003
3.762499e+003,-3.773792e-003
3.764427e+003,-3.909135e-003
3.766356e+003,-3.741174e-003
3.768284e+003,-3.652700e-003
3.770213e+003,-3.449172e-003
3.772141e+003,-3.562992e-003
3.774070e+003,-3.699288e-003
3.775998e+003,-3.699156e-003
3.777927e+003,-3.721168e-003
3.779855e+003,-3.558622e-003
3.781784e+003,-3.620236e-003
3.783712e+003,-3.609097e-003
3.785641e+003,-3.418370e-003
3.787569e+003,-3.499069e-003
3.789498e+003,-3.854556e-003
3.791426e+003,-4.045650e-003
3.793355e+003,-4.072633e-003
3.795283e+003,-3.929559e-003
3.797212e+003,-3.633216e-003
3.799140e+003,-3.390426e-003
3.801069e+003,-3.213515e-003
3.802997e+003,-3.483390e-003
3.804926e+003,-3.578405e-003
3.806854e+003,-3.400223e-003
3.808783e+003,-3.627893e-003
3.810711e+003,-3.800365e-003
3.812640e+003,-3.907559e-003
3.814568e+003,-3.924043e-003
3.816497e+003,-3.457981e-003
3.818425e+003,-3.206706e-003
3.820354e+003,-2.987668e-003
3.822282e+003,-3.171907e-003
3.824211e+003,-3.619941e-003
3.826139e+003,-3.650170e-003
3.828068e+003,-3.688216e-003
3.829996e+003,-3.556157e-003
3.831925e+003,-3.544194e-003
3.833853e+003,-3.526743e-003
3.835782e+003,-3.364551e-003
3.837710e+003,-3.215061e-003
3.839639e+003,-3.390853e-003
3.841567e+003,-3.461926e-003
3.843496e+003,-3.474515e-003
3.845424e+003,-3.710392e-003
3.847353e+003,-3.935404e-003
3.849281e+003,-3.861880e-003
3.851210e+003,-3.298461e-003
3.853138e+003,-2.738327e-003
3.855067e+003,-2.749850e-003
3.856995e+003,-3.209403e-003
3.858924e+003,-3.539231e-003
3.860852e+003,-3.418633e-003
3.862781e+003,-3.098254e-003
3.864709e+003,-3.115920e-003
3.866638e+003,-3.485855e-003
3.868566e+003,-3.273600e-003
3.870495e+003,-2.982205e-003
3.872423e+003,-3.062426e-003
3.874352e+003,-3.089042e-003
3.876280e+003,-3.173815e-003
3.878209e+003,-3.371587e-003
3.880137e+003,-3.416627e-003
3.882066e+003,-3.475271e-003
3.883994e+003,-3.552838e-003
3.885923e+003,-3.311318e-003
3.887851e+003,-3.220093e-003
3.889780e+003,-3.103386e-003
3.891708e+003,-3.183354e-003
3.893637e+003,-3.472313e-003
3.895565e+003,-3.686738e-003
3.897494e+003,-3.669489e-003
3.899422e+003,-3.480629e-003
3.901351e+003,-3.444767e-003
3.903279e+003,-3.295435e-003
3.905208e+003,-3.209272e-003
3.907136e+003,-3.570485e-003
3.909065e+003,-3.639919e-003
3.910993e+003,-3.502257e-003
3.912922e+003,-3.376058e-003
3.914850e+003,-3.316382e-003
3.916779e+003,-3.417285e-003
3.918707e+003,-3.587015e-003
3.920636e+003,-3.657267e-003
3.922564e+003,-3.448777e-003
3.924493e+003,-3.224533e-003
3.926421e+003,-3.125624e-003
3.928350e+003,-3.386382e-003
3.930278e+003,-3.689498e-003
3.932207e+003,-3.698992e-003
3.934135e+003,-3.611167e-003
3.936064e+003,-3.421920e-003
3.937992e+003,-3.189537e-003
3.939921e+003,-3.208811e-003
3.941849e+003,-3.351992e-003
3.943778e+003,-3.498904e-003
3.945706e+003,-3.409033e-003
3.947635e+003,-3.145263e-003
3.949563e+003,-3.257782e-003
3.951492e+003,-3.416825e-003
3.953420e+003,-3.476980e-003
3.955349e+003,-3.686114e-003
3.957277e+003,-3.636863e-003
3.959206e+003,-3.525724e-003
3.961134e+003,-3.604727e-003
3.963063e+003,-3.396343e-003
3.964991e+003,-3.259459e-003
3.966920e+003,-3.434182e-003
3.968848e+003,-3.385560e-003
3.970777e+003,-3.430796e-003
3.972705e+003,-3.442301e-003
3.974634e+003,-3.323681e-003
3.976562e+003,-3.394732e-003
3.978491e+003,-3.440954e-003
3.980419e+003,-3.411893e-003
3.982348e+003,-3.342686e-003
3.984276e+003,-3.300631e-003
3.986205e+003,-3.449533e-003
3.988133e+003,-3.362480e-003
3.990062e+003,-3.126348e-003
3.991990e+003,-3.324470e-003
3.993919e+003,-3.561185e-003
3.995847e+003,-3.624311e-003
3.997776e+003,-3.509783e-003
3.999704e+003,-3.313784e-003
4.001633e+003,0.000000e+000
