3.991989e+002,1.152643e-002
4.011274e+002,7.452637e-003
4.030559e+002,2.132532e-003
4.049844e+002,3.181926e-003
4.069129e+002,6.100443e-003
4.088414e+002,1.281804e-002
4.107699e+002,1.361529e-002
4.126984e+002,1.140348e-002
4.146269e+002,9.656727e-003
4.165554e+002,9.543688e-003
4.184839e+002,9.011676e-003
4.204124e+002,1.510456e-002
4.223409e+002,1.672459e-002
4.242694e+002,1.380351e-002
4.261979e+002,8.287836e-003
4.281264e+002,1.371147e-002
4.300549e+002,1.971354e-002
4.319834e+002,1.554919e-002
4.339119e+002,1.189964e-002
4.358404e+002,1.059239e-002
4.377689e+002,1.088077e-002
4.396974e+002,4.812915e-003
4.416259e+002,2.637939e-004
4.435544e+002,4.072621e-003
4.454829e+002,6.128132e-003
4.474114e+002,7.553940e-003
4.493399e+002,8.804828e-003
4.512684e+002,8.418049e-003
4.531969e+002,6.932841e-003
4.551254e+002,7.784143e-003
4.570539e+002,9.189786e-003
4.589824e+002,8.549009e-003
4.609109e+002,6.791024e-003
4.628394e+002,7.710914e-003
4.647679e+002,7.786234e-003
4.666964e+002,6.514021e-003
4.686249e+002,6.421737e-003
4.705533e+002,7.848646e-003
4.724819e+002,7.287535e-003
4.744103e+002,6.748081e-003
4.763389e+002,7.063085e-003
4.782673e+002,6.425974e-003
4.801959e+002,6.021114e-003
4.821243e+002,6.398400e-003
4.840529e+002,5.353122e-003
4.859813e+002,4.946513e-003
4.879099e+002,5.134531e-003
4.898383e+002,5.302070e-003
4.917668e+002,5.039322e-003
4.936953e+002,3.320799e-003
4.956238e+002,2.913752e-003
4.975523e+002,5.550714e-003
4.994808e+002,4.813116e-003
5.014093e+002,3.693841e-003
5.033378e+002,6.071747e-003
5.052663e+002,9.399424e-003
5.071948e+002,6.945769e-003
5.091233e+002,2.972365e-003
5.110518e+002,2.527549e-003
5.129803e+002,3.465328e-003
5.149088e+002,2.803855e-003
5.168373e+002,2.282861e-003
5.187658e+002,3.979751e-003
5.206943e+002,2.854648e-003
5.226228e+002,1.681091e-003
5.245513e+002,2.397092e-003
5.264798e+002,1.982355e-003
5.284083e+002,1.827471e-003
5.303368e+002,2.932366e-003
5.322653e+002,3.458615e-003
5.341938e+002,3.462823e-003
5.361223e+002,2.312973e-003
5.380508e+002,1.861445e-003
5.399792e+002,2.066842e-003
5.419078e+002,2.581910e-003
5.438363e+002,3.018139e-003
5.457648e+002,2.243425e-003
5.476932e+002,2.323300e-003
5.496218e+002,2.334593e-003
5.515503e+002,3.073929e-003
5.534788e+002,2.628776e-003
5.554072e+002,1.904540e-003
5.573358e+002,1.793200e-003
5.592643e+002,1.692301e-003
5.611927e+002,1.093440e-003
5.631212e+002,2.315572e-003
5.650497e+002,2.682316e-003
5.669783e+002,2.066109e-003
5.689067e+002,1.810468e-003
5.708352e+002,1.308345e-003
5.727637e+002,1.064808e-003
5.746923e+002,1.406695e-003
5.766207e+002,6.325585e-004
5.785492e+002,-9.901415e-004
5.804777e+002,-5.940640e-003
5.824063e+002,-3.342752e-003
5.843347e+002,1.833859e-003
5.862632e+002,2.071203e-003
5.881917e+002,2.165497e-003
5.901202e+002,2.875193e-003
5.920487e+002,3.314756e-003
5.939772e+002,1.714355e-003
5.959057e+002,1.143635e-003
5.978342e+002,2.707621e-003
5.997627e+002,3.028850e-003
6.016912e+002,1.705673e-003
6.036197e+002,1.760196e-003
6.055482e+002,3.305308e-003
6.074767e+002,3.942234e-003
6.094052e+002,3.031252e-003
6.113337e+002,1.008046e-003
6.132622e+002,1.971260e-004
6.151907e+002,9.419612e-004
6.171192e+002,1.008079e-003
6.190477e+002,7.326480e-004
6.209762e+002,6.077389e-004
6.229047e+002,1.014223e-003
6.248332e+002,1.478237e-003
6.267617e+002,1.069391e-003
6.286902e+002,1.388080e-003
6.306187e+002,1.691535e-003
6.325472e+002,1.563357e-003
6.344756e+002,1.700051e-003
6.364042e+002,1.731420e-003
6.383326e+002,1.766917e-003
6.402612e+002,2.080625e-003
6.421896e+002,2.134496e-003
6.441182e+002,2.029889e-003
6.460466e+002,1.554811e-003
6.479752e+002,1.795895e-003
6.499036e+002,2.054124e-003
6.518322e+002,1.979059e-003
6.537606e+002,2.038311e-003
6.556891e+002,1.905338e-003
6.576177e+002,1.465736e-003
6.595461e+002,1.346233e-003
6.614746e+002,1.722205e-003
6.634031e+002,1.606257e-003
6.653317e+002,1.911528e-003
6.672601e+002,2.826566e-003
6.691886e+002,3.104530e-003
6.711171e+002,2.805022e-003
6.730457e+002,2.684816e-003
6.749741e+002,2.518551e-003
6.769026e+002,2.842908e-003
6.788311e+002,3.235901e-003
6.807596e+002,3.425217e-003
6.826881e+002,3.385177e-003
6.846166e+002,3.107267e-003
6.865451e+002,3.077934e-003
6.884736e+002,2.942707e-003
6.904021e+002,2.884566e-003
6.923306e+002,3.297629e-003
6.942591e+002,3.583779e-003
6.961876e+002,2.847477e-003
6.981161e+002,2.544713e-003
7.000446e+002,2.158405e-003
7.019731e+002,2.249321e-003
7.039016e+002,2.806289e-003
7.058301e+002,2.870424e-003
7.077585e+002,2.480860e-003
7.096871e+002,2.515285e-003
7.116156e+002,3.186499e-003
7.135441e+002,3.201419e-003
7.154725e+002,2.366940e-003
7.174011e+002,2.413351e-003
7.193296e+002,2.893805e-003
7.212581e+002,3.281036e-003
7.231865e+002,3.227456e-003
7.251151e+002,3.087711e-003
7.270436e+002,3.138671e-003
7.289720e+002,3.356326e-003
7.309005e+002,3.578534e-003
7.328290e+002,3.093251e-003
7.347576e+002,3.022710e-003
7.366860e+002,3.836455e-003
7.386145e+002,4.149421e-003
7.405430e+002,4.005099e-003
7.424716e+002,3.933073e-003
7.444000e+002,4.302357e-003
7.463285e+002,4.672391e-003
7.482570e+002,4.472789e-003
7.501855e+002,4.560809e-003
7.521140e+002,5.050082e-003
7.540425e+002,5.273494e-003
7.559710e+002,5.012473e-003
7.578995e+002,4.875035e-003
7.598280e+002,4.694397e-003
7.617565e+002,4.600021e-003
7.636850e+002,4.604039e-003
7.656135e+002,4.807421e-003
7.675420e+002,5.122964e-003
7.694705e+002,5.659832e-003
7.713990e+002,5.464775e-003
7.733275e+002,4.944502e-003
7.752560e+002,4.934181e-003
7.771844e+002,5.194350e-003
7.791130e+002,5.197032e-003
7.810415e+002,4.906835e-003
7.829700e+002,4.914207e-003
7.848984e+002,5.237140e-003
7.868270e+002,5.394486e-003
7.887555e+002,4.999903e-003
7.906840e+002,4.638331e-003
7.926124e+002,4.740219e-003
7.945410e+002,5.187040e-003
7.964695e+002,5.510746e-003
7.983979e+002,5.399417e-003
8.003264e+002,5.023836e-003
8.022549e+002,5.222384e-003
8.041835e+002,5.484974e-003
8.061119e+002,5.850141e-003
8.080404e+002,6.360808e-003
8.099689e+002,6.317134e-003
8.118975e+002,6.057702e-003
8.138259e+002,6.608343e-003
8.157545e+002,7.357963e-003
8.176830e+002,6.939575e-003
8.196115e+002,5.903844e-003
8.215399e+002,5.225738e-003
8.234684e+002,5.301601e-003
8.253970e+002,4.920943e-003
8.273254e+002,4.124533e-003
8.292539e+002,3.875735e-003
8.311824e+002,3.599949e-003
8.331110e+002,3.637837e-003
8.350394e+002,3.693406e-003
8.369679e+002,3.802828e-003
8.388964e+002,3.586118e-003
8.408250e+002,3.408052e-003
8.427534e+002,3.341701e-003
8.446819e+002,3.699321e-003
8.466104e+002,3.656349e-003
8.485389e+002,3.333721e-003
8.504674e+002,3.222315e-003
8.523959e+002,3.097188e-003
8.543244e+002,3.174182e-003
8.562529e+002,3.265946e-003
8.581814e+002,3.375460e-003
8.601099e+002,3.725421e-003
8.620384e+002,3.743301e-003
8.639669e+002,3.465829e-003
8.658954e+002,3.383441e-003
8.678239e+002,3.701928e-003
8.697524e+002,3.540116e-003
8.716809e+002,3.232229e-003
8.736094e+002,3.208596e-003
8.755378e+002,3.418304e-003
8.774664e+002,3.463792e-003
8.793949e+002,3.426787e-003
8.813234e+002,3.402509e-003
8.832518e+002,3.224585e-003
8.851804e+002,2.855448e-003
8.871089e+002,2.614309e-003
8.890374e+002,2.820496e-003
8.909658e+002,2.923059e-003
8.928943e+002,3.053374e-003
8.948229e+002,3.243779e-003
8.967513e+002,3.088412e-003
8.986798e+002,3.015770e-003
9.006083e+002,2.894539e-003
9.025369e+002,2.989646e-003
9.044653e+002,2.777543e-003
9.063938e+002,2.339690e-003
9.083223e+002,2.172757e-003
9.102509e+002,2.302614e-003
9.121793e+002,2.322933e-003
9.141078e+002,2.175754e-003
9.160364e+002,2.365641e-003
9.179648e+002,2.747399e-003
9.198933e+002,2.673281e-003
9.218218e+002,2.326531e-003
9.237504e+002,2.180982e-003
9.256788e+002,1.985550e-003
9.276073e+002,1.926871e-003
9.295358e+002,2.308076e-003
9.314644e+002,2.649044e-003
9.333928e+002,2.868723e-003
9.353213e+002,2.830568e-003
9.372498e+002,2.697686e-003
9.391783e+002,2.509719e-003
9.411068e+002,2.705854e-003
9.430353e+002,3.035022e-003
9.449637e+002,2.895406e-003
9.468923e+002,2.668147e-003
9.488208e+002,3.003759e-003
9.507493e+002,3.464994e-003
9.526777e+002,3.370918e-003
9.546063e+002,3.097455e-003
9.565348e+002,3.169276e-003
9.584633e+002,3.279200e-003
9.603917e+002,3.003225e-003
9.623203e+002,2.752101e-003
9.642488e+002,2.704320e-003
9.661772e+002,2.684650e-003
9.681057e+002,2.872992e-003
9.700343e+002,3.042730e-003
9.719628e+002,2.870691e-003
9.738912e+002,2.303913e-003
9.758197e+002,2.224009e-003
9.777483e+002,2.543680e-003
9.796768e+002,2.616776e-003
9.816052e+002,2.582943e-003
9.835337e+002,2.516184e-003
9.854623e+002,2.460533e-003
9.873907e+002,2.411985e-003
9.893192e+002,2.342588e-003
9.912477e+002,2.581876e-003
9.931763e+002,2.700153e-003
9.951047e+002,2.763371e-003
9.970332e+002,3.100025e-003
9.989617e+002,3.183795e-003
1.000890e+003,3.335057e-003
1.002819e+003,3.635632e-003
1.004747e+003,3.810983e-003
1.006676e+003,4.059678e-003
1.008604e+003,4.331003e-003
1.010533e+003,4.494114e-003
1.012461e+003,4.703474e-003
1.014390e+003,5.056150e-003
1.016318e+003,5.315219e-003
1.018247e+003,5.455514e-003
1.020175e+003,5.466117e-003
1.022104e+003,5.674435e-003
1.024032e+003,6.035427e-003
1.025961e+003,6.208523e-003
1.027889e+003,6.234337e-003
1.029818e+003,6.395844e-003
1.031746e+003,6.509783e-003
1.033675e+003,6.816469e-003
1.035603e+003,7.287266e-003
1.037532e+003,7.290500e-003
1.039460e+003,7.299430e-003
1.041389e+003,7.551850e-003
1.043317e+003,7.621848e-003
1.045246e+003,7.547264e-003
1.047174e+003,7.828639e-003
1.049103e+003,7.979502e-003
1.051031e+003,7.970626e-003
1.052960e+003,8.191663e-003
1.054888e+003,8.169176e-003
1.056817e+003,7.876582e-003
1.058745e+003,7.869091e-003
1.060674e+003,7.907590e-003
1.062602e+003,8.146589e-003
1.064531e+003,8.361635e-003
1.066459e+003,8.260786e-003
1.068388e+003,8.207398e-003
1.070316e+003,8.208782e-003
1.072245e+003,8.378356e-003
1.074173e+003,8.514644e-003
1.076102e+003,8.493593e-003
1.078030e+003,8.208647e-003
1.079959e+003,8.235863e-003
1.081887e+003,8.657294e-003
1.083816e+003,8.785657e-003
1.085744e+003,8.863633e-003
1.087673e+003,9.028895e-003
1.089601e+003,9.018103e-003
1.091530e+003,9.188568e-003
1.093458e+003,9.614787e-003
1.095387e+003,9.521706e-003
1.097315e+003,9.417810e-003
1.099244e+003,9.439515e-003
1.101172e+003,9.602659e-003
1.103101e+003,9.568617e-003
1.105029e+003,9.386897e-003
1.106958e+003,9.264348e-003
1.108886e+003,9.257545e-003
1.110815e+003,9.521165e-003
1.112743e+003,9.607945e-003
1.114672e+003,9.481608e-003
1.116600e+003,9.553205e-003
1.118529e+003,9.645073e-003
1.120457e+003,9.636265e-003
1.122386e+003,9.814396e-003
1.124314e+003,9.993039e-003
1.126243e+003,9.690947e-003
1.128171e+003,9.352126e-003
1.130100e+003,9.332558e-003
1.132028e+003,9.121735e-003
1.133957e+003,8.978930e-003
1.135885e+003,9.004876e-003
1.137814e+003,8.923087e-003
1.139742e+003,8.639887e-003
1.141671e+003,8.329209e-003
1.143599e+003,8.186058e-003
1.145528e+003,8.012543e-003
1.147456e+003,7.646600e-003
1.149385e+003,7.300205e-003
1.151313e+003,6.982301e-003
1.153242e+003,6.767701e-003
1.155170e+003,6.539954e-003
1.157099e+003,6.369214e-003
1.159027e+003,6.103434e-003
1.160956e+003,5.959334e-003
1.162884e+003,5.770757e-003
1.164813e+003,5.487659e-003
1.166741e+003,5.306732e-003
1.168670e+003,5.318271e-003
1.170598e+003,5.424647e-003
1.172526e+003,5.409012e-003
1.174455e+003,5.380328e-003
1.176384e+003,5.412233e-003
1.178312e+003,5.160684e-003
1.180240e+003,4.982374e-003
1.182169e+003,4.978587e-003
1.184098e+003,4.854260e-003
1.186026e+003,4.792378e-003
1.187954e+003,4.717776e-003
1.189883e+003,4.320294e-003
1.191812e+003,4.203884e-003
1.193740e+003,4.489595e-003
1.195668e+003,4.570854e-003
1.197597e+003,4.343051e-003
1.199526e+003,4.288938e-003
1.201454e+003,4.184714e-003
1.203382e+003,4.157550e-003
1.205311e+003,4.230583e-003
1.207240e+003,4.288269e-003
1.209168e+003,4.432719e-003
1.211096e+003,4.401991e-003
1.213025e+003,4.347134e-003
1.214953e+003,4.449624e-003
1.216882e+003,4.453306e-003
1.218810e+003,4.439079e-003
1.220739e+003,4.418057e-003
1.222667e+003,4.422476e-003
1.224596e+003,4.408618e-003
1.226524e+003,4.430610e-003
1.228453e+003,4.401455e-003
1.230381e+003,4.525485e-003
1.232310e+003,4.625136e-003
1.234238e+003,4.576580e-003
1.236167e+003,4.673430e-003
1.238095e+003,4.694028e-003
1.240024e+003,4.678956e-003
1.241952e+003,4.893933e-003
1.243881e+003,5.046093e-003
1.245809e+003,5.253975e-003
1.247738e+003,5.302976e-003
1.249666e+003,5.345273e-003
1.251595e+003,5.584041e-003
1.253523e+003,5.894205e-003
1.255452e+003,6.210808e-003
1.257380e+003,6.553241e-003
1.259309e+003,6.919644e-003
1.261237e+003,7.217658e-003
1.263166e+003,7.605190e-003
1.265094e+003,7.784615e-003
1.267023e+003,8.057367e-003
1.268951e+003,8.421967e-003
1.270880e+003,8.798472e-003
1.272808e+003,9.283135e-003
1.274737e+003,9.627254e-003
1.276665e+003,1.005292e-002
1.278594e+003,1.048763e-002
1.280522e+003,1.083029e-002
1.282451e+003,1.116925e-002
1.284379e+003,1.146271e-002
1.286308e+003,1.201865e-002
1.288236e+003,1.250518e-002
1.290165e+003,1.286446e-002
1.292093e+003,1.321976e-002
1.294022e+003,1.341054e-002
1.295950e+003,1.373326e-002
1.297879e+003,1.402863e-002
1.299807e+003,1.420799e-002
1.301736e+003,1.413456e-002
1.303664e+003,1.403496e-002
1.305593e+003,1.409098e-002
1.307521e+003,1.407685e-002
1.309450e+003,1.373544e-002
1.311378e+003,1.319185e-002
1.313307e+003,1.284589e-002
1.315235e+003,1.262868e-002
1.317164e+003,1.231084e-002
1.319092e+003,1.180583e-002
1.321021e+003,1.123242e-002
1.322949e+003,1.088176e-002
1.324878e+003,1.064695e-002
1.326806e+003,1.035150e-002
1.328735e+003,1.022315e-002
1.330663e+003,1.011250e-002
1.332592e+003,9.871370e-003
1.334520e+003,9.716223e-003
1.336449e+003,9.730861e-003
1.338377e+003,9.763358e-003
1.340306e+003,9.703618e-003
1.342234e+003,9.734995e-003
1.344163e+003,9.783724e-003
1.346091e+003,9.755326e-003
1.348020e+003,9.678377e-003
1.349948e+003,9.560725e-003
1.351877e+003,9.403115e-003
1.353805e+003,9.293932e-003
1.355734e+003,9.165826e-003
1.357662e+003,9.008597e-003
1.359591e+003,8.937766e-003
1.361519e+003,8.884599e-003
1.363448e+003,8.712597e-003
1.365376e+003,8.566582e-003
1.367305e+003,8.502750e-003
1.369233e+003,8.481902e-003
1.371162e+003,8.394469e-003
1.373090e+003,8.403285e-003
1.375019e+003,8.427034e-003
1.376947e+003,8.523530e-003
1.378876e+003,8.681463e-003
1.380804e+003,8.893765e-003
1.382733e+003,8.835767e-003
1.384661e+003,8.553267e-003
1.386590e+003,8.356230e-003
1.388518e+003,8.271187e-003
1.390447e+003,8.105909e-003
1.392375e+003,7.873612e-003
1.394304e+003,7.706495e-003
1.396232e+003,7.595918e-003
1.398161e+003,7.416605e-003
1.400089e+003,7.387924e-003
1.402018e+003,7.345899e-003
1.403946e+003,7.237872e-003
1.405875e+003,7.150015e-003
1.407803e+003,7.046550e-003
1.409732e+003,6.903383e-003
1.411660e+003,6.807180e-003
1.413589e+003,6.744413e-003
1.415517e+003,6.982571e-003
1.417446e+003,7.461502e-003
1.419374e+003,8.026618e-003
1.421303e+003,8.500857e-003
1.423231e+003,9.093786e-003
1.425160e+003,9.902657e-003
1.427088e+003,1.060488e-002
1.429017e+003,1.102332e-002
1.430945e+003,1.125044e-002
1.432874e+003,1.144757e-002
1.434802e+003,1.185384e-002
1.436731e+003,1.224922e-002
1.438659e+003,1.259726e-002
1.440588e+003,1.294255e-002
1.442516e+003,1.352493e-002
1.444445e+003,1.419494e-002
1.446373e+003,1.494362e-002
1.448302e+003,1.555981e-002
1.450230e+003,1.597352e-002
1.452159e+003,1.659627e-002
1.454087e+003,1.734758e-002
1.456016e+003,1.792775e-002
1.457944e+003,1.834723e-002
1.459873e+003,1.857053e-002
1.461801e+003,1.881706e-002
1.463730e+003,1.898038e-002
1.465658e+003,1.907343e-002
1.467587e+003,1.901586e-002
1.469515e+003,1.895930e-002
1.471444e+003,1.884589e-002
1.473372e+003,1.851877e-002
1.475301e+003,1.812158e-002
1.477229e+003,1.762769e-002
1.479158e+003,1.711594e-002
1.481086e+003,1.648351e-002
1.483015e+003,1.584728e-002
1.484943e+003,1.534278e-002
1.486872e+003,1.503252e-002
1.488800e+003,1.466185e-002
1.490729e+003,1.397032e-002
1.492657e+003,1.318595e-002
1.494586e+003,1.287398e-002
1.496514e+003,1.256899e-002
1.498443e+003,1.203449e-002
1.500371e+003,1.145866e-002
1.502300e+003,1.096786e-002
1.504228e+003,1.061612e-002
1.506157e+003,1.048090e-002
1.508085e+003,1.032062e-002
1.510014e+003,9.985275e-003
1.511942e+003,9.733843e-003
1.513871e+003,9.610214e-003
1.515799e+003,9.485977e-003
1.517728e+003,9.490481e-003
1.519656e+003,9.559574e-003
1.521585e+003,9.616684e-003
1.523513e+003,9.650358e-003
1.525442e+003,9.817344e-003
1.527370e+003,9.941099e-003
1.529299e+003,1.004275e-002
1.531227e+003,1.024649e-002
1.533156e+003,1.059320e-002
1.535084e+003,1.080593e-002
1.537013e+003,1.103460e-002
1.538941e+003,1.164962e-002
1.540870e+003,1.206297e-002
1.542798e+003,1.217384e-002
1.544727e+003,1.235308e-002
1.546655e+003,1.259003e-002
1.548584e+003,1.303606e-002
1.550512e+003,1.356948e-002
1.552441e+003,1.382646e-002
1.554369e+003,1.418762e-002
1.556298e+003,1.458320e-002
1.558226e+003,1.512281e-002
1.560155e+003,1.554792e-002
1.562083e+003,1.573932e-002
1.564012e+003,1.615774e-002
1.565940e+003,1.665483e-002
1.567869e+003,1.697231e-002
1.569797e+003,1.727893e-002
1.571726e+003,1.750396e-002
1.573654e+003,1.765108e-002
1.575583e+003,1.783712e-002
1.577511e+003,1.786985e-002
1.579440e+003,1.781251e-002
1.581368e+003,1.775068e-002
1.583297e+003,1.750593e-002
1.585225e+003,1.725931e-002
1.587154e+003,1.697045e-002
1.589082e+003,1.655988e-002
1.591010e+003,1.614406e-002
1.592939e+003,1.557924e-002
1.594868e+003,1.502593e-002
1.596796e+003,1.450957e-002
1.598724e+003,1.394257e-002
1.600653e+003,1.330031e-002
1.602582e+003,1.273870e-002
1.604510e+003,1.222703e-002
1.606438e+003,1.171756e-002
1.608367e+003,1.115218e-002
1.610296e+003,1.059018e-002
1.612224e+003,1.007394e-002
1.614152e+003,9.775016e-003
1.616081e+003,9.487094e-003
1.618010e+003,9.152493e-003
1.619938e+003,8.805842e-003
1.621866e+003,8.700901e-003
1.623795e+003,8.620757e-003
1.625724e+003,8.441764e-003
1.627652e+003,8.254537e-003
1.629580e+003,8.098651e-003
1.631509e+003,7.855630e-003
1.633438e+003,7.766230e-003
1.635366e+003,7.600133e-003
1.637294e+003,7.199635e-003
1.639223e+003,6.814046e-003
1.641151e+003,6.447799e-003
1.643080e+003,6.012009e-003
1.645008e+003,5.736846e-003
1.646937e+003,5.553432e-003
1.648865e+003,5.148848e-003
1.650794e+003,4.909315e-003
1.652722e+003,4.917190e-003
1.654651e+003,4.392686e-003
1.656579e+003,3.932672e-003
1.658508e+003,3.585717e-003
1.660436e+003,3.367212e-003
1.662365e+003,3.160565e-003
1.664293e+003,2.931599e-003
1.666222e+003,2.842474e-003
1.668150e+003,2.766739e-003
1.670079e+003,2.451669e-003
1.672007e+003,2.107460e-003
1.673936e+003,1.863508e-003
1.675864e+003,1.756537e-003
1.677793e+003,1.473350e-003
1.679721e+003,1.269828e-003
1.681650e+003,1.108621e-003
1.683578e+003,1.146625e-003
1.685507e+003,9.548453e-004
1.687435e+003,6.586406e-004
1.689364e+003,5.577056e-004
1.691292e+003,4.936131e-004
1.693221e+003,4.462796e-004
1.695149e+003,5.633125e-004
1.697078e+003,6.151382e-004
1.699006e+003,5.065835e-004
1.700935e+003,5.413167e-004
1.702863e+003,5.504400e-004
1.704792e+003,5.445679e-004
1.706720e+003,5.598621e-004
1.708649e+003,5.203504e-004
1.710577e+003,4.779895e-004
1.712506e+003,4.279049e-004
1.714434e+003,4.395466e-004
1.716363e+003,4.652522e-004
1.718291e+003,4.233611e-004
1.720220e+003,2.595171e-004
1.722148e+003,1.992475e-004
1.724077e+003,2.220880e-004
1.726005e+003,2.206293e-004
1.727934e+003,1.764083e-004
1.729862e+003,1.836345e-004
1.731791e+003,2.186071e-004
1.733719e+003,3.532199e-004
1.735648e+003,2.473829e-004
1.737576e+003,8.314126e-005
1.739505e+003,1.601001e-004
1.741433e+003,2.452943e-004
1.743362e+003,2.210603e-004
1.745290e+003,2.484770e-004
1.747219e+003,2.983088e-004
1.749147e+003,2.806034e-004
1.751076e+003,2.202647e-004
1.753004e+003,1.588074e-004
1.754933e+003,1.950045e-004
1.756861e+003,2.547761e-004
1.758790e+003,1.867505e-004
1.760718e+003,1.159183e-004
1.762647e+003,1.204258e-004
1.764575e+003,1.456485e-004
1.766504e+003,1.981536e-004
1.768432e+003,2.681371e-004
1.770361e+003,2.737734e-004
1.772289e+003,2.984746e-004
1.774218e+003,2.678056e-004
1.776146e+003,2.478471e-004
1.778075e+003,1.771044e-004
1.780003e+003,1.340479e-004
1.781932e+003,2.604414e-005
1.783860e+003,-3.101235e-005
1.785789e+003,-1.948238e-005
1.787717e+003,5.679546e-005
1.789646e+003,1.610944e-004
1.791574e+003,9.752443e-005
1.793503e+003,-1.119916e-005
1.795431e+003,-1.510886e-005
1.797360e+003,-3.803621e-005
1.799288e+003,2.650731e-006
1.801217e+003,2.766780e-005
1.803145e+003,5.308398e-005
1.805074e+003,8.131855e-005
1.807002e+003,7.150914e-005
1.808931e+003,-4.337029e-005
1.810859e+003,-3.644743e-007
1.812788e+003,1.357714e-004
1.814716e+003,1.017997e-004
1.816645e+003,3.230689e-005
1.818573e+003,-5.347505e-005
1.820502e+003,-6.881395e-005
1.822430e+003,-1.676550e-005
1.824359e+003,-1.696430e-005
1.826287e+003,-4.250889e-005
1.828216e+003,-5.145411e-005
1.830144e+003,1.603717e-005
1.832073e+003,2.594473e-005
1.834001e+003,-1.149736e-005
1.835930e+003,-8.981709e-005
1.837858e+003,-7.003971e-005
1.839787e+003,-4.820735e-005
1.841715e+003,-1.646731e-005
1.843644e+003,5.755764e-005
1.845572e+003,3.393058e-005
1.847501e+003,-2.339200e-005
1.849429e+003,-3.001840e-005
1.851358e+003,-1.838900e-005
1.853286e+003,4.904115e-005
1.855215e+003,1.555922e-004
1.857143e+003,6.441735e-005
1.859072e+003,-6.470596e-005
1.861000e+003,-1.269015e-005
1.862929e+003,6.975276e-005
1.864857e+003,1.409088e-004
1.866786e+003,9.252009e-005
1.868714e+003,4.973704e-005
1.870643e+003,5.122825e-005
1.872571e+003,1.078315e-004
1.874500e+003,1.535703e-004
1.876428e+003,1.148909e-004
1.878357e+003,9.583421e-005
1.880285e+003,8.105343e-005
1.882214e+003,3.972953e-005
1.884142e+003,8.482397e-006
1.886071e+003,-1.428054e-005
1.887999e+003,-4.572473e-006
1.889928e+003,6.593724e-006
1.891856e+003,-1.325341e-005
1.893785e+003,4.754995e-005
1.895713e+003,1.205915e-004
1.897642e+003,1.114441e-004
1.899570e+003,6.822835e-005
1.901499e+003,1.244361e-004
1.903427e+003,2.632966e-004
1.905356e+003,2.277900e-004
1.907284e+003,1.616248e-004
1.909213e+003,2.288508e-004
1.911141e+003,2.194027e-004
1.913070e+003,1.669614e-004
1.914998e+003,1.449193e-004
1.916927e+003,1.765078e-004
1.918855e+003,1.972917e-004
1.920784e+003,2.048166e-004
1.922712e+003,2.324312e-004
1.924641e+003,2.635950e-004
1.926569e+003,2.454600e-004
1.928498e+003,1.759443e-004
1.930426e+003,1.570175e-004
1.932355e+003,2.468193e-004
1.934283e+003,3.244371e-004
1.936212e+003,2.951921e-004
1.938140e+003,2.911138e-004
1.940069e+003,3.021218e-004
1.941997e+003,3.426748e-004
1.943926e+003,3.611787e-004
1.945854e+003,2.395257e-004
1.947783e+003,9.155900e-005
1.949711e+003,1.163823e-004
1.951640e+003,2.635618e-004
1.953568e+003,3.155175e-004
1.955497e+003,2.964852e-004
1.957425e+003,3.520925e-004
1.959354e+003,3.025197e-004
1.961282e+003,2.810676e-004
1.963211e+003,3.055702e-004
1.965139e+003,3.228455e-004
1.967068e+003,2.605117e-004
1.968996e+003,2.421448e-004
1.970925e+003,2.556712e-004
1.972853e+003,2.249058e-004
1.974782e+003,3.422769e-004
1.976710e+003,4.822354e-004
1.978639e+003,4.946414e-004
1.980567e+003,4.646552e-004
1.982496e+003,3.802138e-004
1.984424e+003,3.459577e-004
1.986353e+003,3.736476e-004
1.988281e+003,4.396129e-004
1.990210e+003,4.948405e-004
1.992138e+003,5.401556e-004
1.994067e+003,5.172321e-004
1.995995e+003,5.183931e-004
1.997924e+003,6.778548e-004
1.999852e+003,7.640136e-004
2.001781e+003,5.812285e-004
2.003709e+003,4.207078e-004
2.005638e+003,4.697965e-004
2.007566e+003,5.070479e-004
2.009495e+003,4.838608e-004
2.011423e+003,4.115872e-004
2.013352e+003,5.243644e-004
2.015280e+003,6.570478e-004
2.017208e+003,6.657421e-004
2.019137e+003,5.735311e-004
2.021066e+003,5.035980e-004
2.022994e+003,5.702134e-004
2.024922e+003,6.048522e-004
2.026851e+003,6.237321e-004
2.028780e+003,6.347154e-004
2.030708e+003,7.200360e-004
2.032636e+003,8.418235e-004
2.034565e+003,8.807005e-004
2.036494e+003,8.223366e-004
2.038422e+003,8.052405e-004
2.040350e+003,8.454754e-004
2.042279e+003,8.838215e-004
2.044208e+003,9.327301e-004
2.046136e+003,9.900794e-004
2.048064e+003,1.056902e-003
2.049993e+003,1.044779e-003
2.051921e+003,1.004526e-003
2.053850e+003,1.014257e-003
2.055778e+003,1.077895e-003
2.057707e+003,1.081914e-003
2.059635e+003,1.202706e-003
2.061564e+003,1.254343e-003
2.063492e+003,1.185795e-003
2.065421e+003,1.186526e-003
2.067349e+003,1.308444e-003
2.069278e+003,1.387914e-003
2.071206e+003,1.373521e-003
2.073135e+003,1.374219e-003
2.075063e+003,1.436015e-003
2.076992e+003,1.473117e-003
2.078920e+003,1.525982e-003
2.080849e+003,1.537354e-003
2.082777e+003,1.536988e-003
2.084706e+003,1.608551e-003
2.086634e+003,1.654415e-003
2.088563e+003,1.688442e-003
2.090491e+003,1.708766e-003
2.092420e+003,1.733117e-003
2.094348e+003,1.777663e-003
2.096277e+003,1.881777e-003
2.098205e+003,1.934526e-003
2.100134e+003,1.900446e-003
2.102062e+003,1.945276e-003
2.103991e+003,2.040475e-003
2.105919e+003,2.178584e-003
2.107848e+003,2.220545e-003
2.109776e+003,2.170992e-003
2.111705e+003,2.156507e-003
2.113633e+003,2.155607e-003
2.115562e+003,2.210621e-003
2.117490e+003,2.319336e-003
2.119419e+003,2.382232e-003
2.121347e+003,2.415417e-003
2.123276e+003,2.438874e-003
2.125204e+003,2.405988e-003
2.127133e+003,2.388996e-003
2.129061e+003,2.487558e-003
2.130990e+003,2.568977e-003
2.132918e+003,2.571910e-003
2.134847e+003,2.567210e-003
2.136775e+003,2.593376e-003
2.138704e+003,2.637177e-003
2.140632e+003,2.644644e-003
2.142561e+003,2.674781e-003
2.144489e+003,2.720191e-003
2.146418e+003,2.771307e-003
2.148346e+003,2.802854e-003
2.150275e+003,2.873059e-003
2.152203e+003,2.900943e-003
2.154132e+003,2.903212e-003
2.156060e+003,2.875360e-003
2.157989e+003,2.792450e-003
2.159917e+003,2.801687e-003
2.161846e+003,2.899409e-003
2.163774e+003,2.924527e-003
2.165703e+003,2.911017e-003
2.167631e+003,2.961956e-003
2.169560e+003,3.056044e-003
2.171488e+003,3.108602e-003
2.173417e+003,3.086910e-003
2.175345e+003,3.045199e-003
2.177274e+003,3.007062e-003
2.179202e+003,3.011099e-003
2.181131e+003,3.090414e-003
2.183059e+003,3.143577e-003
2.184988e+003,3.119347e-003
2.186916e+003,3.121717e-003
2.188845e+003,3.106032e-003
2.190773e+003,3.132196e-003
2.192702e+003,3.216006e-003
2.194630e+003,3.232229e-003
2.196559e+003,3.105798e-003
2.198487e+003,3.058346e-003
2.200416e+003,3.078067e-003
2.202344e+003,3.059581e-003
2.204273e+003,3.126589e-003
2.206201e+003,3.146280e-003
2.208130e+003,3.096688e-003
2.210058e+003,3.050037e-003
2.211987e+003,3.021743e-003
2.213915e+003,3.086743e-003
2.215844e+003,3.068023e-003
2.217772e+003,3.007629e-003
2.219701e+003,3.023111e-003
2.221629e+003,2.961656e-003
2.223558e+003,2.920991e-003
2.225486e+003,2.917522e-003
2.227415e+003,2.949179e-003
2.229343e+003,2.962056e-003
2.231272e+003,2.987878e-003
2.233200e+003,2.927896e-003
2.235129e+003,2.840240e-003
2.237057e+003,2.857849e-003
2.238986e+003,2.869090e-003
2.240914e+003,2.845943e-003
2.242843e+003,2.810858e-003
2.244771e+003,2.775809e-003
2.246700e+003,2.766306e-003
2.248628e+003,2.732028e-003
2.250557e+003,2.635910e-003
2.252485e+003,2.578010e-003
2.254414e+003,2.635443e-003
2.256342e+003,2.660912e-003
2.258271e+003,2.622176e-003
2.260199e+003,2.566511e-003
2.262128e+003,2.542413e-003
2.264056e+003,2.582076e-003
2.265985e+003,2.581276e-003
2.267913e+003,2.514885e-003
2.269842e+003,2.502321e-003
2.271770e+003,2.571510e-003
2.273699e+003,2.553745e-003
2.275627e+003,2.516484e-003
2.277556e+003,2.499521e-003
2.279484e+003,2.500355e-003
2.281413e+003,2.547579e-003
2.283341e+003,2.509286e-003
2.285270e+003,2.451436e-003
2.287198e+003,2.506120e-003
2.289127e+003,2.479793e-003
2.291055e+003,2.456834e-003
2.292984e+003,2.478760e-003
2.294912e+003,2.406087e-003
2.296841e+003,2.394659e-003
2.298769e+003,2.437274e-003
2.300698e+003,2.513018e-003
2.302626e+003,2.570010e-003
2.304555e+003,2.564844e-003
2.306483e+003,2.541447e-003
2.308412e+003,2.607042e-003
2.310340e+003,2.602842e-003
2.312269e+003,2.584943e-003
2.314197e+003,2.619542e-003
2.316125e+003,2.663013e-003
2.318054e+003,2.600342e-003
2.319983e+003,2.534548e-003
2.321911e+003,2.581776e-003
2.323840e+003,2.695485e-003
2.325768e+003,2.721791e-003
2.327697e+003,2.731661e-003
2.329625e+003,2.663246e-003
2.331553e+003,2.584609e-003
2.333482e+003,2.662613e-003
2.335411e+003,2.815227e-003
2.337339e+003,2.829067e-003
2.339268e+003,2.857683e-003
2.341196e+003,2.904579e-003
2.343125e+003,2.827600e-003
2.345053e+003,2.775209e-003
2.346981e+003,2.793784e-003
2.348910e+003,2.772775e-003
2.350839e+003,2.749100e-003
2.352767e+003,2.736629e-003
2.354696e+003,2.830268e-003
2.356624e+003,2.937837e-003
2.358552e+003,2.980305e-003
2.360481e+003,2.970730e-003
2.362409e+003,2.940105e-003
2.364338e+003,2.943608e-003
2.366267e+003,3.044131e-003
2.368195e+003,3.008130e-003
2.370124e+003,3.003492e-003
2.372052e+003,3.139004e-003
2.373980e+003,3.162401e-003
2.375909e+003,3.021709e-003
2.377838e+003,3.122251e-003
2.379766e+003,3.279533e-003
2.381695e+003,3.370852e-003
2.383623e+003,3.490145e-003
2.385552e+003,3.585550e-003
2.387480e+003,3.622100e-003
2.389408e+003,3.766897e-003
2.391337e+003,3.851230e-003
2.393266e+003,3.893621e-003
2.395194e+003,4.047738e-003
2.397123e+003,4.129350e-003
2.399051e+003,4.101587e-003
2.400979e+003,4.100082e-003
2.402908e+003,4.147045e-003
2.404836e+003,4.180398e-003
2.406765e+003,4.225363e-003
2.408694e+003,4.276323e-003
2.410622e+003,4.254540e-003
2.412551e+003,4.277093e-003
2.414479e+003,4.283484e-003
2.416407e+003,4.288671e-003
2.418336e+003,4.309619e-003
2.420264e+003,4.392652e-003
2.422193e+003,4.533286e-003
2.424122e+003,4.629590e-003
2.426050e+003,4.643187e-003
2.427979e+003,4.702134e-003
2.429907e+003,4.839651e-003
2.431835e+003,4.929857e-003
2.433764e+003,4.964242e-003
2.435692e+003,5.007914e-003
2.437621e+003,5.088936e-003
2.439550e+003,5.199279e-003
2.441478e+003,5.144892e-003
2.443406e+003,5.052965e-003
2.445335e+003,5.067648e-003
2.447263e+003,4.980396e-003
2.449192e+003,4.928483e-003
2.451121e+003,5.068654e-003
2.453049e+003,5.163534e-003
2.454978e+003,5.222954e-003
2.456906e+003,5.292511e-003
2.458834e+003,5.329776e-003
2.460763e+003,5.363790e-003
2.462691e+003,5.448803e-003
2.464620e+003,5.610288e-003
2.466549e+003,5.698505e-003
2.468477e+003,5.639490e-003
2.470406e+003,5.679638e-003
2.472334e+003,5.646875e-003
2.474262e+003,5.720092e-003
2.476191e+003,5.840738e-003
2.478119e+003,5.797956e-003
2.480048e+003,5.842551e-003
2.481977e+003,5.917985e-003
2.483905e+003,5.907572e-003
2.485833e+003,5.937903e-003
2.487762e+003,6.043087e-003
2.489690e+003,6.109449e-003
2.491619e+003,6.147993e-003
2.493547e+003,6.296122e-003
2.495476e+003,6.339290e-003
2.497405e+003,6.290609e-003
2.499333e+003,6.375670e-003
2.501261e+003,6.540560e-003
2.503190e+003,6.491083e-003
2.505118e+003,6.305535e-003
2.507047e+003,6.301131e-003
2.508975e+003,6.416525e-003
2.510904e+003,6.558152e-003
2.512833e+003,6.551155e-003
2.514761e+003,6.482102e-003
2.516689e+003,6.584626e-003
2.518618e+003,6.669878e-003
2.520546e+003,6.720015e-003
2.522475e+003,6.731961e-003
2.524403e+003,6.669509e-003
2.526332e+003,6.661803e-003
2.528260e+003,6.818589e-003
2.530189e+003,6.896819e-003
2.532117e+003,6.839223e-003
2.534046e+003,6.829495e-003
2.535974e+003,6.924592e-003
2.537903e+003,6.975095e-003
2.539831e+003,6.966139e-003
2.541760e+003,6.938362e-003
2.543688e+003,6.852115e-003
2.545617e+003,6.832019e-003
2.547545e+003,6.961762e-003
2.549474e+003,7.052376e-003
2.551402e+003,7.050254e-003
2.553331e+003,7.073997e-003
2.555259e+003,7.022742e-003
2.557188e+003,6.985736e-003
2.559116e+003,6.985601e-003
2.561045e+003,7.025604e-003
2.562973e+003,7.107272e-003
2.564902e+003,7.099694e-003
2.566830e+003,7.106565e-003
2.568759e+003,7.159144e-003
2.570687e+003,7.138462e-003
2.572616e+003,7.189428e-003
2.574544e+003,7.269071e-003
2.576473e+003,7.193571e-003
2.578401e+003,7.142302e-003
2.580330e+003,7.184576e-003
2.582258e+003,7.233256e-003
2.584187e+003,7.295453e-003
2.586115e+003,7.349605e-003
2.588044e+003,7.364400e-003
2.589972e+003,7.381352e-003
2.591901e+003,7.391867e-003
2.593829e+003,7.423717e-003
2.595758e+003,7.451457e-003
2.597686e+003,7.528486e-003
2.599615e+003,7.662281e-003
2.601543e+003,7.641676e-003
2.603472e+003,7.451997e-003
2.605400e+003,7.484998e-003
2.607329e+003,7.632032e-003
2.609257e+003,7.746127e-003
2.611186e+003,7.812615e-003
2.613114e+003,7.884679e-003
2.615043e+003,7.875333e-003
2.616971e+003,7.916059e-003
2.618900e+003,7.897704e-003
2.620828e+003,7.863760e-003
2.622757e+003,7.961852e-003
2.624685e+003,8.058717e-003
2.626614e+003,8.090583e-003
2.628542e+003,8.024761e-003
2.630471e+003,7.914035e-003
2.632399e+003,7.964720e-003
2.634328e+003,8.010619e-003
2.636256e+003,7.967285e-003
2.638185e+003,8.020913e-003
2.640113e+003,8.156718e-003
2.642042e+003,8.245015e-003
2.643970e+003,8.308573e-003
2.645899e+003,8.345692e-003
2.647827e+003,8.437440e-003
2.649756e+003,8.442170e-003
2.651684e+003,8.358696e-003
2.653613e+003,8.367682e-003
2.655541e+003,8.485956e-003
2.657470e+003,8.560938e-003
2.659398e+003,8.590914e-003
2.661327e+003,8.609773e-003
2.663255e+003,8.630592e-003
2.665184e+003,8.618932e-003
2.667112e+003,8.712867e-003
2.669041e+003,8.825149e-003
2.670969e+003,8.769969e-003
2.672898e+003,8.824744e-003
2.674826e+003,8.920685e-003
2.676755e+003,9.007785e-003
2.678683e+003,8.989146e-003
2.680612e+003,8.972199e-003
2.682540e+003,9.046453e-003
2.684469e+003,9.120753e-003
2.686397e+003,9.203899e-003
2.688326e+003,9.232701e-003
2.690254e+003,9.207554e-003
2.692183e+003,9.251046e-003
2.694111e+003,9.264957e-003
2.696040e+003,9.385237e-003
2.697968e+003,9.493732e-003
2.699897e+003,9.509988e-003
2.701825e+003,9.524789e-003
2.703754e+003,9.488415e-003
2.705682e+003,9.501182e-003
2.707611e+003,9.597104e-003
2.709539e+003,9.668856e-003
2.711468e+003,9.770847e-003
2.713396e+003,9.863913e-003
2.715325e+003,9.897742e-003
2.717253e+003,9.985716e-003
2.719182e+003,9.991717e-003
2.721110e+003,1.003749e-002
2.723039e+003,1.011491e-002
2.724967e+003,1.019927e-002
2.726896e+003,1.022569e-002
2.728824e+003,1.017868e-002
2.730753e+003,1.025989e-002
2.732681e+003,1.042667e-002
2.734610e+003,1.052724e-002
2.736538e+003,1.064794e-002
2.738467e+003,1.074388e-002
2.740395e+003,1.088522e-002
2.742324e+003,1.095692e-002
2.744252e+003,1.093279e-002
2.746181e+003,1.101775e-002
2.748109e+003,1.110309e-002
2.750038e+003,1.119508e-002
2.751966e+003,1.132590e-002
2.753895e+003,1.144923e-002
2.755823e+003,1.151098e-002
2.757752e+003,1.161882e-002
2.759680e+003,1.174370e-002
2.761609e+003,1.195240e-002
2.763537e+003,1.220634e-002
2.765466e+003,1.242249e-002
2.767394e+003,1.271486e-002
2.769323e+003,1.297580e-002
2.771251e+003,1.321470e-002
2.773180e+003,1.363871e-002
2.775108e+003,1.407058e-002
2.777037e+003,1.445932e-002
2.778965e+003,1.488323e-002
2.780894e+003,1.538950e-002
2.782822e+003,1.593537e-002
2.784750e+003,1.645615e-002
2.786679e+003,1.707348e-002
2.788608e+003,1.771500e-002
2.790536e+003,1.841788e-002
2.792465e+003,1.911588e-002
2.794393e+003,1.971628e-002
2.796322e+003,2.029327e-002
2.798250e+003,2.087145e-002
2.800178e+003,2.153723e-002
2.802107e+003,2.224943e-002
2.804036e+003,2.275044e-002
2.805964e+003,2.320192e-002
2.807893e+003,2.356166e-002
2.809821e+003,2.364143e-002
2.811750e+003,2.380559e-002
2.813678e+003,2.400910e-002
2.815606e+003,2.401480e-002
2.817535e+003,2.394155e-002
2.819464e+003,2.389408e-002
2.821392e+003,2.378896e-002
2.823321e+003,2.349283e-002
2.825249e+003,2.308244e-002
2.827177e+003,2.286106e-002
2.829106e+003,2.257017e-002
2.831034e+003,2.214343e-002
2.832963e+003,2.172170e-002
2.834892e+003,2.133094e-002
2.836820e+003,2.084451e-002
2.838749e+003,2.031917e-002
2.840677e+003,1.981358e-002
2.842605e+003,1.924862e-002
2.844534e+003,1.870189e-002
2.846462e+003,1.825343e-002
2.848391e+003,1.781265e-002
2.850320e+003,1.736231e-002
2.852248e+003,1.702200e-002
2.854177e+003,1.676636e-002
2.856105e+003,1.654704e-002
2.858033e+003,1.631125e-002
2.859962e+003,1.623217e-002
2.861890e+003,1.615180e-002
2.863819e+003,1.606972e-002
2.865748e+003,1.606820e-002
2.867676e+003,1.603035e-002
2.869604e+003,1.596232e-002
2.871533e+003,1.605077e-002
2.873461e+003,1.619695e-002
2.875390e+003,1.629381e-002
2.877319e+003,1.638113e-002
2.879247e+003,1.660560e-002
2.881176e+003,1.676095e-002
2.883104e+003,1.672769e-002
2.885032e+003,1.664729e-002
2.886961e+003,1.660081e-002
2.888889e+003,1.654773e-002
2.890818e+003,1.647088e-002
2.892747e+003,1.641031e-002
2.894675e+003,1.641021e-002
2.896604e+003,1.634889e-002
2.898532e+003,1.621762e-002
2.900460e+003,1.610902e-002
2.902389e+003,1.602485e-002
2.904317e+003,1.602196e-002
2.906246e+003,1.607212e-002
2.908175e+003,1.603516e-002
2.910103e+003,1.599580e-002
2.912031e+003,1.600756e-002
2.913960e+003,1.595290e-002
2.915888e+003,1.587498e-002
2.917817e+003,1.593121e-002
2.919745e+003,1.600989e-002
2.921674e+003,1.606844e-002
2.923603e+003,1.597407e-002
2.925531e+003,1.596954e-002
2.927459e+003,1.623031e-002
2.929388e+003,1.646186e-002
2.931316e+003,1.645849e-002
2.933245e+003,1.649968e-002
2.935173e+003,1.670954e-002
2.937102e+003,1.676949e-002
2.939031e+003,1.672245e-002
2.940959e+003,1.676477e-002
2.942887e+003,1.664674e-002
2.944816e+003,1.642493e-002
2.946744e+003,1.620476e-002
2.948673e+003,1.595063e-002
2.950601e+003,1.566133e-002
2.952530e+003,1.524637e-002
2.954458e+003,1.482230e-002
2.956387e+003,1.438656e-002
2.958315e+003,1.383641e-002
2.960244e+003,1.335682e-002
2.962172e+003,1.296853e-002
2.964101e+003,1.251572e-002
2.966029e+003,1.190795e-002
2.967958e+003,1.130526e-002
2.969886e+003,1.078025e-002
2.971815e+003,1.032364e-002
2.973743e+003,9.936862e-003
2.975672e+003,9.653814e-003
2.977600e+003,9.357238e-003
2.979529e+003,9.134796e-003
2.981457e+003,8.811692e-003
2.983386e+003,8.416291e-003
2.985314e+003,8.041840e-003
2.987243e+003,7.759855e-003
2.989171e+003,7.659145e-003
2.991100e+003,7.609540e-003
2.993028e+003,7.409797e-003
2.994957e+003,7.224059e-003
2.996885e+003,7.141089e-003
2.998814e+003,7.083124e-003
3.000742e+003,6.937420e-003
3.002671e+003,6.778437e-003
3.004599e+003,6.698008e-003
3.006528e+003,6.667389e-003
3.008456e+003,6.584660e-003
3.010385e+003,6.490645e-003
3.012313e+003,6.550953e-003
3.014242e+003,6.501038e-003
3.016170e+003,6.414474e-003
3.018099e+003,6.500265e-003
3.020027e+003,6.535144e-003
3.021956e+003,6.406605e-003
3.023884e+003,6.326010e-003
3.025813e+003,6.222640e-003
3.027741e+003,6.048899e-003
3.029670e+003,6.144834e-003
3.031598e+003,6.313100e-003
3.033527e+003,6.245329e-003
3.035455e+003,6.095672e-003
3.037384e+003,5.994204e-003
3.039312e+003,5.927087e-003
3.041241e+003,5.867437e-003
3.043169e+003,5.761591e-003
3.045098e+003,5.744769e-003
3.047026e+003,5.781905e-003
3.048955e+003,5.641336e-003
3.050883e+003,5.459473e-003
3.052812e+003,5.437094e-003
3.054740e+003,5.546083e-003
3.056669e+003,5.418171e-003
3.058597e+003,5.241432e-003
3.060526e+003,5.235798e-003
3.062454e+003,5.182848e-003
3.064383e+003,5.095741e-003
3.066311e+003,5.083236e-003
3.068240e+003,5.036339e-003
3.070168e+003,4.922350e-003
3.072097e+003,4.757571e-003
3.074025e+003,4.724007e-003
3.075954e+003,4.880262e-003
3.077882e+003,4.936124e-003
3.079811e+003,4.746650e-003
3.081739e+003,4.618606e-003
3.083668e+003,4.612980e-003
3.085596e+003,4.633743e-003
3.087525e+003,4.588400e-003
3.089453e+003,4.546244e-003
3.091382e+003,4.439916e-003
3.093310e+003,4.364203e-003
3.095239e+003,4.332442e-003
3.097167e+003,4.245840e-003
3.099096e+003,4.196022e-003
3.101024e+003,4.157048e-003
3.102953e+003,4.076735e-003
3.104881e+003,3.943237e-003
3.106810e+003,3.955575e-003
3.108738e+003,4.043089e-003
3.110667e+003,3.916188e-003
3.112595e+003,3.787552e-003
3.114524e+003,3.895994e-003
3.116452e+003,3.940763e-003
3.118381e+003,3.838995e-003
3.120309e+003,3.670984e-003
3.122238e+003,3.602054e-003
3.124166e+003,3.612812e-003
3.126095e+003,3.573423e-003
3.128023e+003,3.565973e-003
3.129952e+003,3.614650e-003
3.131880e+003,3.499431e-003
3.133809e+003,3.476183e-003
3.135737e+003,3.389118e-003
3.137666e+003,3.381971e-003
3.139594e+003,3.400004e-003
3.141523e+003,3.448495e-003
3.143451e+003,3.551875e-003
3.145380e+003,3.472142e-003
3.147308e+003,3.306276e-003
3.149237e+003,3.269284e-003
3.151165e+003,3.207761e-003
3.153094e+003,3.117645e-003
3.155022e+003,3.189035e-003
3.156951e+003,3.324506e-003
3.158879e+003,3.313688e-003
3.160808e+003,3.311017e-003
3.162736e+003,3.244046e-003
3.164665e+003,3.269885e-003
3.166593e+003,3.236502e-003
3.168522e+003,3.061383e-003
3.170450e+003,3.117145e-003
3.172379e+003,3.256098e-003
3.174307e+003,3.317494e-003
3.176236e+003,3.279634e-003
3.178164e+003,3.295759e-003
3.180093e+003,3.283339e-003
3.182021e+003,3.322602e-003
3.183950e+003,3.364941e-003
3.185878e+003,3.307444e-003
3.187807e+003,3.231361e-003
3.189735e+003,3.163202e-003
3.191664e+003,3.056210e-003
3.193592e+003,2.979904e-003
3.195521e+003,2.975201e-003
3.197449e+003,3.129927e-003
3.199378e+003,3.264644e-003
3.201306e+003,3.305909e-003
3.203235e+003,3.144344e-003
3.205163e+003,3.134198e-003
3.207092e+003,3.165872e-003
3.209020e+003,3.258501e-003
3.210948e+003,3.358497e-003
3.212877e+003,3.380202e-003
3.214806e+003,3.438543e-003
3.216734e+003,3.485536e-003
3.218663e+003,3.401340e-003
3.220591e+003,3.413729e-003
3.222520e+003,3.561162e-003
3.224448e+003,3.711719e-003
3.226376e+003,3.879412e-003
3.228305e+003,3.881117e-003
3.230234e+003,3.815697e-003
3.232162e+003,3.915987e-003
3.234091e+003,4.002691e-003
3.236019e+003,3.986439e-003
3.237948e+003,4.065029e-003
3.239876e+003,4.244569e-003
3.241804e+003,4.289072e-003
3.243733e+003,4.191070e-003
3.245662e+003,4.342482e-003
3.247590e+003,4.380000e-003
3.249519e+003,4.415045e-003
3.251447e+003,4.500174e-003
3.253375e+003,4.614152e-003
3.255304e+003,4.792545e-003
3.257232e+003,5.041199e-003
3.259161e+003,5.164406e-003
3.261090e+003,5.112940e-003
3.263018e+003,5.130508e-003
3.264947e+003,5.099161e-003
3.266875e+003,5.121858e-003
3.268803e+003,5.215778e-003
3.270732e+003,5.297039e-003
3.272660e+003,5.346179e-003
3.274589e+003,5.415622e-003
3.276518e+003,5.490478e-003
3.278446e+003,5.498497e-003
3.280375e+003,5.474405e-003
3.282303e+003,5.552828e-003
3.284231e+003,5.545848e-003
3.286160e+003,5.529337e-003
3.288088e+003,5.558836e-003
3.290017e+003,5.485344e-003
3.291946e+003,5.291371e-003
3.293874e+003,5.111465e-003
3.295802e+003,5.082868e-003
3.297731e+003,5.163098e-003
3.299659e+003,5.157230e-003
3.301588e+003,5.078543e-003
3.303516e+003,4.853389e-003
3.305445e+003,4.683578e-003
3.307374e+003,4.578188e-003
3.309302e+003,4.423179e-003
3.311230e+003,4.224326e-003
3.313159e+003,3.930632e-003
3.315087e+003,3.860290e-003
3.317016e+003,3.855041e-003
3.318944e+003,3.682880e-003
3.320873e+003,3.687392e-003
3.322802e+003,3.520307e-003
3.324730e+003,3.231261e-003
3.326658e+003,3.176018e-003
3.328587e+003,3.241910e-003
3.330515e+003,3.265111e-003
3.332444e+003,3.100959e-003
3.334372e+003,2.908182e-003
3.336301e+003,2.850645e-003
3.338229e+003,2.858016e-003
3.340158e+003,2.850545e-003
3.342086e+003,2.753268e-003
3.344015e+003,2.615342e-003
3.345943e+003,2.441839e-003
3.347872e+003,2.345219e-003
3.349800e+003,2.373037e-003
3.351729e+003,2.398557e-003
3.353657e+003,2.306644e-003
3.355586e+003,2.155807e-003
3.357514e+003,1.882309e-003
3.359443e+003,1.815226e-003
3.361371e+003,1.885371e-003
3.363300e+003,1.831963e-003
3.365229e+003,1.641178e-003
3.367157e+003,1.473516e-003
3.369085e+003,1.252415e-003
3.371014e+003,1.171874e-003
3.372942e+003,1.184034e-003
3.374871e+003,1.071617e-003
3.376799e+003,9.312690e-004
3.378728e+003,8.302043e-004
3.380656e+003,6.768923e-004
3.382585e+003,4.589501e-004
3.384513e+003,2.683361e-004
3.386442e+003,1.903636e-004
3.388370e+003,2.387964e-004
3.390299e+003,1.630832e-004
3.392227e+003,7.058124e-005
3.394156e+003,9.119445e-005
3.396084e+003,6.726731e-005
3.398013e+003,-4.085235e-005
3.399941e+003,-4.111740e-005
3.401870e+003,4.151894e-005
3.403798e+003,-1.052872e-004
3.405727e+003,-2.135626e-004
3.407655e+003,-7.755986e-005
3.409584e+003,-8.077328e-005
3.411512e+003,-2.981040e-004
3.413441e+003,-4.286754e-004
3.415369e+003,-3.406831e-004
3.417298e+003,-3.252545e-004
3.419226e+003,-4.328461e-004
3.421155e+003,-4.834878e-004
3.423083e+003,-4.248025e-004
3.425012e+003,-4.935161e-004
3.426940e+003,-7.855929e-004
3.428869e+003,-7.891319e-004
3.430797e+003,-5.645021e-004
3.432726e+003,-5.855144e-004
3.434654e+003,-8.409886e-004
3.436583e+003,-9.814801e-004
3.438511e+003,-9.907696e-004
3.440440e+003,-8.605325e-004
3.442368e+003,-7.217882e-004
3.444297e+003,-7.598605e-004
3.446225e+003,-9.455101e-004
3.448154e+003,-1.107946e-003
3.450082e+003,-1.044519e-003
3.452011e+003,-1.025744e-003
3.453939e+003,-1.168588e-003
3.455868e+003,-1.363246e-003
3.457796e+003,-1.295991e-003
3.459725e+003,-1.153354e-003
3.461653e+003,-1.149818e-003
3.463582e+003,-1.251589e-003
3.465510e+003,-1.348217e-003
3.467439e+003,-1.336160e-003
3.469367e+003,-1.328001e-003
3.471296e+003,-1.357730e-003
3.473224e+003,-1.367540e-003
3.475153e+003,-1.404895e-003
3.477081e+003,-1.416817e-003
3.479010e+003,-1.389966e-003
3.480938e+003,-1.344980e-003
3.482867e+003,-1.385375e-003
3.484795e+003,-1.425932e-003
3.486724e+003,-1.398190e-003
3.488652e+003,-1.424083e-003
3.490581e+003,-1.505450e-003
3.492509e+003,-1.472364e-003
3.494438e+003,-1.250664e-003
3.496366e+003,-1.099948e-003
3.498295e+003,-1.280233e-003
3.500223e+003,-1.440959e-003
3.502152e+003,-1.495809e-003
3.504080e+003,-1.596805e-003
3.506009e+003,-1.490525e-003
3.507937e+003,-1.472331e-003
3.509866e+003,-1.602219e-003
3.511794e+003,-1.478671e-003
3.513723e+003,-1.413977e-003
3.515651e+003,-1.710320e-003
3.517580e+003,-1.793812e-003
3.519508e+003,-1.697812e-003
3.521437e+003,-1.718439e-003
3.523365e+003,-1.853665e-003
3.525294e+003,-1.801599e-003
3.527222e+003,-1.592316e-003
3.529151e+003,-1.535596e-003
3.531079e+003,-1.574323e-003
3.533008e+003,-1.672529e-003
3.534936e+003,-1.776389e-003
3.536865e+003,-1.802226e-003
3.538793e+003,-1.549298e-003
3.540722e+003,-1.354096e-003
3.542650e+003,-1.413713e-003
3.544579e+003,-1.529389e-003
3.546507e+003,-1.651008e-003
3.548436e+003,-1.847232e-003
3.550364e+003,-1.884743e-003
3.552293e+003,-1.780547e-003
3.554221e+003,-1.844757e-003
3.556150e+003,-1.926969e-003
3.558078e+003,-1.813247e-003
3.560007e+003,-1.751078e-003
3.561935e+003,-1.712697e-003
3.563864e+003,-1.823674e-003
3.565792e+003,-1.712565e-003
3.567721e+003,-1.796122e-003
3.569649e+003,-2.095535e-003
3.571578e+003,-2.203876e-003
3.573506e+003,-2.053688e-003
3.575435e+003,-1.782362e-003
3.577363e+003,-1.752464e-003
3.579292e+003,-1.960219e-003
3.581220e+003,-2.167611e-003
3.583149e+003,-2.214128e-003
3.585077e+003,-2.052237e-003
3.587006e+003,-1.951082e-003
3.588934e+003,-1.875044e-003
3.590863e+003,-1.976975e-003
3.592791e+003,-2.269968e-003
3.594720e+003,-2.266903e-003
3.596648e+003,-2.015729e-003
3.598577e+003,-1.786552e-003
3.600505e+003,-1.772924e-003
3.602434e+003,-2.042707e-003
3.604362e+003,-2.053952e-003
3.606291e+003,-2.126233e-003
3.608219e+003,-2.102130e-003
3.610148e+003,-2.029845e-003
3.612076e+003,-2.180634e-003
3.614005e+003,-2.193294e-003
3.615933e+003,-2.252301e-003
3.617862e+003,-2.179777e-003
3.619790e+003,-1.993698e-003
3.621719e+003,-2.123101e-003
3.623647e+003,-2.315123e-003
3.625576e+003,-2.321616e-003
3.627504e+003,-2.093326e-003
3.629433e+003,-1.673355e-003
3.631361e+003,-1.990762e-003
3.633290e+003,-2.439620e-003
3.635218e+003,-2.523070e-003
3.637146e+003,-2.475499e-003
3.639075e+003,-2.401299e-003
3.641004e+003,-2.333447e-003
3.642932e+003,-2.269737e-003
3.644861e+003,-2.265782e-003
3.646789e+003,-2.231731e-003
3.648718e+003,-2.287042e-003
3.650646e+003,-2.449307e-003
3.652574e+003,-2.484856e-003
3.654503e+003,-2.513122e-003
3.656432e+003,-2.489435e-003
3.658360e+003,-2.765029e-003
3.660289e+003,-2.806379e-003
3.662217e+003,-2.832616e-003
3.664146e+003,-2.735857e-003
3.666074e+003,-2.812173e-003
3.668002e+003,-2.954760e-003
3.669931e+003,-2.900225e-003
3.671860e+003,-3.133815e-003
3.673788e+003,-3.165361e-003
3.675717e+003,-2.626002e-003
3.677645e+003,-2.545404e-003
3.679573e+003,-2.903879e-003
3.681502e+003,-2.899403e-003
3.683430e+003,-2.803120e-003
3.685359e+003,-2.816090e-003
3.687288e+003,-2.617242e-003
3.689216e+003,-2.462057e-003
3.691145e+003,-2.465319e-003
3.693073e+003,-2.540101e-003
3.695001e+003,-2.817242e-003
3.696930e+003,-2.906347e-003
3.698858e+003,-2.917505e-003
3.700787e+003,-2.877152e-003
3.702716e+003,-2.637101e-003
3.704644e+003,-2.557493e-003
3.706573e+003,-2.644313e-003
3.708501e+003,-2.654028e-003
3.710429e+003,-2.476521e-003
3.712358e+003,-2.318353e-003
3.714286e+003,-2.328866e-003
3.716215e+003,-2.434480e-003
3.718144e+003,-2.582362e-003
3.720072e+003,-2.643556e-003
3.722000e+003,-2.429307e-003
3.723929e+003,-2.358592e-003
3.725857e+003,-2.247917e-003
3.727786e+003,-1.921130e-003
3.729714e+003,-2.060251e-003
3.731643e+003,-2.323000e-003
3.733572e+003,-2.473226e-003
3.735500e+003,-2.471019e-003
3.737428e+003,-2.348112e-003
3.739357e+003,-2.222271e-003
3.741285e+003,-2.130618e-003
3.743214e+003,-2.076772e-003
3.745142e+003,-1.611529e-003
3.747071e+003,-1.613476e-003
3.749000e+003,-1.515719e-003
3.750928e+003,-1.479232e-003
3.752856e+003,-1.579540e-003
3.754785e+003,-1.790512e-003
3.756713e+003,-1.737317e-003
3.758642e+003,-1.612750e-003
3.760570e+003,-1.694247e-003
3.762499e+003,-1.832417e-003
3.764427e+003,-1.787476e-003
3.766356e+003,-1.644671e-003
3.768284e+003,-1.525361e-003
3.770213e+003,-1.488379e-003
3.772141e+003,-1.492176e-003
3.774070e+003,-1.420120e-003
3.775998e+003,-1.385012e-003
3.777927e+003,-1.598159e-003
3.779855e+003,-1.631731e-003
3.781784e+003,-1.509776e-003
3.783712e+003,-1.401526e-003
3.785641e+003,-1.275443e-003
3.787569e+003,-1.355252e-003
3.789498e+003,-1.551939e-003
3.791426e+003,-1.537709e-003
3.793355e+003,-1.447828e-003
3.795283e+003,-1.296453e-003
3.797212e+003,-1.289219e-003
3.799140e+003,-1.609713e-003
3.801069e+003,-1.620706e-003
3.802997e+003,-1.543322e-003
3.804926e+003,-1.754609e-003
3.806854e+003,-1.497559e-003
3.808783e+003,-1.457173e-003
3.810711e+003,-1.502611e-003
3.812640e+003,-1.452088e-003
3.814568e+003,-1.382172e-003
3.816497e+003,-1.195882e-003
3.818425e+003,-1.304250e-003
3.820354e+003,-1.231865e-003
3.822282e+003,-1.137954e-003
3.824211e+003,-1.349835e-003
3.826139e+003,-1.489205e-003
3.828068e+003,-1.341676e-003
3.829996e+003,-1.248649e-003
3.831925e+003,-1.228825e-003
3.833853e+003,-1.192115e-003
3.835782e+003,-1.097403e-003
3.837710e+003,-1.004158e-003
3.839639e+003,-1.088678e-003
3.841567e+003,-1.176882e-003
3.843496e+003,-1.329884e-003
3.845424e+003,-1.405357e-003
3.847353e+003,-1.498747e-003
3.849281e+003,-1.438779e-003
3.851210e+003,-1.147472e-003
3.853138e+003,-9.046105e-004
3.855067e+003,-1.069574e-003
3.856995e+003,-1.410575e-003
3.858924e+003,-1.460476e-003
3.860852e+003,-1.444294e-003
3.862781e+003,-1.392609e-003
3.864709e+003,-1.231567e-003
3.866638e+003,-1.215906e-003
3.868566e+003,-1.418766e-003
3.870495e+003,-1.319478e-003
3.872423e+003,-1.352907e-003
3.874352e+003,-1.187523e-003
3.876280e+003,-1.239299e-003
3.878209e+003,-1.441355e-003
3.880137e+003,-1.356904e-003
3.882066e+003,-1.377845e-003
3.883994e+003,-1.468731e-003
3.885923e+003,-1.303160e-003
3.887851e+003,-1.308115e-003
3.889780e+003,-1.344880e-003
3.891708e+003,-1.511757e-003
3.893637e+003,-1.824070e-003
3.895565e+003,-1.788862e-003
3.897494e+003,-1.576799e-003
3.899422e+003,-1.236061e-003
3.901351e+003,-1.129164e-003
3.903279e+003,-1.108773e-003
3.905208e+003,-1.154544e-003
3.907136e+003,-1.336755e-003
3.909065e+003,-1.351355e-003
3.910993e+003,-1.317926e-003
3.912922e+003,-1.458758e-003
3.914850e+003,-1.325193e-003
3.916779e+003,-1.245543e-003
3.918707e+003,-1.362915e-003
3.920636e+003,-1.395383e-003
3.922564e+003,-1.711112e-003
3.924493e+003,-1.735601e-003
3.926421e+003,-1.489469e-003
3.928350e+003,-1.380256e-003
3.930278e+003,-1.362321e-003
3.932207e+003,-1.157981e-003
3.934135e+003,-9.030895e-004
3.936064e+003,-7.475560e-004
3.937992e+003,-8.365572e-004
3.939921e+003,-1.136137e-003
3.941849e+003,-1.213296e-003
3.943778e+003,-1.128007e-003
3.945706e+003,-1.335301e-003
3.947635e+003,-1.378208e-003
3.949563e+003,-1.142746e-003
3.951492e+003,-1.119480e-003
3.953420e+003,-1.105468e-003
3.955349e+003,-9.727523e-004
3.957277e+003,-1.156328e-003
3.959206e+003,-1.343625e-003
3.961134e+003,-1.456810e-003
3.963063e+003,-1.331602e-003
3.964991e+003,-1.415628e-003
3.966920e+003,-1.540747e-003
3.968848e+003,-1.426362e-003
3.970777e+003,-1.270388e-003
3.972705e+003,-1.205300e-003
3.974634e+003,-1.147604e-003
3.976562e+003,-1.036024e-003
3.978491e+003,-1.180517e-003
3.980419e+003,-1.221490e-003
3.982348e+003,-1.254497e-003
3.984276e+003,-1.174040e-003
3.986205e+003,-1.054337e-003
3.988133e+003,-1.003001e-003
3.990062e+003,-8.675430e-004
3.991990e+003,-8.533897e-004
3.993919e+003,-9.334754e-004
3.995847e+003,-9.527506e-004
3.997776e+003,-1.110755e-003
3.999704e+003,-1.196411e-003
4.001633e+003,0.000000e+000
