3.991989e+002,-1.267548e-002
4.011274e+002,-2.644898e-002
4.030559e+002,-3.617429e-002
4.049844e+002,-3.314786e-002
4.069129e+002,-2.299871e-002
4.088414e+002,-2.204184e-002
4.107699e+002,-2.591841e-002
4.126984e+002,-2.390864e-002
4.146269e+002,-2.156800e-002
4.165554e+002,-1.649521e-002
4.184839e+002,-1.342359e-002
4.204124e+002,-7.856488e-003
4.223409e+002,-3.697645e-003
4.242694e+002,-6.258603e-003
4.261979e+002,-1.167347e-002
4.281264e+002,-3.583236e-003
4.300549e+002,2.732128e-003
4.319834e+002,-1.614929e-003
4.339119e+002,-1.132468e-003
4.358404e+002,-1.535160e-004
4.377689e+002,-4.563803e-004
4.396974e+002,-4.722635e-003
4.416259e+002,-1.119056e-002
4.435544e+002,-7.000819e-003
4.454829e+002,-3.854721e-003
4.474114e+002,-1.867060e-003
4.493399e+002,-1.123380e-003
4.512684e+002,-1.906913e-003
4.531969e+002,-2.765852e-003
4.551254e+002,-2.775630e-003
4.570539e+002,-2.882452e-003
4.589824e+002,-3.078448e-003
4.609109e+002,-4.368579e-003
4.628394e+002,-3.614585e-003
4.647679e+002,-4.329969e-003
4.666964e+002,-4.004878e-003
4.686249e+002,-2.111560e-003
4.705533e+002,-1.338406e-003
4.724819e+002,-3.561448e-003
4.744103e+002,-4.393541e-003
4.763389e+002,-3.274587e-003
4.782673e+002,-2.547447e-003
4.801959e+002,-2.759398e-003
4.821243e+002,-3.802171e-003
4.840529e+002,-6.271699e-003
4.859813e+002,-7.727643e-003
4.879099e+002,-7.013763e-003
4.898383e+002,-5.095004e-003
4.917668e+002,-3.893143e-003
4.936953e+002,-4.736106e-003
4.956238e+002,-5.059438e-003
4.975523e+002,-4.498064e-003
4.994808e+002,-6.093933e-003
5.014093e+002,-5.861701e-003
5.033378e+002,-4.632394e-003
5.052663e+002,-4.415779e-003
5.071948e+002,-5.755577e-003
5.091233e+002,-7.563529e-003
5.110518e+002,-8.033144e-003
5.129803e+002,-6.927291e-003
5.149088e+002,-6.251516e-003
5.168373e+002,-5.889846e-003
5.187658e+002,-5.347742e-003
5.206943e+002,-5.377000e-003
5.226228e+002,-5.633302e-003
5.245513e+002,-5.702407e-003
5.264798e+002,-6.851206e-003
5.284083e+002,-6.593989e-003
5.303368e+002,-5.723826e-003
5.322653e+002,-6.100761e-003
5.341938e+002,-5.717842e-003
5.361223e+002,-5.653875e-003
5.380508e+002,-5.565136e-003
5.399792e+002,-5.555780e-003
5.419078e+002,-5.218248e-003
5.438363e+002,-4.202633e-003
5.457648e+002,-3.788573e-003
5.476932e+002,-4.916198e-003
5.496218e+002,-5.640204e-003
5.515503e+002,-4.448052e-003
5.534788e+002,-3.503210e-003
5.554072e+002,-2.908421e-003
5.573358e+002,-3.300302e-003
5.592643e+002,-3.628517e-003
5.611927e+002,-3.572687e-003
5.631212e+002,-2.744549e-003
5.650497e+002,-2.104405e-003
5.669783e+002,-2.105163e-003
5.689067e+002,-2.785803e-003
5.708352e+002,-3.240451e-003
5.727637e+002,-2.885381e-003
5.746923e+002,-2.891602e-003
5.766207e+002,-4.779759e-003
5.785492e+002,-6.345699e-003
5.804777e+002,-9.016260e-003
5.824063e+002,-7.577726e-003
5.843347e+002,-4.679271e-003
5.862632e+002,-4.152653e-003
5.881917e+002,-3.926506e-003
5.901202e+002,-4.538659e-003
5.920487e+002,-4.025462e-003
5.939772e+002,-2.962164e-003
5.959057e+002,-2.449307e-003
5.978342e+002,-2.977828e-003
5.997627e+002,-3.089766e-003
6.016912e+002,-2.853387e-003
6.036197e+002,-2.435238e-003
6.055482e+002,-1.672529e-003
6.074767e+002,-7.331342e-004
6.094052e+002,-1.235400e-003
6.113337e+002,-1.851158e-003
6.132622e+002,-3.037486e-003
6.151907e+002,-2.829587e-003
6.171192e+002,-2.599950e-003
6.190477e+002,-2.642765e-003
6.209762e+002,-2.653304e-003
6.229047e+002,-3.265214e-003
6.248332e+002,-4.151373e-003
6.267617e+002,-5.439699e-003
6.286902e+002,-5.284375e-003
6.306187e+002,-4.307529e-003
6.325472e+002,-3.599042e-003
6.344756e+002,-3.615275e-003
6.364042e+002,-3.377801e-003
6.383326e+002,-3.261926e-003
6.402612e+002,-3.220717e-003
6.421896e+002,-2.722884e-003
6.441182e+002,-2.405418e-003
6.460466e+002,-2.567474e-003
6.479752e+002,-2.308004e-003
6.499036e+002,-2.590596e-003
6.518322e+002,-2.723049e-003
6.537606e+002,-2.323165e-003
6.556891e+002,-2.184096e-003
6.576177e+002,-1.952171e-003
6.595461e+002,-1.967839e-003
6.614746e+002,-2.301017e-003
6.634031e+002,-2.298677e-003
6.653317e+002,-1.181542e-003
6.672601e+002,3.700992e-004
6.691886e+002,1.856234e-004
6.711171e+002,-8.597389e-004
6.730457e+002,-9.550318e-004
6.749741e+002,-8.135066e-004
6.769026e+002,-6.715714e-004
6.788311e+002,-7.463652e-004
6.807596e+002,-2.159802e-004
6.826881e+002,1.305015e-004
6.846166e+002,-3.531315e-004
6.865451e+002,-2.507523e-004
6.884736e+002,4.007422e-004
6.904021e+002,4.778237e-004
6.923306e+002,4.265451e-004
6.942591e+002,4.328468e-004
6.961876e+002,-1.474440e-005
6.981161e+002,-5.267767e-004
7.000446e+002,-5.034449e-004
7.019731e+002,-2.879056e-004
7.039016e+002,-1.647443e-004
7.058301e+002,-6.192311e-004
7.077585e+002,-1.010505e-003
7.096871e+002,-9.293425e-004
7.116156e+002,-9.472624e-004
7.135441e+002,-1.493794e-003
7.154725e+002,-2.226226e-003
7.174011e+002,-2.372004e-003
7.193296e+002,-2.190887e-003
7.212581e+002,-2.388745e-003
7.231865e+002,-2.624619e-003
7.251151e+002,-2.703588e-003
7.270436e+002,-2.993887e-003
7.289720e+002,-3.207857e-003
7.309005e+002,-3.131907e-003
7.328290e+002,-3.151710e-003
7.347576e+002,-2.937975e-003
7.366860e+002,-2.096293e-003
7.386145e+002,-1.855777e-003
7.405430e+002,-2.204799e-003
7.424716e+002,-2.511738e-003
7.444000e+002,-2.176150e-003
7.463285e+002,-1.622092e-003
7.482570e+002,-1.879135e-003
7.501855e+002,-1.479595e-003
7.521140e+002,-6.283299e-004
7.540425e+002,-3.388621e-004
7.559710e+002,-2.567791e-004
7.578995e+002,4.206415e-004
7.598280e+002,7.114733e-004
7.617565e+002,2.902186e-004
7.636850e+002,5.497285e-005
7.656135e+002,5.970217e-004
7.675420e+002,1.635756e-003
7.694705e+002,2.206924e-003
7.713990e+002,1.639182e-003
7.733275e+002,1.164664e-003
7.752560e+002,1.427505e-003
7.771844e+002,1.947938e-003
7.791130e+002,2.120012e-003
7.810415e+002,1.988546e-003
7.829700e+002,1.723736e-003
7.848984e+002,1.709432e-003
7.868270e+002,1.622619e-003
7.887555e+002,1.440869e-003
7.906840e+002,1.287175e-003
7.926124e+002,9.827069e-004
7.945410e+002,6.948130e-004
7.964695e+002,5.912153e-004
7.983979e+002,9.399025e-004
8.003264e+002,1.075038e-003
8.022549e+002,6.979659e-004
8.041835e+002,4.711233e-004
8.061119e+002,5.718723e-004
8.080404e+002,1.129217e-003
8.099689e+002,1.555410e-003
8.118975e+002,1.323200e-003
8.138259e+002,1.305653e-003
8.157545e+002,1.689174e-003
8.176830e+002,1.482093e-003
8.196115e+002,3.563371e-004
8.215399e+002,-2.751242e-004
8.234684e+002,1.686519e-004
8.253970e+002,-1.030678e-004
8.273254e+002,-6.844073e-004
8.292539e+002,-8.225021e-004
8.311824e+002,-1.149124e-003
8.331110e+002,-1.038900e-003
8.350394e+002,-6.329620e-004
8.369679e+002,-5.650977e-004
8.388964e+002,-1.013712e-003
8.408250e+002,-1.381874e-003
8.427534e+002,-1.334905e-003
8.446819e+002,-9.609498e-004
8.466104e+002,-1.168588e-003
8.485389e+002,-1.056353e-003
8.504674e+002,-1.071590e-003
8.523959e+002,-1.333815e-003
8.543244e+002,-1.380322e-003
8.562529e+002,-1.342271e-003
8.581814e+002,-1.297213e-003
8.601099e+002,-9.270281e-004
8.620384e+002,-9.632971e-004
8.639669e+002,-1.317397e-003
8.658954e+002,-1.315547e-003
8.678239e+002,-1.004918e-003
8.697524e+002,-1.323442e-003
8.716809e+002,-1.601988e-003
8.736094e+002,-1.797772e-003
8.755378e+002,-1.612552e-003
8.774664e+002,-1.181376e-003
8.793949e+002,-9.587347e-004
8.813234e+002,-8.617230e-004
8.832518e+002,-8.264707e-004
8.851804e+002,-9.609167e-004
8.871089e+002,-7.862875e-004
8.890374e+002,-5.300861e-004
8.909658e+002,-5.901137e-004
8.928943e+002,-2.303199e-004
8.948229e+002,5.964168e-006
8.967513e+002,3.747622e-005
8.986798e+002,-1.151918e-004
9.006083e+002,-4.514154e-004
9.025369e+002,-4.482047e-004
9.044653e+002,-1.739189e-004
9.063938e+002,-1.294023e-004
9.083223e+002,-7.775863e-005
9.102509e+002,-3.683605e-004
9.121793e+002,-7.517898e-004
9.141078e+002,-8.304061e-004
9.160364e+002,-6.622749e-004
9.179648e+002,-7.504006e-004
9.198933e+002,-1.260477e-003
9.218218e+002,-1.742960e-003
9.237504e+002,-1.917238e-003
9.256788e+002,-2.127486e-003
9.276073e+002,-2.331239e-003
9.295358e+002,-1.950720e-003
9.314644e+002,-1.885634e-003
9.333928e+002,-2.158809e-003
9.353213e+002,-2.379781e-003
9.372498e+002,-2.482747e-003
9.391783e+002,-2.554101e-003
9.411068e+002,-2.573765e-003
9.430353e+002,-2.582625e-003
9.449637e+002,-2.781424e-003
9.468923e+002,-3.085785e-003
9.488208e+002,-3.025904e-003
9.507493e+002,-2.580715e-003
9.526777e+002,-2.351210e-003
9.546063e+002,-2.487557e-003
9.565348e+002,-2.401793e-003
9.584633e+002,-2.171732e-003
9.603917e+002,-2.234105e-003
9.623203e+002,-2.321747e-003
9.642488e+002,-2.209744e-003
9.661772e+002,-2.105922e-003
9.681057e+002,-1.957284e-003
9.700343e+002,-1.936338e-003
9.719628e+002,-2.132102e-003
9.738912e+002,-2.246565e-003
9.758197e+002,-2.052105e-003
9.777483e+002,-1.763354e-003
9.796768e+002,-1.512583e-003
9.816052e+002,-1.493365e-003
9.835337e+002,-1.704149e-003
9.854623e+002,-1.746161e-003
9.873907e+002,-1.828194e-003
9.893192e+002,-2.031494e-003
9.912477e+002,-1.831098e-003
9.931763e+002,-1.583501e-003
9.951047e+002,-1.489370e-003
9.970332e+002,-1.297378e-003
9.989617e+002,-1.320767e-003
1.000890e+003,-1.197039e-003
1.002819e+003,-9.656774e-004
1.004747e+003,-8.421461e-004
1.006676e+003,-7.107728e-004
1.008604e+003,-6.282637e-004
1.010533e+003,-5.653955e-004
1.012461e+003,-3.559456e-004
1.014390e+003,-9.746940e-005
1.016318e+003,3.234003e-005
1.018247e+003,2.146954e-004
1.020175e+003,1.914575e-004
1.022104e+003,5.055883e-004
1.024032e+003,8.302043e-004
1.025961e+003,9.941974e-004
1.027889e+003,1.138087e-003
1.029818e+003,1.422651e-003
1.031746e+003,1.642309e-003
1.033675e+003,1.817955e-003
1.035603e+003,2.256315e-003
1.037532e+003,2.513585e-003
1.039460e+003,2.583676e-003
1.041389e+003,2.789682e-003
1.043317e+003,2.773342e-003
1.045246e+003,2.629010e-003
1.047174e+003,2.787147e-003
1.049103e+003,2.980405e-003
1.051031e+003,2.942707e-003
1.052960e+003,3.054375e-003
1.054888e+003,3.057011e-003
1.056817e+003,2.868756e-003
1.058745e+003,2.750033e-003
1.060674e+003,2.750533e-003
1.062602e+003,2.826632e-003
1.064531e+003,2.885166e-003
1.066459e+003,2.826199e-003
1.068388e+003,2.662113e-003
1.070316e+003,2.777977e-003
1.072245e+003,3.061282e-003
1.074173e+003,3.294757e-003
1.076102e+003,3.126957e-003
1.078030e+003,2.737296e-003
1.079959e+003,2.814893e-003
1.081887e+003,3.090681e-003
1.083816e+003,3.097055e-003
1.085744e+003,3.130160e-003
1.087673e+003,3.273190e-003
1.089601e+003,3.337327e-003
1.091530e+003,3.355291e-003
1.093458e+003,3.542522e-003
1.095387e+003,3.598112e-003
1.097315e+003,3.725120e-003
1.099244e+003,3.845714e-003
1.101172e+003,4.058072e-003
1.103101e+003,4.108778e-003
1.105029e+003,3.980587e-003
1.106958e+003,3.964102e-003
1.108886e+003,3.896997e-003
1.110815e+003,4.001755e-003
1.112743e+003,4.131122e-003
1.114672e+003,3.989147e-003
1.116600e+003,4.118178e-003
1.118529e+003,4.096703e-003
1.120457e+003,3.857181e-003
1.122386e+003,3.941565e-003
1.124314e+003,3.961259e-003
1.126243e+003,3.648329e-003
1.128171e+003,3.506846e-003
1.130100e+003,3.593702e-003
1.132028e+003,3.499096e-003
1.133957e+003,3.164737e-003
1.135885e+003,2.853180e-003
1.137814e+003,2.696585e-003
1.139742e+003,2.544746e-003
1.141671e+003,2.206591e-003
1.143599e+003,1.793367e-003
1.145528e+003,1.606922e-003
1.147456e+003,1.435882e-003
1.149385e+003,1.009873e-003
1.151313e+003,7.942861e-004
1.153242e+003,6.386309e-004
1.155170e+003,2.846484e-004
1.157099e+003,1.373623e-004
1.159027e+003,-2.339200e-005
1.160956e+003,-1.362920e-004
1.162884e+003,-2.818129e-004
1.164813e+003,-3.573030e-004
1.166741e+003,-2.436325e-004
1.168670e+003,-1.383788e-004
1.170598e+003,-1.360271e-004
1.172526e+003,-1.456659e-004
1.174455e+003,-8.226403e-005
1.176384e+003,-3.140993e-005
1.178312e+003,-1.951551e-005
1.180240e+003,6.063953e-005
1.182169e+003,9.888323e-005
1.184098e+003,1.562220e-004
1.186026e+003,1.918885e-004
1.187954e+003,1.347108e-004
1.189883e+003,-2.763825e-004
1.191812e+003,-3.400209e-004
1.193740e+003,5.212297e-005
1.195668e+003,1.305015e-004
1.197597e+003,1.600404e-005
1.199526e+003,1.686555e-005
1.201454e+003,3.800640e-005
1.203382e+003,1.111126e-004
1.205311e+003,2.648548e-004
1.207240e+003,3.508987e-004
1.209168e+003,5.807640e-004
1.211096e+003,7.716148e-004
1.213025e+003,8.997917e-004
1.214953e+003,9.703533e-004
1.216882e+003,9.953597e-004
1.218810e+003,1.077463e-003
1.220739e+003,1.156425e-003
1.222667e+003,1.335631e-003
1.224596e+003,1.584441e-003
1.226524e+003,1.666822e-003
1.228453e+003,1.818054e-003
1.230381e+003,2.085952e-003
1.232310e+003,2.159603e-003
1.234238e+003,2.157239e-003
1.236167e+003,2.342887e-003
1.238095e+003,2.411552e-003
1.240024e+003,2.473695e-003
1.241952e+003,2.525216e-003
1.243881e+003,2.276632e-003
1.245809e+003,2.284027e-003
1.247738e+003,2.118181e-003
1.249666e+003,1.837886e-003
1.251595e+003,1.869830e-003
1.253523e+003,2.025794e-003
1.255452e+003,1.996701e-003
1.257380e+003,1.887767e-003
1.259309e+003,1.694230e-003
1.261237e+003,1.673041e-003
1.263166e+003,1.952166e-003
1.265094e+003,2.154975e-003
1.267023e+003,2.371605e-003
1.268951e+003,2.712956e-003
1.270880e+003,3.044365e-003
1.272808e+003,3.277430e-003
1.274737e+003,3.537410e-003
1.276665e+003,3.905389e-003
1.278594e+003,4.125503e-003
1.280522e+003,4.415614e-003
1.282451e+003,4.705751e-003
1.284379e+003,4.929656e-003
1.286308e+003,5.359127e-003
1.288236e+003,5.641941e-003
1.290165e+003,5.815652e-003
1.292093e+003,6.046312e-003
1.294022e+003,6.222976e-003
1.295950e+003,6.360404e-003
1.297879e+003,6.476957e-003
1.299807e+003,6.656084e-003
1.301736e+003,6.613692e-003
1.303664e+003,6.517317e-003
1.305593e+003,6.506588e-003
1.307521e+003,6.445008e-003
1.309450e+003,6.195347e-003
1.311378e+003,5.898134e-003
1.313307e+003,5.725699e-003
1.315235e+003,5.649896e-003
1.317164e+003,5.422264e-003
1.319092e+003,5.104525e-003
1.321021e+003,4.659162e-003
1.322949e+003,4.288135e-003
1.324878e+003,4.102289e-003
1.326806e+003,3.956879e-003
1.328735e+003,3.894624e-003
1.330663e+003,3.744036e-003
1.332592e+003,3.577766e-003
1.334520e+003,3.557287e-003
1.336449e+003,3.556953e-003
1.338377e+003,3.466163e-003
1.340306e+003,3.397332e-003
1.342234e+003,3.343103e-003
1.344163e+003,3.263442e-003
1.346091e+003,3.186299e-003
1.348020e+003,3.126790e-003
1.349948e+003,3.038893e-003
1.351877e+003,2.799786e-003
1.353805e+003,2.559478e-003
1.355734e+003,2.489857e-003
1.357662e+003,2.323300e-003
1.359591e+003,2.174455e-003
1.361519e+003,2.232168e-003
1.363448e+003,2.246423e-003
1.365376e+003,1.959521e-003
1.367305e+003,1.737375e-003
1.369233e+003,1.661466e-003
1.371162e+003,1.593952e-003
1.373090e+003,1.710130e-003
1.375019e+003,1.672443e-003
1.376947e+003,1.551486e-003
1.378876e+003,1.657641e-003
1.380804e+003,1.782188e-003
1.382733e+003,1.730156e-003
1.384661e+003,1.539781e-003
1.386590e+003,1.500779e-003
1.388518e+003,1.313230e-003
1.390447e+003,1.052485e-003
1.392375e+003,9.173231e-004
1.394304e+003,9.475731e-004
1.396232e+003,8.890674e-004
1.398161e+003,8.381053e-004
1.400089e+003,8.059376e-004
1.402018e+003,7.591676e-004
1.403946e+003,8.231001e-004
1.405875e+003,7.889086e-004
1.407803e+003,7.083868e-004
1.409732e+003,6.699234e-004
1.411660e+003,7.086855e-004
1.413589e+003,7.936222e-004
1.415517e+003,1.166924e-003
1.417446e+003,1.953264e-003
1.419374e+003,2.628610e-003
1.421303e+003,2.810191e-003
1.423231e+003,3.209196e-003
1.425160e+003,3.789123e-003
1.427088e+003,4.252599e-003
1.429017e+003,4.632035e-003
1.430945e+003,4.747991e-003
1.432874e+003,4.909080e-003
1.434802e+003,5.432229e-003
1.436731e+003,5.947510e-003
1.438659e+003,5.974820e-003
1.440588e+003,6.157672e-003
1.442516e+003,6.442250e-003
1.444445e+003,6.779413e-003
1.446373e+003,7.442188e-003
1.448302e+003,7.917207e-003
1.450230e+003,8.102499e-003
1.452159e+003,8.386226e-003
1.454087e+003,8.934350e-003
1.456016e+003,9.624679e-003
1.457944e+003,9.810498e-003
1.459873e+003,9.476935e-003
1.461801e+003,9.314379e-003
1.463730e+003,9.502673e-003
1.465658e+003,9.581421e-003
1.467587e+003,9.301583e-003
1.469515e+003,9.220246e-003
1.471444e+003,9.418860e-003
1.473372e+003,9.159972e-003
1.475301e+003,8.775108e-003
1.477229e+003,8.341503e-003
1.479158e+003,7.812108e-003
1.481086e+003,7.309707e-003
1.483015e+003,6.853057e-003
1.484943e+003,6.517082e-003
1.486872e+003,6.335490e-003
1.488800e+003,6.116270e-003
1.490729e+003,5.579744e-003
1.492657e+003,4.881502e-003
1.494586e+003,4.797370e-003
1.496514e+003,4.707292e-003
1.498443e+003,4.153201e-003
1.500371e+003,3.590026e-003
1.502300e+003,3.326709e-003
1.504228e+003,3.537043e-003
1.506157e+003,3.784511e-003
1.508085e+003,3.404111e-003
1.510014e+003,2.928763e-003
1.511942e+003,2.688950e-003
1.513871e+003,2.647444e-003
1.515799e+003,2.708555e-003
1.517728e+003,2.788414e-003
1.519656e+003,2.961522e-003
1.521585e+003,3.175117e-003
1.523513e+003,3.237537e-003
1.525442e+003,3.417470e-003
1.527370e+003,3.372755e-003
1.529299e+003,3.380135e-003
1.531227e+003,3.665538e-003
1.533156e+003,4.148584e-003
1.535084e+003,4.220111e-003
1.537013e+003,4.559536e-003
1.538941e+003,5.403913e-003
1.540870e+003,5.820958e-003
1.542798e+003,5.713042e-003
1.544727e+003,5.717876e-003
1.546655e+003,5.741143e-003
1.548584e+003,5.924602e-003
1.550512e+003,6.187046e-003
1.552441e+003,6.427353e-003
1.554369e+003,6.749865e-003
1.556298e+003,7.105656e-003
1.558226e+003,7.900099e-003
1.560155e+003,7.906240e-003
1.562083e+003,7.613856e-003
1.564012e+003,7.882486e-003
1.565940e+003,8.173160e-003
1.567869e+003,8.417981e-003
1.569797e+003,8.580303e-003
1.571726e+003,8.502547e-003
1.573654e+003,8.671018e-003
1.575583e+003,9.024023e-003
1.577511e+003,8.754721e-003
1.579440e+003,8.353664e-003
1.581368e+003,8.293374e-003
1.583297e+003,8.153612e-003
1.585225e+003,7.888054e-003
1.587154e+003,7.620634e-003
1.589082e+003,7.252629e-003
1.591010e+003,6.784798e-003
1.592939e+003,6.366827e-003
1.594868e+003,5.947409e-003
1.596796e+003,5.433940e-003
1.598724e+003,4.941352e-003
1.600653e+003,4.418091e-003
1.602582e+003,4.013693e-003
1.604510e+003,3.606798e-003
1.606438e+003,3.161399e-003
1.608367e+003,2.710322e-003
1.610296e+003,2.380333e-003
1.612224e+003,1.956958e-003
1.614152e+003,1.716018e-003
1.616081e+003,1.679428e-003
1.618010e+003,1.260523e-003
1.619938e+003,8.310342e-004
1.621866e+003,8.233989e-004
1.623795e+003,6.743371e-004
1.625724e+003,4.711233e-004
1.627652e+003,3.999131e-004
1.629580e+003,8.287614e-005
1.631509e+003,-2.315121e-004
1.633438e+003,-1.327809e-004
1.635366e+003,2.253173e-005
1.637294e+003,-5.397493e-004
1.639223e+003,-1.082696e-003
1.641151e+003,-1.393269e-003
1.643080e+003,-1.752101e-003
1.645008e+003,-1.891539e-003
1.646937e+003,-2.037727e-003
1.648865e+003,-2.569483e-003
1.650794e+003,-2.630975e-003
1.652722e+003,-2.271089e-003
1.654651e+003,-3.228677e-003
1.656579e+003,-4.025856e-003
1.658508e+003,-4.477568e-003
1.660436e+003,-4.690022e-003
1.662365e+003,-4.825965e-003
1.664293e+003,-5.225680e-003
1.666222e+003,-5.306993e-003
1.668150e+003,-5.188881e-003
1.670079e+003,-5.394966e-003
1.672007e+003,-5.617538e-003
1.673936e+003,-5.504810e-003
1.675864e+003,-5.533665e-003
1.677793e+003,-5.782094e-003
1.679721e+003,-5.625256e-003
1.681650e+003,-5.226400e-003
1.683578e+003,-4.660980e-003
1.685507e+003,-4.821279e-003
1.687435e+003,-5.092646e-003
1.689364e+003,-5.017614e-003
1.691292e+003,-4.933889e-003
1.693221e+003,-4.719227e-003
1.695149e+003,-4.204175e-003
1.697078e+003,-4.001857e-003
1.699006e+003,-3.715353e-003
1.700935e+003,-3.766139e-003
1.702863e+003,-4.192066e-003
1.704792e+003,-4.129515e-003
1.706720e+003,-4.149043e-003
1.708649e+003,-4.300312e-003
1.710577e+003,-4.438738e-003
1.712506e+003,-4.442739e-003
1.714434e+003,-4.251688e-003
1.716363e+003,-4.067808e-003
1.718291e+003,-4.218876e-003
1.720220e+003,-4.555775e-003
1.722148e+003,-4.704149e-003
1.724077e+003,-4.777662e-003
1.726005e+003,-4.812661e-003
1.727934e+003,-4.762554e-003
1.729862e+003,-4.601807e-003
1.731791e+003,-4.401839e-003
1.733719e+003,-4.160693e-003
1.735648e+003,-4.534560e-003
1.737576e+003,-4.726142e-003
1.739505e+003,-4.489931e-003
1.741433e+003,-4.473829e-003
1.743362e+003,-4.494489e-003
1.745290e+003,-4.454382e-003
1.747219e+003,-4.255232e-003
1.749147e+003,-4.078082e-003
1.751076e+003,-4.025232e-003
1.753004e+003,-4.174542e-003
1.754933e+003,-4.054021e-003
1.756861e+003,-3.918691e-003
1.758790e+003,-4.030419e-003
1.760718e+003,-3.927688e-003
1.762647e+003,-3.875082e-003
1.764575e+003,-3.972473e-003
1.766504e+003,-3.797343e-003
1.768432e+003,-3.657004e-003
1.770361e+003,-3.555697e-003
1.772289e+003,-3.407521e-003
1.774218e+003,-3.660388e-003
1.776146e+003,-3.728099e-003
1.778075e+003,-3.732731e-003
1.780003e+003,-3.724913e-003
1.781932e+003,-3.766073e-003
1.783860e+003,-3.765317e-003
1.785789e+003,-3.570124e-003
1.787717e+003,-3.418731e-003
1.789646e+003,-3.362217e-003
1.791574e+003,-3.238543e-003
1.793503e+003,-3.413701e-003
1.795431e+003,-3.627498e-003
1.797360e+003,-3.633938e-003
1.799288e+003,-3.522207e-003
1.801217e+003,-3.464194e-003
1.803145e+003,-3.561809e-003
1.805074e+003,-3.606895e-003
1.807002e+003,-3.523127e-003
1.808931e+003,-3.549288e-003
1.810859e+003,-3.488288e-003
1.812788e+003,-3.466462e-003
1.814716e+003,-3.545279e-003
1.816645e+003,-3.570124e-003
1.818573e+003,-3.626874e-003
1.820502e+003,-3.643664e-003
1.822430e+003,-3.655361e-003
1.824359e+003,-3.563913e-003
1.826287e+003,-3.671986e-003
1.828216e+003,-3.711838e-003
1.830144e+003,-3.611397e-003
1.832073e+003,-3.688939e-003
1.834001e+003,-3.772642e-003
1.835930e+003,-3.831928e-003
1.837858e+003,-3.879548e-003
1.839787e+003,-3.917968e-003
1.841715e+003,-3.795701e-003
1.843644e+003,-3.616195e-003
1.845572e+003,-3.729643e-003
1.847501e+003,-3.864409e-003
1.849429e+003,-3.891928e-003
1.851358e+003,-3.821911e-003
1.853286e+003,-3.794781e-003
1.855215e+003,-3.795898e-003
1.857143e+003,-3.797737e-003
1.859072e+003,-3.845820e-003
1.861000e+003,-3.835607e-003
1.862929e+003,-3.760752e-003
1.864857e+003,-3.649644e-003
1.866786e+003,-3.521353e-003
1.868714e+003,-3.446016e-003
1.870643e+003,-3.510506e-003
1.872571e+003,-3.570025e-003
1.874500e+003,-3.567264e-003
1.876428e+003,-3.516423e-003
1.878357e+003,-3.517869e-003
1.880285e+003,-3.501764e-003
1.882214e+003,-3.420737e-003
1.884142e+003,-3.472182e-003
1.886071e+003,-3.468336e-003
1.887999e+003,-3.350775e-003
1.889928e+003,-3.336439e-003
1.891856e+003,-3.396902e-003
1.893785e+003,-3.286918e-003
1.895713e+003,-3.191906e-003
1.897642e+003,-3.194932e-003
1.899570e+003,-3.288135e-003
1.901499e+003,-3.218711e-003
1.903427e+003,-3.111808e-003
1.905356e+003,-3.146710e-003
1.907284e+003,-3.156579e-003
1.909213e+003,-3.083120e-003
1.911141e+003,-3.036795e-003
1.913070e+003,-3.020837e-003
1.914998e+003,-3.074434e-003
1.916927e+003,-3.029721e-003
1.918855e+003,-2.988984e-003
1.920784e+003,-3.035841e-003
1.922712e+003,-3.070124e-003
1.924641e+003,-3.113880e-003
1.926569e+003,-3.187728e-003
1.928498e+003,-3.252323e-003
1.930426e+003,-3.197037e-003
1.932355e+003,-3.102300e-003
1.934283e+003,-3.119308e-003
1.936212e+003,-3.225092e-003
1.938140e+003,-3.307503e-003
1.940069e+003,-3.263373e-003
1.941997e+003,-3.192662e-003
1.943926e+003,-3.231768e-003
1.945854e+003,-3.316974e-003
1.947783e+003,-3.411137e-003
1.949711e+003,-3.477539e-003
1.951640e+003,-3.463208e-003
1.953568e+003,-3.437568e-003
1.955497e+003,-3.422019e-003
1.957425e+003,-3.459658e-003
1.959354e+003,-3.519150e-003
1.961282e+003,-3.457718e-003
1.963211e+003,-3.461170e-003
1.965139e+003,-3.486414e-003
1.967068e+003,-3.388683e-003
1.968996e+003,-3.361000e-003
1.970925e+003,-3.401373e-003
1.972853e+003,-3.432341e-003
1.974782e+003,-3.410085e-003
1.976710e+003,-3.390426e-003
1.978639e+003,-3.343739e-003
1.980567e+003,-3.369680e-003
1.982496e+003,-3.343377e-003
1.984424e+003,-3.277645e-003
1.986353e+003,-3.254132e-003
1.988281e+003,-3.195754e-003
1.990210e+003,-3.132105e-003
1.992138e+003,-3.062097e-003
1.994067e+003,-3.036400e-003
1.995995e+003,-3.037223e-003
1.997924e+003,-2.977072e-003
1.999852e+003,-2.919315e-003
2.001781e+003,-3.013927e-003
2.003709e+003,-3.079172e-003
2.005638e+003,-2.936429e-003
2.007566e+003,-2.898711e-003
2.009495e+003,-2.972794e-003
2.011423e+003,-2.997902e-003
2.013352e+003,-2.889759e-003
2.015280e+003,-2.804074e-003
2.017208e+003,-2.863163e-003
2.019137e+003,-2.917636e-003
2.021066e+003,-2.889792e-003
2.022994e+003,-2.816255e-003
2.024922e+003,-2.765884e-003
2.026851e+003,-2.749620e-003
2.028780e+003,-2.789721e-003
2.030708e+003,-2.802198e-003
2.032636e+003,-2.772173e-003
2.034565e+003,-2.773292e-003
2.036494e+003,-2.819185e-003
2.038422e+003,-2.822641e-003
2.040350e+003,-2.706618e-003
2.042279e+003,-2.706124e-003
2.044208e+003,-2.768518e-003
2.046136e+003,-2.737536e-003
2.048064e+003,-2.661965e-003
2.049993e+003,-2.564740e-003
2.051921e+003,-2.599753e-003
2.053850e+003,-2.689034e-003
2.055778e+003,-2.694237e-003
2.057707e+003,-2.581077e-003
2.059635e+003,-2.505709e-003
2.061564e+003,-2.559074e-003
2.063492e+003,-2.585030e-003
2.065421e+003,-2.581473e-003
2.067349e+003,-2.552454e-003
2.069278e+003,-2.560721e-003
2.071206e+003,-2.566552e-003
2.073135e+003,-2.491412e-003
2.075063e+003,-2.398432e-003
2.076992e+003,-2.380506e-003
2.078920e+003,-2.358955e-003
2.080849e+003,-2.292975e-003
2.082777e+003,-2.249762e-003
2.084706e+003,-2.192832e-003
2.086634e+003,-2.223095e-003
2.088563e+003,-2.220622e-003
2.090491e+003,-2.123101e-003
2.092420e+003,-2.066615e-003
2.094348e+003,-2.040398e-003
2.096277e+003,-2.025129e-003
2.098205e+003,-1.996600e-003
2.100134e+003,-2.029977e-003
2.102062e+003,-1.922747e-003
2.103991e+003,-1.779887e-003
2.105919e+003,-1.728571e-003
2.107848e+003,-1.730221e-003
2.109776e+003,-1.726921e-003
2.111705e+003,-1.663981e-003
2.113633e+003,-1.527111e-003
2.115562e+003,-1.490228e-003
2.117490e+003,-1.520144e-003
2.119419e+003,-1.516743e-003
2.121347e+003,-1.465198e-003
2.123276e+003,-1.374905e-003
2.125204e+003,-1.369786e-003
2.127133e+003,-1.372890e-003
2.129061e+003,-1.267580e-003
2.130990e+003,-1.180517e-003
2.132918e+003,-1.174107e-003
2.134847e+003,-1.196246e-003
2.136775e+003,-1.221589e-003
2.138704e+003,-1.195750e-003
2.140632e+003,-1.172950e-003
2.142561e+003,-1.203152e-003
2.144489e+003,-1.232129e-003
2.146418e+003,-1.164094e-003
2.148346e+003,-1.089670e-003
2.150275e+003,-1.065343e-003
2.152203e+003,-1.034306e-003
2.154132e+003,-1.047792e-003
2.156060e+003,-1.078762e-003
2.157989e+003,-1.169414e-003
2.159917e+003,-1.169910e-003
2.161846e+003,-1.100147e-003
2.163774e+003,-1.088480e-003
2.165703e+003,-1.093041e-003
2.167631e+003,-1.095619e-003
2.169560e+003,-1.061641e-003
2.171488e+003,-9.902077e-004
2.173417e+003,-1.069475e-003
2.175345e+003,-1.120769e-003
2.177274e+003,-1.076449e-003
2.179202e+003,-1.048420e-003
2.181131e+003,-1.100708e-003
2.183059e+003,-1.129792e-003
2.184988e+003,-1.103551e-003
2.186916e+003,-1.158873e-003
2.188845e+003,-1.155370e-003
2.190773e+003,-1.025579e-003
2.192702e+003,-9.139017e-004
2.194630e+003,-9.944722e-004
2.196559e+003,-1.120406e-003
2.198487e+003,-1.121034e-003
2.200416e+003,-1.105203e-003
2.202344e+003,-1.092314e-003
2.204273e+003,-1.037776e-003
2.206201e+003,-9.785378e-004
2.208130e+003,-9.919928e-004
2.210058e+003,-1.065046e-003
2.211987e+003,-1.116671e-003
2.213915e+003,-1.015926e-003
2.215844e+003,-1.016323e-003
2.217772e+003,-1.013844e-003
2.219701e+003,-9.059993e-004
2.221629e+003,-8.918802e-004
2.223558e+003,-9.531474e-004
2.225486e+003,-9.845545e-004
2.227415e+003,-1.003332e-003
2.229343e+003,-1.018769e-003
2.231272e+003,-9.858108e-004
2.233200e+003,-1.003563e-003
2.235129e+003,-9.733474e-004
2.237057e+003,-9.089420e-004
2.238986e+003,-9.485518e-004
2.240914e+003,-1.046965e-003
2.242843e+003,-1.026339e-003
2.244771e+003,-9.769179e-004
2.246700e+003,-1.017216e-003
2.248628e+003,-1.060815e-003
2.250557e+003,-1.075523e-003
2.252485e+003,-1.109962e-003
2.254414e+003,-1.176321e-003
2.256342e+003,-1.102427e-003
2.258271e+003,-1.064054e-003
2.260199e+003,-1.149818e-003
2.262128e+003,-1.144762e-003
2.264056e+003,-1.113267e-003
2.265985e+003,-1.139772e-003
2.267913e+003,-1.181905e-003
2.269842e+003,-1.189736e-003
2.271770e+003,-1.225785e-003
2.273699e+003,-1.214948e-003
2.275627e+003,-1.225058e-003
2.277556e+003,-1.334508e-003
2.279484e+003,-1.502248e-003
2.281413e+003,-1.534341e-003
2.283341e+003,-1.503601e-003
2.285270e+003,-1.567654e-003
2.287198e+003,-1.562867e-003
2.289127e+003,-1.492044e-003
2.291055e+003,-1.411335e-003
2.292984e+003,-1.384814e-003
2.294912e+003,-1.370578e-003
2.296841e+003,-1.367110e-003
2.298769e+003,-1.359579e-003
2.300698e+003,-1.334145e-003
2.302626e+003,-1.248120e-003
2.304555e+003,-1.138384e-003
2.306483e+003,-9.939763e-004
2.308412e+003,-8.226013e-004
2.310340e+003,-6.898327e-004
2.312269e+003,-5.725762e-004
2.314197e+003,-4.651846e-004
2.316125e+003,-2.923757e-004
2.318054e+003,-5.768253e-005
2.319983e+003,1.376606e-004
2.321911e+003,2.910807e-004
2.323840e+003,4.743740e-004
2.325768e+003,7.844938e-004
2.327697e+003,9.911088e-004
2.329625e+003,1.089321e-003
2.331553e+003,1.076998e-003
2.333482e+003,1.193603e-003
2.335411e+003,1.378241e-003
2.337339e+003,1.378507e-003
2.339268e+003,1.372524e-003
2.341196e+003,1.465470e-003
2.343125e+003,1.345502e-003
2.345053e+003,1.015884e-003
2.346981e+003,4.905614e-004
2.348910e+003,1.882421e-004
2.350839e+003,6.391287e-004
2.352767e+003,1.304323e-003
2.354696e+003,1.791437e-003
2.356624e+003,2.257014e-003
2.358552e+003,2.490757e-003
2.360481e+003,2.442139e-003
2.362409e+003,2.330062e-003
2.364338e+003,2.234333e-003
2.366267e+003,2.136428e-003
2.368195e+003,1.837453e-003
2.370124e+003,1.463076e-003
2.372052e+003,1.084173e-003
2.373980e+003,5.529282e-004
2.375909e+003,1.259608e-004
2.377838e+003,-2.160286e-005
2.379766e+003,-1.848486e-004
2.381695e+003,-4.092114e-004
2.383623e+003,-4.553543e-004
2.385552e+003,-3.393256e-004
2.387480e+003,-2.600244e-004
2.389408e+003,-1.780590e-004
2.391337e+003,-1.137674e-004
2.393266e+003,-1.859747e-004
2.395194e+003,-2.072040e-004
2.397123e+003,-1.602067e-004
2.399051e+003,-1.764029e-004
2.400979e+003,-2.003485e-004
2.402908e+003,-1.383788e-004
2.404836e+003,-7.666540e-005
2.406765e+003,-1.033659e-004
2.408694e+003,-1.227774e-004
2.410622e+003,-1.063141e-004
2.412551e+003,-6.351331e-005
2.414479e+003,6.249530e-005
2.416407e+003,8.920600e-005
2.418336e+003,-1.527452e-005
2.420264e+003,-7.620762e-006
2.422193e+003,1.487973e-004
2.424122e+003,2.295802e-004
2.426050e+003,2.128721e-004
2.427979e+003,2.097891e-004
2.429907e+003,3.168438e-004
2.431835e+003,5.233360e-004
2.433764e+003,5.768821e-004
2.435692e+003,5.788728e-004
2.437621e+003,6.093979e-004
2.439550e+003,6.499464e-004
2.441478e+003,6.506764e-004
2.443406e+003,5.600612e-004
2.445335e+003,5.926088e-004
2.447263e+003,6.747685e-004
2.449192e+003,6.589061e-004
2.451121e+003,7.414766e-004
2.453049e+003,8.050413e-004
2.454978e+003,8.278805e-004
2.456906e+003,8.895322e-004
2.458834e+003,9.484364e-004
2.460763e+003,1.016249e-003
2.462691e+003,1.152538e-003
2.464620e+003,1.254642e-003
2.466549e+003,1.237761e-003
2.468477e+003,1.128818e-003
2.470406e+003,1.160113e-003
2.472334e+003,1.156425e-003
2.474262e+003,1.198387e-003
2.476191e+003,1.267701e-003
2.478119e+003,1.249458e-003
2.480048e+003,1.212940e-003
2.481977e+003,1.233674e-003
2.483905e+003,1.277704e-003
2.485833e+003,1.252881e-003
2.487762e+003,1.289834e-003
2.489690e+003,1.368702e-003
2.491619e+003,1.409288e-003
2.493547e+003,1.490937e-003
2.495476e+003,1.488211e-003
2.497405e+003,1.462345e-003
2.499333e+003,1.521560e-003
2.501261e+003,1.627176e-003
2.503190e+003,1.609050e-003
2.505118e+003,1.565818e-003
2.507047e+003,1.529141e-003
2.508975e+003,1.543107e-003
2.510904e+003,1.621222e-003
2.512833e+003,1.671212e-003
2.514761e+003,1.687577e-003
2.516689e+003,1.683419e-003
2.518618e+003,1.630701e-003
2.520546e+003,1.623783e-003
2.522475e+003,1.641876e-003
2.524403e+003,1.687677e-003
2.526332e+003,1.740701e-003
2.528260e+003,1.779393e-003
2.530189e+003,1.790505e-003
2.532117e+003,1.770843e-003
2.534046e+003,1.800553e-003
2.535974e+003,1.864872e-003
2.537903e+003,1.930133e-003
2.539831e+003,1.921646e-003
2.541760e+003,1.932862e-003
2.543688e+003,1.921213e-003
2.545617e+003,1.894256e-003
2.547545e+003,1.947606e-003
2.549474e+003,2.054091e-003
2.551402e+003,2.040042e-003
2.553331e+003,1.999330e-003
2.555259e+003,2.006221e-003
2.557188e+003,2.020335e-003
2.559116e+003,2.026260e-003
2.561045e+003,2.099303e-003
2.562973e+003,2.178884e-003
2.564902e+003,2.076396e-003
2.566830e+003,2.035648e-003
2.568759e+003,2.236997e-003
2.570687e+003,2.287258e-003
2.572616e+003,2.212552e-003
2.574544e+003,2.268306e-003
2.576473e+003,2.336991e-003
2.578401e+003,2.281196e-003
2.580330e+003,2.185378e-003
2.582258e+003,2.206591e-003
2.584187e+003,2.305179e-003
2.586115e+003,2.327097e-003
2.588044e+003,2.344986e-003
2.589972e+003,2.368206e-003
2.591901e+003,2.333760e-003
2.593829e+003,2.322867e-003
2.595758e+003,2.345120e-003
2.597686e+003,2.417149e-003
2.599615e+003,2.523316e-003
2.601543e+003,2.477494e-003
2.603472e+003,2.376269e-003
2.605400e+003,2.433742e-003
2.607329e+003,2.484425e-003
2.609257e+003,2.514385e-003
2.611186e+003,2.532315e-003
2.613114e+003,2.506686e-003
2.615043e+003,2.485925e-003
2.616971e+003,2.563611e-003
2.618900e+003,2.594176e-003
2.620828e+003,2.559444e-003
2.622757e+003,2.618042e-003
2.624685e+003,2.673281e-003
2.626614e+003,2.656612e-003
2.628542e+003,2.607842e-003
2.630471e+003,2.603542e-003
2.632399e+003,2.635077e-003
2.634328e+003,2.599342e-003
2.636256e+003,2.533948e-003
2.638185e+003,2.603942e-003
2.640113e+003,2.747066e-003
2.642042e+003,2.853280e-003
2.643970e+003,2.833803e-003
2.645899e+003,2.851112e-003
2.647827e+003,2.902278e-003
2.649756e+003,2.944742e-003
2.651684e+003,2.919190e-003
2.653613e+003,2.937336e-003
2.655541e+003,3.068590e-003
2.657470e+003,3.049470e-003
2.659398e+003,3.067923e-003
2.661327e+003,3.133498e-003
2.663255e+003,3.133665e-003
2.665184e+003,3.121350e-003
2.667112e+003,3.167774e-003
2.669041e+003,3.150619e-003
2.670969e+003,3.154057e-003
2.672898e+003,3.227289e-003
2.674826e+003,3.285943e-003
2.676755e+003,3.331217e-003
2.678683e+003,3.367078e-003
2.680612e+003,3.464427e-003
2.682540e+003,3.581207e-003
2.684469e+003,3.482897e-003
2.686397e+003,3.504842e-003
2.688326e+003,3.601219e-003
2.690254e+003,3.613915e-003
2.692183e+003,3.623938e-003
2.694111e+003,3.696113e-003
2.696040e+003,3.811552e-003
2.697968e+003,3.891748e-003
2.699897e+003,3.860825e-003
2.701825e+003,3.794104e-003
2.703754e+003,3.801257e-003
2.705682e+003,3.890511e-003
2.707611e+003,4.005600e-003
2.709539e+003,4.071852e-003
2.711468e+003,4.082756e-003
2.713396e+003,4.030882e-003
2.715325e+003,4.002022e-003
2.717253e+003,4.062788e-003
2.719182e+003,3.997675e-003
2.721110e+003,3.966543e-003
2.723039e+003,4.122627e-003
2.724967e+003,4.236706e-003
2.726896e+003,4.266385e-003
2.728824e+003,4.174678e-003
2.730753e+003,4.244134e-003
2.732681e+003,4.432417e-003
2.734610e+003,4.496960e-003
2.736538e+003,4.505062e-003
2.738467e+003,4.514972e-003
2.740395e+003,4.604072e-003
2.742324e+003,4.691047e-003
2.744252e+003,4.707661e-003
2.746181e+003,4.766549e-003
2.748109e+003,4.873024e-003
2.750038e+003,4.952680e-003
2.751966e+003,4.967929e-003
2.753895e+003,5.076465e-003
2.755823e+003,5.143953e-003
2.757752e+003,5.205449e-003
2.759680e+003,5.317734e-003
2.761609e+003,5.446824e-003
2.763537e+003,5.650500e-003
2.765466e+003,5.837514e-003
2.767394e+003,6.051554e-003
2.769323e+003,6.232892e-003
2.771251e+003,6.427824e-003
2.773180e+003,6.738591e-003
2.775108e+003,6.985702e-003
2.777037e+003,7.246598e-003
2.778965e+003,7.626097e-003
2.780894e+003,8.023715e-003
2.782822e+003,8.387138e-003
2.784750e+003,8.697182e-003
2.786679e+003,9.120652e-003
2.788608e+003,9.552427e-003
2.790536e+003,9.955711e-003
2.792465e+003,1.029175e-002
2.794393e+003,1.065718e-002
2.796322e+003,1.097064e-002
2.798250e+003,1.130502e-002
2.800178e+003,1.162212e-002
2.802107e+003,1.187942e-002
2.804036e+003,1.210174e-002
2.805964e+003,1.230420e-002
2.807893e+003,1.237585e-002
2.809821e+003,1.228742e-002
2.811750e+003,1.235202e-002
2.813678e+003,1.239184e-002
2.815606e+003,1.228674e-002
2.817535e+003,1.213608e-002
2.819464e+003,1.198819e-002
2.821392e+003,1.185180e-002
2.823321e+003,1.157363e-002
2.825249e+003,1.124955e-002
2.827177e+003,1.104347e-002
2.829106e+003,1.082044e-002
2.831034e+003,1.041543e-002
2.832963e+003,1.003617e-002
2.834892e+003,9.762782e-003
2.836820e+003,9.366888e-003
2.838749e+003,9.031871e-003
2.840677e+003,8.726322e-003
2.842605e+003,8.286992e-003
2.844534e+003,7.786470e-003
2.846462e+003,7.237064e-003
2.848391e+003,6.767129e-003
2.850320e+003,6.491049e-003
2.852248e+003,6.313503e-003
2.854177e+003,6.176661e-003
2.856105e+003,6.052259e-003
2.858033e+003,5.930278e-003
2.859962e+003,6.030118e-003
2.861890e+003,6.155286e-003
2.863819e+003,6.098830e-003
2.865748e+003,6.064658e-003
2.867676e+003,6.157470e-003
2.869604e+003,6.219379e-003
2.871533e+003,6.223682e-003
2.873461e+003,6.290441e-003
2.875390e+003,6.387337e-003
2.877319e+003,6.408084e-003
2.879247e+003,6.511969e-003
2.881176e+003,6.593978e-003
2.883104e+003,6.512070e-003
2.885032e+003,6.383403e-003
2.886961e+003,6.378225e-003
2.888889e+003,6.443965e-003
2.890818e+003,6.426613e-003
2.892747e+003,6.251682e-003
2.894675e+003,6.079542e-003
2.896604e+003,6.077493e-003
2.898532e+003,6.077157e-003
2.900460e+003,5.933167e-003
2.902389e+003,5.850880e-003
2.904317e+003,5.771932e-003
2.906246e+003,5.728083e-003
2.908175e+003,5.700653e-003
2.910103e+003,5.560749e-003
2.912031e+003,5.237978e-003
2.913960e+003,4.995781e-003
2.915888e+003,4.913001e-003
2.917817e+003,4.806382e-003
2.919745e+003,4.830203e-003
2.921674e+003,4.896950e-003
2.923603e+003,4.892560e-003
2.925531e+003,4.911024e-003
2.927459e+003,5.114952e-003
2.929388e+003,5.259140e-003
2.931316e+003,5.323268e-003
2.933245e+003,5.420889e-003
2.935173e+003,5.551620e-003
2.937102e+003,5.663928e-003
2.939031e+003,5.617235e-003
2.940959e+003,5.501182e-003
2.942887e+003,5.386971e-003
2.944816e+003,5.295865e-003
2.946744e+003,5.174834e-003
2.948673e+003,5.077940e-003
2.950601e+003,4.840489e-003
2.952530e+003,4.491168e-003
2.954458e+003,4.069042e-003
2.956387e+003,3.721812e-003
2.958315e+003,3.396264e-003
2.960244e+003,3.074330e-003
2.962172e+003,2.785813e-003
2.964101e+003,2.532648e-003
2.966029e+003,2.280530e-003
2.967958e+003,2.012046e-003
2.969886e+003,1.772306e-003
2.971815e+003,1.518667e-003
2.973743e+003,1.294818e-003
2.975672e+003,1.104834e-003
2.977600e+003,1.012829e-003
2.979529e+003,1.043716e-003
2.981457e+003,9.250597e-004
2.983386e+003,6.941825e-004
2.985314e+003,4.882393e-004
2.987243e+003,4.715877e-004
2.989171e+003,4.112887e-004
2.991100e+003,3.092838e-004
2.993028e+003,1.928829e-004
2.994957e+003,1.505209e-004
2.996885e+003,1.478693e-004
2.998814e+003,1.013689e-004
3.000742e+003,5.851866e-005
3.002671e+003,2.710449e-005
3.004599e+003,-3.479060e-006
3.006528e+003,-6.119426e-005
3.008456e+003,-1.369545e-004
3.010385e+003,-1.776946e-004
3.012313e+003,-9.624372e-005
3.014242e+003,1.948325e-005
3.016170e+003,-2.882566e-005
3.018099e+003,-1.320522e-004
3.020027e+003,-3.478935e-005
3.021956e+003,-6.228753e-005
3.023884e+003,-2.453214e-004
3.025813e+003,-3.012496e-004
3.027741e+003,-3.480330e-004
3.029670e+003,-2.250543e-004
3.031598e+003,-1.140986e-004
3.033527e+003,-1.381470e-004
3.035455e+003,-1.913069e-004
3.037384e+003,-2.902897e-004
3.039312e+003,-3.941824e-004
3.041241e+003,-4.669389e-004
3.043169e+003,-5.412385e-004
3.045098e+003,-5.085747e-004
3.047026e+003,-4.705466e-004
3.048955e+003,-4.889157e-004
3.050883e+003,-5.592075e-004
3.052812e+003,-6.831502e-004
3.054740e+003,-5.922315e-004
3.056669e+003,-5.484857e-004
3.058597e+003,-6.758059e-004
3.060526e+003,-8.837790e-004
3.062454e+003,-9.003120e-004
3.064383e+003,-8.155240e-004
3.066311e+003,-7.943244e-004
3.068240e+003,-8.072560e-004
3.070168e+003,-9.098348e-004
3.072097e+003,-1.032620e-003
3.074025e+003,-9.902407e-004
3.075954e+003,-8.576225e-004
3.077882e+003,-8.473380e-004
3.079811e+003,-9.868025e-004
3.081739e+003,-1.140235e-003
3.083668e+003,-1.068979e-003
3.085596e+003,-9.950672e-004
3.087525e+003,-1.015464e-003
3.089453e+003,-1.099585e-003
3.091382e+003,-1.162111e-003
3.093310e+003,-1.120075e-003
3.095239e+003,-1.074135e-003
3.097167e+003,-1.125628e-003
3.099096e+003,-1.195849e-003
3.101024e+003,-1.269099e-003
3.102953e+003,-1.307950e-003
3.104881e+003,-1.380883e-003
3.106810e+003,-1.369753e-003
3.108738e+003,-1.230642e-003
3.110667e+003,-1.279935e-003
3.112595e+003,-1.360075e-003
3.114524e+003,-1.281786e-003
3.116452e+003,-1.285254e-003
3.118381e+003,-1.264970e-003
3.120309e+003,-1.281158e-003
3.122238e+003,-1.331436e-003
3.124166e+003,-1.450139e-003
3.126095e+003,-1.468929e-003
3.128023e+003,-1.400700e-003
3.129952e+003,-1.324070e-003
3.131880e+003,-1.410608e-003
3.133809e+003,-1.506177e-003
3.135737e+003,-1.484053e-003
3.137666e+003,-1.289384e-003
3.139594e+003,-1.245874e-003
3.141523e+003,-1.360438e-003
3.143451e+003,-1.394623e-003
3.145380e+003,-1.429334e-003
3.147308e+003,-1.399941e-003
3.149237e+003,-1.494554e-003
3.151165e+003,-1.591094e-003
3.153094e+003,-1.636121e-003
3.155022e+003,-1.623776e-003
3.156951e+003,-1.492705e-003
3.158879e+003,-1.308214e-003
3.160808e+003,-1.205696e-003
3.162736e+003,-1.387225e-003
3.164665e+003,-1.452055e-003
3.166593e+003,-1.439671e-003
3.168522e+003,-1.431712e-003
3.170450e+003,-1.385904e-003
3.172379e+003,-1.314424e-003
3.174307e+003,-1.289681e-003
3.176236e+003,-1.256347e-003
3.178164e+003,-1.305109e-003
3.180093e+003,-1.374806e-003
3.182021e+003,-1.456843e-003
3.183950e+003,-1.644737e-003
3.185878e+003,-1.652098e-003
3.187807e+003,-1.491879e-003
3.189735e+003,-1.422795e-003
3.191664e+003,-1.568711e-003
3.193592e+003,-1.627671e-003
3.195521e+003,-1.655597e-003
3.197449e+003,-1.557156e-003
3.199378e+003,-1.488478e-003
3.201306e+003,-1.450040e-003
3.203235e+003,-1.496667e-003
3.205163e+003,-1.343064e-003
3.207092e+003,-1.336292e-003
3.209020e+003,-1.399974e-003
3.210948e+003,-1.405621e-003
3.212877e+003,-1.315647e-003
3.214806e+003,-1.156394e-003
3.216734e+003,-1.228197e-003
3.218663e+003,-1.344880e-003
3.220591e+003,-1.374377e-003
3.222520e+003,-1.228428e-003
3.224448e+003,-1.137392e-003
3.226376e+003,-9.101654e-004
3.228305e+003,-8.326880e-004
3.230234e+003,-8.616569e-004
3.232162e+003,-7.640942e-004
3.234091e+003,-6.815622e-004
3.236019e+003,-6.470232e-004
3.237948e+003,-6.680646e-004
3.239876e+003,-5.492800e-004
3.241804e+003,-4.441334e-004
3.243733e+003,-4.908683e-004
3.245662e+003,-4.287747e-004
3.247590e+003,-3.927589e-004
3.249519e+003,-2.592627e-004
3.251447e+003,-2.413475e-004
3.253375e+003,-3.390277e-004
3.255304e+003,-2.858527e-004
3.257232e+003,-1.663297e-005
3.259161e+003,1.341473e-004
3.261090e+003,5.414440e-005
3.263018e+003,-4.870677e-006
3.264947e+003,-1.686490e-005
3.266875e+003,4.092247e-005
3.268803e+003,7.525392e-005
3.270732e+003,1.804523e-004
3.272660e+003,3.459909e-004
3.274589e+003,3.931808e-004
3.276518e+003,3.315995e-004
3.278446e+003,3.290462e-004
3.280375e+003,2.778847e-004
3.282303e+003,3.182365e-004
3.284231e+003,2.830569e-004
3.286160e+003,2.346192e-004
3.288088e+003,2.230162e-004
3.290017e+003,1.337164e-004
3.291946e+003,4.950508e-005
3.293874e+003,-1.257255e-004
3.295802e+003,-2.462155e-004
3.297731e+003,-2.684684e-004
3.299659e+003,-3.633946e-004
3.301588e+003,-3.565084e-004
3.303516e+003,-4.610473e-004
3.305445e+003,-5.016908e-004
3.307374e+003,-5.114209e-004
3.309302e+003,-7.213582e-004
3.311230e+003,-8.734621e-004
3.313159e+003,-9.454770e-004
3.315087e+003,-1.014307e-003
3.317016e+003,-1.021249e-003
3.318944e+003,-1.153850e-003
3.320873e+003,-1.227999e-003
3.322802e+003,-1.420384e-003
3.324730e+003,-1.665664e-003
3.326658e+003,-1.736888e-003
3.328587e+003,-1.749164e-003
3.330515e+003,-1.696393e-003
3.332444e+003,-1.671440e-003
3.334372e+003,-1.812983e-003
3.336301e+003,-1.849178e-003
3.338229e+003,-1.880257e-003
3.340158e+003,-1.968103e-003
3.342086e+003,-2.029680e-003
3.344015e+003,-1.918920e-003
3.345943e+003,-2.005835e-003
3.347872e+003,-2.145653e-003
3.349800e+003,-2.145027e-003
3.351729e+003,-2.173875e-003
3.353657e+003,-2.290503e-003
3.355586e+003,-2.332326e-003
3.357514e+003,-2.569582e-003
3.359443e+003,-2.699538e-003
3.361371e+003,-2.560425e-003
3.363300e+003,-2.631535e-003
3.365229e+003,-2.768189e-003
3.367157e+003,-2.784782e-003
3.369085e+003,-2.883472e-003
3.371014e+003,-2.913720e-003
3.372942e+003,-2.944920e-003
3.374871e+003,-2.987668e-003
3.376799e+003,-2.997079e-003
3.378728e+003,-3.080258e-003
3.380656e+003,-3.172368e-003
3.382585e+003,-3.366590e-003
3.384513e+003,-3.579161e-003
3.386442e+003,-3.695641e-003
3.388370e+003,-3.489142e-003
3.390299e+003,-3.511230e-003
3.392227e+003,-3.576762e-003
3.394156e+003,-3.579982e-003
3.396084e+003,-3.675436e-003
3.398013e+003,-3.746101e-003
3.399941e+003,-3.791628e-003
3.401870e+003,-3.880369e-003
3.403798e+003,-3.842963e-003
3.405727e+003,-3.881124e-003
3.407655e+003,-3.873801e-003
3.409584e+003,-3.780854e-003
3.411512e+003,-3.871371e-003
3.413441e+003,-3.981797e-003
3.415369e+003,-3.905654e-003
3.417298e+003,-3.807952e-003
3.419226e+003,-3.903881e-003
3.421155e+003,-4.025691e-003
3.423083e+003,-4.120883e-003
3.425012e+003,-4.146351e-003
3.426940e+003,-4.107295e-003
3.428869e+003,-4.094133e-003
3.430797e+003,-4.062786e-003
3.432726e+003,-4.108936e-003
3.434654e+003,-4.332593e-003
3.436583e+003,-4.534757e-003
3.438511e+003,-4.308645e-003
3.440440e+003,-4.132797e-003
3.442368e+003,-4.192427e-003
3.444297e+003,-4.269242e-003
3.446225e+003,-4.203781e-003
3.448154e+003,-4.254215e-003
3.450082e+003,-4.258250e-003
3.452011e+003,-4.426274e-003
3.453939e+003,-4.650883e-003
3.455868e+003,-4.758589e-003
3.457796e+003,-4.565808e-003
3.459725e+003,-4.453332e-003
3.461653e+003,-4.427915e-003
3.463582e+003,-4.489833e-003
3.465510e+003,-4.495047e-003
3.467439e+003,-4.467500e-003
3.469367e+003,-4.547020e-003
3.471296e+003,-4.615282e-003
3.473224e+003,-4.588136e-003
3.475153e+003,-4.537413e-003
3.477081e+003,-4.558594e-003
3.479010e+003,-4.589775e-003
3.480938e+003,-4.524264e-003
3.482867e+003,-4.594889e-003
3.484795e+003,-4.514820e-003
3.486724e+003,-4.552890e-003
3.488652e+003,-4.762062e-003
3.490581e+003,-4.836843e-003
3.492509e+003,-4.806434e-003
3.494438e+003,-4.609806e-003
3.496366e+003,-4.337252e-003
3.498295e+003,-4.400626e-003
3.500223e+003,-4.591218e-003
3.502152e+003,-4.755279e-003
3.504080e+003,-4.919474e-003
3.506009e+003,-4.695037e-003
3.507937e+003,-4.402036e-003
3.509866e+003,-4.453430e-003
3.511794e+003,-4.625903e-003
3.513723e+003,-4.762062e-003
3.515651e+003,-4.894280e-003
3.517580e+003,-4.836024e-003
3.519508e+003,-4.799454e-003
3.521437e+003,-4.776417e-003
3.523365e+003,-4.814496e-003
3.525294e+003,-4.830126e-003
3.527222e+003,-4.631837e-003
3.529151e+003,-4.602791e-003
3.531079e+003,-4.784314e-003
3.533008e+003,-4.813119e-003
3.534936e+003,-4.774483e-003
3.536865e+003,-4.650883e-003
3.538793e+003,-4.536298e-003
3.540722e+003,-4.508590e-003
3.542650e+003,-4.510426e-003
3.544579e+003,-4.408301e-003
3.546507e+003,-4.434277e-003
3.548436e+003,-4.513804e-003
3.550364e+003,-4.520920e-003
3.552293e+003,-4.659045e-003
3.554221e+003,-4.783266e-003
3.556150e+003,-4.763865e-003
3.558078e+003,-4.637016e-003
3.560007e+003,-4.467270e-003
3.561935e+003,-4.409318e-003
3.563864e+003,-4.591414e-003
3.565792e+003,-4.518460e-003
3.567721e+003,-4.217202e-003
3.569649e+003,-4.437262e-003
3.571578e+003,-4.707198e-003
3.573506e+003,-4.672649e-003
3.575435e+003,-4.519640e-003
3.577363e+003,-4.355818e-003
3.579292e+003,-4.345158e-003
3.581220e+003,-4.546693e-003
3.583149e+003,-4.761014e-003
3.585077e+003,-4.557775e-003
3.587006e+003,-4.463729e-003
3.588934e+003,-4.493210e-003
3.590863e+003,-4.497113e-003
3.592791e+003,-4.602594e-003
3.594720e+003,-4.649047e-003
3.596648e+003,-4.503081e-003
3.598577e+003,-4.407842e-003
3.600505e+003,-4.470287e-003
3.602434e+003,-4.533019e-003
3.604362e+003,-4.258415e-003
3.606291e+003,-4.198432e-003
3.608219e+003,-4.274557e-003
3.610148e+003,-4.197907e-003
3.612076e+003,-4.265239e-003
3.614005e+003,-4.466975e-003
3.615933e+003,-4.473895e-003
3.617862e+003,-4.152390e-003
3.619790e+003,-3.989382e-003
3.621719e+003,-4.385898e-003
3.623647e+003,-4.568070e-003
3.625576e+003,-4.412794e-003
3.627504e+003,-3.880533e-003
3.629433e+003,-3.733946e-003
3.631361e+003,-4.199089e-003
3.633290e+003,-4.320914e-003
3.635218e+003,-4.419977e-003
3.637146e+003,-4.540561e-003
3.639075e+003,-4.433556e-003
3.641004e+003,-4.264419e-003
3.642932e+003,-4.299689e-003
3.644861e+003,-4.412860e-003
3.646789e+003,-4.061965e-003
3.648718e+003,-4.009638e-003
3.650646e+003,-4.305627e-003
3.652574e+003,-4.478388e-003
3.654503e+003,-4.319733e-003
3.656432e+003,-4.227539e-003
3.658360e+003,-4.699659e-003
3.660289e+003,-4.847493e-003
3.662217e+003,-4.855881e-003
3.664146e+003,-4.920391e-003
3.666074e+003,-4.915019e-003
3.668002e+003,-4.632001e-003
3.669931e+003,-4.367464e-003
3.671860e+003,-4.837696e-003
3.673788e+003,-4.661996e-003
3.675717e+003,-4.152325e-003
3.677645e+003,-4.438836e-003
3.679573e+003,-4.812464e-003
3.681502e+003,-5.027440e-003
3.683430e+003,-4.996324e-003
3.685359e+003,-4.863417e-003
3.687288e+003,-4.555611e-003
3.689216e+003,-4.350078e-003
3.691145e+003,-4.474977e-003
3.693073e+003,-4.726962e-003
3.695001e+003,-4.933430e-003
3.696930e+003,-4.936673e-003
3.698858e+003,-4.833468e-003
3.700787e+003,-4.657800e-003
3.702716e+003,-4.693234e-003
3.704644e+003,-4.628985e-003
3.706573e+003,-4.428177e-003
3.708501e+003,-4.332331e-003
3.710429e+003,-4.079165e-003
3.712358e+003,-4.084122e-003
3.714286e+003,-4.472452e-003
3.716215e+003,-4.782348e-003
3.718144e+003,-4.726634e-003
3.720072e+003,-4.527543e-003
3.722000e+003,-4.335152e-003
3.723929e+003,-4.247357e-003
3.725857e+003,-4.146384e-003
3.727786e+003,-4.179957e-003
3.729714e+003,-4.314977e-003
3.731643e+003,-4.272818e-003
3.733572e+003,-4.178907e-003
3.735500e+003,-4.085106e-003
3.737428e+003,-4.233872e-003
3.739357e+003,-4.376156e-003
3.741285e+003,-4.296408e-003
3.743214e+003,-3.932022e-003
3.745142e+003,-3.808839e-003
3.747071e+003,-4.147402e-003
3.749000e+003,-3.894128e-003
3.750928e+003,-3.752441e-003
3.752856e+003,-3.805456e-003
3.754785e+003,-4.088553e-003
3.756713e+003,-3.942234e-003
3.758642e+003,-3.819612e-003
3.760570e+003,-4.001693e-003
3.762499e+003,-4.243748e-003
3.764427e+003,-4.086321e-003
3.766356e+003,-4.005140e-003
3.768284e+003,-3.891206e-003
3.770213e+003,-3.792613e-003
3.772141e+003,-3.913371e-003
3.774070e+003,-4.046537e-003
3.775998e+003,-4.104144e-003
3.777927e+003,-4.051559e-003
3.779855e+003,-4.089209e-003
3.781784e+003,-3.933992e-003
3.783712e+003,-3.800431e-003
3.785641e+003,-3.782759e-003
3.787569e+003,-3.898890e-003
3.789498e+003,-3.981338e-003
3.791426e+003,-3.937998e-003
3.793355e+003,-3.958191e-003
3.795283e+003,-3.795799e-003
3.797212e+003,-3.765613e-003
3.799140e+003,-3.855443e-003
3.801069e+003,-3.746791e-003
3.802997e+003,-3.724814e-003
3.804926e+003,-3.875377e-003
3.806854e+003,-3.919413e-003
3.808783e+003,-3.958651e-003
3.810711e+003,-3.806737e-003
3.812640e+003,-3.891403e-003
3.814568e+003,-3.777438e-003
3.816497e+003,-3.626611e-003
3.818425e+003,-3.563091e-003
3.820354e+003,-3.075520e-003
3.822282e+003,-3.273337e-003
3.824211e+003,-3.682204e-003
3.826139e+003,-3.675797e-003
3.828068e+003,-3.669489e-003
3.829996e+003,-3.629996e-003
3.831925e+003,-3.543701e-003
3.833853e+003,-3.473628e-003
3.835782e+003,-3.309148e-003
3.837710e+003,-3.190261e-003
3.839639e+003,-3.401505e-003
3.841567e+003,-3.336078e-003
3.843496e+003,-3.340352e-003
3.845424e+003,-3.551950e-003
3.847353e+003,-3.803091e-003
3.849281e+003,-3.720445e-003
3.851210e+003,-3.179703e-003
3.853138e+003,-2.660384e-003
3.855067e+003,-3.061998e-003
3.856995e+003,-3.598877e-003
3.858924e+003,-3.648001e-003
3.860852e+003,-3.512051e-003
3.862781e+003,-3.534598e-003
3.864709e+003,-3.562072e-003
3.866638e+003,-3.610379e-003
3.868566e+003,-3.379017e-003
3.870495e+003,-3.190952e-003
3.872423e+003,-3.359915e-003
3.874352e+003,-3.408803e-003
3.876280e+003,-3.666039e-003
3.878209e+003,-3.797606e-003
3.880137e+003,-3.665218e-003
3.882066e+003,-3.726259e-003
3.883994e+003,-3.854261e-003
3.885923e+003,-3.585832e-003
3.887851e+003,-3.591944e-003
3.889780e+003,-3.536241e-003
3.891708e+003,-3.638046e-003
3.893637e+003,-3.940198e-003
3.895565e+003,-3.899415e-003
3.897494e+003,-3.501994e-003
3.899422e+003,-3.267385e-003
3.901351e+003,-3.456699e-003
3.903279e+003,-3.361921e-003
3.905208e+003,-3.367214e-003
3.907136e+003,-3.636173e-003
3.909065e+003,-3.676257e-003
3.910993e+003,-3.701193e-003
3.912922e+003,-3.760949e-003
3.914850e+003,-3.792712e-003
3.916779e+003,-3.707403e-003
3.918707e+003,-3.610740e-003
3.920636e+003,-3.796686e-003
3.922564e+003,-3.960982e-003
3.924493e+003,-3.812419e-003
3.926421e+003,-3.849991e-003
3.928350e+003,-3.945780e-003
3.930278e+003,-3.718080e-003
3.932207e+003,-3.615143e-003
3.934135e+003,-3.564636e-003
3.936064e+003,-3.441644e-003
3.937992e+003,-3.549682e-003
3.939921e+003,-3.641299e-003
3.941849e+003,-3.664955e-003
3.943778e+003,-3.552706e-003
3.945706e+003,-3.571734e-003
3.947635e+003,-3.454957e-003
3.949563e+003,-3.385034e-003
3.951492e+003,-3.613763e-003
3.953420e+003,-3.627498e-003
3.955349e+003,-3.676257e-003
3.957277e+003,-3.873965e-003
3.959206e+003,-3.842897e-003
3.961134e+003,-3.833964e-003
3.963063e+003,-3.742783e-003
3.964991e+003,-3.931431e-003
3.966920e+003,-4.047554e-003
3.968848e+003,-3.887659e-003
3.970777e+003,-3.771624e-003
3.972705e+003,-3.971587e-003
3.974634e+003,-4.147566e-003
3.976562e+003,-3.912747e-003
3.978491e+003,-3.898890e-003
3.980419e+003,-3.796161e-003
3.982348e+003,-3.751291e-003
3.984276e+003,-3.760193e-003
3.986205e+003,-3.858957e-003
3.988133e+003,-3.837610e-003
3.990062e+003,-3.608539e-003
3.991990e+003,-3.644979e-003
3.993919e+003,-3.794978e-003
3.995847e+003,-3.847233e-003
3.997776e+003,-3.816623e-003
3.999704e+003,-3.629470e-003
4.001633e+003,0.000000e+000
