3.991989e+002,3.275627e-003
4.011274e+002,5.540377e-003
4.030559e+002,-1.814336e-003
4.049844e+002,-7.277150e-003
4.069129e+002,-2.477443e-003
4.088414e+002,2.393893e-003
4.107699e+002,1.433522e-003
4.126984e+002,-1.524634e-003
4.146269e+002,-5.831658e-003
4.165554e+002,-4.855061e-003
4.184839e+002,-8.695601e-004
4.204124e+002,-2.549910e-004
4.223409e+002,5.689195e-004
4.242694e+002,2.016573e-003
4.261979e+002,5.349139e-004
4.281264e+002,-2.294458e-003
4.300549e+002,-3.075257e-003
4.319834e+002,-8.522333e-003
4.339119e+002,-1.043251e-002
4.358404e+002,-4.166436e-003
4.377689e+002,-1.849805e-003
4.396974e+002,-7.200768e-003
4.416259e+002,-1.037681e-002
4.435544e+002,-7.717325e-003
4.454829e+002,-2.717517e-003
4.474114e+002,1.555590e-004
4.493399e+002,-4.520887e-003
4.512684e+002,-1.072425e-002
4.531969e+002,-1.042003e-002
4.551254e+002,-5.851698e-003
4.570539e+002,-4.629739e-003
4.589824e+002,-6.333290e-003
4.609109e+002,-5.800501e-003
4.628394e+002,-4.496883e-003
4.647679e+002,-6.149832e-003
4.666964e+002,-7.334819e-003
4.686249e+002,-8.730025e-003
4.705533e+002,-1.108525e-002
4.724819e+002,-8.769187e-003
4.744103e+002,-4.063212e-003
4.763389e+002,-4.415484e-003
4.782673e+002,-7.607583e-003
4.801959e+002,-8.249687e-003
4.821243e+002,-5.596636e-003
4.840529e+002,-5.044668e-003
4.859813e+002,-6.063514e-003
4.879099e+002,-5.878797e-003
4.898383e+002,-8.764219e-003
4.917668e+002,-1.211237e-002
4.936953e+002,-1.191032e-002
4.956238e+002,-8.909605e-003
4.975523e+002,-8.859645e-003
4.994808e+002,-8.984487e-003
5.014093e+002,-8.635708e-003
5.033378e+002,-1.067343e-002
5.052663e+002,-1.480254e-002
5.071948e+002,-1.369378e-002
5.091233e+002,-1.079381e-002
5.110518e+002,-1.069309e-002
5.129803e+002,-1.144120e-002
5.149088e+002,-1.223847e-002
5.168373e+002,-1.326660e-002
5.187658e+002,-1.319274e-002
5.206943e+002,-1.230553e-002
5.226228e+002,-1.301344e-002
5.245513e+002,-1.324882e-002
5.264798e+002,-1.241731e-002
5.284083e+002,-1.241367e-002
5.303368e+002,-1.340101e-002
5.322653e+002,-1.338199e-002
5.341938e+002,-1.405360e-002
5.361223e+002,-1.438254e-002
5.380508e+002,-1.427729e-002
5.399792e+002,-1.257980e-002
5.419078e+002,-1.266579e-002
5.438363e+002,-1.331766e-002
5.457648e+002,-1.260081e-002
5.476932e+002,-1.217807e-002
5.496218e+002,-1.206758e-002
5.515503e+002,-1.231751e-002
5.534788e+002,-1.271371e-002
5.554072e+002,-1.199935e-002
5.573358e+002,-1.135380e-002
5.592643e+002,-1.084607e-002
5.611927e+002,-1.213837e-002
5.631212e+002,-1.287203e-002
5.650497e+002,-1.282127e-002
5.669783e+002,-1.196815e-002
5.689067e+002,-1.076366e-002
5.708352e+002,-1.089797e-002
5.727637e+002,-1.249211e-002
5.746923e+002,-1.380267e-002
5.766207e+002,-1.191576e-002
5.785492e+002,-9.657419e-003
5.804777e+002,-1.468705e-002
5.824063e+002,-1.787461e-002
5.843347e+002,-1.315783e-002
5.862632e+002,-1.027323e-002
5.881917e+002,-1.031048e-002
5.901202e+002,-1.178970e-002
5.920487e+002,-1.345954e-002
5.939772e+002,-1.268945e-002
5.959057e+002,-1.202075e-002
5.978342e+002,-1.180266e-002
5.997627e+002,-1.095522e-002
6.016912e+002,-1.083072e-002
6.036197e+002,-9.518345e-003
6.055482e+002,-7.970787e-003
6.074767e+002,-6.589877e-003
6.094052e+002,-5.310462e-003
6.113337e+002,-3.704643e-003
6.132622e+002,-3.950081e-003
6.151907e+002,-5.586398e-003
6.171192e+002,-6.054365e-003
6.190477e+002,-5.556860e-003
6.209762e+002,-6.549408e-003
6.229047e+002,-9.153677e-003
6.248332e+002,-1.246539e-002
6.267617e+002,-1.419177e-002
6.286902e+002,-1.459777e-002
6.306187e+002,-1.445850e-002
6.325472e+002,-1.390742e-002
6.344756e+002,-1.322176e-002
6.364042e+002,-1.330587e-002
6.383326e+002,-1.337244e-002
6.402612e+002,-1.375147e-002
6.421896e+002,-1.330101e-002
6.441182e+002,-1.321045e-002
6.460466e+002,-1.345784e-002
6.479752e+002,-1.336724e-002
6.499036e+002,-1.380366e-002
6.518322e+002,-1.421451e-002
6.537606e+002,-1.398870e-002
6.556891e+002,-1.426328e-002
6.576177e+002,-1.492553e-002
6.595461e+002,-1.510928e-002
6.614746e+002,-1.552590e-002
6.634031e+002,-1.594282e-002
6.653317e+002,-1.459831e-002
6.672601e+002,-9.442810e-003
6.691886e+002,-1.012879e-002
6.711171e+002,-1.404397e-002
6.730457e+002,-1.447709e-002
6.749741e+002,-1.445668e-002
6.769026e+002,-1.460677e-002
6.788311e+002,-1.433862e-002
6.807596e+002,-1.429249e-002
6.826881e+002,-1.421448e-002
6.846166e+002,-1.343297e-002
6.865451e+002,-1.295543e-002
6.884736e+002,-1.290551e-002
6.904021e+002,-1.297923e-002
6.923306e+002,-1.270032e-002
6.942591e+002,-1.207338e-002
6.961876e+002,-1.187943e-002
6.981161e+002,-1.211089e-002
7.000446e+002,-1.227783e-002
7.019731e+002,-1.268996e-002
7.039016e+002,-1.253634e-002
7.058301e+002,-1.295437e-002
7.077585e+002,-1.326705e-002
7.096871e+002,-1.278955e-002
7.116156e+002,-1.254880e-002
7.135441e+002,-1.295672e-002
7.154725e+002,-1.292983e-002
7.174011e+002,-1.299270e-002
7.193296e+002,-1.317731e-002
7.212581e+002,-1.314562e-002
7.231865e+002,-1.333810e-002
7.251151e+002,-1.339011e-002
7.270436e+002,-1.306682e-002
7.289720e+002,-1.288355e-002
7.309005e+002,-1.263490e-002
7.328290e+002,-1.258823e-002
7.347576e+002,-1.261050e-002
7.366860e+002,-1.287139e-002
7.386145e+002,-1.302756e-002
7.405430e+002,-1.286592e-002
7.424716e+002,-1.260313e-002
7.444000e+002,-1.218026e-002
7.463285e+002,-1.164489e-002
7.482570e+002,-1.183020e-002
7.501855e+002,-1.227403e-002
7.521140e+002,-1.170450e-002
7.540425e+002,-1.075596e-002
7.559710e+002,-1.080180e-002
7.578995e+002,-1.075432e-002
7.598280e+002,-1.068268e-002
7.617565e+002,-1.030265e-002
7.636850e+002,-1.010542e-002
7.656135e+002,-1.009982e-002
7.675420e+002,-1.010982e-002
7.694705e+002,-9.956612e-003
7.713990e+002,-1.018162e-002
7.733275e+002,-1.017352e-002
7.752560e+002,-1.020511e-002
7.771844e+002,-1.060334e-002
7.791130e+002,-1.099309e-002
7.810415e+002,-1.102798e-002
7.829700e+002,-1.140973e-002
7.848984e+002,-1.170801e-002
7.868270e+002,-1.149122e-002
7.887555e+002,-1.107016e-002
7.906840e+002,-1.171585e-002
7.926124e+002,-1.217703e-002
7.945410e+002,-1.245428e-002
7.964695e+002,-1.270937e-002
7.983979e+002,-1.291391e-002
8.003264e+002,-1.300045e-002
8.022549e+002,-1.272533e-002
8.041835e+002,-1.224272e-002
8.061119e+002,-1.250392e-002
8.080404e+002,-1.288515e-002
8.099689e+002,-1.267242e-002
8.118975e+002,-1.191802e-002
8.138259e+002,-1.160672e-002
8.157545e+002,-1.175232e-002
8.176830e+002,-1.178841e-002
8.196115e+002,-1.212938e-002
8.215399e+002,-1.248631e-002
8.234684e+002,-1.244906e-002
8.253970e+002,-1.218657e-002
8.273254e+002,-1.190664e-002
8.292539e+002,-1.220403e-002
8.311824e+002,-1.234837e-002
8.331110e+002,-1.232222e-002
8.350394e+002,-1.240604e-002
8.369679e+002,-1.206513e-002
8.388964e+002,-1.172794e-002
8.408250e+002,-1.151571e-002
8.427534e+002,-1.176200e-002
8.446819e+002,-1.225828e-002
8.466104e+002,-1.244942e-002
8.485389e+002,-1.238782e-002
8.504674e+002,-1.244781e-002
8.523959e+002,-1.263928e-002
8.543244e+002,-1.277047e-002
8.562529e+002,-1.290169e-002
8.581814e+002,-1.296360e-002
8.601099e+002,-1.309685e-002
8.620384e+002,-1.339297e-002
8.639669e+002,-1.327749e-002
8.658954e+002,-1.321935e-002
8.678239e+002,-1.352889e-002
8.697524e+002,-1.326692e-002
8.716809e+002,-1.332942e-002
8.736094e+002,-1.342677e-002
8.755378e+002,-1.344457e-002
8.774664e+002,-1.289345e-002
8.793949e+002,-1.283825e-002
8.813234e+002,-1.346554e-002
8.832518e+002,-1.349561e-002
8.851804e+002,-1.328614e-002
8.871089e+002,-1.347078e-002
8.890374e+002,-1.354241e-002
8.909658e+002,-1.309337e-002
8.928943e+002,-1.289075e-002
8.948229e+002,-1.299457e-002
8.967513e+002,-1.312964e-002
8.986798e+002,-1.310926e-002
9.006083e+002,-1.303434e-002
9.025369e+002,-1.291979e-002
9.044653e+002,-1.273060e-002
9.063938e+002,-1.298904e-002
9.083223e+002,-1.329815e-002
9.102509e+002,-1.354324e-002
9.121793e+002,-1.304315e-002
9.141078e+002,-1.302685e-002
9.160364e+002,-1.339921e-002
9.179648e+002,-1.337627e-002
9.198933e+002,-1.338308e-002
9.218218e+002,-1.350194e-002
9.237504e+002,-1.363624e-002
9.256788e+002,-1.388444e-002
9.276073e+002,-1.401340e-002
9.295358e+002,-1.399274e-002
9.314644e+002,-1.395664e-002
9.333928e+002,-1.384812e-002
9.353213e+002,-1.368485e-002
9.372498e+002,-1.381817e-002
9.391783e+002,-1.413225e-002
9.411068e+002,-1.385928e-002
9.430353e+002,-1.360310e-002
9.449637e+002,-1.366803e-002
9.468923e+002,-1.368761e-002
9.488208e+002,-1.365698e-002
9.507493e+002,-1.360021e-002
9.526777e+002,-1.367808e-002
9.546063e+002,-1.364250e-002
9.565348e+002,-1.351421e-002
9.584633e+002,-1.341151e-002
9.603917e+002,-1.360400e-002
9.623203e+002,-1.373108e-002
9.642488e+002,-1.370396e-002
9.661772e+002,-1.380257e-002
9.681057e+002,-1.396935e-002
9.700343e+002,-1.410078e-002
9.719628e+002,-1.379378e-002
9.738912e+002,-1.370636e-002
9.758197e+002,-1.400557e-002
9.777483e+002,-1.408147e-002
9.796768e+002,-1.417057e-002
9.816052e+002,-1.428598e-002
9.835337e+002,-1.423708e-002
9.854623e+002,-1.422826e-002
9.873907e+002,-1.430355e-002
9.893192e+002,-1.419238e-002
9.912477e+002,-1.447808e-002
9.931763e+002,-1.459744e-002
9.951047e+002,-1.449202e-002
9.970332e+002,-1.469813e-002
9.989617e+002,-1.472625e-002
1.000890e+003,-1.449321e-002
1.002819e+003,-1.412279e-002
1.004747e+003,-1.396483e-002
1.006676e+003,-1.385572e-002
1.008604e+003,-1.365124e-002
1.010533e+003,-1.333720e-002
1.012461e+003,-1.328851e-002
1.014390e+003,-1.315683e-002
1.016318e+003,-1.267065e-002
1.018247e+003,-1.235300e-002
1.020175e+003,-1.216025e-002
1.022104e+003,-1.166795e-002
1.024032e+003,-1.110702e-002
1.025961e+003,-1.074077e-002
1.027889e+003,-1.051819e-002
1.029818e+003,-1.012390e-002
1.031746e+003,-9.663544e-003
1.033675e+003,-9.360549e-003
1.035603e+003,-8.964136e-003
1.037532e+003,-8.529156e-003
1.039460e+003,-8.346654e-003
1.041389e+003,-8.170614e-003
1.043317e+003,-7.769663e-003
1.045246e+003,-7.521880e-003
1.047174e+003,-7.481465e-003
1.049103e+003,-7.384141e-003
1.051031e+003,-7.400852e-003
1.052960e+003,-7.292171e-003
1.054888e+003,-7.099371e-003
1.056817e+003,-7.054548e-003
1.058745e+003,-6.959410e-003
1.060674e+003,-6.862882e-003
1.062602e+003,-6.854891e-003
1.064531e+003,-6.878341e-003
1.066459e+003,-6.864121e-003
1.068388e+003,-6.976366e-003
1.070316e+003,-6.941509e-003
1.072245e+003,-6.769072e-003
1.074173e+003,-6.798561e-003
1.076102e+003,-6.903094e-003
1.078030e+003,-6.939389e-003
1.079959e+003,-7.225437e-003
1.081887e+003,-7.298687e-003
1.083816e+003,-7.080790e-003
1.085744e+003,-6.970105e-003
1.087673e+003,-7.010046e-003
1.089601e+003,-6.988788e-003
1.091530e+003,-6.848107e-003
1.093458e+003,-6.720268e-003
1.095387e+003,-6.622837e-003
1.097315e+003,-6.506422e-003
1.099244e+003,-6.520751e-003
1.101172e+003,-6.511285e-003
1.103101e+003,-6.647018e-003
1.105029e+003,-6.597155e-003
1.106958e+003,-6.536614e-003
1.108886e+003,-6.485432e-003
1.110815e+003,-6.577835e-003
1.112743e+003,-6.841030e-003
1.114672e+003,-7.079584e-003
1.116600e+003,-6.884961e-003
1.118529e+003,-6.535341e-003
1.120457e+003,-6.603584e-003
1.122386e+003,-6.584166e-003
1.124314e+003,-6.603421e-003
1.126243e+003,-6.814055e-003
1.128171e+003,-6.945226e-003
1.130100e+003,-6.881635e-003
1.132028e+003,-7.066740e-003
1.133957e+003,-7.267212e-003
1.135885e+003,-7.279301e-003
1.137814e+003,-7.690242e-003
1.139742e+003,-8.361898e-003
1.141671e+003,-8.642204e-003
1.143599e+003,-8.779870e-003
1.145528e+003,-9.016941e-003
1.147456e+003,-9.349004e-003
1.149385e+003,-9.592020e-003
1.151313e+003,-9.881250e-003
1.153242e+003,-1.011675e-002
1.155170e+003,-1.013837e-002
1.157099e+003,-1.028239e-002
1.159027e+003,-1.040120e-002
1.160956e+003,-1.060091e-002
1.162884e+003,-1.072031e-002
1.164813e+003,-1.078806e-002
1.166741e+003,-1.071058e-002
1.168670e+003,-1.072513e-002
1.170598e+003,-1.090867e-002
1.172526e+003,-1.090631e-002
1.174455e+003,-1.095002e-002
1.176384e+003,-1.083551e-002
1.178312e+003,-1.085603e-002
1.180240e+003,-1.097926e-002
1.182169e+003,-1.098582e-002
1.184098e+003,-1.118401e-002
1.186026e+003,-1.137316e-002
1.187954e+003,-1.141302e-002
1.189883e+003,-1.142254e-002
1.191812e+003,-1.154488e-002
1.193740e+003,-1.154133e-002
1.195668e+003,-1.179267e-002
1.197597e+003,-1.213815e-002
1.199526e+003,-1.226446e-002
1.201454e+003,-1.218364e-002
1.203382e+003,-1.200847e-002
1.205311e+003,-1.203432e-002
1.207240e+003,-1.205617e-002
1.209168e+003,-1.199403e-002
1.211096e+003,-1.199277e-002
1.213025e+003,-1.189126e-002
1.214953e+003,-1.174487e-002
1.216882e+003,-1.177022e-002
1.218810e+003,-1.184745e-002
1.220739e+003,-1.191615e-002
1.222667e+003,-1.190758e-002
1.224596e+003,-1.179289e-002
1.226524e+003,-1.166372e-002
1.228453e+003,-1.159534e-002
1.230381e+003,-1.155546e-002
1.232310e+003,-1.143016e-002
1.234238e+003,-1.133059e-002
1.236167e+003,-1.125317e-002
1.238095e+003,-1.107620e-002
1.240024e+003,-1.101897e-002
1.241952e+003,-1.115175e-002
1.243881e+003,-1.140934e-002
1.245809e+003,-1.150548e-002
1.247738e+003,-1.146282e-002
1.249666e+003,-1.146511e-002
1.251595e+003,-1.153946e-002
1.253523e+003,-1.169833e-002
1.255452e+003,-1.185338e-002
1.257380e+003,-1.202007e-002
1.259309e+003,-1.213586e-002
1.261237e+003,-1.211652e-002
1.263166e+003,-1.193682e-002
1.265094e+003,-1.167940e-002
1.267023e+003,-1.137332e-002
1.268951e+003,-1.107840e-002
1.270880e+003,-1.094392e-002
1.272808e+003,-1.101250e-002
1.274737e+003,-1.088036e-002
1.276665e+003,-1.062843e-002
1.278594e+003,-1.053116e-002
1.280522e+003,-1.041220e-002
1.282451e+003,-1.026971e-002
1.284379e+003,-1.003847e-002
1.286308e+003,-9.861914e-003
1.288236e+003,-9.724298e-003
1.290165e+003,-9.510209e-003
1.292093e+003,-9.362560e-003
1.294022e+003,-9.123601e-003
1.295950e+003,-8.989485e-003
1.297879e+003,-8.946836e-003
1.299807e+003,-9.018044e-003
1.301736e+003,-9.158641e-003
1.303664e+003,-9.373261e-003
1.305593e+003,-9.540291e-003
1.307521e+003,-9.655085e-003
1.309450e+003,-9.831952e-003
1.311378e+003,-1.010736e-002
1.313307e+003,-1.044034e-002
1.315235e+003,-1.070298e-002
1.317164e+003,-1.075234e-002
1.319092e+003,-1.103893e-002
1.321021e+003,-1.136022e-002
1.322949e+003,-1.148234e-002
1.324878e+003,-1.152942e-002
1.326806e+003,-1.170369e-002
1.328735e+003,-1.168092e-002
1.330663e+003,-1.158146e-002
1.332592e+003,-1.161573e-002
1.334520e+003,-1.167779e-002
1.336449e+003,-1.174797e-002
1.338377e+003,-1.167763e-002
1.340306e+003,-1.171398e-002
1.342234e+003,-1.186270e-002
1.344163e+003,-1.198600e-002
1.346091e+003,-1.208430e-002
1.348020e+003,-1.193943e-002
1.349948e+003,-1.197424e-002
1.351877e+003,-1.209993e-002
1.353805e+003,-1.204792e-002
1.355734e+003,-1.201753e-002
1.357662e+003,-1.213389e-002
1.359591e+003,-1.217156e-002
1.361519e+003,-1.219820e-002
1.363448e+003,-1.231445e-002
1.365376e+003,-1.257239e-002
1.367305e+003,-1.274084e-002
1.369233e+003,-1.283275e-002
1.371162e+003,-1.283089e-002
1.373090e+003,-1.274734e-002
1.375019e+003,-1.283526e-002
1.376947e+003,-1.294331e-002
1.378876e+003,-1.295646e-002
1.380804e+003,-1.300180e-002
1.382733e+003,-1.303904e-002
1.384661e+003,-1.302502e-002
1.386590e+003,-1.289149e-002
1.388518e+003,-1.305807e-002
1.390447e+003,-1.340036e-002
1.392375e+003,-1.354828e-002
1.394304e+003,-1.349927e-002
1.396232e+003,-1.364758e-002
1.398161e+003,-1.365721e-002
1.400089e+003,-1.364655e-002
1.402018e+003,-1.379484e-002
1.403946e+003,-1.388907e-002
1.405875e+003,-1.398424e-002
1.407803e+003,-1.410733e-002
1.409732e+003,-1.408542e-002
1.411660e+003,-1.398209e-002
1.413589e+003,-1.387918e-002
1.415517e+003,-1.375587e-002
1.417446e+003,-1.343525e-002
1.419374e+003,-1.295302e-002
1.421303e+003,-1.280329e-002
1.423231e+003,-1.248387e-002
1.425160e+003,-1.194981e-002
1.427088e+003,-1.167311e-002
1.429017e+003,-1.124620e-002
1.430945e+003,-1.084349e-002
1.432874e+003,-1.052531e-002
1.434802e+003,-1.001826e-002
1.436731e+003,-9.465504e-003
1.438659e+003,-9.411976e-003
1.440588e+003,-9.293094e-003
1.442516e+003,-8.846918e-003
1.444445e+003,-8.466543e-003
1.446373e+003,-8.038317e-003
1.448302e+003,-7.603188e-003
1.450230e+003,-7.396519e-003
1.452159e+003,-7.107944e-003
1.454087e+003,-6.638403e-003
1.456016e+003,-5.796414e-003
1.457944e+003,-5.315077e-003
1.459873e+003,-5.785723e-003
1.461801e+003,-6.152935e-003
1.463730e+003,-6.071062e-003
1.465658e+003,-5.972375e-003
1.467587e+003,-6.338384e-003
1.469515e+003,-6.671229e-003
1.471444e+003,-6.644635e-003
1.473372e+003,-6.762743e-003
1.475301e+003,-7.225470e-003
1.477229e+003,-7.739328e-003
1.479158e+003,-8.428328e-003
1.481086e+003,-8.801365e-003
1.483015e+003,-9.270716e-003
1.484943e+003,-9.708940e-003
1.486872e+003,-9.871533e-003
1.488800e+003,-1.002931e-002
1.490729e+003,-1.023308e-002
1.492657e+003,-1.077371e-002
1.494586e+003,-1.116305e-002
1.496514e+003,-1.117038e-002
1.498443e+003,-1.139079e-002
1.500371e+003,-1.176132e-002
1.502300e+003,-1.205204e-002
1.504228e+003,-1.188569e-002
1.506157e+003,-1.116515e-002
1.508085e+003,-1.150690e-002
1.510014e+003,-1.233120e-002
1.511942e+003,-1.258054e-002
1.513871e+003,-1.276931e-002
1.515799e+003,-1.262380e-002
1.517728e+003,-1.241319e-002
1.519656e+003,-1.239506e-002
1.521585e+003,-1.211285e-002
1.523513e+003,-1.234898e-002
1.525442e+003,-1.251001e-002
1.527370e+003,-1.258633e-002
1.529299e+003,-1.263541e-002
1.531227e+003,-1.257899e-002
1.533156e+003,-1.218254e-002
1.535084e+003,-1.216486e-002
1.537013e+003,-1.222468e-002
1.538941e+003,-1.152742e-002
1.540870e+003,-1.106684e-002
1.542798e+003,-1.130789e-002
1.544727e+003,-1.149706e-002
1.546655e+003,-1.174613e-002
1.548584e+003,-1.173675e-002
1.550512e+003,-1.158414e-002
1.552441e+003,-1.148150e-002
1.554369e+003,-1.125504e-002
1.556298e+003,-1.110518e-002
1.558226e+003,-1.030776e-002
1.560155e+003,-9.860553e-003
1.562083e+003,-1.032323e-002
1.564012e+003,-1.017984e-002
1.565940e+003,-9.912990e-003
1.567869e+003,-9.721545e-003
1.569797e+003,-9.277202e-003
1.571726e+003,-9.311354e-003
1.573654e+003,-9.364862e-003
1.575583e+003,-8.960241e-003
1.577511e+003,-8.938170e-003
1.579440e+003,-9.162631e-003
1.581368e+003,-9.127106e-003
1.583297e+003,-9.222289e-003
1.585225e+003,-9.258066e-003
1.587154e+003,-9.281094e-003
1.589082e+003,-9.441189e-003
1.591010e+003,-9.765639e-003
1.592939e+003,-9.970666e-003
1.594868e+003,-1.001189e-002
1.596796e+003,-1.019414e-002
1.598724e+003,-1.050296e-002
1.600653e+003,-1.072745e-002
1.602582e+003,-1.093261e-002
1.604510e+003,-1.122340e-002
1.606438e+003,-1.152852e-002
1.608367e+003,-1.179112e-002
1.610296e+003,-1.209890e-002
1.612224e+003,-1.238727e-002
1.614152e+003,-1.241036e-002
1.616081e+003,-1.217533e-002
1.618010e+003,-1.238572e-002
1.619938e+003,-1.288567e-002
1.621866e+003,-1.292079e-002
1.623795e+003,-1.299897e-002
1.625724e+003,-1.334693e-002
1.627652e+003,-1.354851e-002
1.629580e+003,-1.372376e-002
1.631509e+003,-1.401517e-002
1.633438e+003,-1.405065e-002
1.635366e+003,-1.363271e-002
1.637294e+003,-1.383788e-002
1.639223e+003,-1.454548e-002
1.641151e+003,-1.498446e-002
1.643080e+003,-1.534628e-002
1.645008e+003,-1.531123e-002
1.646937e+003,-1.513959e-002
1.648865e+003,-1.573526e-002
1.650794e+003,-1.606475e-002
1.652722e+003,-1.522217e-002
1.654651e+003,-1.558664e-002
1.656579e+003,-1.659262e-002
1.658508e+003,-1.692245e-002
1.660436e+003,-1.699170e-002
1.662365e+003,-1.691353e-002
1.664293e+003,-1.691372e-002
1.666222e+003,-1.704503e-002
1.668150e+003,-1.682340e-002
1.670079e+003,-1.654430e-002
1.672007e+003,-1.682904e-002
1.673936e+003,-1.692895e-002
1.675864e+003,-1.681536e-002
1.677793e+003,-1.716327e-002
1.679721e+003,-1.729992e-002
1.681650e+003,-1.721713e-002
1.683578e+003,-1.655789e-002
1.685507e+003,-1.639357e-002
1.687435e+003,-1.692319e-002
1.689364e+003,-1.708454e-002
1.691292e+003,-1.707871e-002
1.693221e+003,-1.705099e-002
1.695149e+003,-1.643585e-002
1.697078e+003,-1.611210e-002
1.699006e+003,-1.603384e-002
1.700935e+003,-1.565092e-002
1.702863e+003,-1.609278e-002
1.704792e+003,-1.608336e-002
1.706720e+003,-1.602490e-002
1.708649e+003,-1.612962e-002
1.710577e+003,-1.620018e-002
1.712506e+003,-1.616497e-002
1.714434e+003,-1.600522e-002
1.716363e+003,-1.571407e-002
1.718291e+003,-1.553344e-002
1.720220e+003,-1.582210e-002
1.722148e+003,-1.610182e-002
1.724077e+003,-1.615031e-002
1.726005e+003,-1.614776e-002
1.727934e+003,-1.604910e-002
1.729862e+003,-1.597520e-002
1.731791e+003,-1.592809e-002
1.733719e+003,-1.548907e-002
1.735648e+003,-1.557957e-002
1.737576e+003,-1.597955e-002
1.739505e+003,-1.578523e-002
1.741433e+003,-1.587149e-002
1.743362e+003,-1.595553e-002
1.745290e+003,-1.582466e-002
1.747219e+003,-1.564242e-002
1.749147e+003,-1.543816e-002
1.751076e+003,-1.524821e-002
1.753004e+003,-1.549092e-002
1.754933e+003,-1.564171e-002
1.756861e+003,-1.546330e-002
1.758790e+003,-1.549617e-002
1.760718e+003,-1.543113e-002
1.762647e+003,-1.528890e-002
1.764575e+003,-1.553380e-002
1.766504e+003,-1.555752e-002
1.768432e+003,-1.542831e-002
1.770361e+003,-1.534622e-002
1.772289e+003,-1.502982e-002
1.774218e+003,-1.511808e-002
1.776146e+003,-1.542467e-002
1.778075e+003,-1.556356e-002
1.780003e+003,-1.552273e-002
1.781932e+003,-1.550160e-002
1.783860e+003,-1.556739e-002
1.785789e+003,-1.552612e-002
1.787717e+003,-1.551186e-002
1.789646e+003,-1.542288e-002
1.791574e+003,-1.521657e-002
1.793503e+003,-1.521296e-002
1.795431e+003,-1.546144e-002
1.797360e+003,-1.551650e-002
1.799288e+003,-1.544015e-002
1.801217e+003,-1.545124e-002
1.803145e+003,-1.555637e-002
1.805074e+003,-1.555068e-002
1.807002e+003,-1.556426e-002
1.808931e+003,-1.564066e-002
1.810859e+003,-1.566194e-002
1.812788e+003,-1.558798e-002
1.814716e+003,-1.562973e-002
1.816645e+003,-1.574673e-002
1.818573e+003,-1.580980e-002
1.820502e+003,-1.570848e-002
1.822430e+003,-1.569020e-002
1.824359e+003,-1.558948e-002
1.826287e+003,-1.549393e-002
1.828216e+003,-1.557478e-002
1.830144e+003,-1.557798e-002
1.832073e+003,-1.579875e-002
1.834001e+003,-1.574497e-002
1.835930e+003,-1.564286e-002
1.837858e+003,-1.572366e-002
1.839787e+003,-1.578172e-002
1.841715e+003,-1.583590e-002
1.843644e+003,-1.554981e-002
1.845572e+003,-1.556935e-002
1.847501e+003,-1.578731e-002
1.849429e+003,-1.581459e-002
1.851358e+003,-1.574449e-002
1.853286e+003,-1.566086e-002
1.855215e+003,-1.568077e-002
1.857143e+003,-1.567278e-002
1.859072e+003,-1.569390e-002
1.861000e+003,-1.574229e-002
1.862929e+003,-1.578248e-002
1.864857e+003,-1.574094e-002
1.866786e+003,-1.564951e-002
1.868714e+003,-1.561998e-002
1.870643e+003,-1.571132e-002
1.872571e+003,-1.576165e-002
1.874500e+003,-1.573235e-002
1.876428e+003,-1.573005e-002
1.878357e+003,-1.572816e-002
1.880285e+003,-1.573618e-002
1.882214e+003,-1.579325e-002
1.884142e+003,-1.575785e-002
1.886071e+003,-1.582386e-002
1.887999e+003,-1.583501e-002
1.889928e+003,-1.579779e-002
1.891856e+003,-1.591749e-002
1.893785e+003,-1.587312e-002
1.895713e+003,-1.585862e-002
1.897642e+003,-1.592793e-002
1.899570e+003,-1.588321e-002
1.901499e+003,-1.577603e-002
1.903427e+003,-1.580168e-002
1.905356e+003,-1.588296e-002
1.907284e+003,-1.591142e-002
1.909213e+003,-1.593362e-002
1.911141e+003,-1.594531e-002
1.913070e+003,-1.589842e-002
1.914998e+003,-1.581117e-002
1.916927e+003,-1.574567e-002
1.918855e+003,-1.565130e-002
1.920784e+003,-1.568540e-002
1.922712e+003,-1.577603e-002
1.924641e+003,-1.590142e-002
1.926569e+003,-1.589350e-002
1.928498e+003,-1.592410e-002
1.930426e+003,-1.586948e-002
1.932355e+003,-1.592685e-002
1.934283e+003,-1.605782e-002
1.936212e+003,-1.607429e-002
1.938140e+003,-1.606570e-002
1.940069e+003,-1.599765e-002
1.941997e+003,-1.587973e-002
1.943926e+003,-1.591925e-002
1.945854e+003,-1.604549e-002
1.947783e+003,-1.598354e-002
1.949711e+003,-1.592685e-002
1.951640e+003,-1.592209e-002
1.953568e+003,-1.593387e-002
1.955497e+003,-1.599705e-002
1.957425e+003,-1.608617e-002
1.959354e+003,-1.601203e-002
1.961282e+003,-1.596696e-002
1.963211e+003,-1.605098e-002
1.965139e+003,-1.609435e-002
1.967068e+003,-1.611261e-002
1.968996e+003,-1.624908e-002
1.970925e+003,-1.625661e-002
1.972853e+003,-1.615858e-002
1.974782e+003,-1.616452e-002
1.976710e+003,-1.615759e-002
1.978639e+003,-1.608397e-002
1.980567e+003,-1.611909e-002
1.982496e+003,-1.618070e-002
1.984424e+003,-1.614262e-002
1.986353e+003,-1.604006e-002
1.988281e+003,-1.608754e-002
1.990210e+003,-1.606970e-002
1.992138e+003,-1.595997e-002
1.994067e+003,-1.600123e-002
1.995995e+003,-1.614144e-002
1.997924e+003,-1.621646e-002
1.999852e+003,-1.619038e-002
2.001781e+003,-1.616656e-002
2.003709e+003,-1.606570e-002
2.005638e+003,-1.598587e-002
2.007566e+003,-1.598143e-002
2.009495e+003,-1.602573e-002
2.011423e+003,-1.611829e-002
2.013352e+003,-1.606475e-002
2.015280e+003,-1.597565e-002
2.017208e+003,-1.591391e-002
2.019137e+003,-1.586628e-002
2.021066e+003,-1.598268e-002
2.022994e+003,-1.606701e-002
2.024922e+003,-1.601685e-002
2.026851e+003,-1.602279e-002
2.028780e+003,-1.601621e-002
2.030708e+003,-1.602528e-002
2.032636e+003,-1.600688e-002
2.034565e+003,-1.600050e-002
2.036494e+003,-1.605916e-002
2.038422e+003,-1.606918e-002
2.040350e+003,-1.603546e-002
2.042279e+003,-1.603467e-002
2.044208e+003,-1.605268e-002
2.046136e+003,-1.607864e-002
2.048064e+003,-1.599756e-002
2.049993e+003,-1.592512e-002
2.051921e+003,-1.597524e-002
2.053850e+003,-1.597204e-002
2.055778e+003,-1.595674e-002
2.057707e+003,-1.595332e-002
2.059635e+003,-1.594719e-002
2.061564e+003,-1.595000e-002
2.063492e+003,-1.604124e-002
2.065421e+003,-1.609575e-002
2.067349e+003,-1.604875e-002
2.069278e+003,-1.611526e-002
2.071206e+003,-1.609565e-002
2.073135e+003,-1.597424e-002
2.075063e+003,-1.594920e-002
2.076992e+003,-1.596208e-002
2.078920e+003,-1.598293e-002
2.080849e+003,-1.594876e-002
2.082777e+003,-1.593004e-002
2.084706e+003,-1.598552e-002
2.086634e+003,-1.607199e-002
2.088563e+003,-1.607448e-002
2.090491e+003,-1.599903e-002
2.092420e+003,-1.602908e-002
2.094348e+003,-1.604364e-002
2.096277e+003,-1.604798e-002
2.098205e+003,-1.602435e-002
2.100134e+003,-1.593815e-002
2.102062e+003,-1.585590e-002
2.103991e+003,-1.589797e-002
2.105919e+003,-1.590174e-002
2.107848e+003,-1.581149e-002
2.109776e+003,-1.588772e-002
2.111705e+003,-1.601011e-002
2.113633e+003,-1.595713e-002
2.115562e+003,-1.582625e-002
2.117490e+003,-1.580859e-002
2.119419e+003,-1.574554e-002
2.121347e+003,-1.577804e-002
2.123276e+003,-1.586159e-002
2.125204e+003,-1.579970e-002
2.127133e+003,-1.575660e-002
2.129061e+003,-1.564596e-002
2.130990e+003,-1.553578e-002
2.132918e+003,-1.566380e-002
2.134847e+003,-1.580488e-002
2.136775e+003,-1.582616e-002
2.138704e+003,-1.578047e-002
2.140632e+003,-1.565769e-002
2.142561e+003,-1.564331e-002
2.144489e+003,-1.566760e-002
2.146418e+003,-1.564027e-002
2.148346e+003,-1.556426e-002
2.150275e+003,-1.553702e-002
2.152203e+003,-1.545959e-002
2.154132e+003,-1.546720e-002
2.156060e+003,-1.554371e-002
2.157989e+003,-1.555640e-002
2.159917e+003,-1.552344e-002
2.161846e+003,-1.552839e-002
2.163774e+003,-1.554387e-002
2.165703e+003,-1.543903e-002
2.167631e+003,-1.538466e-002
2.169560e+003,-1.536445e-002
2.171488e+003,-1.542582e-002
2.173417e+003,-1.549856e-002
2.175345e+003,-1.545674e-002
2.177274e+003,-1.539298e-002
2.179202e+003,-1.537999e-002
2.181131e+003,-1.542397e-002
2.183059e+003,-1.540734e-002
2.184988e+003,-1.538495e-002
2.186916e+003,-1.536317e-002
2.188845e+003,-1.539144e-002
2.190773e+003,-1.541754e-002
2.192702e+003,-1.543861e-002
2.194630e+003,-1.547717e-002
2.196559e+003,-1.543308e-002
2.198487e+003,-1.536135e-002
2.200416e+003,-1.538345e-002
2.202344e+003,-1.541917e-002
2.204273e+003,-1.544507e-002
2.206201e+003,-1.543826e-002
2.208130e+003,-1.540273e-002
2.210058e+003,-1.546889e-002
2.211987e+003,-1.553897e-002
2.213915e+003,-1.553587e-002
2.215844e+003,-1.546400e-002
2.217772e+003,-1.546640e-002
2.219701e+003,-1.555256e-002
2.221629e+003,-1.565121e-002
2.223558e+003,-1.571317e-002
2.225486e+003,-1.569985e-002
2.227415e+003,-1.572420e-002
2.229343e+003,-1.578996e-002
2.231272e+003,-1.574986e-002
2.233200e+003,-1.567741e-002
2.235129e+003,-1.566920e-002
2.237057e+003,-1.572755e-002
2.238986e+003,-1.578037e-002
2.240914e+003,-1.577280e-002
2.242843e+003,-1.571602e-002
2.244771e+003,-1.573414e-002
2.246700e+003,-1.575171e-002
2.248628e+003,-1.585267e-002
2.250557e+003,-1.602116e-002
2.252485e+003,-1.600794e-002
2.254414e+003,-1.598312e-002
2.256342e+003,-1.599191e-002
2.258271e+003,-1.597115e-002
2.260199e+003,-1.590973e-002
2.262128e+003,-1.589874e-002
2.264056e+003,-1.591656e-002
2.265985e+003,-1.589388e-002
2.267913e+003,-1.587628e-002
2.269842e+003,-1.589634e-002
2.271770e+003,-1.591886e-002
2.273699e+003,-1.595728e-002
2.275627e+003,-1.599219e-002
2.277556e+003,-1.603179e-002
2.279484e+003,-1.598213e-002
2.281413e+003,-1.594026e-002
2.283341e+003,-1.601356e-002
2.285270e+003,-1.603498e-002
2.287198e+003,-1.602994e-002
2.289127e+003,-1.588666e-002
2.291055e+003,-1.580887e-002
2.292984e+003,-1.578881e-002
2.294912e+003,-1.583565e-002
2.296841e+003,-1.572238e-002
2.298769e+003,-1.547289e-002
2.300698e+003,-1.538649e-002
2.302626e+003,-1.522358e-002
2.304555e+003,-1.508093e-002
2.306483e+003,-1.486076e-002
2.308412e+003,-1.457848e-002
2.310340e+003,-1.420120e-002
2.312269e+003,-1.364661e-002
2.314197e+003,-1.314799e-002
2.316125e+003,-1.256393e-002
2.318054e+003,-1.189410e-002
2.319983e+003,-1.123919e-002
2.321911e+003,-1.054400e-002
2.323840e+003,-9.846495e-003
2.325768e+003,-9.384350e-003
2.327697e+003,-8.818574e-003
2.329625e+003,-8.027160e-003
2.331553e+003,-7.621746e-003
2.333482e+003,-7.549332e-003
2.335411e+003,-7.455410e-003
2.337339e+003,-7.222993e-003
2.339268e+003,-7.044572e-003
2.341196e+003,-7.193207e-003
2.343125e+003,-7.719147e-003
2.345053e+003,-9.051048e-003
2.346981e+003,-1.122088e-002
2.348910e+003,-1.251760e-002
2.350839e+003,-1.110408e-002
2.352767e+003,-8.427710e-003
2.354696e+003,-6.379167e-003
2.356624e+003,-5.126932e-003
2.358552e+003,-4.464515e-003
2.360481e+003,-4.248866e-003
2.362409e+003,-4.169554e-003
2.364338e+003,-4.340794e-003
2.366267e+003,-5.054886e-003
2.368195e+003,-6.103800e-003
2.370124e+003,-7.377951e-003
2.372052e+003,-8.879902e-003
2.373980e+003,-1.043885e-002
2.375909e+003,-1.197740e-002
2.377838e+003,-1.339930e-002
2.379766e+003,-1.457351e-002
2.381695e+003,-1.520841e-002
2.383623e+003,-1.544437e-002
2.385552e+003,-1.571164e-002
2.387480e+003,-1.593707e-002
2.389408e+003,-1.591001e-002
2.391337e+003,-1.585580e-002
2.393266e+003,-1.589698e-002
2.395194e+003,-1.587628e-002
2.397123e+003,-1.583654e-002
2.399051e+003,-1.577408e-002
2.400979e+003,-1.572046e-002
2.402908e+003,-1.576679e-002
2.404836e+003,-1.579223e-002
2.406765e+003,-1.585286e-002
2.408694e+003,-1.591966e-002
2.410622e+003,-1.586424e-002
2.412551e+003,-1.582335e-002
2.414479e+003,-1.578817e-002
2.416407e+003,-1.577699e-002
2.418336e+003,-1.581766e-002
2.420264e+003,-1.586334e-002
2.422193e+003,-1.585111e-002
2.424122e+003,-1.577523e-002
2.426050e+003,-1.570269e-002
2.427979e+003,-1.571698e-002
2.429907e+003,-1.576775e-002
2.431835e+003,-1.571324e-002
2.433764e+003,-1.561931e-002
2.435692e+003,-1.558974e-002
2.437621e+003,-1.562228e-002
2.439550e+003,-1.560416e-002
2.441478e+003,-1.561745e-002
2.443406e+003,-1.566859e-002
2.445335e+003,-1.563308e-002
2.447263e+003,-1.559214e-002
2.449192e+003,-1.562787e-002
2.451121e+003,-1.559652e-002
2.453049e+003,-1.555371e-002
2.454978e+003,-1.553632e-002
2.456906e+003,-1.543570e-002
2.458834e+003,-1.537827e-002
2.460763e+003,-1.543842e-002
2.462691e+003,-1.558709e-002
2.464620e+003,-1.560112e-002
2.466549e+003,-1.550886e-002
2.468477e+003,-1.546819e-002
2.470406e+003,-1.549831e-002
2.472334e+003,-1.550345e-002
2.474262e+003,-1.545610e-002
2.476191e+003,-1.549581e-002
2.478119e+003,-1.552350e-002
2.480048e+003,-1.551864e-002
2.481977e+003,-1.544117e-002
2.483905e+003,-1.543836e-002
2.485833e+003,-1.545329e-002
2.487762e+003,-1.537980e-002
2.489690e+003,-1.540990e-002
2.491619e+003,-1.536231e-002
2.493547e+003,-1.528036e-002
2.495476e+003,-1.519625e-002
2.497405e+003,-1.516084e-002
2.499333e+003,-1.523292e-002
2.501261e+003,-1.527396e-002
2.503190e+003,-1.527339e-002
2.505118e+003,-1.519533e-002
2.507047e+003,-1.515773e-002
2.508975e+003,-1.524322e-002
2.510904e+003,-1.528170e-002
2.512833e+003,-1.524696e-002
2.514761e+003,-1.525854e-002
2.516689e+003,-1.525291e-002
2.518618e+003,-1.513159e-002
2.520546e+003,-1.507891e-002
2.522475e+003,-1.515188e-002
2.524403e+003,-1.515818e-002
2.526332e+003,-1.512048e-002
2.528260e+003,-1.511114e-002
2.530189e+003,-1.506522e-002
2.532117e+003,-1.512672e-002
2.534046e+003,-1.525144e-002
2.535974e+003,-1.521328e-002
2.537903e+003,-1.513037e-002
2.539831e+003,-1.499471e-002
2.541760e+003,-1.501702e-002
2.543688e+003,-1.505411e-002
2.545617e+003,-1.508631e-002
2.547545e+003,-1.506813e-002
2.549474e+003,-1.510244e-002
2.551402e+003,-1.521081e-002
2.553331e+003,-1.527729e-002
2.555259e+003,-1.520032e-002
2.557188e+003,-1.508788e-002
2.559116e+003,-1.505261e-002
2.561045e+003,-1.502521e-002
2.562973e+003,-1.507943e-002
2.564902e+003,-1.505587e-002
2.566830e+003,-1.499736e-002
2.568759e+003,-1.515383e-002
2.570687e+003,-1.517927e-002
2.572616e+003,-1.502911e-002
2.574544e+003,-1.497595e-002
2.576473e+003,-1.502316e-002
2.578401e+003,-1.505821e-002
2.580330e+003,-1.513623e-002
2.582258e+003,-1.511063e-002
2.584187e+003,-1.507322e-002
2.586115e+003,-1.511367e-002
2.588044e+003,-1.514576e-002
2.589972e+003,-1.510103e-002
2.591901e+003,-1.497390e-002
2.593829e+003,-1.496884e-002
2.595758e+003,-1.511332e-002
2.597686e+003,-1.518483e-002
2.599615e+003,-1.517111e-002
2.601543e+003,-1.510804e-002
2.603472e+003,-1.512093e-002
2.605400e+003,-1.509168e-002
2.607329e+003,-1.495840e-002
2.609257e+003,-1.484334e-002
2.611186e+003,-1.485186e-002
2.613114e+003,-1.494240e-002
2.615043e+003,-1.493843e-002
2.616971e+003,-1.492543e-002
2.618900e+003,-1.489700e-002
2.620828e+003,-1.478848e-002
2.622757e+003,-1.476533e-002
2.624685e+003,-1.481516e-002
2.626614e+003,-1.474842e-002
2.628542e+003,-1.471460e-002
2.630471e+003,-1.472155e-002
2.632399e+003,-1.474112e-002
2.634328e+003,-1.472696e-002
2.636256e+003,-1.474832e-002
2.638185e+003,-1.464566e-002
2.640113e+003,-1.456358e-002
2.642042e+003,-1.467866e-002
2.643970e+003,-1.465213e-002
2.645899e+003,-1.450715e-002
2.647827e+003,-1.444709e-002
2.649756e+003,-1.445081e-002
2.651684e+003,-1.446526e-002
2.653613e+003,-1.443844e-002
2.655541e+003,-1.438539e-002
2.657470e+003,-1.446171e-002
2.659398e+003,-1.446837e-002
2.661327e+003,-1.430486e-002
2.663255e+003,-1.419398e-002
2.665184e+003,-1.432625e-002
2.667112e+003,-1.432125e-002
2.669041e+003,-1.422544e-002
2.670969e+003,-1.418751e-002
2.672898e+003,-1.421477e-002
2.674826e+003,-1.418661e-002
2.676755e+003,-1.407631e-002
2.678683e+003,-1.406348e-002
2.680612e+003,-1.408943e-002
2.682540e+003,-1.406053e-002
2.684469e+003,-1.403987e-002
2.686397e+003,-1.389227e-002
2.688326e+003,-1.376181e-002
2.690254e+003,-1.370341e-002
2.692183e+003,-1.375904e-002
2.694111e+003,-1.380010e-002
2.696040e+003,-1.382677e-002
2.697968e+003,-1.374848e-002
2.699897e+003,-1.361181e-002
2.701825e+003,-1.361531e-002
2.703754e+003,-1.360265e-002
2.705682e+003,-1.346285e-002
2.707611e+003,-1.344804e-002
2.709539e+003,-1.342063e-002
2.711468e+003,-1.339946e-002
2.713396e+003,-1.338735e-002
2.715325e+003,-1.323237e-002
2.717253e+003,-1.314060e-002
2.719182e+003,-1.312585e-002
2.721110e+003,-1.311765e-002
2.723039e+003,-1.304174e-002
2.724967e+003,-1.293176e-002
2.726896e+003,-1.287013e-002
2.728824e+003,-1.279132e-002
2.730753e+003,-1.267825e-002
2.732681e+003,-1.258752e-002
2.734610e+003,-1.248135e-002
2.736538e+003,-1.247804e-002
2.738467e+003,-1.249880e-002
2.740395e+003,-1.239239e-002
2.742324e+003,-1.235964e-002
2.744252e+003,-1.236251e-002
2.746181e+003,-1.230486e-002
2.748109e+003,-1.222858e-002
2.750038e+003,-1.213054e-002
2.751966e+003,-1.199287e-002
2.753895e+003,-1.185590e-002
2.755823e+003,-1.179357e-002
2.757752e+003,-1.172394e-002
2.759680e+003,-1.151290e-002
2.761609e+003,-1.130466e-002
2.763537e+003,-1.099590e-002
2.765466e+003,-1.070311e-002
2.767394e+003,-1.049998e-002
2.769323e+003,-1.023071e-002
2.771251e+003,-9.818055e-003
2.773180e+003,-9.417197e-003
2.775108e+003,-8.965954e-003
2.777037e+003,-8.476031e-003
2.778965e+003,-8.112763e-003
2.780894e+003,-7.526961e-003
2.782822e+003,-6.784567e-003
2.784750e+003,-6.121638e-003
2.786679e+003,-5.464469e-003
2.788608e+003,-4.765111e-003
2.790536e+003,-4.043714e-003
2.792465e+003,-3.312502e-003
2.794393e+003,-2.525113e-003
2.796322e+003,-1.741376e-003
2.798250e+003,-1.122058e-003
2.800178e+003,-5.379954e-004
2.802107e+003,1.188349e-004
2.804036e+003,6.884743e-004
2.805964e+003,1.133569e-003
2.807893e+003,1.526680e-003
2.809821e+003,1.708467e-003
2.811750e+003,1.740934e-003
2.813678e+003,1.591158e-003
2.815606e+003,1.503007e-003
2.817535e+003,1.323067e-003
2.819464e+003,1.070056e-003
2.821392e+003,8.176891e-004
2.823321e+003,3.947727e-004
2.825249e+003,-1.401547e-005
2.827177e+003,-5.428931e-004
2.829106e+003,-1.253208e-003
2.831034e+003,-1.982417e-003
2.832963e+003,-2.592013e-003
2.834892e+003,-3.034919e-003
2.836820e+003,-3.568842e-003
2.838749e+003,-4.243813e-003
2.840677e+003,-4.992197e-003
2.842605e+003,-5.681870e-003
2.844534e+003,-6.419456e-003
2.846462e+003,-7.325729e-003
2.848391e+003,-8.052823e-003
2.850320e+003,-8.495689e-003
2.852248e+003,-8.700894e-003
2.854177e+003,-8.789807e-003
2.856105e+003,-8.894900e-003
2.858033e+003,-8.967349e-003
2.859962e+003,-8.856657e-003
2.861890e+003,-8.956541e-003
2.863819e+003,-9.064741e-003
2.865748e+003,-8.982052e-003
2.867676e+003,-8.906001e-003
2.869604e+003,-8.737137e-003
2.871533e+003,-8.645485e-003
2.873461e+003,-8.561286e-003
2.875390e+003,-8.497022e-003
2.877319e+003,-8.376167e-003
2.879247e+003,-8.144437e-003
2.881176e+003,-8.045699e-003
2.883104e+003,-8.042903e-003
2.885032e+003,-7.916911e-003
2.886961e+003,-7.955821e-003
2.888889e+003,-8.067914e-003
2.890818e+003,-8.156566e-003
2.892747e+003,-8.358746e-003
2.894675e+003,-8.568889e-003
2.896604e+003,-8.618947e-003
2.898532e+003,-8.599360e-003
2.900460e+003,-8.573307e-003
2.902389e+003,-8.643828e-003
2.904317e+003,-8.807567e-003
2.906246e+003,-8.873052e-003
2.908175e+003,-8.968193e-003
2.910103e+003,-9.118994e-003
2.912031e+003,-9.376762e-003
2.913960e+003,-9.676343e-003
2.915888e+003,-9.946087e-003
2.917817e+003,-9.943950e-003
2.919745e+003,-9.631591e-003
2.921674e+003,-9.299192e-003
2.923603e+003,-8.927783e-003
2.925531e+003,-8.561644e-003
2.927459e+003,-8.321887e-003
2.929388e+003,-8.078615e-003
2.931316e+003,-7.885936e-003
2.933245e+003,-7.685424e-003
2.935173e+003,-7.507324e-003
2.937102e+003,-7.369807e-003
2.939031e+003,-7.239156e-003
2.940959e+003,-7.184831e-003
2.942887e+003,-7.355962e-003
2.944816e+003,-7.437887e-003
2.946744e+003,-7.465246e-003
2.948673e+003,-7.837191e-003
2.950601e+003,-8.430538e-003
2.952530e+003,-8.935281e-003
2.954458e+003,-9.459960e-003
2.956387e+003,-1.004099e-002
2.958315e+003,-1.056806e-002
2.960244e+003,-1.124726e-002
2.962172e+003,-1.185677e-002
2.964101e+003,-1.228402e-002
2.966029e+003,-1.279553e-002
2.967958e+003,-1.338228e-002
2.969886e+003,-1.382221e-002
2.971815e+003,-1.415896e-002
2.973743e+003,-1.457912e-002
2.975672e+003,-1.495018e-002
2.977600e+003,-1.531987e-002
2.979529e+003,-1.552200e-002
2.981457e+003,-1.568662e-002
2.983386e+003,-1.588970e-002
2.985314e+003,-1.610418e-002
2.987243e+003,-1.634281e-002
2.989171e+003,-1.653464e-002
2.991100e+003,-1.680427e-002
2.993028e+003,-1.699052e-002
2.994957e+003,-1.698940e-002
2.996885e+003,-1.699326e-002
2.998814e+003,-1.700167e-002
3.000742e+003,-1.701977e-002
3.002671e+003,-1.714378e-002
3.004599e+003,-1.727744e-002
3.006528e+003,-1.723000e-002
3.008456e+003,-1.729295e-002
3.010385e+003,-1.740170e-002
3.012313e+003,-1.737455e-002
3.014242e+003,-1.740581e-002
3.016170e+003,-1.748589e-002
3.018099e+003,-1.740135e-002
3.020027e+003,-1.741966e-002
3.021956e+003,-1.758101e-002
3.023884e+003,-1.767363e-002
3.025813e+003,-1.762164e-002
3.027741e+003,-1.774103e-002
3.029670e+003,-1.788768e-002
3.031598e+003,-1.785874e-002
3.033527e+003,-1.784417e-002
3.035455e+003,-1.776444e-002
3.037384e+003,-1.771727e-002
3.039312e+003,-1.773982e-002
3.041241e+003,-1.783212e-002
3.043169e+003,-1.797037e-002
3.045098e+003,-1.810890e-002
3.047026e+003,-1.811570e-002
3.048955e+003,-1.807524e-002
3.050883e+003,-1.809151e-002
3.052812e+003,-1.809981e-002
3.054740e+003,-1.822450e-002
3.056669e+003,-1.821322e-002
3.058597e+003,-1.826644e-002
3.060526e+003,-1.834941e-002
3.062454e+003,-1.828098e-002
3.064383e+003,-1.826942e-002
3.066311e+003,-1.829245e-002
3.068240e+003,-1.828727e-002
3.070168e+003,-1.835335e-002
3.072097e+003,-1.844183e-002
3.074025e+003,-1.849959e-002
3.075954e+003,-1.851921e-002
3.077882e+003,-1.852433e-002
3.079811e+003,-1.849988e-002
3.081739e+003,-1.854372e-002
3.083668e+003,-1.861217e-002
3.085596e+003,-1.870069e-002
3.087525e+003,-1.867019e-002
3.089453e+003,-1.862007e-002
3.091382e+003,-1.864426e-002
3.093310e+003,-1.864547e-002
3.095239e+003,-1.871691e-002
3.097167e+003,-1.879095e-002
3.099096e+003,-1.874490e-002
3.101024e+003,-1.876864e-002
3.102953e+003,-1.877810e-002
3.104881e+003,-1.885926e-002
3.106810e+003,-1.886684e-002
3.108738e+003,-1.877699e-002
3.110667e+003,-1.874932e-002
3.112595e+003,-1.872827e-002
3.114524e+003,-1.877305e-002
3.116452e+003,-1.893822e-002
3.118381e+003,-1.897980e-002
3.120309e+003,-1.902119e-002
3.122238e+003,-1.900146e-002
3.124166e+003,-1.898630e-002
3.126095e+003,-1.904656e-002
3.128023e+003,-1.906442e-002
3.129952e+003,-1.906188e-002
3.131880e+003,-1.908848e-002
3.133809e+003,-1.911578e-002
3.135737e+003,-1.907833e-002
3.137666e+003,-1.896420e-002
3.139594e+003,-1.892937e-002
3.141523e+003,-1.894497e-002
3.143451e+003,-1.889723e-002
3.145380e+003,-1.890472e-002
3.147308e+003,-1.909606e-002
3.149237e+003,-1.917523e-002
3.151165e+003,-1.907222e-002
3.153094e+003,-1.890075e-002
3.155022e+003,-1.890808e-002
3.156951e+003,-1.901742e-002
3.158879e+003,-1.900042e-002
3.160808e+003,-1.896886e-002
3.162736e+003,-1.893035e-002
3.164665e+003,-1.893029e-002
3.166593e+003,-1.907897e-002
3.168522e+003,-1.912206e-002
3.170450e+003,-1.905810e-002
3.172379e+003,-1.911448e-002
3.174307e+003,-1.909650e-002
3.176236e+003,-1.903086e-002
3.178164e+003,-1.899258e-002
3.180093e+003,-1.903870e-002
3.182021e+003,-1.908595e-002
3.183950e+003,-1.904650e-002
3.185878e+003,-1.900048e-002
3.187807e+003,-1.894298e-002
3.189735e+003,-1.886472e-002
3.191664e+003,-1.904063e-002
3.193592e+003,-1.904041e-002
3.195521e+003,-1.893654e-002
3.197449e+003,-1.909007e-002
3.199378e+003,-1.921679e-002
3.201306e+003,-1.922259e-002
3.203235e+003,-1.919723e-002
3.205163e+003,-1.921647e-002
3.207092e+003,-1.925733e-002
3.209020e+003,-1.923416e-002
3.210948e+003,-1.914213e-002
3.212877e+003,-1.900752e-002
3.214806e+003,-1.901485e-002
3.216734e+003,-1.908813e-002
3.218663e+003,-1.901450e-002
3.220591e+003,-1.892233e-002
3.222520e+003,-1.898656e-002
3.224448e+003,-1.910231e-002
3.226376e+003,-1.910564e-002
3.228305e+003,-1.898551e-002
3.230234e+003,-1.889051e-002
3.232162e+003,-1.885466e-002
3.234091e+003,-1.870022e-002
3.236019e+003,-1.868683e-002
3.237948e+003,-1.880462e-002
3.239876e+003,-1.874951e-002
3.241804e+003,-1.850826e-002
3.243733e+003,-1.842551e-002
3.245662e+003,-1.842808e-002
3.247590e+003,-1.828235e-002
3.249519e+003,-1.827225e-002
3.251447e+003,-1.835646e-002
3.253375e+003,-1.841134e-002
3.255304e+003,-1.829722e-002
3.257232e+003,-1.809062e-002
3.259161e+003,-1.798995e-002
3.261090e+003,-1.794723e-002
3.263018e+003,-1.793947e-002
3.264947e+003,-1.797927e-002
3.266875e+003,-1.808754e-002
3.268803e+003,-1.801980e-002
3.270732e+003,-1.802829e-002
3.272660e+003,-1.810006e-002
3.274589e+003,-1.799561e-002
3.276518e+003,-1.795661e-002
3.278446e+003,-1.797673e-002
3.280375e+003,-1.795095e-002
3.282303e+003,-1.799113e-002
3.284231e+003,-1.792163e-002
3.286160e+003,-1.803719e-002
3.288088e+003,-1.815745e-002
3.290017e+003,-1.819692e-002
3.291946e+003,-1.816060e-002
3.293874e+003,-1.818567e-002
3.295802e+003,-1.826440e-002
3.297731e+003,-1.831364e-002
3.299659e+003,-1.836164e-002
3.301588e+003,-1.849804e-002
3.303516e+003,-1.873424e-002
3.305445e+003,-1.870251e-002
3.307374e+003,-1.868632e-002
3.309302e+003,-1.881189e-002
3.311230e+003,-1.893333e-002
3.313159e+003,-1.907415e-002
3.315087e+003,-1.929166e-002
3.317016e+003,-1.925239e-002
3.318944e+003,-1.926107e-002
3.320873e+003,-1.939209e-002
3.322802e+003,-1.953440e-002
3.324730e+003,-1.965925e-002
3.326658e+003,-1.965175e-002
3.328587e+003,-1.970628e-002
3.330515e+003,-1.980829e-002
3.332444e+003,-1.990663e-002
3.334372e+003,-1.996993e-002
3.336301e+003,-1.996648e-002
3.338229e+003,-1.992920e-002
3.340158e+003,-2.004084e-002
3.342086e+003,-2.011060e-002
3.344015e+003,-2.029148e-002
3.345943e+003,-2.035323e-002
3.347872e+003,-2.026508e-002
3.349800e+003,-2.028617e-002
3.351729e+003,-2.032943e-002
3.353657e+003,-2.033515e-002
3.355586e+003,-2.041349e-002
3.357514e+003,-2.038355e-002
3.359443e+003,-2.048936e-002
3.361371e+003,-2.052343e-002
3.363300e+003,-2.050235e-002
3.365229e+003,-2.054599e-002
3.367157e+003,-2.075275e-002
3.369085e+003,-2.101283e-002
3.371014e+003,-2.107284e-002
3.372942e+003,-2.099339e-002
3.374871e+003,-2.105662e-002
3.376799e+003,-2.107047e-002
3.378728e+003,-2.112290e-002
3.380656e+003,-2.121776e-002
3.382585e+003,-2.139465e-002
3.384513e+003,-2.149617e-002
3.386442e+003,-2.157342e-002
3.388370e+003,-2.162267e-002
3.390299e+003,-2.163613e-002
3.392227e+003,-2.156223e-002
3.394156e+003,-2.167178e-002
3.396084e+003,-2.170673e-002
3.398013e+003,-2.173762e-002
3.399941e+003,-2.181039e-002
3.401870e+003,-2.174742e-002
3.403798e+003,-2.174597e-002
3.405727e+003,-2.176933e-002
3.407655e+003,-2.180311e-002
3.409584e+003,-2.191118e-002
3.411512e+003,-2.197151e-002
3.413441e+003,-2.218719e-002
3.415369e+003,-2.215221e-002
3.417298e+003,-2.209808e-002
3.419226e+003,-2.222358e-002
3.421155e+003,-2.221291e-002
3.423083e+003,-2.220677e-002
3.425012e+003,-2.215189e-002
3.426940e+003,-2.219742e-002
3.428869e+003,-2.226492e-002
3.430797e+003,-2.231131e-002
3.432726e+003,-2.233224e-002
3.434654e+003,-2.223781e-002
3.436583e+003,-2.233007e-002
3.438511e+003,-2.255102e-002
3.440440e+003,-2.255052e-002
3.442368e+003,-2.260607e-002
3.444297e+003,-2.267797e-002
3.446225e+003,-2.251557e-002
3.448154e+003,-2.233649e-002
3.450082e+003,-2.239371e-002
3.452011e+003,-2.240013e-002
3.453939e+003,-2.242329e-002
3.455868e+003,-2.252428e-002
3.457796e+003,-2.263730e-002
3.459725e+003,-2.263696e-002
3.461653e+003,-2.257908e-002
3.463582e+003,-2.250453e-002
3.465510e+003,-2.267831e-002
3.467439e+003,-2.286011e-002
3.469367e+003,-2.283574e-002
3.471296e+003,-2.284461e-002
3.473224e+003,-2.279544e-002
3.475153e+003,-2.277972e-002
3.477081e+003,-2.273240e-002
3.479010e+003,-2.282238e-002
3.480938e+003,-2.296845e-002
3.482867e+003,-2.302492e-002
3.484795e+003,-2.292904e-002
3.486724e+003,-2.290018e-002
3.488652e+003,-2.294554e-002
3.490581e+003,-2.285894e-002
3.492509e+003,-2.276683e-002
3.494438e+003,-2.281273e-002
3.496366e+003,-2.279041e-002
3.498295e+003,-2.284804e-002
3.500223e+003,-2.279528e-002
3.502152e+003,-2.277107e-002
3.504080e+003,-2.275312e-002
3.506009e+003,-2.278230e-002
3.507937e+003,-2.281399e-002
3.509866e+003,-2.275825e-002
3.511794e+003,-2.263324e-002
3.513723e+003,-2.273916e-002
3.515651e+003,-2.285787e-002
3.517580e+003,-2.276334e-002
3.519508e+003,-2.259185e-002
3.521437e+003,-2.272944e-002
3.523365e+003,-2.283854e-002
3.525294e+003,-2.280107e-002
3.527222e+003,-2.276114e-002
3.529151e+003,-2.279478e-002
3.531079e+003,-2.285168e-002
3.533008e+003,-2.273992e-002
3.534936e+003,-2.277774e-002
3.536865e+003,-2.290330e-002
3.538793e+003,-2.300852e-002
3.540722e+003,-2.298426e-002
3.542650e+003,-2.293152e-002
3.544579e+003,-2.280063e-002
3.546507e+003,-2.260959e-002
3.548436e+003,-2.257820e-002
3.550364e+003,-2.250358e-002
3.552293e+003,-2.255077e-002
3.554221e+003,-2.267718e-002
3.556150e+003,-2.276780e-002
3.558078e+003,-2.278393e-002
3.560007e+003,-2.288742e-002
3.561935e+003,-2.296138e-002
3.563864e+003,-2.287818e-002
3.565792e+003,-2.260912e-002
3.567721e+003,-2.261648e-002
3.569649e+003,-2.281619e-002
3.571578e+003,-2.267992e-002
3.573506e+003,-2.251374e-002
3.575435e+003,-2.260947e-002
3.577363e+003,-2.264406e-002
3.579292e+003,-2.274054e-002
3.581220e+003,-2.279667e-002
3.583149e+003,-2.274369e-002
3.585077e+003,-2.273111e-002
3.587006e+003,-2.258238e-002
3.588934e+003,-2.256213e-002
3.590863e+003,-2.281248e-002
3.592791e+003,-2.280016e-002
3.594720e+003,-2.262192e-002
3.596648e+003,-2.253721e-002
3.598577e+003,-2.273334e-002
3.600505e+003,-2.279984e-002
3.602434e+003,-2.276545e-002
3.604362e+003,-2.285486e-002
3.606291e+003,-2.280726e-002
3.608219e+003,-2.258330e-002
3.610148e+003,-2.264193e-002
3.612076e+003,-2.275834e-002
3.614005e+003,-2.287457e-002
3.615933e+003,-2.293501e-002
3.617862e+003,-2.274875e-002
3.619790e+003,-2.266347e-002
3.621719e+003,-2.280657e-002
3.623647e+003,-2.294903e-002
3.625576e+003,-2.293363e-002
3.627504e+003,-2.251764e-002
3.629433e+003,-2.195383e-002
3.631361e+003,-2.257518e-002
3.633290e+003,-2.290279e-002
3.635218e+003,-2.287824e-002
3.637146e+003,-2.285904e-002
3.639075e+003,-2.283380e-002
3.641004e+003,-2.296562e-002
3.642932e+003,-2.314516e-002
3.644861e+003,-2.329046e-002
3.646789e+003,-2.321945e-002
3.648718e+003,-2.279758e-002
3.650646e+003,-2.255923e-002
3.652574e+003,-2.307535e-002
3.654503e+003,-2.326813e-002
3.656432e+003,-2.292520e-002
3.658360e+003,-2.318593e-002
3.660289e+003,-2.339468e-002
3.662217e+003,-2.339474e-002
3.664146e+003,-2.356036e-002
3.666074e+003,-2.371254e-002
3.668002e+003,-2.355923e-002
3.669931e+003,-2.311993e-002
3.671860e+003,-2.327407e-002
3.673788e+003,-2.340896e-002
3.675717e+003,-2.300886e-002
3.677645e+003,-2.333109e-002
3.679573e+003,-2.337060e-002
3.681502e+003,-2.337844e-002
3.683430e+003,-2.352671e-002
3.685359e+003,-2.370357e-002
3.687288e+003,-2.345125e-002
3.689216e+003,-2.317469e-002
3.691145e+003,-2.330764e-002
3.693073e+003,-2.343769e-002
3.695001e+003,-2.345269e-002
3.696930e+003,-2.346070e-002
3.698858e+003,-2.347680e-002
3.700787e+003,-2.311227e-002
3.702716e+003,-2.304899e-002
3.704644e+003,-2.330808e-002
3.706573e+003,-2.328057e-002
3.708501e+003,-2.334469e-002
3.710429e+003,-2.341772e-002
3.712358e+003,-2.329596e-002
3.714286e+003,-2.359987e-002
3.716215e+003,-2.377538e-002
3.718144e+003,-2.350166e-002
3.720072e+003,-2.340419e-002
3.722000e+003,-2.340639e-002
3.723929e+003,-2.334252e-002
3.725857e+003,-2.334686e-002
3.727786e+003,-2.354404e-002
3.729714e+003,-2.377905e-002
3.731643e+003,-2.350430e-002
3.733572e+003,-2.334818e-002
3.735500e+003,-2.331137e-002
3.737428e+003,-2.352411e-002
3.739357e+003,-2.383156e-002
3.741285e+003,-2.391774e-002
3.743214e+003,-2.333081e-002
3.745142e+003,-2.256823e-002
3.747071e+003,-2.318854e-002
3.749000e+003,-2.296899e-002
3.750928e+003,-2.272268e-002
3.752856e+003,-2.285816e-002
3.754785e+003,-2.323340e-002
3.756713e+003,-2.334243e-002
3.758642e+003,-2.333408e-002
3.760570e+003,-2.318009e-002
3.762499e+003,-2.342337e-002
3.764427e+003,-2.357831e-002
3.766356e+003,-2.348597e-002
3.768284e+003,-2.349419e-002
3.770213e+003,-2.333160e-002
3.772141e+003,-2.343244e-002
3.774070e+003,-2.350072e-002
3.775998e+003,-2.344525e-002
3.777927e+003,-2.333147e-002
3.779855e+003,-2.321995e-002
3.781784e+003,-2.346830e-002
3.783712e+003,-2.360960e-002
3.785641e+003,-2.350656e-002
3.787569e+003,-2.349473e-002
3.789498e+003,-2.379025e-002
3.791426e+003,-2.403463e-002
3.793355e+003,-2.388836e-002
3.795283e+003,-2.360413e-002
3.797212e+003,-2.361848e-002
3.799140e+003,-2.382773e-002
3.801069e+003,-2.334001e-002
3.802997e+003,-2.350920e-002
3.804926e+003,-2.383015e-002
3.806854e+003,-2.329523e-002
3.808783e+003,-2.331225e-002
3.810711e+003,-2.361038e-002
3.812640e+003,-2.386248e-002
3.814568e+003,-2.379486e-002
3.816497e+003,-2.334416e-002
3.818425e+003,-2.359488e-002
3.820354e+003,-2.330264e-002
3.822282e+003,-2.323365e-002
3.824211e+003,-2.396779e-002
3.826139e+003,-2.396048e-002
3.828068e+003,-2.379549e-002
3.829996e+003,-2.372054e-002
3.831925e+003,-2.364885e-002
3.833853e+003,-2.371427e-002
3.835782e+003,-2.372236e-002
3.837710e+003,-2.328380e-002
3.839639e+003,-2.329775e-002
3.841567e+003,-2.349743e-002
3.843496e+003,-2.351124e-002
3.845424e+003,-2.380891e-002
3.847353e+003,-2.413422e-002
3.849281e+003,-2.413415e-002
3.851210e+003,-2.379480e-002
3.853138e+003,-2.278871e-002
3.855067e+003,-2.264516e-002
3.856995e+003,-2.343898e-002
3.858924e+003,-2.374577e-002
3.860852e+003,-2.370034e-002
3.862781e+003,-2.356098e-002
3.864709e+003,-2.324332e-002
3.866638e+003,-2.362243e-002
3.868566e+003,-2.389604e-002
3.870495e+003,-2.358440e-002
3.872423e+003,-2.374338e-002
3.874352e+003,-2.361483e-002
3.876280e+003,-2.370166e-002
3.878209e+003,-2.386822e-002
3.880137e+003,-2.375082e-002
3.882066e+003,-2.378749e-002
3.883994e+003,-2.390491e-002
3.885923e+003,-2.365368e-002
3.887851e+003,-2.394383e-002
3.889780e+003,-2.398801e-002
3.891708e+003,-2.360068e-002
3.893637e+003,-2.377526e-002
3.895565e+003,-2.414870e-002
3.897494e+003,-2.421608e-002
3.899422e+003,-2.402685e-002
3.901351e+003,-2.400682e-002
3.903279e+003,-2.385577e-002
3.905208e+003,-2.385110e-002
3.907136e+003,-2.419245e-002
3.909065e+003,-2.426778e-002
3.910993e+003,-2.425791e-002
3.912922e+003,-2.424312e-002
3.914850e+003,-2.396970e-002
3.916779e+003,-2.384225e-002
3.918707e+003,-2.407726e-002
3.920636e+003,-2.426098e-002
3.922564e+003,-2.423936e-002
3.924493e+003,-2.411491e-002
3.926421e+003,-2.414468e-002
3.928350e+003,-2.435651e-002
3.930278e+003,-2.450297e-002
3.932207e+003,-2.445336e-002
3.934135e+003,-2.441671e-002
3.936064e+003,-2.448317e-002
3.937992e+003,-2.440898e-002
3.939921e+003,-2.427069e-002
3.941849e+003,-2.435723e-002
3.943778e+003,-2.445790e-002
3.945706e+003,-2.438088e-002
3.947635e+003,-2.430613e-002
3.949563e+003,-2.439422e-002
3.951492e+003,-2.452376e-002
3.953420e+003,-2.462220e-002
3.955349e+003,-2.479289e-002
3.957277e+003,-2.485119e-002
3.959206e+003,-2.477017e-002
3.961134e+003,-2.471105e-002
3.963063e+003,-2.456888e-002
3.964991e+003,-2.452307e-002
3.966920e+003,-2.442163e-002
3.968848e+003,-2.425055e-002
3.970777e+003,-2.440212e-002
3.972705e+003,-2.457565e-002
3.974634e+003,-2.459844e-002
3.976562e+003,-2.470131e-002
3.978491e+003,-2.475324e-002
3.980419e+003,-2.475533e-002
3.982348e+003,-2.474616e-002
3.984276e+003,-2.467749e-002
3.986205e+003,-2.464387e-002
3.988133e+003,-2.453068e-002
3.990062e+003,-2.448668e-002
3.991990e+003,-2.457577e-002
3.993919e+003,-2.468682e-002
3.995847e+003,-2.494950e-002
3.997776e+003,-2.491120e-002
3.999704e+003,-2.480644e-002
4.001633e+003,0.000000e+000
