3.991989e+002,1.341967e-002
4.011274e+002,1.445798e-002
4.030559e+002,1.224615e-002
4.049844e+002,6.884834e-003
4.069129e+002,9.576949e-003
4.088414e+002,1.375743e-002
4.107699e+002,9.215846e-003
4.126984e+002,8.755126e-003
4.146269e+002,1.084170e-002
4.165554e+002,1.432519e-002
4.184839e+002,1.625635e-002
4.204124e+002,2.085546e-002
4.223409e+002,2.405056e-002
4.242694e+002,2.537763e-002
4.261979e+002,1.923075e-002
4.281264e+002,1.892611e-002
4.300549e+002,1.904563e-002
4.319834e+002,1.738865e-002
4.339119e+002,1.880077e-002
4.358404e+002,1.952049e-002
4.377689e+002,2.027681e-002
4.396974e+002,1.497425e-002
4.416259e+002,9.533629e-003
4.435544e+002,1.118009e-002
4.454829e+002,1.355997e-002
4.474114e+002,1.710895e-002
4.493399e+002,1.605837e-002
4.512684e+002,1.308533e-002
4.531969e+002,1.412076e-002
4.551254e+002,1.438242e-002
4.570539e+002,1.516364e-002
4.589824e+002,1.486232e-002
4.609109e+002,1.392659e-002
4.628394e+002,1.437506e-002
4.647679e+002,1.307058e-002
4.666964e+002,1.406877e-002
4.686249e+002,1.600336e-002
4.705533e+002,1.507934e-002
4.724819e+002,1.180570e-002
4.744103e+002,1.017342e-002
4.763389e+002,1.389843e-002
4.782673e+002,1.475600e-002
4.801959e+002,1.451135e-002
4.821243e+002,1.791671e-002
4.840529e+002,1.716620e-002
4.859813e+002,1.592038e-002
4.879099e+002,1.618416e-002
4.898383e+002,1.644390e-002
4.917668e+002,1.542984e-002
4.936953e+002,1.548385e-002
4.956238e+002,1.680286e-002
4.975523e+002,1.760067e-002
4.994808e+002,1.500745e-002
5.014093e+002,1.498886e-002
5.033378e+002,1.645790e-002
5.052663e+002,1.677662e-002
5.071948e+002,1.737276e-002
5.091233e+002,1.644252e-002
5.110518e+002,1.566583e-002
5.129803e+002,1.538390e-002
5.149088e+002,1.524616e-002
5.168373e+002,1.559545e-002
5.187658e+002,1.579044e-002
5.206943e+002,1.395988e-002
5.226228e+002,1.378702e-002
5.245513e+002,1.527860e-002
5.264798e+002,1.537786e-002
5.284083e+002,1.482416e-002
5.303368e+002,1.584718e-002
5.322653e+002,1.577962e-002
5.341938e+002,1.671877e-002
5.361223e+002,1.694940e-002
5.380508e+002,1.596720e-002
5.399792e+002,1.568562e-002
5.419078e+002,1.638316e-002
5.438363e+002,1.669683e-002
5.457648e+002,1.697752e-002
5.476932e+002,1.720508e-002
5.496218e+002,1.727076e-002
5.515503e+002,1.689301e-002
5.534788e+002,1.607123e-002
5.554072e+002,1.630933e-002
5.573358e+002,1.688367e-002
5.592643e+002,1.688997e-002
5.611927e+002,1.724183e-002
5.631212e+002,1.860086e-002
5.650497e+002,1.950177e-002
5.669783e+002,1.846203e-002
5.689067e+002,1.744953e-002
5.708352e+002,1.708789e-002
5.727637e+002,1.813302e-002
5.746923e+002,1.771948e-002
5.766207e+002,1.507783e-002
5.785492e+002,1.720136e-002
5.804777e+002,2.727322e-002
5.824063e+002,2.519791e-002
5.843347e+002,1.804369e-002
5.862632e+002,1.771893e-002
5.881917e+002,1.825844e-002
5.901202e+002,1.939785e-002
5.920487e+002,1.996079e-002
5.939772e+002,1.955459e-002
5.959057e+002,1.964947e-002
5.978342e+002,2.065787e-002
5.997627e+002,2.177789e-002
6.016912e+002,2.419686e-002
6.036197e+002,2.603202e-002
6.055482e+002,2.764638e-002
6.074767e+002,2.911837e-002
6.094052e+002,2.886482e-002
6.113337e+002,2.712912e-002
6.132622e+002,2.586238e-002
6.151907e+002,2.477206e-002
6.171192e+002,2.500964e-002
6.190477e+002,2.532968e-002
6.209762e+002,2.555808e-002
6.229047e+002,2.469422e-002
6.248332e+002,2.290923e-002
6.267617e+002,1.969027e-002
6.286902e+002,1.679536e-002
6.306187e+002,1.597696e-002
6.325472e+002,1.557148e-002
6.344756e+002,1.490566e-002
6.364042e+002,1.467021e-002
6.383326e+002,1.438649e-002
6.402612e+002,1.403588e-002
6.421896e+002,1.392324e-002
6.441182e+002,1.378610e-002
6.460466e+002,1.348809e-002
6.479752e+002,1.383675e-002
6.499036e+002,1.341833e-002
6.518322e+002,1.336410e-002
6.537606e+002,1.365440e-002
6.556891e+002,1.311422e-002
6.576177e+002,1.221589e-002
6.595461e+002,1.170384e-002
6.614746e+002,1.161446e-002
6.634031e+002,1.142879e-002
6.653317e+002,1.174860e-002
6.672601e+002,1.190175e-002
6.691886e+002,1.215492e-002
6.711171e+002,1.225075e-002
6.730457e+002,1.209349e-002
6.749741e+002,1.183498e-002
6.769026e+002,1.214610e-002
6.788311e+002,1.250818e-002
6.807596e+002,1.259836e-002
6.826881e+002,1.284903e-002
6.846166e+002,1.317887e-002
6.865451e+002,1.350675e-002
6.884736e+002,1.380159e-002
6.904021e+002,1.381404e-002
6.923306e+002,1.377026e-002
6.942591e+002,1.378688e-002
6.961876e+002,1.346939e-002
6.981161e+002,1.335993e-002
7.000446e+002,1.357611e-002
7.019731e+002,1.402411e-002
7.039016e+002,1.431529e-002
7.058301e+002,1.413603e-002
7.077585e+002,1.394168e-002
7.096871e+002,1.428382e-002
7.116156e+002,1.523199e-002
7.135441e+002,1.564450e-002
7.154725e+002,1.555926e-002
7.174011e+002,1.545140e-002
7.193296e+002,1.573159e-002
7.212581e+002,1.603836e-002
7.231865e+002,1.645993e-002
7.251151e+002,1.667714e-002
7.270436e+002,1.672555e-002
7.289720e+002,1.663927e-002
7.309005e+002,1.671030e-002
7.328290e+002,1.689077e-002
7.347576e+002,1.770261e-002
7.366860e+002,1.897778e-002
7.386145e+002,1.917821e-002
7.405430e+002,1.865191e-002
7.424716e+002,1.796270e-002
7.444000e+002,1.770026e-002
7.463285e+002,1.774195e-002
7.482570e+002,1.760139e-002
7.501855e+002,1.780957e-002
7.521140e+002,1.810500e-002
7.540425e+002,1.839583e-002
7.559710e+002,1.825340e-002
7.578995e+002,1.830945e-002
7.598280e+002,1.841242e-002
7.617565e+002,1.846106e-002
7.636850e+002,1.868020e-002
7.656135e+002,1.913624e-002
7.675420e+002,1.930113e-002
7.694705e+002,1.922029e-002
7.713990e+002,1.889883e-002
7.733275e+002,1.844132e-002
7.752560e+002,1.805343e-002
7.771844e+002,1.786650e-002
7.791130e+002,1.781075e-002
7.810415e+002,1.766271e-002
7.829700e+002,1.761944e-002
7.848984e+002,1.757586e-002
7.868270e+002,1.770164e-002
7.887555e+002,1.744094e-002
7.906840e+002,1.666664e-002
7.926124e+002,1.632354e-002
7.945410e+002,1.657930e-002
7.964695e+002,1.652043e-002
7.983979e+002,1.618065e-002
8.003264e+002,1.603172e-002
8.022549e+002,1.567336e-002
8.041835e+002,1.577649e-002
8.061119e+002,1.649782e-002
8.080404e+002,1.725197e-002
8.099689e+002,1.715851e-002
8.118975e+002,1.681643e-002
8.138259e+002,1.715348e-002
8.157545e+002,1.790321e-002
8.176830e+002,1.793711e-002
8.196115e+002,1.757634e-002
8.215399e+002,1.721577e-002
8.234684e+002,1.720408e-002
8.253970e+002,1.678372e-002
8.273254e+002,1.635674e-002
8.292539e+002,1.639555e-002
8.311824e+002,1.629718e-002
8.331110e+002,1.628807e-002
8.350394e+002,1.613312e-002
8.369679e+002,1.644145e-002
8.388964e+002,1.613388e-002
8.408250e+002,1.586209e-002
8.427534e+002,1.607419e-002
8.446819e+002,1.642562e-002
8.466104e+002,1.651964e-002
8.485389e+002,1.663809e-002
8.504674e+002,1.644713e-002
8.523959e+002,1.618997e-002
8.543244e+002,1.597115e-002
8.562529e+002,1.613783e-002
8.581814e+002,1.644073e-002
8.601099e+002,1.678495e-002
8.620384e+002,1.673881e-002
8.639669e+002,1.610410e-002
8.658954e+002,1.619853e-002
8.678239e+002,1.655682e-002
8.697524e+002,1.636148e-002
8.716809e+002,1.618216e-002
8.736094e+002,1.628432e-002
8.755378e+002,1.639913e-002
8.774664e+002,1.659038e-002
8.793949e+002,1.650047e-002
8.813234e+002,1.637910e-002
8.832518e+002,1.647353e-002
8.851804e+002,1.644916e-002
8.871089e+002,1.644489e-002
8.890374e+002,1.667607e-002
8.909658e+002,1.666185e-002
8.928943e+002,1.695285e-002
8.948229e+002,1.731462e-002
8.967513e+002,1.737555e-002
8.986798e+002,1.714386e-002
9.006083e+002,1.696880e-002
9.025369e+002,1.714634e-002
9.044653e+002,1.728720e-002
9.063938e+002,1.708382e-002
9.083223e+002,1.683672e-002
9.102509e+002,1.653376e-002
9.121793e+002,1.612098e-002
9.141078e+002,1.591499e-002
9.160364e+002,1.588773e-002
9.179648e+002,1.591904e-002
9.198933e+002,1.590797e-002
9.218218e+002,1.551602e-002
9.237504e+002,1.503122e-002
9.256788e+002,1.472591e-002
9.276073e+002,1.451115e-002
9.295358e+002,1.458930e-002
9.314644e+002,1.458320e-002
9.333928e+002,1.444236e-002
9.353213e+002,1.440561e-002
9.372498e+002,1.456090e-002
9.391783e+002,1.457840e-002
9.411068e+002,1.441434e-002
9.430353e+002,1.447833e-002
9.449637e+002,1.423171e-002
9.468923e+002,1.374027e-002
9.488208e+002,1.376157e-002
9.507493e+002,1.426123e-002
9.526777e+002,1.458783e-002
9.546063e+002,1.453119e-002
9.565348e+002,1.462494e-002
9.584633e+002,1.478600e-002
9.603917e+002,1.474089e-002
9.623203e+002,1.484901e-002
9.642488e+002,1.489108e-002
9.661772e+002,1.487175e-002
9.681057e+002,1.486208e-002
9.700343e+002,1.464584e-002
9.719628e+002,1.437142e-002
9.738912e+002,1.413613e-002
9.758197e+002,1.402958e-002
9.777483e+002,1.393726e-002
9.796768e+002,1.392895e-002
9.816052e+002,1.399290e-002
9.835337e+002,1.382594e-002
9.854623e+002,1.355614e-002
9.873907e+002,1.329905e-002
9.893192e+002,1.300899e-002
9.912477e+002,1.292108e-002
9.931763e+002,1.287012e-002
9.951047e+002,1.257206e-002
9.970332e+002,1.250324e-002
9.989617e+002,1.237953e-002
1.000890e+003,1.235454e-002
1.002819e+003,1.247214e-002
1.004747e+003,1.231367e-002
1.006676e+003,1.234554e-002
1.008604e+003,1.246184e-002
1.010533e+003,1.238141e-002
1.012461e+003,1.238165e-002
1.014390e+003,1.254576e-002
1.016318e+003,1.276269e-002
1.018247e+003,1.302671e-002
1.020175e+003,1.300216e-002
1.022104e+003,1.307635e-002
1.024032e+003,1.351612e-002
1.025961e+003,1.386532e-002
1.027889e+003,1.389734e-002
1.029818e+003,1.400854e-002
1.031746e+003,1.440047e-002
1.033675e+003,1.468992e-002
1.035603e+003,1.504147e-002
1.037532e+003,1.519184e-002
1.039460e+003,1.540845e-002
1.041389e+003,1.573729e-002
1.043317e+003,1.569201e-002
1.045246e+003,1.554202e-002
1.047174e+003,1.576467e-002
1.049103e+003,1.590447e-002
1.051031e+003,1.571898e-002
1.052960e+003,1.578020e-002
1.054888e+003,1.575437e-002
1.056817e+003,1.565024e-002
1.058745e+003,1.584615e-002
1.060674e+003,1.577299e-002
1.062602e+003,1.582350e-002
1.064531e+003,1.593255e-002
1.066459e+003,1.572887e-002
1.068388e+003,1.561823e-002
1.070316e+003,1.575066e-002
1.072245e+003,1.598274e-002
1.074173e+003,1.595950e-002
1.076102e+003,1.570733e-002
1.078030e+003,1.548996e-002
1.079959e+003,1.554353e-002
1.081887e+003,1.573702e-002
1.083816e+003,1.598040e-002
1.085744e+003,1.618485e-002
1.087673e+003,1.636596e-002
1.089601e+003,1.650708e-002
1.091530e+003,1.649228e-002
1.093458e+003,1.685725e-002
1.095387e+003,1.697238e-002
1.097315e+003,1.720925e-002
1.099244e+003,1.736824e-002
1.101172e+003,1.747450e-002
1.103101e+003,1.769639e-002
1.105029e+003,1.762486e-002
1.106958e+003,1.763766e-002
1.108886e+003,1.775821e-002
1.110815e+003,1.780364e-002
1.112743e+003,1.793680e-002
1.114672e+003,1.799513e-002
1.116600e+003,1.804196e-002
1.118529e+003,1.808082e-002
1.120457e+003,1.811840e-002
1.122386e+003,1.831899e-002
1.124314e+003,1.828930e-002
1.126243e+003,1.804973e-002
1.128171e+003,1.798249e-002
1.130100e+003,1.795628e-002
1.132028e+003,1.772276e-002
1.133957e+003,1.745826e-002
1.135885e+003,1.723104e-002
1.137814e+003,1.704392e-002
1.139742e+003,1.673919e-002
1.141671e+003,1.630847e-002
1.143599e+003,1.597242e-002
1.145528e+003,1.569888e-002
1.147456e+003,1.536159e-002
1.149385e+003,1.512789e-002
1.151313e+003,1.489468e-002
1.153242e+003,1.470277e-002
1.155170e+003,1.447651e-002
1.157099e+003,1.425746e-002
1.159027e+003,1.407404e-002
1.160956e+003,1.405618e-002
1.162884e+003,1.391650e-002
1.164813e+003,1.380665e-002
1.166741e+003,1.380443e-002
1.168670e+003,1.384260e-002
1.170598e+003,1.385553e-002
1.172526e+003,1.380227e-002
1.174455e+003,1.385755e-002
1.176384e+003,1.390842e-002
1.178312e+003,1.388078e-002
1.180240e+003,1.385102e-002
1.182169e+003,1.374228e-002
1.184098e+003,1.365153e-002
1.186026e+003,1.352709e-002
1.187954e+003,1.327694e-002
1.189883e+003,1.290422e-002
1.191812e+003,1.278078e-002
1.193740e+003,1.287330e-002
1.195668e+003,1.282490e-002
1.197597e+003,1.263056e-002
1.199526e+003,1.253754e-002
1.201454e+003,1.244796e-002
1.203382e+003,1.246521e-002
1.205311e+003,1.241028e-002
1.207240e+003,1.231183e-002
1.209168e+003,1.248049e-002
1.211096e+003,1.252274e-002
1.213025e+003,1.248213e-002
1.214953e+003,1.248895e-002
1.216882e+003,1.229601e-002
1.218810e+003,1.224782e-002
1.220739e+003,1.227123e-002
1.222667e+003,1.240998e-002
1.224596e+003,1.269861e-002
1.226524e+003,1.282183e-002
1.228453e+003,1.286330e-002
1.230381e+003,1.299202e-002
1.232310e+003,1.312409e-002
1.234238e+003,1.320606e-002
1.236167e+003,1.330110e-002
1.238095e+003,1.335228e-002
1.240024e+003,1.342889e-002
1.241952e+003,1.360561e-002
1.243881e+003,1.361710e-002
1.245809e+003,1.369171e-002
1.247738e+003,1.377703e-002
1.249666e+003,1.374622e-002
1.251595e+003,1.374167e-002
1.253523e+003,1.378179e-002
1.255452e+003,1.385567e-002
1.257380e+003,1.399694e-002
1.259309e+003,1.414989e-002
1.261237e+003,1.422076e-002
1.263166e+003,1.450964e-002
1.265094e+003,1.477616e-002
1.267023e+003,1.495319e-002
1.268951e+003,1.520886e-002
1.270880e+003,1.546400e-002
1.272808e+003,1.569599e-002
1.274737e+003,1.585319e-002
1.276665e+003,1.600494e-002
1.278594e+003,1.627837e-002
1.280522e+003,1.651300e-002
1.282451e+003,1.668334e-002
1.284379e+003,1.687671e-002
1.286308e+003,1.728645e-002
1.288236e+003,1.755160e-002
1.290165e+003,1.768607e-002
1.292093e+003,1.788580e-002
1.294022e+003,1.791546e-002
1.295950e+003,1.803640e-002
1.297879e+003,1.814345e-002
1.299807e+003,1.824040e-002
1.301736e+003,1.810289e-002
1.303664e+003,1.796270e-002
1.305593e+003,1.795279e-002
1.307521e+003,1.776214e-002
1.309450e+003,1.748468e-002
1.311378e+003,1.724928e-002
1.313307e+003,1.715155e-002
1.315235e+003,1.711246e-002
1.317164e+003,1.691123e-002
1.319092e+003,1.651596e-002
1.321021e+003,1.605301e-002
1.322949e+003,1.576856e-002
1.324878e+003,1.558055e-002
1.326806e+003,1.547612e-002
1.328735e+003,1.554222e-002
1.330663e+003,1.544333e-002
1.332592e+003,1.534384e-002
1.334520e+003,1.524455e-002
1.336449e+003,1.513828e-002
1.338377e+003,1.507468e-002
1.340306e+003,1.501156e-002
1.342234e+003,1.509921e-002
1.344163e+003,1.509646e-002
1.346091e+003,1.497932e-002
1.348020e+003,1.507955e-002
1.349948e+003,1.515458e-002
1.351877e+003,1.505090e-002
1.353805e+003,1.499915e-002
1.355734e+003,1.489194e-002
1.357662e+003,1.477794e-002
1.359591e+003,1.478737e-002
1.361519e+003,1.460993e-002
1.363448e+003,1.450920e-002
1.365376e+003,1.444397e-002
1.367305e+003,1.444318e-002
1.369233e+003,1.445753e-002
1.371162e+003,1.427852e-002
1.373090e+003,1.417033e-002
1.375019e+003,1.424619e-002
1.376947e+003,1.441674e-002
1.378876e+003,1.453366e-002
1.380804e+003,1.452314e-002
1.382733e+003,1.441475e-002
1.384661e+003,1.430218e-002
1.386590e+003,1.421377e-002
1.388518e+003,1.414373e-002
1.390447e+003,1.408821e-002
1.392375e+003,1.388885e-002
1.394304e+003,1.378261e-002
1.396232e+003,1.366975e-002
1.398161e+003,1.360329e-002
1.400089e+003,1.362797e-002
1.402018e+003,1.357922e-002
1.403946e+003,1.349024e-002
1.405875e+003,1.347848e-002
1.407803e+003,1.345644e-002
1.409732e+003,1.328781e-002
1.411660e+003,1.316009e-002
1.413589e+003,1.307932e-002
1.415517e+003,1.317717e-002
1.417446e+003,1.354592e-002
1.419374e+003,1.385249e-002
1.421303e+003,1.413233e-002
1.423231e+003,1.454041e-002
1.425160e+003,1.500981e-002
1.427088e+003,1.544227e-002
1.429017e+003,1.584539e-002
1.430945e+003,1.621838e-002
1.432874e+003,1.654787e-002
1.434802e+003,1.688891e-002
1.436731e+003,1.735631e-002
1.438659e+003,1.777291e-002
1.440588e+003,1.804566e-002
1.442516e+003,1.841874e-002
1.444445e+003,1.878669e-002
1.446373e+003,1.929015e-002
1.448302e+003,1.968223e-002
1.450230e+003,1.996749e-002
1.452159e+003,2.038265e-002
1.454087e+003,2.084472e-002
1.456016e+003,2.107508e-002
1.457944e+003,2.118149e-002
1.459873e+003,2.135718e-002
1.461801e+003,2.142290e-002
1.463730e+003,2.131646e-002
1.465658e+003,2.119040e-002
1.467587e+003,2.085049e-002
1.469515e+003,2.050108e-002
1.471444e+003,2.024397e-002
1.473372e+003,1.992117e-002
1.475301e+003,1.959830e-002
1.477229e+003,1.910847e-002
1.479158e+003,1.863555e-002
1.481086e+003,1.809163e-002
1.483015e+003,1.747071e-002
1.484943e+003,1.707273e-002
1.486872e+003,1.680476e-002
1.488800e+003,1.638867e-002
1.490729e+003,1.587611e-002
1.492657e+003,1.544673e-002
1.494586e+003,1.527592e-002
1.496514e+003,1.508394e-002
1.498443e+003,1.472933e-002
1.500371e+003,1.445233e-002
1.502300e+003,1.432773e-002
1.504228e+003,1.415869e-002
1.506157e+003,1.396282e-002
1.508085e+003,1.383412e-002
1.510014e+003,1.362175e-002
1.511942e+003,1.343617e-002
1.513871e+003,1.348248e-002
1.515799e+003,1.353444e-002
1.517728e+003,1.360510e-002
1.519656e+003,1.351827e-002
1.521585e+003,1.342045e-002
1.523513e+003,1.355700e-002
1.525442e+003,1.374047e-002
1.527370e+003,1.374779e-002
1.529299e+003,1.367697e-002
1.531227e+003,1.373695e-002
1.533156e+003,1.396652e-002
1.535084e+003,1.405563e-002
1.537013e+003,1.413017e-002
1.538941e+003,1.428886e-002
1.540870e+003,1.440211e-002
1.542798e+003,1.449844e-002
1.544727e+003,1.464050e-002
1.546655e+003,1.473167e-002
1.548584e+003,1.483478e-002
1.550512e+003,1.494811e-002
1.552441e+003,1.496457e-002
1.554369e+003,1.497510e-002
1.556298e+003,1.512624e-002
1.558226e+003,1.535596e-002
1.560155e+003,1.555359e-002
1.562083e+003,1.580975e-002
1.564012e+003,1.613402e-002
1.565940e+003,1.645770e-002
1.567869e+003,1.664560e-002
1.569797e+003,1.676305e-002
1.571726e+003,1.685343e-002
1.573654e+003,1.684313e-002
1.575583e+003,1.693944e-002
1.577511e+003,1.706663e-002
1.579440e+003,1.696625e-002
1.581368e+003,1.694227e-002
1.583297e+003,1.687337e-002
1.585225e+003,1.681781e-002
1.587154e+003,1.683617e-002
1.589082e+003,1.668203e-002
1.591010e+003,1.637563e-002
1.592939e+003,1.617222e-002
1.594868e+003,1.598047e-002
1.596796e+003,1.573104e-002
1.598724e+003,1.551451e-002
1.600653e+003,1.514617e-002
1.602582e+003,1.482316e-002
1.604510e+003,1.453352e-002
1.606438e+003,1.431345e-002
1.608367e+003,1.414277e-002
1.610296e+003,1.398048e-002
1.612224e+003,1.379205e-002
1.614152e+003,1.364048e-002
1.616081e+003,1.338566e-002
1.618010e+003,1.326499e-002
1.619938e+003,1.316716e-002
1.621866e+003,1.290122e-002
1.623795e+003,1.271902e-002
1.625724e+003,1.273007e-002
1.627652e+003,1.268292e-002
1.629580e+003,1.256108e-002
1.631509e+003,1.242225e-002
1.633438e+003,1.233327e-002
1.635366e+003,1.227379e-002
1.637294e+003,1.199429e-002
1.639223e+003,1.168475e-002
1.641151e+003,1.144553e-002
1.643080e+003,1.112930e-002
1.645008e+003,1.077777e-002
1.646937e+003,1.053804e-002
1.648865e+003,1.040145e-002
1.650794e+003,1.026050e-002
1.652722e+003,1.015266e-002
1.654651e+003,9.947100e-003
1.656579e+003,9.764951e-003
1.658508e+003,9.555543e-003
1.660436e+003,9.476800e-003
1.662365e+003,9.482014e-003
1.664293e+003,9.504908e-003
1.666222e+003,9.459731e-003
1.668150e+003,9.320472e-003
1.670079e+003,9.170226e-003
1.672007e+003,9.206166e-003
1.673936e+003,9.188061e-003
1.675864e+003,9.076597e-003
1.677793e+003,8.948454e-003
1.679721e+003,8.898736e-003
1.681650e+003,8.854873e-003
1.683578e+003,8.911723e-003
1.685507e+003,8.829207e-003
1.687435e+003,8.616972e-003
1.689364e+003,8.633059e-003
1.691292e+003,8.657835e-003
1.693221e+003,8.622920e-003
1.695149e+003,8.710332e-003
1.697078e+003,8.811625e-003
1.699006e+003,8.833976e-003
1.700935e+003,8.903538e-003
1.702863e+003,8.996655e-003
1.704792e+003,9.051663e-003
1.706720e+003,9.098116e-003
1.708649e+003,9.053760e-003
1.710577e+003,9.093583e-003
1.712506e+003,9.223664e-003
1.714434e+003,9.251791e-003
1.716363e+003,9.238455e-003
1.718291e+003,9.223123e-003
1.720220e+003,9.229384e-003
1.722148e+003,9.236661e-003
1.724077e+003,9.301008e-003
1.726005e+003,9.245867e-003
1.727934e+003,9.226982e-003
1.729862e+003,9.354089e-003
1.731791e+003,9.406264e-003
1.733719e+003,9.430373e-003
1.735648e+003,9.323959e-003
1.737576e+003,9.215508e-003
1.739505e+003,9.248304e-003
1.741433e+003,9.353988e-003
1.743362e+003,9.326193e-003
1.745290e+003,9.458919e-003
1.747219e+003,9.510733e-003
1.749147e+003,9.418724e-003
1.751076e+003,9.429154e-003
1.753004e+003,9.468231e-003
1.754933e+003,9.526211e-003
1.756861e+003,9.626102e-003
1.758790e+003,9.644904e-003
1.760718e+003,9.546973e-003
1.762647e+003,9.520555e-003
1.764575e+003,9.593615e-003
1.766504e+003,9.682578e-003
1.768432e+003,9.687220e-003
1.770361e+003,9.613161e-003
1.772289e+003,9.573326e-003
1.774218e+003,9.567533e-003
1.776146e+003,9.618174e-003
1.778075e+003,9.649714e-003
1.780003e+003,9.610925e-003
1.781932e+003,9.601068e-003
1.783860e+003,9.565941e-003
1.785789e+003,9.582641e-003
1.787717e+003,9.715240e-003
1.789646e+003,9.740653e-003
1.791574e+003,9.671567e-003
1.793503e+003,9.683290e-003
1.795431e+003,9.659946e-003
1.797360e+003,9.622511e-003
1.799288e+003,9.679765e-003
1.801217e+003,9.668415e-003
1.803145e+003,9.725338e-003
1.805074e+003,9.810260e-003
1.807002e+003,9.813548e-003
1.808931e+003,9.731607e-003
1.810859e+003,9.846118e-003
1.812788e+003,9.999210e-003
1.814716e+003,9.951440e-003
1.816645e+003,9.880590e-003
1.818573e+003,9.836798e-003
1.820502e+003,9.778370e-003
1.822430e+003,9.762308e-003
1.824359e+003,9.794163e-003
1.826287e+003,9.772643e-003
1.828216e+003,9.744585e-003
1.830144e+003,9.773728e-003
1.832073e+003,9.878455e-003
1.834001e+003,9.893335e-003
1.835930e+003,9.744076e-003
1.837858e+003,9.685526e-003
1.839787e+003,9.649410e-003
1.841715e+003,9.721305e-003
1.843644e+003,9.731573e-003
1.845572e+003,9.601982e-003
1.847501e+003,9.638399e-003
1.849429e+003,9.700535e-003
1.851358e+003,9.737435e-003
1.853286e+003,9.797687e-003
1.855215e+003,9.884217e-003
1.857143e+003,9.857100e-003
1.859072e+003,9.705279e-003
1.861000e+003,9.702568e-003
1.862929e+003,9.857405e-003
1.864857e+003,9.939065e-003
1.866786e+003,9.854253e-003
1.868714e+003,9.733673e-003
1.870643e+003,9.812701e-003
1.872571e+003,9.960966e-003
1.874500e+003,9.945439e-003
1.876428e+003,9.892454e-003
1.878357e+003,9.915098e-003
1.880285e+003,9.874150e-003
1.882214e+003,9.894148e-003
1.884142e+003,9.919403e-003
1.886071e+003,9.922861e-003
1.887999e+003,9.876150e-003
1.889928e+003,9.860897e-003
1.891856e+003,9.851643e-003
1.893785e+003,9.908691e-003
1.895713e+003,9.976189e-003
1.897642e+003,1.001867e-002
1.899570e+003,9.970594e-003
1.901499e+003,9.995990e-003
1.903427e+003,1.007228e-002
1.905356e+003,1.002518e-002
1.907284e+003,1.001162e-002
1.909213e+003,1.006404e-002
1.911141e+003,1.005353e-002
1.913070e+003,1.002718e-002
1.914998e+003,9.946117e-003
1.916927e+003,9.870218e-003
1.918855e+003,9.863405e-003
1.920784e+003,9.927506e-003
1.922712e+003,9.865472e-003
1.924641e+003,9.849881e-003
1.926569e+003,9.864930e-003
1.928498e+003,9.793857e-003
1.930426e+003,9.877946e-003
1.932355e+003,9.938083e-003
1.934283e+003,9.929607e-003
1.936212e+003,9.977749e-003
1.938140e+003,9.905098e-003
1.940069e+003,9.860930e-003
1.941997e+003,9.905369e-003
1.943926e+003,9.929370e-003
1.945854e+003,9.882013e-003
1.947783e+003,9.898758e-003
1.949711e+003,9.903776e-003
1.951640e+003,9.866252e-003
1.953568e+003,9.884421e-003
1.955497e+003,9.869439e-003
1.957425e+003,9.877302e-003
1.959354e+003,9.847406e-003
1.961282e+003,9.890759e-003
1.963211e+003,9.948558e-003
1.965139e+003,9.980833e-003
1.967068e+003,9.932523e-003
1.968996e+003,9.926725e-003
1.970925e+003,9.929098e-003
1.972853e+003,9.915064e-003
1.974782e+003,9.955609e-003
1.976710e+003,9.851779e-003
1.978639e+003,9.764205e-003
1.980567e+003,9.817242e-003
1.982496e+003,9.846424e-003
1.984424e+003,9.814328e-003
1.986353e+003,9.813751e-003
1.988281e+003,9.853846e-003
1.990210e+003,9.859778e-003
1.992138e+003,9.861236e-003
1.994067e+003,9.860693e-003
1.995995e+003,9.963678e-003
1.997924e+003,9.977071e-003
1.999852e+003,9.921946e-003
2.001781e+003,9.867913e-003
2.003709e+003,9.867947e-003
2.005638e+003,9.914624e-003
2.007566e+003,9.866998e-003
2.009495e+003,9.768373e-003
2.011423e+003,9.774439e-003
2.013352e+003,9.895979e-003
2.015280e+003,9.906759e-003
2.017208e+003,9.839984e-003
2.019137e+003,9.826800e-003
2.021066e+003,9.878014e-003
2.022994e+003,9.956864e-003
2.024922e+003,9.975341e-003
2.026851e+003,9.946694e-003
2.028780e+003,9.839882e-003
2.030708e+003,9.882759e-003
2.032636e+003,9.986529e-003
2.034565e+003,9.965408e-003
2.036494e+003,9.898487e-003
2.038422e+003,9.984665e-003
2.040350e+003,1.005733e-002
2.042279e+003,1.004746e-002
2.044208e+003,1.002603e-002
2.046136e+003,1.000402e-002
2.048064e+003,9.959102e-003
2.049993e+003,1.000823e-002
2.051921e+003,1.003970e-002
2.053850e+003,1.001098e-002
2.055778e+003,9.931065e-003
2.057707e+003,9.899945e-003
2.059635e+003,1.002925e-002
2.061564e+003,1.012590e-002
2.063492e+003,1.005150e-002
2.065421e+003,9.957000e-003
2.067349e+003,1.000619e-002
2.069278e+003,1.005272e-002
2.071206e+003,1.001410e-002
2.073135e+003,1.004204e-002
2.075063e+003,9.974290e-003
2.076992e+003,9.926489e-003
2.078920e+003,1.001087e-002
2.080849e+003,1.015147e-002
2.082777e+003,1.015673e-002
2.084706e+003,1.008910e-002
2.086634e+003,1.002067e-002
2.088563e+003,1.004465e-002
2.090491e+003,1.013482e-002
2.092420e+003,1.022115e-002
2.094348e+003,1.017939e-002
2.096277e+003,1.012217e-002
2.098205e+003,1.016901e-002
2.100134e+003,1.022491e-002
2.102062e+003,1.031081e-002
2.103991e+003,1.035818e-002
2.105919e+003,1.033290e-002
2.107848e+003,1.032316e-002
2.109776e+003,1.033260e-002
2.111705e+003,1.028347e-002
2.113633e+003,1.030484e-002
2.115562e+003,1.027665e-002
2.117490e+003,1.026718e-002
2.119419e+003,1.031831e-002
2.121347e+003,1.035839e-002
2.123276e+003,1.031858e-002
2.125204e+003,1.028238e-002
2.127133e+003,1.029863e-002
2.129061e+003,1.039086e-002
2.130990e+003,1.045793e-002
2.132918e+003,1.041744e-002
2.134847e+003,1.037624e-002
2.136775e+003,1.043821e-002
2.138704e+003,1.049425e-002
2.140632e+003,1.053916e-002
2.142561e+003,1.047877e-002
2.144489e+003,1.040885e-002
2.146418e+003,1.048861e-002
2.148346e+003,1.060342e-002
2.150275e+003,1.064016e-002
2.152203e+003,1.062648e-002
2.154132e+003,1.054079e-002
2.156060e+003,1.045579e-002
2.157989e+003,1.045816e-002
2.159917e+003,1.050426e-002
2.161846e+003,1.053675e-002
2.163774e+003,1.055094e-002
2.165703e+003,1.057803e-002
2.167631e+003,1.063755e-002
2.169560e+003,1.072408e-002
2.171488e+003,1.077305e-002
2.173417e+003,1.074619e-002
2.175345e+003,1.072411e-002
2.177274e+003,1.070536e-002
2.179202e+003,1.066594e-002
2.181131e+003,1.061286e-002
2.183059e+003,1.062716e-002
2.184988e+003,1.064896e-002
2.186916e+003,1.059466e-002
2.188845e+003,1.061110e-002
2.190773e+003,1.065959e-002
2.192702e+003,1.073162e-002
2.194630e+003,1.065904e-002
2.196559e+003,1.055538e-002
2.198487e+003,1.047917e-002
2.200416e+003,1.046628e-002
2.202344e+003,1.051247e-002
2.204273e+003,1.054713e-002
2.206201e+003,1.065351e-002
2.208130e+003,1.068037e-002
2.210058e+003,1.052761e-002
2.211987e+003,1.041309e-002
2.213915e+003,1.048929e-002
2.215844e+003,1.049116e-002
2.217772e+003,1.045626e-002
2.219701e+003,1.049913e-002
2.221629e+003,1.043773e-002
2.223558e+003,1.042799e-002
2.225486e+003,1.051648e-002
2.227415e+003,1.049968e-002
2.229343e+003,1.043519e-002
2.231272e+003,1.051566e-002
2.233200e+003,1.048831e-002
2.235129e+003,1.047676e-002
2.237057e+003,1.048033e-002
2.238986e+003,1.045837e-002
2.240914e+003,1.041859e-002
2.242843e+003,1.039527e-002
2.244771e+003,1.037922e-002
2.246700e+003,1.038194e-002
2.248628e+003,1.044486e-002
2.250557e+003,1.046387e-002
2.252485e+003,1.044350e-002
2.254414e+003,1.044045e-002
2.256342e+003,1.046414e-002
2.258271e+003,1.043271e-002
2.260199e+003,1.034943e-002
2.262128e+003,1.031407e-002
2.264056e+003,1.040695e-002
2.265985e+003,1.046013e-002
2.267913e+003,1.037390e-002
2.269842e+003,1.036158e-002
2.271770e+003,1.049750e-002
2.273699e+003,1.046037e-002
2.275627e+003,1.037410e-002
2.277556e+003,1.036840e-002
2.279484e+003,1.037050e-002
2.281413e+003,1.030433e-002
2.283341e+003,1.022491e-002
2.285270e+003,1.019849e-002
2.287198e+003,1.029134e-002
2.289127e+003,1.035224e-002
2.291055e+003,1.043206e-002
2.292984e+003,1.044995e-002
2.294912e+003,1.034678e-002
2.296841e+003,1.035927e-002
2.298769e+003,1.036626e-002
2.300698e+003,1.038883e-002
2.302626e+003,1.032249e-002
2.304555e+003,1.028598e-002
2.306483e+003,1.032327e-002
2.308412e+003,1.041818e-002
2.310340e+003,1.039331e-002
2.312269e+003,1.039005e-002
2.314197e+003,1.045446e-002
2.316125e+003,1.049292e-002
2.318054e+003,1.046634e-002
2.319983e+003,1.041319e-002
2.321911e+003,1.034963e-002
2.323840e+003,1.028778e-002
2.325768e+003,1.033158e-002
2.327697e+003,1.035347e-002
2.329625e+003,1.031200e-002
2.331553e+003,1.022590e-002
2.333482e+003,1.021670e-002
2.335411e+003,1.031584e-002
2.337339e+003,1.025449e-002
2.339268e+003,1.025555e-002
2.341196e+003,1.036718e-002
2.343125e+003,1.029656e-002
2.345053e+003,1.025344e-002
2.346981e+003,1.037203e-002
2.348910e+003,1.044897e-002
2.350839e+003,1.046224e-002
2.352767e+003,1.046101e-002
2.354696e+003,1.038655e-002
2.356624e+003,1.035180e-002
2.358552e+003,1.033287e-002
2.360481e+003,1.026959e-002
2.362409e+003,1.030691e-002
2.364338e+003,1.036002e-002
2.366267e+003,1.042399e-002
2.368195e+003,1.040668e-002
2.370124e+003,1.043362e-002
2.372052e+003,1.044900e-002
2.373980e+003,1.043682e-002
2.375909e+003,1.041781e-002
2.377838e+003,1.049251e-002
2.379766e+003,1.063847e-002
2.381695e+003,1.078837e-002
2.383623e+003,1.081378e-002
2.385552e+003,1.084986e-002
2.387480e+003,1.085135e-002
2.389408e+003,1.080318e-002
2.391337e+003,1.071959e-002
2.393266e+003,1.067606e-002
2.395194e+003,1.075532e-002
2.397123e+003,1.082828e-002
2.399051e+003,1.077394e-002
2.400979e+003,1.067636e-002
2.402908e+003,1.074948e-002
2.404836e+003,1.085896e-002
2.406765e+003,1.083389e-002
2.408694e+003,1.077224e-002
2.410622e+003,1.079326e-002
2.412551e+003,1.080091e-002
2.414479e+003,1.078576e-002
2.416407e+003,1.073963e-002
2.418336e+003,1.068781e-002
2.420264e+003,1.068346e-002
2.422193e+003,1.082713e-002
2.424122e+003,1.099287e-002
2.426050e+003,1.098400e-002
2.427979e+003,1.091614e-002
2.429907e+003,1.096436e-002
2.431835e+003,1.105863e-002
2.433764e+003,1.109820e-002
2.435692e+003,1.111835e-002
2.437621e+003,1.109626e-002
2.439550e+003,1.108171e-002
2.441478e+003,1.110500e-002
2.443406e+003,1.113620e-002
2.445335e+003,1.106812e-002
2.447263e+003,1.105683e-002
2.449192e+003,1.108912e-002
2.451121e+003,1.116557e-002
2.453049e+003,1.120137e-002
2.454978e+003,1.122048e-002
2.456906e+003,1.128023e-002
2.458834e+003,1.119114e-002
2.460763e+003,1.117095e-002
2.462691e+003,1.125401e-002
2.464620e+003,1.129376e-002
2.466549e+003,1.137600e-002
2.468477e+003,1.132587e-002
2.470406e+003,1.128023e-002
2.472334e+003,1.126540e-002
2.474262e+003,1.133195e-002
2.476191e+003,1.139205e-002
2.478119e+003,1.141733e-002
2.480048e+003,1.141552e-002
2.481977e+003,1.140307e-002
2.483905e+003,1.137811e-002
2.485833e+003,1.141692e-002
2.487762e+003,1.147642e-002
2.489690e+003,1.155651e-002
2.491619e+003,1.156151e-002
2.493547e+003,1.165956e-002
2.495476e+003,1.167532e-002
2.497405e+003,1.151922e-002
2.499333e+003,1.148693e-002
2.501261e+003,1.167712e-002
2.503190e+003,1.164662e-002
2.505118e+003,1.147448e-002
2.507047e+003,1.149030e-002
2.508975e+003,1.161082e-002
2.510904e+003,1.170878e-002
2.512833e+003,1.176750e-002
2.514761e+003,1.171232e-002
2.516689e+003,1.173128e-002
2.518618e+003,1.174105e-002
2.520546e+003,1.172896e-002
2.522475e+003,1.168430e-002
2.524403e+003,1.168298e-002
2.526332e+003,1.179845e-002
2.528260e+003,1.193748e-002
2.530189e+003,1.194143e-002
2.532117e+003,1.184948e-002
2.534046e+003,1.181727e-002
2.535974e+003,1.192399e-002
2.537903e+003,1.199259e-002
2.539831e+003,1.195018e-002
2.541760e+003,1.193009e-002
2.543688e+003,1.184564e-002
2.545617e+003,1.174769e-002
2.547545e+003,1.183852e-002
2.549474e+003,1.198264e-002
2.551402e+003,1.195975e-002
2.553331e+003,1.192869e-002
2.555259e+003,1.194974e-002
2.557188e+003,1.189655e-002
2.559116e+003,1.184046e-002
2.561045e+003,1.186743e-002
2.562973e+003,1.189556e-002
2.564902e+003,1.187938e-002
2.566830e+003,1.199221e-002
2.568759e+003,1.206010e-002
2.570687e+003,1.201827e-002
2.572616e+003,1.198288e-002
2.574544e+003,1.201701e-002
2.576473e+003,1.205346e-002
2.578401e+003,1.203009e-002
2.580330e+003,1.199542e-002
2.582258e+003,1.201926e-002
2.584187e+003,1.211356e-002
2.586115e+003,1.216474e-002
2.588044e+003,1.212654e-002
2.589972e+003,1.211148e-002
2.591901e+003,1.210654e-002
2.593829e+003,1.212381e-002
2.595758e+003,1.218051e-002
2.597686e+003,1.218590e-002
2.599615e+003,1.225787e-002
2.601543e+003,1.226568e-002
2.603472e+003,1.214082e-002
2.605400e+003,1.211884e-002
2.607329e+003,1.226752e-002
2.609257e+003,1.233539e-002
2.611186e+003,1.232202e-002
2.613114e+003,1.229922e-002
2.615043e+003,1.230563e-002
2.616971e+003,1.236027e-002
2.618900e+003,1.235182e-002
2.620828e+003,1.235199e-002
2.622757e+003,1.242515e-002
2.624685e+003,1.254566e-002
2.626614e+003,1.254082e-002
2.628542e+003,1.239443e-002
2.630471e+003,1.234943e-002
2.632399e+003,1.240231e-002
2.634328e+003,1.235833e-002
2.636256e+003,1.232414e-002
2.638185e+003,1.239218e-002
2.640113e+003,1.251937e-002
2.642042e+003,1.262315e-002
2.643970e+003,1.263127e-002
2.645899e+003,1.267139e-002
2.647827e+003,1.277678e-002
2.649756e+003,1.281562e-002
2.651684e+003,1.268176e-002
2.653613e+003,1.270711e-002
2.655541e+003,1.280756e-002
2.657470e+003,1.282057e-002
2.659398e+003,1.284719e-002
2.661327e+003,1.288838e-002
2.663255e+003,1.293419e-002
2.665184e+003,1.295071e-002
2.667112e+003,1.297649e-002
2.669041e+003,1.306420e-002
2.670969e+003,1.301018e-002
2.672898e+003,1.299072e-002
2.674826e+003,1.306246e-002
2.676755e+003,1.316347e-002
2.678683e+003,1.323681e-002
2.680612e+003,1.328552e-002
2.682540e+003,1.327250e-002
2.684469e+003,1.324302e-002
2.686397e+003,1.333502e-002
2.688326e+003,1.338717e-002
2.690254e+003,1.335163e-002
2.692183e+003,1.339762e-002
2.694111e+003,1.345206e-002
2.696040e+003,1.349226e-002
2.697968e+003,1.355881e-002
2.699897e+003,1.356257e-002
2.701825e+003,1.357423e-002
2.703754e+003,1.358253e-002
2.705682e+003,1.366415e-002
2.707611e+003,1.386959e-002
2.709539e+003,1.402106e-002
2.711468e+003,1.405710e-002
2.713396e+003,1.398753e-002
2.715325e+003,1.399420e-002
2.717253e+003,1.410508e-002
2.719182e+003,1.412860e-002
2.721110e+003,1.416961e-002
2.723039e+003,1.427906e-002
2.724967e+003,1.437190e-002
2.726896e+003,1.442677e-002
2.728824e+003,1.447370e-002
2.730753e+003,1.457436e-002
2.732681e+003,1.466654e-002
2.734610e+003,1.472241e-002
2.736538e+003,1.481932e-002
2.738467e+003,1.486396e-002
2.740395e+003,1.492880e-002
2.742324e+003,1.499685e-002
2.744252e+003,1.504957e-002
2.746181e+003,1.508058e-002
2.748109e+003,1.518759e-002
2.750038e+003,1.531501e-002
2.751966e+003,1.535850e-002
2.753895e+003,1.547131e-002
2.755823e+003,1.555716e-002
2.757752e+003,1.558453e-002
2.759680e+003,1.564248e-002
2.761609e+003,1.583828e-002
2.763537e+003,1.618966e-002
2.765466e+003,1.638285e-002
2.767394e+003,1.657110e-002
2.769323e+003,1.696260e-002
2.771251e+003,1.739483e-002
2.773180e+003,1.781744e-002
2.775108e+003,1.821822e-002
2.777037e+003,1.858848e-002
2.778965e+003,1.906415e-002
2.780894e+003,1.969651e-002
2.782822e+003,2.024658e-002
2.784750e+003,2.069773e-002
2.786679e+003,2.138705e-002
2.788608e+003,2.211748e-002
2.790536e+003,2.275745e-002
2.792465e+003,2.349307e-002
2.794393e+003,2.421753e-002
2.796322e+003,2.478935e-002
2.798250e+003,2.546760e-002
2.800178e+003,2.619741e-002
2.802107e+003,2.686291e-002
2.804036e+003,2.739605e-002
2.805964e+003,2.780902e-002
2.807893e+003,2.807435e-002
2.809821e+003,2.814056e-002
2.811750e+003,2.818136e-002
2.813678e+003,2.825095e-002
2.815606e+003,2.811486e-002
2.817535e+003,2.793546e-002
2.819464e+003,2.778157e-002
2.821392e+003,2.754511e-002
2.823321e+003,2.720545e-002
2.825249e+003,2.671070e-002
2.827177e+003,2.620568e-002
2.829106e+003,2.573133e-002
2.831034e+003,2.515406e-002
2.832963e+003,2.459982e-002
2.834892e+003,2.412603e-002
2.836820e+003,2.355817e-002
2.838749e+003,2.300917e-002
2.840677e+003,2.241499e-002
2.842605e+003,2.166294e-002
2.844534e+003,2.103436e-002
2.846462e+003,2.037824e-002
2.848391e+003,1.976049e-002
2.850320e+003,1.939882e-002
2.852248e+003,1.914022e-002
2.854177e+003,1.888952e-002
2.856105e+003,1.866945e-002
2.858033e+003,1.861331e-002
2.859962e+003,1.863911e-002
2.861890e+003,1.855272e-002
2.863819e+003,1.854352e-002
2.865748e+003,1.858018e-002
2.867676e+003,1.862199e-002
2.869604e+003,1.869684e-002
2.871533e+003,1.877292e-002
2.873461e+003,1.892008e-002
2.875390e+003,1.908423e-002
2.877319e+003,1.919933e-002
2.879247e+003,1.938985e-002
2.881176e+003,1.952957e-002
2.883104e+003,1.948600e-002
2.885032e+003,1.933244e-002
2.886961e+003,1.935510e-002
2.888889e+003,1.931253e-002
2.890818e+003,1.918098e-002
2.892747e+003,1.909258e-002
2.894675e+003,1.908150e-002
2.896604e+003,1.902420e-002
2.898532e+003,1.892275e-002
2.900460e+003,1.875998e-002
2.902389e+003,1.873555e-002
2.904317e+003,1.869996e-002
2.906246e+003,1.866294e-002
2.908175e+003,1.870999e-002
2.910103e+003,1.861964e-002
2.912031e+003,1.841128e-002
2.913960e+003,1.833133e-002
2.915888e+003,1.818128e-002
2.917817e+003,1.817213e-002
2.919745e+003,1.834194e-002
2.921674e+003,1.854048e-002
2.923603e+003,1.856808e-002
2.925531e+003,1.876319e-002
2.927459e+003,1.920415e-002
2.929388e+003,1.951065e-002
2.931316e+003,1.975813e-002
2.933245e+003,1.988191e-002
2.935173e+003,2.002949e-002
2.937102e+003,2.018191e-002
2.939031e+003,2.015785e-002
2.940959e+003,2.014348e-002
2.942887e+003,2.009923e-002
2.944816e+003,2.001675e-002
2.946744e+003,1.986345e-002
2.948673e+003,1.954471e-002
2.950601e+003,1.922264e-002
2.952530e+003,1.887212e-002
2.954458e+003,1.838850e-002
2.956387e+003,1.779431e-002
2.958315e+003,1.721749e-002
2.960244e+003,1.666116e-002
2.962172e+003,1.625539e-002
2.964101e+003,1.593427e-002
2.966029e+003,1.540031e-002
2.967958e+003,1.482083e-002
2.969886e+003,1.433992e-002
2.971815e+003,1.391393e-002
2.973743e+003,1.360421e-002
2.975672e+003,1.331118e-002
2.977600e+003,1.304614e-002
2.979529e+003,1.284330e-002
2.981457e+003,1.256005e-002
2.983386e+003,1.242075e-002
2.985314e+003,1.225620e-002
2.987243e+003,1.207877e-002
2.989171e+003,1.198046e-002
2.991100e+003,1.184816e-002
2.993028e+003,1.157165e-002
2.994957e+003,1.140396e-002
2.996885e+003,1.135845e-002
2.998814e+003,1.132192e-002
3.000742e+003,1.126690e-002
3.002671e+003,1.124248e-002
3.004599e+003,1.122341e-002
3.006528e+003,1.122517e-002
3.008456e+003,1.112590e-002
3.010385e+003,1.102196e-002
3.012313e+003,1.110173e-002
3.014242e+003,1.112719e-002
3.016170e+003,1.104228e-002
3.018099e+003,1.106907e-002
3.020027e+003,1.113321e-002
3.021956e+003,1.104497e-002
3.023884e+003,1.092878e-002
3.025813e+003,1.083155e-002
3.027741e+003,1.076752e-002
3.029670e+003,1.077988e-002
3.031598e+003,1.080121e-002
3.033527e+003,1.080682e-002
3.035455e+003,1.085971e-002
3.037384e+003,1.086480e-002
3.039312e+003,1.074452e-002
3.041241e+003,1.066808e-002
3.043169e+003,1.061242e-002
3.045098e+003,1.061826e-002
3.047026e+003,1.072353e-002
3.048955e+003,1.059983e-002
3.050883e+003,1.039813e-002
3.052812e+003,1.044496e-002
3.054740e+003,1.047870e-002
3.056669e+003,1.038879e-002
3.058597e+003,1.037468e-002
3.060526e+003,1.035394e-002
3.062454e+003,1.041367e-002
3.064383e+003,1.045311e-002
3.066311e+003,1.051675e-002
3.068240e+003,1.047707e-002
3.070168e+003,1.033606e-002
3.072097e+003,1.025856e-002
3.074025e+003,1.029168e-002
3.075954e+003,1.040199e-002
3.077882e+003,1.032479e-002
3.079811e+003,1.014859e-002
3.081739e+003,1.014544e-002
3.083668e+003,1.025531e-002
3.085596e+003,1.025958e-002
3.087525e+003,1.012797e-002
3.089453e+003,1.010179e-002
3.091382e+003,1.008951e-002
3.093310e+003,1.001793e-002
3.095239e+003,1.011498e-002
3.097167e+003,1.020262e-002
3.099096e+003,1.011501e-002
3.101024e+003,9.981682e-003
3.102953e+003,9.979138e-003
3.104881e+003,9.950931e-003
3.106810e+003,9.870760e-003
3.108738e+003,9.885878e-003
3.110667e+003,9.811718e-003
3.112595e+003,9.830426e-003
3.114524e+003,9.920726e-003
3.116452e+003,9.957474e-003
3.118381e+003,9.912522e-003
3.120309e+003,9.706533e-003
3.122238e+003,9.595411e-003
3.124166e+003,9.624103e-003
3.126095e+003,9.567160e-003
3.128023e+003,9.604218e-003
3.129952e+003,9.680342e-003
3.131880e+003,9.676886e-003
3.133809e+003,9.655068e-003
3.135737e+003,9.611196e-003
3.137666e+003,9.785927e-003
3.139594e+003,9.924116e-003
3.141523e+003,9.838900e-003
3.143451e+003,9.809888e-003
3.145380e+003,9.801245e-003
3.147308e+003,9.801787e-003
3.149237e+003,9.749837e-003
3.151165e+003,9.672176e-003
3.153094e+003,9.653780e-003
3.155022e+003,9.680307e-003
3.156951e+003,9.743568e-003
3.158879e+003,9.814700e-003
3.160808e+003,9.870930e-003
3.162736e+003,9.836832e-003
3.164665e+003,9.781793e-003
3.166593e+003,9.664791e-003
3.168522e+003,9.633047e-003
3.170450e+003,9.681256e-003
3.172379e+003,9.815751e-003
3.174307e+003,9.879437e-003
3.176236e+003,9.856490e-003
3.178164e+003,9.903471e-003
3.180093e+003,9.813379e-003
3.182021e+003,9.684306e-003
3.183950e+003,9.677733e-003
3.185878e+003,9.725507e-003
3.187807e+003,9.754141e-003
3.189735e+003,9.665875e-003
3.191664e+003,9.625628e-003
3.193592e+003,9.642397e-003
3.195521e+003,9.655778e-003
3.197449e+003,9.822969e-003
3.199378e+003,1.001752e-002
3.201306e+003,1.002298e-002
3.203235e+003,9.929505e-003
3.205163e+003,9.937845e-003
3.207092e+003,9.875370e-003
3.209020e+003,1.000711e-002
3.210948e+003,1.008751e-002
3.212877e+003,1.004526e-002
3.214806e+003,1.009104e-002
3.216734e+003,1.000965e-002
3.218663e+003,9.852490e-003
3.220591e+003,9.932794e-003
3.222520e+003,1.027770e-002
3.224448e+003,1.028781e-002
3.226376e+003,1.031350e-002
3.228305e+003,1.050874e-002
3.230234e+003,1.059042e-002
3.232162e+003,1.058217e-002
3.234091e+003,1.049211e-002
3.236019e+003,1.042249e-002
3.237948e+003,1.039582e-002
3.239876e+003,1.055355e-002
3.241804e+003,1.079992e-002
3.243733e+003,1.078304e-002
3.245662e+003,1.088927e-002
3.247590e+003,1.105217e-002
3.249519e+003,1.105972e-002
3.251447e+003,1.102325e-002
3.253375e+003,1.098580e-002
3.255304e+003,1.099358e-002
3.257232e+003,1.118295e-002
3.259161e+003,1.139028e-002
3.261090e+003,1.135984e-002
3.263018e+003,1.123789e-002
3.264947e+003,1.123368e-002
3.266875e+003,1.124245e-002
3.268803e+003,1.133532e-002
3.270732e+003,1.141631e-002
3.272660e+003,1.157390e-002
3.274589e+003,1.160487e-002
3.276518e+003,1.149441e-002
3.278446e+003,1.154940e-002
3.280375e+003,1.155426e-002
3.282303e+003,1.166620e-002
3.284231e+003,1.170190e-002
3.286160e+003,1.164999e-002
3.288088e+003,1.153004e-002
3.290017e+003,1.145954e-002
3.291946e+003,1.152878e-002
3.293874e+003,1.139052e-002
3.295802e+003,1.129662e-002
3.297731e+003,1.129002e-002
3.299659e+003,1.119529e-002
3.301588e+003,1.114351e-002
3.303516e+003,1.102597e-002
3.305445e+003,1.098577e-002
3.307374e+003,1.096732e-002
3.309302e+003,1.084045e-002
3.311230e+003,1.076803e-002
3.313159e+003,1.075665e-002
3.315087e+003,1.063602e-002
3.317016e+003,1.053739e-002
3.318944e+003,1.034807e-002
3.320873e+003,1.023641e-002
3.322802e+003,1.016107e-002
3.324730e+003,1.015063e-002
3.326658e+003,1.012122e-002
3.328587e+003,1.006879e-002
3.330515e+003,1.012556e-002
3.332444e+003,1.015626e-002
3.334372e+003,9.918353e-003
3.336301e+003,9.737028e-003
3.338229e+003,9.765222e-003
3.340158e+003,9.824360e-003
3.342086e+003,9.851677e-003
3.344015e+003,9.893403e-003
3.345943e+003,9.808058e-003
3.347872e+003,9.733775e-003
3.349800e+003,9.730184e-003
3.351729e+003,9.740823e-003
3.353657e+003,9.584741e-003
3.355586e+003,9.520995e-003
3.357514e+003,9.455533e-003
3.359443e+003,9.450961e-003
3.361371e+003,9.568617e-003
3.363300e+003,9.500878e-003
3.365229e+003,9.311467e-003
3.367157e+003,9.219366e-003
3.369085e+003,9.076294e-003
3.371014e+003,9.016851e-003
3.372942e+003,9.137672e-003
3.374871e+003,9.116794e-003
3.376799e+003,9.008530e-003
3.378728e+003,8.822445e-003
3.380656e+003,8.751644e-003
3.382585e+003,8.715876e-003
3.384513e+003,8.623563e-003
3.386442e+003,8.496329e-003
3.388370e+003,8.566615e-003
3.390299e+003,8.647189e-003
3.392227e+003,8.600479e-003
3.394156e+003,8.442507e-003
3.396084e+003,8.340153e-003
3.398013e+003,8.366296e-003
3.399941e+003,8.404873e-003
3.401870e+003,8.381464e-003
3.403798e+003,8.341133e-003
3.405727e+003,8.265006e-003
3.407655e+003,8.259603e-003
3.409584e+003,8.474131e-003
3.411512e+003,8.524510e-003
3.413441e+003,8.371870e-003
3.415369e+003,8.334850e-003
3.417298e+003,8.357852e-003
3.419226e+003,8.315125e-003
3.421155e+003,8.249135e-003
3.423083e+003,8.272740e-003
3.425012e+003,8.301852e-003
3.426940e+003,8.233500e-003
3.428869e+003,8.230224e-003
3.430797e+003,8.291247e-003
3.432726e+003,8.266053e-003
3.434654e+003,8.200982e-003
3.436583e+003,8.060776e-003
3.438511e+003,8.043730e-003
3.440440e+003,8.151856e-003
3.442368e+003,8.348091e-003
3.444297e+003,8.351434e-003
3.446225e+003,8.235931e-003
3.448154e+003,8.168197e-003
3.450082e+003,8.219891e-003
3.452011e+003,8.272166e-003
3.453939e+003,8.157325e-003
3.455868e+003,7.976600e-003
3.457796e+003,8.042177e-003
3.459725e+003,8.299961e-003
3.461653e+003,8.345963e-003
3.463582e+003,8.199463e-003
3.465510e+003,8.041266e-003
3.467439e+003,8.076404e-003
3.469367e+003,8.013893e-003
3.471296e+003,7.987230e-003
3.473224e+003,8.253694e-003
3.475153e+003,8.279325e-003
3.477081e+003,8.228299e-003
3.479010e+003,8.264230e-003
3.480938e+003,8.290301e-003
3.482867e+003,8.239849e-003
3.484795e+003,8.245116e-003
3.486724e+003,8.258928e-003
3.488652e+003,8.308236e-003
3.490581e+003,8.193385e-003
3.492509e+003,8.092237e-003
3.494438e+003,8.254707e-003
3.496366e+003,8.492477e-003
3.498295e+003,8.386631e-003
3.500223e+003,8.240929e-003
3.502152e+003,8.263149e-003
3.504080e+003,8.337012e-003
3.506009e+003,8.429906e-003
3.507937e+003,8.502850e-003
3.509866e+003,8.418116e-003
3.511794e+003,8.279629e-003
3.513723e+003,8.217257e-003
3.515651e+003,8.270511e-003
3.517580e+003,8.352954e-003
3.519508e+003,8.348158e-003
3.521437e+003,8.303001e-003
3.523365e+003,8.264838e-003
3.525294e+003,8.307019e-003
3.527222e+003,8.397003e-003
3.529151e+003,8.487646e-003
3.531079e+003,8.430379e-003
3.533008e+003,8.313909e-003
3.534936e+003,8.297968e-003
3.536865e+003,8.261596e-003
3.538793e+003,8.393827e-003
3.540722e+003,8.676765e-003
3.542650e+003,8.709013e-003
3.544579e+003,8.607204e-003
3.546507e+003,8.502412e-003
3.548436e+003,8.382645e-003
3.550364e+003,8.191831e-003
3.552293e+003,8.139094e-003
3.554221e+003,8.245724e-003
3.556150e+003,8.258489e-003
3.558078e+003,8.351806e-003
3.560007e+003,8.447069e-003
3.561935e+003,8.604061e-003
3.563864e+003,8.452879e-003
3.565792e+003,8.350151e-003
3.567721e+003,8.431223e-003
3.569649e+003,8.414130e-003
3.571578e+003,8.235762e-003
3.573506e+003,8.303169e-003
3.575435e+003,8.498390e-003
3.577363e+003,8.427339e-003
3.579292e+003,8.294084e-003
3.581220e+003,8.261427e-003
3.583149e+003,8.219148e-003
3.585077e+003,8.454569e-003
3.587006e+003,8.444535e-003
3.588934e+003,8.410042e-003
3.590863e+003,8.530863e-003
3.592791e+003,8.580606e-003
3.594720e+003,8.427339e-003
3.596648e+003,8.369945e-003
3.598577e+003,8.428453e-003
3.600505e+003,8.429737e-003
3.602434e+003,8.404705e-003
3.604362e+003,8.729230e-003
3.606291e+003,8.812334e-003
3.608219e+003,8.644011e-003
3.610148e+003,8.525118e-003
3.612076e+003,8.610279e-003
3.614005e+003,8.632283e-003
3.615933e+003,8.502209e-003
3.617862e+003,8.646850e-003
3.619790e+003,8.694511e-003
3.621719e+003,8.465786e-003
3.623647e+003,8.504709e-003
3.625576e+003,8.666286e-003
3.627504e+003,8.789139e-003
3.629433e+003,8.840130e-003
3.631361e+003,8.699379e-003
3.633290e+003,8.527517e-003
3.635218e+003,8.508020e-003
3.637146e+003,8.511974e-003
3.639075e+003,8.426089e-003
3.641004e+003,8.558336e-003
3.642932e+003,8.615417e-003
3.644861e+003,8.598282e-003
3.646789e+003,8.708642e-003
3.648718e+003,8.659086e-003
3.650646e+003,8.450447e-003
3.652574e+003,8.449771e-003
3.654503e+003,8.561344e-003
3.656432e+003,8.372580e-003
3.658360e+003,8.143146e-003
3.660289e+003,8.295908e-003
3.662217e+003,8.368289e-003
3.664146e+003,8.318266e-003
3.666074e+003,8.346098e-003
3.668002e+003,8.293003e-003
3.669931e+003,8.245690e-003
3.671860e+003,8.119985e-003
3.673788e+003,8.152869e-003
3.675717e+003,8.390854e-003
3.677645e+003,8.508798e-003
3.679573e+003,8.315632e-003
3.681502e+003,8.407610e-003
3.683430e+003,8.360318e-003
3.685359e+003,8.250790e-003
3.687288e+003,8.457103e-003
3.689216e+003,8.627483e-003
3.691145e+003,8.622177e-003
3.693073e+003,8.586757e-003
3.695001e+003,8.363155e-003
3.696930e+003,8.330594e-003
3.698858e+003,8.434399e-003
3.700787e+003,8.610888e-003
3.702716e+003,8.675920e-003
3.704644e+003,8.624441e-003
3.706573e+003,8.597301e-003
3.708501e+003,8.611733e-003
3.710429e+003,8.557762e-003
3.712358e+003,8.477070e-003
3.714286e+003,8.447947e-003
3.716215e+003,8.329445e-003
3.718144e+003,8.437575e-003
3.720072e+003,8.614167e-003
3.722000e+003,8.613254e-003
3.723929e+003,8.484808e-003
3.725857e+003,8.541068e-003
3.727786e+003,8.748263e-003
3.729714e+003,8.529241e-003
3.731643e+003,8.228367e-003
3.733572e+003,8.318773e-003
3.735500e+003,8.399502e-003
3.737428e+003,8.335120e-003
3.739357e+003,8.481834e-003
3.741285e+003,8.658173e-003
3.743214e+003,8.608387e-003
3.745142e+003,8.412170e-003
3.747071e+003,8.271930e-003
3.749000e+003,8.388794e-003
3.750928e+003,8.677001e-003
3.752856e+003,8.731495e-003
3.754785e+003,8.602878e-003
3.756713e+003,8.743800e-003
3.758642e+003,8.626638e-003
3.760570e+003,8.448386e-003
3.762499e+003,8.435480e-003
3.764427e+003,8.560364e-003
3.766356e+003,8.539277e-003
3.768284e+003,8.533735e-003
3.770213e+003,8.639414e-003
3.772141e+003,8.664055e-003
3.774070e+003,8.600343e-003
3.775998e+003,8.575842e-003
3.777927e+003,8.616769e-003
3.779855e+003,8.665474e-003
3.781784e+003,8.627889e-003
3.783712e+003,8.651447e-003
3.785641e+003,8.759589e-003
3.787569e+003,8.652123e-003
3.789498e+003,8.542893e-003
3.791426e+003,8.598417e-003
3.793355e+003,8.423656e-003
3.795283e+003,8.633533e-003
3.797212e+003,8.755937e-003
3.799140e+003,8.541710e-003
3.801069e+003,8.337079e-003
3.802997e+003,8.382274e-003
3.804926e+003,8.406528e-003
3.806854e+003,8.302324e-003
3.808783e+003,8.212733e-003
3.810711e+003,8.403995e-003
3.812640e+003,8.497985e-003
3.814568e+003,8.482342e-003
3.816497e+003,8.620555e-003
3.818425e+003,8.738932e-003
3.820354e+003,8.901848e-003
3.822282e+003,8.827686e-003
3.824211e+003,8.782411e-003
3.826139e+003,8.558877e-003
3.828068e+003,8.432474e-003
3.829996e+003,8.505790e-003
3.831925e+003,8.413792e-003
3.833853e+003,8.500181e-003
3.835782e+003,8.734030e-003
3.837710e+003,8.771389e-003
3.839639e+003,8.647425e-003
3.841567e+003,8.720102e-003
3.843496e+003,8.616262e-003
3.845424e+003,8.383490e-003
3.847353e+003,8.177617e-003
3.849281e+003,8.446697e-003
3.851210e+003,8.908003e-003
3.853138e+003,8.931779e-003
3.855067e+003,8.660370e-003
3.856995e+003,8.703469e-003
3.858924e+003,8.674939e-003
3.860852e+003,8.610246e-003
3.862781e+003,8.674331e-003
3.864709e+003,8.839657e-003
3.866638e+003,8.734402e-003
3.868566e+003,8.740183e-003
3.870495e+003,8.905602e-003
3.872423e+003,8.752320e-003
3.874352e+003,8.722975e-003
3.876280e+003,8.698974e-003
3.878209e+003,8.609165e-003
3.880137e+003,8.511906e-003
3.882066e+003,8.547286e-003
3.883994e+003,8.524206e-003
3.885923e+003,8.511062e-003
3.887851e+003,8.494268e-003
3.889780e+003,8.656315e-003
3.891708e+003,8.404400e-003
3.893637e+003,8.241672e-003
3.895565e+003,8.524882e-003
3.897494e+003,8.655672e-003
3.899422e+003,8.553571e-003
3.901351e+003,8.552085e-003
3.903279e+003,8.645262e-003
3.905208e+003,8.766148e-003
3.907136e+003,8.709115e-003
3.909065e+003,8.614370e-003
3.910993e+003,8.556410e-003
3.912922e+003,8.475077e-003
3.914850e+003,8.479469e-003
3.916779e+003,8.409434e-003
3.918707e+003,8.434872e-003
3.920636e+003,8.423453e-003
3.922564e+003,8.310633e-003
3.924493e+003,8.320090e-003
3.926421e+003,8.570773e-003
3.928350e+003,8.615079e-003
3.930278e+003,8.546137e-003
3.932207e+003,8.624949e-003
3.934135e+003,8.814194e-003
3.936064e+003,9.112429e-003
3.937992e+003,9.178686e-003
3.939921e+003,8.991040e-003
3.941849e+003,8.786130e-003
3.943778e+003,8.695830e-003
3.945706e+003,8.623968e-003
3.947635e+003,8.790864e-003
3.949563e+003,8.854873e-003
3.951492e+003,8.709656e-003
3.953420e+003,8.636677e-003
3.955349e+003,8.714490e-003
3.957277e+003,8.677136e-003
3.959206e+003,8.663345e-003
3.961134e+003,8.651785e-003
3.963063e+003,8.825690e-003
3.964991e+003,8.665238e-003
3.966920e+003,8.532688e-003
3.968848e+003,8.660912e-003
3.970777e+003,8.661926e-003
3.972705e+003,8.607982e-003
3.974634e+003,8.659491e-003
3.976562e+003,8.773823e-003
3.978491e+003,8.751948e-003
3.980419e+003,8.613287e-003
3.982348e+003,8.541372e-003
3.984276e+003,8.565095e-003
3.986205e+003,8.503121e-003
3.988133e+003,8.614707e-003
3.990062e+003,8.710196e-003
3.991990e+003,8.682409e-003
3.993919e+003,8.727944e-003
3.995847e+003,8.770780e-003
3.997776e+003,8.695289e-003
3.999704e+003,8.609063e-003
4.001633e+003,0.000000e+000
