3.991989e+002,2.348398e-002
4.011274e+002,1.861705e-002
4.030559e+002,8.842902e-003
4.049844e+002,6.216321e-003
4.069129e+002,9.451739e-003
4.088414e+002,1.837073e-002
4.107699e+002,1.875911e-002
4.126984e+002,1.657496e-002
4.146269e+002,1.289316e-002
4.165554e+002,1.263509e-002
4.184839e+002,1.860162e-002
4.204124e+002,2.007775e-002
4.223409e+002,1.801212e-002
4.242694e+002,1.952139e-002
4.261979e+002,1.678296e-002
4.281264e+002,1.369666e-002
4.300549e+002,1.142188e-002
4.319834e+002,5.113946e-003
4.339119e+002,4.103025e-003
4.358404e+002,1.276334e-002
4.377689e+002,1.538377e-002
4.396974e+002,1.105421e-002
4.416259e+002,7.094541e-003
4.435544e+002,7.625760e-003
4.454829e+002,1.226438e-002
4.474114e+002,1.795845e-002
4.493399e+002,1.481960e-002
4.512684e+002,8.911858e-003
4.531969e+002,8.263318e-003
4.551254e+002,1.109504e-002
4.570539e+002,1.174660e-002
4.589824e+002,9.234427e-003
4.609109e+002,1.363416e-002
4.628394e+002,1.418727e-002
4.647679e+002,1.062974e-002
4.666964e+002,1.086715e-002
4.686249e+002,9.367192e-003
4.705533e+002,8.897687e-003
4.724819e+002,9.958288e-003
4.744103e+002,9.507143e-003
4.763389e+002,9.375012e-003
4.782673e+002,1.042354e-002
4.801959e+002,1.142461e-002
4.821243e+002,1.183838e-002
4.840529e+002,1.196146e-002
4.859813e+002,1.187233e-002
4.879099e+002,1.106305e-002
4.898383e+002,1.006496e-002
4.917668e+002,9.395395e-003
4.936953e+002,1.116619e-002
4.956238e+002,1.181700e-002
4.975523e+002,9.861778e-003
4.994808e+002,1.004895e-002
5.014093e+002,1.062451e-002
5.033378e+002,1.091244e-002
5.052663e+002,1.040990e-002
5.071948e+002,8.958229e-003
5.091233e+002,7.988986e-003
5.110518e+002,7.556064e-003
5.129803e+002,8.231508e-003
5.149088e+002,7.832350e-003
5.168373e+002,7.329285e-003
5.187658e+002,7.261153e-003
5.206943e+002,7.284199e-003
5.226228e+002,6.945029e-003
5.245513e+002,6.108541e-003
5.264798e+002,6.097654e-003
5.284083e+002,7.235649e-003
5.303368e+002,6.628293e-003
5.322653e+002,6.107701e-003
5.341938e+002,6.404587e-003
5.361223e+002,6.213867e-003
5.380508e+002,5.745105e-003
5.399792e+002,7.389642e-003
5.419078e+002,7.772909e-003
5.438363e+002,8.189299e-003
5.457648e+002,8.484233e-003
5.476932e+002,7.946666e-003
5.496218e+002,7.689396e-003
5.515503e+002,8.038363e-003
5.534788e+002,8.388963e-003
5.554072e+002,9.645107e-003
5.573358e+002,1.001582e-002
5.592643e+002,1.013652e-002
5.611927e+002,8.835429e-003
5.631212e+002,7.975081e-003
5.650497e+002,8.729095e-003
5.669783e+002,9.834561e-003
5.689067e+002,1.157689e-002
5.708352e+002,1.146189e-002
5.727637e+002,9.514899e-003
5.746923e+002,7.589747e-003
5.766207e+002,8.212091e-003
5.785492e+002,1.079479e-002
5.804777e+002,1.099980e-002
5.824063e+002,7.054801e-003
5.843347e+002,8.337620e-003
5.862632e+002,1.119097e-002
5.881917e+002,1.113586e-002
5.901202e+002,9.956864e-003
5.920487e+002,8.532755e-003
5.939772e+002,9.390350e-003
5.959057e+002,1.023831e-002
5.978342e+002,1.181843e-002
5.997627e+002,1.369246e-002
6.016912e+002,1.495926e-002
6.036197e+002,1.680328e-002
6.055482e+002,1.868456e-002
6.074767e+002,1.913354e-002
6.094052e+002,1.892680e-002
6.113337e+002,1.987965e-002
6.132622e+002,1.961705e-002
6.151907e+002,1.863621e-002
6.171192e+002,1.854829e-002
6.190477e+002,1.798705e-002
6.209762e+002,1.858322e-002
6.229047e+002,1.617515e-002
6.248332e+002,1.205022e-002
6.267617e+002,8.754383e-003
6.286902e+002,7.122058e-003
6.306187e+002,7.083696e-003
6.325472e+002,6.822831e-003
6.344756e+002,6.633643e-003
6.364042e+002,6.667389e-003
6.383326e+002,6.336735e-003
6.402612e+002,5.397035e-003
6.421896e+002,5.950433e-003
6.441182e+002,6.174006e-003
6.460466e+002,5.475646e-003
6.479752e+002,5.546250e-003
6.499036e+002,5.583403e-003
6.518322e+002,5.230667e-003
6.537606e+002,4.697746e-003
6.556891e+002,4.128714e-003
6.576177e+002,3.964603e-003
6.595461e+002,3.840600e-003
6.614746e+002,3.188134e-003
6.634031e+002,2.680016e-003
6.653317e+002,3.896596e-003
6.672601e+002,8.498120e-003
6.691886e+002,7.526463e-003
6.711171e+002,4.286897e-003
6.730457e+002,4.072119e-003
6.749741e+002,4.284622e-003
6.769026e+002,4.272107e-003
6.788311e+002,4.053424e-003
6.807596e+002,4.344089e-003
6.826881e+002,4.816801e-003
6.846166e+002,5.163735e-003
6.865451e+002,5.183754e-003
6.884736e+002,5.058128e-003
6.904021e+002,4.822765e-003
6.923306e+002,4.965751e-003
6.942591e+002,5.071235e-003
6.961876e+002,5.164105e-003
6.981161e+002,5.124875e-003
7.000446e+002,5.188515e-003
7.019731e+002,5.399652e-003
7.039016e+002,5.968236e-003
7.058301e+002,5.807224e-003
7.077585e+002,5.219869e-003
7.096871e+002,5.566588e-003
7.116156e+002,6.355058e-003
7.135441e+002,6.465388e-003
7.154725e+002,6.391237e-003
7.174011e+002,6.349545e-003
7.193296e+002,6.941224e-003
7.212581e+002,7.448491e-003
7.231865e+002,7.408921e-003
7.251151e+002,7.532700e-003
7.270436e+002,7.907118e-003
7.289720e+002,8.312018e-003
7.309005e+002,8.596828e-003
7.328290e+002,8.390381e-003
7.347576e+002,8.443453e-003
7.366860e+002,8.707458e-003
7.386145e+002,8.527011e-003
7.405430e+002,8.709926e-003
7.424716e+002,9.053828e-003
7.444000e+002,9.051832e-003
7.463285e+002,8.905602e-003
7.482570e+002,8.975751e-003
7.501855e+002,9.041277e-003
7.521140e+002,9.563638e-003
7.540425e+002,1.007211e-002
7.559710e+002,9.909911e-003
7.578995e+002,1.013465e-002
7.598280e+002,1.038696e-002
7.617565e+002,1.056452e-002
7.636850e+002,1.074449e-002
7.656135e+002,1.074330e-002
7.675420e+002,1.057395e-002
7.694705e+002,1.063921e-002
7.713990e+002,1.028537e-002
7.733275e+002,9.881438e-003
7.752560e+002,9.890826e-003
7.771844e+002,9.735334e-003
7.791130e+002,9.130566e-003
7.810415e+002,8.929987e-003
7.829700e+002,8.802867e-003
7.848984e+002,8.579289e-003
7.868270e+002,8.580201e-003
7.887555e+002,8.665171e-003
7.906840e+002,8.611057e-003
7.926124e+002,8.384233e-003
7.945410e+002,7.852998e-003
7.964695e+002,7.229315e-003
7.983979e+002,6.814652e-003
8.003264e+002,6.585333e-003
8.022549e+002,6.769283e-003
8.041835e+002,7.310448e-003
8.061119e+002,7.449536e-003
8.080404e+002,7.424964e-003
8.099689e+002,8.027731e-003
8.118975e+002,8.579897e-003
8.138259e+002,8.586926e-003
8.157545e+002,8.602608e-003
8.176830e+002,9.110433e-003
8.196115e+002,9.032548e-003
8.215399e+002,8.268113e-003
8.234684e+002,7.887682e-003
8.253970e+002,8.018180e-003
8.273254e+002,8.235255e-003
8.292539e+002,8.055713e-003
8.311824e+002,7.621781e-003
8.331110e+002,7.511562e-003
8.350394e+002,7.675906e-003
8.369679e+002,7.779453e-003
8.388964e+002,7.712769e-003
8.408250e+002,7.897872e-003
8.427534e+002,7.745283e-003
8.446819e+002,7.616116e-003
8.466104e+002,7.701639e-003
8.485389e+002,7.533610e-003
8.504674e+002,7.477784e-003
8.523959e+002,7.272474e-003
8.543244e+002,7.223587e-003
8.562529e+002,7.740224e-003
8.581814e+002,8.025537e-003
8.601099e+002,7.572922e-003
8.620384e+002,7.202667e-003
8.639669e+002,7.082012e-003
8.658954e+002,7.358233e-003
8.678239e+002,7.431368e-003
8.697524e+002,7.164533e-003
8.716809e+002,6.981796e-003
8.736094e+002,6.988025e-003
8.755378e+002,7.096326e-003
8.774664e+002,7.559908e-003
8.793949e+002,7.566550e-003
8.813234e+002,7.025604e-003
8.832518e+002,7.150824e-003
8.851804e+002,7.391496e-003
8.871089e+002,7.291006e-003
8.890374e+002,7.219983e-003
8.909658e+002,7.362243e-003
8.928943e+002,7.528890e-003
8.948229e+002,7.510786e-003
8.967513e+002,7.413538e-003
8.986798e+002,7.272878e-003
9.006083e+002,7.207619e-003
9.025369e+002,7.190708e-003
9.044653e+002,7.251416e-003
9.063938e+002,7.200443e-003
9.083223e+002,6.884834e-003
9.102509e+002,6.690606e-003
9.121793e+002,6.725871e-003
9.141078e+002,6.558522e-003
9.160364e+002,6.411682e-003
9.179648e+002,6.226841e-003
9.198933e+002,6.163218e-003
9.218218e+002,6.083508e-003
9.237504e+002,5.709718e-003
9.256788e+002,5.421292e-003
9.276073e+002,5.367514e-003
9.295358e+002,5.044485e-003
9.314644e+002,4.651861e-003
9.333928e+002,4.463650e-003
9.353213e+002,4.658258e-003
9.372498e+002,4.773350e-003
9.391783e+002,4.413003e-003
9.411068e+002,4.572428e-003
9.430353e+002,4.931835e-003
9.449637e+002,5.039087e-003
9.468923e+002,5.059770e-003
9.488208e+002,5.079851e-003
9.507493e+002,5.138052e-003
9.526777e+002,5.119746e-003
9.546063e+002,5.052094e-003
9.565348e+002,5.138488e-003
9.584633e+002,5.121422e-003
9.603917e+002,5.042909e-003
9.623203e+002,5.136510e-003
9.642488e+002,5.132285e-003
9.661772e+002,5.159444e-003
9.681057e+002,5.282147e-003
9.700343e+002,5.098558e-003
9.719628e+002,5.023300e-003
9.738912e+002,5.017668e-003
9.758197e+002,4.976140e-003
9.777483e+002,4.822497e-003
9.796768e+002,4.595600e-003
9.816052e+002,4.339504e-003
9.835337e+002,4.071417e-003
9.854623e+002,3.927589e-003
9.873907e+002,3.979183e-003
9.893192e+002,3.728095e-003
9.912477e+002,3.188769e-003
9.931763e+002,3.096054e-003
9.951047e+002,3.057946e-003
9.970332e+002,2.684050e-003
9.989617e+002,2.625876e-003
1.000890e+003,3.030217e-003
1.002819e+003,3.163736e-003
1.004747e+003,2.996986e-003
1.006676e+003,3.030217e-003
1.008604e+003,3.040194e-003
1.010533e+003,3.121517e-003
1.012461e+003,3.231161e-003
1.014390e+003,3.286678e-003
1.016318e+003,3.625642e-003
1.018247e+003,3.942401e-003
1.020175e+003,4.159289e-003
1.022104e+003,4.345963e-003
1.024032e+003,4.568845e-003
1.025961e+003,4.961628e-003
1.027889e+003,5.245121e-003
1.029818e+003,5.557124e-003
1.031746e+003,6.008986e-003
1.033675e+003,6.348603e-003
1.035603e+003,6.667692e-003
1.037532e+003,6.948900e-003
1.039460e+003,7.169350e-003
1.041389e+003,7.225676e-003
1.043317e+003,7.440839e-003
1.045246e+003,7.824928e-003
1.047174e+003,8.129641e-003
1.049103e+003,8.188860e-003
1.051031e+003,7.961379e-003
1.052960e+003,7.936982e-003
1.054888e+003,8.086802e-003
1.056817e+003,7.967792e-003
1.058745e+003,7.873241e-003
1.060674e+003,8.043460e-003
1.062602e+003,8.150066e-003
1.064531e+003,8.039039e-003
1.066459e+003,8.061046e-003
1.068388e+003,8.168872e-003
1.070316e+003,8.237991e-003
1.072245e+003,8.166104e-003
1.074173e+003,8.144226e-003
1.076102e+003,8.108474e-003
1.078030e+003,8.139364e-003
1.079959e+003,7.943730e-003
1.081887e+003,7.717052e-003
1.083816e+003,8.001506e-003
1.085744e+003,8.245589e-003
1.087673e+003,8.408724e-003
1.089601e+003,8.602405e-003
1.091530e+003,8.899582e-003
1.093458e+003,9.091620e-003
1.095387e+003,9.109383e-003
1.097315e+003,9.134694e-003
1.099244e+003,9.221634e-003
1.101172e+003,9.295423e-003
1.103101e+003,9.159363e-003
1.105029e+003,9.210769e-003
1.106958e+003,9.341598e-003
1.108886e+003,9.488754e-003
1.110815e+003,9.554831e-003
1.112743e+003,9.551140e-003
1.114672e+003,9.513916e-003
1.116600e+003,9.689015e-003
1.118529e+003,9.790163e-003
1.120457e+003,9.599950e-003
1.122386e+003,9.686101e-003
1.124314e+003,9.591617e-003
1.126243e+003,9.197367e-003
1.128171e+003,9.018441e-003
1.130100e+003,9.203696e-003
1.132028e+003,9.240892e-003
1.133957e+003,8.980012e-003
1.135885e+003,8.764221e-003
1.137814e+003,8.399096e-003
1.139742e+003,7.690071e-003
1.141671e+003,7.471851e-003
1.143599e+003,7.405752e-003
1.145528e+003,6.940113e-003
1.147456e+003,6.562188e-003
1.149385e+003,6.464345e-003
1.151313e+003,6.143054e-003
1.153242e+003,5.750208e-003
1.155170e+003,5.594143e-003
1.157099e+003,5.542727e-003
1.159027e+003,5.435718e-003
1.160956e+003,5.322497e-003
1.162884e+003,5.274333e-003
1.164813e+003,5.144389e-003
1.166741e+003,5.010897e-003
1.168670e+003,4.925299e-003
1.170598e+003,4.987368e-003
1.172526e+003,4.973191e-003
1.174455e+003,4.879290e-003
1.176384e+003,5.003792e-003
1.178312e+003,5.091316e-003
1.180240e+003,5.048038e-003
1.182169e+003,4.948356e-003
1.184098e+003,4.714627e-003
1.186026e+003,4.475601e-003
1.187954e+003,4.478849e-003
1.189883e+003,4.410760e-003
1.191812e+003,4.196223e-003
1.193740e+003,3.858953e-003
1.195668e+003,3.514328e-003
1.197597e+003,3.258935e-003
1.199526e+003,3.177954e-003
1.201454e+003,3.167073e-003
1.203382e+003,3.218743e-003
1.205311e+003,3.183228e-003
1.207240e+003,3.102394e-003
1.209168e+003,3.087311e-003
1.211096e+003,3.100125e-003
1.213025e+003,3.162801e-003
1.214953e+003,3.190037e-003
1.216882e+003,3.086543e-003
1.218810e+003,3.015036e-003
1.220739e+003,3.054642e-003
1.222667e+003,3.235901e-003
1.224596e+003,3.450165e-003
1.226524e+003,3.514629e-003
1.228453e+003,3.530061e-003
1.230381e+003,3.488208e-003
1.232310e+003,3.582376e-003
1.234238e+003,3.813758e-003
1.236167e+003,4.067471e-003
1.238095e+003,4.377156e-003
1.240024e+003,4.534927e-003
1.241952e+003,4.458327e-003
1.243881e+003,4.306640e-003
1.245809e+003,4.313468e-003
1.247738e+003,4.355534e-003
1.249666e+003,4.430308e-003
1.251595e+003,4.466663e-003
1.253523e+003,4.441623e-003
1.255452e+003,4.450594e-003
1.257380e+003,4.488624e-003
1.259309e+003,4.481727e-003
1.261237e+003,4.519057e-003
1.263166e+003,4.794522e-003
1.265094e+003,5.091014e-003
1.267023e+003,5.350808e-003
1.268951e+003,5.692160e-003
1.270880e+003,5.943210e-003
1.272808e+003,5.931051e-003
1.274737e+003,5.999445e-003
1.276665e+003,6.253732e-003
1.278594e+003,6.521992e-003
1.280522e+003,6.648850e-003
1.282451e+003,6.821888e-003
1.284379e+003,7.072549e-003
1.286308e+003,7.233829e-003
1.288236e+003,7.486919e-003
1.290165e+003,7.770515e-003
1.292093e+003,7.951897e-003
1.294022e+003,8.137912e-003
1.295950e+003,8.389030e-003
1.297879e+003,8.467373e-003
1.299807e+003,8.357278e-003
1.301736e+003,8.304824e-003
1.303664e+003,8.190144e-003
1.305593e+003,8.017842e-003
1.307521e+003,8.024761e-003
1.309450e+003,7.997422e-003
1.311378e+003,7.648691e-003
1.313307e+003,7.247542e-003
1.315235e+003,6.979069e-003
1.317164e+003,6.902811e-003
1.319092e+003,6.730447e-003
1.321021e+003,6.461991e-003
1.322949e+003,6.258270e-003
1.324878e+003,6.158513e-003
1.326806e+003,6.104811e-003
1.328735e+003,6.115397e-003
1.330663e+003,6.201364e-003
1.332592e+003,6.390733e-003
1.334520e+003,6.297064e-003
1.336449e+003,6.178005e-003
1.338377e+003,6.334684e-003
1.340306e+003,6.494479e-003
1.342234e+003,6.590547e-003
1.344163e+003,6.667389e-003
1.346091e+003,6.644375e-003
1.348020e+003,6.713992e-003
1.349948e+003,6.836059e-003
1.351877e+003,6.889985e-003
1.353805e+003,6.882208e-003
1.355734e+003,6.803578e-003
1.357662e+003,6.690774e-003
1.359591e+003,6.526701e-003
1.361519e+003,6.362522e-003
1.363448e+003,6.134854e-003
1.365376e+003,5.784558e-003
1.367305e+003,5.667318e-003
1.369233e+003,5.658322e-003
1.371162e+003,5.554976e-003
1.373090e+003,5.569945e-003
1.375019e+003,5.490377e-003
1.376947e+003,5.468398e-003
1.378876e+003,5.503632e-003
1.380804e+003,5.501954e-003
1.382733e+003,5.572562e-003
1.384661e+003,5.692798e-003
1.386590e+003,5.643317e-003
1.388518e+003,5.428337e-003
1.390447e+003,5.207528e-003
1.392375e+003,4.939308e-003
1.394304e+003,4.763802e-003
1.396232e+003,4.616161e-003
1.398161e+003,4.624902e-003
1.400089e+003,4.649316e-003
1.402018e+003,4.414141e-003
1.403946e+003,4.119883e-003
1.405875e+003,4.022555e-003
1.407803e+003,3.943772e-003
1.409732e+003,3.809646e-003
1.411660e+003,3.659256e-003
1.413589e+003,3.594604e-003
1.415517e+003,3.810382e-003
1.417446e+003,4.187391e-003
1.419374e+003,4.561713e-003
1.421303e+003,4.808895e-003
1.423231e+003,5.235798e-003
1.425160e+003,5.829085e-003
1.427088e+003,6.251682e-003
1.429017e+003,6.551996e-003
1.430945e+003,6.861102e-003
1.432874e+003,7.288344e-003
1.434802e+003,7.738099e-003
1.436731e+003,8.139364e-003
1.438659e+003,8.339815e-003
1.440588e+003,8.692044e-003
1.442516e+003,9.113715e-003
1.444445e+003,9.520081e-003
1.446373e+003,1.004817e-002
1.448302e+003,1.042097e-002
1.450230e+003,1.066838e-002
1.452159e+003,1.094655e-002
1.454087e+003,1.134913e-002
1.456016e+003,1.186552e-002
1.457944e+003,1.211162e-002
1.459873e+003,1.198598e-002
1.461801e+003,1.177935e-002
1.463730e+003,1.161201e-002
1.465658e+003,1.147499e-002
1.467587e+003,1.116982e-002
1.469515e+003,1.084561e-002
1.471444e+003,1.057182e-002
1.473372e+003,1.023115e-002
1.475301e+003,9.764442e-003
1.477229e+003,9.105289e-003
1.479158e+003,8.482848e-003
1.481086e+003,8.037621e-003
1.483015e+003,7.507483e-003
1.484943e+003,7.073323e-003
1.486872e+003,6.766490e-003
1.488800e+003,6.426848e-003
1.490729e+003,6.219110e-003
1.492657e+003,5.925307e-003
1.494586e+003,5.627137e-003
1.496514e+003,5.438469e-003
1.498443e+003,5.209708e-003
1.500371e+003,4.867294e-003
1.502300e+003,4.666028e-003
1.504228e+003,4.756734e-003
1.506157e+003,4.988240e-003
1.508085e+003,4.793484e-003
1.510014e+003,4.425321e-003
1.511942e+003,4.256949e-003
1.513871e+003,4.279335e-003
1.515799e+003,4.429405e-003
1.517728e+003,4.601762e-003
1.519656e+003,4.660435e-003
1.521585e+003,4.711680e-003
1.523513e+003,4.614621e-003
1.525442e+003,4.723738e-003
1.527370e+003,4.825412e-003
1.529299e+003,4.973693e-003
1.531227e+003,5.124037e-003
1.533156e+003,5.516014e-003
1.535084e+003,5.656039e-003
1.537013e+003,5.721435e-003
1.538941e+003,6.165133e-003
1.540870e+003,6.590244e-003
1.542798e+003,6.775913e-003
1.544727e+003,6.762956e-003
1.546655e+003,6.593675e-003
1.548584e+003,6.702753e-003
1.550512e+003,6.938194e-003
1.552441e+003,7.123271e-003
1.554369e+003,7.327904e-003
1.556298e+003,7.553805e-003
1.558226e+003,7.993205e-003
1.560155e+003,8.185788e-003
1.562083e+003,8.233297e-003
1.564012e+003,8.477780e-003
1.565940e+003,8.597234e-003
1.567869e+003,8.862922e-003
1.569797e+003,9.258932e-003
1.571726e+003,9.178213e-003
1.573654e+003,9.048720e-003
1.575583e+003,9.258560e-003
1.577511e+003,9.178280e-003
1.579440e+003,8.819976e-003
1.581368e+003,8.683998e-003
1.583297e+003,8.602405e-003
1.585225e+003,8.629308e-003
1.587154e+003,8.512954e-003
1.589082e+003,8.274327e-003
1.591010e+003,7.988513e-003
1.592939e+003,7.738538e-003
1.594868e+003,7.705180e-003
1.596796e+003,7.714792e-003
1.598724e+003,7.593793e-003
1.600653e+003,7.421155e-003
1.602582e+003,7.253943e-003
1.604510e+003,6.997622e-003
1.606438e+003,6.737683e-003
1.608367e+003,6.628999e-003
1.610296e+003,6.437879e-003
1.612224e+003,6.131090e-003
1.614152e+003,6.050210e-003
1.616081e+003,6.005391e-003
1.618010e+003,5.773242e-003
1.619938e+003,5.561386e-003
1.621866e+003,5.567897e-003
1.623795e+003,5.416896e-003
1.625724e+003,5.302708e-003
1.627652e+003,5.246563e-003
1.629580e+003,5.136141e-003
1.631509e+003,4.929991e-003
1.633438e+003,4.917994e-003
1.635366e+003,5.040495e-003
1.637294e+003,4.746650e-003
1.639223e+003,4.365307e-003
1.641151e+003,4.077939e-003
1.643080e+003,3.703098e-003
1.645008e+003,3.647494e-003
1.646937e+003,3.650033e-003
1.648865e+003,3.350516e-003
1.650794e+003,3.254762e-003
1.652722e+003,3.527422e-003
1.654651e+003,3.129359e-003
1.656579e+003,2.654979e-003
1.658508e+003,2.517118e-003
1.660436e+003,2.473295e-003
1.662365e+003,2.517517e-003
1.664293e+003,2.483192e-003
1.666222e+003,2.314805e-003
1.668150e+003,2.350417e-003
1.670079e+003,2.375636e-003
1.672007e+003,2.179350e-003
1.673936e+003,2.066276e-003
1.675864e+003,1.859648e-003
1.677793e+003,1.474812e-003
1.679721e+003,1.230983e-003
1.681650e+003,1.024951e-003
1.683578e+003,1.099486e-003
1.685507e+003,9.125085e-004
1.687435e+003,5.554165e-004
1.689364e+003,3.468199e-004
1.691292e+003,2.363100e-004
1.693221e+003,1.982531e-004
1.695149e+003,3.726859e-004
1.697078e+003,3.804791e-004
1.699006e+003,3.468530e-004
1.700935e+003,3.139922e-004
1.702863e+003,9.056477e-005
1.704792e+003,1.521782e-004
1.706720e+003,8.340638e-005
1.708649e+003,-9.028088e-005
1.710577e+003,-1.462290e-004
1.712506e+003,-9.909261e-005
1.714434e+003,7.388954e-006
1.716363e+003,1.065390e-004
1.718291e+003,5.341536e-005
1.720220e+003,-1.179743e-004
1.722148e+003,-1.294023e-004
1.724077e+003,-1.554040e-004
1.726005e+003,-2.352542e-004
1.727934e+003,-2.611502e-004
1.729862e+003,-3.172419e-004
1.731791e+003,-2.116087e-004
1.733719e+003,-2.962082e-005
1.735648e+003,-2.776739e-004
1.737576e+003,-5.493792e-004
1.739505e+003,-5.282659e-004
1.741433e+003,-5.549387e-004
1.743362e+003,-4.941449e-004
1.745290e+003,-4.046762e-004
1.747219e+003,-2.246238e-004
1.749147e+003,-8.329099e-005
1.751076e+003,1.182901e-005
1.753004e+003,-6.430841e-005
1.754933e+003,-1.721966e-004
1.756861e+003,-1.389751e-004
1.758790e+003,-2.253193e-004
1.760718e+003,-1.520255e-004
1.762647e+003,-1.262389e-005
1.764575e+003,-1.897172e-004
1.766504e+003,-2.804222e-004
1.768432e+003,-2.478050e-004
1.770361e+003,-2.485336e-004
1.772289e+003,-1.378489e-004
1.774218e+003,-1.510318e-004
1.776146e+003,-2.628722e-004
1.778075e+003,-4.006707e-004
1.780003e+003,-4.455236e-004
1.781932e+003,-4.121244e-004
1.783860e+003,-3.437952e-004
1.785789e+003,-3.472053e-004
1.787717e+003,-3.666390e-004
1.789646e+003,-3.118119e-004
1.791574e+003,-1.950494e-004
1.793503e+003,-1.840537e-004
1.795431e+003,-2.804222e-004
1.797360e+003,-2.774090e-004
1.799288e+003,-2.717797e-004
1.801217e+003,-3.266119e-004
1.803145e+003,-3.706448e-004
1.805074e+003,-2.651570e-004
1.807002e+003,-2.273063e-004
1.808931e+003,-2.364464e-004
1.810859e+003,-2.059455e-004
1.812788e+003,-2.217758e-004
1.814716e+003,-2.792302e-004
1.816645e+003,-2.304192e-004
1.818573e+003,-2.053825e-004
1.820502e+003,-2.205835e-004
1.822430e+003,-2.179673e-004
1.824359e+003,-1.439435e-004
1.826287e+003,-9.084403e-005
1.828216e+003,-7.620161e-005
1.830144e+003,-9.561431e-005
1.832073e+003,-2.858858e-004
1.834001e+003,-3.364452e-004
1.835930e+003,-3.728629e-004
1.837858e+003,-4.195724e-004
1.839787e+003,-3.724988e-004
1.841715e+003,-3.264133e-004
1.843644e+003,-2.477057e-004
1.845572e+003,-3.607130e-004
1.847501e+003,-5.081444e-004
1.849429e+003,-5.102626e-004
1.851358e+003,-4.534345e-004
1.853286e+003,-3.796164e-004
1.855215e+003,-3.180697e-004
1.857143e+003,-2.768791e-004
1.859072e+003,-2.984683e-004
1.861000e+003,-3.497877e-004
1.862929e+003,-3.861381e-004
1.864857e+003,-3.789212e-004
1.866786e+003,-3.829931e-004
1.868714e+003,-3.180697e-004
1.870643e+003,-3.375378e-004
1.872571e+003,-4.341039e-004
1.874500e+003,-4.094100e-004
1.876428e+003,-3.979562e-004
1.878357e+003,-3.624676e-004
1.880285e+003,-2.661835e-004
1.882214e+003,-2.090586e-004
1.884142e+003,-1.496407e-004
1.886071e+003,-1.506675e-004
1.887999e+003,-1.367558e-004
1.889928e+003,-1.870014e-004
1.891856e+003,-2.983027e-004
1.893785e+003,-2.849586e-004
1.895713e+003,-2.961505e-004
1.897642e+003,-2.927731e-004
1.899570e+003,-1.563314e-004
1.901499e+003,-1.467921e-004
1.903427e+003,-2.167750e-004
1.905356e+003,-2.353867e-004
1.907284e+003,-2.543287e-004
1.909213e+003,-2.789653e-004
1.911141e+003,-3.096928e-004
1.913070e+003,-2.565474e-004
1.914998e+003,-1.572588e-004
1.916927e+003,-1.141318e-004
1.918855e+003,-1.695138e-004
1.920784e+003,-2.225043e-004
1.922712e+003,-2.397911e-004
1.924641e+003,-3.041633e-004
1.926569e+003,-2.514808e-004
1.928498e+003,-2.455201e-004
1.930426e+003,-2.514477e-004
1.932355e+003,-3.315120e-004
1.934283e+003,-4.473441e-004
1.936212e+003,-4.818991e-004
1.938140e+003,-4.563472e-004
1.940069e+003,-3.278038e-004
1.941997e+003,-1.868027e-004
1.943926e+003,-2.087937e-004
1.945854e+003,-2.688326e-004
1.947783e+003,-2.017063e-004
1.949711e+003,-1.761380e-004
1.951640e+003,-1.969372e-004
1.953568e+003,-2.974418e-004
1.955497e+003,-4.090127e-004
1.957425e+003,-4.416509e-004
1.959354e+003,-3.200894e-004
1.961282e+003,-2.720115e-004
1.963211e+003,-3.589583e-004
1.965139e+003,-3.591901e-004
1.967068e+003,-2.849586e-004
1.968996e+003,-3.143945e-004
1.970925e+003,-3.433317e-004
1.972853e+003,-3.179041e-004
1.974782e+003,-3.277045e-004
1.976710e+003,-3.624676e-004
1.978639e+003,-3.202549e-004
1.980567e+003,-3.663411e-004
1.982496e+003,-4.777619e-004
1.984424e+003,-3.975259e-004
1.986353e+003,-2.738328e-004
1.988281e+003,-3.288965e-004
1.990210e+003,-4.126871e-004
1.992138e+003,-3.994459e-004
1.994067e+003,-4.157987e-004
1.995995e+003,-4.673360e-004
1.997924e+003,-5.113547e-004
1.999852e+003,-4.258617e-004
2.001781e+003,-3.756107e-004
2.003709e+003,-3.371074e-004
2.005638e+003,-3.340614e-004
2.007566e+003,-2.794288e-004
2.009495e+003,-2.772103e-004
2.011423e+003,-3.534626e-004
2.013352e+003,-3.175730e-004
2.015280e+003,-3.523369e-004
2.017208e+003,-3.488607e-004
2.019137e+003,-2.773427e-004
2.021066e+003,-2.884685e-004
2.022994e+003,-3.440932e-004
2.024922e+003,-3.671025e-004
2.026851e+003,-3.093948e-004
2.028780e+003,-2.371418e-004
2.030708e+003,-1.676921e-004
2.032636e+003,-7.355134e-005
2.034565e+003,-1.086992e-004
2.036494e+003,-2.027992e-004
2.038422e+003,-2.354860e-004
2.040350e+003,-2.381353e-004
2.042279e+003,-2.130327e-004
2.044208e+003,-2.599250e-004
2.046136e+003,-2.672101e-004
2.048064e+003,-2.396255e-004
2.049993e+003,-1.844180e-004
2.051921e+003,-1.625252e-004
2.053850e+003,-1.493757e-004
2.055778e+003,-1.505681e-004
2.057707e+003,-1.325822e-004
2.059635e+003,-1.697125e-004
2.061564e+003,-2.158478e-004
2.063492e+003,-3.202549e-004
2.065421e+003,-2.837666e-004
2.067349e+003,-1.355633e-004
2.069278e+003,-2.266440e-004
2.071206e+003,-2.242264e-004
2.073135e+003,-1.274811e-004
2.075063e+003,-4.022286e-005
2.076992e+003,2.263114e-005
2.078920e+003,-2.541306e-005
2.080849e+003,-1.158874e-004
2.082777e+003,-1.069435e-004
2.084706e+003,-6.076358e-005
2.086634e+003,-5.513154e-005
2.088563e+003,-6.573296e-005
2.090491e+003,-4.886996e-005
2.092420e+003,-2.319321e-005
2.094348e+003,1.077653e-004
2.096277e+003,1.107149e-004
2.098205e+003,5.013469e-005
2.100134e+003,7.190682e-005
2.102062e+003,1.278499e-004
2.103991e+003,6.736672e-005
2.105919e+003,3.207494e-005
2.107848e+003,2.284862e-004
2.109776e+003,2.759617e-004
2.111705e+003,1.403785e-004
2.113633e+003,1.573821e-004
2.115562e+003,2.303095e-004
2.117490e+003,2.297459e-004
2.119419e+003,2.697949e-004
2.121347e+003,2.188392e-004
2.123276e+003,1.473058e-004
2.125204e+003,2.003415e-004
2.127133e+003,2.451948e-004
2.129061e+003,3.203918e-004
2.130990e+003,4.073420e-004
2.132918e+003,3.318316e-004
2.134847e+003,2.582241e-004
2.136775e+003,3.084217e-004
2.138704e+003,3.545464e-004
2.140632e+003,3.137601e-004
2.142561e+003,2.980435e-004
2.144489e+003,2.759948e-004
2.146418e+003,2.757628e-004
2.148346e+003,3.598853e-004
2.150275e+003,4.819368e-004
2.152203e+003,4.973615e-004
2.154132e+003,4.339745e-004
2.156060e+003,3.488427e-004
2.157989e+003,3.685406e-004
2.159917e+003,3.488759e-004
2.161846e+003,3.738134e-004
2.163774e+003,4.352348e-004
2.165703e+003,4.190495e-004
2.167631e+003,4.538420e-004
2.169560e+003,5.545871e-004
2.171488e+003,6.121850e-004
2.173417e+003,5.558477e-004
2.175345e+003,5.214782e-004
2.177274e+003,5.395915e-004
2.179202e+003,6.083029e-004
2.181131e+003,5.987802e-004
2.183059e+003,5.624167e-004
2.184988e+003,6.334876e-004
2.186916e+003,6.427788e-004
2.188845e+003,5.638102e-004
2.190773e+003,4.736110e-004
2.192702e+003,4.531455e-004
2.194630e+003,4.814724e-004
2.196559e+003,5.274496e-004
2.198487e+003,5.652368e-004
2.200416e+003,5.175970e-004
2.202344e+003,5.136493e-004
2.204273e+003,4.903291e-004
2.206201e+003,4.671429e-004
2.208130e+003,5.650045e-004
2.210058e+003,5.462599e-004
2.211987e+003,4.432282e-004
2.213915e+003,2.663799e-004
2.215844e+003,2.953578e-004
2.217772e+003,4.554341e-004
2.219701e+003,4.988874e-004
2.221629e+003,4.756676e-004
2.223558e+003,4.509896e-004
2.225486e+003,5.237009e-004
2.227415e+003,5.665970e-004
2.229343e+003,5.209143e-004
2.231272e+003,4.544391e-004
2.233200e+003,5.016076e-004
2.235129e+003,5.145450e-004
2.237057e+003,4.004438e-004
2.238986e+003,3.943084e-004
2.240914e+003,4.133781e-004
2.242843e+003,4.531124e-004
2.244771e+003,4.045893e-004
2.246700e+003,3.976911e-004
2.248628e+003,4.720189e-004
2.250557e+003,3.657550e-004
2.252485e+003,2.709553e-004
2.254414e+003,2.110820e-004
2.256342e+003,1.823418e-004
2.258271e+003,2.583898e-004
2.260199e+003,3.100796e-004
2.262128e+003,3.562708e-004
2.264056e+003,4.016045e-004
2.265985e+003,4.002116e-004
2.267913e+003,3.663187e-004
2.269842e+003,3.917216e-004
2.271770e+003,3.816730e-004
2.273699e+003,3.421775e-004
2.275627e+003,2.593513e-004
2.277556e+003,1.983194e-004
2.279484e+003,2.664131e-004
2.281413e+003,3.782240e-004
2.283341e+003,3.422769e-004
2.285270e+003,3.949385e-004
2.287198e+003,4.239249e-004
2.289127e+003,5.327575e-004
2.291055e+003,6.042217e-004
2.292984e+003,6.168304e-004
2.294912e+003,6.326913e-004
2.296841e+003,7.624536e-004
2.298769e+003,9.761315e-004
2.300698e+003,1.131243e-003
2.302626e+003,1.292525e-003
2.304555e+003,1.437478e-003
2.306483e+003,1.645701e-003
2.308412e+003,1.883208e-003
2.310340e+003,2.205825e-003
2.312269e+003,2.687050e-003
2.314197e+003,3.194409e-003
2.316125e+003,3.768000e-003
2.318054e+003,4.328761e-003
2.319983e+003,4.931935e-003
2.321911e+003,5.666277e-003
2.323840e+003,6.363262e-003
2.325768e+003,6.849758e-003
2.327697e+003,7.382801e-003
2.329625e+003,8.069249e-003
2.331553e+003,8.364911e-003
2.333482e+003,8.388794e-003
2.335411e+003,8.469266e-003
2.337339e+003,8.699379e-003
2.339268e+003,8.928262e-003
2.341196e+003,8.732712e-003
2.343125e+003,8.124375e-003
2.345053e+003,6.834577e-003
2.346981e+003,4.835296e-003
2.348910e+003,3.694342e-003
2.350839e+003,5.061580e-003
2.352767e+003,7.580037e-003
2.354696e+003,9.503080e-003
2.356624e+003,1.077159e-002
2.358552e+003,1.148768e-002
2.360481e+003,1.160915e-002
2.362409e+003,1.158282e-002
2.364338e+003,1.136943e-002
2.366267e+003,1.068570e-002
2.368195e+003,9.665604e-003
2.370124e+003,8.398826e-003
2.372052e+003,7.016108e-003
2.373980e+003,5.645935e-003
2.375909e+003,4.187391e-003
2.377838e+003,2.880663e-003
2.379766e+003,1.857085e-003
2.381695e+003,1.225068e-003
2.383623e+003,1.020434e-003
2.385552e+003,8.120125e-004
2.387480e+003,5.966567e-004
2.389408e+003,7.006872e-004
2.391337e+003,8.097551e-004
2.393266e+003,6.915939e-004
2.395194e+003,7.095152e-004
2.397123e+003,7.991990e-004
2.399051e+003,8.557671e-004
2.400979e+003,8.566966e-004
2.402908e+003,8.299387e-004
2.404836e+003,8.068007e-004
2.406765e+003,7.916638e-004
2.408694e+003,7.568441e-004
2.410622e+003,7.666691e-004
2.412551e+003,8.114150e-004
2.414479e+003,8.756539e-004
2.416407e+003,9.670989e-004
2.418336e+003,9.960572e-004
2.420264e+003,9.053034e-004
2.422193e+003,9.331949e-004
2.424122e+003,1.002234e-003
2.426050e+003,1.016349e-003
2.427979e+003,1.034848e-003
2.429907e+003,1.096230e-003
2.431835e+003,1.108355e-003
2.433764e+003,1.181841e-003
2.435692e+003,1.192340e-003
2.437621e+003,1.165262e-003
2.439550e+003,1.168518e-003
2.441478e+003,1.231116e-003
2.443406e+003,1.321505e-003
2.445335e+003,1.359727e-003
2.447263e+003,1.334035e-003
2.449192e+003,1.282390e-003
2.451121e+003,1.293024e-003
2.453049e+003,1.319677e-003
2.454978e+003,1.343541e-003
2.456906e+003,1.424845e-003
2.458834e+003,1.449379e-003
2.460763e+003,1.389510e-003
2.462691e+003,1.304190e-003
2.464620e+003,1.307348e-003
2.466549e+003,1.388246e-003
2.468477e+003,1.435716e-003
2.470406e+003,1.448183e-003
2.472334e+003,1.359628e-003
2.474262e+003,1.312731e-003
2.476191e+003,1.356271e-003
2.478119e+003,1.379238e-003
2.480048e+003,1.354143e-003
2.481977e+003,1.406396e-003
2.483905e+003,1.500779e-003
2.485833e+003,1.509922e-003
2.487762e+003,1.562426e-003
2.489690e+003,1.543672e-003
2.491619e+003,1.551952e-003
2.493547e+003,1.700317e-003
2.495476e+003,1.769179e-003
2.497405e+003,1.756104e-003
2.499333e+003,1.658373e-003
2.501261e+003,1.516107e-003
2.503190e+003,1.575030e-003
2.505118e+003,1.759631e-003
2.507047e+003,1.746091e-003
2.508975e+003,1.684916e-003
2.510904e+003,1.731653e-003
2.512833e+003,1.812564e-003
2.514761e+003,1.790738e-003
2.516689e+003,1.734713e-003
2.518618e+003,1.721706e-003
2.520546e+003,1.771009e-003
2.522475e+003,1.757302e-003
2.524403e+003,1.751014e-003
2.526332e+003,1.726097e-003
2.528260e+003,1.781189e-003
2.530189e+003,1.849332e-003
2.532117e+003,1.749617e-003
2.534046e+003,1.677166e-003
2.535974e+003,1.796095e-003
2.537903e+003,1.834458e-003
2.539831e+003,1.885804e-003
2.541760e+003,1.913192e-003
2.543688e+003,1.938819e-003
2.545617e+003,1.954762e-003
2.547545e+003,1.968641e-003
2.549474e+003,1.963116e-003
2.551402e+003,1.928701e-003
2.553331e+003,1.935724e-003
2.555259e+003,1.951067e-003
2.557188e+003,1.954995e-003
2.559116e+003,1.934259e-003
2.561045e+003,1.981256e-003
2.562973e+003,2.049730e-003
2.564902e+003,2.027625e-003
2.566830e+003,2.034949e-003
2.568759e+003,1.994071e-003
2.570687e+003,2.038944e-003
2.572616e+003,2.194069e-003
2.574544e+003,2.233101e-003
2.576473e+003,2.140723e-003
2.578401e+003,2.094208e-003
2.580330e+003,2.037379e-003
2.582258e+003,2.044370e-003
2.584187e+003,2.094308e-003
2.586115e+003,2.075065e-003
2.588044e+003,2.053026e-003
2.589972e+003,2.208589e-003
2.591901e+003,2.276999e-003
2.593829e+003,2.216549e-003
2.595758e+003,2.118381e-003
2.597686e+003,2.023664e-003
2.599615e+003,2.056388e-003
2.601543e+003,2.143320e-003
2.603472e+003,2.191971e-003
2.605400e+003,2.216549e-003
2.607329e+003,2.235532e-003
2.609257e+003,2.252385e-003
2.611186e+003,2.274767e-003
2.613114e+003,2.268139e-003
2.615043e+003,2.249221e-003
2.616971e+003,2.289257e-003
2.618900e+003,2.366574e-003
2.620828e+003,2.418015e-003
2.622757e+003,2.531548e-003
2.624685e+003,2.522317e-003
2.626614e+003,2.482359e-003
2.628542e+003,2.539980e-003
2.630471e+003,2.555812e-003
2.632399e+003,2.540947e-003
2.634328e+003,2.556412e-003
2.636256e+003,2.598509e-003
2.638185e+003,2.792916e-003
2.640113e+003,2.857649e-003
2.642042e+003,2.749300e-003
2.643970e+003,2.775709e-003
2.645899e+003,2.796084e-003
2.647827e+003,2.764572e-003
2.649756e+003,2.904946e-003
2.651684e+003,3.065287e-003
2.653613e+003,3.034789e-003
2.655541e+003,3.014870e-003
2.657470e+003,3.021776e-003
2.659398e+003,3.053775e-003
2.661327e+003,3.070425e-003
2.663255e+003,3.114742e-003
2.665184e+003,3.169076e-003
2.667112e+003,3.269785e-003
2.669041e+003,3.326175e-003
2.670969e+003,3.338195e-003
2.672898e+003,3.242744e-003
2.674826e+003,3.194242e-003
2.676755e+003,3.271554e-003
2.678683e+003,3.355825e-003
2.680612e+003,3.365642e-003
2.682540e+003,3.387281e-003
2.684469e+003,3.444721e-003
2.686397e+003,3.540684e-003
2.688326e+003,3.634797e-003
2.690254e+003,3.740661e-003
2.692183e+003,3.743535e-003
2.694111e+003,3.698720e-003
2.696040e+003,3.607734e-003
2.697968e+003,3.651838e-003
2.699897e+003,3.814126e-003
2.701825e+003,3.824020e-003
2.703754e+003,3.851297e-003
2.705682e+003,4.015800e-003
2.707611e+003,4.109247e-003
2.709539e+003,4.176284e-003
2.711468e+003,4.191137e-003
2.713396e+003,4.207464e-003
2.715325e+003,4.322637e-003
2.717253e+003,4.381473e-003
2.719182e+003,4.437639e-003
2.721110e+003,4.549793e-003
2.723039e+003,4.589874e-003
2.724967e+003,4.618204e-003
2.726896e+003,4.678487e-003
2.728824e+003,4.677081e-003
2.730753e+003,4.782863e-003
2.732681e+003,4.912029e-003
2.734610e+003,4.997625e-003
2.736538e+003,5.001546e-003
2.738467e+003,5.033054e-003
2.740395e+003,5.152268e-003
2.742324e+003,5.243176e-003
2.744252e+003,5.271884e-003
2.746181e+003,5.328502e-003
2.748109e+003,5.449877e-003
2.750038e+003,5.621968e-003
2.751966e+003,5.817130e-003
2.753895e+003,5.890712e-003
2.755823e+003,5.927087e-003
2.757752e+003,6.019300e-003
2.759680e+003,6.164931e-003
2.761609e+003,6.400350e-003
2.763537e+003,6.736605e-003
2.765466e+003,6.981729e-003
2.767394e+003,7.208764e-003
2.769323e+003,7.525957e-003
2.771251e+003,7.968534e-003
2.773180e+003,8.296414e-003
2.775108e+003,8.672303e-003
2.777037e+003,9.172088e-003
2.778965e+003,9.655711e-003
2.780894e+003,1.027115e-002
2.782822e+003,1.099188e-002
2.784750e+003,1.167072e-002
2.786679e+003,1.240077e-002
2.788608e+003,1.306573e-002
2.790536e+003,1.374266e-002
2.792465e+003,1.447388e-002
2.794393e+003,1.517026e-002
2.796322e+003,1.587196e-002
2.798250e+003,1.651066e-002
2.800178e+003,1.718071e-002
2.802107e+003,1.779863e-002
2.804036e+003,1.840972e-002
2.805964e+003,1.882706e-002
2.807893e+003,1.915563e-002
2.809821e+003,1.947745e-002
2.811750e+003,1.958814e-002
2.813678e+003,1.954530e-002
2.815606e+003,1.950153e-002
2.817535e+003,1.932399e-002
2.819464e+003,1.904774e-002
2.821392e+003,1.878610e-002
2.823321e+003,1.843852e-002
2.825249e+003,1.798867e-002
2.827177e+003,1.738355e-002
2.829106e+003,1.675272e-002
2.831034e+003,1.617322e-002
2.832963e+003,1.561723e-002
2.834892e+003,1.526706e-002
2.836820e+003,1.474860e-002
2.838749e+003,1.395482e-002
2.840677e+003,1.322038e-002
2.842605e+003,1.267422e-002
2.844534e+003,1.204116e-002
2.846462e+003,1.123102e-002
2.848391e+003,1.045911e-002
2.850320e+003,9.868591e-003
2.852248e+003,9.605268e-003
2.854177e+003,9.521130e-003
2.856105e+003,9.506466e-003
2.858033e+003,9.509582e-003
2.859962e+003,9.567025e-003
2.861890e+003,9.534712e-003
2.863819e+003,9.538844e-003
2.865748e+003,9.555440e-003
2.867676e+003,9.579591e-003
2.869604e+003,9.696063e-003
2.871533e+003,9.817581e-003
2.873461e+003,9.936421e-003
2.875390e+003,9.992632e-003
2.877319e+003,1.012461e-002
2.879247e+003,1.032435e-002
2.881176e+003,1.043183e-002
2.883104e+003,1.050487e-002
2.885032e+003,1.051807e-002
2.886961e+003,1.039914e-002
2.888889e+003,1.026077e-002
2.890818e+003,1.004465e-002
2.892747e+003,9.950321e-003
2.894675e+003,9.899097e-003
2.896604e+003,9.825681e-003
2.898532e+003,9.714291e-003
2.900460e+003,9.689218e-003
2.902389e+003,9.702162e-003
2.904317e+003,9.608622e-003
2.906246e+003,9.490582e-003
2.908175e+003,9.391400e-003
2.910103e+003,9.287670e-003
2.912031e+003,9.147993e-003
2.913960e+003,8.883889e-003
2.915888e+003,8.623157e-003
2.917817e+003,8.573510e-003
2.919745e+003,8.828904e-003
2.921674e+003,9.167993e-003
2.923603e+003,9.491903e-003
2.925531e+003,9.796806e-003
2.927459e+003,1.008758e-002
2.929388e+003,1.032021e-002
2.931316e+003,1.061459e-002
2.933245e+003,1.097136e-002
2.935173e+003,1.119400e-002
2.937102e+003,1.126020e-002
2.939031e+003,1.137484e-002
2.940959e+003,1.145175e-002
2.942887e+003,1.131474e-002
2.944816e+003,1.111920e-002
2.946744e+003,1.101231e-002
2.948673e+003,1.084687e-002
2.950601e+003,1.042470e-002
2.952530e+003,9.960559e-003
2.954458e+003,9.476630e-003
2.956387e+003,8.867116e-003
2.958315e+003,8.281926e-003
2.960244e+003,7.702043e-003
2.962172e+003,7.123170e-003
2.964101e+003,6.571069e-003
2.966029e+003,6.126116e-003
2.967958e+003,5.641336e-003
2.969886e+003,5.182379e-003
2.971815e+003,4.813116e-003
2.973743e+003,4.476371e-003
2.975672e+003,4.164207e-003
2.977600e+003,3.853437e-003
2.979529e+003,3.575327e-003
2.981457e+003,3.338462e-003
2.983386e+003,3.060448e-003
2.985314e+003,2.844408e-003
2.987243e+003,2.764138e-003
2.989171e+003,2.582243e-003
2.991100e+003,2.266374e-003
2.993028e+003,2.155874e-003
2.994957e+003,2.237630e-003
2.996885e+003,2.237730e-003
2.998814e+003,2.138326e-003
3.000742e+003,2.063745e-003
3.002671e+003,1.899648e-003
3.004599e+003,1.755938e-003
3.006528e+003,1.823478e-003
3.008456e+003,1.866336e-003
3.010385e+003,1.754308e-003
3.012313e+003,1.650291e-003
3.014242e+003,1.662032e-003
3.016170e+003,1.719411e-003
3.018099e+003,1.710064e-003
3.020027e+003,1.503771e-003
3.021956e+003,1.383892e-003
3.023884e+003,1.337292e-003
3.025813e+003,1.344338e-003
3.027741e+003,1.242912e-003
3.029670e+003,1.221446e-003
3.031598e+003,1.286510e-003
3.033527e+003,1.325826e-003
3.035455e+003,1.368103e-003
3.037384e+003,1.392468e-003
3.039312e+003,1.384723e-003
3.041241e+003,1.223706e-003
3.043169e+003,9.959243e-004
3.045098e+003,9.089558e-004
3.047026e+003,9.751353e-004
3.048955e+003,1.046805e-003
3.050883e+003,1.082080e-003
3.052812e+003,1.019637e-003
3.054740e+003,9.067975e-004
3.056669e+003,8.922879e-004
3.058597e+003,8.929852e-004
3.060526e+003,8.409604e-004
3.062454e+003,8.060040e-004
3.064383e+003,8.756872e-004
3.066311e+003,8.763180e-004
3.068240e+003,9.519231e-004
3.070168e+003,8.261210e-004
3.072097e+003,5.733984e-004
3.074025e+003,4.889359e-004
3.075954e+003,3.757037e-004
3.077882e+003,3.848235e-004
3.079811e+003,5.558809e-004
3.081739e+003,5.882623e-004
3.083668e+003,5.636111e-004
3.085596e+003,4.313211e-004
3.087525e+003,2.906165e-004
3.089453e+003,3.580615e-004
3.091382e+003,3.633673e-004
3.093310e+003,3.658876e-004
3.095239e+003,3.641632e-004
3.097167e+003,2.824601e-004
3.099096e+003,3.244703e-004
3.101024e+003,3.614439e-004
3.102953e+003,3.393588e-004
3.104881e+003,2.555055e-004
3.106810e+003,2.827585e-004
3.108738e+003,3.091180e-004
3.110667e+003,3.363413e-004
3.112595e+003,2.842174e-004
3.114524e+003,1.996122e-004
3.116452e+003,6.262785e-005
3.118381e+003,1.588074e-004
3.120309e+003,1.792590e-004
3.122238e+003,2.053139e-004
3.124166e+003,2.675072e-004
3.126095e+003,2.093913e-004
3.128023e+003,1.793585e-004
3.129952e+003,1.681878e-004
3.131880e+003,1.055116e-004
3.133809e+003,2.042200e-004
3.135737e+003,2.500352e-004
3.137666e+003,1.617574e-004
3.139594e+003,1.643428e-004
3.141523e+003,2.000431e-004
3.143451e+003,2.216570e-004
3.145380e+003,1.903968e-004
3.147308e+003,1.065721e-004
3.149237e+003,1.426655e-004
3.151165e+003,1.811816e-004
3.153094e+003,2.246075e-004
3.155022e+003,2.660816e-004
3.156951e+003,1.389533e-004
3.158879e+003,9.977805e-005
3.160808e+003,2.763595e-004
3.162736e+003,3.162138e-004
3.164665e+003,2.549418e-004
3.166593e+003,1.601995e-004
3.168522e+003,9.003452e-005
3.170450e+003,2.103858e-004
3.172379e+003,1.807175e-004
3.174307e+003,2.664058e-005
3.176236e+003,1.889051e-004
3.178164e+003,3.263272e-004
3.180093e+003,2.219885e-004
3.182021e+003,1.621220e-004
3.183950e+003,3.047744e-004
3.185878e+003,3.580615e-004
3.187807e+003,4.625323e-004
3.189735e+003,5.566108e-004
3.191664e+003,3.472841e-004
3.193592e+003,2.322323e-004
3.195521e+003,2.827254e-004
3.197449e+003,3.309363e-004
3.199378e+003,3.310689e-004
3.201306e+003,2.544777e-004
3.203235e+003,2.564338e-004
3.205163e+003,2.345529e-004
3.207092e+003,1.599675e-004
3.209020e+003,3.166117e-004
3.210948e+003,4.855525e-004
3.212877e+003,5.412835e-004
3.214806e+003,5.279804e-004
3.216734e+003,4.030969e-004
3.218663e+003,3.714920e-004
3.220591e+003,4.921536e-004
3.222520e+003,6.346822e-004
3.224448e+003,6.342840e-004
3.226376e+003,6.279462e-004
3.228305e+003,7.684946e-004
3.230234e+003,8.915575e-004
3.232162e+003,7.542552e-004
3.234091e+003,7.747349e-004
3.236019e+003,8.328601e-004
3.237948e+003,7.465548e-004
3.239876e+003,8.328269e-004
3.241804e+003,1.099120e-003
3.243733e+003,1.252216e-003
3.245662e+003,1.292559e-003
3.247590e+003,1.392202e-003
3.249519e+003,1.386053e-003
3.251447e+003,1.385355e-003
3.253375e+003,1.285547e-003
3.255304e+003,1.279930e-003
3.257232e+003,1.504237e-003
3.259161e+003,1.632164e-003
3.261090e+003,1.632697e-003
3.263018e+003,1.611678e-003
3.264947e+003,1.560099e-003
3.266875e+003,1.506664e-003
3.268803e+003,1.679794e-003
3.270732e+003,1.743330e-003
3.272660e+003,1.769944e-003
3.274589e+003,1.802882e-003
3.276518e+003,1.746324e-003
3.278446e+003,1.779226e-003
3.280375e+003,1.914557e-003
3.282303e+003,1.956159e-003
3.284231e+003,2.049830e-003
3.286160e+003,2.013644e-003
3.288088e+003,1.858516e-003
3.290017e+003,1.698820e-003
3.291946e+003,1.789807e-003
3.293874e+003,1.759564e-003
3.295802e+003,1.547330e-003
3.297731e+003,1.490937e-003
3.299659e+003,1.516639e-003
3.301588e+003,1.473815e-003
3.303516e+003,1.333204e-003
3.305445e+003,1.305719e-003
3.307374e+003,1.346765e-003
3.309302e+003,1.183403e-003
3.311230e+003,1.039963e-003
3.313159e+003,9.724454e-004
3.315087e+003,8.494592e-004
3.317016e+003,8.207763e-004
3.318944e+003,7.267402e-004
3.320873e+003,5.920448e-004
3.322802e+003,5.301036e-004
3.324730e+003,4.665127e-004
3.326658e+003,4.743408e-004
3.328587e+003,4.866471e-004
3.330515e+003,2.981098e-004
3.332444e+003,1.722973e-006
3.334372e+003,-6.997345e-005
3.336301e+003,1.032911e-004
3.338229e+003,1.693811e-004
3.340158e+003,-5.933901e-005
3.342086e+003,-6.632928e-005
3.344015e+003,-9.899322e-005
3.345943e+003,-2.266309e-005
3.347872e+003,-2.312694e-005
3.349800e+003,-2.632364e-004
3.351729e+003,-3.746175e-004
3.353657e+003,-3.449209e-004
3.355586e+003,-2.921440e-004
3.357514e+003,-3.394250e-004
3.359443e+003,-5.328659e-004
3.361371e+003,-6.594298e-004
3.363300e+003,-5.902130e-004
3.365229e+003,-6.064594e-004
3.367157e+003,-8.228990e-004
3.369085e+003,-1.006406e-003
3.371014e+003,-1.159600e-003
3.372942e+003,-1.094792e-003
3.374871e+003,-1.030603e-003
3.376799e+003,-9.736119e-004
3.378728e+003,-1.058435e-003
3.380656e+003,-1.218021e-003
3.382585e+003,-1.306430e-003
3.384513e+003,-1.352247e-003
3.386442e+003,-1.428674e-003
3.388370e+003,-1.483921e-003
3.390299e+003,-1.489964e-003
3.392227e+003,-1.451956e-003
3.394156e+003,-1.571385e-003
3.396084e+003,-1.562372e-003
3.398013e+003,-1.722400e-003
3.399941e+003,-1.909387e-003
3.401870e+003,-1.862936e-003
3.403798e+003,-1.801995e-003
3.405727e+003,-1.805295e-003
3.407655e+003,-1.823113e-003
3.409584e+003,-1.800015e-003
3.411512e+003,-1.835255e-003
3.413441e+003,-2.043894e-003
3.415369e+003,-2.194942e-003
3.417298e+003,-2.174304e-003
3.419226e+003,-2.121716e-003
3.421155e+003,-2.053589e-003
3.423083e+003,-2.113110e-003
3.425012e+003,-2.093227e-003
3.426940e+003,-2.067143e-003
3.428869e+003,-2.177436e-003
3.430797e+003,-2.222864e-003
3.432726e+003,-2.209018e-003
3.434654e+003,-2.087093e-003
3.436583e+003,-2.190425e-003
3.438511e+003,-2.292447e-003
3.440440e+003,-2.158479e-003
3.442368e+003,-2.276956e-003
3.444297e+003,-2.426967e-003
3.446225e+003,-2.293963e-003
3.448154e+003,-2.176810e-003
3.450082e+003,-2.196656e-003
3.452011e+003,-2.286383e-003
3.453939e+003,-2.419191e-003
3.455868e+003,-2.389404e-003
3.457796e+003,-2.402024e-003
3.459725e+003,-2.585096e-003
3.461653e+003,-2.494047e-003
3.463582e+003,-2.398432e-003
3.465510e+003,-2.573798e-003
3.467439e+003,-2.636146e-003
3.469367e+003,-2.580023e-003
3.471296e+003,-2.507884e-003
3.473224e+003,-2.366106e-003
3.475153e+003,-2.398235e-003
3.477081e+003,-2.411778e-003
3.479010e+003,-2.483571e-003
3.480938e+003,-2.680472e-003
3.482867e+003,-2.743101e-003
3.484795e+003,-2.489764e-003
3.486724e+003,-2.463144e-003
3.488652e+003,-2.626760e-003
3.490581e+003,-2.555649e-003
3.492509e+003,-2.454974e-003
3.494438e+003,-2.430757e-003
3.496366e+003,-2.434941e-003
3.498295e+003,-2.523466e-003
3.500223e+003,-2.564608e-003
3.502152e+003,-2.604627e-003
3.504080e+003,-2.639637e-003
3.506009e+003,-2.622248e-003
3.507937e+003,-2.524981e-003
3.509866e+003,-2.566354e-003
3.511794e+003,-2.610292e-003
3.513723e+003,-2.639736e-003
3.515651e+003,-2.664171e-003
3.517580e+003,-2.677344e-003
3.519508e+003,-2.717023e-003
3.521437e+003,-2.678694e-003
3.523365e+003,-2.704675e-003
3.525294e+003,-2.879325e-003
3.527222e+003,-2.948112e-003
3.529151e+003,-3.004943e-003
3.531079e+003,-3.025969e-003
3.533008e+003,-2.836862e-003
3.534936e+003,-2.701547e-003
3.536865e+003,-2.670757e-003
3.538793e+003,-2.878996e-003
3.540722e+003,-3.043014e-003
3.542650e+003,-3.062294e-003
3.544579e+003,-2.924317e-003
3.546507e+003,-2.583021e-003
3.548436e+003,-2.552289e-003
3.550364e+003,-2.685741e-003
3.552293e+003,-2.741817e-003
3.554221e+003,-2.721238e-003
3.556150e+003,-2.749521e-003
3.558078e+003,-2.789655e-003
3.560007e+003,-2.867804e-003
3.561935e+003,-2.866652e-003
3.563864e+003,-2.824584e-003
3.565792e+003,-2.761275e-003
3.567721e+003,-2.803350e-003
3.569649e+003,-2.829521e-003
3.571578e+003,-2.698386e-003
3.573506e+003,-2.723147e-003
3.575435e+003,-2.860135e-003
3.577363e+003,-2.878008e-003
3.579292e+003,-2.886566e-003
3.581220e+003,-2.985298e-003
3.583149e+003,-3.034689e-003
3.585077e+003,-2.928431e-003
3.587006e+003,-2.788667e-003
3.588934e+003,-2.932743e-003
3.590863e+003,-3.105063e-003
3.592791e+003,-2.979540e-003
3.594720e+003,-2.750970e-003
3.596648e+003,-2.611116e-003
3.598577e+003,-2.868923e-003
3.600505e+003,-2.947651e-003
3.602434e+003,-2.918854e-003
3.604362e+003,-2.992867e-003
3.606291e+003,-2.981284e-003
3.608219e+003,-2.900028e-003
3.610148e+003,-2.871293e-003
3.612076e+003,-2.911350e-003
3.614005e+003,-3.135625e-003
3.615933e+003,-3.157598e-003
3.617862e+003,-3.028701e-003
3.619790e+003,-3.055714e-003
3.621719e+003,-3.065288e-003
3.623647e+003,-3.184077e-003
3.625576e+003,-3.110163e-003
3.627504e+003,-2.653205e-003
3.629433e+003,-2.418302e-003
3.631361e+003,-2.871688e-003
3.633290e+003,-3.162039e-003
3.635218e+003,-3.206378e-003
3.637146e+003,-3.136316e-003
3.639075e+003,-3.205358e-003
3.641004e+003,-3.393253e-003
3.642932e+003,-3.464128e-003
3.644861e+003,-3.589381e-003
3.646789e+003,-3.373625e-003
3.648718e+003,-2.960979e-003
3.650646e+003,-3.126710e-003
3.652574e+003,-3.628878e-003
3.654503e+003,-3.506135e-003
3.656432e+003,-3.186742e-003
3.658360e+003,-3.387302e-003
3.660289e+003,-3.592108e-003
3.662217e+003,-3.687954e-003
3.664146e+003,-3.698795e-003
3.666074e+003,-3.684635e-003
3.668002e+003,-3.532428e-003
3.669931e+003,-3.469585e-003
3.671860e+003,-3.597300e-003
3.673788e+003,-3.329074e-003
3.675717e+003,-3.118091e-003
3.677645e+003,-3.553396e-003
3.679573e+003,-3.697087e-003
3.681502e+003,-3.640510e-003
3.683430e+003,-3.523818e-003
3.685359e+003,-3.413340e-003
3.687288e+003,-3.268569e-003
3.689216e+003,-3.117828e-003
3.691145e+003,-3.331244e-003
3.693073e+003,-3.532691e-003
3.695001e+003,-3.542912e-003
3.696930e+003,-3.472510e-003
3.698858e+003,-3.380300e-003
3.700787e+003,-3.207298e-003
3.702716e+003,-2.987799e-003
3.704644e+003,-3.046172e-003
3.706573e+003,-3.149835e-003
3.708501e+003,-3.174045e-003
3.710429e+003,-3.149539e-003
3.712358e+003,-3.266826e-003
3.714286e+003,-3.635384e-003
3.716215e+003,-3.658187e-003
3.718144e+003,-3.450618e-003
3.720072e+003,-3.347421e-003
3.722000e+003,-3.269062e-003
3.723929e+003,-3.269687e-003
3.725857e+003,-3.314705e-003
3.727786e+003,-3.433722e-003
3.729714e+003,-3.424484e-003
3.731643e+003,-3.254888e-003
3.733572e+003,-3.103781e-003
3.735500e+003,-3.051239e-003
3.737428e+003,-3.214567e-003
3.739357e+003,-3.426292e-003
3.741285e+003,-3.492265e-003
3.743214e+003,-3.068940e-003
3.745142e+003,-2.832089e-003
3.747071e+003,-3.242555e-003
3.749000e+003,-3.081080e-003
3.750928e+003,-3.039131e-003
3.752856e+003,-3.247587e-003
3.754785e+003,-3.188616e-003
3.756713e+003,-3.059958e-003
3.758642e+003,-3.160131e-003
3.760570e+003,-3.203088e-003
3.762499e+003,-3.258177e-003
3.764427e+003,-3.292213e-003
3.766356e+003,-3.246732e-003
3.768284e+003,-3.320163e-003
3.770213e+003,-3.279520e-003
3.772141e+003,-3.395554e-003
3.774070e+003,-3.537325e-003
3.775998e+003,-3.481714e-003
3.777927e+003,-3.323451e-003
3.779855e+003,-3.237885e-003
3.781784e+003,-3.288694e-003
3.783712e+003,-3.401570e-003
3.785641e+003,-3.341667e-003
3.787569e+003,-3.317993e-003
3.789498e+003,-3.580180e-003
3.791426e+003,-3.753558e-003
3.793355e+003,-3.630061e-003
3.795283e+003,-3.422282e-003
3.797212e+003,-3.415246e-003
3.799140e+003,-3.249462e-003
3.801069e+003,-3.135822e-003
3.802997e+003,-3.495354e-003
3.804926e+003,-3.582348e-003
3.806854e+003,-3.219172e-003
3.808783e+003,-3.241733e-003
3.810711e+003,-3.439178e-003
3.812640e+003,-3.566180e-003
3.814568e+003,-3.531508e-003
3.816497e+003,-3.089239e-003
3.818425e+003,-3.071144e-003
3.820354e+003,-3.071144e-003
3.822282e+003,-3.281164e-003
3.824211e+003,-3.558359e-003
3.826139e+003,-3.465838e-003
3.828068e+003,-3.470439e-003
3.829996e+003,-3.449435e-003
3.831925e+003,-3.472149e-003
3.833853e+003,-3.469059e-003
3.835782e+003,-3.283992e-003
3.837710e+003,-3.123387e-003
3.839639e+003,-3.389538e-003
3.841567e+003,-3.513793e-003
3.843496e+003,-3.349525e-003
3.845424e+003,-3.499463e-003
3.847353e+003,-3.872159e-003
3.849281e+003,-3.833012e-003
3.851210e+003,-3.272679e-003
3.853138e+003,-2.750213e-003
3.855067e+003,-3.035775e-003
3.856995e+003,-3.637750e-003
3.858924e+003,-3.935667e-003
3.860852e+003,-3.905392e-003
3.862781e+003,-3.579424e-003
3.864709e+003,-3.332263e-003
3.866638e+003,-3.619612e-003
3.868566e+003,-3.608539e-003
3.870495e+003,-3.329304e-003
3.872423e+003,-3.384574e-003
3.874352e+003,-3.631474e-003
3.876280e+003,-3.787851e-003
3.878209e+003,-3.907198e-003
3.880137e+003,-3.972047e-003
3.882066e+003,-3.965677e-003
3.883994e+003,-3.831403e-003
3.885923e+003,-3.683650e-003
3.887851e+003,-3.850024e-003
3.889780e+003,-3.660585e-003
3.891708e+003,-3.443452e-003
3.893637e+003,-3.658548e-003
3.895565e+003,-3.945780e-003
3.897494e+003,-3.986460e-003
3.899422e+003,-3.884014e-003
3.901351e+003,-3.923715e-003
3.903279e+003,-3.871338e-003
3.905208e+003,-3.788935e-003
3.907136e+003,-3.951591e-003
3.909065e+003,-4.054908e-003
3.910993e+003,-3.992008e-003
3.912922e+003,-3.872422e-003
3.914850e+003,-3.893898e-003
3.916779e+003,-4.002481e-003
3.918707e+003,-3.985245e-003
3.920636e+003,-4.066036e-003
3.922564e+003,-3.947323e-003
3.924493e+003,-3.844145e-003
3.926421e+003,-3.913962e-003
3.928350e+003,-4.027004e-003
3.930278e+003,-4.027234e-003
3.932207e+003,-4.073782e-003
3.934135e+003,-4.130499e-003
3.936064e+003,-4.026413e-003
3.937992e+003,-3.815145e-003
3.939921e+003,-3.736772e-003
3.941849e+003,-3.817181e-003
3.943778e+003,-4.102372e-003
3.945706e+003,-4.150585e-003
3.947635e+003,-4.060750e-003
3.949563e+003,-4.124493e-003
3.951492e+003,-4.146023e-003
3.953420e+003,-4.210377e-003
3.955349e+003,-4.348996e-003
3.957277e+003,-4.300706e-003
3.959206e+003,-4.400724e-003
3.961134e+003,-4.317437e-003
3.963063e+003,-3.973590e-003
3.964991e+003,-3.940756e-003
3.966920e+003,-3.993354e-003
3.968848e+003,-3.904111e-003
3.970777e+003,-3.926998e-003
3.972705e+003,-4.035966e-003
3.974634e+003,-4.023721e-003
3.976562e+003,-4.100074e-003
3.978491e+003,-4.232329e-003
3.980419e+003,-4.205980e-003
3.982348e+003,-3.964298e-003
3.984276e+003,-3.921416e-003
3.986205e+003,-4.132370e-003
3.988133e+003,-4.055826e-003
3.990062e+003,-3.875082e-003
3.991990e+003,-3.936586e-003
3.993919e+003,-4.130401e-003
3.995847e+003,-4.274163e-003
3.997776e+003,-4.188391e-003
3.999704e+003,-4.122393e-003
4.001633e+003,0.000000e+000
