3.991989e+002,1.821628e-002
4.011274e+002,7.299699e-003
4.030559e+002,-7.817764e-003
4.049844e+002,-9.970212e-003
4.069129e+002,5.666634e-004
4.088414e+002,2.137009e-004
4.107699e+002,-8.780910e-003
4.126984e+002,-7.598337e-003
4.146269e+002,-3.459033e-003
4.165554e+002,-2.496090e-003
4.184839e+002,-2.390656e-003
4.204124e+002,4.209271e-003
4.223409e+002,6.837035e-003
4.242694e+002,3.587387e-003
4.261979e+002,-2.615924e-003
4.281264e+002,5.969378e-003
4.300549e+002,1.146601e-002
4.319834e+002,7.181208e-003
4.339119e+002,6.339794e-003
4.358404e+002,7.672196e-003
4.377689e+002,8.861130e-003
4.396974e+002,2.916221e-003
4.416259e+002,-5.070279e-003
4.435544e+002,-2.375827e-003
4.454829e+002,1.670414e-003
4.474114e+002,5.241399e-003
4.493399e+002,5.406798e-003
4.512684e+002,3.680574e-003
4.531969e+002,2.747399e-003
4.551254e+002,2.375936e-003
4.570539e+002,2.469263e-003
4.589824e+002,2.632643e-003
4.609109e+002,3.202220e-003
4.628394e+002,5.156627e-003
4.647679e+002,3.637871e-003
4.666964e+002,3.259403e-003
4.686249e+002,5.180635e-003
4.705533e+002,5.988527e-003
4.724819e+002,4.057872e-003
4.744103e+002,4.864413e-003
4.763389e+002,6.034418e-003
4.782673e+002,5.002283e-003
4.801959e+002,3.970689e-003
4.821243e+002,4.429706e-003
4.840529e+002,4.478480e-003
4.859813e+002,3.933574e-003
4.879099e+002,3.907997e-003
4.898383e+002,3.377664e-003
4.917668e+002,2.654979e-003
4.936953e+002,2.086218e-003
4.956238e+002,2.367607e-003
4.975523e+002,2.107993e-003
4.994808e+002,1.402407e-003
5.014093e+002,3.291452e-003
5.033378e+002,4.833553e-003
5.052663e+002,6.335054e-003
5.071948e+002,4.999066e-003
5.091233e+002,1.718746e-003
5.110518e+002,1.351219e-003
5.129803e+002,1.812065e-003
5.149088e+002,2.600309e-003
5.168373e+002,2.652478e-003
5.187658e+002,1.136027e-003
5.206943e+002,1.478693e-004
5.226228e+002,1.234704e-003
5.245513e+002,2.281262e-003
5.264798e+002,2.008351e-003
5.284083e+002,1.861644e-003
5.303368e+002,2.611042e-003
5.322653e+002,1.984818e-003
5.341938e+002,2.583676e-003
5.361223e+002,1.769878e-003
5.380508e+002,8.092572e-004
5.399792e+002,1.438442e-003
5.419078e+002,2.595042e-003
5.438363e+002,3.748982e-003
5.457648e+002,3.899037e-003
5.476932e+002,3.648463e-003
5.496218e+002,2.792049e-003
5.515503e+002,2.982440e-003
5.534788e+002,3.102027e-003
5.554072e+002,3.331885e-003
5.573358e+002,3.701226e-003
5.592643e+002,4.654440e-003
5.611927e+002,5.538666e-003
5.631212e+002,5.687796e-003
5.650497e+002,5.763572e-003
5.669783e+002,5.637543e-003
5.689067e+002,5.905121e-003
5.708352e+002,4.973727e-003
5.727637e+002,4.026702e-003
5.746923e+002,3.774116e-003
5.766207e+002,1.966977e-003
5.785492e+002,1.608851e-003
5.804777e+002,3.368180e-003
5.824063e+002,3.680240e-003
5.843347e+002,3.176853e-003
5.862632e+002,4.060782e-003
5.881917e+002,5.310254e-003
5.901202e+002,6.740072e-003
5.920487e+002,7.805057e-003
5.939772e+002,6.889749e-003
5.959057e+002,6.788264e-003
5.978342e+002,8.772843e-003
5.997627e+002,9.884251e-003
6.016912e+002,1.044387e-002
6.036197e+002,1.147240e-002
6.055482e+002,1.368418e-002
6.074767e+002,1.551678e-002
6.094052e+002,1.515619e-002
6.113337e+002,1.313106e-002
6.132622e+002,1.182548e-002
6.151907e+002,1.321204e-002
6.171192e+002,1.346256e-002
6.190477e+002,1.235311e-002
6.209762e+002,1.286599e-002
6.229047e+002,1.244155e-002
6.248332e+002,1.033172e-002
6.267617e+002,7.002100e-003
6.286902e+002,4.719250e-003
6.306187e+002,4.066902e-003
6.325472e+002,3.353488e-003
6.344756e+002,2.920224e-003
6.364042e+002,3.404278e-003
6.383326e+002,3.470605e-003
6.402612e+002,3.003292e-003
6.421896e+002,3.004960e-003
6.441182e+002,2.884099e-003
6.460466e+002,2.179716e-003
6.479752e+002,1.917053e-003
6.499036e+002,1.610746e-003
6.518322e+002,1.478636e-003
6.537606e+002,1.281093e-003
6.556891e+002,1.096330e-003
6.576177e+002,8.856475e-004
6.595461e+002,6.395601e-004
6.614746e+002,5.686872e-004
6.634031e+002,4.494970e-004
6.653317e+002,8.480649e-004
6.672601e+002,1.193470e-003
6.691886e+002,9.738069e-004
6.711171e+002,8.133071e-004
6.730457e+002,9.188837e-004
6.749741e+002,1.111843e-003
6.769026e+002,1.408723e-003
6.788311e+002,1.489807e-003
6.807596e+002,1.732052e-003
6.826881e+002,2.080525e-003
6.846166e+002,2.171724e-003
6.865451e+002,2.304512e-003
6.884736e+002,2.517584e-003
6.904021e+002,2.612942e-003
6.923306e+002,2.851479e-003
6.942591e+002,2.913419e-003
6.961876e+002,2.394493e-003
6.981161e+002,2.345853e-003
7.000446e+002,2.549612e-003
7.019731e+002,2.755602e-003
7.039016e+002,3.110003e-003
7.058301e+002,2.895907e-003
7.077585e+002,2.734562e-003
7.096871e+002,3.257433e-003
7.116156e+002,4.284287e-003
7.135441e+002,4.634614e-003
7.154725e+002,4.281175e-003
7.174011e+002,3.893219e-003
7.193296e+002,4.301688e-003
7.212581e+002,4.540753e-003
7.231865e+002,4.546077e-003
7.251151e+002,4.929120e-003
7.270436e+002,4.986631e-003
7.289720e+002,5.008887e-003
7.309005e+002,5.344334e-003
7.328290e+002,5.447864e-003
7.347576e+002,5.948417e-003
7.366860e+002,6.815527e-003
7.386145e+002,7.227731e-003
7.405430e+002,6.963311e-003
7.424716e+002,6.349107e-003
7.444000e+002,6.344871e-003
7.463285e+002,6.412019e-003
7.482570e+002,6.134551e-003
7.501855e+002,6.462058e-003
7.521140e+002,6.941325e-003
7.540425e+002,7.343169e-003
7.559710e+002,7.012741e-003
7.578995e+002,6.319319e-003
7.598280e+002,6.267346e-003
7.617565e+002,6.788803e-003
7.636850e+002,7.044934e-003
7.656135e+002,7.424324e-003
7.675420e+002,7.824220e-003
7.694705e+002,8.238531e-003
7.713990e+002,8.074345e-003
7.733275e+002,7.750377e-003
7.752560e+002,7.367433e-003
7.771844e+002,7.261321e-003
7.791130e+002,7.093430e-003
7.810415e+002,6.896246e-003
7.829700e+002,6.867733e-003
7.848984e+002,7.045809e-003
7.868270e+002,6.997588e-003
7.887555e+002,6.384715e-003
7.906840e+002,5.792046e-003
7.926124e+002,5.686956e-003
7.945410e+002,5.899310e-003
7.964695e+002,5.507155e-003
7.983979e+002,4.851982e-003
8.003264e+002,4.997490e-003
8.022549e+002,5.063961e-003
8.041835e+002,5.189085e-003
8.061119e+002,5.658254e-003
8.080404e+002,6.510657e-003
8.099689e+002,6.376107e-003
8.118975e+002,6.069126e-003
8.138259e+002,6.747913e-003
8.157545e+002,7.485840e-003
8.176830e+002,6.898973e-003
8.196115e+002,6.453718e-003
8.215399e+002,6.079643e-003
8.234684e+002,5.910998e-003
8.253970e+002,5.890611e-003
8.273254e+002,5.960913e-003
8.292539e+002,5.941800e-003
8.311824e+002,5.458299e-003
8.331110e+002,5.141908e-003
8.350394e+002,5.205583e-003
8.369679e+002,5.525779e-003
8.388964e+002,5.728452e-003
8.408250e+002,5.751753e-003
8.427534e+002,5.666982e-003
8.446819e+002,5.856387e-003
8.466104e+002,5.845070e-003
8.485389e+002,5.619316e-003
8.504674e+002,5.378416e-003
8.523959e+002,5.253640e-003
8.543244e+002,5.100904e-003
8.562529e+002,5.064899e-003
8.581814e+002,5.062351e-003
8.601099e+002,5.323336e-003
8.620384e+002,5.328636e-003
8.639669e+002,4.845582e-003
8.658954e+002,5.063894e-003
8.678239e+002,5.459708e-003
8.697524e+002,5.358389e-003
8.716809e+002,4.863508e-003
8.736094e+002,4.438476e-003
8.755378e+002,4.629858e-003
8.774664e+002,5.052563e-003
8.793949e+002,5.154582e-003
8.813234e+002,5.239454e-003
8.832518e+002,5.335512e-003
8.851804e+002,5.003121e-003
8.871089e+002,4.502451e-003
8.890374e+002,4.641680e-003
8.909658e+002,4.783869e-003
8.928943e+002,5.358255e-003
8.948229e+002,5.799668e-003
8.967513e+002,5.740505e-003
8.986798e+002,5.636570e-003
9.006083e+002,5.571018e-003
9.025369e+002,5.758770e-003
9.044653e+002,5.800978e-003
9.063938e+002,5.598339e-003
9.083223e+002,5.607703e-003
9.102509e+002,5.158874e-003
9.121793e+002,4.566200e-003
9.141078e+002,4.424116e-003
9.160364e+002,4.560910e-003
9.179648e+002,4.396970e-003
9.198933e+002,4.092422e-003
9.218218e+002,3.779430e-003
9.237504e+002,3.605762e-003
9.256788e+002,3.143510e-003
9.276073e+002,2.779311e-003
9.295358e+002,3.121483e-003
9.314644e+002,3.350616e-003
9.333928e+002,3.304506e-003
9.353213e+002,3.256098e-003
9.372498e+002,3.263342e-003
9.391783e+002,3.053908e-003
9.411068e+002,2.820629e-003
9.430353e+002,2.885433e-003
9.449637e+002,2.789082e-003
9.468923e+002,2.717157e-003
9.488208e+002,2.935769e-003
9.507493e+002,3.313421e-003
9.526777e+002,3.632625e-003
9.546063e+002,3.699254e-003
9.565348e+002,3.773314e-003
9.584633e+002,3.844812e-003
9.603917e+002,3.865471e-003
9.623203e+002,3.770239e-003
9.642488e+002,3.820075e-003
9.661772e+002,3.949323e-003
9.681057e+002,4.211278e-003
9.700343e+002,4.015733e-003
9.719628e+002,3.690566e-003
9.738912e+002,3.504274e-003
9.758197e+002,3.149217e-003
9.777483e+002,3.028783e-003
9.796768e+002,3.192774e-003
9.816052e+002,3.102127e-003
9.835337e+002,2.750834e-003
9.854623e+002,2.472862e-003
9.873907e+002,2.342288e-003
9.893192e+002,2.361144e-003
9.912477e+002,2.335392e-003
9.931763e+002,2.246823e-003
9.951047e+002,1.943978e-003
9.970332e+002,1.844008e-003
9.989617e+002,1.910597e-003
1.000890e+003,1.988878e-003
1.002819e+003,1.913259e-003
1.004747e+003,1.801618e-003
1.006676e+003,1.922544e-003
1.008604e+003,2.156873e-003
1.010533e+003,2.176986e-003
1.012461e+003,2.198898e-003
1.014390e+003,2.416916e-003
1.016318e+003,2.707621e-003
1.018247e+003,2.914453e-003
1.020175e+003,3.008830e-003
1.022104e+003,3.215171e-003
1.024032e+003,3.531197e-003
1.025961e+003,3.665170e-003
1.027889e+003,3.882655e-003
1.029818e+003,4.221650e-003
1.031746e+003,4.576279e-003
1.033675e+003,4.914643e-003
1.035603e+003,5.619384e-003
1.037532e+003,6.054947e-003
1.039460e+003,6.085557e-003
1.041389e+003,6.306611e-003
1.043317e+003,6.434549e-003
1.045246e+003,6.308326e-003
1.047174e+003,6.490107e-003
1.049103e+003,6.663452e-003
1.051031e+003,6.739567e-003
1.052960e+003,6.929340e-003
1.054888e+003,6.978799e-003
1.056817e+003,6.846022e-003
1.058745e+003,6.986645e-003
1.060674e+003,6.963412e-003
1.062602e+003,7.024190e-003
1.064531e+003,7.096158e-003
1.066459e+003,7.108047e-003
1.068388e+003,7.098380e-003
1.070316e+003,7.076657e-003
1.072245e+003,7.051298e-003
1.074173e+003,7.139034e-003
1.076102e+003,7.058101e-003
1.078030e+003,6.799439e-003
1.079959e+003,6.874298e-003
1.081887e+003,7.187541e-003
1.083816e+003,7.399045e-003
1.085744e+003,7.592141e-003
1.087673e+003,7.855460e-003
1.089601e+003,7.695635e-003
1.091530e+003,7.798108e-003
1.093458e+003,8.232723e-003
1.095387e+003,8.258861e-003
1.097315e+003,8.346571e-003
1.099244e+003,8.409299e-003
1.101172e+003,8.623190e-003
1.103101e+003,8.826368e-003
1.105029e+003,8.711988e-003
1.106958e+003,8.628598e-003
1.108886e+003,8.676494e-003
1.110815e+003,8.834990e-003
1.112743e+003,9.021520e-003
1.114672e+003,8.912737e-003
1.116600e+003,8.852371e-003
1.118529e+003,8.806620e-003
1.120457e+003,8.761752e-003
1.122386e+003,8.920043e-003
1.124314e+003,8.992664e-003
1.126243e+003,8.675176e-003
1.128171e+003,8.618358e-003
1.130100e+003,8.632148e-003
1.132028e+003,8.351468e-003
1.133957e+003,8.087410e-003
1.135885e+003,7.958140e-003
1.137814e+003,7.774664e-003
1.139742e+003,7.498280e-003
1.141671e+003,7.009205e-003
1.143599e+003,6.689899e-003
1.145528e+003,6.557075e-003
1.147456e+003,6.305266e-003
1.149385e+003,5.969311e-003
1.151313e+003,5.576019e-003
1.153242e+003,5.260951e-003
1.155170e+003,5.181104e-003
1.157099e+003,5.038450e-003
1.159027e+003,4.720824e-003
1.160956e+003,4.488222e-003
1.162884e+003,4.381105e-003
1.164813e+003,4.398811e-003
1.166741e+003,4.440753e-003
1.168670e+003,4.549257e-003
1.170598e+003,4.631901e-003
1.172526e+003,4.494315e-003
1.174455e+003,4.439280e-003
1.176384e+003,4.414510e-003
1.178312e+003,4.422543e-003
1.180240e+003,4.436434e-003
1.182169e+003,4.183744e-003
1.184098e+003,4.125904e-003
1.186026e+003,4.187624e-003
1.187954e+003,4.066567e-003
1.189883e+003,3.597911e-003
1.191812e+003,3.290150e-003
1.193740e+003,3.312553e-003
1.195668e+003,3.145446e-003
1.197597e+003,2.926628e-003
1.199526e+003,2.844408e-003
1.201454e+003,2.757836e-003
1.203382e+003,2.698686e-003
1.205311e+003,2.615442e-003
1.207240e+003,2.535048e-003
1.209168e+003,2.577576e-003
1.211096e+003,2.565810e-003
1.213025e+003,2.535681e-003
1.214953e+003,2.557845e-003
1.216882e+003,2.517384e-003
1.218810e+003,2.585176e-003
1.220739e+003,2.631176e-003
1.222667e+003,2.744531e-003
1.224596e+003,2.858617e-003
1.226524e+003,2.941440e-003
1.228453e+003,3.096187e-003
1.230381e+003,3.356894e-003
1.232310e+003,3.597911e-003
1.234238e+003,3.771175e-003
1.236167e+003,3.844946e-003
1.238095e+003,3.914583e-003
1.240024e+003,3.991990e-003
1.241952e+003,4.028609e-003
1.243881e+003,4.069143e-003
1.245809e+003,4.197026e-003
1.247738e+003,4.287834e-003
1.249666e+003,4.287767e-003
1.251595e+003,4.379532e-003
1.253523e+003,4.588635e-003
1.255452e+003,4.565463e-003
1.257380e+003,4.549860e-003
1.259309e+003,4.555418e-003
1.261237e+003,4.697311e-003
1.263166e+003,5.020149e-003
1.265094e+003,5.233216e-003
1.267023e+003,5.435215e-003
1.268951e+003,5.674602e-003
1.270880e+003,6.013488e-003
1.272808e+003,6.323555e-003
1.274737e+003,6.616787e-003
1.276665e+003,6.919711e-003
1.278594e+003,7.181612e-003
1.280522e+003,7.307180e-003
1.282451e+003,7.489650e-003
1.284379e+003,7.728385e-003
1.286308e+003,8.206452e-003
1.288236e+003,8.526064e-003
1.290165e+003,8.718175e-003
1.292093e+003,8.935364e-003
1.294022e+003,8.954137e-003
1.295950e+003,9.171749e-003
1.297879e+003,9.377248e-003
1.299807e+003,9.396547e-003
1.301736e+003,9.244276e-003
1.303664e+003,9.236424e-003
1.305593e+003,9.267496e-003
1.307521e+003,9.084752e-003
1.309450e+003,8.817068e-003
1.311378e+003,8.507648e-003
1.313307e+003,8.372850e-003
1.315235e+003,8.295435e-003
1.317164e+003,8.110365e-003
1.319092e+003,7.794397e-003
1.321021e+003,7.330532e-003
1.322949e+003,7.028770e-003
1.324878e+003,6.972099e-003
1.326806e+003,6.895506e-003
1.328735e+003,6.916277e-003
1.330663e+003,6.987722e-003
1.332592e+003,6.952503e-003
1.334520e+003,6.871706e-003
1.336449e+003,6.914156e-003
1.338377e+003,7.017455e-003
1.340306e+003,7.041499e-003
1.342234e+003,7.116669e-003
1.344163e+003,7.256133e-003
1.346091e+003,7.352841e-003
1.348020e+003,7.492043e-003
1.349948e+003,7.583173e-003
1.351877e+003,7.466019e-003
1.353805e+003,7.402079e-003
1.355734e+003,7.193301e-003
1.357662e+003,6.878910e-003
1.359591e+003,6.821215e-003
1.361519e+003,6.759994e-003
1.363448e+003,6.554418e-003
1.365376e+003,6.226202e-003
1.367305e+003,6.085826e-003
1.369233e+003,6.059752e-003
1.371162e+003,5.910730e-003
1.373090e+003,5.887151e-003
1.375019e+003,6.011439e-003
1.376947e+003,6.115430e-003
1.378876e+003,6.231278e-003
1.380804e+003,6.345980e-003
1.382733e+003,6.273229e-003
1.384661e+003,6.078232e-003
1.386590e+003,6.243715e-003
1.388518e+003,6.342685e-003
1.390447e+003,6.044330e-003
1.392375e+003,5.827070e-003
1.394304e+003,5.880502e-003
1.396232e+003,5.720126e-003
1.398161e+003,5.610288e-003
1.400089e+003,5.470949e-003
1.402018e+003,5.229594e-003
1.403946e+003,5.077471e-003
1.405875e+003,4.874063e-003
1.407803e+003,4.713958e-003
1.409732e+003,4.524313e-003
1.411660e+003,4.306908e-003
1.413589e+003,4.248517e-003
1.415517e+003,4.484339e-003
1.417446e+003,4.904154e-003
1.419374e+003,5.223759e-003
1.421303e+003,5.449743e-003
1.423231e+003,5.790434e-003
1.425160e+003,6.352974e-003
1.427088e+003,6.912136e-003
1.429017e+003,7.365074e-003
1.430945e+003,7.576901e-003
1.432874e+003,7.850703e-003
1.434802e+003,8.486734e-003
1.436731e+003,9.026763e-003
1.438659e+003,9.013908e-003
1.440588e+003,9.210939e-003
1.442516e+003,9.709718e-003
1.444445e+003,1.022864e-002
1.446373e+003,1.077044e-002
1.448302e+003,1.120290e-002
1.450230e+003,1.155675e-002
1.452159e+003,1.202481e-002
1.454087e+003,1.259235e-002
1.456016e+003,1.316894e-002
1.457944e+003,1.324668e-002
1.459873e+003,1.302302e-002
1.461801e+003,1.294764e-002
1.463730e+003,1.298772e-002
1.465658e+003,1.285756e-002
1.467587e+003,1.247323e-002
1.469515e+003,1.217441e-002
1.471444e+003,1.215966e-002
1.473372e+003,1.198312e-002
1.475301e+003,1.144920e-002
1.477229e+003,1.073732e-002
1.479158e+003,1.017264e-002
1.481086e+003,9.567872e-003
1.483015e+003,8.898093e-003
1.484943e+003,8.394773e-003
1.486872e+003,8.171843e-003
1.488800e+003,7.987467e-003
1.490729e+003,7.478626e-003
1.492657e+003,6.878472e-003
1.494586e+003,6.750403e-003
1.496514e+003,6.603801e-003
1.498443e+003,6.291315e-003
1.500371e+003,5.958696e-003
1.502300e+003,5.759274e-003
1.504228e+003,5.890342e-003
1.506157e+003,6.161100e-003
1.508085e+003,5.929674e-003
1.510014e+003,5.516249e-003
1.511942e+003,5.381402e-003
1.513871e+003,5.360234e-003
1.515799e+003,5.400524e-003
1.517728e+003,5.570381e-003
1.519656e+003,5.659161e-003
1.521585e+003,5.752357e-003
1.523513e+003,5.624788e-003
1.525442e+003,5.639389e-003
1.527370e+003,5.740942e-003
1.529299e+003,5.843021e-003
1.531227e+003,6.122588e-003
1.533156e+003,6.630749e-003
1.535084e+003,6.816132e-003
1.537013e+003,6.961526e-003
1.538941e+003,7.621612e-003
1.540870e+003,8.087038e-003
1.542798e+003,7.927566e-003
1.544727e+003,7.807149e-003
1.546655e+003,7.772471e-003
1.548584e+003,8.053957e-003
1.550512e+003,8.387105e-003
1.552441e+003,8.457948e-003
1.554369e+003,8.613592e-003
1.556298e+003,9.059309e-003
1.558226e+003,9.775930e-003
1.560155e+003,9.887742e-003
1.562083e+003,9.701788e-003
1.564012e+003,9.992870e-003
1.565940e+003,1.031662e-002
1.567869e+003,1.055735e-002
1.569797e+003,1.073739e-002
1.571726e+003,1.060689e-002
1.573654e+003,1.061942e-002
1.575583e+003,1.082985e-002
1.577511e+003,1.052839e-002
1.579440e+003,1.009311e-002
1.581368e+003,1.010352e-002
1.583297e+003,1.004329e-002
1.585225e+003,9.868015e-003
1.587154e+003,9.761765e-003
1.589082e+003,9.576780e-003
1.591010e+003,9.236018e-003
1.592939e+003,9.001865e-003
1.594868e+003,8.842159e-003
1.596796e+003,8.734166e-003
1.598724e+003,8.563844e-003
1.600653e+003,8.244204e-003
1.602582e+003,8.003092e-003
1.604510e+003,7.780600e-003
1.606438e+003,7.539308e-003
1.608367e+003,7.264287e-003
1.610296e+003,7.022977e-003
1.612224e+003,6.789274e-003
1.614152e+003,6.710391e-003
1.616081e+003,6.639631e-003
1.618010e+003,6.347931e-003
1.619938e+003,5.983353e-003
1.621866e+003,5.925643e-003
1.623795e+003,5.843055e-003
1.625724e+003,5.782543e-003
1.627652e+003,5.715828e-003
1.629580e+003,5.489068e-003
1.631509e+003,5.357215e-003
1.633438e+003,5.513866e-003
1.635366e+003,5.586256e-003
1.637294e+003,5.052965e-003
1.639223e+003,4.627883e-003
1.641151e+003,4.390443e-003
1.643080e+003,4.142028e-003
1.645008e+003,4.068976e-003
1.646937e+003,4.047002e-003
1.648865e+003,3.629752e-003
1.650794e+003,3.478855e-003
1.652722e+003,3.926653e-003
1.654651e+003,3.437741e-003
1.656579e+003,2.810224e-003
1.658508e+003,2.514152e-003
1.660436e+003,2.464398e-003
1.662365e+003,2.533015e-003
1.664293e+003,2.447937e-003
1.666222e+003,2.375502e-003
1.668150e+003,2.434542e-003
1.670079e+003,2.221578e-003
1.672007e+003,1.916254e-003
1.673936e+003,1.904440e-003
1.675864e+003,1.750349e-003
1.677793e+003,1.284716e-003
1.679721e+003,1.048964e-003
1.681650e+003,9.819763e-004
1.683578e+003,1.120513e-003
1.685507e+003,7.150244e-004
1.687435e+003,1.058099e-004
1.689364e+003,-1.402338e-004
1.691292e+003,-2.676737e-004
1.693221e+003,-2.800911e-004
1.695149e+003,-3.581642e-005
1.697078e+003,-6.693024e-006
1.699006e+003,8.440060e-005
1.700935e+003,1.055116e-004
1.702863e+003,-2.722433e-004
1.704792e+003,-2.318764e-004
1.706720e+003,-2.049851e-004
1.708649e+003,-3.009516e-004
1.710577e+003,-3.725981e-004
1.712506e+003,-3.647851e-004
1.714434e+003,-2.701241e-004
1.716363e+003,-1.628564e-004
1.718291e+003,-1.842193e-004
1.720220e+003,-5.238313e-004
1.722148e+003,-7.284040e-004
1.724077e+003,-7.484821e-004
1.726005e+003,-7.474567e-004
1.727934e+003,-7.024365e-004
1.729862e+003,-6.665096e-004
1.731791e+003,-5.741976e-004
1.733719e+003,-4.347660e-004
1.735648e+003,-8.109601e-004
1.737576e+003,-1.071094e-003
1.739505e+003,-9.510315e-004
1.741433e+003,-8.525299e-004
1.743362e+003,-7.550644e-004
1.745290e+003,-6.797427e-004
1.747219e+003,-5.280012e-004
1.749147e+003,-4.548247e-004
1.751076e+003,-5.550379e-004
1.753004e+003,-7.458029e-004
1.754933e+003,-6.134409e-004
1.756861e+003,-3.893161e-004
1.758790e+003,-5.444154e-004
1.760718e+003,-5.933234e-004
1.762647e+003,-5.993786e-004
1.764575e+003,-6.952580e-004
1.766504e+003,-6.773608e-004
1.768432e+003,-6.406047e-004
1.770361e+003,-5.456067e-004
1.772289e+003,-3.410473e-004
1.774218e+003,-5.618217e-004
1.776146e+003,-7.592982e-004
1.778075e+003,-7.914470e-004
1.780003e+003,-8.207824e-004
1.781932e+003,-8.256108e-004
1.783860e+003,-8.012698e-004
1.785789e+003,-8.185335e-004
1.787717e+003,-8.519677e-004
1.789646e+003,-7.997485e-004
1.791574e+003,-6.536401e-004
1.793503e+003,-6.929754e-004
1.795431e+003,-8.228990e-004
1.797360e+003,-8.380454e-004
1.799288e+003,-7.642596e-004
1.801217e+003,-7.504006e-004
1.803145e+003,-7.892311e-004
1.805074e+003,-7.278085e-004
1.807002e+003,-7.057446e-004
1.808931e+003,-6.848043e-004
1.810859e+003,-6.228376e-004
1.812788e+003,-6.468908e-004
1.814716e+003,-7.157678e-004
1.816645e+003,-6.342192e-004
1.818573e+003,-6.088748e-004
1.820502e+003,-6.892041e-004
1.822430e+003,-7.066377e-004
1.824359e+003,-5.914373e-004
1.826287e+003,-6.051028e-004
1.828216e+003,-6.241942e-004
1.830144e+003,-5.231033e-004
1.832073e+003,-5.586780e-004
1.834001e+003,-6.746480e-004
1.835930e+003,-7.657149e-004
1.837858e+003,-7.784158e-004
1.839787e+003,-7.561890e-004
1.841715e+003,-6.626389e-004
1.843644e+003,-5.823047e-004
1.845572e+003,-6.929424e-004
1.847501e+003,-7.706762e-004
1.849429e+003,-7.936630e-004
1.851358e+003,-7.500037e-004
1.853286e+003,-7.725946e-004
1.855215e+003,-8.183020e-004
1.857143e+003,-8.438987e-004
1.859072e+003,-8.406910e-004
1.861000e+003,-7.582066e-004
1.862929e+003,-7.351519e-004
1.864857e+003,-7.228467e-004
1.866786e+003,-6.905605e-004
1.868714e+003,-6.169812e-004
1.870643e+003,-6.673367e-004
1.872571e+003,-7.375997e-004
1.874500e+003,-6.633668e-004
1.876428e+003,-6.505302e-004
1.878357e+003,-6.804375e-004
1.880285e+003,-6.747473e-004
1.882214e+003,-6.634329e-004
1.884142e+003,-6.798420e-004
1.886071e+003,-6.766661e-004
1.887999e+003,-6.374285e-004
1.889928e+003,-5.825032e-004
1.891856e+003,-5.807495e-004
1.893785e+003,-5.695981e-004
1.895713e+003,-5.863416e-004
1.897642e+003,-6.211171e-004
1.899570e+003,-6.403069e-004
1.901499e+003,-5.928602e-004
1.903427e+003,-5.777052e-004
1.905356e+003,-6.155585e-004
1.907284e+003,-6.524490e-004
1.909213e+003,-5.644028e-004
1.911141e+003,-5.031470e-004
1.913070e+003,-5.777052e-004
1.914998e+003,-6.257161e-004
1.916927e+003,-5.962683e-004
1.918855e+003,-5.933234e-004
1.920784e+003,-6.862599e-004
1.922712e+003,-7.532452e-004
1.924641e+003,-7.184803e-004
1.926569e+003,-6.302158e-004
1.928498e+003,-6.496038e-004
1.930426e+003,-6.429537e-004
1.932355e+003,-6.453689e-004
1.934283e+003,-6.809337e-004
1.936212e+003,-7.077625e-004
1.938140e+003,-7.297271e-004
1.940069e+003,-6.977391e-004
1.941997e+003,-6.225729e-004
1.943926e+003,-6.142681e-004
1.945854e+003,-6.267087e-004
1.947783e+003,-6.455674e-004
1.949711e+003,-6.284292e-004
1.951640e+003,-6.304474e-004
1.953568e+003,-6.685939e-004
1.955497e+003,-7.427598e-004
1.957425e+003,-7.123605e-004
1.959354e+003,-6.268741e-004
1.961282e+003,-6.066579e-004
1.963211e+003,-6.259808e-004
1.965139e+003,-6.063933e-004
1.967068e+003,-6.136725e-004
1.968996e+003,-6.989300e-004
1.970925e+003,-7.547998e-004
1.972853e+003,-7.308848e-004
1.974782e+003,-7.352512e-004
1.976710e+003,-7.470929e-004
1.978639e+003,-7.298925e-004
1.980567e+003,-7.600259e-004
1.982496e+003,-8.262722e-004
1.984424e+003,-8.467428e-004
1.986353e+003,-7.836747e-004
1.988281e+003,-7.541713e-004
1.990210e+003,-6.608193e-004
1.992138e+003,-5.853158e-004
1.994067e+003,-6.072866e-004
1.995995e+003,-5.984191e-004
1.997924e+003,-5.522252e-004
1.999852e+003,-5.344213e-004
2.001781e+003,-6.135732e-004
2.003709e+003,-6.803713e-004
2.005638e+003,-6.552943e-004
2.007566e+003,-6.340538e-004
2.009495e+003,-7.038259e-004
2.011423e+003,-7.600259e-004
2.013352e+003,-6.993270e-004
2.015280e+003,-6.160548e-004
2.017208e+003,-6.096028e-004
2.019137e+003,-6.487767e-004
2.021066e+003,-6.343516e-004
2.022994e+003,-6.138048e-004
2.024922e+003,-5.677119e-004
2.026851e+003,-5.508022e-004
2.028780e+003,-5.650977e-004
2.030708e+003,-6.056323e-004
2.032636e+003,-5.626159e-004
2.034565e+003,-5.471951e-004
2.036494e+003,-5.842570e-004
2.038422e+003,-5.522582e-004
2.040350e+003,-4.928542e-004
2.042279e+003,-5.002015e-004
2.044208e+003,-5.698959e-004
2.046136e+003,-6.162202e-004
2.048064e+003,-5.931580e-004
2.049993e+003,-5.499418e-004
2.051921e+003,-5.540121e-004
2.053850e+003,-5.292587e-004
2.055778e+003,-4.749486e-004
2.057707e+003,-4.154346e-004
2.059635e+003,-3.292606e-004
2.061564e+003,-3.819668e-004
2.063492e+003,-4.228826e-004
2.065421e+003,-4.376789e-004
2.067349e+003,-4.469800e-004
2.069278e+003,-4.606170e-004
2.071206e+003,-4.980172e-004
2.073135e+003,-4.272851e-004
2.075063e+003,-3.848139e-004
2.076992e+003,-4.115616e-004
2.078920e+003,-3.911699e-004
2.080849e+003,-3.504498e-004
2.082777e+003,-3.359155e-004
2.084706e+003,-2.524742e-004
2.086634e+003,-2.111782e-004
2.088563e+003,-2.333335e-004
2.090491e+003,-1.960099e-004
2.092420e+003,-1.402338e-004
2.094348e+003,-1.524892e-004
2.096277e+003,-1.029684e-004
2.098205e+003,-1.185374e-004
2.100134e+003,-1.415256e-004
2.102062e+003,-9.958950e-005
2.103991e+003,3.015208e-006
2.105919e+003,8.731697e-005
2.107848e+003,3.611625e-006
2.109776e+003,-8.594120e-005
2.111705e+003,-7.924939e-005
2.113633e+003,2.312818e-005
2.115562e+003,7.753434e-006
2.117490e+003,-2.236490e-005
2.119419e+003,6.299237e-005
2.121347e+003,1.264911e-004
2.123276e+003,1.133332e-004
2.125204e+003,5.812099e-005
2.127133e+003,4.158521e-005
2.129061e+003,6.312493e-005
2.130990e+003,5.152649e-005
2.132918e+003,1.048156e-004
2.134847e+003,1.349428e-004
2.136775e+003,1.150898e-004
2.138704e+003,9.132701e-005
2.140632e+003,1.086933e-004
2.142561e+003,7.369636e-005
2.144489e+003,7.190682e-005
2.146418e+003,1.320924e-004
2.148346e+003,2.137009e-004
2.150275e+003,2.260330e-004
2.152203e+003,2.459242e-004
2.154132e+003,2.258341e-004
2.156060e+003,1.985514e-004
2.157989e+003,1.823749e-004
2.159917e+003,1.787286e-004
2.161846e+003,2.211929e-004
2.163774e+003,3.395578e-004
2.165703e+003,3.566355e-004
2.167631e+003,3.704308e-004
2.169560e+003,4.512217e-004
2.171488e+003,4.773593e-004
2.173417e+003,3.645280e-004
2.175345e+003,3.002982e-004
2.177274e+003,2.943300e-004
2.179202e+003,3.166117e-004
2.181131e+003,3.387620e-004
2.183059e+003,3.804791e-004
2.184988e+003,3.736808e-004
2.186916e+003,2.911138e-004
2.188845e+003,3.148212e-004
2.190773e+003,4.140415e-004
2.192702e+003,4.178887e-004
2.194630e+003,3.509650e-004
2.196559e+003,3.070623e-004
2.198487e+003,2.290497e-004
2.200416e+003,1.692154e-004
2.202344e+003,1.782314e-004
2.204273e+003,2.621362e-004
2.206201e+003,3.357776e-004
2.208130e+003,2.807360e-004
2.210058e+003,1.189012e-004
2.211987e+003,7.508822e-005
2.213915e+003,1.797231e-004
2.215844e+003,2.101206e-004
2.217772e+003,1.614259e-004
2.219701e+003,2.201984e-004
2.221629e+003,2.333926e-004
2.223558e+003,1.883747e-004
2.225486e+003,1.093561e-004
2.227415e+003,1.141618e-004
2.229343e+003,2.437361e-004
2.231272e+003,3.462230e-004
2.233200e+003,2.785478e-004
2.235129e+003,2.583235e-004
2.237057e+003,3.204581e-004
2.238986e+003,3.000993e-004
2.240914e+003,2.140655e-004
2.242843e+003,1.975901e-004
2.244771e+003,2.617715e-004
2.246700e+003,2.020652e-004
2.248628e+003,1.587742e-004
2.250557e+003,1.407762e-004
2.252485e+003,6.183252e-005
2.254414e+003,7.545276e-005
2.256342e+003,1.200281e-004
2.258271e+003,1.179069e-004
2.260199e+003,3.509036e-005
2.262128e+003,-9.293103e-005
2.264056e+003,8.449262e-006
2.265985e+003,1.197629e-004
2.267913e+003,8.705185e-005
2.269842e+003,-4.970077e-006
2.271770e+003,-3.830126e-005
2.273699e+003,-3.048321e-006
2.275627e+003,5.619897e-005
2.277556e+003,-6.361689e-006
2.279484e+003,-8.299284e-005
2.281413e+003,-5.963718e-005
2.283341e+003,-1.025377e-004
2.285270e+003,-1.274811e-004
2.287198e+003,-3.747298e-005
2.289127e+003,2.905953e-005
2.291055e+003,7.343124e-005
2.292984e+003,1.023300e-004
2.294912e+003,6.514641e-005
2.296841e+003,4.012718e-005
2.298769e+003,3.386431e-005
2.300698e+003,1.217184e-004
2.302626e+003,1.553270e-004
2.304555e+003,1.432289e-004
2.306483e+003,2.307736e-004
2.308412e+003,3.845582e-004
2.310340e+003,4.556663e-004
2.312269e+003,5.172321e-004
2.314197e+003,5.571416e-004
2.316125e+003,5.799345e-004
2.318054e+003,5.466248e-004
2.319983e+003,5.904190e-004
2.321911e+003,6.602667e-004
2.323840e+003,7.753987e-004
2.325768e+003,9.640106e-004
2.327697e+003,1.009109e-003
2.329625e+003,1.090318e-003
2.331553e+003,1.089055e-003
2.333482e+003,1.085999e-003
2.335411e+003,1.139748e-003
2.337339e+003,1.160379e-003
2.339268e+003,1.137788e-003
2.341196e+003,1.063811e-003
2.343125e+003,9.734085e-004
2.345053e+003,8.737947e-004
2.346981e+003,6.678660e-004
2.348910e+003,5.163032e-004
2.350839e+003,6.646802e-004
2.352767e+003,9.550114e-004
2.354696e+003,1.118387e-003
2.356624e+003,1.417166e-003
2.358552e+003,1.590892e-003
2.360481e+003,1.467398e-003
2.362409e+003,1.337226e-003
2.364338e+003,1.378740e-003
2.366267e+003,1.444127e-003
2.368195e+003,1.274879e-003
2.370124e+003,1.127523e-003
2.372052e+003,9.862271e-004
2.373980e+003,7.909003e-004
2.375909e+003,5.699811e-004
2.377838e+003,4.805437e-004
2.379766e+003,5.669952e-004
2.381695e+003,5.728012e-004
2.383623e+003,4.996836e-004
2.385552e+003,5.292078e-004
2.387480e+003,5.730335e-004
2.389408e+003,6.205135e-004
2.391337e+003,7.026453e-004
2.393266e+003,6.704876e-004
2.395194e+003,6.373036e-004
2.397123e+003,6.492495e-004
2.399051e+003,6.566495e-004
2.400979e+003,6.428120e-004
2.402908e+003,6.532648e-004
2.404836e+003,6.747685e-004
2.406765e+003,6.458316e-004
2.408694e+003,6.751004e-004
2.410622e+003,7.731084e-004
2.412551e+003,7.782202e-004
2.414479e+003,7.629183e-004
2.416407e+003,7.760294e-004
2.418336e+003,7.546203e-004
2.420264e+003,7.287316e-004
2.422193e+003,7.785521e-004
2.424122e+003,8.898310e-004
2.426050e+003,9.329625e-004
2.427979e+003,9.165594e-004
2.429907e+003,9.958247e-004
2.431835e+003,1.078027e-003
2.433764e+003,1.104834e-003
2.435692e+003,1.175163e-003
2.437621e+003,1.222310e-003
2.439550e+003,1.350720e-003
2.441478e+003,1.261919e-003
2.443406e+003,1.095400e-003
2.445335e+003,1.158884e-003
2.447263e+003,1.279897e-003
2.449192e+003,1.291794e-003
2.451121e+003,1.334899e-003
2.453049e+003,1.328585e-003
2.454978e+003,1.296680e-003
2.456906e+003,1.322702e-003
2.458834e+003,1.358597e-003
2.460763e+003,1.345768e-003
2.462691e+003,1.382097e-003
2.464620e+003,1.459453e-003
2.466549e+003,1.510055e-003
2.468477e+003,1.429366e-003
2.470406e+003,1.404102e-003
2.472334e+003,1.404767e-003
2.474262e+003,1.481827e-003
2.476191e+003,1.624548e-003
2.478119e+003,1.640147e-003
2.480048e+003,1.633096e-003
2.481977e+003,1.661200e-003
2.483905e+003,1.630635e-003
2.485833e+003,1.579020e-003
2.487762e+003,1.701382e-003
2.489690e+003,1.835756e-003
2.491619e+003,1.859381e-003
2.493547e+003,1.899381e-003
2.495476e+003,1.796627e-003
2.497405e+003,1.746290e-003
2.499333e+003,1.835889e-003
2.501261e+003,1.988779e-003
2.503190e+003,1.947972e-003
2.505118e+003,1.872359e-003
2.507047e+003,1.900413e-003
2.508975e+003,1.952365e-003
2.510904e+003,1.969007e-003
2.512833e+003,2.009250e-003
2.514761e+003,2.028923e-003
2.516689e+003,2.002293e-003
2.518618e+003,2.048964e-003
2.520546e+003,2.052793e-003
2.522475e+003,2.027459e-003
2.524403e+003,2.019403e-003
2.526332e+003,2.008651e-003
2.528260e+003,2.073334e-003
2.530189e+003,2.106328e-003
2.532117e+003,2.099369e-003
2.534046e+003,2.033751e-003
2.535974e+003,2.092877e-003
2.537903e+003,2.112221e-003
2.539831e+003,2.032585e-003
2.541760e+003,2.047699e-003
2.543688e+003,2.077695e-003
2.545617e+003,1.974466e-003
2.547545e+003,2.022832e-003
2.549474e+003,2.156839e-003
2.551402e+003,2.162367e-003
2.553331e+003,2.165064e-003
2.555259e+003,2.165531e-003
2.557188e+003,2.191339e-003
2.559116e+003,2.178484e-003
2.561045e+003,2.192737e-003
2.562973e+003,2.296551e-003
2.564902e+003,2.263609e-003
2.566830e+003,2.193304e-003
2.568759e+003,2.165164e-003
2.570687e+003,2.234200e-003
2.572616e+003,2.380033e-003
2.574544e+003,2.395293e-003
2.576473e+003,2.316604e-003
2.578401e+003,2.264842e-003
2.580330e+003,2.315505e-003
2.582258e+003,2.385697e-003
2.584187e+003,2.380733e-003
2.586115e+003,2.392827e-003
2.588044e+003,2.366274e-003
2.589972e+003,2.391661e-003
2.591901e+003,2.441906e-003
2.593829e+003,2.513918e-003
2.595758e+003,2.617942e-003
2.597686e+003,2.599142e-003
2.599615e+003,2.657579e-003
2.601543e+003,2.659412e-003
2.603472e+003,2.508786e-003
2.605400e+003,2.453535e-003
2.607329e+003,2.554212e-003
2.609257e+003,2.664613e-003
2.611186e+003,2.713023e-003
2.613114e+003,2.666780e-003
2.615043e+003,2.610909e-003
2.616971e+003,2.647478e-003
2.618900e+003,2.704287e-003
2.620828e+003,2.690851e-003
2.622757e+003,2.735262e-003
2.624685e+003,2.910483e-003
2.626614e+003,2.961789e-003
2.628542e+003,2.808590e-003
2.630471e+003,2.700353e-003
2.632399e+003,2.812625e-003
2.634328e+003,2.834236e-003
2.636256e+003,2.769874e-003
2.638185e+003,2.793483e-003
2.640113e+003,2.943074e-003
2.642042e+003,3.032086e-003
2.643970e+003,3.054375e-003
2.645899e+003,3.172914e-003
2.647827e+003,3.220446e-003
2.649756e+003,3.190738e-003
2.651684e+003,3.144611e-003
2.653613e+003,3.166673e-003
2.655541e+003,3.270720e-003
2.657470e+003,3.331484e-003
2.659398e+003,3.347210e-003
2.661327e+003,3.374591e-003
2.663255e+003,3.486237e-003
2.665184e+003,3.574391e-003
2.667112e+003,3.572353e-003
2.669041e+003,3.627212e-003
2.670969e+003,3.608235e-003
2.672898e+003,3.481160e-003
2.674826e+003,3.462590e-003
2.676755e+003,3.605228e-003
2.678683e+003,3.630520e-003
2.680612e+003,3.588957e-003
2.682540e+003,3.646391e-003
2.684469e+003,3.666573e-003
2.686397e+003,3.726023e-003
2.688326e+003,3.816532e-003
2.690254e+003,3.797346e-003
2.692183e+003,3.745540e-003
2.694111e+003,3.831106e-003
2.696040e+003,3.941365e-003
2.697968e+003,4.052654e-003
2.699897e+003,4.062153e-003
2.701825e+003,4.001019e-003
2.703754e+003,4.043424e-003
2.705682e+003,4.208534e-003
2.707611e+003,4.348573e-003
2.709539e+003,4.457858e-003
2.711468e+003,4.454444e-003
2.713396e+003,4.487519e-003
2.715325e+003,4.453741e-003
2.717253e+003,4.484004e-003
2.719182e+003,4.520262e-003
2.721110e+003,4.601795e-003
2.723039e+003,4.748728e-003
2.724967e+003,4.810335e-003
2.726896e+003,4.873560e-003
2.728824e+003,4.948524e-003
2.730753e+003,4.957003e-003
2.732681e+003,5.112974e-003
2.734610e+003,5.194584e-003
2.736538e+003,5.220204e-003
2.738467e+003,5.264338e-003
2.740395e+003,5.379825e-003
2.742324e+003,5.443167e-003
2.744252e+003,5.477995e-003
2.746181e+003,5.560312e-003
2.748109e+003,5.687628e-003
2.750038e+003,5.837245e-003
2.751966e+003,5.845741e-003
2.753895e+003,5.891652e-003
2.755823e+003,5.972838e-003
2.757752e+003,6.123461e-003
2.759680e+003,6.338348e-003
2.761609e+003,6.576283e-003
2.763537e+003,6.828249e-003
2.765466e+003,6.972301e-003
2.767394e+003,7.170698e-003
2.769323e+003,7.512135e-003
2.771251e+003,7.923011e-003
2.773180e+003,8.331270e-003
2.775108e+003,8.604230e-003
2.777037e+003,9.003320e-003
2.778965e+003,9.587484e-003
2.780894e+003,1.024550e-002
2.782822e+003,1.081330e-002
2.784750e+003,1.140617e-002
2.786679e+003,1.219080e-002
2.788608e+003,1.293204e-002
2.790536e+003,1.358472e-002
2.792465e+003,1.432981e-002
2.794393e+003,1.500827e-002
2.796322e+003,1.559762e-002
2.798250e+003,1.629877e-002
2.800178e+003,1.700084e-002
2.802107e+003,1.761961e-002
2.804036e+003,1.823401e-002
2.805964e+003,1.877236e-002
2.807893e+003,1.906910e-002
2.809821e+003,1.919113e-002
2.811750e+003,1.932479e-002
2.813678e+003,1.928177e-002
2.815606e+003,1.910511e-002
2.817535e+003,1.903583e-002
2.819464e+003,1.886070e-002
2.821392e+003,1.852558e-002
2.823321e+003,1.814539e-002
2.825249e+003,1.767279e-002
2.827177e+003,1.725504e-002
2.829106e+003,1.682770e-002
2.831034e+003,1.625972e-002
2.832963e+003,1.577986e-002
2.834892e+003,1.528807e-002
2.836820e+003,1.465013e-002
2.838749e+003,1.398784e-002
2.840677e+003,1.328952e-002
2.842605e+003,1.263943e-002
2.844534e+003,1.192931e-002
2.846462e+003,1.122228e-002
2.848391e+003,1.057514e-002
2.850320e+003,1.011301e-002
2.852248e+003,9.834968e-003
2.854177e+003,9.654085e-003
2.856105e+003,9.450791e-003
2.858033e+003,9.337772e-003
2.859962e+003,9.388183e-003
2.861890e+003,9.373557e-003
2.863819e+003,9.417776e-003
2.865748e+003,9.530039e-003
2.867676e+003,9.595546e-003
2.869604e+003,9.627761e-003
2.871533e+003,9.662216e-003
2.873461e+003,9.768983e-003
2.875390e+003,9.974053e-003
2.877319e+003,1.012943e-002
2.879247e+003,1.040437e-002
2.881176e+003,1.045928e-002
2.883104e+003,1.032364e-002
2.885032e+003,1.024723e-002
2.886961e+003,1.022786e-002
2.888889e+003,1.016426e-002
2.890818e+003,1.012183e-002
2.892747e+003,9.996972e-003
2.894675e+003,9.875438e-003
2.896604e+003,9.744043e-003
2.898532e+003,9.677665e-003
2.900460e+003,9.602253e-003
2.902389e+003,9.546465e-003
2.904317e+003,9.492107e-003
2.906246e+003,9.468198e-003
2.908175e+003,9.347048e-003
2.910103e+003,9.213612e-003
2.912031e+003,9.000884e-003
2.913960e+003,8.744646e-003
2.915888e+003,8.503628e-003
2.917817e+003,8.566109e-003
2.919745e+003,8.786028e-003
2.921674e+003,9.076835e-003
2.923603e+003,9.241501e-003
2.925531e+003,9.313939e-003
2.927459e+003,9.501521e-003
2.929388e+003,9.803007e-003
2.931316e+003,1.023560e-002
2.933245e+003,1.062502e-002
2.935173e+003,1.083596e-002
2.937102e+003,1.096918e-002
2.939031e+003,1.105588e-002
2.940959e+003,1.118264e-002
2.942887e+003,1.112444e-002
2.944816e+003,1.101880e-002
2.946744e+003,1.093371e-002
2.948673e+003,1.070261e-002
2.950601e+003,1.027543e-002
2.952530e+003,9.782539e-003
2.954458e+003,9.302734e-003
2.956387e+003,8.813045e-003
2.958315e+003,8.196356e-003
2.960244e+003,7.664945e-003
2.962172e+003,7.211324e-003
2.964101e+003,6.708844e-003
2.966029e+003,6.243782e-003
2.967958e+003,5.714250e-003
2.969886e+003,5.275339e-003
2.971815e+003,4.939107e-003
2.973743e+003,4.571189e-003
2.975672e+003,4.251495e-003
2.977600e+003,3.958886e-003
2.979529e+003,3.755600e-003
2.981457e+003,3.401540e-003
2.983386e+003,3.009998e-003
2.985314e+003,2.820763e-003
2.987243e+003,2.701486e-003
2.989171e+003,2.557345e-003
2.991100e+003,2.535814e-003
2.993028e+003,2.354581e-003
2.994957e+003,2.186643e-003
2.996885e+003,2.146750e-003
2.998814e+003,2.127504e-003
3.000742e+003,1.978527e-003
3.002671e+003,1.841280e-003
3.004599e+003,1.817955e-003
3.006528e+003,1.777097e-003
3.008456e+003,1.625679e-003
3.010385e+003,1.621256e-003
3.012313e+003,1.732285e-003
3.014242e+003,1.712359e-003
3.016170e+003,1.566882e-003
3.018099e+003,1.511585e-003
3.020027e+003,1.577258e-003
3.021956e+003,1.526946e-003
3.023884e+003,1.419560e-003
3.025813e+003,1.352614e-003
3.027741e+003,1.283154e-003
3.029670e+003,1.390872e-003
3.031598e+003,1.446321e-003
3.033527e+003,1.361988e-003
3.035455e+003,1.290266e-003
3.037384e+003,1.239257e-003
3.039312e+003,1.180878e-003
3.041241e+003,1.120513e-003
3.043169e+003,1.050093e-003
3.045098e+003,1.009275e-003
3.047026e+003,9.841681e-004
3.048955e+003,9.015182e-004
3.050883e+003,8.081286e-004
3.052812e+003,8.056388e-004
3.054740e+003,8.252911e-004
3.056669e+003,8.116805e-004
3.058597e+003,7.200027e-004
3.060526e+003,6.085020e-004
3.062454e+003,6.314967e-004
3.064383e+003,6.529993e-004
3.066311e+003,5.750905e-004
3.068240e+003,5.363736e-004
3.070168e+003,5.206821e-004
3.072097e+003,4.345051e-004
3.074025e+003,4.395797e-004
3.075954e+003,5.852099e-004
3.077882e+003,5.453309e-004
3.079811e+003,3.957012e-004
3.081739e+003,2.980435e-004
3.083668e+003,2.020984e-004
3.085596e+003,1.315952e-004
3.087525e+003,6.816207e-005
3.089453e+003,6.869229e-005
3.091382e+003,8.314126e-005
3.093310e+003,1.007723e-004
3.095239e+003,1.757454e-004
3.097167e+003,1.180395e-004
3.099096e+003,-6.139304e-005
3.101024e+003,-2.450233e-004
3.102953e+003,-2.298563e-004
3.104881e+003,-2.103502e-004
3.106810e+003,-2.006796e-004
3.108738e+003,-1.046247e-004
3.110667e+003,-1.788870e-004
3.112595e+003,-1.963742e-004
3.114524e+003,-1.589149e-004
3.116452e+003,-1.566295e-004
3.118381e+003,-1.430823e-004
3.120309e+003,-2.604217e-004
3.122238e+003,-4.064307e-004
3.124166e+003,-4.696860e-004
3.126095e+003,-4.661776e-004
3.128023e+003,-4.651184e-004
3.129952e+003,-4.136140e-004
3.131880e+003,-4.047756e-004
3.133809e+003,-4.852088e-004
3.135737e+003,-4.745514e-004
3.137666e+003,-2.975411e-004
3.139594e+003,-2.713162e-004
3.141523e+003,-3.779281e-004
3.143451e+003,-4.157326e-004
3.145380e+003,-4.570092e-004
3.147308e+003,-4.054045e-004
3.149237e+003,-4.271527e-004
3.151165e+003,-5.171463e-004
3.153094e+003,-5.620864e-004
3.155022e+003,-6.281645e-004
3.156951e+003,-6.175106e-004
3.158879e+003,-5.804516e-004
3.160808e+003,-5.011613e-004
3.162736e+003,-4.968257e-004
3.164665e+003,-4.652177e-004
3.166593e+003,-4.996720e-004
3.168522e+003,-5.702929e-004
3.170450e+003,-4.942442e-004
3.172379e+003,-5.028822e-004
3.174307e+003,-4.849771e-004
3.176236e+003,-3.793185e-004
3.178164e+003,-4.332102e-004
3.180093e+003,-4.544275e-004
3.182021e+003,-4.582670e-004
3.183950e+003,-4.923908e-004
3.185878e+003,-4.452588e-004
3.187807e+003,-4.436700e-004
3.189735e+003,-5.255191e-004
3.191664e+003,-6.658811e-004
3.193592e+003,-6.810330e-004
3.195521e+003,-5.612592e-004
3.197449e+003,-4.049742e-004
3.199378e+003,-3.649837e-004
3.201306e+003,-3.354189e-004
3.203235e+003,-4.248025e-004
3.205163e+003,-5.461693e-004
3.207092e+003,-6.044411e-004
3.209020e+003,-4.879227e-004
3.210948e+003,-3.328033e-004
3.212877e+003,-2.586335e-004
3.214806e+003,-1.154237e-004
3.216734e+003,-1.097261e-004
3.218663e+003,-2.843957e-004
3.220591e+003,-2.319426e-004
3.222520e+003,2.100749e-005
3.224448e+003,2.534828e-005
3.226376e+003,3.880169e-005
3.228305e+003,1.969602e-004
3.230234e+003,1.987503e-004
3.232162e+003,1.001095e-004
3.234091e+003,1.757454e-004
3.236019e+003,2.450954e-004
3.237948e+003,1.688839e-004
3.239876e+003,2.660484e-004
3.241804e+003,4.900306e-004
3.243733e+003,4.005101e-004
3.245662e+003,4.005764e-004
3.247590e+003,4.033291e-004
3.249519e+003,4.874101e-004
3.251447e+003,5.503736e-004
3.253375e+003,5.652368e-004
3.255304e+003,6.474908e-004
3.257232e+003,7.887759e-004
3.259161e+003,8.781772e-004
3.261090e+003,8.180542e-004
3.263018e+003,8.570618e-004
3.264947e+003,8.548707e-004
3.266875e+003,8.423547e-004
3.268803e+003,9.635789e-004
3.270732e+003,1.034549e-003
3.272660e+003,1.051322e-003
3.274589e+003,1.089919e-003
3.276518e+003,1.095101e-003
3.278446e+003,1.087494e-003
3.280375e+003,1.082478e-003
3.282303e+003,1.141243e-003
3.284231e+003,1.118454e-003
3.286160e+003,1.068727e-003
3.288088e+003,1.106495e-003
3.290017e+003,1.045842e-003
3.291946e+003,1.017279e-003
3.293874e+003,9.237315e-004
3.295802e+003,9.123425e-004
3.297731e+003,8.341216e-004
3.299659e+003,7.500067e-004
3.301588e+003,7.150908e-004
3.303516e+003,7.034418e-004
3.305445e+003,6.277139e-004
3.307374e+003,5.038633e-004
3.309302e+003,3.908593e-004
3.311230e+003,3.464551e-004
3.313159e+003,2.235798e-004
3.315087e+003,1.202269e-004
3.317016e+003,2.673999e-005
3.318944e+003,-1.641813e-004
3.320873e+003,-1.000533e-004
3.322802e+003,-1.195312e-004
3.324730e+003,-3.887533e-004
3.326658e+003,-4.327468e-004
3.328587e+003,-3.208178e-004
3.330515e+003,-3.046600e-004
3.332444e+003,-4.517464e-004
3.334372e+003,-6.109594e-004
3.336301e+003,-6.073859e-004
3.338229e+003,-5.775067e-004
3.340158e+003,-6.486443e-004
3.342086e+003,-7.449429e-004
3.344015e+003,-7.259230e-004
3.345943e+003,-7.289994e-004
3.347872e+003,-9.005104e-004
3.349800e+003,-1.027496e-003
3.351729e+003,-9.933482e-004
3.353657e+003,-1.032653e-003
3.355586e+003,-1.155370e-003
3.357514e+003,-1.339562e-003
3.359443e+003,-1.345343e-003
3.361371e+003,-1.145291e-003
3.363300e+003,-1.205894e-003
3.365229e+003,-1.407768e-003
3.367157e+003,-1.565707e-003
3.369085e+003,-1.697350e-003
3.371014e+003,-1.613774e-003
3.372942e+003,-1.519318e-003
3.374871e+003,-1.640512e-003
3.376799e+003,-1.725337e-003
3.378728e+003,-1.939537e-003
3.380656e+003,-2.141862e-003
3.382585e+003,-2.343235e-003
3.384513e+003,-2.374904e-003
3.386442e+003,-2.342774e-003
3.388370e+003,-2.201964e-003
3.390299e+003,-2.336578e-003
3.392227e+003,-2.419916e-003
3.394156e+003,-2.300127e-003
3.396084e+003,-2.267430e-003
3.398013e+003,-2.306785e-003
3.399941e+003,-2.310575e-003
3.401870e+003,-2.451712e-003
3.403798e+003,-2.590728e-003
3.405727e+003,-2.625640e-003
3.407655e+003,-2.473391e-003
3.409584e+003,-2.431646e-003
3.411512e+003,-2.599456e-003
3.413441e+003,-2.668946e-003
3.415369e+003,-2.658046e-003
3.417298e+003,-2.642601e-003
3.419226e+003,-2.724234e-003
3.421155e+003,-2.858061e-003
3.423083e+003,-2.841471e-003
3.425012e+003,-2.836862e-003
3.426940e+003,-2.925996e-003
3.428869e+003,-2.909507e-003
3.430797e+003,-2.733223e-003
3.432726e+003,-2.752517e-003
3.434654e+003,-3.004384e-003
3.436583e+003,-3.174835e-003
3.438511e+003,-2.945380e-003
3.440440e+003,-2.752583e-003
3.442368e+003,-2.766049e-003
3.444297e+003,-2.818296e-003
3.446225e+003,-2.913720e-003
3.448154e+003,-3.097069e-003
3.450082e+003,-3.123749e-003
3.452011e+003,-3.146053e-003
3.453939e+003,-3.204470e-003
3.455868e+003,-3.284386e-003
3.457796e+003,-3.158487e-003
3.459725e+003,-3.062886e-003
3.461653e+003,-3.006687e-003
3.463582e+003,-3.102465e-003
3.465510e+003,-3.250317e-003
3.467439e+003,-3.262912e-003
3.469367e+003,-3.206904e-003
3.471296e+003,-3.081640e-003
3.473224e+003,-3.083449e-003
3.475153e+003,-3.315165e-003
3.477081e+003,-3.297474e-003
3.479010e+003,-3.184373e-003
3.480938e+003,-3.049758e-003
3.482867e+003,-3.024160e-003
3.484795e+003,-2.996026e-003
3.486724e+003,-3.055418e-003
3.488652e+003,-3.082396e-003
3.490581e+003,-3.234958e-003
3.492509e+003,-3.335519e-003
3.494438e+003,-3.242259e-003
3.496366e+003,-2.954398e-003
3.498295e+003,-2.999218e-003
3.500223e+003,-3.234662e-003
3.502152e+003,-3.354556e-003
3.504080e+003,-3.319209e-003
3.506009e+003,-3.299842e-003
3.507937e+003,-3.291950e-003
3.509866e+003,-3.162072e-003
3.511794e+003,-3.192695e-003
3.513723e+003,-3.396836e-003
3.515651e+003,-3.483193e-003
3.517580e+003,-3.334236e-003
3.519508e+003,-3.320295e-003
3.521437e+003,-3.377439e-003
3.523365e+003,-3.392694e-003
3.525294e+003,-3.383850e-003
3.527222e+003,-3.450158e-003
3.529151e+003,-3.390162e-003
3.531079e+003,-3.169341e-003
3.533008e+003,-3.162335e-003
3.534936e+003,-3.240056e-003
3.536865e+003,-3.345415e-003
3.538793e+003,-3.316908e-003
3.540722e+003,-3.182729e-003
3.542650e+003,-3.160296e-003
3.544579e+003,-3.065847e-003
3.546507e+003,-3.072033e-003
3.548436e+003,-3.310858e-003
3.550364e+003,-3.448021e-003
3.552293e+003,-3.315691e-003
3.554221e+003,-3.236537e-003
3.556150e+003,-3.363926e-003
3.558078e+003,-3.320360e-003
3.560007e+003,-3.221803e-003
3.561935e+003,-3.149704e-003
3.563864e+003,-3.188452e-003
3.565792e+003,-3.152927e-003
3.567721e+003,-3.168618e-003
3.569649e+003,-3.507023e-003
3.571578e+003,-3.595394e-003
3.573506e+003,-3.388026e-003
3.575435e+003,-3.220816e-003
3.577363e+003,-3.158487e-003
3.579292e+003,-3.186972e-003
3.581220e+003,-3.394699e-003
3.583149e+003,-3.507647e-003
3.585077e+003,-3.228841e-003
3.587006e+003,-3.091049e-003
3.588934e+003,-3.283729e-003
3.590863e+003,-3.383949e-003
3.592791e+003,-3.468697e-003
3.594720e+003,-3.518690e-003
3.596648e+003,-3.431453e-003
3.598577e+003,-3.324306e-003
3.600505e+003,-3.434642e-003
3.602434e+003,-3.611069e-003
3.604362e+003,-3.448251e-003
3.606291e+003,-3.461268e-003
3.608219e+003,-3.471984e-003
3.610148e+003,-3.442663e-003
3.612076e+003,-3.393878e-003
3.614005e+003,-3.424024e-003
3.615933e+003,-3.585372e-003
3.617862e+003,-3.411959e-003
3.619790e+003,-3.243443e-003
3.621719e+003,-3.371521e-003
3.623647e+003,-3.326312e-003
3.625576e+003,-3.324306e-003
3.627504e+003,-2.883571e-003
3.629433e+003,-2.735232e-003
3.631361e+003,-3.425503e-003
3.633290e+003,-3.753492e-003
3.635218e+003,-3.874326e-003
3.637146e+003,-3.931529e-003
3.639075e+003,-3.884933e-003
3.641004e+003,-3.720707e-003
3.642932e+003,-3.729643e-003
3.644861e+003,-3.620499e-003
3.646789e+003,-3.001126e-003
3.648718e+003,-2.762592e-003
3.650646e+003,-3.278993e-003
3.652574e+003,-3.747645e-003
3.654503e+003,-3.638308e-003
3.656432e+003,-3.503374e-003
3.658360e+003,-3.875147e-003
3.660289e+003,-4.060586e-003
3.662217e+003,-4.083367e-003
3.664146e+003,-3.997556e-003
3.666074e+003,-3.814850e-003
3.668002e+003,-3.521845e-003
3.669931e+003,-3.525559e-003
3.671860e+003,-4.091113e-003
3.673788e+003,-4.034949e-003
3.675717e+003,-3.463109e-003
3.677645e+003,-3.526217e-003
3.679573e+003,-3.817510e-003
3.681502e+003,-3.888217e-003
3.683430e+003,-3.841682e-003
3.685359e+003,-3.769161e-003
3.687288e+003,-3.507023e-003
3.689216e+003,-3.304675e-003
3.691145e+003,-3.445227e-003
3.693073e+003,-3.650499e-003
3.695001e+003,-4.018436e-003
3.696930e+003,-3.978974e-003
3.698858e+003,-3.655558e-003
3.700787e+003,-3.533612e-003
3.702716e+003,-3.593751e-003
3.704644e+003,-3.651616e-003
3.706573e+003,-3.678919e-003
3.708501e+003,-3.528057e-003
3.710429e+003,-3.352682e-003
3.712358e+003,-3.415641e-003
3.714286e+003,-3.627958e-003
3.716215e+003,-3.847003e-003
3.718144e+003,-3.829104e-003
3.720072e+003,-3.745247e-003
3.722000e+003,-3.547842e-003
3.723929e+003,-3.361362e-003
3.725857e+003,-3.279191e-003
3.727786e+003,-3.225355e-003
3.729714e+003,-3.341404e-003
3.731643e+003,-3.463175e-003
3.733572e+003,-3.430401e-003
3.735500e+003,-3.158947e-003
3.737428e+003,-3.313521e-003
3.739357e+003,-3.435628e-003
3.741285e+003,-3.356825e-003
3.743214e+003,-2.876988e-003
3.745142e+003,-2.596492e-003
3.747071e+003,-2.985200e-003
3.749000e+003,-2.893807e-003
3.750928e+003,-2.802988e-003
3.752856e+003,-3.071111e-003
3.754785e+003,-3.485855e-003
3.756713e+003,-3.403313e-003
3.758642e+003,-3.124769e-003
3.760570e+003,-3.213580e-003
3.762499e+003,-3.511295e-003
3.764427e+003,-3.379675e-003
3.766356e+003,-3.204470e-003
3.768284e+003,-3.195195e-003
3.770213e+003,-3.248607e-003
3.772141e+003,-3.227920e-003
3.774070e+003,-3.172466e-003
3.775998e+003,-3.198977e-003
3.777927e+003,-3.295008e-003
3.779855e+003,-3.322366e-003
3.781784e+003,-3.384771e-003
3.783712e+003,-3.317368e-003
3.785641e+003,-3.210653e-003
3.787569e+003,-3.188551e-003
3.789498e+003,-3.256434e-003
3.791426e+003,-3.279651e-003
3.793355e+003,-3.230025e-003
3.795283e+003,-3.007181e-003
3.797212e+003,-3.024719e-003
3.799140e+003,-3.184735e-003
3.801069e+003,-2.921026e-003
3.802997e+003,-3.077330e-003
3.804926e+003,-3.356200e-003
3.806854e+003,-3.145263e-003
3.808783e+003,-3.320821e-003
3.810711e+003,-3.213745e-003
3.812640e+003,-3.025772e-003
3.814568e+003,-2.938206e-003
3.816497e+003,-2.846869e-003
3.818425e+003,-2.916682e-003
3.820354e+003,-2.587500e-003
3.822282e+003,-2.677245e-003
3.824211e+003,-2.927707e-003
3.826139e+003,-3.019685e-003
3.828068e+003,-3.083745e-003
3.829996e+003,-2.960519e-003
3.831925e+003,-2.845355e-003
3.833853e+003,-2.849371e-003
3.835782e+003,-2.765588e-003
3.837710e+003,-2.579628e-003
3.839639e+003,-2.851181e-003
3.841567e+003,-3.088154e-003
3.843496e+003,-3.131546e-003
3.845424e+003,-3.213844e-003
3.847353e+003,-3.358173e-003
3.849281e+003,-3.161875e-003
3.851210e+003,-2.417115e-003
3.853138e+003,-1.813973e-003
3.855067e+003,-2.457642e-003
3.856995e+003,-3.169835e-003
3.858924e+003,-3.196872e-003
3.860852e+003,-3.025772e-003
3.862781e+003,-2.958248e-003
3.864709e+003,-2.888475e-003
3.866638e+003,-2.873499e-003
3.868566e+003,-2.670099e-003
3.870495e+003,-2.597908e-003
3.872423e+003,-3.016033e-003
3.874352e+003,-3.106149e-003
3.876280e+003,-3.243443e-003
3.878209e+003,-3.288234e-003
3.880137e+003,-3.261893e-003
3.882066e+003,-3.302867e-003
3.883994e+003,-3.251106e-003
3.885923e+003,-3.054694e-003
3.887851e+003,-3.312337e-003
3.889780e+003,-3.067920e-003
3.891708e+003,-3.016592e-003
3.893637e+003,-3.497096e-003
3.895565e+003,-3.399762e-003
3.897494e+003,-3.105689e-003
3.899422e+003,-2.803185e-003
3.901351e+003,-2.816518e-003
3.903279e+003,-3.023699e-003
3.905208e+003,-3.160987e-003
3.907136e+003,-3.344594e-003
3.909065e+003,-3.394535e-003
3.910993e+003,-3.351794e-003
3.912922e+003,-3.478525e-003
3.914850e+003,-3.355477e-003
3.916779e+003,-3.371455e-003
3.918707e+003,-3.406206e-003
3.920636e+003,-3.437009e-003
3.922564e+003,-3.695871e-003
3.924493e+003,-3.579884e-003
3.926421e+003,-3.400486e-003
3.928350e+003,-3.423860e-003
3.930278e+003,-3.310594e-003
3.932207e+003,-3.084666e-003
3.934135e+003,-2.941530e-003
3.936064e+003,-2.962756e-003
3.937992e+003,-3.163815e-003
3.939921e+003,-3.273896e-003
3.941849e+003,-3.140296e-003
3.943778e+003,-3.256993e-003
3.945706e+003,-3.570452e-003
3.947635e+003,-3.463372e-003
3.949563e+003,-3.189899e-003
3.951492e+003,-3.107334e-003
3.953420e+003,-3.019290e-003
3.955349e+003,-3.017776e-003
3.957277e+003,-3.120953e-003
3.959206e+003,-3.316283e-003
3.961134e+003,-3.417449e-003
3.963063e+003,-3.227558e-003
3.964991e+003,-3.279059e-003
3.966920e+003,-3.437634e-003
3.968848e+003,-3.506299e-003
3.970777e+003,-3.494697e-003
3.972705e+003,-3.440000e-003
3.974634e+003,-3.414326e-003
3.976562e+003,-3.360178e-003
3.978491e+003,-3.281657e-003
3.980419e+003,-3.182794e-003
3.982348e+003,-3.269752e-003
3.984276e+003,-3.134671e-003
3.986205e+003,-3.095622e-003
3.988133e+003,-3.058971e-003
3.990062e+003,-3.011656e-003
3.991990e+003,-3.043540e-003
3.993919e+003,-2.963711e-003
3.995847e+003,-3.032682e-003
3.997776e+003,-3.280703e-003
3.999704e+003,-3.323846e-003
4.001633e+003,0.000000e+000
