3.991989e+002,1.993671e-002
4.011274e+002,1.668592e-002
4.030559e+002,1.075736e-002
4.049844e+002,6.153875e-003
4.069129e+002,5.739699e-003
4.088414e+002,1.245202e-002
4.107699e+002,1.239484e-002
4.126984e+002,6.930148e-003
4.146269e+002,3.374425e-003
4.165554e+002,1.442464e-003
4.184839e+002,3.739625e-003
4.204124e+002,5.589612e-003
4.223409e+002,4.562014e-003
4.242694e+002,3.407885e-003
4.261979e+002,3.934129e-004
4.281264e+002,6.860186e-004
4.300549e+002,-7.655495e-004
4.319834e+002,-9.091155e-003
4.339119e+002,-7.765334e-003
4.358404e+002,1.435483e-003
4.377689e+002,5.920116e-004
4.396974e+002,-5.314718e-003
4.416259e+002,-7.050831e-003
4.435544e+002,-3.323945e-003
4.454829e+002,-2.050182e-004
4.474114e+002,-7.620762e-006
4.493399e+002,-3.418994e-003
4.512684e+002,-7.443489e-003
4.531969e+002,-7.355995e-003
4.551254e+002,-5.058227e-003
4.570539e+002,-4.371892e-003
4.589824e+002,-6.189391e-003
4.609109e+002,-6.438392e-003
4.628394e+002,-5.290790e-003
4.647679e+002,-5.038805e-003
4.666964e+002,-4.032520e-003
4.686249e+002,-6.017048e-003
4.705533e+002,-6.497804e-003
4.724819e+002,-4.354900e-003
4.744103e+002,-2.991814e-003
4.763389e+002,-3.254395e-003
4.782673e+002,-5.110493e-003
4.801959e+002,-7.410103e-003
4.821243e+002,-8.510279e-003
4.840529e+002,-8.223938e-003
4.859813e+002,-4.619084e-003
4.879099e+002,-4.710049e-003
4.898383e+002,-3.881715e-003
4.917668e+002,-4.767667e-003
4.936953e+002,-4.776417e-003
4.956238e+002,-3.628550e-003
4.975523e+002,-5.531703e-003
4.994808e+002,-7.658991e-003
5.014093e+002,-8.266559e-003
5.033378e+002,-8.720152e-003
5.052663e+002,-7.378049e-003
5.071948e+002,-6.058809e-003
5.091233e+002,-7.145591e-003
5.110518e+002,-8.650000e-003
5.129803e+002,-9.704339e-003
5.149088e+002,-1.154407e-002
5.168373e+002,-1.106729e-002
5.187658e+002,-1.001166e-002
5.206943e+002,-9.961761e-003
5.226228e+002,-1.074769e-002
5.245513e+002,-1.186995e-002
5.264798e+002,-1.177570e-002
5.284083e+002,-1.075380e-002
5.303368e+002,-1.100100e-002
5.322653e+002,-1.160773e-002
5.341938e+002,-1.200202e-002
5.361223e+002,-1.240855e-002
5.380508e+002,-1.229542e-002
5.399792e+002,-1.049523e-002
5.419078e+002,-1.087842e-002
5.438363e+002,-1.131157e-002
5.457648e+002,-1.134179e-002
5.476932e+002,-1.197024e-002
5.496218e+002,-1.158782e-002
5.515503e+002,-1.080260e-002
5.534788e+002,-1.051622e-002
5.554072e+002,-9.566966e-003
5.573358e+002,-9.745845e-003
5.592643e+002,-9.866383e-003
5.611927e+002,-1.122744e-002
5.631212e+002,-1.058801e-002
5.650497e+002,-9.960401e-003
5.669783e+002,-9.796124e-003
5.689067e+002,-9.185697e-003
5.708352e+002,-9.417845e-003
5.727637e+002,-1.077410e-002
5.746923e+002,-1.171056e-002
5.766207e+002,-1.078638e-002
5.785492e+002,-1.135073e-002
5.804777e+002,-2.202461e-002
5.824063e+002,-2.177311e-002
5.843347e+002,-1.128006e-002
5.862632e+002,-8.038089e-003
5.881917e+002,-8.060629e-003
5.901202e+002,-9.864246e-003
5.920487e+002,-1.161331e-002
5.939772e+002,-1.182085e-002
5.959057e+002,-1.100388e-002
5.978342e+002,-9.613573e-003
5.997627e+002,-8.336611e-003
6.016912e+002,-6.958791e-003
6.036197e+002,-5.940280e-003
6.055482e+002,-5.353633e-003
6.074767e+002,-3.784500e-003
6.094052e+002,-2.200744e-003
6.113337e+002,-1.633481e-003
6.132622e+002,-2.920203e-003
6.151907e+002,-3.339168e-003
6.171192e+002,-2.632227e-003
6.190477e+002,-3.432867e-003
6.209762e+002,-3.521747e-003
6.229047e+002,-5.354549e-003
6.248332e+002,-9.433343e-003
6.267617e+002,-1.230115e-002
6.286902e+002,-1.340464e-002
6.306187e+002,-1.256309e-002
6.325472e+002,-1.207560e-002
6.344756e+002,-1.174168e-002
6.364042e+002,-1.177332e-002
6.383326e+002,-1.215542e-002
6.402612e+002,-1.247904e-002
6.421896e+002,-1.219453e-002
6.441182e+002,-1.266029e-002
6.460466e+002,-1.295411e-002
6.479752e+002,-1.256612e-002
6.499036e+002,-1.312472e-002
6.518322e+002,-1.380193e-002
6.537606e+002,-1.337154e-002
6.556891e+002,-1.306614e-002
6.576177e+002,-1.337460e-002
6.595461e+002,-1.365769e-002
6.614746e+002,-1.427325e-002
6.634031e+002,-1.453022e-002
6.653317e+002,-1.300254e-002
6.672601e+002,-8.284601e-003
6.691886e+002,-9.296695e-003
6.711171e+002,-1.298431e-002
6.730457e+002,-1.290902e-002
6.749741e+002,-1.297617e-002
6.769026e+002,-1.322713e-002
6.788311e+002,-1.291089e-002
6.807596e+002,-1.247182e-002
6.826881e+002,-1.223444e-002
6.846166e+002,-1.223367e-002
6.865451e+002,-1.237107e-002
6.884736e+002,-1.230801e-002
6.904021e+002,-1.236830e-002
6.923306e+002,-1.222008e-002
6.942591e+002,-1.182904e-002
6.961876e+002,-1.144326e-002
6.981161e+002,-1.103886e-002
7.000446e+002,-1.096492e-002
7.019731e+002,-1.125585e-002
7.039016e+002,-1.156811e-002
7.058301e+002,-1.214237e-002
7.077585e+002,-1.199835e-002
7.096871e+002,-1.164911e-002
7.116156e+002,-1.148228e-002
7.135441e+002,-1.182846e-002
7.154725e+002,-1.217442e-002
7.174011e+002,-1.217952e-002
7.193296e+002,-1.175145e-002
7.212581e+002,-1.164615e-002
7.231865e+002,-1.167934e-002
7.251151e+002,-1.192125e-002
7.270436e+002,-1.173887e-002
7.289720e+002,-1.167385e-002
7.309005e+002,-1.171140e-002
7.328290e+002,-1.167689e-002
7.347576e+002,-1.166811e-002
7.366860e+002,-1.170753e-002
7.386145e+002,-1.192186e-002
7.405430e+002,-1.161150e-002
7.424716e+002,-1.109684e-002
7.444000e+002,-1.094017e-002
7.463285e+002,-1.088298e-002
7.482570e+002,-1.106687e-002
7.501855e+002,-1.112824e-002
7.521140e+002,-1.032808e-002
7.540425e+002,-9.676408e-003
7.559710e+002,-1.001998e-002
7.578995e+002,-9.973709e-003
7.598280e+002,-9.505184e-003
7.617565e+002,-9.189947e-003
7.636850e+002,-9.103582e-003
7.656135e+002,-9.025411e-003
7.675420e+002,-8.759771e-003
7.694705e+002,-9.098164e-003
7.713990e+002,-9.526449e-003
7.733275e+002,-9.613702e-003
7.752560e+002,-9.731524e-003
7.771844e+002,-9.821230e-003
7.791130e+002,-1.012212e-002
7.810415e+002,-1.014973e-002
7.829700e+002,-1.030802e-002
7.848984e+002,-1.066235e-002
7.868270e+002,-1.062988e-002
7.887555e+002,-1.052233e-002
7.906840e+002,-1.100062e-002
7.926124e+002,-1.151526e-002
7.945410e+002,-1.166169e-002
7.964695e+002,-1.175826e-002
7.983979e+002,-1.178344e-002
8.003264e+002,-1.189307e-002
8.022549e+002,-1.189475e-002
8.041835e+002,-1.166185e-002
8.061119e+002,-1.175145e-002
8.080404e+002,-1.191264e-002
8.099689e+002,-1.160424e-002
8.118975e+002,-1.102908e-002
8.138259e+002,-1.086585e-002
8.157545e+002,-1.090004e-002
8.176830e+002,-1.089186e-002
8.196115e+002,-1.108292e-002
8.215399e+002,-1.146860e-002
8.234684e+002,-1.159511e-002
8.253970e+002,-1.133817e-002
8.273254e+002,-1.120338e-002
8.292539e+002,-1.148150e-002
8.311824e+002,-1.156275e-002
8.331110e+002,-1.143274e-002
8.350394e+002,-1.154939e-002
8.369679e+002,-1.117529e-002
8.388964e+002,-1.090498e-002
8.408250e+002,-1.086646e-002
8.427534e+002,-1.121549e-002
8.446819e+002,-1.172907e-002
8.466104e+002,-1.159708e-002
8.485389e+002,-1.143274e-002
8.504674e+002,-1.162592e-002
8.523959e+002,-1.188820e-002
8.543244e+002,-1.173762e-002
8.562529e+002,-1.175545e-002
8.581814e+002,-1.191506e-002
8.601099e+002,-1.210225e-002
8.620384e+002,-1.265350e-002
8.639669e+002,-1.249265e-002
8.658954e+002,-1.215213e-002
8.678239e+002,-1.268629e-002
8.697524e+002,-1.284276e-002
8.716809e+002,-1.273405e-002
8.736094e+002,-1.275824e-002
8.755378e+002,-1.297482e-002
8.774664e+002,-1.274412e-002
8.793949e+002,-1.241776e-002
8.813234e+002,-1.262666e-002
8.832518e+002,-1.263818e-002
8.851804e+002,-1.257767e-002
8.871089e+002,-1.264787e-002
8.890374e+002,-1.286486e-002
8.909658e+002,-1.287013e-002
8.928943e+002,-1.254529e-002
8.948229e+002,-1.243135e-002
8.967513e+002,-1.240418e-002
8.986798e+002,-1.210863e-002
9.006083e+002,-1.196873e-002
9.025369e+002,-1.213525e-002
9.044653e+002,-1.211855e-002
9.063938e+002,-1.227162e-002
9.083223e+002,-1.257259e-002
9.102509e+002,-1.256872e-002
9.121793e+002,-1.236205e-002
9.141078e+002,-1.250051e-002
9.160364e+002,-1.254014e-002
9.179648e+002,-1.237600e-002
9.198933e+002,-1.244146e-002
9.218218e+002,-1.255926e-002
9.237504e+002,-1.248638e-002
9.256788e+002,-1.270058e-002
9.276073e+002,-1.323873e-002
9.295358e+002,-1.341778e-002
9.314644e+002,-1.331551e-002
9.333928e+002,-1.325972e-002
9.353213e+002,-1.321032e-002
9.372498e+002,-1.306167e-002
9.391783e+002,-1.340949e-002
9.411068e+002,-1.351662e-002
9.430353e+002,-1.329035e-002
9.449637e+002,-1.316371e-002
9.468923e+002,-1.312298e-002
9.488208e+002,-1.319454e-002
9.507493e+002,-1.309093e-002
9.526777e+002,-1.299470e-002
9.546063e+002,-1.288100e-002
9.565348e+002,-1.289229e-002
9.584633e+002,-1.311614e-002
9.603917e+002,-1.334343e-002
9.623203e+002,-1.321607e-002
9.642488e+002,-1.313854e-002
9.661772e+002,-1.314793e-002
9.681057e+002,-1.314658e-002
9.700343e+002,-1.338330e-002
9.719628e+002,-1.332630e-002
9.738912e+002,-1.335532e-002
9.758197e+002,-1.337848e-002
9.777483e+002,-1.340242e-002
9.796768e+002,-1.348263e-002
9.816052e+002,-1.343634e-002
9.835337e+002,-1.337736e-002
9.854623e+002,-1.335011e-002
9.873907e+002,-1.350772e-002
9.893192e+002,-1.374062e-002
9.912477e+002,-1.404028e-002
9.931763e+002,-1.410101e-002
9.951047e+002,-1.397920e-002
9.970332e+002,-1.411945e-002
9.989617e+002,-1.406319e-002
1.000890e+003,-1.381580e-002
1.002819e+003,-1.346786e-002
1.004747e+003,-1.340611e-002
1.006676e+003,-1.339384e-002
1.008604e+003,-1.309550e-002
1.010533e+003,-1.263326e-002
1.012461e+003,-1.246947e-002
1.014390e+003,-1.250276e-002
1.016318e+003,-1.225158e-002
1.018247e+003,-1.173694e-002
1.020175e+003,-1.135170e-002
1.022104e+003,-1.112203e-002
1.024032e+003,-1.080157e-002
1.025961e+003,-1.026980e-002
1.027889e+003,-9.888732e-003
1.029818e+003,-9.550727e-003
1.031746e+003,-9.127171e-003
1.033675e+003,-8.700440e-003
1.035603e+003,-8.472945e-003
1.037532e+003,-8.027290e-003
1.039460e+003,-7.555095e-003
1.041389e+003,-7.577531e-003
1.043317e+003,-7.460849e-003
1.045246e+003,-6.946400e-003
1.047174e+003,-6.684900e-003
1.049103e+003,-6.514680e-003
1.051031e+003,-6.524798e-003
1.052960e+003,-6.510044e-003
1.054888e+003,-6.598493e-003
1.056817e+003,-6.598264e-003
1.058745e+003,-6.365225e-003
1.060674e+003,-6.193833e-003
1.062602e+003,-6.212974e-003
1.064531e+003,-6.254422e-003
1.066459e+003,-6.230678e-003
1.068388e+003,-6.240640e-003
1.070316e+003,-6.218070e-003
1.072245e+003,-6.205201e-003
1.074173e+003,-6.224602e-003
1.076102e+003,-6.396602e-003
1.078030e+003,-6.421056e-003
1.079959e+003,-6.456053e-003
1.081887e+003,-6.454910e-003
1.083816e+003,-6.354678e-003
1.085744e+003,-6.310235e-003
1.087673e+003,-6.284861e-003
1.089601e+003,-6.280289e-003
1.091530e+003,-6.162245e-003
1.093458e+003,-6.218364e-003
1.095387e+003,-6.105368e-003
1.097315e+003,-5.935607e-003
1.099244e+003,-5.935607e-003
1.101172e+003,-5.920931e-003
1.103101e+003,-6.094456e-003
1.105029e+003,-5.964008e-003
1.106958e+003,-5.835352e-003
1.108886e+003,-5.896482e-003
1.110815e+003,-6.028583e-003
1.112743e+003,-6.202000e-003
1.114672e+003,-6.398561e-003
1.116600e+003,-6.171882e-003
1.118529e+003,-6.049006e-003
1.120457e+003,-6.177697e-003
1.122386e+003,-6.293352e-003
1.124314e+003,-6.419064e-003
1.126243e+003,-6.497053e-003
1.128171e+003,-6.577215e-003
1.130100e+003,-6.439371e-003
1.132028e+003,-6.647670e-003
1.133957e+003,-6.951552e-003
1.135885e+003,-7.002743e-003
1.137814e+003,-7.321494e-003
1.139742e+003,-7.833124e-003
1.141671e+003,-7.967436e-003
1.143599e+003,-8.137381e-003
1.145528e+003,-8.455723e-003
1.147456e+003,-8.809450e-003
1.149385e+003,-9.131777e-003
1.151313e+003,-9.392911e-003
1.153242e+003,-9.634670e-003
1.155170e+003,-9.744937e-003
1.157099e+003,-9.827773e-003
1.159027e+003,-9.960336e-003
1.160956e+003,-1.010027e-002
1.162884e+003,-1.023926e-002
1.164813e+003,-1.029614e-002
1.166741e+003,-1.034300e-002
1.168670e+003,-1.036005e-002
1.170598e+003,-1.033245e-002
1.172526e+003,-1.033510e-002
1.174455e+003,-1.060227e-002
1.176384e+003,-1.064712e-002
1.178312e+003,-1.058255e-002
1.180240e+003,-1.061773e-002
1.182169e+003,-1.064385e-002
1.184098e+003,-1.087076e-002
1.186026e+003,-1.105502e-002
1.187954e+003,-1.106209e-002
1.189883e+003,-1.112778e-002
1.191812e+003,-1.114716e-002
1.193740e+003,-1.120690e-002
1.195668e+003,-1.150248e-002
1.197597e+003,-1.176239e-002
1.199526e+003,-1.188698e-002
1.201454e+003,-1.182649e-002
1.203382e+003,-1.169563e-002
1.205311e+003,-1.181891e-002
1.207240e+003,-1.175448e-002
1.209168e+003,-1.157540e-002
1.211096e+003,-1.153494e-002
1.213025e+003,-1.141244e-002
1.214953e+003,-1.148931e-002
1.216882e+003,-1.175593e-002
1.218810e+003,-1.172714e-002
1.220739e+003,-1.160505e-002
1.222667e+003,-1.154104e-002
1.224596e+003,-1.147618e-002
1.226524e+003,-1.139188e-002
1.228453e+003,-1.127942e-002
1.230381e+003,-1.132716e-002
1.232310e+003,-1.123386e-002
1.234238e+003,-1.108347e-002
1.236167e+003,-1.093917e-002
1.238095e+003,-1.082814e-002
1.240024e+003,-1.080425e-002
1.241952e+003,-1.082688e-002
1.243881e+003,-1.097167e-002
1.245809e+003,-1.116796e-002
1.247738e+003,-1.136968e-002
1.249666e+003,-1.130941e-002
1.251595e+003,-1.125937e-002
1.253523e+003,-1.147015e-002
1.255452e+003,-1.165779e-002
1.257380e+003,-1.176455e-002
1.259309e+003,-1.183339e-002
1.261237e+003,-1.182813e-002
1.263166e+003,-1.176548e-002
1.265094e+003,-1.141528e-002
1.267023e+003,-1.101160e-002
1.268951e+003,-1.077891e-002
1.270880e+003,-1.054639e-002
1.272808e+003,-1.049028e-002
1.274737e+003,-1.049863e-002
1.276665e+003,-1.034584e-002
1.278594e+003,-1.010092e-002
1.280522e+003,-9.973030e-003
1.282451e+003,-9.958781e-003
1.284379e+003,-9.718629e-003
1.286308e+003,-9.553385e-003
1.288236e+003,-9.345599e-003
1.290165e+003,-9.081129e-003
1.292093e+003,-8.973581e-003
1.294022e+003,-8.816626e-003
1.295950e+003,-8.621318e-003
1.297879e+003,-8.596663e-003
1.299807e+003,-8.648896e-003
1.301736e+003,-8.676698e-003
1.303664e+003,-8.890809e-003
1.305593e+003,-9.136028e-003
1.307521e+003,-9.162501e-003
1.309450e+003,-9.262737e-003
1.311378e+003,-9.661599e-003
1.313307e+003,-1.006437e-002
1.315235e+003,-1.029508e-002
1.317164e+003,-1.030300e-002
1.319092e+003,-1.045548e-002
1.321021e+003,-1.079103e-002
1.322949e+003,-1.102119e-002
1.324878e+003,-1.115452e-002
1.326806e+003,-1.128061e-002
1.328735e+003,-1.134589e-002
1.330663e+003,-1.135780e-002
1.332592e+003,-1.133591e-002
1.334520e+003,-1.139592e-002
1.336449e+003,-1.136571e-002
1.338377e+003,-1.133278e-002
1.340306e+003,-1.139827e-002
1.342234e+003,-1.155052e-002
1.344163e+003,-1.170524e-002
1.346091e+003,-1.177348e-002
1.348020e+003,-1.171291e-002
1.349948e+003,-1.175823e-002
1.351877e+003,-1.179325e-002
1.353805e+003,-1.176651e-002
1.355734e+003,-1.177993e-002
1.357662e+003,-1.179508e-002
1.359591e+003,-1.174284e-002
1.361519e+003,-1.173968e-002
1.363448e+003,-1.189884e-002
1.365376e+003,-1.232196e-002
1.367305e+003,-1.253914e-002
1.369233e+003,-1.254278e-002
1.371162e+003,-1.251014e-002
1.373090e+003,-1.232251e-002
1.375019e+003,-1.233790e-002
1.376947e+003,-1.248969e-002
1.378876e+003,-1.256177e-002
1.380804e+003,-1.262119e-002
1.382733e+003,-1.263326e-002
1.384661e+003,-1.262138e-002
1.386590e+003,-1.257571e-002
1.388518e+003,-1.268057e-002
1.390447e+003,-1.294038e-002
1.392375e+003,-1.308852e-002
1.394304e+003,-1.308495e-002
1.396232e+003,-1.320720e-002
1.398161e+003,-1.328414e-002
1.400089e+003,-1.327071e-002
1.402018e+003,-1.339930e-002
1.403946e+003,-1.351228e-002
1.405875e+003,-1.354530e-002
1.407803e+003,-1.369230e-002
1.409732e+003,-1.379374e-002
1.411660e+003,-1.372547e-002
1.413589e+003,-1.361020e-002
1.415517e+003,-1.347300e-002
1.417446e+003,-1.303225e-002
1.419374e+003,-1.242285e-002
1.421303e+003,-1.242218e-002
1.423231e+003,-1.218721e-002
1.425160e+003,-1.161847e-002
1.427088e+003,-1.137707e-002
1.429017e+003,-1.098666e-002
1.430945e+003,-1.054264e-002
1.432874e+003,-1.009927e-002
1.434802e+003,-9.498247e-003
1.436731e+003,-8.854482e-003
1.438659e+003,-8.881005e-003
1.440588e+003,-8.893633e-003
1.442516e+003,-8.448834e-003
1.444445e+003,-7.938091e-003
1.446373e+003,-7.480097e-003
1.448302e+003,-7.116907e-003
1.450230e+003,-6.977735e-003
1.452159e+003,-6.739712e-003
1.454087e+003,-6.267160e-003
1.456016e+003,-5.300610e-003
1.457944e+003,-4.767765e-003
1.459873e+003,-5.269906e-003
1.461801e+003,-5.589375e-003
1.463730e+003,-5.475528e-003
1.465658e+003,-5.463814e-003
1.467587e+003,-5.807956e-003
1.469515e+003,-6.046915e-003
1.471444e+003,-6.068578e-003
1.473372e+003,-6.151204e-003
1.475301e+003,-6.658438e-003
1.477229e+003,-7.264996e-003
1.479158e+003,-7.861467e-003
1.481086e+003,-8.242957e-003
1.483015e+003,-8.648538e-003
1.484943e+003,-9.113122e-003
1.486872e+003,-9.380038e-003
1.488800e+003,-9.510079e-003
1.490729e+003,-9.712602e-003
1.492657e+003,-1.029983e-002
1.494586e+003,-1.064763e-002
1.496514e+003,-1.063464e-002
1.498443e+003,-1.079572e-002
1.500371e+003,-1.121149e-002
1.502300e+003,-1.156975e-002
1.504228e+003,-1.153333e-002
1.506157e+003,-1.098401e-002
1.508085e+003,-1.122957e-002
1.510014e+003,-1.193317e-002
1.511942e+003,-1.222997e-002
1.513871e+003,-1.232511e-002
1.515799e+003,-1.209690e-002
1.517728e+003,-1.192537e-002
1.519656e+003,-1.190729e-002
1.521585e+003,-1.163427e-002
1.523513e+003,-1.193127e-002
1.525442e+003,-1.205572e-002
1.527370e+003,-1.216405e-002
1.529299e+003,-1.220886e-002
1.531227e+003,-1.215148e-002
1.533156e+003,-1.175523e-002
1.535084e+003,-1.178976e-002
1.537013e+003,-1.191606e-002
1.538941e+003,-1.123909e-002
1.540870e+003,-1.072235e-002
1.542798e+003,-1.077461e-002
1.544727e+003,-1.093620e-002
1.546655e+003,-1.127244e-002
1.548584e+003,-1.129705e-002
1.550512e+003,-1.110401e-002
1.552441e+003,-1.098782e-002
1.554369e+003,-1.080739e-002
1.556298e+003,-1.064848e-002
1.558226e+003,-9.686680e-003
1.560155e+003,-9.191277e-003
1.562083e+003,-9.672130e-003
1.564012e+003,-9.664354e-003
1.565940e+003,-9.535428e-003
1.567869e+003,-9.213530e-003
1.569797e+003,-8.612743e-003
1.571726e+003,-8.741358e-003
1.573654e+003,-8.944207e-003
1.575583e+003,-8.496307e-003
1.577511e+003,-8.269810e-003
1.579440e+003,-8.468785e-003
1.581368e+003,-8.509921e-003
1.583297e+003,-8.682642e-003
1.585225e+003,-8.687709e-003
1.587154e+003,-8.778831e-003
1.589082e+003,-9.029046e-003
1.591010e+003,-9.304770e-003
1.592939e+003,-9.477726e-003
1.594868e+003,-9.550111e-003
1.596796e+003,-9.746557e-003
1.598724e+003,-1.004721e-002
1.600653e+003,-1.037842e-002
1.602582e+003,-1.055173e-002
1.604510e+003,-1.079107e-002
1.606438e+003,-1.116160e-002
1.608367e+003,-1.135173e-002
1.610296e+003,-1.163798e-002
1.612224e+003,-1.208259e-002
1.614152e+003,-1.222194e-002
1.616081e+003,-1.201553e-002
1.618010e+003,-1.207624e-002
1.619938e+003,-1.255166e-002
1.621866e+003,-1.269228e-002
1.623795e+003,-1.279907e-002
1.625724e+003,-1.305344e-002
1.627652e+003,-1.320241e-002
1.629580e+003,-1.336743e-002
1.631509e+003,-1.363473e-002
1.633438e+003,-1.364989e-002
1.635366e+003,-1.339930e-002
1.637294e+003,-1.377503e-002
1.639223e+003,-1.439466e-002
1.641151e+003,-1.468686e-002
1.643080e+003,-1.503641e-002
1.645008e+003,-1.506016e-002
1.646937e+003,-1.496846e-002
1.648865e+003,-1.552344e-002
1.650794e+003,-1.587328e-002
1.652722e+003,-1.519526e-002
1.654651e+003,-1.559003e-002
1.656579e+003,-1.645633e-002
1.658508e+003,-1.673908e-002
1.660436e+003,-1.686040e-002
1.662365e+003,-1.674035e-002
1.664293e+003,-1.670984e-002
1.666222e+003,-1.692041e-002
1.668150e+003,-1.678754e-002
1.670079e+003,-1.656813e-002
1.672007e+003,-1.679241e-002
1.673936e+003,-1.679522e-002
1.675864e+003,-1.674275e-002
1.677793e+003,-1.710362e-002
1.679721e+003,-1.713662e-002
1.681650e+003,-1.706106e-002
1.683578e+003,-1.651758e-002
1.685507e+003,-1.643132e-002
1.687435e+003,-1.687424e-002
1.689364e+003,-1.700135e-002
1.691292e+003,-1.697373e-002
1.693221e+003,-1.680558e-002
1.695149e+003,-1.620911e-002
1.697078e+003,-1.610332e-002
1.699006e+003,-1.605079e-002
1.700935e+003,-1.557398e-002
1.702863e+003,-1.603192e-002
1.704792e+003,-1.605906e-002
1.706720e+003,-1.599395e-002
1.708649e+003,-1.606737e-002
1.710577e+003,-1.619484e-002
1.712506e+003,-1.611752e-002
1.714434e+003,-1.583469e-002
1.716363e+003,-1.549271e-002
1.718291e+003,-1.533768e-002
1.720220e+003,-1.573794e-002
1.722148e+003,-1.601557e-002
1.724077e+003,-1.603467e-002
1.726005e+003,-1.601966e-002
1.727934e+003,-1.594170e-002
1.729862e+003,-1.596380e-002
1.731791e+003,-1.596291e-002
1.733719e+003,-1.552743e-002
1.735648e+003,-1.554227e-002
1.737576e+003,-1.587983e-002
1.739505e+003,-1.581641e-002
1.741433e+003,-1.593033e-002
1.743362e+003,-1.580948e-002
1.745290e+003,-1.566920e-002
1.747219e+003,-1.559722e-002
1.749147e+003,-1.542333e-002
1.751076e+003,-1.521500e-002
1.753004e+003,-1.542387e-002
1.754933e+003,-1.560227e-002
1.756861e+003,-1.537846e-002
1.758790e+003,-1.542723e-002
1.760718e+003,-1.533746e-002
1.762647e+003,-1.521251e-002
1.764575e+003,-1.550780e-002
1.766504e+003,-1.553731e-002
1.768432e+003,-1.537075e-002
1.770361e+003,-1.533688e-002
1.772289e+003,-1.520816e-002
1.774218e+003,-1.522911e-002
1.776146e+003,-1.539544e-002
1.778075e+003,-1.552168e-002
1.780003e+003,-1.553792e-002
1.781932e+003,-1.556017e-002
1.783860e+003,-1.558338e-002
1.785789e+003,-1.553479e-002
1.787717e+003,-1.555787e-002
1.789646e+003,-1.552903e-002
1.791574e+003,-1.532661e-002
1.793503e+003,-1.523116e-002
1.795431e+003,-1.543055e-002
1.797360e+003,-1.547094e-002
1.799288e+003,-1.543903e-002
1.801217e+003,-1.540212e-002
1.803145e+003,-1.552718e-002
1.805074e+003,-1.553693e-002
1.807002e+003,-1.560754e-002
1.808931e+003,-1.566719e-002
1.810859e+003,-1.557574e-002
1.812788e+003,-1.558987e-002
1.814716e+003,-1.569214e-002
1.816645e+003,-1.567466e-002
1.818573e+003,-1.566153e-002
1.820502e+003,-1.572561e-002
1.822430e+003,-1.570624e-002
1.824359e+003,-1.548283e-002
1.826287e+003,-1.545226e-002
1.828216e+003,-1.557289e-002
1.830144e+003,-1.554690e-002
1.832073e+003,-1.576420e-002
1.834001e+003,-1.582581e-002
1.835930e+003,-1.573903e-002
1.837858e+003,-1.576846e-002
1.839787e+003,-1.579252e-002
1.841715e+003,-1.580894e-002
1.843644e+003,-1.553357e-002
1.845572e+003,-1.551963e-002
1.847501e+003,-1.578942e-002
1.849429e+003,-1.580200e-002
1.851358e+003,-1.567971e-002
1.853286e+003,-1.564533e-002
1.855215e+003,-1.563912e-002
1.857143e+003,-1.563912e-002
1.859072e+003,-1.570729e-002
1.861000e+003,-1.571643e-002
1.862929e+003,-1.567952e-002
1.864857e+003,-1.564280e-002
1.866786e+003,-1.567223e-002
1.868714e+003,-1.559242e-002
1.870643e+003,-1.567339e-002
1.872571e+003,-1.577555e-002
1.874500e+003,-1.575452e-002
1.876428e+003,-1.577245e-002
1.878357e+003,-1.575126e-002
1.880285e+003,-1.572426e-002
1.882214e+003,-1.578517e-002
1.884142e+003,-1.580763e-002
1.886071e+003,-1.580245e-002
1.887999e+003,-1.576120e-002
1.889928e+003,-1.574954e-002
1.891856e+003,-1.585711e-002
1.893785e+003,-1.583523e-002
1.895713e+003,-1.586788e-002
1.897642e+003,-1.593049e-002
1.899570e+003,-1.586069e-002
1.901499e+003,-1.581693e-002
1.903427e+003,-1.584577e-002
1.905356e+003,-1.587037e-002
1.907284e+003,-1.593371e-002
1.909213e+003,-1.588120e-002
1.911141e+003,-1.582849e-002
1.913070e+003,-1.579731e-002
1.914998e+003,-1.576082e-002
1.916927e+003,-1.562362e-002
1.918855e+003,-1.558232e-002
1.920784e+003,-1.568595e-002
1.922712e+003,-1.569873e-002
1.924641e+003,-1.575711e-002
1.926569e+003,-1.574644e-002
1.928498e+003,-1.585702e-002
1.930426e+003,-1.585552e-002
1.932355e+003,-1.594952e-002
1.934283e+003,-1.605517e-002
1.936212e+003,-1.592918e-002
1.938140e+003,-1.587197e-002
1.940069e+003,-1.584993e-002
1.941997e+003,-1.571883e-002
1.943926e+003,-1.578354e-002
1.945854e+003,-1.597009e-002
1.947783e+003,-1.599430e-002
1.949711e+003,-1.595907e-002
1.951640e+003,-1.599005e-002
1.953568e+003,-1.602927e-002
1.955497e+003,-1.607219e-002
1.957425e+003,-1.609304e-002
1.959354e+003,-1.600254e-002
1.961282e+003,-1.596540e-002
1.963211e+003,-1.598501e-002
1.965139e+003,-1.604645e-002
1.967068e+003,-1.608521e-002
1.968996e+003,-1.617001e-002
1.970925e+003,-1.612053e-002
1.972853e+003,-1.600593e-002
1.974782e+003,-1.595888e-002
1.976710e+003,-1.594240e-002
1.978639e+003,-1.594665e-002
1.980567e+003,-1.597750e-002
1.982496e+003,-1.604425e-002
1.984424e+003,-1.600104e-002
1.986353e+003,-1.597750e-002
1.988281e+003,-1.606325e-002
1.990210e+003,-1.602978e-002
1.992138e+003,-1.593582e-002
1.994067e+003,-1.592423e-002
1.995995e+003,-1.607567e-002
1.997924e+003,-1.610536e-002
1.999852e+003,-1.599909e-002
2.001781e+003,-1.602914e-002
2.003709e+003,-1.602818e-002
2.005638e+003,-1.601388e-002
2.007566e+003,-1.595090e-002
2.009495e+003,-1.593688e-002
2.011423e+003,-1.596422e-002
2.013352e+003,-1.592352e-002
2.015280e+003,-1.589839e-002
2.017208e+003,-1.591420e-002
2.019137e+003,-1.596140e-002
2.021066e+003,-1.601761e-002
2.022994e+003,-1.600957e-002
2.024922e+003,-1.597290e-002
2.026851e+003,-1.600114e-002
2.028780e+003,-1.604859e-002
2.030708e+003,-1.604121e-002
2.032636e+003,-1.593566e-002
2.034565e+003,-1.594978e-002
2.036494e+003,-1.605577e-002
2.038422e+003,-1.600337e-002
2.040350e+003,-1.598434e-002
2.042279e+003,-1.601950e-002
2.044208e+003,-1.602608e-002
2.046136e+003,-1.604345e-002
2.048064e+003,-1.599845e-002
2.049993e+003,-1.593627e-002
2.051921e+003,-1.594748e-002
2.053850e+003,-1.587248e-002
2.055778e+003,-1.591203e-002
2.057707e+003,-1.590174e-002
2.059635e+003,-1.590586e-002
2.061564e+003,-1.594061e-002
2.063492e+003,-1.595569e-002
2.065421e+003,-1.597920e-002
2.067349e+003,-1.590072e-002
2.069278e+003,-1.587673e-002
2.071206e+003,-1.586778e-002
2.073135e+003,-1.591072e-002
2.075063e+003,-1.591036e-002
2.076992e+003,-1.580945e-002
2.078920e+003,-1.586296e-002
2.080849e+003,-1.589634e-002
2.082777e+003,-1.589340e-002
2.084706e+003,-1.591177e-002
2.086634e+003,-1.593751e-002
2.088563e+003,-1.593423e-002
2.090491e+003,-1.590727e-002
2.092420e+003,-1.598842e-002
2.094348e+003,-1.591030e-002
2.096277e+003,-1.582028e-002
2.098205e+003,-1.590982e-002
2.100134e+003,-1.596926e-002
2.102062e+003,-1.587922e-002
2.103991e+003,-1.585660e-002
2.105919e+003,-1.585098e-002
2.107848e+003,-1.577053e-002
2.109776e+003,-1.580475e-002
2.111705e+003,-1.579466e-002
2.113633e+003,-1.574896e-002
2.115562e+003,-1.570902e-002
2.117490e+003,-1.571790e-002
2.119419e+003,-1.568272e-002
2.121347e+003,-1.567598e-002
2.123276e+003,-1.570867e-002
2.125204e+003,-1.568141e-002
2.127133e+003,-1.561985e-002
2.129061e+003,-1.555151e-002
2.130990e+003,-1.554262e-002
2.132918e+003,-1.556621e-002
2.134847e+003,-1.555531e-002
2.136775e+003,-1.553754e-002
2.138704e+003,-1.551599e-002
2.140632e+003,-1.548907e-002
2.142561e+003,-1.547743e-002
2.144489e+003,-1.551714e-002
2.146418e+003,-1.553693e-002
2.148346e+003,-1.547557e-002
2.150275e+003,-1.540894e-002
2.152203e+003,-1.534596e-002
2.154132e+003,-1.531974e-002
2.156060e+003,-1.536490e-002
2.157989e+003,-1.539199e-002
2.159917e+003,-1.542652e-002
2.161846e+003,-1.545035e-002
2.163774e+003,-1.534580e-002
2.165703e+003,-1.527320e-002
2.167631e+003,-1.526286e-002
2.169560e+003,-1.521852e-002
2.171488e+003,-1.522185e-002
2.173417e+003,-1.531123e-002
2.175345e+003,-1.538684e-002
2.177274e+003,-1.529405e-002
2.179202e+003,-1.519888e-002
2.181131e+003,-1.526625e-002
2.183059e+003,-1.532284e-002
2.184988e+003,-1.528196e-002
2.186916e+003,-1.524392e-002
2.188845e+003,-1.529824e-002
2.190773e+003,-1.535537e-002
2.192702e+003,-1.539333e-002
2.194630e+003,-1.535255e-002
2.196559e+003,-1.526945e-002
2.198487e+003,-1.525800e-002
2.200416e+003,-1.537964e-002
2.202344e+003,-1.539298e-002
2.204273e+003,-1.536285e-002
2.206201e+003,-1.544667e-002
2.208130e+003,-1.543682e-002
2.210058e+003,-1.535786e-002
2.211987e+003,-1.539880e-002
2.213915e+003,-1.546764e-002
2.215844e+003,-1.541034e-002
2.217772e+003,-1.540539e-002
2.219701e+003,-1.545693e-002
2.221629e+003,-1.556154e-002
2.223558e+003,-1.560815e-002
2.225486e+003,-1.560371e-002
2.227415e+003,-1.560991e-002
2.229343e+003,-1.562813e-002
2.231272e+003,-1.565805e-002
2.233200e+003,-1.566079e-002
2.235129e+003,-1.567511e-002
2.237057e+003,-1.568595e-002
2.238986e+003,-1.568825e-002
2.240914e+003,-1.572656e-002
2.242843e+003,-1.571682e-002
2.244771e+003,-1.561630e-002
2.246700e+003,-1.564232e-002
2.248628e+003,-1.573545e-002
2.250557e+003,-1.584657e-002
2.252485e+003,-1.578286e-002
2.254414e+003,-1.575615e-002
2.256342e+003,-1.581338e-002
2.258271e+003,-1.582175e-002
2.260199e+003,-1.578248e-002
2.262128e+003,-1.575970e-002
2.264056e+003,-1.576555e-002
2.265985e+003,-1.576085e-002
2.267913e+003,-1.574941e-002
2.269842e+003,-1.572672e-002
2.271770e+003,-1.573241e-002
2.273699e+003,-1.578737e-002
2.275627e+003,-1.590541e-002
2.277556e+003,-1.598143e-002
2.279484e+003,-1.594170e-002
2.281413e+003,-1.587647e-002
2.283341e+003,-1.593221e-002
2.285270e+003,-1.592314e-002
2.287198e+003,-1.585750e-002
2.289127e+003,-1.577823e-002
2.291055e+003,-1.569796e-002
2.292984e+003,-1.566773e-002
2.294912e+003,-1.569851e-002
2.296841e+003,-1.566773e-002
2.298769e+003,-1.549450e-002
2.300698e+003,-1.533509e-002
2.302626e+003,-1.510679e-002
2.304555e+003,-1.494275e-002
2.306483e+003,-1.474067e-002
2.308412e+003,-1.445998e-002
2.310340e+003,-1.413741e-002
2.312269e+003,-1.363859e-002
2.314197e+003,-1.309209e-002
2.316125e+003,-1.256509e-002
2.318054e+003,-1.204695e-002
2.319983e+003,-1.134205e-002
2.321911e+003,-1.051531e-002
2.323840e+003,-9.867096e-003
2.325768e+003,-9.426372e-003
2.327697e+003,-8.935119e-003
2.329625e+003,-8.226278e-003
2.331553e+003,-7.799149e-003
2.333482e+003,-7.700854e-003
2.335411e+003,-7.538619e-003
2.337339e+003,-7.301652e-003
2.339268e+003,-7.251506e-003
2.341196e+003,-7.472346e-003
2.343125e+003,-8.047879e-003
2.345053e+003,-9.297668e-003
2.346981e+003,-1.130044e-002
2.348910e+003,-1.255102e-002
2.350839e+003,-1.128607e-002
2.352767e+003,-8.788280e-003
2.354696e+003,-6.756480e-003
2.356624e+003,-5.522870e-003
2.358552e+003,-4.827111e-003
2.360481e+003,-4.535741e-003
2.362409e+003,-4.585677e-003
2.364338e+003,-4.961635e-003
2.366267e+003,-5.639746e-003
2.368195e+003,-6.566510e-003
2.370124e+003,-7.763381e-003
2.372052e+003,-9.258845e-003
2.373980e+003,-1.069086e-002
2.375909e+003,-1.208462e-002
2.377838e+003,-1.340807e-002
2.379766e+003,-1.449658e-002
2.381695e+003,-1.516039e-002
2.383623e+003,-1.540762e-002
2.385552e+003,-1.563433e-002
2.387480e+003,-1.582092e-002
2.389408e+003,-1.578648e-002
2.391337e+003,-1.575676e-002
2.393266e+003,-1.575532e-002
2.395194e+003,-1.573880e-002
2.397123e+003,-1.566565e-002
2.399051e+003,-1.558015e-002
2.400979e+003,-1.553939e-002
2.402908e+003,-1.558686e-002
2.404836e+003,-1.559728e-002
2.406765e+003,-1.558095e-002
2.408694e+003,-1.562925e-002
2.410622e+003,-1.564232e-002
2.412551e+003,-1.561975e-002
2.414479e+003,-1.551055e-002
2.416407e+003,-1.544002e-002
2.418336e+003,-1.545844e-002
2.420264e+003,-1.552088e-002
2.422193e+003,-1.553872e-002
2.424122e+003,-1.546729e-002
2.426050e+003,-1.542892e-002
2.427979e+003,-1.546864e-002
2.429907e+003,-1.546873e-002
2.431835e+003,-1.540132e-002
2.433764e+003,-1.536605e-002
2.435692e+003,-1.539045e-002
2.437621e+003,-1.537027e-002
2.439550e+003,-1.537082e-002
2.441478e+003,-1.541648e-002
2.443406e+003,-1.541364e-002
2.445335e+003,-1.538655e-002
2.447263e+003,-1.540510e-002
2.449192e+003,-1.543362e-002
2.451121e+003,-1.542732e-002
2.453049e+003,-1.538591e-002
2.454978e+003,-1.532178e-002
2.456906e+003,-1.523705e-002
2.458834e+003,-1.523260e-002
2.460763e+003,-1.529408e-002
2.462691e+003,-1.538469e-002
2.464620e+003,-1.533397e-002
2.466549e+003,-1.521705e-002
2.468477e+003,-1.517111e-002
2.470406e+003,-1.518093e-002
2.472334e+003,-1.522441e-002
2.474262e+003,-1.527124e-002
2.476191e+003,-1.530378e-002
2.478119e+003,-1.523612e-002
2.480048e+003,-1.523596e-002
2.481977e+003,-1.521456e-002
2.483905e+003,-1.522057e-002
2.485833e+003,-1.526715e-002
2.487762e+003,-1.518941e-002
2.489690e+003,-1.524162e-002
2.491619e+003,-1.523980e-002
2.493547e+003,-1.512176e-002
2.495476e+003,-1.501036e-002
2.497405e+003,-1.499221e-002
2.499333e+003,-1.507421e-002
2.501261e+003,-1.514893e-002
2.503190e+003,-1.515047e-002
2.505118e+003,-1.506147e-002
2.507047e+003,-1.504931e-002
2.508975e+003,-1.512404e-002
2.510904e+003,-1.517616e-002
2.512833e+003,-1.510413e-002
2.514761e+003,-1.507098e-002
2.516689e+003,-1.508788e-002
2.518618e+003,-1.501106e-002
2.520546e+003,-1.498811e-002
2.522475e+003,-1.501807e-002
2.524403e+003,-1.503916e-002
2.526332e+003,-1.503731e-002
2.528260e+003,-1.503225e-002
2.530189e+003,-1.509101e-002
2.532117e+003,-1.513133e-002
2.534046e+003,-1.509981e-002
2.535974e+003,-1.499775e-002
2.537903e+003,-1.496244e-002
2.539831e+003,-1.487200e-002
2.541760e+003,-1.489530e-002
2.543688e+003,-1.485858e-002
2.545617e+003,-1.479425e-002
2.547545e+003,-1.478608e-002
2.549474e+003,-1.485493e-002
2.551402e+003,-1.490801e-002
2.553331e+003,-1.489940e-002
2.555259e+003,-1.481420e-002
2.557188e+003,-1.482358e-002
2.559116e+003,-1.492377e-002
2.561045e+003,-1.488042e-002
2.562973e+003,-1.483181e-002
2.564902e+003,-1.479764e-002
2.566830e+003,-1.477193e-002
2.568759e+003,-1.479441e-002
2.570687e+003,-1.476382e-002
2.572616e+003,-1.470182e-002
2.574544e+003,-1.463640e-002
2.576473e+003,-1.469115e-002
2.578401e+003,-1.476264e-002
2.580330e+003,-1.482172e-002
2.582258e+003,-1.483492e-002
2.584187e+003,-1.471703e-002
2.586115e+003,-1.473490e-002
2.588044e+003,-1.488295e-002
2.589972e+003,-1.482752e-002
2.591901e+003,-1.474983e-002
2.593829e+003,-1.480145e-002
2.595758e+003,-1.485349e-002
2.597686e+003,-1.488445e-002
2.599615e+003,-1.488141e-002
2.601543e+003,-1.483543e-002
2.603472e+003,-1.480446e-002
2.605400e+003,-1.477394e-002
2.607329e+003,-1.477417e-002
2.609257e+003,-1.473234e-002
2.611186e+003,-1.465819e-002
2.613114e+003,-1.464480e-002
2.615043e+003,-1.469640e-002
2.616971e+003,-1.471924e-002
2.618900e+003,-1.460750e-002
2.620828e+003,-1.456867e-002
2.622757e+003,-1.456550e-002
2.624685e+003,-1.455268e-002
2.626614e+003,-1.453849e-002
2.628542e+003,-1.449443e-002
2.630471e+003,-1.440677e-002
2.632399e+003,-1.432365e-002
2.634328e+003,-1.437985e-002
2.636256e+003,-1.443434e-002
2.638185e+003,-1.433773e-002
2.640113e+003,-1.432295e-002
2.642042e+003,-1.439177e-002
2.643970e+003,-1.429707e-002
2.645899e+003,-1.424728e-002
2.647827e+003,-1.422826e-002
2.649756e+003,-1.415300e-002
2.651684e+003,-1.411554e-002
2.653613e+003,-1.412577e-002
2.655541e+003,-1.414572e-002
2.657470e+003,-1.421646e-002
2.659398e+003,-1.419177e-002
2.661327e+003,-1.409148e-002
2.663255e+003,-1.404555e-002
2.665184e+003,-1.410178e-002
2.667112e+003,-1.407551e-002
2.669041e+003,-1.397381e-002
2.670969e+003,-1.386644e-002
2.672898e+003,-1.385742e-002
2.674826e+003,-1.388846e-002
2.676755e+003,-1.390277e-002
2.678683e+003,-1.384449e-002
2.680612e+003,-1.376996e-002
2.682540e+003,-1.376145e-002
2.684469e+003,-1.373385e-002
2.686397e+003,-1.367105e-002
2.688326e+003,-1.352940e-002
2.690254e+003,-1.343275e-002
2.692183e+003,-1.345902e-002
2.694111e+003,-1.348845e-002
2.696040e+003,-1.346346e-002
2.697968e+003,-1.335567e-002
2.699897e+003,-1.325741e-002
2.701825e+003,-1.327084e-002
2.703754e+003,-1.327122e-002
2.705682e+003,-1.317667e-002
2.707611e+003,-1.316188e-002
2.709539e+003,-1.314764e-002
2.711468e+003,-1.311543e-002
2.713396e+003,-1.297656e-002
2.715325e+003,-1.289300e-002
2.717253e+003,-1.294485e-002
2.719182e+003,-1.291938e-002
2.721110e+003,-1.282651e-002
2.723039e+003,-1.273028e-002
2.724967e+003,-1.264175e-002
2.726896e+003,-1.255022e-002
2.728824e+003,-1.252948e-002
2.730753e+003,-1.247115e-002
2.732681e+003,-1.244874e-002
2.734610e+003,-1.245656e-002
2.736538e+003,-1.243969e-002
2.738467e+003,-1.234557e-002
2.740395e+003,-1.214791e-002
2.742324e+003,-1.202736e-002
2.744252e+003,-1.198849e-002
2.746181e+003,-1.189642e-002
2.748109e+003,-1.181314e-002
2.750038e+003,-1.170801e-002
2.751966e+003,-1.157992e-002
2.753895e+003,-1.150342e-002
2.755823e+003,-1.146614e-002
2.757752e+003,-1.143929e-002
2.759680e+003,-1.120261e-002
2.761609e+003,-1.096879e-002
2.763537e+003,-1.069212e-002
2.765466e+003,-1.046369e-002
2.767394e+003,-1.025573e-002
2.769323e+003,-9.920018e-003
2.771251e+003,-9.557599e-003
2.773180e+003,-9.222094e-003
2.775108e+003,-8.780228e-003
2.777037e+003,-8.218670e-003
2.778965e+003,-7.700236e-003
2.780894e+003,-7.062828e-003
2.782822e+003,-6.334172e-003
2.784750e+003,-5.727293e-003
2.786679e+003,-5.056131e-003
2.788608e+003,-4.338630e-003
2.790536e+003,-3.634760e-003
2.792465e+003,-2.964468e-003
2.794393e+003,-2.233478e-003
2.796322e+003,-1.450106e-003
2.798250e+003,-7.856921e-004
2.800178e+003,-1.865046e-004
2.802107e+003,3.565029e-004
2.804036e+003,9.120105e-004
2.805964e+003,1.397620e-003
2.807893e+003,1.796860e-003
2.809821e+003,1.990776e-003
2.811750e+003,2.039809e-003
2.813678e+003,2.024463e-003
2.815606e+003,1.959754e-003
2.817535e+003,1.726330e-003
2.819464e+003,1.430430e-003
2.821392e+003,1.047768e-003
2.823321e+003,6.586074e-004
2.825249e+003,2.354812e-004
2.827177e+003,-3.239632e-004
2.829106e+003,-9.066275e-004
2.831034e+003,-1.508554e-003
2.832963e+003,-2.143840e-003
2.834892e+003,-2.605319e-003
2.836820e+003,-3.212232e-003
2.838749e+003,-3.940592e-003
2.840677e+003,-4.673174e-003
2.842605e+003,-5.341916e-003
2.844534e+003,-6.003160e-003
2.846462e+003,-6.839007e-003
2.848391e+003,-7.633988e-003
2.850320e+003,-8.088958e-003
2.852248e+003,-8.278360e-003
2.854177e+003,-8.411559e-003
2.856105e+003,-8.526264e-003
2.858033e+003,-8.587210e-003
2.859962e+003,-8.554074e-003
2.861890e+003,-8.585456e-003
2.863819e+003,-8.643666e-003
2.865748e+003,-8.616771e-003
2.867676e+003,-8.531234e-003
2.869604e+003,-8.413899e-003
2.871533e+003,-8.308429e-003
2.873461e+003,-8.201015e-003
2.875390e+003,-8.091299e-003
2.877319e+003,-7.942256e-003
2.879247e+003,-7.747986e-003
2.881176e+003,-7.690958e-003
2.883104e+003,-7.714330e-003
2.885032e+003,-7.559069e-003
2.886961e+003,-7.588764e-003
2.888889e+003,-7.767515e-003
2.890818e+003,-7.831724e-003
2.892747e+003,-7.950031e-003
2.894675e+003,-8.071980e-003
2.896604e+003,-8.001951e-003
2.898532e+003,-8.063328e-003
2.900460e+003,-8.264414e-003
2.902389e+003,-8.368659e-003
2.904317e+003,-8.466966e-003
2.906246e+003,-8.506964e-003
2.908175e+003,-8.639541e-003
2.910103e+003,-8.776299e-003
2.912031e+003,-9.004609e-003
2.913960e+003,-9.309019e-003
2.915888e+003,-9.474549e-003
2.917817e+003,-9.500127e-003
2.919745e+003,-9.292446e-003
2.921674e+003,-8.944272e-003
2.923603e+003,-8.492636e-003
2.925531e+003,-8.115723e-003
2.927459e+003,-7.879884e-003
2.929388e+003,-7.664329e-003
2.931316e+003,-7.458472e-003
2.933245e+003,-7.226708e-003
2.935173e+003,-7.026739e-003
2.937102e+003,-6.916790e-003
2.939031e+003,-6.883363e-003
2.940959e+003,-6.955986e-003
2.942887e+003,-7.090081e-003
2.944816e+003,-7.167818e-003
2.946744e+003,-7.237038e-003
2.948673e+003,-7.543438e-003
2.950601e+003,-8.085022e-003
2.952530e+003,-8.600010e-003
2.954458e+003,-9.068084e-003
2.956387e+003,-9.648540e-003
2.958315e+003,-1.024592e-002
2.960244e+003,-1.091267e-002
2.962172e+003,-1.148693e-002
2.964101e+003,-1.199281e-002
2.966029e+003,-1.251876e-002
2.967958e+003,-1.295437e-002
2.969886e+003,-1.335889e-002
2.971815e+003,-1.371359e-002
2.973743e+003,-1.418776e-002
2.975672e+003,-1.466700e-002
2.977600e+003,-1.489707e-002
2.979529e+003,-1.505962e-002
2.981457e+003,-1.527265e-002
2.983386e+003,-1.546506e-002
2.985314e+003,-1.575312e-002
2.987243e+003,-1.594595e-002
2.989171e+003,-1.609929e-002
2.991100e+003,-1.638968e-002
2.993028e+003,-1.651196e-002
2.994957e+003,-1.648166e-002
2.996885e+003,-1.657489e-002
2.998814e+003,-1.665404e-002
3.000742e+003,-1.670191e-002
3.002671e+003,-1.679978e-002
3.004599e+003,-1.690442e-002
3.006528e+003,-1.684055e-002
3.008456e+003,-1.681616e-002
3.010385e+003,-1.688769e-002
3.012313e+003,-1.699167e-002
3.014242e+003,-1.705303e-002
3.016170e+003,-1.701113e-002
3.018099e+003,-1.701706e-002
3.020027e+003,-1.721554e-002
3.021956e+003,-1.731046e-002
3.023884e+003,-1.732937e-002
3.025813e+003,-1.726728e-002
3.027741e+003,-1.733495e-002
3.029670e+003,-1.740129e-002
3.031598e+003,-1.737305e-002
3.033527e+003,-1.740352e-002
3.035455e+003,-1.735962e-002
3.037384e+003,-1.732215e-002
3.039312e+003,-1.739817e-002
3.041241e+003,-1.757675e-002
3.043169e+003,-1.769711e-002
3.045098e+003,-1.770076e-002
3.047026e+003,-1.769564e-002
3.048955e+003,-1.775945e-002
3.050883e+003,-1.774412e-002
3.052812e+003,-1.768413e-002
3.054740e+003,-1.779253e-002
3.056669e+003,-1.784487e-002
3.058597e+003,-1.787330e-002
3.060526e+003,-1.786621e-002
3.062454e+003,-1.778839e-002
3.064383e+003,-1.784573e-002
3.066311e+003,-1.795482e-002
3.068240e+003,-1.793740e-002
3.070168e+003,-1.795435e-002
3.072097e+003,-1.812583e-002
3.074025e+003,-1.821192e-002
3.075954e+003,-1.820213e-002
3.077882e+003,-1.815910e-002
3.079811e+003,-1.817687e-002
3.081739e+003,-1.821182e-002
3.083668e+003,-1.823597e-002
3.085596e+003,-1.826291e-002
3.087525e+003,-1.833375e-002
3.089453e+003,-1.836008e-002
3.091382e+003,-1.836856e-002
3.093310e+003,-1.834817e-002
3.095239e+003,-1.832981e-002
3.097167e+003,-1.838581e-002
3.099096e+003,-1.839051e-002
3.101024e+003,-1.835795e-002
3.102953e+003,-1.838009e-002
3.104881e+003,-1.840509e-002
3.106810e+003,-1.841760e-002
3.108738e+003,-1.851163e-002
3.110667e+003,-1.846435e-002
3.112595e+003,-1.835770e-002
3.114524e+003,-1.839080e-002
3.116452e+003,-1.864563e-002
3.118381e+003,-1.870171e-002
3.120309e+003,-1.863198e-002
3.122238e+003,-1.865191e-002
3.124166e+003,-1.863937e-002
3.126095e+003,-1.864893e-002
3.128023e+003,-1.862512e-002
3.129952e+003,-1.864537e-002
3.131880e+003,-1.862547e-002
3.133809e+003,-1.860281e-002
3.135737e+003,-1.865782e-002
3.137666e+003,-1.867486e-002
3.139594e+003,-1.862080e-002
3.141523e+003,-1.859106e-002
3.143451e+003,-1.859900e-002
3.145380e+003,-1.864017e-002
3.147308e+003,-1.877699e-002
3.149237e+003,-1.882740e-002
3.151165e+003,-1.871574e-002
3.153094e+003,-1.859363e-002
3.155022e+003,-1.860122e-002
3.156951e+003,-1.863268e-002
3.158879e+003,-1.864185e-002
3.160808e+003,-1.867934e-002
3.162736e+003,-1.860538e-002
3.164665e+003,-1.856154e-002
3.166593e+003,-1.870692e-002
3.168522e+003,-1.881693e-002
3.170450e+003,-1.873890e-002
3.172379e+003,-1.864731e-002
3.174307e+003,-1.873481e-002
3.176236e+003,-1.874617e-002
3.178164e+003,-1.864991e-002
3.180093e+003,-1.861877e-002
3.182021e+003,-1.873081e-002
3.183950e+003,-1.877023e-002
3.185878e+003,-1.869203e-002
3.187807e+003,-1.856690e-002
3.189735e+003,-1.855449e-002
3.191664e+003,-1.874535e-002
3.193592e+003,-1.872996e-002
3.195521e+003,-1.863052e-002
3.197449e+003,-1.859696e-002
3.199378e+003,-1.874509e-002
3.201306e+003,-1.885625e-002
3.203235e+003,-1.871872e-002
3.205163e+003,-1.858198e-002
3.207092e+003,-1.861769e-002
3.209020e+003,-1.861798e-002
3.210948e+003,-1.858436e-002
3.212877e+003,-1.860871e-002
3.214806e+003,-1.862906e-002
3.216734e+003,-1.863179e-002
3.218663e+003,-1.856744e-002
3.220591e+003,-1.867696e-002
3.222520e+003,-1.866169e-002
3.224448e+003,-1.858665e-002
3.226376e+003,-1.858858e-002
3.228305e+003,-1.846635e-002
3.230234e+003,-1.833607e-002
3.232162e+003,-1.843662e-002
3.234091e+003,-1.842093e-002
3.236019e+003,-1.836437e-002
3.237948e+003,-1.835592e-002
3.239876e+003,-1.822631e-002
3.241804e+003,-1.798935e-002
3.243733e+003,-1.800277e-002
3.245662e+003,-1.804892e-002
3.247590e+003,-1.784894e-002
3.249519e+003,-1.777955e-002
3.251447e+003,-1.782700e-002
3.253375e+003,-1.791995e-002
3.255304e+003,-1.784653e-002
3.257232e+003,-1.765390e-002
3.259161e+003,-1.761487e-002
3.261090e+003,-1.755167e-002
3.263018e+003,-1.765960e-002
3.264947e+003,-1.779752e-002
3.266875e+003,-1.775023e-002
3.268803e+003,-1.748643e-002
3.270732e+003,-1.731826e-002
3.272660e+003,-1.738601e-002
3.274589e+003,-1.743821e-002
3.276518e+003,-1.750260e-002
3.278446e+003,-1.753824e-002
3.280375e+003,-1.742586e-002
3.282303e+003,-1.743089e-002
3.284231e+003,-1.746441e-002
3.286160e+003,-1.754273e-002
3.288088e+003,-1.757379e-002
3.290017e+003,-1.771250e-002
3.291946e+003,-1.772128e-002
3.293874e+003,-1.759807e-002
3.295802e+003,-1.765171e-002
3.297731e+003,-1.780716e-002
3.299659e+003,-1.782137e-002
3.301588e+003,-1.792621e-002
3.303516e+003,-1.814674e-002
3.305445e+003,-1.824439e-002
3.307374e+003,-1.815567e-002
3.309302e+003,-1.828292e-002
3.311230e+003,-1.848553e-002
3.313159e+003,-1.848121e-002
3.315087e+003,-1.858020e-002
3.317016e+003,-1.865683e-002
3.318944e+003,-1.875039e-002
3.320873e+003,-1.889733e-002
3.322802e+003,-1.897536e-002
3.324730e+003,-1.913075e-002
3.326658e+003,-1.926909e-002
3.328587e+003,-1.917041e-002
3.330515e+003,-1.921410e-002
3.332444e+003,-1.940932e-002
3.334372e+003,-1.948438e-002
3.336301e+003,-1.937006e-002
3.338229e+003,-1.935609e-002
3.340158e+003,-1.947361e-002
3.342086e+003,-1.945248e-002
3.344015e+003,-1.948958e-002
3.345943e+003,-1.945283e-002
3.347872e+003,-1.957504e-002
3.349800e+003,-1.975051e-002
3.351729e+003,-1.978635e-002
3.353657e+003,-1.981069e-002
3.355586e+003,-1.989489e-002
3.357514e+003,-1.973560e-002
3.359443e+003,-1.967401e-002
3.361371e+003,-1.981031e-002
3.363300e+003,-1.985238e-002
3.365229e+003,-1.989964e-002
3.367157e+003,-2.001860e-002
3.369085e+003,-2.026460e-002
3.371014e+003,-2.043350e-002
3.372942e+003,-2.040050e-002
3.374871e+003,-2.044966e-002
3.376799e+003,-2.049312e-002
3.378728e+003,-2.057200e-002
3.380656e+003,-2.066635e-002
3.382585e+003,-2.071197e-002
3.384513e+003,-2.074059e-002
3.386442e+003,-2.082101e-002
3.388370e+003,-2.092752e-002
3.390299e+003,-2.096617e-002
3.392227e+003,-2.081709e-002
3.394156e+003,-2.080171e-002
3.396084e+003,-2.083936e-002
3.398013e+003,-2.108957e-002
3.399941e+003,-2.126118e-002
3.401870e+003,-2.130510e-002
3.403798e+003,-2.135443e-002
3.405727e+003,-2.129948e-002
3.407655e+003,-2.130036e-002
3.409584e+003,-2.136778e-002
3.411512e+003,-2.146946e-002
3.413441e+003,-2.159893e-002
3.415369e+003,-2.149434e-002
3.417298e+003,-2.135743e-002
3.419226e+003,-2.135491e-002
3.421155e+003,-2.144713e-002
3.423083e+003,-2.158543e-002
3.425012e+003,-2.161207e-002
3.426940e+003,-2.154236e-002
3.428869e+003,-2.150349e-002
3.430797e+003,-2.152814e-002
3.432726e+003,-2.160246e-002
3.434654e+003,-2.154684e-002
3.436583e+003,-2.163565e-002
3.438511e+003,-2.173822e-002
3.440440e+003,-2.169176e-002
3.442368e+003,-2.189788e-002
3.444297e+003,-2.208845e-002
3.446225e+003,-2.197579e-002
3.448154e+003,-2.178199e-002
3.450082e+003,-2.173762e-002
3.452011e+003,-2.173623e-002
3.453939e+003,-2.175331e-002
3.455868e+003,-2.182850e-002
3.457796e+003,-2.181634e-002
3.459725e+003,-2.198962e-002
3.461653e+003,-2.208016e-002
3.463582e+003,-2.200370e-002
3.465510e+003,-2.208259e-002
3.467439e+003,-2.207683e-002
3.469367e+003,-2.199825e-002
3.471296e+003,-2.201648e-002
3.473224e+003,-2.208426e-002
3.475153e+003,-2.213115e-002
3.477081e+003,-2.206413e-002
3.479010e+003,-2.201305e-002
3.480938e+003,-2.212334e-002
3.482867e+003,-2.224134e-002
3.484795e+003,-2.209493e-002
3.486724e+003,-2.203762e-002
3.488652e+003,-2.211584e-002
3.490581e+003,-2.201006e-002
3.492509e+003,-2.194085e-002
3.494438e+003,-2.202914e-002
3.496366e+003,-2.194227e-002
3.498295e+003,-2.195808e-002
3.500223e+003,-2.200297e-002
3.502152e+003,-2.192964e-002
3.504080e+003,-2.186654e-002
3.506009e+003,-2.201472e-002
3.507937e+003,-2.209956e-002
3.509866e+003,-2.204439e-002
3.511794e+003,-2.201806e-002
3.513723e+003,-2.205065e-002
3.515651e+003,-2.209282e-002
3.517580e+003,-2.214384e-002
3.519508e+003,-2.218300e-002
3.521437e+003,-2.221090e-002
3.523365e+003,-2.211751e-002
3.525294e+003,-2.220277e-002
3.527222e+003,-2.218738e-002
3.529151e+003,-2.208382e-002
3.531079e+003,-2.212220e-002
3.533008e+003,-2.208898e-002
3.534936e+003,-2.186666e-002
3.536865e+003,-2.183793e-002
3.538793e+003,-2.216292e-002
3.540722e+003,-2.237212e-002
3.542650e+003,-2.236044e-002
3.544579e+003,-2.208927e-002
3.546507e+003,-2.169658e-002
3.548436e+003,-2.169123e-002
3.550364e+003,-2.186427e-002
3.552293e+003,-2.179986e-002
3.554221e+003,-2.187577e-002
3.556150e+003,-2.205084e-002
3.558078e+003,-2.197028e-002
3.560007e+003,-2.192548e-002
3.561935e+003,-2.205384e-002
3.563864e+003,-2.201960e-002
3.565792e+003,-2.185299e-002
3.567721e+003,-2.193336e-002
3.569649e+003,-2.205428e-002
3.571578e+003,-2.195213e-002
3.573506e+003,-2.185459e-002
3.575435e+003,-2.199327e-002
3.577363e+003,-2.209827e-002
3.579292e+003,-2.207034e-002
3.581220e+003,-2.201866e-002
3.583149e+003,-2.202388e-002
3.585077e+003,-2.193852e-002
3.587006e+003,-2.168045e-002
3.588934e+003,-2.167452e-002
3.590863e+003,-2.182088e-002
3.592791e+003,-2.173264e-002
3.594720e+003,-2.163345e-002
3.596648e+003,-2.164218e-002
3.598577e+003,-2.173992e-002
3.600505e+003,-2.171468e-002
3.602434e+003,-2.171313e-002
3.604362e+003,-2.178139e-002
3.606291e+003,-2.182104e-002
3.608219e+003,-2.176233e-002
3.610148e+003,-2.182428e-002
3.612076e+003,-2.177538e-002
3.614005e+003,-2.182488e-002
3.615933e+003,-2.175669e-002
3.617862e+003,-2.157150e-002
3.619790e+003,-2.166844e-002
3.621719e+003,-2.197692e-002
3.623647e+003,-2.214468e-002
3.625576e+003,-2.207235e-002
3.627504e+003,-2.145013e-002
3.629433e+003,-2.071984e-002
3.631361e+003,-2.144032e-002
3.633290e+003,-2.183619e-002
3.635218e+003,-2.193235e-002
3.637146e+003,-2.191039e-002
3.639075e+003,-2.191052e-002
3.641004e+003,-2.215756e-002
3.642932e+003,-2.230131e-002
3.644861e+003,-2.232947e-002
3.646789e+003,-2.213562e-002
3.648718e+003,-2.167632e-002
3.650646e+003,-2.155305e-002
3.652574e+003,-2.213420e-002
3.654503e+003,-2.217069e-002
3.656432e+003,-2.166257e-002
3.658360e+003,-2.186619e-002
3.660289e+003,-2.212450e-002
3.662217e+003,-2.222025e-002
3.664146e+003,-2.245192e-002
3.666074e+003,-2.277145e-002
3.668002e+003,-2.262705e-002
3.669931e+003,-2.213212e-002
3.671860e+003,-2.221354e-002
3.673788e+003,-2.218625e-002
3.675717e+003,-2.176268e-002
3.677645e+003,-2.229529e-002
3.679573e+003,-2.268290e-002
3.681502e+003,-2.262375e-002
3.683430e+003,-2.252205e-002
3.685359e+003,-2.270577e-002
3.687288e+003,-2.235132e-002
3.689216e+003,-2.174777e-002
3.691145e+003,-2.194356e-002
3.693073e+003,-2.233095e-002
3.695001e+003,-2.237004e-002
3.696930e+003,-2.226976e-002
3.698858e+003,-2.232976e-002
3.700787e+003,-2.224814e-002
3.702716e+003,-2.214251e-002
3.704644e+003,-2.235777e-002
3.706573e+003,-2.241599e-002
3.708501e+003,-2.231355e-002
3.710429e+003,-2.209002e-002
3.712358e+003,-2.185346e-002
3.714286e+003,-2.227861e-002
3.716215e+003,-2.257194e-002
3.718144e+003,-2.240516e-002
3.720072e+003,-2.225683e-002
3.722000e+003,-2.213848e-002
3.723929e+003,-2.230823e-002
3.725857e+003,-2.236057e-002
3.727786e+003,-2.256102e-002
3.729714e+003,-2.282185e-002
3.731643e+003,-2.245403e-002
3.733572e+003,-2.199387e-002
3.735500e+003,-2.173463e-002
3.737428e+003,-2.198751e-002
3.739357e+003,-2.257182e-002
3.741285e+003,-2.275803e-002
3.743214e+003,-2.187961e-002
3.745142e+003,-2.122344e-002
3.747071e+003,-2.223441e-002
3.749000e+003,-2.210473e-002
3.750928e+003,-2.172880e-002
3.752856e+003,-2.158937e-002
3.754785e+003,-2.201289e-002
3.756713e+003,-2.227606e-002
3.758642e+003,-2.228525e-002
3.760570e+003,-2.212749e-002
3.762499e+003,-2.222116e-002
3.764427e+003,-2.224956e-002
3.766356e+003,-2.228557e-002
3.768284e+003,-2.236472e-002
3.770213e+003,-2.204618e-002
3.772141e+003,-2.212740e-002
3.774070e+003,-2.242134e-002
3.775998e+003,-2.246145e-002
3.777927e+003,-2.223416e-002
3.779855e+003,-2.206668e-002
3.781784e+003,-2.231723e-002
3.783712e+003,-2.239994e-002
3.785641e+003,-2.221578e-002
3.787569e+003,-2.221414e-002
3.789498e+003,-2.249484e-002
3.791426e+003,-2.285159e-002
3.793355e+003,-2.287639e-002
3.795283e+003,-2.251661e-002
3.797212e+003,-2.224990e-002
3.799140e+003,-2.229784e-002
3.801069e+003,-2.194696e-002
3.802997e+003,-2.218048e-002
3.804926e+003,-2.250544e-002
3.806854e+003,-2.207009e-002
3.808783e+003,-2.227656e-002
3.810711e+003,-2.263441e-002
3.812640e+003,-2.280770e-002
3.814568e+003,-2.262249e-002
3.816497e+003,-2.192422e-002
3.818425e+003,-2.211569e-002
3.820354e+003,-2.178618e-002
3.822282e+003,-2.168508e-002
3.824211e+003,-2.245972e-002
3.826139e+003,-2.255316e-002
3.828068e+003,-2.250166e-002
3.829996e+003,-2.241076e-002
3.831925e+003,-2.234452e-002
3.833853e+003,-2.245806e-002
3.835782e+003,-2.244339e-002
3.837710e+003,-2.198294e-002
3.839639e+003,-2.208829e-002
3.841567e+003,-2.238018e-002
3.843496e+003,-2.219113e-002
3.845424e+003,-2.233523e-002
3.847353e+003,-2.270001e-002
3.849281e+003,-2.274385e-002
3.851210e+003,-2.233681e-002
3.853138e+003,-2.121082e-002
3.855067e+003,-2.116468e-002
3.856995e+003,-2.215171e-002
3.858924e+003,-2.266212e-002
3.860852e+003,-2.254800e-002
3.862781e+003,-2.222220e-002
3.864709e+003,-2.219053e-002
3.866638e+003,-2.274592e-002
3.868566e+003,-2.268856e-002
3.870495e+003,-2.211827e-002
3.872423e+003,-2.226397e-002
3.874352e+003,-2.227874e-002
3.876280e+003,-2.256011e-002
3.878209e+003,-2.269451e-002
3.880137e+003,-2.247766e-002
3.882066e+003,-2.266655e-002
3.883994e+003,-2.263834e-002
3.885923e+003,-2.214708e-002
3.887851e+003,-2.261466e-002
3.889780e+003,-2.274237e-002
3.891708e+003,-2.238810e-002
3.893637e+003,-2.238725e-002
3.895565e+003,-2.267580e-002
3.897494e+003,-2.277601e-002
3.899422e+003,-2.243106e-002
3.901351e+003,-2.242407e-002
3.903279e+003,-2.235868e-002
3.905208e+003,-2.232740e-002
3.907136e+003,-2.271250e-002
3.909065e+003,-2.283317e-002
3.910993e+003,-2.279959e-002
3.912922e+003,-2.285640e-002
3.914850e+003,-2.273998e-002
3.916779e+003,-2.269369e-002
3.918707e+003,-2.292577e-002
3.920636e+003,-2.313341e-002
3.922564e+003,-2.302718e-002
3.924493e+003,-2.285247e-002
3.926421e+003,-2.286202e-002
3.928350e+003,-2.307501e-002
3.930278e+003,-2.319781e-002
3.932207e+003,-2.311752e-002
3.934135e+003,-2.323801e-002
3.936064e+003,-2.323732e-002
3.937992e+003,-2.298256e-002
3.939921e+003,-2.298627e-002
3.941849e+003,-2.305496e-002
3.943778e+003,-2.308468e-002
3.945706e+003,-2.301707e-002
3.947635e+003,-2.288192e-002
3.949563e+003,-2.296864e-002
3.951492e+003,-2.315279e-002
3.953420e+003,-2.326367e-002
3.955349e+003,-2.338786e-002
3.957277e+003,-2.344516e-002
3.959206e+003,-2.357787e-002
3.961134e+003,-2.356491e-002
3.963063e+003,-2.326078e-002
3.964991e+003,-2.307790e-002
3.966920e+003,-2.309376e-002
3.968848e+003,-2.306489e-002
3.970777e+003,-2.318059e-002
3.972705e+003,-2.333835e-002
3.974634e+003,-2.318242e-002
3.976562e+003,-2.321760e-002
3.978491e+003,-2.323515e-002
3.980419e+003,-2.312744e-002
3.982348e+003,-2.317180e-002
3.984276e+003,-2.323861e-002
3.986205e+003,-2.331558e-002
3.988133e+003,-2.326653e-002
3.990062e+003,-2.313203e-002
3.991990e+003,-2.337725e-002
3.993919e+003,-2.367515e-002
3.995847e+003,-2.371540e-002
3.997776e+003,-2.341593e-002
3.999704e+003,-2.331181e-002
4.001633e+003,0.000000e+000
