3.991989e+002,3.489759e-002
4.011274e+002,2.986052e-002
4.030559e+002,2.589660e-002
4.049844e+002,2.527085e-002
4.069129e+002,2.667247e-002
4.088414e+002,3.299381e-002
4.107699e+002,3.277236e-002
4.126984e+002,2.245766e-002
4.146269e+002,1.408229e-002
4.165554e+002,1.609176e-002
4.184839e+002,2.243261e-002
4.204124e+002,2.304687e-002
4.223409e+002,2.107119e-002
4.242694e+002,1.800884e-002
4.261979e+002,1.354678e-002
4.281264e+002,1.077468e-002
4.300549e+002,1.059816e-002
4.319834e+002,5.177952e-003
4.339119e+002,4.247881e-003
4.358404e+002,1.243807e-002
4.377689e+002,1.640928e-002
4.396974e+002,1.328832e-002
4.416259e+002,8.893291e-003
4.435544e+002,1.135345e-002
4.454829e+002,1.269101e-002
4.474114e+002,1.605125e-002
4.493399e+002,1.375292e-002
4.512684e+002,6.746971e-003
4.531969e+002,7.602392e-003
4.551254e+002,1.087683e-002
4.570539e+002,8.374066e-003
4.589824e+002,7.445491e-003
4.609109e+002,9.168873e-003
4.628394e+002,9.672786e-003
4.647679e+002,9.178517e-003
4.666964e+002,8.921159e-003
4.686249e+002,5.763101e-003
4.705533e+002,7.390721e-003
4.724819e+002,1.089137e-002
4.744103e+002,1.046869e-002
4.763389e+002,8.400819e-003
4.782673e+002,1.103290e-002
4.801959e+002,1.240040e-002
4.821243e+002,9.952592e-003
4.840529e+002,1.011467e-002
4.859813e+002,1.246815e-002
4.879099e+002,1.029677e-002
4.898383e+002,7.121923e-003
4.917668e+002,7.235311e-003
4.936953e+002,8.635054e-003
4.956238e+002,9.530851e-003
4.975523e+002,8.503729e-003
4.994808e+002,8.303203e-003
5.014093e+002,7.643160e-003
5.033378e+002,7.402281e-003
5.052663e+002,7.490425e-003
5.071948e+002,6.334112e-003
5.091233e+002,5.472895e-003
5.110518e+002,5.646371e-003
5.129803e+002,4.799548e-003
5.149088e+002,3.534905e-003
5.168373e+002,5.097887e-003
5.187658e+002,7.068036e-003
5.206943e+002,8.063138e-003
5.226228e+002,6.204254e-003
5.245513e+002,4.786080e-003
5.264798e+002,4.872220e-003
5.284083e+002,5.757696e-003
5.303368e+002,5.535444e-003
5.322653e+002,4.934013e-003
5.341938e+002,5.084510e-003
5.361223e+002,5.366910e-003
5.380508e+002,4.990753e-003
5.399792e+002,6.059618e-003
5.419078e+002,5.312569e-003
5.438363e+002,3.810215e-003
5.457648e+002,3.759945e-003
5.476932e+002,4.493344e-003
5.496218e+002,4.527025e-003
5.515503e+002,5.451488e-003
5.534788e+002,5.616967e-003
5.554072e+002,5.514706e-003
5.573358e+002,6.187785e-003
5.592643e+002,6.304628e-003
5.611927e+002,4.902847e-003
5.631212e+002,5.278693e-003
5.650497e+002,5.026249e-003
5.669783e+002,4.755896e-003
5.689067e+002,5.506081e-003
5.708352e+002,5.096445e-003
5.727637e+002,3.373990e-003
5.746923e+002,-8.813565e-006
5.766207e+002,3.819440e-003
5.785492e+002,1.190993e-002
5.804777e+002,1.164751e-002
5.824063e+002,6.358286e-003
5.843347e+002,6.754206e-003
5.862632e+002,7.498751e-003
5.881917e+002,6.437912e-003
5.901202e+002,5.229091e-003
5.920487e+002,3.160798e-003
5.939772e+002,4.146945e-003
5.959057e+002,4.915179e-003
5.978342e+002,5.185900e-003
5.997627e+002,5.698337e-003
6.016912e+002,4.978922e-003
6.036197e+002,3.921906e-003
6.055482e+002,4.256916e-003
6.074767e+002,4.611172e-003
6.094052e+002,5.650131e-003
6.113337e+002,6.634046e-003
6.132622e+002,6.549003e-003
6.151907e+002,6.154278e-003
6.171192e+002,6.561381e-003
6.190477e+002,6.284390e-003
6.209762e+002,6.154581e-003
6.229047e+002,5.499806e-003
6.248332e+002,4.415212e-003
6.267617e+002,3.624005e-003
6.286902e+002,3.396297e-003
6.306187e+002,3.359699e-003
6.325472e+002,3.613514e-003
6.344756e+002,4.381272e-003
6.364042e+002,4.199167e-003
6.383326e+002,3.756569e-003
6.402612e+002,3.362303e-003
6.421896e+002,3.705637e-003
6.441182e+002,3.637203e-003
6.460466e+002,3.165538e-003
6.479752e+002,3.511121e-003
6.499036e+002,3.416401e-003
6.518322e+002,3.522078e-003
6.537606e+002,3.884226e-003
6.556891e+002,3.951997e-003
6.576177e+002,3.904988e-003
6.595461e+002,3.246150e-003
6.614746e+002,2.112454e-003
6.634031e+002,2.105396e-003
6.653317e+002,3.485669e-003
6.672601e+002,7.691453e-003
6.691886e+002,6.492058e-003
6.711171e+002,3.400471e-003
6.730457e+002,3.322636e-003
6.749741e+002,3.297796e-003
6.769026e+002,3.425251e-003
6.788311e+002,3.285543e-003
6.807596e+002,2.833703e-003
6.826881e+002,2.887901e-003
6.846166e+002,2.985376e-003
6.865451e+002,2.621509e-003
6.884736e+002,2.323600e-003
6.904021e+002,2.676181e-003
6.923306e+002,2.802621e-003
6.942591e+002,2.786180e-003
6.961876e+002,3.252125e-003
6.981161e+002,3.123285e-003
7.000446e+002,2.601642e-003
7.019731e+002,2.413517e-003
7.039016e+002,2.359278e-003
7.058301e+002,2.181515e-003
7.077585e+002,1.991541e-003
7.096871e+002,2.120379e-003
7.116156e+002,2.664613e-003
7.135441e+002,2.649011e-003
7.154725e+002,2.214084e-003
7.174011e+002,2.191305e-003
7.193296e+002,2.350216e-003
7.212581e+002,2.411918e-003
7.231865e+002,2.302081e-003
7.251151e+002,2.636177e-003
7.270436e+002,2.943975e-003
7.289720e+002,2.970196e-003
7.309005e+002,2.910650e-003
7.328290e+002,2.671847e-003
7.347576e+002,2.536047e-003
7.366860e+002,2.505454e-003
7.386145e+002,2.023497e-003
7.405430e+002,2.377068e-003
7.424716e+002,2.734662e-003
7.444000e+002,2.698319e-003
7.463285e+002,2.681482e-003
7.482570e+002,2.439873e-003
7.501855e+002,2.252451e-003
7.521140e+002,2.759970e-003
7.540425e+002,3.069625e-003
7.559710e+002,2.833536e-003
7.578995e+002,2.499655e-003
7.598280e+002,2.077529e-003
7.617565e+002,2.095907e-003
7.636850e+002,2.491790e-003
7.656135e+002,2.711889e-003
7.675420e+002,2.974300e-003
7.694705e+002,2.850879e-003
7.713990e+002,2.458533e-003
7.733275e+002,2.631710e-003
7.752560e+002,2.653545e-003
7.771844e+002,2.236065e-003
7.791130e+002,2.130101e-003
7.810415e+002,2.287758e-003
7.829700e+002,2.225508e-003
7.848984e+002,2.109125e-003
7.868270e+002,2.392494e-003
7.887555e+002,2.771441e-003
7.906840e+002,2.707621e-003
7.926124e+002,2.465131e-003
7.945410e+002,2.095640e-003
7.964695e+002,1.983353e-003
7.983979e+002,2.244891e-003
8.003264e+002,2.349050e-003
8.022549e+002,2.358612e-003
8.041835e+002,2.586576e-003
8.061119e+002,2.461466e-003
8.080404e+002,1.916487e-003
8.099689e+002,1.935857e-003
8.118975e+002,2.425013e-003
8.138259e+002,2.637810e-003
8.157545e+002,2.491590e-003
8.176830e+002,2.350650e-003
8.196115e+002,1.948771e-003
8.215399e+002,1.823045e-003
8.234684e+002,1.739670e-003
8.253970e+002,1.914224e-003
8.273254e+002,2.308443e-003
8.292539e+002,2.325798e-003
8.311824e+002,1.996401e-003
8.331110e+002,2.112121e-003
8.350394e+002,2.181848e-003
8.369679e+002,2.406454e-003
8.388964e+002,2.396992e-003
8.408250e+002,2.406687e-003
8.427534e+002,2.164065e-003
8.446819e+002,1.695727e-003
8.466104e+002,1.659338e-003
8.485389e+002,2.064744e-003
8.504674e+002,2.156407e-003
8.523959e+002,2.262610e-003
8.543244e+002,2.610676e-003
8.562529e+002,2.682916e-003
8.581814e+002,2.486891e-003
8.601099e+002,2.302880e-003
8.620384e+002,2.137360e-003
8.639669e+002,2.447837e-003
8.658954e+002,2.358978e-003
8.678239e+002,2.091379e-003
8.697524e+002,2.237131e-003
8.716809e+002,2.346752e-003
8.736094e+002,2.461699e-003
8.755378e+002,2.533381e-003
8.774664e+002,2.672947e-003
8.793949e+002,2.527782e-003
8.813234e+002,2.357779e-003
8.832518e+002,2.391828e-003
8.851804e+002,2.211020e-003
8.871089e+002,2.000196e-003
8.890374e+002,1.821482e-003
8.909658e+002,1.906736e-003
8.928943e+002,2.151811e-003
8.948229e+002,2.148748e-003
8.967513e+002,2.309242e-003
8.986798e+002,2.460733e-003
9.006083e+002,2.323166e-003
9.025369e+002,2.518517e-003
9.044653e+002,2.527116e-003
9.063938e+002,2.263976e-003
9.083223e+002,2.046567e-003
9.102509e+002,2.026826e-003
9.121793e+002,2.349684e-003
9.141078e+002,2.214584e-003
9.160364e+002,2.086185e-003
9.179648e+002,2.165431e-003
9.198933e+002,2.113387e-003
9.218218e+002,2.286059e-003
9.237504e+002,2.339190e-003
9.256788e+002,1.942946e-003
9.276073e+002,1.629870e-003
9.295358e+002,1.667387e-003
9.314644e+002,1.730755e-003
9.333928e+002,1.868632e-003
9.353213e+002,2.069372e-003
9.372498e+002,2.134729e-003
9.391783e+002,1.858483e-003
9.411068e+002,1.727861e-003
9.430353e+002,1.925739e-003
9.449637e+002,2.054157e-003
9.468923e+002,2.274268e-003
9.488208e+002,2.220612e-003
9.507493e+002,2.179750e-003
9.526777e+002,1.989944e-003
9.546063e+002,1.787810e-003
9.565348e+002,1.774436e-003
9.584633e+002,1.600071e-003
9.603917e+002,1.550123e-003
9.623203e+002,1.782520e-003
9.642488e+002,1.909731e-003
9.661772e+002,1.801651e-003
9.681057e+002,1.624182e-003
9.700343e+002,1.495792e-003
9.719628e+002,1.550622e-003
9.738912e+002,1.587301e-003
9.758197e+002,1.623817e-003
9.777483e+002,1.627242e-003
9.796768e+002,1.664260e-003
9.816052e+002,1.566616e-003
9.835337e+002,1.798457e-003
9.854623e+002,1.922411e-003
9.873907e+002,1.819552e-003
9.893192e+002,1.593619e-003
9.912477e+002,1.258031e-003
9.931763e+002,1.332141e-003
9.951047e+002,1.281758e-003
9.970332e+002,9.460788e-004
9.989617e+002,1.140446e-003
1.000890e+003,1.353479e-003
1.002819e+003,1.441500e-003
1.004747e+003,1.411814e-003
1.006676e+003,1.356171e-003
1.008604e+003,1.193868e-003
1.010533e+003,1.228690e-003
1.012461e+003,1.322436e-003
1.014390e+003,1.247564e-003
1.016318e+003,1.312266e-003
1.018247e+003,1.468728e-003
1.020175e+003,1.510355e-003
1.022104e+003,1.472286e-003
1.024032e+003,1.501311e-003
1.025961e+003,1.542176e-003
1.027889e+003,1.381333e-003
1.029818e+003,1.394396e-003
1.031746e+003,1.499715e-003
1.033675e+003,1.580882e-003
1.035603e+003,1.382263e-003
1.037532e+003,1.300568e-003
1.039460e+003,1.482027e-003
1.041389e+003,1.619360e-003
1.043317e+003,1.520828e-003
1.045246e+003,1.594284e-003
1.047174e+003,1.718080e-003
1.049103e+003,1.621056e-003
1.051031e+003,1.369333e-003
1.052960e+003,1.416767e-003
1.054888e+003,1.346067e-003
1.056817e+003,1.266605e-003
1.058745e+003,1.407992e-003
1.060674e+003,1.544503e-003
1.062602e+003,1.547795e-003
1.064531e+003,1.489375e-003
1.066459e+003,1.489109e-003
1.068388e+003,1.380003e-003
1.070316e+003,1.437943e-003
1.072245e+003,1.672908e-003
1.074173e+003,1.456760e-003
1.076102e+003,1.238426e-003
1.078030e+003,1.399814e-003
1.079959e+003,1.457059e-003
1.081887e+003,1.431993e-003
1.083816e+003,1.437611e-003
1.085744e+003,1.337292e-003
1.087673e+003,1.285912e-003
1.089601e+003,1.230518e-003
1.091530e+003,1.330545e-003
1.093458e+003,1.485219e-003
1.095387e+003,1.584141e-003
1.097315e+003,1.568811e-003
1.099244e+003,1.467531e-003
1.101172e+003,1.409953e-003
1.103101e+003,1.218555e-003
1.105029e+003,1.236598e-003
1.106958e+003,1.279598e-003
1.108886e+003,1.285081e-003
1.110815e+003,1.229653e-003
1.112743e+003,1.169947e-003
1.114672e+003,1.131642e-003
1.116600e+003,1.321572e-003
1.118529e+003,1.568944e-003
1.120457e+003,1.525783e-003
1.122386e+003,1.370064e-003
1.124314e+003,1.282157e-003
1.126243e+003,1.107923e-003
1.128171e+003,9.221709e-004
1.130100e+003,1.028903e-003
1.132028e+003,1.181343e-003
1.133957e+003,1.294254e-003
1.135885e+003,1.324929e-003
1.137814e+003,1.300003e-003
1.139742e+003,1.294818e-003
1.141671e+003,1.386385e-003
1.143599e+003,1.355274e-003
1.145528e+003,1.255938e-003
1.147456e+003,1.193902e-003
1.149385e+003,1.298408e-003
1.151313e+003,1.124001e-003
1.153242e+003,1.132041e-003
1.155170e+003,1.385720e-003
1.157099e+003,1.422585e-003
1.159027e+003,1.341347e-003
1.160956e+003,1.331011e-003
1.162884e+003,1.511585e-003
1.164813e+003,1.513114e-003
1.166741e+003,1.272254e-003
1.168670e+003,1.071484e-003
1.170598e+003,1.099021e-003
1.172526e+003,1.165262e-003
1.174455e+003,1.119218e-003
1.176384e+003,1.226131e-003
1.178312e+003,1.230949e-003
1.180240e+003,1.019238e-003
1.182169e+003,1.014257e-003
1.184098e+003,1.073875e-003
1.186026e+003,1.056305e-003
1.187954e+003,1.109352e-003
1.189883e+003,1.128918e-003
1.191812e+003,1.130280e-003
1.193740e+003,1.199052e-003
1.195668e+003,1.172040e-003
1.197597e+003,1.006020e-003
1.199526e+003,9.463776e-004
1.201454e+003,1.080452e-003
1.203382e+003,1.200447e-003
1.205311e+003,1.051189e-003
1.207240e+003,1.022360e-003
1.209168e+003,9.704529e-004
1.211096e+003,8.873076e-004
1.213025e+003,1.082512e-003
1.214953e+003,1.267934e-003
1.216882e+003,1.081349e-003
1.218810e+003,9.392716e-004
1.220739e+003,8.834894e-004
1.222667e+003,8.468697e-004
1.224596e+003,8.955086e-004
1.226524e+003,9.271848e-004
1.228453e+003,9.443189e-004
1.230381e+003,9.545465e-004
1.232310e+003,9.826072e-004
1.234238e+003,9.438872e-004
1.236167e+003,9.461120e-004
1.238095e+003,9.583321e-004
1.240024e+003,1.002732e-003
1.241952e+003,1.115298e-003
1.243881e+003,1.012563e-003
1.245809e+003,8.932840e-004
1.247738e+003,9.103835e-004
1.249666e+003,1.125563e-003
1.251595e+003,1.182207e-003
1.253523e+003,1.118454e-003
1.255452e+003,1.120713e-003
1.257380e+003,1.026213e-003
1.259309e+003,8.581906e-004
1.261237e+003,8.996921e-004
1.263166e+003,9.584649e-004
1.265094e+003,1.032457e-003
1.267023e+003,1.072148e-003
1.268951e+003,1.025615e-003
1.270880e+003,9.485361e-004
1.272808e+003,8.681174e-004
1.274737e+003,8.917567e-004
1.276665e+003,9.563065e-004
1.278594e+003,9.536167e-004
1.280522e+003,9.695231e-004
1.282451e+003,9.091882e-004
1.284379e+003,9.105827e-004
1.286308e+003,8.601494e-004
1.288236e+003,8.412924e-004
1.290165e+003,8.673206e-004
1.292093e+003,8.164939e-004
1.294022e+003,9.075944e-004
1.295950e+003,1.030863e-003
1.297879e+003,1.008013e-003
1.299807e+003,9.651064e-004
1.301736e+003,1.052817e-003
1.303664e+003,1.086797e-003
1.305593e+003,1.020501e-003
1.307521e+003,1.193337e-003
1.309450e+003,1.271323e-003
1.311378e+003,1.176127e-003
1.313307e+003,1.033520e-003
1.315235e+003,1.044381e-003
1.317164e+003,1.189881e-003
1.319092e+003,1.120380e-003
1.321021e+003,9.370136e-004
1.322949e+003,9.128074e-004
1.324878e+003,9.498976e-004
1.326806e+003,9.095534e-004
1.328735e+003,9.711503e-004
1.330663e+003,1.099120e-003
1.332592e+003,1.183967e-003
1.334520e+003,1.018408e-003
1.336449e+003,8.965379e-004
1.338377e+003,9.703533e-004
1.340306e+003,9.947619e-004
1.342234e+003,9.782569e-004
1.344163e+003,9.532846e-004
1.346091e+003,8.927860e-004
1.348020e+003,9.022487e-004
1.349948e+003,9.013522e-004
1.351877e+003,8.623406e-004
1.353805e+003,9.588634e-004
1.355734e+003,1.020467e-003
1.357662e+003,9.052370e-004
1.359591e+003,9.397364e-004
1.361519e+003,1.059526e-003
1.363448e+003,1.073709e-003
1.365376e+003,9.858949e-004
1.367305e+003,9.741390e-004
1.369233e+003,1.045377e-003
1.371162e+003,9.950609e-004
1.373090e+003,1.031228e-003
1.375019e+003,9.836035e-004
1.376947e+003,9.319996e-004
1.378876e+003,9.246945e-004
1.380804e+003,9.905775e-004
1.382733e+003,9.997435e-004
1.384661e+003,9.417620e-004
1.386590e+003,9.797845e-004
1.388518e+003,1.072314e-003
1.390447e+003,1.014290e-003
1.392375e+003,9.010534e-004
1.394304e+003,9.140359e-004
1.396232e+003,8.778120e-004
1.398161e+003,8.775132e-004
1.400089e+003,9.629811e-004
1.402018e+003,1.001138e-003
1.403946e+003,9.494658e-004
1.405875e+003,9.758659e-004
1.407803e+003,9.528529e-004
1.409732e+003,9.212744e-004
1.411660e+003,8.968366e-004
1.413589e+003,8.883701e-004
1.415517e+003,9.463445e-004
1.417446e+003,9.668000e-004
1.419374e+003,1.008976e-003
1.421303e+003,1.049960e-003
1.423231e+003,1.052850e-003
1.425160e+003,1.146957e-003
1.427088e+003,1.150977e-003
1.429017e+003,1.017677e-003
1.430945e+003,8.933836e-004
1.432874e+003,8.803685e-004
1.434802e+003,1.064940e-003
1.436731e+003,1.047137e-003
1.438659e+003,9.016510e-004
1.440588e+003,9.818766e-004
1.442516e+003,1.116793e-003
1.444445e+003,1.042952e-003
1.446373e+003,1.012596e-003
1.448302e+003,1.009972e-003
1.450230e+003,9.320660e-004
1.452159e+003,7.582382e-004
1.454087e+003,8.864112e-004
1.456016e+003,1.142572e-003
1.457944e+003,1.095234e-003
1.459873e+003,9.609223e-004
1.461801e+003,9.581661e-004
1.463730e+003,9.159285e-004
1.465658e+003,9.530854e-004
1.467587e+003,9.498976e-004
1.469515e+003,1.038535e-003
1.471444e+003,1.044646e-003
1.473372e+003,1.007847e-003
1.475301e+003,1.047569e-003
1.477229e+003,1.038867e-003
1.479158e+003,9.166258e-004
1.481086e+003,9.204111e-004
1.483015e+003,8.194816e-004
1.484943e+003,7.421736e-004
1.486872e+003,8.520487e-004
1.488800e+003,9.441528e-004
1.490729e+003,1.097127e-003
1.492657e+003,1.129283e-003
1.494586e+003,9.604242e-004
1.496514e+003,9.183525e-004
1.498443e+003,9.577012e-004
1.500371e+003,9.572363e-004
1.502300e+003,9.866920e-004
1.504228e+003,1.056172e-003
1.506157e+003,1.204268e-003
1.508085e+003,1.103439e-003
1.510014e+003,9.026472e-004
1.511942e+003,8.279137e-004
1.513871e+003,8.056057e-004
1.515799e+003,8.565970e-004
1.517728e+003,8.851827e-004
1.519656e+003,9.273508e-004
1.521585e+003,1.002101e-003
1.523513e+003,9.818103e-004
1.525442e+003,9.794524e-004
1.527370e+003,9.566053e-004
1.529299e+003,1.001902e-003
1.531227e+003,9.831386e-004
1.533156e+003,9.367811e-004
1.535084e+003,9.165262e-004
1.537013e+003,9.060338e-004
1.538941e+003,1.002201e-003
1.540870e+003,1.021663e-003
1.542798e+003,1.120746e-003
1.544727e+003,1.120380e-003
1.546655e+003,9.034772e-004
1.548584e+003,8.480981e-004
1.550512e+003,9.294096e-004
1.552441e+003,8.995261e-004
1.554369e+003,8.955086e-004
1.556298e+003,1.080585e-003
1.558226e+003,1.186326e-003
1.560155e+003,1.124998e-003
1.562083e+003,1.056770e-003
1.564012e+003,1.056869e-003
1.565940e+003,9.678959e-004
1.567869e+003,9.416956e-004
1.569797e+003,1.044248e-003
1.571726e+003,1.005688e-003
1.573654e+003,8.992605e-004
1.575583e+003,8.897978e-004
1.577511e+003,8.698771e-004
1.579440e+003,8.444794e-004
1.581368e+003,9.605902e-004
1.583297e+003,9.245285e-004
1.585225e+003,9.375449e-004
1.587154e+003,9.527865e-004
1.589082e+003,8.956082e-004
1.591010e+003,8.465709e-004
1.592939e+003,8.079626e-004
1.594868e+003,8.497248e-004
1.596796e+003,9.384414e-004
1.598724e+003,9.010202e-004
1.600653e+003,8.148341e-004
1.602582e+003,8.763844e-004
1.604510e+003,8.398648e-004
1.606438e+003,8.429855e-004
1.608367e+003,9.481376e-004
1.610296e+003,8.957410e-004
1.612224e+003,7.955476e-004
1.614152e+003,8.573607e-004
1.616081e+003,8.479321e-004
1.618010e+003,8.209423e-004
1.619938e+003,9.258235e-004
1.621866e+003,1.055607e-003
1.623795e+003,8.516171e-004
1.625724e+003,8.185189e-004
1.627652e+003,8.384374e-004
1.629580e+003,8.171247e-004
1.631509e+003,7.712496e-004
1.633438e+003,8.059708e-004
1.635366e+003,8.107511e-004
1.637294e+003,9.006218e-004
1.639223e+003,9.866589e-004
1.641151e+003,9.544137e-004
1.643080e+003,8.657934e-004
1.645008e+003,8.681506e-004
1.646937e+003,9.066647e-004
1.648865e+003,8.616766e-004
1.650794e+003,9.071628e-004
1.652722e+003,1.003031e-003
1.654651e+003,8.793061e-004
1.656579e+003,8.989284e-004
1.658508e+003,9.379433e-004
1.660436e+003,8.330925e-004
1.662365e+003,7.873153e-004
1.664293e+003,8.402300e-004
1.666222e+003,8.283784e-004
1.668150e+003,8.479985e-004
1.670079e+003,9.203115e-004
1.672007e+003,9.044069e-004
1.673936e+003,9.103835e-004
1.675864e+003,9.188505e-004
1.677793e+003,8.250587e-004
1.679721e+003,7.472850e-004
1.681650e+003,7.936555e-004
1.683578e+003,9.120769e-004
1.685507e+003,1.068661e-003
1.687435e+003,1.025117e-003
1.689364e+003,9.660362e-004
1.691292e+003,9.861939e-004
1.693221e+003,9.642098e-004
1.695149e+003,1.017047e-003
1.697078e+003,9.410979e-004
1.699006e+003,8.358479e-004
1.700935e+003,8.827258e-004
1.702863e+003,8.472349e-004
1.704792e+003,9.739730e-004
1.706720e+003,9.932675e-004
1.708649e+003,8.569622e-004
1.710577e+003,7.837968e-004
1.712506e+003,7.429038e-004
1.714434e+003,8.249923e-004
1.716363e+003,1.010105e-003
1.718291e+003,9.476063e-004
1.720220e+003,8.865772e-004
1.722148e+003,9.192157e-004
1.724077e+003,8.351839e-004
1.726005e+003,8.245276e-004
1.727934e+003,8.831907e-004
1.729862e+003,8.926200e-004
1.731791e+003,9.708846e-004
1.733719e+003,9.584649e-004
1.735648e+003,9.061999e-004
1.737576e+003,8.644986e-004
1.739505e+003,7.913650e-004
1.741433e+003,7.319842e-004
1.743362e+003,7.303247e-004
1.745290e+003,7.710505e-004
1.747219e+003,8.016886e-004
1.749147e+003,8.205107e-004
1.751076e+003,8.876065e-004
1.753004e+003,8.836554e-004
1.754933e+003,8.000289e-004
1.756861e+003,7.936222e-004
1.758790e+003,8.431515e-004
1.760718e+003,8.493928e-004
1.762647e+003,8.511192e-004
1.764575e+003,7.552177e-004
1.766504e+003,7.528943e-004
1.768432e+003,7.879792e-004
1.770361e+003,7.277027e-004
1.772289e+003,8.154649e-004
1.774218e+003,8.989284e-004
1.776146e+003,8.779448e-004
1.778075e+003,8.191497e-004
1.780003e+003,7.530935e-004
1.781932e+003,7.572424e-004
1.783860e+003,6.604657e-004
1.785789e+003,5.538239e-004
1.787717e+003,5.400892e-004
1.789646e+003,5.932392e-004
1.791574e+003,6.773238e-004
1.793503e+003,7.900705e-004
1.795431e+003,8.088921e-004
1.797360e+003,7.274371e-004
1.799288e+003,7.462893e-004
1.801217e+003,7.687933e-004
1.803145e+003,7.014173e-004
1.805074e+003,7.348717e-004
1.807002e+003,7.913650e-004
1.808931e+003,7.904356e-004
1.810859e+003,8.433839e-004
1.812788e+003,8.064356e-004
1.814716e+003,7.553837e-004
1.816645e+003,7.083868e-004
1.818573e+003,7.461565e-004
1.820502e+003,7.869502e-004
1.822430e+003,7.848589e-004
1.824359e+003,8.103859e-004
1.826287e+003,8.526463e-004
1.828216e+003,8.473345e-004
1.830144e+003,8.247599e-004
1.832073e+003,7.281674e-004
1.834001e+003,7.656401e-004
1.835930e+003,8.155312e-004
1.837858e+003,7.304574e-004
1.839787e+003,7.075903e-004
1.841715e+003,6.688615e-004
1.843644e+003,6.800782e-004
1.845572e+003,6.627223e-004
1.847501e+003,6.430111e-004
1.849429e+003,7.122366e-004
1.851358e+003,8.376406e-004
1.853286e+003,8.829250e-004
1.855215e+003,8.475669e-004
1.857143e+003,8.564643e-004
1.859072e+003,8.802025e-004
1.861000e+003,9.064987e-004
1.862929e+003,8.941473e-004
1.864857e+003,8.819622e-004
1.866786e+003,8.116805e-004
1.868714e+003,8.050082e-004
1.870643e+003,8.009915e-004
1.872571e+003,7.765273e-004
1.874500e+003,8.008920e-004
1.876428e+003,7.605617e-004
1.878357e+003,7.868838e-004
1.880285e+003,7.832324e-004
1.882214e+003,7.461565e-004
1.884142e+003,7.205006e-004
1.886071e+003,6.867155e-004
1.887999e+003,7.317518e-004
1.889928e+003,6.983640e-004
1.891856e+003,6.369386e-004
1.893785e+003,6.884743e-004
1.895713e+003,7.138628e-004
1.897642e+003,7.090505e-004
1.899570e+003,7.773572e-004
1.901499e+003,8.296731e-004
1.903427e+003,8.088257e-004
1.905356e+003,7.809089e-004
1.907284e+003,6.941161e-004
1.909213e+003,6.592047e-004
1.911141e+003,6.834300e-004
1.913070e+003,7.476501e-004
1.914998e+003,8.257559e-004
1.916927e+003,9.029792e-004
1.918855e+003,8.972351e-004
1.920784e+003,8.199464e-004
1.922712e+003,7.902032e-004
1.924641e+003,7.637813e-004
1.926569e+003,8.284448e-004
1.928498e+003,8.253243e-004
1.930426e+003,8.624402e-004
1.932355e+003,7.779879e-004
1.934283e+003,6.934524e-004
1.936212e+003,6.978663e-004
1.938140e+003,6.889721e-004
1.940069e+003,7.411115e-004
1.941997e+003,8.073982e-004
1.943926e+003,8.818626e-004
1.945854e+003,8.757536e-004
1.947783e+003,8.802025e-004
1.949711e+003,8.932176e-004
1.951640e+003,8.401636e-004
1.953568e+003,8.212411e-004
1.955497e+003,8.258887e-004
1.957425e+003,7.972073e-004
1.959354e+003,7.905684e-004
1.961282e+003,8.287104e-004
1.963211e+003,8.728651e-004
1.965139e+003,8.557671e-004
1.967068e+003,7.756643e-004
1.968996e+003,6.701226e-004
1.970925e+003,7.607608e-004
1.972853e+003,8.552358e-004
1.974782e+003,7.913650e-004
1.976710e+003,7.607608e-004
1.978639e+003,8.212411e-004
1.980567e+003,8.181870e-004
1.982496e+003,7.089842e-004
1.984424e+003,7.580722e-004
1.986353e+003,7.985019e-004
1.988281e+003,7.070592e-004
1.990210e+003,6.691602e-004
1.992138e+003,7.221600e-004
1.994067e+003,7.709177e-004
1.995995e+003,7.533258e-004
1.997924e+003,7.181110e-004
1.999852e+003,7.049020e-004
2.001781e+003,6.824344e-004
2.003709e+003,7.751664e-004
2.005638e+003,8.214071e-004
2.007566e+003,7.861535e-004
2.009495e+003,7.853237e-004
2.011423e+003,7.965102e-004
2.013352e+003,7.870829e-004
2.015280e+003,7.800459e-004
2.017208e+003,8.102199e-004
2.019137e+003,8.130748e-004
2.021066e+003,7.208325e-004
2.022994e+003,6.778548e-004
2.024922e+003,7.052007e-004
2.026851e+003,7.445634e-004
2.028780e+003,7.856556e-004
2.030708e+003,8.505880e-004
2.032636e+003,8.842863e-004
2.034565e+003,8.027509e-004
2.036494e+003,7.264083e-004
2.038422e+003,7.374606e-004
2.040350e+003,6.892377e-004
2.042279e+003,6.842265e-004
2.044208e+003,7.027116e-004
2.046136e+003,6.922577e-004
2.048064e+003,6.861513e-004
2.049993e+003,7.102121e-004
2.051921e+003,7.528280e-004
2.053850e+003,8.223034e-004
2.055778e+003,8.029501e-004
2.057707e+003,7.625864e-004
2.059635e+003,7.736064e-004
2.061564e+003,8.174566e-004
2.063492e+003,7.230894e-004
2.065421e+003,6.718482e-004
2.067349e+003,7.361329e-004
2.069278e+003,6.720805e-004
2.071206e+003,6.695252e-004
2.073135e+003,8.094232e-004
2.075063e+003,8.624070e-004
2.076992e+003,8.349183e-004
2.078920e+003,7.670674e-004
2.080849e+003,7.464884e-004
2.082777e+003,7.300260e-004
2.084706e+003,7.270057e-004
2.086634e+003,6.575455e-004
2.088563e+003,6.954104e-004
2.090491e+003,7.441319e-004
2.092420e+003,6.575455e-004
2.094348e+003,7.030435e-004
2.096277e+003,7.088514e-004
2.098205e+003,6.763282e-004
2.100134e+003,6.604657e-004
2.102062e+003,7.286652e-004
2.103991e+003,7.485794e-004
2.105919e+003,7.005212e-004
2.107848e+003,7.656732e-004
2.109776e+003,7.141284e-004
2.111705e+003,5.854090e-004
2.113633e+003,5.701138e-004
2.115562e+003,6.329567e-004
2.117490e+003,6.924900e-004
2.119419e+003,7.669346e-004
2.121347e+003,8.001616e-004
2.123276e+003,7.602297e-004
2.125204e+003,7.147921e-004
2.127133e+003,6.847907e-004
2.129061e+003,7.781538e-004
2.130990e+003,8.003940e-004
2.132918e+003,6.896027e-004
2.134847e+003,6.448693e-004
2.136775e+003,6.978994e-004
2.138704e+003,7.079885e-004
2.140632e+003,6.526343e-004
2.142561e+003,6.257230e-004
2.144489e+003,6.068430e-004
2.146418e+003,6.069425e-004
2.148346e+003,7.199696e-004
2.150275e+003,7.872490e-004
2.152203e+003,7.189407e-004
2.154132e+003,6.701889e-004
2.156060e+003,6.851557e-004
2.157989e+003,7.083536e-004
2.159917e+003,6.793150e-004
2.161846e+003,5.714078e-004
2.163774e+003,5.478191e-004
2.165703e+003,5.993443e-004
2.167631e+003,6.527007e-004
2.169560e+003,6.977667e-004
2.171488e+003,7.319842e-004
2.173417e+003,6.815052e-004
2.175345e+003,6.373036e-004
2.177274e+003,6.761955e-004
2.179202e+003,7.244501e-004
2.181131e+003,6.868482e-004
2.183059e+003,5.883619e-004
2.184988e+003,6.313308e-004
2.186916e+003,7.159869e-004
2.188845e+003,6.935851e-004
2.190773e+003,6.102606e-004
2.192702e+003,6.023304e-004
2.194630e+003,6.307003e-004
2.196559e+003,6.440066e-004
2.198487e+003,6.554549e-004
2.200416e+003,6.423474e-004
2.202344e+003,6.104265e-004
2.204273e+003,6.231680e-004
2.206201e+003,6.023968e-004
2.208130e+003,5.641420e-004
2.210058e+003,5.856081e-004
2.211987e+003,6.027950e-004
2.213915e+003,6.228362e-004
2.215844e+003,7.053335e-004
2.217772e+003,7.165179e-004
2.219701e+003,7.429702e-004
2.221629e+003,7.025789e-004
2.223558e+003,6.590720e-004
2.225486e+003,6.084356e-004
2.227415e+003,5.294732e-004
2.229343e+003,5.518666e-004
2.231272e+003,5.743606e-004
2.233200e+003,6.652444e-004
2.235129e+003,7.154559e-004
2.237057e+003,6.913284e-004
2.238986e+003,6.480549e-004
2.240914e+003,6.312644e-004
2.242843e+003,6.630209e-004
2.244771e+003,6.542271e-004
2.246700e+003,6.388632e-004
2.248628e+003,6.772242e-004
2.250557e+003,6.004392e-004
2.252485e+003,5.956945e-004
2.254414e+003,6.832309e-004
2.256342e+003,6.803437e-004
2.258271e+003,6.510083e-004
2.260199e+003,6.860186e-004
2.262128e+003,7.369627e-004
2.264056e+003,7.449948e-004
2.265985e+003,7.803446e-004
2.267913e+003,7.994313e-004
2.269842e+003,8.365783e-004
2.271770e+003,8.037135e-004
2.273699e+003,7.088182e-004
2.275627e+003,7.184429e-004
2.277556e+003,6.965056e-004
2.279484e+003,6.982977e-004
2.281413e+003,7.086523e-004
2.283341e+003,6.186222e-004
2.285270e+003,6.903992e-004
2.287198e+003,7.223592e-004
2.289127e+003,7.751332e-004
2.291055e+003,8.347192e-004
2.292984e+003,8.857471e-004
2.294912e+003,8.918895e-004
2.296841e+003,1.021198e-003
2.298769e+003,1.279133e-003
2.300698e+003,1.422751e-003
2.302626e+003,1.472119e-003
2.304555e+003,1.571505e-003
2.306483e+003,1.802450e-003
2.308412e+003,2.013511e-003
2.310340e+003,2.312807e-003
2.312269e+003,2.860985e-003
2.314197e+003,3.345808e-003
2.316125e+003,3.823619e-003
2.318054e+003,4.420735e-003
2.319983e+003,4.975772e-003
2.321911e+003,5.571992e-003
2.323840e+003,6.169166e-003
2.325768e+003,6.636132e-003
2.327697e+003,7.139034e-003
2.329625e+003,7.785795e-003
2.331553e+003,8.107731e-003
2.333482e+003,8.200273e-003
2.335411e+003,8.286316e-003
2.337339e+003,8.405853e-003
2.339268e+003,8.516535e-003
2.341196e+003,8.379132e-003
2.343125e+003,7.861298e-003
2.345053e+003,6.718670e-003
2.346981e+003,4.975503e-003
2.348910e+003,3.959320e-003
2.350839e+003,5.073884e-003
2.352767e+003,7.310415e-003
2.354696e+003,9.166165e-003
2.356624e+003,1.032357e-002
2.358552e+003,1.095206e-002
2.360481e+003,1.112441e-002
2.362409e+003,1.105139e-002
2.364338e+003,1.078864e-002
2.366267e+003,1.020408e-002
2.368195e+003,9.313432e-003
2.370124e+003,8.149121e-003
2.372052e+003,6.826567e-003
2.373980e+003,5.495410e-003
2.375909e+003,4.208635e-003
2.377838e+003,2.971797e-003
2.379766e+003,1.961185e-003
2.381695e+003,1.342677e-003
2.383623e+003,1.099453e-003
2.385552e+003,9.289779e-004
2.387480e+003,7.313536e-004
2.389408e+003,7.115065e-004
2.391337e+003,6.988619e-004
2.393266e+003,6.278798e-004
2.395194e+003,6.976340e-004
2.397123e+003,8.262206e-004
2.399051e+003,8.496252e-004
2.400979e+003,7.599974e-004
2.402908e+003,7.129004e-004
2.404836e+003,6.734411e-004
2.406765e+003,6.037572e-004
2.408694e+003,5.556486e-004
2.410622e+003,6.328903e-004
2.412551e+003,6.516720e-004
2.414479e+003,6.803437e-004
2.416407e+003,7.130995e-004
2.418336e+003,7.161197e-004
2.420264e+003,6.206130e-004
2.422193e+003,5.217105e-004
2.424122e+003,5.469234e-004
2.426050e+003,6.459976e-004
2.427979e+003,6.713504e-004
2.429907e+003,6.379009e-004
2.431835e+003,6.181244e-004
2.433764e+003,7.044042e-004
2.435692e+003,6.800451e-004
2.437621e+003,5.586014e-004
2.439550e+003,5.680236e-004
2.441478e+003,6.244953e-004
2.443406e+003,5.980834e-004
2.445335e+003,6.123841e-004
2.447263e+003,6.505769e-004
2.449192e+003,5.958604e-004
2.451121e+003,4.999490e-004
2.453049e+003,4.761320e-004
2.454978e+003,5.654027e-004
2.456906e+003,6.820362e-004
2.458834e+003,6.831645e-004
2.460763e+003,6.314303e-004
2.462691e+003,6.161004e-004
2.464620e+003,6.502119e-004
2.466549e+003,6.774566e-004
2.468477e+003,6.570810e-004
2.470406e+003,6.103933e-004
2.472334e+003,5.708106e-004
2.474262e+003,6.137777e-004
2.476191e+003,6.477231e-004
2.478119e+003,6.547249e-004
2.480048e+003,6.266521e-004
2.481977e+003,5.892909e-004
2.483905e+003,5.598289e-004
2.485833e+003,6.253912e-004
2.487762e+003,6.017000e-004
2.489690e+003,5.160378e-004
2.491619e+003,5.101993e-004
2.493547e+003,5.872670e-004
2.495476e+003,7.098803e-004
2.497405e+003,7.473514e-004
2.499333e+003,6.578442e-004
2.501261e+003,5.680900e-004
2.503190e+003,5.448664e-004
2.505118e+003,5.756214e-004
2.507047e+003,5.266202e-004
2.508975e+003,4.789183e-004
2.510904e+003,4.859173e-004
2.512833e+003,5.424446e-004
2.514761e+003,5.300372e-004
2.516689e+003,4.659820e-004
2.518618e+003,4.792168e-004
2.520546e+003,4.865476e-004
2.522475e+003,4.067119e-004
2.524403e+003,3.986860e-004
2.526332e+003,4.379214e-004
2.528260e+003,5.131185e-004
2.530189e+003,5.592981e-004
2.532117e+003,5.009773e-004
2.534046e+003,3.788873e-004
2.535974e+003,4.490326e-004
2.537903e+003,4.676073e-004
2.539831e+003,4.874432e-004
2.541760e+003,5.135166e-004
2.543688e+003,6.303353e-004
2.545617e+003,6.573464e-004
2.547545e+003,5.930733e-004
2.549474e+003,5.330561e-004
2.551402e+003,4.992192e-004
2.553331e+003,4.703935e-004
2.555259e+003,4.884715e-004
2.557188e+003,5.537908e-004
2.559116e+003,5.623504e-004
2.561045e+003,5.772139e-004
2.562973e+003,5.064176e-004
2.564902e+003,5.446342e-004
2.566830e+003,5.826883e-004
2.568759e+003,4.562302e-004
2.570687e+003,5.176633e-004
2.572616e+003,6.764941e-004
2.574544e+003,6.744034e-004
2.576473e+003,5.883619e-004
2.578401e+003,5.247625e-004
2.580330e+003,3.704640e-004
2.582258e+003,3.272556e-004
2.584187e+003,4.228968e-004
2.586115e+003,4.770608e-004
2.588044e+003,4.925185e-004
2.589972e+003,5.429754e-004
2.591901e+003,5.550183e-004
2.593829e+003,4.584857e-004
2.595758e+003,4.353343e-004
2.597686e+003,4.989206e-004
2.599615e+003,4.700950e-004
2.601543e+003,4.510227e-004
2.603472e+003,4.871447e-004
2.605400e+003,4.674746e-004
2.607329e+003,5.295396e-004
2.609257e+003,6.145077e-004
2.611186e+003,6.015010e-004
2.613114e+003,5.102656e-004
2.615043e+003,4.129802e-004
2.616971e+003,4.060486e-004
2.618900e+003,4.695975e-004
2.620828e+003,5.253265e-004
2.622757e+003,5.380655e-004
2.624685e+003,5.184263e-004
2.626614e+003,4.979918e-004
2.628542e+003,5.460608e-004
2.630471e+003,6.267516e-004
2.632399e+003,5.639429e-004
2.634328e+003,4.838276e-004
2.636256e+003,4.608739e-004
2.638185e+003,5.091709e-004
2.640113e+003,5.509045e-004
2.642042e+003,5.255918e-004
2.643970e+003,5.426437e-004
2.645899e+003,5.219427e-004
2.647827e+003,5.333878e-004
2.649756e+003,6.064780e-004
2.651684e+003,5.440039e-004
2.653613e+003,4.688014e-004
2.655541e+003,5.600943e-004
2.657470e+003,5.097349e-004
2.659398e+003,4.796481e-004
2.661327e+003,5.419138e-004
2.663255e+003,5.361082e-004
2.665184e+003,4.590164e-004
2.667112e+003,4.869456e-004
2.669041e+003,5.117584e-004
2.670969e+003,5.413167e-004
2.672898e+003,5.101993e-004
2.674826e+003,4.740091e-004
2.676755e+003,4.347042e-004
2.678683e+003,3.929818e-004
2.680612e+003,4.415698e-004
2.682540e+003,5.310656e-004
2.684469e+003,5.457622e-004
2.686397e+003,5.211133e-004
2.688326e+003,5.253928e-004
2.690254e+003,5.659666e-004
2.692183e+003,5.040623e-004
2.694111e+003,4.016377e-004
2.696040e+003,2.845821e-004
2.697968e+003,2.879308e-004
2.699897e+003,4.432282e-004
2.701825e+003,4.254837e-004
2.703754e+003,4.180877e-004
2.705682e+003,5.366390e-004
2.707611e+003,5.610565e-004
2.709539e+003,4.657166e-004
2.711468e+003,4.329463e-004
2.713396e+003,4.588174e-004
2.715325e+003,4.680716e-004
2.717253e+003,3.519930e-004
2.719182e+003,3.540489e-004
2.721110e+003,4.202766e-004
2.723039e+003,4.287673e-004
2.724967e+003,4.482697e-004
2.726896e+003,4.370922e-004
2.728824e+003,4.003774e-004
2.730753e+003,4.553015e-004
2.732681e+003,5.056214e-004
2.734610e+003,4.631294e-004
2.736538e+003,4.629304e-004
2.738467e+003,4.295964e-004
2.740395e+003,3.938772e-004
2.742324e+003,4.256828e-004
2.744252e+003,3.857189e-004
2.746181e+003,3.476157e-004
2.748109e+003,2.890250e-004
2.750038e+003,3.440676e-004
2.751966e+003,4.430292e-004
2.753895e+003,4.594808e-004
2.755823e+003,4.181208e-004
2.757752e+003,3.856526e-004
2.759680e+003,3.863822e-004
2.761609e+003,3.118701e-004
2.763537e+003,3.866143e-004
2.765466e+003,4.752695e-004
2.767394e+003,4.666453e-004
2.769323e+003,4.034949e-004
2.771251e+003,3.811424e-004
2.773180e+003,3.592553e-004
2.775108e+003,3.499702e-004
2.777037e+003,3.834638e-004
2.778965e+003,3.796169e-004
2.780894e+003,4.275401e-004
2.782822e+003,4.479381e-004
2.784750e+003,4.988543e-004
2.786679e+003,5.418475e-004
2.788608e+003,4.786529e-004
2.790536e+003,4.389496e-004
2.792465e+003,3.855199e-004
2.794393e+003,3.290794e-004
2.796322e+003,3.874434e-004
2.798250e+003,3.774945e-004
2.800178e+003,2.849468e-004
2.802107e+003,2.531184e-004
2.804036e+003,3.185681e-004
2.805964e+003,3.594211e-004
2.807893e+003,3.371040e-004
2.809821e+003,3.452945e-004
2.811750e+003,3.581609e-004
2.813678e+003,2.904175e-004
2.815606e+003,3.379661e-004
2.817535e+003,3.085875e-004
2.819464e+003,2.665126e-004
2.821392e+003,2.935011e-004
2.823321e+003,3.632347e-004
2.825249e+003,4.188173e-004
2.827177e+003,3.899307e-004
2.829106e+003,3.309695e-004
2.831034e+003,2.747349e-004
2.832963e+003,3.382977e-004
2.834892e+003,4.767290e-004
2.836820e+003,4.932150e-004
2.838749e+003,3.394583e-004
2.840677e+003,2.485101e-004
2.842605e+003,3.734154e-004
2.844534e+003,4.803446e-004
2.846462e+003,3.712599e-004
2.848391e+003,3.548448e-004
2.850320e+003,4.269431e-004
2.852248e+003,4.196797e-004
2.854177e+003,3.727522e-004
2.856105e+003,3.759026e-004
2.858033e+003,3.479142e-004
2.859962e+003,3.994488e-004
2.861890e+003,4.178555e-004
2.863819e+003,3.947727e-004
2.865748e+003,3.885047e-004
2.867676e+003,3.518935e-004
2.869604e+003,4.218023e-004
2.871533e+003,4.578886e-004
2.873461e+003,3.038128e-004
2.875390e+003,2.126401e-004
2.877319e+003,2.366415e-004
2.879247e+003,3.672804e-004
2.881176e+003,3.607807e-004
2.883104e+003,3.098143e-004
2.885032e+003,4.244888e-004
2.886961e+003,4.774256e-004
2.888889e+003,4.258154e-004
2.890818e+003,3.682753e-004
2.892747e+003,3.680100e-004
2.894675e+003,2.830237e-004
2.896604e+003,3.791858e-004
2.898532e+003,4.443891e-004
2.900460e+003,4.197460e-004
2.902389e+003,4.396461e-004
2.904317e+003,3.582273e-004
2.906246e+003,3.688390e-004
2.908175e+003,3.332906e-004
2.910103e+003,3.480468e-004
2.912031e+003,3.950048e-004
2.913960e+003,3.663519e-004
2.915888e+003,3.605486e-004
2.917817e+003,2.991709e-004
2.919745e+003,3.572324e-004
2.921674e+003,4.563629e-004
2.923603e+003,4.728481e-004
2.925531e+003,4.390491e-004
2.927459e+003,4.414372e-004
2.929388e+003,4.246214e-004
2.931316e+003,4.128143e-004
2.933245e+003,4.483029e-004
2.935173e+003,3.006629e-004
2.937102e+003,1.751819e-004
2.939031e+003,2.578925e-004
2.940959e+003,2.363100e-004
2.942887e+003,2.294144e-004
2.944816e+003,2.642249e-004
2.946744e+003,2.889918e-004
2.948673e+003,3.474168e-004
2.950601e+003,3.220829e-004
2.952530e+003,2.736077e-004
2.954458e+003,2.897876e-004
2.956387e+003,2.948937e-004
2.958315e+003,3.736808e-004
2.960244e+003,2.878314e-004
2.962172e+003,2.221211e-004
2.964101e+003,2.873672e-004
2.966029e+003,4.241902e-004
2.967958e+003,4.399114e-004
2.969886e+003,3.395246e-004
2.971815e+003,3.296431e-004
2.973743e+003,2.831896e-004
2.975672e+003,2.125074e-004
2.977600e+003,2.547761e-004
2.979529e+003,3.846245e-004
2.981457e+003,4.230958e-004
2.983386e+003,3.937114e-004
2.985314e+003,3.563702e-004
2.987243e+003,3.503018e-004
2.989171e+003,3.848567e-004
2.991100e+003,3.104443e-004
2.993028e+003,3.372035e-004
2.994957e+003,4.739096e-004
2.996885e+003,4.792168e-004
2.998814e+003,3.756373e-004
3.000742e+003,3.203918e-004
3.002671e+003,3.373361e-004
3.004599e+003,3.525567e-004
3.006528e+003,4.382530e-004
3.008456e+003,3.751067e-004
3.010385e+003,2.584893e-004
3.012313e+003,2.076675e-004
3.014242e+003,2.470845e-004
3.016170e+003,3.221160e-004
3.018099e+003,4.198787e-004
3.020027e+003,3.512303e-004
3.021956e+003,2.814323e-004
3.023884e+003,2.838195e-004
3.025813e+003,2.775531e-004
3.027741e+003,2.528200e-004
3.029670e+003,1.738228e-004
3.031598e+003,1.686850e-004
3.033527e+003,2.413491e-004
3.035455e+003,4.015382e-004
3.037384e+003,4.608407e-004
3.039312e+003,4.477391e-004
3.041241e+003,3.564034e-004
3.043169e+003,1.960321e-004
3.045098e+003,2.188060e-004
3.047026e+003,2.913791e-004
3.048955e+003,2.479134e-004
3.050883e+003,1.982199e-004
3.052812e+003,2.559696e-004
3.054740e+003,2.748012e-004
3.056669e+003,3.825684e-004
3.058597e+003,3.234092e-004
3.060526e+003,1.509849e-004
3.062454e+003,2.349507e-004
3.064383e+003,3.114722e-004
3.066311e+003,2.651864e-004
3.068240e+003,2.851457e-004
3.070168e+003,3.331580e-004
3.072097e+003,1.859880e-004
3.074025e+003,1.329873e-004
3.075954e+003,1.815462e-004
3.077882e+003,1.850599e-004
3.079811e+003,2.463883e-004
3.081739e+003,2.821286e-004
3.083668e+003,2.131705e-004
3.085596e+003,1.473058e-004
3.087525e+003,1.102509e-004
3.089453e+003,1.591720e-004
3.091382e+003,1.205252e-004
3.093310e+003,1.540012e-004
3.095239e+003,2.382328e-004
3.097167e+003,2.980767e-004
3.099096e+003,3.819383e-004
3.101024e+003,3.066975e-004
3.102953e+003,2.184414e-004
3.104881e+003,2.505988e-004
3.106810e+003,3.985865e-004
3.108738e+003,3.921858e-004
3.110667e+003,2.208945e-004
3.112595e+003,2.019989e-004
3.114524e+003,2.237455e-004
3.116452e+003,1.478030e-004
3.118381e+003,1.795573e-004
3.120309e+003,2.764590e-004
3.122238e+003,3.193307e-004
3.124166e+003,3.600843e-004
3.126095e+003,3.100796e-004
3.128023e+003,3.065318e-004
3.129952e+003,3.131964e-004
3.131880e+003,2.548092e-004
3.133809e+003,2.710216e-004
3.135737e+003,2.926722e-004
3.137666e+003,3.267914e-004
3.139594e+003,2.980435e-004
3.141523e+003,2.576936e-004
3.143451e+003,3.015913e-004
3.145380e+003,2.625341e-004
3.147308e+003,1.489299e-004
3.149237e+003,2.097228e-004
3.151165e+003,3.952369e-004
3.153094e+003,4.703604e-004
3.155022e+003,4.010076e-004
3.156951e+003,2.757296e-004
3.158879e+003,2.674077e-004
3.160808e+003,3.763006e-004
3.162736e+003,3.914231e-004
3.164665e+003,3.136275e-004
3.166593e+003,3.022876e-004
3.168522e+003,1.889051e-004
3.170450e+003,1.516147e-004
3.172379e+003,1.697789e-004
3.174307e+003,1.651383e-004
3.176236e+003,2.668773e-004
3.178164e+003,3.665508e-004
3.180093e+003,3.603165e-004
3.182021e+003,2.559365e-004
3.183950e+003,2.299117e-004
3.185878e+003,2.685350e-004
3.187807e+003,4.115540e-004
3.189735e+003,5.235682e-004
3.191664e+003,3.819383e-004
3.193592e+003,3.104775e-004
3.195521e+003,3.233429e-004
3.197449e+003,3.190986e-004
3.199378e+003,2.790120e-004
3.201306e+003,2.538146e-004
3.203235e+003,2.570305e-004
3.205163e+003,2.903181e-004
3.207092e+003,3.250008e-004
3.209020e+003,4.029643e-004
3.210948e+003,4.263793e-004
3.212877e+003,3.460241e-004
3.214806e+003,2.637939e-004
3.216734e+003,3.261282e-004
3.218663e+003,4.485019e-004
3.220591e+003,3.455266e-004
3.222520e+003,1.802866e-004
3.224448e+003,1.904962e-004
3.226376e+003,9.082990e-005
3.228305e+003,1.052796e-004
3.230234e+003,2.662142e-004
3.232162e+003,2.583567e-004
3.234091e+003,2.727456e-004
3.236019e+003,2.826590e-004
3.237948e+003,1.280157e-004
3.239876e+003,2.573952e-004
3.241804e+003,4.726159e-004
3.243733e+003,3.817725e-004
3.245662e+003,2.865383e-004
3.247590e+003,3.817062e-004
3.249519e+003,4.055511e-004
3.251447e+003,3.511639e-004
3.253375e+003,2.575941e-004
3.255304e+003,3.232103e-004
3.257232e+003,4.402431e-004
3.259161e+003,4.524490e-004
3.261090e+003,4.884052e-004
3.263018e+003,4.296296e-004
3.264947e+003,3.062997e-004
3.266875e+003,1.416048e-004
3.268803e+003,2.051813e-004
3.270732e+003,2.339230e-004
3.272660e+003,2.566327e-004
3.274589e+003,3.049402e-004
3.276518e+003,2.589203e-004
3.278446e+003,2.791114e-004
3.280375e+003,2.940979e-004
3.282303e+003,2.749007e-004
3.284231e+003,4.014719e-004
3.286160e+003,4.087018e-004
3.288088e+003,3.415474e-004
3.290017e+003,1.823418e-004
3.291946e+003,2.110820e-004
3.293874e+003,3.207565e-004
3.295802e+003,3.536179e-004
3.297731e+003,3.705635e-004
3.299659e+003,4.604095e-004
3.301588e+003,4.533445e-004
3.303516e+003,3.363745e-004
3.305445e+003,3.786552e-004
3.307374e+003,4.919214e-004
3.309302e+003,3.997473e-004
3.311230e+003,3.008619e-004
3.313159e+003,3.615766e-004
3.315087e+003,4.144726e-004
3.317016e+003,5.111282e-004
3.318944e+003,5.417148e-004
3.320873e+003,5.036974e-004
3.322802e+003,4.621675e-004
3.324730e+003,3.300078e-004
3.326658e+003,2.381002e-004
3.328587e+003,3.195628e-004
3.330515e+003,3.737471e-004
3.332444e+003,3.042107e-004
3.334372e+003,2.568316e-004
3.336301e+003,3.500033e-004
3.338229e+003,4.244556e-004
3.340158e+003,3.241387e-004
3.342086e+003,2.907160e-004
3.344015e+003,2.327959e-004
3.345943e+003,3.358108e-004
3.347872e+003,3.649259e-004
3.349800e+003,2.082974e-004
3.351729e+003,3.006961e-004
3.353657e+003,3.351807e-004
3.355586e+003,2.068388e-004
3.357514e+003,3.718236e-004
3.359443e+003,4.786529e-004
3.361371e+003,3.696018e-004
3.363300e+003,2.865383e-004
3.365229e+003,2.705243e-004
3.367157e+003,1.749830e-004
3.369085e+003,3.154475e-005
3.371014e+003,6.849346e-005
3.372942e+003,2.807360e-004
3.374871e+003,2.903181e-004
3.376799e+003,3.251998e-004
3.378728e+003,3.372035e-004
3.380656e+003,2.694965e-004
3.382585e+003,2.611747e-004
3.384513e+003,2.851126e-004
3.386442e+003,3.529546e-004
3.388370e+003,4.932482e-004
3.390299e+003,5.933387e-004
3.392227e+003,4.840929e-004
3.394156e+003,3.413153e-004
3.396084e+003,3.835301e-004
3.398013e+003,2.704248e-004
3.399941e+003,9.881695e-005
3.401870e+003,2.300774e-004
3.403798e+003,4.872774e-004
3.405727e+003,5.224403e-004
3.407655e+003,4.485351e-004
3.409584e+003,4.112555e-004
3.411512e+003,4.080385e-004
3.413441e+003,3.554417e-004
3.415369e+003,3.537505e-004
3.417298e+003,3.025529e-004
3.419226e+003,3.465215e-004
3.421155e+003,4.101611e-004
3.423083e+003,2.864056e-004
3.425012e+003,3.086207e-004
3.426940e+003,4.477059e-004
3.428869e+003,4.158987e-004
3.430797e+003,4.126817e-004
3.432726e+003,4.321834e-004
3.434654e+003,4.775583e-004
3.436583e+003,4.280376e-004
3.438511e+003,3.267251e-004
3.440440e+003,4.536430e-004
3.442368e+003,3.239397e-004
3.444297e+003,2.007724e-004
3.446225e+003,4.030306e-004
3.448154e+003,5.762518e-004
3.450082e+003,4.577560e-004
3.452011e+003,5.137488e-004
3.453939e+003,6.626559e-004
3.455868e+003,5.140806e-004
3.457796e+003,3.695023e-004
3.459725e+003,3.751731e-004
3.461653e+003,4.829651e-004
3.463582e+003,6.235662e-004
3.465510e+003,4.758666e-004
3.467439e+003,3.160149e-004
3.469367e+003,2.821286e-004
3.471296e+003,2.563011e-004
3.473224e+003,4.031964e-004
3.475153e+003,3.400552e-004
3.477081e+003,3.521256e-004
3.479010e+003,3.823363e-004
3.480938e+003,2.647554e-004
3.482867e+003,1.675249e-004
3.484795e+003,2.788130e-004
3.486724e+003,3.032160e-004
3.488652e+003,1.965956e-004
3.490581e+003,2.733093e-004
3.492509e+003,2.241102e-004
3.494438e+003,2.022973e-004
3.496366e+003,4.239913e-004
3.498295e+003,4.614046e-004
3.500223e+003,4.533777e-004
3.502152e+003,5.262222e-004
3.504080e+003,5.353452e-004
3.506009e+003,4.128143e-004
3.507937e+003,3.514624e-004
3.509866e+003,2.284199e-004
3.511794e+003,2.856099e-004
3.513723e+003,3.716578e-004
3.515651e+003,2.998672e-004
3.517580e+003,3.835301e-004
3.519508e+003,5.811289e-004
3.521437e+003,5.096685e-004
3.523365e+003,3.632678e-004
3.525294e+003,3.047081e-004
3.527222e+003,2.910144e-004
3.529151e+003,3.877751e-004
3.531079e+003,5.058869e-004
3.533008e+003,5.795695e-004
3.534936e+003,5.410513e-004
3.536865e+003,4.071099e-004
3.538793e+003,2.368736e-004
3.540722e+003,1.562883e-004
3.542650e+003,1.282477e-004
3.544579e+003,2.746023e-004
3.546507e+003,5.567766e-004
3.548436e+003,5.323926e-004
3.550364e+003,4.738432e-004
3.552293e+003,6.675673e-004
3.554221e+003,7.914314e-004
3.556150e+003,6.936847e-004
3.558078e+003,5.265539e-004
3.560007e+003,3.524572e-004
3.561935e+003,1.927503e-004
3.563864e+003,2.936668e-004
3.565792e+003,4.048547e-004
3.567721e+003,3.546127e-004
3.569649e+003,3.204249e-004
3.571578e+003,4.655839e-004
3.573506e+003,6.274153e-004
3.575435e+003,6.123178e-004
3.577363e+003,5.340845e-004
3.579292e+003,4.418020e-004
3.581220e+003,3.343849e-004
3.583149e+003,3.484448e-004
3.585077e+003,3.373361e-004
3.587006e+003,3.092507e-004
3.588934e+003,2.922411e-004
3.590863e+003,2.546766e-004
3.592791e+003,4.370590e-004
3.594720e+003,5.534259e-004
3.596648e+003,5.853095e-004
3.598577e+003,5.160710e-004
3.600505e+003,6.049517e-004
3.602434e+003,6.314967e-004
3.604362e+003,4.985225e-004
3.606291e+003,3.867470e-004
3.608219e+003,5.346817e-004
3.610148e+003,4.562302e-004
3.612076e+003,2.929043e-004
3.614005e+003,2.908154e-004
3.615933e+003,5.119243e-004
3.617862e+003,6.367395e-004
3.619790e+003,4.171259e-004
3.621719e+003,3.503018e-004
3.623647e+003,4.814724e-004
3.625576e+003,6.437743e-004
3.627504e+003,7.919957e-004
3.629433e+003,8.080290e-004
3.631361e+003,5.151421e-004
3.633290e+003,3.846909e-004
3.635218e+003,4.311221e-004
3.637146e+003,5.844136e-004
3.639075e+003,5.722372e-004
3.641004e+003,5.154738e-004
3.642932e+003,5.106305e-004
3.644861e+003,4.789846e-004
3.646789e+003,4.013060e-004
3.648718e+003,3.798159e-004
3.650646e+003,2.314698e-004
3.652574e+003,1.496922e-004
3.654503e+003,4.711564e-004
3.656432e+003,8.061368e-004
3.658360e+003,6.663062e-004
3.660289e+003,5.583692e-004
3.662217e+003,4.929165e-004
3.664146e+003,3.341196e-004
3.666074e+003,4.100284e-004
3.668002e+003,4.875096e-004
3.669931e+003,3.839281e-004
3.671860e+003,3.720558e-004
3.673788e+003,5.320609e-004
3.675717e+003,5.526960e-004
3.677645e+003,5.017403e-004
3.679573e+003,6.186222e-004
3.681502e+003,7.008199e-004
3.683430e+003,6.764610e-004
3.685359e+003,6.830318e-004
3.687288e+003,7.300260e-004
3.689216e+003,6.639169e-004
3.691145e+003,6.487518e-004
3.693073e+003,6.844920e-004
3.695001e+003,7.214631e-004
3.696930e+003,8.823938e-004
3.698858e+003,8.841535e-004
3.700787e+003,9.231339e-004
3.702716e+003,1.122141e-003
3.704644e+003,1.075470e-003
3.706573e+003,8.916571e-004
3.708501e+003,8.023193e-004
3.710429e+003,7.497743e-004
3.712358e+003,5.539567e-004
3.714286e+003,4.483692e-004
3.716215e+003,6.379009e-004
3.718144e+003,8.554683e-004
3.720072e+003,7.527284e-004
3.722000e+003,8.120456e-004
3.723929e+003,8.221042e-004
3.725857e+003,6.703548e-004
3.727786e+003,6.216749e-004
3.729714e+003,7.219941e-004
3.731643e+003,6.174608e-004
3.733572e+003,6.222721e-004
3.735500e+003,8.049086e-004
3.737428e+003,6.160008e-004
3.739357e+003,5.180945e-004
3.741285e+003,6.464621e-004
3.743214e+003,7.297604e-004
3.745142e+003,5.881296e-004
3.747071e+003,4.594144e-004
3.749000e+003,6.453339e-004
3.750928e+003,7.908007e-004
3.752856e+003,7.112742e-004
3.754785e+003,7.952820e-004
3.756713e+003,6.672022e-004
3.758642e+003,5.289756e-004
3.760570e+003,7.510688e-004
3.762499e+003,8.509200e-004
3.764427e+003,7.143939e-004
3.766356e+003,7.175468e-004
3.768284e+003,6.768923e-004
3.770213e+003,6.337531e-004
3.772141e+003,6.279462e-004
3.774070e+003,7.602961e-004
3.775998e+003,9.100515e-004
3.777927e+003,7.581386e-004
3.779855e+003,7.562467e-004
3.781784e+003,7.583046e-004
3.783712e+003,6.298707e-004
3.785641e+003,8.420227e-004
3.787569e+003,9.195146e-004
3.789498e+003,5.480181e-004
3.791426e+003,4.623001e-004
3.793355e+003,5.193219e-004
3.795283e+003,5.027023e-004
3.797212e+003,7.063291e-004
3.799140e+003,8.604150e-004
3.801069e+003,6.538289e-004
3.802997e+003,3.951374e-004
3.804926e+003,5.470560e-004
3.806854e+003,6.190535e-004
3.808783e+003,5.078440e-004
3.810711e+003,6.003728e-004
3.812640e+003,6.071748e-004
3.814568e+003,3.105770e-004
3.816497e+003,5.037970e-004
3.818425e+003,9.658370e-004
3.820354e+003,9.991457e-004
3.822282e+003,7.585369e-004
3.824211e+003,6.138441e-004
3.826139e+003,4.887037e-004
3.828068e+003,4.937790e-004
3.829996e+003,7.074243e-004
3.831925e+003,8.140042e-004
3.833853e+003,6.928550e-004
3.835782e+003,6.077720e-004
3.837710e+003,7.034750e-004
3.839639e+003,7.482144e-004
3.841567e+003,7.704530e-004
3.843496e+003,8.426535e-004
3.845424e+003,6.739721e-004
3.847353e+003,5.041287e-004
3.849281e+003,6.647797e-004
3.851210e+003,8.702422e-004
3.853138e+003,9.026472e-004
3.855067e+003,7.548527e-004
3.856995e+003,6.660408e-004
3.858924e+003,8.127096e-004
3.860852e+003,9.055358e-004
3.862781e+003,8.887353e-004
3.864709e+003,9.330621e-004
3.866638e+003,7.729757e-004
3.868566e+003,7.996637e-004
3.870495e+003,8.676526e-004
3.872423e+003,9.405002e-004
3.874352e+003,9.857621e-004
3.876280e+003,9.421937e-004
3.878209e+003,8.669886e-004
3.880137e+003,8.206103e-004
3.882066e+003,6.192858e-004
3.883994e+003,6.435752e-004
3.885923e+003,9.129070e-004
3.887851e+003,1.133336e-003
3.889780e+003,1.316022e-003
3.891708e+003,1.194732e-003
3.893637e+003,9.505617e-004
3.895565e+003,9.128074e-004
3.897494e+003,9.576348e-004
3.899422e+003,9.087897e-004
3.901351e+003,8.451766e-004
3.903279e+003,9.064323e-004
3.905208e+003,9.109812e-004
3.907136e+003,8.560327e-004
3.909065e+003,9.063327e-004
3.910993e+003,8.980983e-004
3.912922e+003,8.472349e-004
3.914850e+003,1.058729e-003
3.916779e+003,1.063114e-003
3.918707e+003,1.102708e-003
3.920636e+003,1.073045e-003
3.922564e+003,1.109418e-003
3.924493e+003,1.045942e-003
3.926421e+003,1.031527e-003
3.928350e+003,9.029460e-004
3.930278e+003,6.603662e-004
3.932207e+003,7.066278e-004
3.934135e+003,6.783857e-004
3.936064e+003,6.802774e-004
3.937992e+003,8.899970e-004
3.939921e+003,9.998099e-004
3.941849e+003,9.249601e-004
3.943778e+003,8.434503e-004
3.945706e+003,9.367479e-004
3.947635e+003,9.677298e-004
3.949563e+003,8.070331e-004
3.951492e+003,7.209321e-004
3.953420e+003,1.004127e-003
3.955349e+003,9.453151e-004
3.957277e+003,8.037135e-004
3.959206e+003,8.185189e-004
3.961134e+003,7.267734e-004
3.963063e+003,8.921551e-004
3.964991e+003,9.887842e-004
3.966920e+003,9.203115e-004
3.968848e+003,1.097227e-003
3.970777e+003,1.077430e-003
3.972705e+003,1.171309e-003
3.974634e+003,1.284749e-003
3.976562e+003,1.042653e-003
3.978491e+003,8.716367e-004
3.980419e+003,8.136723e-004
3.982348e+003,8.427199e-004
3.984276e+003,9.887842e-004
3.986205e+003,9.340583e-004
3.988133e+003,9.500304e-004
3.990062e+003,1.073842e-003
3.991990e+003,9.444185e-004
3.993919e+003,6.469267e-004
3.995847e+003,6.083361e-004
3.997776e+003,1.082512e-003
3.999704e+003,1.178618e-003
4.001633e+003,0.000000e+000
