3.991989e+002,-6.792494e-003
4.011274e+002,-6.612362e-003
4.030559e+002,-7.141712e-003
4.049844e+002,-1.317696e-002
4.069129e+002,-1.094266e-002
4.088414e+002,-6.826972e-003
4.107699e+002,-1.348517e-002
4.126984e+002,-1.586210e-002
4.146269e+002,-8.732428e-003
4.165554e+002,-2.255465e-003
4.184839e+002,1.068827e-003
4.204124e+002,2.305545e-003
4.223409e+002,-1.332229e-003
4.242694e+002,-6.456282e-003
4.261979e+002,-9.338660e-003
4.281264e+002,-1.466750e-003
4.300549e+002,5.008652e-003
4.319834e+002,2.663713e-003
4.339119e+002,1.327089e-003
4.358404e+002,-1.127405e-004
4.377689e+002,-1.479845e-004
4.396974e+002,-3.594047e-003
4.416259e+002,-7.254601e-003
4.435544e+002,-3.631277e-003
4.454829e+002,-1.915358e-003
4.474114e+002,9.754674e-004
4.493399e+002,3.259636e-003
4.512684e+002,4.021920e-003
4.531969e+002,1.471853e-003
4.551254e+002,-8.122168e-004
4.570539e+002,-1.051990e-003
4.589824e+002,-9.108928e-004
4.609109e+002,-6.834149e-004
4.628394e+002,-1.079490e-003
4.647679e+002,-1.321857e-003
4.666964e+002,7.350045e-004
4.686249e+002,1.584640e-003
4.705533e+002,3.100692e-003
4.724819e+002,2.111655e-003
4.744103e+002,2.453468e-003
4.763389e+002,3.873629e-003
4.782673e+002,3.432064e-003
4.801959e+002,7.024984e-005
4.821243e+002,-2.724366e-003
4.840529e+002,-2.319638e-003
4.859813e+002,-7.565529e-004
4.879099e+002,5.583028e-004
4.898383e+002,-1.269015e-005
4.917668e+002,-9.043791e-004
4.936953e+002,-6.826870e-004
4.956238e+002,-1.967938e-003
4.975523e+002,-5.090026e-003
4.994808e+002,-5.027211e-003
5.014093e+002,9.569042e-004
5.033378e+002,3.847687e-003
5.052663e+002,3.386746e-003
5.071948e+002,2.955918e-003
5.091233e+002,-9.055694e-004
5.110518e+002,-2.318550e-003
5.129803e+002,-7.309841e-004
5.149088e+002,7.704348e-005
5.168373e+002,2.122422e-004
5.187658e+002,-1.211874e-004
5.206943e+002,-1.211313e-003
5.226228e+002,-1.077374e-003
5.245513e+002,-1.716998e-004
5.264798e+002,-2.462486e-004
5.284083e+002,-7.232106e-004
5.303368e+002,-3.811392e-004
5.322653e+002,-3.800468e-004
5.341938e+002,-3.359662e-005
5.361223e+002,-8.973030e-004
5.380508e+002,-1.702663e-003
5.399792e+002,-1.475831e-003
5.419078e+002,-4.310587e-004
5.438363e+002,-5.235004e-004
5.457648e+002,-9.732152e-004
5.476932e+002,-7.552629e-004
5.496218e+002,-8.175744e-004
5.515503e+002,-5.952756e-004
5.534788e+002,-1.319214e-003
5.554072e+002,-2.679287e-003
5.573358e+002,-3.187465e-003
5.592643e+002,-2.782708e-003
5.611927e+002,-1.948312e-003
5.631212e+002,-1.095156e-003
5.650497e+002,-7.700478e-004
5.669783e+002,-1.526813e-003
5.689067e+002,-2.542209e-003
5.708352e+002,-2.083268e-003
5.727637e+002,-1.081605e-003
5.746923e+002,-9.957944e-004
5.766207e+002,-2.836763e-003
5.785492e+002,-4.349980e-003
5.804777e+002,-8.181019e-003
5.824063e+002,-6.195663e-003
5.843347e+002,-1.877683e-003
5.862632e+002,-1.278350e-003
5.881917e+002,-1.214155e-003
5.901202e+002,-1.845351e-003
5.920487e+002,-9.400879e-004
5.939772e+002,-4.841166e-004
5.959057e+002,-8.150610e-004
5.978342e+002,-1.447498e-003
5.997627e+002,-1.463514e-003
6.016912e+002,-2.265156e-003
6.036197e+002,-1.787047e-003
6.055482e+002,-1.325061e-003
6.074767e+002,-1.660614e-003
6.094052e+002,-3.477638e-003
6.113337e+002,-4.518624e-003
6.132622e+002,-4.518788e-003
6.151907e+002,-3.788672e-003
6.171192e+002,-4.279019e-003
6.190477e+002,-4.797357e-003
6.209762e+002,-3.962295e-003
6.229047e+002,-2.821818e-003
6.248332e+002,-3.063446e-003
6.267617e+002,-3.279651e-003
6.286902e+002,-1.576337e-003
6.306187e+002,6.054011e-005
6.325472e+002,-2.104496e-004
6.344756e+002,-3.634277e-004
6.364042e+002,1.415717e-004
6.383326e+002,3.237076e-004
6.402612e+002,1.176749e-004
6.421896e+002,8.844375e-005
6.441182e+002,4.937000e-006
6.460466e+002,-7.397166e-004
6.479752e+002,-7.919100e-004
6.499036e+002,-6.942325e-004
6.518322e+002,-5.918675e-004
6.537606e+002,-2.172387e-004
6.556891e+002,-2.926075e-004
6.576177e+002,-7.625066e-004
6.595461e+002,-1.224331e-003
6.614746e+002,-9.853811e-004
6.634031e+002,-8.859945e-004
6.653317e+002,3.936502e-005
6.672601e+002,6.352260e-005
6.691886e+002,-1.721635e-004
6.711171e+002,2.245743e-004
6.730457e+002,2.359785e-004
6.749741e+002,-2.637331e-004
6.769026e+002,2.511292e-004
6.788311e+002,6.947799e-004
6.807596e+002,5.421792e-004
6.826881e+002,5.397574e-004
6.846166e+002,3.503349e-004
6.865451e+002,7.385890e-004
6.884736e+002,1.126427e-003
6.904021e+002,7.531930e-004
6.923306e+002,7.130331e-004
6.942591e+002,7.855560e-004
6.961876e+002,5.848781e-004
6.981161e+002,5.769816e-004
7.000446e+002,6.596030e-004
7.019731e+002,7.827677e-004
7.039016e+002,8.916571e-004
7.058301e+002,8.067343e-004
7.077585e+002,6.030272e-004
7.096871e+002,5.045931e-004
7.116156e+002,9.998099e-004
7.135441e+002,8.664574e-004
7.154725e+002,4.722511e-004
7.174011e+002,1.345782e-004
7.193296e+002,4.307241e-004
7.212581e+002,6.196839e-004
7.231865e+002,4.820032e-004
7.251151e+002,4.325151e-004
7.270436e+002,5.232033e-004
7.289720e+002,9.335934e-004
7.309005e+002,1.586769e-003
7.328290e+002,1.264079e-003
7.347576e+002,9.021159e-004
7.366860e+002,1.569343e-003
7.386145e+002,1.914823e-003
7.405430e+002,1.659637e-003
7.424716e+002,1.558802e-003
7.444000e+002,1.794897e-003
7.463285e+002,2.395359e-003
7.482570e+002,2.573443e-003
7.501855e+002,2.325065e-003
7.521140e+002,2.302147e-003
7.540425e+002,2.619142e-003
7.559710e+002,2.692251e-003
7.578995e+002,2.970129e-003
7.598280e+002,3.078701e-003
7.617565e+002,2.626443e-003
7.636850e+002,2.693585e-003
7.656135e+002,3.315724e-003
7.675420e+002,3.343571e-003
7.694705e+002,3.341167e-003
7.713990e+002,3.180991e-003
7.733275e+002,3.086243e-003
7.752560e+002,3.282772e-003
7.771844e+002,3.084207e-003
7.791130e+002,2.768940e-003
7.810415e+002,2.648411e-003
7.829700e+002,2.697752e-003
7.848984e+002,2.931165e-003
7.868270e+002,3.211867e-003
7.887555e+002,3.303605e-003
7.906840e+002,3.021409e-003
7.926124e+002,2.650111e-003
7.945410e+002,2.758803e-003
7.964695e+002,2.902611e-003
7.983979e+002,3.339998e-003
8.003264e+002,3.686055e-003
8.022549e+002,3.464159e-003
8.041835e+002,3.509485e-003
8.061119e+002,3.693006e-003
8.080404e+002,4.300082e-003
8.099689e+002,4.673698e-003
8.118975e+002,4.411831e-003
8.138259e+002,4.725313e-003
8.157545e+002,5.252902e-003
8.176830e+002,4.480020e-003
8.196115e+002,3.596341e-003
8.215399e+002,3.205858e-003
8.234684e+002,3.125255e-003
8.253970e+002,2.768807e-003
8.273254e+002,2.330329e-003
8.292539e+002,2.250819e-003
8.311824e+002,1.594351e-003
8.331110e+002,1.412546e-003
8.350394e+002,1.770543e-003
8.369679e+002,1.814561e-003
8.388964e+002,1.591923e-003
8.408250e+002,1.563790e-003
8.427534e+002,1.484221e-003
8.446819e+002,1.713623e-003
8.466104e+002,1.485152e-003
8.485389e+002,1.584341e-003
8.504674e+002,1.744993e-003
8.523959e+002,1.865072e-003
8.543244e+002,1.673407e-003
8.562529e+002,1.589695e-003
8.581814e+002,1.556408e-003
8.601099e+002,1.489009e-003
8.620384e+002,1.489873e-003
8.639669e+002,1.327754e-003
8.658954e+002,1.601434e-003
8.678239e+002,1.997899e-003
8.697524e+002,1.692234e-003
8.716809e+002,1.083409e-003
8.736094e+002,8.321962e-004
8.755378e+002,1.087860e-003
8.774664e+002,1.293190e-003
8.793949e+002,1.308544e-003
8.813234e+002,1.372092e-003
8.832518e+002,1.601767e-003
8.851804e+002,1.231149e-003
8.871089e+002,6.530657e-004
8.890374e+002,8.835226e-004
8.909658e+002,6.565500e-004
8.928943e+002,5.608906e-004
8.948229e+002,9.550778e-004
8.967513e+002,9.205107e-004
8.986798e+002,5.537908e-004
9.006083e+002,4.571921e-004
9.025369e+002,7.758303e-004
9.044653e+002,8.906279e-004
9.063938e+002,5.842809e-004
9.083223e+002,6.018659e-004
9.102509e+002,5.761522e-004
9.121793e+002,4.594476e-004
9.141078e+002,2.825264e-004
9.160364e+002,6.652444e-004
9.179648e+002,7.749009e-004
9.198933e+002,5.329234e-004
9.218218e+002,3.872776e-004
9.237504e+002,5.159051e-004
9.256788e+002,3.551764e-004
9.276073e+002,2.039548e-004
9.295358e+002,5.336201e-004
9.314644e+002,8.546715e-004
9.333928e+002,1.056803e-003
9.353213e+002,1.047802e-003
9.372498e+002,9.569042e-004
9.391783e+002,9.370468e-004
9.411068e+002,1.241483e-003
9.430353e+002,1.634759e-003
9.449637e+002,1.559434e-003
9.468923e+002,1.329914e-003
9.488208e+002,1.413476e-003
9.507493e+002,1.495426e-003
9.526777e+002,1.661832e-003
9.546063e+002,1.703477e-003
9.565348e+002,1.930166e-003
9.584633e+002,1.977428e-003
9.603917e+002,1.825009e-003
9.623203e+002,1.568312e-003
9.642488e+002,1.461647e-003
9.661772e+002,1.664726e-003
9.681057e+002,2.086052e-003
9.700343e+002,1.974466e-003
9.719628e+002,1.498485e-003
9.738912e+002,1.078260e-003
9.758197e+002,9.543140e-004
9.777483e+002,1.015552e-003
9.796768e+002,1.230584e-003
9.816052e+002,1.079954e-003
9.835337e+002,1.010770e-003
9.854623e+002,1.163601e-003
9.873907e+002,1.099652e-003
9.893192e+002,1.015021e-003
9.912477e+002,1.276640e-003
9.931763e+002,1.642741e-003
9.951047e+002,1.606656e-003
9.970332e+002,1.545235e-003
9.989617e+002,1.427704e-003
1.000890e+003,1.594351e-003
1.002819e+003,2.384131e-003
1.004747e+003,2.653778e-003
1.006676e+003,2.783412e-003
1.008604e+003,3.028983e-003
1.010533e+003,3.192674e-003
1.012461e+003,3.449865e-003
1.014390e+003,3.556619e-003
1.016318e+003,3.855476e-003
1.018247e+003,4.112424e-003
1.020175e+003,4.013191e-003
1.022104e+003,4.065230e-003
1.024032e+003,4.467399e-003
1.025961e+003,4.890348e-003
1.027889e+003,4.905863e-003
1.029818e+003,5.014283e-003
1.031746e+003,5.283589e-003
1.033675e+003,5.519034e-003
1.035603e+003,5.770556e-003
1.037532e+003,5.720461e-003
1.039460e+003,5.662148e-003
1.041389e+003,5.849402e-003
1.043317e+003,5.953221e-003
1.045246e+003,6.118320e-003
1.047174e+003,6.440333e-003
1.049103e+003,6.607670e-003
1.051031e+003,6.552703e-003
1.052960e+003,6.687577e-003
1.054888e+003,6.786481e-003
1.056817e+003,6.676137e-003
1.058745e+003,6.635291e-003
1.060674e+003,6.627284e-003
1.062602e+003,6.726746e-003
1.064531e+003,6.937824e-003
1.066459e+003,6.846931e-003
1.068388e+003,6.704839e-003
1.070316e+003,6.865680e-003
1.072245e+003,7.132466e-003
1.074173e+003,7.326454e-003
1.076102e+003,7.155775e-003
1.078030e+003,6.765850e-003
1.079959e+003,6.902710e-003
1.081887e+003,7.366826e-003
1.083816e+003,7.466356e-003
1.085744e+003,7.585532e-003
1.087673e+003,7.690846e-003
1.089601e+003,7.524710e-003
1.091530e+003,7.726294e-003
1.093458e+003,8.096997e-003
1.095387e+003,8.165462e-003
1.097315e+003,8.169210e-003
1.099244e+003,8.131329e-003
1.101172e+003,8.318469e-003
1.103101e+003,8.414130e-003
1.105029e+003,8.094633e-003
1.106958e+003,7.902765e-003
1.108886e+003,7.934180e-003
1.110815e+003,8.163098e-003
1.112743e+003,8.332080e-003
1.114672e+003,8.246940e-003
1.116600e+003,8.223268e-003
1.118529e+003,8.288917e-003
1.120457e+003,8.373728e-003
1.122386e+003,8.534276e-003
1.124314e+003,8.475550e-003
1.126243e+003,8.259232e-003
1.128171e+003,8.191831e-003
1.130100e+003,8.206114e-003
1.132028e+003,8.094397e-003
1.133957e+003,7.970593e-003
1.135885e+003,7.815549e-003
1.137814e+003,7.700559e-003
1.139742e+003,7.553266e-003
1.141671e+003,7.197344e-003
1.143599e+003,6.930282e-003
1.145528e+003,6.788534e-003
1.147456e+003,6.482203e-003
1.149385e+003,6.116740e-003
1.151313e+003,5.797452e-003
1.153242e+003,5.584880e-003
1.155170e+003,5.378819e-003
1.157099e+003,5.169201e-003
1.159027e+003,4.825647e-003
1.160956e+003,4.735563e-003
1.162884e+003,4.765812e-003
1.164813e+003,4.598513e-003
1.166741e+003,4.414576e-003
1.168670e+003,4.415781e-003
1.170598e+003,4.332643e-003
1.172526e+003,4.291281e-003
1.174455e+003,4.384486e-003
1.176384e+003,4.307745e-003
1.178312e+003,4.190234e-003
1.180240e+003,4.124332e-003
1.182169e+003,4.041751e-003
1.184098e+003,3.957247e-003
1.186026e+003,3.886098e-003
1.187954e+003,3.691468e-003
1.189883e+003,3.439344e-003
1.191812e+003,3.406716e-003
1.193740e+003,3.456110e-003
1.195668e+003,3.451468e-003
1.197597e+003,3.436973e-003
1.199526e+003,3.374591e-003
1.201454e+003,3.298530e-003
1.203382e+003,3.323804e-003
1.205311e+003,3.492416e-003
1.207240e+003,3.448696e-003
1.209168e+003,3.376629e-003
1.211096e+003,3.449531e-003
1.213025e+003,3.554280e-003
1.214953e+003,3.692270e-003
1.216882e+003,3.768100e-003
1.218810e+003,3.662931e-003
1.220739e+003,3.571852e-003
1.222667e+003,3.640377e-003
1.224596e+003,3.719974e-003
1.226524e+003,3.689764e-003
1.228453e+003,3.574826e-003
1.230381e+003,3.692036e-003
1.232310e+003,3.739959e-003
1.234238e+003,3.758541e-003
1.236167e+003,3.879044e-003
1.238095e+003,3.880482e-003
1.240024e+003,3.966476e-003
1.241952e+003,4.294259e-003
1.243881e+003,4.315040e-003
1.245809e+003,4.480556e-003
1.247738e+003,4.661775e-003
1.249666e+003,4.523108e-003
1.251595e+003,4.748158e-003
1.253523e+003,5.328837e-003
1.255452e+003,5.700318e-003
1.257380e+003,5.865220e-003
1.259309e+003,6.228724e-003
1.261237e+003,6.724929e-003
1.263166e+003,6.954691e-003
1.265094e+003,6.981493e-003
1.267023e+003,7.282414e-003
1.268951e+003,7.882621e-003
1.270880e+003,8.358493e-003
1.272808e+003,8.546306e-003
1.274737e+003,8.585541e-003
1.276665e+003,9.005992e-003
1.278594e+003,9.675835e-003
1.280522e+003,1.026535e-002
1.282451e+003,1.072357e-002
1.284379e+003,1.113736e-002
1.286308e+003,1.181254e-002
1.288236e+003,1.222332e-002
1.290165e+003,1.261664e-002
1.292093e+003,1.307796e-002
1.294022e+003,1.327739e-002
1.295950e+003,1.361556e-002
1.297879e+003,1.394766e-002
1.299807e+003,1.402383e-002
1.301736e+003,1.385991e-002
1.303664e+003,1.368155e-002
1.305593e+003,1.355057e-002
1.307521e+003,1.332003e-002
1.309450e+003,1.300868e-002
1.311378e+003,1.263155e-002
1.313307e+003,1.242655e-002
1.315235e+003,1.231261e-002
1.317164e+003,1.195645e-002
1.319092e+003,1.144651e-002
1.321021e+003,1.077112e-002
1.322949e+003,1.021803e-002
1.324878e+003,9.958491e-003
1.326806e+003,9.777015e-003
1.328735e+003,9.687795e-003
1.330663e+003,9.560758e-003
1.332592e+003,9.349824e-003
1.334520e+003,9.251960e-003
1.336449e+003,9.159634e-003
1.338377e+003,9.088202e-003
1.340306e+003,9.151580e-003
1.342234e+003,9.323011e-003
1.344163e+003,9.339701e-003
1.346091e+003,9.196961e-003
1.348020e+003,9.108132e-003
1.349948e+003,9.064214e-003
1.351877e+003,8.857308e-003
1.353805e+003,8.709013e-003
1.355734e+003,8.592908e-003
1.357662e+003,8.380382e-003
1.359591e+003,8.307492e-003
1.361519e+003,8.268418e-003
1.363448e+003,8.159621e-003
1.365376e+003,8.063577e-003
1.367305e+003,8.031478e-003
1.369233e+003,7.987365e-003
1.371162e+003,7.779251e-003
1.373090e+003,7.806879e-003
1.375019e+003,8.004139e-003
1.376947e+003,8.061856e-003
1.378876e+003,8.124307e-003
1.380804e+003,8.315801e-003
1.382733e+003,8.320664e-003
1.384661e+003,8.080017e-003
1.386590e+003,7.861533e-003
1.388518e+003,7.740460e-003
1.390447e+003,7.586005e-003
1.392375e+003,7.289389e-003
1.394304e+003,7.132837e-003
1.396232e+003,7.028971e-003
1.398161e+003,6.901161e-003
1.400089e+003,6.856794e-003
1.402018e+003,6.842959e-003
1.403946e+003,6.780725e-003
1.405875e+003,6.712310e-003
1.407803e+003,6.595357e-003
1.409732e+003,6.558757e-003
1.411660e+003,6.444638e-003
1.413589e+003,6.277397e-003
1.415517e+003,6.409564e-003
1.417446e+003,6.627587e-003
1.419374e+003,7.156516e-003
1.421303e+003,7.876109e-003
1.423231e+003,8.470448e-003
1.425160e+003,9.201902e-003
1.427088e+003,9.851169e-003
1.429017e+003,1.022847e-002
1.430945e+003,1.066346e-002
1.432874e+003,1.096276e-002
1.434802e+003,1.113875e-002
1.436731e+003,1.148832e-002
1.438659e+003,1.206344e-002
1.440588e+003,1.253632e-002
1.442516e+003,1.310705e-002
1.444445e+003,1.370603e-002
1.446373e+003,1.431985e-002
1.448302e+003,1.490305e-002
1.450230e+003,1.546966e-002
1.452159e+003,1.612318e-002
1.454087e+003,1.680555e-002
1.456016e+003,1.700539e-002
1.457944e+003,1.750555e-002
1.459873e+003,1.813979e-002
1.461801e+003,1.838777e-002
1.463730e+003,1.846663e-002
1.465658e+003,1.864337e-002
1.467587e+003,1.868179e-002
1.469515e+003,1.845062e-002
1.471444e+003,1.817575e-002
1.473372e+003,1.796740e-002
1.475301e+003,1.775103e-002
1.477229e+003,1.734720e-002
1.479158e+003,1.692153e-002
1.481086e+003,1.631390e-002
1.483015e+003,1.566285e-002
1.484943e+003,1.506312e-002
1.486872e+003,1.454476e-002
1.488800e+003,1.408527e-002
1.490729e+003,1.356366e-002
1.492657e+003,1.305675e-002
1.494586e+003,1.254467e-002
1.496514e+003,1.196902e-002
1.498443e+003,1.147431e-002
1.500371e+003,1.098115e-002
1.502300e+003,1.058957e-002
1.504228e+003,1.009575e-002
1.506157e+003,9.525534e-003
1.508085e+003,9.452417e-003
1.510014e+003,9.332084e-003
1.511942e+003,9.079406e-003
1.513871e+003,8.929885e-003
1.515799e+003,8.736194e-003
1.517728e+003,8.701374e-003
1.519656e+003,8.634142e-003
1.521585e+003,8.709453e-003
1.523513e+003,8.989687e-003
1.525442e+003,9.146876e-003
1.527370e+003,9.303919e-003
1.529299e+003,9.507143e-003
1.531227e+003,9.669127e-003
1.533156e+003,9.909132e-003
1.535084e+003,1.045674e-002
1.537013e+003,1.068088e-002
1.538941e+003,1.059626e-002
1.540870e+003,1.085244e-002
1.542798e+003,1.138161e-002
1.544727e+003,1.190441e-002
1.546655e+003,1.234970e-002
1.548584e+003,1.268214e-002
1.550512e+003,1.306973e-002
1.552441e+003,1.324989e-002
1.554369e+003,1.346594e-002
1.556298e+003,1.370313e-002
1.558226e+003,1.384568e-002
1.560155e+003,1.451588e-002
1.562083e+003,1.537179e-002
1.564012e+003,1.590650e-002
1.565940e+003,1.623327e-002
1.567869e+003,1.647859e-002
1.569797e+003,1.680386e-002
1.571726e+003,1.715279e-002
1.573654e+003,1.722032e-002
1.575583e+003,1.714266e-002
1.577511e+003,1.728386e-002
1.579440e+003,1.736207e-002
1.581368e+003,1.735641e-002
1.583297e+003,1.720936e-002
1.585225e+003,1.695360e-002
1.587154e+003,1.671997e-002
1.589082e+003,1.630613e-002
1.591010e+003,1.575529e-002
1.592939e+003,1.524225e-002
1.594868e+003,1.474582e-002
1.596796e+003,1.422127e-002
1.598724e+003,1.368856e-002
1.600653e+003,1.295972e-002
1.602582e+003,1.221711e-002
1.604510e+003,1.170200e-002
1.606438e+003,1.123908e-002
1.608367e+003,1.064919e-002
1.610296e+003,1.026905e-002
1.612224e+003,9.809413e-003
1.614152e+003,9.345050e-003
1.616081e+003,8.828126e-003
1.618010e+003,8.585270e-003
1.619938e+003,8.427237e-003
1.621866e+003,8.225463e-003
1.623795e+003,7.968500e-003
1.625724e+003,7.838895e-003
1.627652e+003,7.728789e-003
1.629580e+003,7.591029e-003
1.631509e+003,7.342562e-003
1.633438e+003,7.132803e-003
1.635366e+003,6.829394e-003
1.637294e+003,6.591253e-003
1.639223e+003,6.319857e-003
1.641151e+003,6.007877e-003
1.643080e+003,5.582060e-003
1.645008e+003,5.014517e-003
1.646937e+003,4.706287e-003
1.648865e+003,4.645130e-003
1.650794e+003,4.196925e-003
1.652722e+003,3.630320e-003
1.654651e+003,3.548100e-003
1.656579e+003,3.455342e-003
1.658508e+003,3.109169e-003
1.660436e+003,2.835003e-003
1.662365e+003,2.563877e-003
1.664293e+003,2.429211e-003
1.666222e+003,2.346052e-003
1.668150e+003,1.982587e-003
1.670079e+003,1.627375e-003
1.672007e+003,1.537354e-003
1.673936e+003,1.266372e-003
1.675864e+003,9.916403e-004
1.677793e+003,8.948113e-004
1.679721e+003,7.525624e-004
1.681650e+003,4.721847e-004
1.683578e+003,1.163823e-004
1.685507e+003,1.301369e-004
1.687435e+003,6.912310e-005
1.689364e+003,-9.071152e-005
1.691292e+003,-7.603596e-005
1.693221e+003,-1.056185e-004
1.695149e+003,-2.024349e-004
1.697078e+003,-9.296416e-005
1.699006e+003,-2.358172e-004
1.700935e+003,-3.110835e-004
1.702863e+003,-1.175437e-004
1.704792e+003,-1.612997e-004
1.706720e+003,-5.036082e-005
1.708649e+003,1.673301e-005
1.710577e+003,1.623571e-006
1.712506e+003,-1.130055e-004
1.714434e+003,-3.402196e-004
1.716363e+003,-5.323695e-004
1.718291e+003,-4.055369e-004
1.720220e+003,-2.528716e-004
1.722148e+003,-3.064480e-004
1.724077e+003,-3.791529e-004
1.726005e+003,-3.306843e-004
1.727934e+003,-3.226388e-004
1.729862e+003,-2.918791e-004
1.731791e+003,-3.531315e-004
1.733719e+003,-5.387565e-004
1.735648e+003,-5.271407e-004
1.737576e+003,-5.118842e-004
1.739505e+003,-4.256631e-004
1.741433e+003,-2.927399e-004
1.743362e+003,-2.820116e-004
1.745290e+003,-1.594117e-004
1.747219e+003,-1.878956e-004
1.749147e+003,-3.403851e-004
1.751076e+003,-4.074238e-004
1.753004e+003,-3.613751e-004
1.754933e+003,-2.685677e-004
1.756861e+003,-2.946273e-004
1.758790e+003,-3.440932e-004
1.760718e+003,-4.202345e-004
1.762647e+003,-4.486350e-004
1.764575e+003,-3.838869e-004
1.766504e+003,-3.928582e-004
1.768432e+003,-3.653148e-004
1.770361e+003,-4.019949e-004
1.772289e+003,-4.908353e-004
1.774218e+003,-4.625367e-004
1.776146e+003,-3.824634e-004
1.778075e+003,-3.660431e-004
1.780003e+003,-3.844497e-004
1.781932e+003,-4.031535e-004
1.783860e+003,-4.180497e-004
1.785789e+003,-4.583001e-004
1.787717e+003,-4.433059e-004
1.789646e+003,-3.646858e-004
1.791574e+003,-4.137795e-004
1.793503e+003,-5.222759e-004
1.795431e+003,-4.816674e-004
1.797360e+003,-4.186455e-004
1.799288e+003,-3.828938e-004
1.801217e+003,-4.459870e-004
1.803145e+003,-4.379106e-004
1.805074e+003,-3.714063e-004
1.807002e+003,-3.568064e-004
1.808931e+003,-4.581346e-004
1.810859e+003,-4.442989e-004
1.812788e+003,-3.946458e-004
1.814716e+003,-4.307939e-004
1.816645e+003,-5.047356e-004
1.818573e+003,-4.932182e-004
1.820502e+003,-4.693550e-004
1.822430e+003,-4.828589e-004
1.824359e+003,-4.789203e-004
1.826287e+003,-4.716057e-004
1.828216e+003,-5.708224e-004
1.830144e+003,-5.901468e-004
1.832073e+003,-4.133161e-004
1.834001e+003,-3.440932e-004
1.835930e+003,-4.253983e-004
1.837858e+003,-4.594916e-004
1.839787e+003,-4.377782e-004
1.841715e+003,-4.673360e-004
1.843644e+003,-6.407701e-004
1.845572e+003,-6.807683e-004
1.847501e+003,-5.684068e-004
1.849429e+003,-4.922915e-004
1.851358e+003,-3.960693e-004
1.853286e+003,-3.652154e-004
1.855215e+003,-3.686585e-004
1.857143e+003,-3.968969e-004
1.859072e+003,-4.416509e-004
1.861000e+003,-5.295566e-004
1.862929e+003,-5.264457e-004
1.864857e+003,-3.508140e-004
1.866786e+003,-3.781267e-004
1.868714e+003,-4.976200e-004
1.870643e+003,-4.616100e-004
1.872571e+003,-3.530322e-004
1.874500e+003,-2.756871e-004
1.876428e+003,-3.211820e-004
1.878357e+003,-3.710421e-004
1.880285e+003,-2.956207e-004
1.882214e+003,-2.634351e-004
1.884142e+003,-3.536612e-004
1.886071e+003,-4.060997e-004
1.887999e+003,-3.804771e-004
1.889928e+003,-4.150705e-004
1.891856e+003,-4.213268e-004
1.893785e+003,-3.058189e-004
1.895713e+003,-1.841531e-004
1.897642e+003,-2.335984e-004
1.899570e+003,-3.103219e-004
1.901499e+003,-2.907201e-004
1.903427e+003,-2.065085e-004
1.905356e+003,-2.739983e-004
1.907284e+003,-2.719122e-004
1.909213e+003,-2.063098e-004
1.911141e+003,-1.586168e-004
1.913070e+003,-1.491770e-004
1.914998e+003,-2.167088e-004
1.916927e+003,-3.426364e-004
1.918855e+003,-2.772434e-004
1.920784e+003,-2.170400e-004
1.922712e+003,-3.087657e-004
1.924641e+003,-2.355854e-004
1.926569e+003,-1.631545e-004
1.928498e+003,-2.140263e-004
1.930426e+003,-2.184309e-004
1.932355e+003,-1.322509e-004
1.934283e+003,-1.526879e-004
1.936212e+003,-2.092573e-004
1.938140e+003,-2.062104e-004
1.940069e+003,-2.279355e-004
1.941997e+003,-2.327705e-004
1.943926e+003,-1.262555e-004
1.945854e+003,-1.546753e-004
1.947783e+003,-2.728062e-004
1.949711e+003,-2.778394e-004
1.951640e+003,-2.162121e-004
1.953568e+003,-1.542116e-004
1.955497e+003,-1.411612e-004
1.957425e+003,-1.907770e-004
1.959354e+003,-2.409833e-004
1.961282e+003,-1.737533e-004
1.963211e+003,-1.069104e-004
1.965139e+003,-1.230424e-004
1.967068e+003,-1.719648e-004
1.968996e+003,-1.572588e-004
1.970925e+003,-9.369296e-005
1.972853e+003,-1.226780e-004
1.974782e+003,-1.398694e-004
1.976710e+003,-1.140324e-004
1.978639e+003,-7.408139e-005
1.980567e+003,-2.309381e-005
1.982496e+003,-3.588268e-005
1.984424e+003,-7.259061e-005
1.986353e+003,-8.004446e-005
1.988281e+003,-5.980282e-005
1.990210e+003,-1.471126e-005
1.992138e+003,3.174357e-005
1.994067e+003,6.842718e-005
1.995995e+003,7.346438e-005
1.997924e+003,1.106487e-004
1.999852e+003,1.899327e-004
2.001781e+003,1.522776e-004
2.003709e+003,5.745823e-005
2.005638e+003,4.238050e-005
2.007566e+003,4.251305e-005
2.009495e+003,-4.638763e-007
2.011423e+003,-5.768253e-005
2.013352e+003,1.167138e-004
2.015280e+003,2.011702e-004
2.017208e+003,1.765741e-004
2.019137e+003,1.727621e-004
2.021066e+003,1.831373e-004
2.022994e+003,2.220548e-004
2.024922e+003,2.399236e-004
2.026851e+003,2.188060e-004
2.028780e+003,1.923857e-004
2.030708e+003,2.364426e-004
2.032636e+003,3.572324e-004
2.034565e+003,3.286815e-004
2.036494e+003,2.879971e-004
2.038422e+003,3.851551e-004
2.040350e+003,4.417356e-004
2.042279e+003,5.115925e-004
2.044208e+003,5.234024e-004
2.046136e+003,4.956034e-004
2.048064e+003,5.344494e-004
2.049993e+003,5.699148e-004
2.051921e+003,5.886937e-004
2.053850e+003,6.438075e-004
2.055778e+003,6.034918e-004
2.057707e+003,5.861389e-004
2.059635e+003,7.997633e-004
2.061564e+003,8.909266e-004
2.063492e+003,7.860539e-004
2.065421e+003,7.321501e-004
2.067349e+003,7.991326e-004
2.069278e+003,8.361799e-004
2.071206e+003,8.158964e-004
2.073135e+003,8.900966e-004
2.075063e+003,9.708182e-004
2.076992e+003,9.812790e-004
2.078920e+003,1.045145e-003
2.080849e+003,1.137821e-003
2.082777e+003,1.198885e-003
2.084706e+003,1.159548e-003
2.086634e+003,1.135396e-003
2.088563e+003,1.193005e-003
2.090491e+003,1.280894e-003
2.092420e+003,1.313330e-003
2.094348e+003,1.299438e-003
2.096277e+003,1.405631e-003
2.098205e+003,1.540114e-003
2.100134e+003,1.514079e-003
2.102062e+003,1.464506e-003
2.103991e+003,1.512516e-003
2.105919e+003,1.556274e-003
2.107848e+003,1.654216e-003
2.109776e+003,1.708334e-003
2.111705e+003,1.716251e-003
2.113633e+003,1.782786e-003
2.115562e+003,1.881444e-003
2.117490e+003,1.874722e-003
2.119419e+003,1.834225e-003
2.121347e+003,1.838884e-003
2.123276e+003,1.910963e-003
2.125204e+003,1.957025e-003
2.127133e+003,1.968275e-003
2.129061e+003,2.023797e-003
2.130990e+003,2.093742e-003
2.132918e+003,2.143620e-003
2.134847e+003,2.131133e-003
2.136775e+003,2.104896e-003
2.138704e+003,2.136294e-003
2.140632e+003,2.228572e-003
2.142561e+003,2.225574e-003
2.144489e+003,2.236065e-003
2.146418e+003,2.365208e-003
2.148346e+003,2.431143e-003
2.150275e+003,2.422414e-003
2.152203e+003,2.489257e-003
2.154132e+003,2.501488e-003
2.156060e+003,2.507120e-003
2.157989e+003,2.430544e-003
2.159917e+003,2.423547e-003
2.161846e+003,2.499621e-003
2.163774e+003,2.568077e-003
2.165703e+003,2.577010e-003
2.167631e+003,2.638043e-003
2.169560e+003,2.733828e-003
2.171488e+003,2.790015e-003
2.173417e+003,2.753868e-003
2.175345e+003,2.661246e-003
2.177274e+003,2.592909e-003
2.179202e+003,2.631510e-003
2.181131e+003,2.683449e-003
2.183059e+003,2.713456e-003
2.184988e+003,2.642744e-003
2.186916e+003,2.657012e-003
2.188845e+003,2.712256e-003
2.190773e+003,2.709755e-003
2.192702e+003,2.736562e-003
2.194630e+003,2.739997e-003
2.196559e+003,2.651545e-003
2.198487e+003,2.634477e-003
2.200416e+003,2.582343e-003
2.202344e+003,2.527282e-003
2.204273e+003,2.585176e-003
2.206201e+003,2.675281e-003
2.208130e+003,2.662613e-003
2.210058e+003,2.592809e-003
2.211987e+003,2.541180e-003
2.213915e+003,2.544213e-003
2.215844e+003,2.450603e-003
2.217772e+003,2.456401e-003
2.219701e+003,2.573977e-003
2.221629e+003,2.548779e-003
2.223558e+003,2.508919e-003
2.225486e+003,2.460366e-003
2.227415e+003,2.470896e-003
2.229343e+003,2.475761e-003
2.231272e+003,2.415583e-003
2.233200e+003,2.360844e-003
2.235129e+003,2.337224e-003
2.237057e+003,2.314839e-003
2.238986e+003,2.315205e-003
2.240914e+003,2.304013e-003
2.242843e+003,2.307677e-003
2.244771e+003,2.263709e-003
2.246700e+003,2.188242e-003
2.248628e+003,2.191605e-003
2.250557e+003,2.236098e-003
2.252485e+003,2.183246e-003
2.254414e+003,2.139624e-003
2.256342e+003,2.082256e-003
2.258271e+003,2.055456e-003
2.260199e+003,2.127837e-003
2.262128e+003,2.160802e-003
2.264056e+003,2.161868e-003
2.265985e+003,2.201462e-003
2.267913e+003,2.060217e-003
2.269842e+003,2.021567e-003
2.271770e+003,2.157472e-003
2.273699e+003,2.130934e-003
2.275627e+003,2.098603e-003
2.277556e+003,2.093742e-003
2.279484e+003,2.038078e-003
2.281413e+003,2.031054e-003
2.283341e+003,1.932229e-003
2.285270e+003,1.848600e-003
2.287198e+003,1.943811e-003
2.289127e+003,2.007852e-003
2.291055e+003,2.036580e-003
2.292984e+003,2.022499e-003
2.294912e+003,1.935724e-003
2.296841e+003,1.947839e-003
2.298769e+003,1.953663e-003
2.300698e+003,1.975065e-003
2.302626e+003,1.921013e-003
2.304555e+003,1.928136e-003
2.306483e+003,2.021434e-003
2.308412e+003,2.115617e-003
2.310340e+003,2.020701e-003
2.312269e+003,1.888932e-003
2.314197e+003,1.860480e-003
2.316125e+003,1.973900e-003
2.318054e+003,1.951167e-003
2.319983e+003,1.894390e-003
2.321911e+003,1.883141e-003
2.323840e+003,1.914457e-003
2.325768e+003,1.834392e-003
2.327697e+003,1.802915e-003
2.329625e+003,1.800753e-003
2.331553e+003,1.717648e-003
2.333482e+003,1.765287e-003
2.335411e+003,1.847103e-003
2.337339e+003,1.843010e-003
2.339268e+003,1.845772e-003
2.341196e+003,1.914391e-003
2.343125e+003,1.992540e-003
2.345053e+003,2.050462e-003
2.346981e+003,2.210854e-003
2.348910e+003,2.266807e-003
2.350839e+003,2.168794e-003
2.352767e+003,2.066542e-003
2.354696e+003,1.972502e-003
2.356624e+003,2.008817e-003
2.358552e+003,2.038544e-003
2.360481e+003,2.002027e-003
2.362409e+003,2.004623e-003
2.364338e+003,2.008917e-003
2.366267e+003,2.189107e-003
2.368195e+003,2.238163e-003
2.370124e+003,2.301381e-003
2.372052e+003,2.500821e-003
2.373980e+003,2.573477e-003
2.375909e+003,2.586176e-003
2.377838e+003,2.819195e-003
2.379766e+003,3.034422e-003
2.381695e+003,2.981940e-003
2.383623e+003,3.006328e-003
2.385552e+003,3.251724e-003
2.387480e+003,3.315858e-003
2.389408e+003,3.429325e-003
2.391337e+003,3.549770e-003
2.393266e+003,3.523380e-003
2.395194e+003,3.601820e-003
2.397123e+003,3.747679e-003
2.399051e+003,3.793168e-003
2.400979e+003,3.784143e-003
2.402908e+003,3.771543e-003
2.404836e+003,3.821112e-003
2.406765e+003,3.851765e-003
2.408694e+003,3.889341e-003
2.410622e+003,3.902781e-003
2.412551e+003,3.882321e-003
2.414479e+003,3.881619e-003
2.416407e+003,3.923142e-003
2.418336e+003,4.002022e-003
2.420264e+003,4.054159e-003
2.422193e+003,4.067069e-003
2.424122e+003,4.119582e-003
2.426050e+003,4.193044e-003
2.427979e+003,4.302491e-003
2.429907e+003,4.407848e-003
2.431835e+003,4.478480e-003
2.433764e+003,4.451431e-003
2.435692e+003,4.499940e-003
2.437621e+003,4.655478e-003
2.439550e+003,4.754054e-003
2.441478e+003,4.679861e-003
2.443406e+003,4.574873e-003
2.445335e+003,4.589004e-003
2.447263e+003,4.618573e-003
2.449192e+003,4.650488e-003
2.451121e+003,4.718077e-003
2.453049e+003,4.786649e-003
2.454978e+003,4.864915e-003
2.456906e+003,4.837373e-003
2.458834e+003,4.887634e-003
2.460763e+003,5.017266e-003
2.462691e+003,5.081091e-003
2.464620e+003,5.126082e-003
2.466549e+003,5.220708e-003
2.468477e+003,5.205282e-003
2.470406e+003,5.216281e-003
2.472334e+003,5.205416e-003
2.474262e+003,5.312971e-003
2.476191e+003,5.426894e-003
2.478119e+003,5.487961e-003
2.480048e+003,5.560816e-003
2.481977e+003,5.551553e-003
2.483905e+003,5.518162e-003
2.485833e+003,5.622841e-003
2.487762e+003,5.726135e-003
2.489690e+003,5.747153e-003
2.491619e+003,5.743661e-003
2.493547e+003,5.881173e-003
2.495476e+003,5.967363e-003
2.497405e+003,5.941397e-003
2.499333e+003,5.978616e-003
2.501261e+003,6.126721e-003
2.503190e+003,6.112708e-003
2.505118e+003,6.037543e-003
2.507047e+003,5.986040e-003
2.508975e+003,6.078871e-003
2.510904e+003,6.191717e-003
2.512833e+003,6.246169e-003
2.514761e+003,6.210170e-003
2.516689e+003,6.187483e-003
2.518618e+003,6.229564e-003
2.520546e+003,6.355058e-003
2.522475e+003,6.397593e-003
2.524403e+003,6.335490e-003
2.526332e+003,6.329170e-003
2.528260e+003,6.437542e-003
2.530189e+003,6.484222e-003
2.532117e+003,6.504704e-003
2.534046e+003,6.483750e-003
2.535974e+003,6.543217e-003
2.537903e+003,6.562390e-003
2.539831e+003,6.485802e-003
2.541760e+003,6.488291e-003
2.543688e+003,6.513819e-003
2.545617e+003,6.521488e-003
2.547545e+003,6.604171e-003
2.549474e+003,6.721530e-003
2.551402e+003,6.676036e-003
2.553331e+003,6.654233e-003
2.555259e+003,6.680713e-003
2.557188e+003,6.697470e-003
2.559116e+003,6.714564e-003
2.561045e+003,6.711232e-003
2.562973e+003,6.722640e-003
2.564902e+003,6.650095e-003
2.566830e+003,6.633138e-003
2.568759e+003,6.734082e-003
2.570687e+003,6.786548e-003
2.572616e+003,6.805766e-003
2.574544e+003,6.810983e-003
2.576473e+003,6.745422e-003
2.578401e+003,6.747711e-003
2.580330e+003,6.803275e-003
2.582258e+003,6.883319e-003
2.584187e+003,6.939204e-003
2.586115e+003,6.896482e-003
2.588044e+003,6.942706e-003
2.589972e+003,7.021631e-003
2.591901e+003,7.029780e-003
2.593829e+003,7.129906e-003
2.595758e+003,7.152407e-003
2.597686e+003,7.124618e-003
2.599615e+003,7.208899e-003
2.601543e+003,7.273687e-003
2.603472e+003,7.143817e-003
2.605400e+003,7.093968e-003
2.607329e+003,7.215233e-003
2.609257e+003,7.371578e-003
2.611186e+003,7.436289e-003
2.613114e+003,7.423245e-003
2.615043e+003,7.410302e-003
2.616971e+003,7.587960e-003
2.618900e+003,7.640361e-003
2.620828e+003,7.586342e-003
2.622757e+003,7.623366e-003
2.624685e+003,7.693949e-003
2.626614e+003,7.667340e-003
2.628542e+003,7.620634e-003
2.630471e+003,7.593659e-003
2.632399e+003,7.705652e-003
2.634328e+003,7.695332e-003
2.636256e+003,7.614936e-003
2.638185e+003,7.699885e-003
2.640113e+003,7.762284e-003
2.642042e+003,7.797332e-003
2.643970e+003,7.796590e-003
2.645899e+003,7.783029e-003
2.647827e+003,7.932763e-003
2.649756e+003,8.020947e-003
2.651684e+003,7.928680e-003
2.653613e+003,7.953685e-003
2.655541e+003,8.092844e-003
2.657470e+003,8.168838e-003
2.659398e+003,8.282770e-003
2.661327e+003,8.346098e-003
2.663255e+003,8.287431e-003
2.665184e+003,8.291923e-003
2.667112e+003,8.357615e-003
2.669041e+003,8.334140e-003
2.670969e+003,8.326069e-003
2.672898e+003,8.415515e-003
2.674826e+003,8.436088e-003
2.676755e+003,8.481632e-003
2.678683e+003,8.538770e-003
2.680612e+003,8.603656e-003
2.682540e+003,8.618932e-003
2.684469e+003,8.642963e-003
2.686397e+003,8.796679e-003
2.688326e+003,8.831643e-003
2.690254e+003,8.770611e-003
2.692183e+003,8.847975e-003
2.694111e+003,8.921904e-003
2.696040e+003,9.031973e-003
2.697968e+003,9.066042e-003
2.699897e+003,9.074094e-003
2.701825e+003,9.096730e-003
2.703754e+003,9.133206e-003
2.705682e+003,9.207351e-003
2.707611e+003,9.387438e-003
2.709539e+003,9.518963e-003
2.711468e+003,9.453840e-003
2.713396e+003,9.407856e-003
2.715325e+003,9.469078e-003
2.717253e+003,9.516592e-003
2.719182e+003,9.519742e-003
2.721110e+003,9.556253e-003
2.723039e+003,9.663469e-003
2.724967e+003,9.754683e-003
2.726896e+003,9.861134e-003
2.728824e+003,9.927302e-003
2.730753e+003,9.929268e-003
2.732681e+003,1.001725e-002
2.734610e+003,1.013526e-002
2.736538e+003,1.027689e-002
2.738467e+003,1.037132e-002
2.740395e+003,1.042704e-002
2.742324e+003,1.047564e-002
2.744252e+003,1.049652e-002
2.746181e+003,1.055440e-002
2.748109e+003,1.075383e-002
2.750038e+003,1.086868e-002
2.751966e+003,1.087982e-002
2.753895e+003,1.099375e-002
2.755823e+003,1.104888e-002
2.757752e+003,1.115514e-002
2.759680e+003,1.135232e-002
2.761609e+003,1.155362e-002
2.763537e+003,1.175306e-002
2.765466e+003,1.187519e-002
2.767394e+003,1.205833e-002
2.769323e+003,1.242072e-002
2.771251e+003,1.275931e-002
2.773180e+003,1.314933e-002
2.775108e+003,1.361963e-002
2.777037e+003,1.403906e-002
2.778965e+003,1.444883e-002
2.780894e+003,1.495024e-002
2.782822e+003,1.549298e-002
2.784750e+003,1.603035e-002
2.786679e+003,1.668778e-002
2.788608e+003,1.731731e-002
2.790536e+003,1.795410e-002
2.792465e+003,1.865177e-002
2.794393e+003,1.926150e-002
2.796322e+003,1.972966e-002
2.798250e+003,2.030997e-002
2.800178e+003,2.103262e-002
2.802107e+003,2.165852e-002
2.804036e+003,2.218677e-002
2.805964e+003,2.274799e-002
2.807893e+003,2.308691e-002
2.809821e+003,2.324817e-002
2.811750e+003,2.341130e-002
2.813678e+003,2.351161e-002
2.815606e+003,2.349206e-002
2.817535e+003,2.340543e-002
2.819464e+003,2.327855e-002
2.821392e+003,2.312297e-002
2.823321e+003,2.296428e-002
2.825249e+003,2.264511e-002
2.827177e+003,2.230015e-002
2.829106e+003,2.208220e-002
2.831034e+003,2.172316e-002
2.832963e+003,2.136077e-002
2.834892e+003,2.093521e-002
2.836820e+003,2.034132e-002
2.838749e+003,1.987403e-002
2.840677e+003,1.949221e-002
2.842605e+003,1.895255e-002
2.844534e+003,1.835047e-002
2.846462e+003,1.782393e-002
2.848391e+003,1.736141e-002
2.850320e+003,1.696036e-002
2.852248e+003,1.664966e-002
2.854177e+003,1.636276e-002
2.856105e+003,1.604475e-002
2.858033e+003,1.588601e-002
2.859962e+003,1.581298e-002
2.861890e+003,1.571870e-002
2.863819e+003,1.556564e-002
2.865748e+003,1.553625e-002
2.867676e+003,1.563444e-002
2.869604e+003,1.567404e-002
2.871533e+003,1.559868e-002
2.873461e+003,1.561606e-002
2.875390e+003,1.570874e-002
2.877319e+003,1.578361e-002
2.879247e+003,1.595407e-002
2.881176e+003,1.602358e-002
2.883104e+003,1.605266e-002
2.885032e+003,1.603860e-002
2.886961e+003,1.611483e-002
2.888889e+003,1.605273e-002
2.890818e+003,1.596159e-002
2.892747e+003,1.581171e-002
2.894675e+003,1.574780e-002
2.896604e+003,1.586955e-002
2.898532e+003,1.593509e-002
2.900460e+003,1.581597e-002
2.902389e+003,1.560414e-002
2.904317e+003,1.552972e-002
2.906246e+003,1.559123e-002
2.908175e+003,1.552838e-002
2.910103e+003,1.539750e-002
2.912031e+003,1.542149e-002
2.913960e+003,1.550445e-002
2.915888e+003,1.545535e-002
2.917817e+003,1.535630e-002
2.919745e+003,1.528155e-002
2.921674e+003,1.536938e-002
2.923603e+003,1.545006e-002
2.925531e+003,1.555864e-002
2.927459e+003,1.569002e-002
2.929388e+003,1.584323e-002
2.931316e+003,1.611304e-002
2.933245e+003,1.619379e-002
2.935173e+003,1.623420e-002
2.937102e+003,1.633248e-002
2.939031e+003,1.626031e-002
2.940959e+003,1.620084e-002
2.942887e+003,1.604252e-002
2.944816e+003,1.593956e-002
2.946744e+003,1.576251e-002
2.948673e+003,1.546462e-002
2.950601e+003,1.517016e-002
2.952530e+003,1.479927e-002
2.954458e+003,1.435796e-002
2.956387e+003,1.394801e-002
2.958315e+003,1.346843e-002
2.960244e+003,1.295423e-002
2.962172e+003,1.242239e-002
2.964101e+003,1.204079e-002
2.966029e+003,1.162185e-002
2.967958e+003,1.097625e-002
2.969886e+003,1.043132e-002
2.971815e+003,9.885437e-003
2.973743e+003,9.462746e-003
2.975672e+003,9.149482e-003
2.977600e+003,8.820315e-003
2.979529e+003,8.630254e-003
2.981457e+003,8.301919e-003
2.983386e+003,8.018010e-003
2.985314e+003,7.715197e-003
2.987243e+003,7.417549e-003
2.989171e+003,7.198927e-003
2.991100e+003,7.088513e-003
2.993028e+003,6.973546e-003
2.994957e+003,6.894698e-003
2.996885e+003,6.776620e-003
2.998814e+003,6.637343e-003
3.000742e+003,6.530738e-003
3.002671e+003,6.384042e-003
3.004599e+003,6.300694e-003
3.006528e+003,6.283381e-003
3.008456e+003,6.087943e-003
3.010385e+003,5.962324e-003
3.012313e+003,6.096881e-003
3.014242e+003,6.119698e-003
3.016170e+003,6.046279e-003
3.018099e+003,6.059886e-003
3.020027e+003,6.120235e-003
3.021956e+003,5.991550e-003
3.023884e+003,5.892660e-003
3.025813e+003,5.794967e-003
3.027741e+003,5.675710e-003
3.029670e+003,5.702063e-003
3.031598e+003,5.696390e-003
3.033527e+003,5.635562e-003
3.035455e+003,5.627943e-003
3.037384e+003,5.577563e-003
3.039312e+003,5.451353e-003
3.041241e+003,5.318740e-003
3.043169e+003,5.189152e-003
3.045098e+003,5.213531e-003
3.047026e+003,5.273729e-003
3.048955e+003,5.209306e-003
3.050883e+003,5.094467e-003
3.052812e+003,4.952177e-003
3.054740e+003,4.888706e-003
3.056669e+003,4.891655e-003
3.058597e+003,4.762194e-003
3.060526e+003,4.644158e-003
3.062454e+003,4.724341e-003
3.064383e+003,4.793886e-003
3.066311e+003,4.721394e-003
3.068240e+003,4.631231e-003
3.070168e+003,4.491135e-003
3.072097e+003,4.382745e-003
3.074025e+003,4.392150e-003
3.075954e+003,4.464319e-003
3.077882e+003,4.390677e-003
3.079811e+003,4.205055e-003
3.081739e+003,4.151127e-003
3.083668e+003,4.157918e-003
3.085596e+003,4.124332e-003
3.087525e+003,4.042487e-003
3.089453e+003,4.037772e-003
3.091382e+003,3.989415e-003
3.093310e+003,3.832477e-003
3.095239e+003,3.828499e-003
3.097167e+003,3.877540e-003
3.099096e+003,3.804833e-003
3.101024e+003,3.667409e-003
3.102953e+003,3.534638e-003
3.104881e+003,3.485702e-003
3.106810e+003,3.519639e-003
3.108738e+003,3.581441e-003
3.110667e+003,3.528291e-003
3.112595e+003,3.384843e-003
3.114524e+003,3.398434e-003
3.116452e+003,3.430761e-003
3.118381e+003,3.352086e-003
3.120309e+003,3.188301e-003
3.122238e+003,3.062684e-003
3.124166e+003,2.991815e-003
3.126095e+003,3.042697e-003
3.128023e+003,3.160265e-003
3.129952e+003,3.186365e-003
3.131880e+003,3.059914e-003
3.133809e+003,3.003192e-003
3.135737e+003,2.910350e-003
3.137666e+003,2.980872e-003
3.139594e+003,3.098256e-003
3.141523e+003,3.008063e-003
3.143451e+003,2.900043e-003
3.145380e+003,2.932566e-003
3.147308e+003,2.884666e-003
3.149237e+003,2.750467e-003
3.151165e+003,2.705887e-003
3.153094e+003,2.662846e-003
3.155022e+003,2.717790e-003
3.156951e+003,2.827566e-003
3.158879e+003,2.829467e-003
3.160808e+003,2.926028e-003
3.162736e+003,2.947244e-003
3.164665e+003,2.827666e-003
3.166593e+003,2.709988e-003
3.168522e+003,2.749667e-003
3.170450e+003,2.881364e-003
3.172379e+003,2.990847e-003
3.174307e+003,2.952015e-003
3.176236e+003,2.872692e-003
3.178164e+003,2.787281e-003
3.180093e+003,2.759870e-003
3.182021e+003,2.734928e-003
3.183950e+003,2.725359e-003
3.185878e+003,2.675615e-003
3.187807e+003,2.629143e-003
3.189735e+003,2.595909e-003
3.191664e+003,2.480260e-003
3.193592e+003,2.505820e-003
3.195521e+003,2.530315e-003
3.197449e+003,2.604442e-003
3.199378e+003,2.746265e-003
3.201306e+003,2.816094e-003
3.203235e+003,2.725459e-003
3.205163e+003,2.723458e-003
3.207092e+003,2.820463e-003
3.209020e+003,2.927162e-003
3.210948e+003,2.991681e-003
3.212877e+003,2.962690e-003
3.214806e+003,2.910116e-003
3.216734e+003,2.894339e-003
3.218663e+003,2.812826e-003
3.220591e+003,2.926929e-003
3.222520e+003,3.231061e-003
3.224448e+003,3.227656e-003
3.226376e+003,3.164537e-003
3.228305e+003,3.348780e-003
3.230234e+003,3.467800e-003
3.232162e+003,3.477987e-003
3.234091e+003,3.495055e-003
3.236019e+003,3.535941e-003
3.237948e+003,3.584113e-003
3.239876e+003,3.759711e-003
3.241804e+003,3.923878e-003
3.243733e+003,3.858083e-003
3.245662e+003,3.939191e-003
3.247590e+003,4.021084e-003
3.249519e+003,4.061651e-003
3.251447e+003,4.036200e-003
3.253375e+003,4.053825e-003
3.255304e+003,4.171500e-003
3.257232e+003,4.430945e-003
3.259161e+003,4.600690e-003
3.261090e+003,4.558767e-003
3.263018e+003,4.437104e-003
3.264947e+003,4.468403e-003
3.266875e+003,4.479853e-003
3.268803e+003,4.582541e-003
3.270732e+003,4.747421e-003
3.272660e+003,4.957841e-003
3.274589e+003,5.052429e-003
3.276518e+003,5.035970e-003
3.278446e+003,5.039054e-003
3.280375e+003,5.020853e-003
3.282303e+003,5.109453e-003
3.284231e+003,5.054139e-003
3.286160e+003,4.953819e-003
3.288088e+003,4.930527e-003
3.290017e+003,4.798777e-003
3.291946e+003,4.735328e-003
3.293874e+003,4.687564e-003
3.295802e+003,4.622825e-003
3.297731e+003,4.537170e-003
3.299659e+003,4.438141e-003
3.301588e+003,4.307578e-003
3.303516e+003,4.279502e-003
3.305445e+003,4.307879e-003
3.307374e+003,4.077504e-003
3.309302e+003,3.742165e-003
3.311230e+003,3.644888e-003
3.313159e+003,3.556886e-003
3.315087e+003,3.354056e-003
3.317016e+003,3.203989e-003
3.318944e+003,3.098690e-003
3.320873e+003,3.073329e-003
3.322802e+003,2.804888e-003
3.324730e+003,2.548646e-003
3.326658e+003,2.547013e-003
3.328587e+003,2.685917e-003
3.330515e+003,2.687750e-003
3.332444e+003,2.507520e-003
3.334372e+003,2.287824e-003
3.336301e+003,2.194403e-003
3.338229e+003,2.284060e-003
3.340158e+003,2.316837e-003
3.342086e+003,2.144752e-003
3.344015e+003,2.099070e-003
3.345943e+003,1.988912e-003
3.347872e+003,1.800154e-003
3.349800e+003,1.841446e-003
3.351729e+003,1.754075e-003
3.353657e+003,1.558369e-003
3.355586e+003,1.515542e-003
3.357514e+003,1.411183e-003
3.359443e+003,1.384657e-003
3.361371e+003,1.397388e-003
3.363300e+003,1.203504e-003
3.365229e+003,9.908765e-004
3.367157e+003,9.058347e-004
3.369085e+003,7.283333e-004
3.371014e+003,6.340849e-004
3.372942e+003,5.676587e-004
3.374871e+003,4.534440e-004
3.376799e+003,4.107912e-004
3.378728e+003,3.145891e-004
3.380656e+003,1.578793e-004
3.382585e+003,-6.997345e-005
3.384513e+003,-2.675743e-004
3.386442e+003,-3.073089e-004
3.388370e+003,-2.107145e-004
3.390299e+003,-2.965478e-004
3.392227e+003,-4.496611e-004
3.394156e+003,-5.244601e-004
3.396084e+003,-5.700944e-004
3.398013e+003,-5.587111e-004
3.399941e+003,-4.369506e-004
3.401870e+003,-5.096999e-004
3.403798e+003,-6.046396e-004
3.405727e+003,-6.858629e-004
3.407655e+003,-7.472914e-004
3.409584e+003,-6.992939e-004
3.411512e+003,-7.319102e-004
3.413441e+003,-9.447497e-004
3.415369e+003,-9.904720e-004
3.417298e+003,-9.994970e-004
3.419226e+003,-1.030802e-003
3.421155e+003,-1.036388e-003
3.423083e+003,-8.898302e-004
3.425012e+003,-9.017669e-004
3.426940e+003,-1.164127e-003
3.428869e+003,-1.209727e-003
3.430797e+003,-1.186498e-003
3.432726e+003,-1.304283e-003
3.434654e+003,-1.486431e-003
3.436583e+003,-1.503337e-003
3.438511e+003,-1.341908e-003
3.440440e+003,-1.310526e-003
3.442368e+003,-1.399842e-003
3.444297e+003,-1.424017e-003
3.446225e+003,-1.456282e-003
3.448154e+003,-1.497658e-003
3.450082e+003,-1.523974e-003
3.452011e+003,-1.623083e-003
3.453939e+003,-1.758998e-003
3.455868e+003,-1.898401e-003
3.457796e+003,-1.861715e-003
3.459725e+003,-1.776917e-003
3.461653e+003,-1.680781e-003
3.463582e+003,-1.699396e-003
3.465510e+003,-1.875110e-003
3.467439e+003,-1.958009e-003
3.469367e+003,-2.017477e-003
3.471296e+003,-2.081059e-003
3.473224e+003,-1.998249e-003
3.475153e+003,-1.960318e-003
3.477081e+003,-2.025656e-003
3.479010e+003,-2.096359e-003
3.480938e+003,-1.968136e-003
3.482867e+003,-1.973908e-003
3.484795e+003,-2.034693e-003
3.486724e+003,-2.015234e-003
3.488652e+003,-1.950588e-003
3.490581e+003,-2.050588e-003
3.492509e+003,-2.234369e-003
3.494438e+003,-1.934589e-003
3.496366e+003,-1.484251e-003
3.498295e+003,-1.678966e-003
3.500223e+003,-2.110835e-003
3.502152e+003,-2.241258e-003
3.504080e+003,-2.319638e-003
3.506009e+003,-2.296205e-003
3.507937e+003,-2.123727e-003
3.509866e+003,-1.982780e-003
3.511794e+003,-2.007418e-003
3.513723e+003,-2.184491e-003
3.515651e+003,-2.426539e-003
3.517580e+003,-2.493916e-003
3.519508e+003,-2.525113e-003
3.521437e+003,-2.442289e-003
3.523365e+003,-2.366402e-003
3.525294e+003,-2.314958e-003
3.527222e+003,-2.350650e-003
3.529151e+003,-2.224776e-003
3.531079e+003,-2.188513e-003
3.533008e+003,-2.251938e-003
3.534936e+003,-2.288426e-003
3.536865e+003,-2.200777e-003
3.538793e+003,-2.041750e-003
3.540722e+003,-1.941879e-003
3.542650e+003,-2.111197e-003
3.544579e+003,-2.185414e-003
3.546507e+003,-2.233281e-003
3.548436e+003,-2.405550e-003
3.550364e+003,-2.440839e-003
3.552293e+003,-2.450361e-003
3.554221e+003,-2.453886e-003
3.556150e+003,-2.406604e-003
3.558078e+003,-2.342938e-003
3.560007e+003,-2.320165e-003
3.561935e+003,-2.276231e-003
3.563864e+003,-2.471677e-003
3.565792e+003,-2.629757e-003
3.567721e+003,-2.545701e-003
3.569649e+003,-2.642304e-003
3.571578e+003,-2.789358e-003
3.573506e+003,-2.533348e-003
3.575435e+003,-2.346893e-003
3.577363e+003,-2.417313e-003
3.579292e+003,-2.495266e-003
3.581220e+003,-2.607065e-003
3.583149e+003,-2.845256e-003
3.585077e+003,-2.868594e-003
3.587006e+003,-2.927049e-003
3.588934e+003,-2.771021e-003
3.590863e+003,-2.626200e-003
3.592791e+003,-2.719032e-003
3.594720e+003,-2.738919e-003
3.596648e+003,-2.540035e-003
3.598577e+003,-2.489863e-003
3.600505e+003,-2.608020e-003
3.602434e+003,-2.735791e-003
3.604362e+003,-2.734672e-003
3.606291e+003,-2.854572e-003
3.608219e+003,-2.958709e-003
3.610148e+003,-2.836401e-003
3.612076e+003,-2.747151e-003
3.614005e+003,-2.771021e-003
3.615933e+003,-2.989247e-003
3.617862e+003,-2.980362e-003
3.619790e+003,-2.723872e-003
3.621719e+003,-2.663447e-003
3.623647e+003,-2.782807e-003
3.625576e+003,-2.932907e-003
3.627504e+003,-2.943373e-003
3.629433e+003,-2.817835e-003
3.631361e+003,-2.785902e-003
3.633290e+003,-2.883637e-003
3.635218e+003,-3.034228e-003
3.637146e+003,-3.117005e-003
3.639075e+003,-3.081574e-003
3.641004e+003,-2.861616e-003
3.642932e+003,-2.853486e-003
3.644861e+003,-3.284781e-003
3.646789e+003,-3.391609e-003
3.648718e+003,-3.335058e-003
3.650646e+003,-3.081475e-003
3.652574e+003,-2.964172e-003
3.654503e+003,-3.128355e-003
3.656432e+003,-3.125855e-003
3.658360e+003,-3.264853e-003
3.660289e+003,-3.328778e-003
3.662217e+003,-3.408606e-003
3.664146e+003,-3.418830e-003
3.666074e+003,-3.515272e-003
3.668002e+003,-3.662458e-003
3.669931e+003,-3.605055e-003
3.671860e+003,-3.803124e-003
3.673788e+003,-3.983144e-003
3.675717e+003,-3.585996e-003
3.677645e+003,-3.407620e-003
3.679573e+003,-3.607060e-003
3.681502e+003,-3.549420e-003
3.683430e+003,-3.344133e-003
3.685359e+003,-3.286129e-003
3.687288e+003,-3.347619e-003
3.689216e+003,-3.094536e-003
3.691145e+003,-3.067657e-003
3.693073e+003,-3.196839e-003
3.695001e+003,-3.383686e-003
3.696930e+003,-3.429580e-003
3.698858e+003,-3.459559e-003
3.700787e+003,-3.324766e-003
3.702716e+003,-2.929748e-003
3.704644e+003,-2.875507e-003
3.706573e+003,-3.232689e-003
3.708501e+003,-3.232229e-003
3.710429e+003,-3.043507e-003
3.712358e+003,-2.849470e-003
3.714286e+003,-2.887850e-003
3.716215e+003,-3.094997e-003
3.718144e+003,-3.128716e-003
3.720072e+003,-3.014091e-003
3.722000e+003,-2.987437e-003
3.723929e+003,-3.094997e-003
3.725857e+003,-3.079106e-003
3.727786e+003,-2.987075e-003
3.729714e+003,-3.208186e-003
3.731643e+003,-3.415970e-003
3.733572e+003,-3.533677e-003
3.735500e+003,-3.418534e-003
3.737428e+003,-3.101544e-003
3.739357e+003,-2.962888e-003
3.741285e+003,-2.835447e-003
3.743214e+003,-2.899172e-003
3.745142e+003,-2.506039e-003
3.747071e+003,-2.602947e-003
3.749000e+003,-2.770988e-003
3.750928e+003,-2.493421e-003
3.752856e+003,-2.177799e-003
3.754785e+003,-2.169457e-003
3.756713e+003,-2.203711e-003
3.758642e+003,-2.203052e-003
3.760570e+003,-2.137246e-003
3.762499e+003,-2.175392e-003
3.764427e+003,-2.283647e-003
3.766356e+003,-2.274418e-003
3.768284e+003,-2.167348e-003
3.770213e+003,-2.003955e-003
3.772141e+003,-1.999008e-003
3.774070e+003,-1.966289e-003
3.775998e+003,-1.953655e-003
3.777927e+003,-2.151127e-003
3.779855e+003,-2.232753e-003
3.781784e+003,-2.139883e-003
3.783712e+003,-2.151028e-003
3.785641e+003,-2.163490e-003
3.787569e+003,-2.223194e-003
3.789498e+003,-2.318715e-003
3.791426e+003,-2.337369e-003
3.793355e+003,-2.334238e-003
3.795283e+003,-2.165139e-003
3.797212e+003,-2.228270e-003
3.799140e+003,-2.587401e-003
3.801069e+003,-2.566617e-003
3.802997e+003,-2.204173e-003
3.804926e+003,-2.240038e-003
3.806854e+003,-2.144268e-003
3.808783e+003,-2.294062e-003
3.810711e+003,-2.313145e-003
3.812640e+003,-2.299468e-003
3.814568e+003,-2.538520e-003
3.816497e+003,-2.242082e-003
3.818425e+003,-2.126695e-003
3.820354e+003,-2.004944e-003
3.822282e+003,-1.840534e-003
3.824211e+003,-2.270100e-003
3.826139e+003,-2.523993e-003
3.828068e+003,-2.243104e-003
3.829996e+003,-2.122276e-003
3.831925e+003,-2.021633e-003
3.833853e+003,-2.050028e-003
3.835782e+003,-2.351573e-003
3.837710e+003,-2.295809e-003
3.839639e+003,-2.111758e-003
3.841567e+003,-2.021039e-003
3.843496e+003,-2.148753e-003
3.845424e+003,-2.254641e-003
3.847353e+003,-2.276396e-003
3.849281e+003,-2.153863e-003
3.851210e+003,-2.198964e-003
3.853138e+003,-2.079806e-003
3.855067e+003,-1.770449e-003
3.856995e+003,-1.944452e-003
3.858924e+003,-2.230512e-003
3.860852e+003,-2.286778e-003
3.862781e+003,-2.114693e-003
3.864709e+003,-2.073013e-003
3.866638e+003,-2.196557e-003
3.868566e+003,-2.335985e-003
3.870495e+003,-1.940527e-003
3.872423e+003,-1.941088e-003
3.874352e+003,-2.066780e-003
3.876280e+003,-2.189601e-003
3.878209e+003,-2.185579e-003
3.880137e+003,-1.920108e-003
3.882066e+003,-1.942341e-003
3.883994e+003,-2.189436e-003
3.885923e+003,-1.824037e-003
3.887851e+003,-1.784078e-003
3.889780e+003,-2.046169e-003
3.891708e+003,-2.123859e-003
3.893637e+003,-2.198140e-003
3.895565e+003,-2.218875e-003
3.897494e+003,-2.233116e-003
3.899422e+003,-2.020445e-003
3.901351e+003,-1.920306e-003
3.903279e+003,-2.001086e-003
3.905208e+003,-1.991026e-003
3.907136e+003,-1.920570e-003
3.909065e+003,-1.776191e-003
3.910993e+003,-1.852082e-003
3.912922e+003,-2.043597e-003
3.914850e+003,-1.976909e-003
3.916779e+003,-2.005307e-003
3.918707e+003,-2.119540e-003
3.920636e+003,-2.173183e-003
3.922564e+003,-2.294194e-003
3.924493e+003,-2.098568e-003
3.926421e+003,-2.111033e-003
3.928350e+003,-2.248279e-003
3.930278e+003,-2.125310e-003
3.932207e+003,-1.880158e-003
3.934135e+003,-1.567919e-003
3.936064e+003,-1.456579e-003
3.937992e+003,-1.597895e-003
3.939921e+003,-1.956723e-003
3.941849e+003,-2.038749e-003
3.943778e+003,-1.898302e-003
3.945706e+003,-1.873395e-003
3.947635e+003,-1.828194e-003
3.949563e+003,-1.808727e-003
3.951492e+003,-1.830570e-003
3.953420e+003,-1.735304e-003
3.955349e+003,-1.586439e-003
3.957277e+003,-1.542893e-003
3.959206e+003,-1.647972e-003
3.961134e+003,-1.807374e-003
3.963063e+003,-1.793911e-003
3.964991e+003,-1.957317e-003
3.966920e+003,-2.012893e-003
3.968848e+003,-1.896752e-003
3.970777e+003,-1.771538e-003
3.972705e+003,-1.646882e-003
3.974634e+003,-1.662198e-003
3.976562e+003,-1.524139e-003
3.978491e+003,-1.544444e-003
3.980419e+003,-1.627902e-003
3.982348e+003,-1.690055e-003
3.984276e+003,-1.744247e-003
3.986205e+003,-2.029284e-003
3.988133e+003,-1.943727e-003
3.990062e+003,-1.673519e-003
3.991990e+003,-1.575875e-003
3.993919e+003,-1.538568e-003
3.995847e+003,-1.614929e-003
3.997776e+003,-1.683421e-003
3.999704e+003,-1.805625e-003
4.001633e+003,0.000000e+000
