3.991989e+002,-8.157119e-003
4.011274e+002,-4.803766e-004
4.030559e+002,-1.540648e-003
4.049844e+002,-6.799246e-003
4.069129e+002,-6.859979e-003
4.088414e+002,-1.688207e-003
4.107699e+002,-3.696693e-003
4.126984e+002,-6.807792e-003
4.146269e+002,4.416116e-003
4.165554e+002,1.098876e-002
4.184839e+002,4.579226e-003
4.204124e+002,2.425758e-004
4.223409e+002,-2.153500e-003
4.242694e+002,-4.834287e-003
4.261979e+002,-1.435378e-003
4.281264e+002,-3.174210e-003
4.300549e+002,-1.427040e-002
4.319834e+002,-7.270438e-003
4.339119e+002,-2.691602e-003
4.358404e+002,-8.565802e-003
4.377689e+002,-4.256300e-004
4.396974e+002,3.111605e-003
4.416259e+002,-2.523070e-003
4.435544e+002,-1.880949e-003
4.454829e+002,1.244573e-003
4.474114e+002,3.224652e-003
4.493399e+002,4.374411e-003
4.512684e+002,-2.749917e-004
4.531969e+002,-2.543560e-003
4.551254e+002,-3.623683e-004
4.570539e+002,1.547296e-003
4.589824e+002,3.868796e-004
4.609109e+002,-2.597085e-003
4.628394e+002,-1.853203e-003
4.647679e+002,-1.553959e-005
4.666964e+002,1.118852e-003
4.686249e+002,-2.225706e-004
4.705533e+002,5.275823e-004
4.724819e+002,3.812419e-004
4.744103e+002,-8.286533e-004
4.763389e+002,1.952066e-003
4.782673e+002,1.680259e-003
4.801959e+002,-5.084754e-004
4.821243e+002,1.782088e-003
4.840529e+002,3.324739e-003
4.859813e+002,1.594550e-003
4.879099e+002,8.398981e-004
4.898383e+002,-5.620864e-004
4.917668e+002,-1.017844e-003
4.936953e+002,-3.163149e-004
4.956238e+002,-1.357366e-003
4.975523e+002,-2.555188e-003
4.994808e+002,-1.842019e-003
5.014093e+002,-1.211082e-003
5.033378e+002,-2.670445e-004
5.052663e+002,1.890396e-003
5.071948e+002,2.532182e-003
5.091233e+002,7.387550e-004
5.110518e+002,-2.988656e-004
5.129803e+002,-1.520474e-003
5.149088e+002,-1.979317e-003
5.168373e+002,-9.794965e-004
5.187658e+002,4.722511e-004
5.206943e+002,6.708194e-004
5.226228e+002,-7.137168e-004
5.245513e+002,-1.605488e-003
5.264798e+002,-8.655258e-004
5.284083e+002,9.049849e-005
5.303368e+002,8.411928e-004
5.322653e+002,2.631971e-004
5.341938e+002,-9.790998e-004
5.361223e+002,-1.344286e-003
5.380508e+002,-1.066004e-003
5.399792e+002,6.802951e-005
5.419078e+002,4.791173e-004
5.438363e+002,-1.064797e-004
5.457648e+002,-4.314559e-004
5.476932e+002,-2.046268e-003
5.496218e+002,-1.251688e-003
5.515503e+002,-1.358946e-004
5.534788e+002,-3.943810e-004
5.554072e+002,-5.707231e-004
5.573358e+002,-9.947035e-004
5.592643e+002,-1.022472e-003
5.611927e+002,5.521983e-004
5.631212e+002,3.624719e-004
5.650497e+002,-5.968308e-004
5.669783e+002,-8.803070e-004
5.689067e+002,2.025625e-004
5.708352e+002,8.530779e-004
5.727637e+002,-6.201906e-004
5.746923e+002,-2.323922e-003
5.766207e+002,-1.624205e-003
5.785492e+002,1.341547e-003
5.804777e+002,1.344024e-002
5.824063e+002,1.070896e-002
5.843347e+002,-3.220097e-004
5.862632e+002,1.544074e-005
5.881917e+002,3.850346e-005
5.901202e+002,9.615532e-004
5.920487e+002,9.220049e-004
5.939772e+002,-1.424710e-003
5.959057e+002,-2.453821e-003
5.978342e+002,-3.802454e-004
5.997627e+002,-8.604058e-005
6.016912e+002,2.062752e-004
6.036197e+002,-1.290936e-003
6.055482e+002,-7.969041e-004
6.074767e+002,-9.912986e-004
6.094052e+002,-1.277854e-003
6.113337e+002,-9.103969e-004
6.132622e+002,3.647933e-004
6.151907e+002,1.729941e-004
6.171192e+002,6.555213e-004
6.190477e+002,3.220165e-004
6.209762e+002,5.395252e-004
6.229047e+002,-2.781706e-004
6.248332e+002,3.464883e-004
6.267617e+002,2.334921e-004
6.286902e+002,-7.153050e-005
6.306187e+002,-1.738195e-004
6.325472e+002,-4.423791e-004
6.344756e+002,-6.135402e-004
6.364042e+002,7.485625e-005
6.383326e+002,6.584233e-005
6.402612e+002,-4.002073e-004
6.421896e+002,-5.234673e-004
6.441182e+002,-2.579713e-004
6.460466e+002,-6.630690e-004
6.479752e+002,-4.732937e-004
6.499036e+002,3.486769e-004
6.518322e+002,2.010708e-004
6.537606e+002,-5.681420e-004
6.556891e+002,-5.374328e-004
6.576177e+002,-4.437031e-004
6.595461e+002,-3.302870e-004
6.614746e+002,-3.436959e-004
6.634031e+002,-7.428016e-005
6.653317e+002,-6.100660e-004
6.672601e+002,-1.151272e-003
6.691886e+002,-9.497090e-004
6.711171e+002,-4.778943e-004
6.730457e+002,-3.859394e-004
6.749741e+002,-2.116418e-004
6.769026e+002,1.254636e-004
6.788311e+002,4.570926e-004
6.807596e+002,-7.076854e-005
6.826881e+002,-7.262208e-004
6.846166e+002,-7.085564e-004
6.865451e+002,-9.836382e-005
6.884736e+002,4.671925e-006
6.904021e+002,-2.907533e-004
6.923306e+002,-3.923617e-004
6.942591e+002,-4.006376e-004
6.961876e+002,-3.693537e-004
6.981161e+002,8.668730e-005
7.000446e+002,-2.942203e-005
7.019731e+002,-6.238691e-005
7.039016e+002,9.741517e-006
7.058301e+002,-1.362258e-004
7.077585e+002,-5.422974e-004
7.096871e+002,-4.790527e-004
7.116156e+002,-6.141026e-004
7.135441e+002,-3.892168e-004
7.154725e+002,-4.193076e-004
7.174011e+002,-1.292226e-006
7.193296e+002,2.656837e-004
7.212581e+002,3.691289e-005
7.231865e+002,-1.770653e-004
7.251151e+002,8.927227e-005
7.270436e+002,-5.258832e-004
7.289720e+002,-8.028242e-004
7.309005e+002,-8.043456e-004
7.328290e+002,-5.414039e-004
7.347576e+002,-6.981030e-004
7.366860e+002,-5.329321e-004
7.386145e+002,1.745852e-004
7.405430e+002,-2.390626e-004
7.424716e+002,-9.033210e-004
7.444000e+002,-4.767690e-004
7.463285e+002,-2.503880e-004
7.482570e+002,-5.179736e-004
7.501855e+002,-6.222089e-004
7.521140e+002,-5.274619e-005
7.540425e+002,2.547098e-004
7.559710e+002,2.241765e-004
7.578995e+002,-5.309465e-004
7.598280e+002,-5.770765e-004
7.617565e+002,-1.664666e-004
7.636850e+002,2.209940e-004
7.656135e+002,4.069109e-004
7.675420e+002,-2.245245e-004
7.694705e+002,-6.550958e-004
7.713990e+002,-6.176761e-004
7.733275e+002,-6.637307e-004
7.752560e+002,-6.606208e-004
7.771844e+002,-6.198928e-004
7.791130e+002,-4.299663e-004
7.810415e+002,-6.897665e-004
7.829700e+002,-7.194396e-004
7.848984e+002,-4.044445e-004
7.868270e+002,-1.166303e-005
7.887555e+002,-2.528385e-004
7.906840e+002,-4.840613e-005
7.926124e+002,6.179938e-005
7.945410e+002,8.217319e-006
7.964695e+002,-8.763069e-005
7.983979e+002,-1.704081e-004
8.003264e+002,-1.150262e-004
8.022549e+002,-1.135355e-004
8.041835e+002,-4.540634e-004
8.061119e+002,-3.725981e-004
8.080404e+002,-4.918281e-004
8.099689e+002,-5.949778e-004
8.118975e+002,-6.099998e-004
8.138259e+002,-4.781260e-004
8.157545e+002,-5.229378e-004
8.176830e+002,-4.030542e-004
8.196115e+002,-1.953475e-004
8.215399e+002,-2.230342e-004
8.234684e+002,-1.045253e-004
8.253970e+002,-1.945526e-004
8.273254e+002,-2.853229e-004
8.292539e+002,3.247257e-005
8.311824e+002,-1.285411e-004
8.331110e+002,-3.445567e-004
8.350394e+002,-3.724326e-004
8.369679e+002,-5.001022e-004
8.388964e+002,-5.559976e-004
8.408250e+002,-3.989824e-004
8.427534e+002,-5.434557e-004
8.446819e+002,-4.739226e-004
8.466104e+002,-2.727400e-004
8.485389e+002,-1.582856e-004
8.504674e+002,8.780609e-006
8.523959e+002,-1.033328e-004
8.543244e+002,-2.856209e-004
8.562529e+002,-2.329030e-004
8.581814e+002,-3.521714e-004
8.601099e+002,-4.075296e-005
8.620384e+002,-9.515054e-005
8.639669e+002,-2.122048e-004
8.658954e+002,-2.202855e-004
8.678239e+002,-2.734685e-004
8.697524e+002,-3.185001e-004
8.716809e+002,-1.717329e-004
8.736094e+002,-1.080367e-004
8.755378e+002,-1.875346e-005
8.774664e+002,-4.088472e-004
8.793949e+002,-1.579213e-004
8.813234e+002,-3.035342e-004
8.832518e+002,-3.563098e-004
8.851804e+002,-1.492763e-004
8.871089e+002,-1.970035e-004
8.890374e+002,-4.710761e-004
8.909658e+002,-3.090637e-004
8.928943e+002,-2.713593e-005
8.948229e+002,1.167469e-004
8.967513e+002,-8.696815e-005
8.986798e+002,-2.875414e-004
9.006083e+002,-1.122436e-004
9.025369e+002,5.699429e-005
9.044653e+002,-2.708857e-004
9.063938e+002,-2.832037e-004
9.083223e+002,-4.012666e-004
9.102509e+002,-6.191650e-004
9.121793e+002,-6.890057e-004
9.141078e+002,-5.277033e-004
9.160364e+002,-5.861761e-004
9.179648e+002,-4.317207e-004
9.198933e+002,-3.416101e-004
9.218218e+002,-3.675329e-004
9.237504e+002,-4.597895e-004
9.256788e+002,-3.823310e-004
9.276073e+002,7.817023e-005
9.295358e+002,3.805123e-004
9.314644e+002,2.114003e-005
9.333928e+002,-2.956869e-004
9.353213e+002,-3.921961e-004
9.372498e+002,1.848919e-005
9.391783e+002,1.362685e-004
9.411068e+002,-1.065791e-004
9.430353e+002,-3.222084e-004
9.449637e+002,-2.355854e-004
9.468923e+002,-1.716998e-004
9.488208e+002,-1.481833e-004
9.507493e+002,-2.667134e-004
9.526777e+002,-4.004721e-004
9.546063e+002,-4.491977e-004
9.565348e+002,-2.698923e-004
9.584633e+002,-1.803774e-004
9.603917e+002,-1.850473e-004
9.623203e+002,-2.219413e-004
9.642488e+002,-2.827401e-004
9.661772e+002,-4.014983e-004
9.681057e+002,-4.226509e-004
9.700343e+002,-5.177751e-004
9.719628e+002,-5.371681e-004
9.738912e+002,-2.804222e-004
9.758197e+002,-1.483158e-004
9.777483e+002,-1.682221e-004
9.796768e+002,-1.272329e-005
9.816052e+002,-1.621277e-004
9.835337e+002,-1.646450e-004
9.854623e+002,-6.762131e-005
9.873907e+002,-3.396106e-005
9.893192e+002,7.485625e-005
9.912477e+002,-4.015660e-005
9.931763e+002,-7.355134e-005
9.951047e+002,-6.361689e-006
9.970332e+002,-3.250328e-005
9.989617e+002,7.058124e-005
1.000890e+003,-1.201605e-004
1.002819e+003,-4.404593e-004
1.004747e+003,-4.576712e-004
1.006676e+003,-3.272410e-004
1.008604e+003,-1.721635e-004
1.010533e+003,5.431009e-005
1.012461e+003,-1.315222e-004
1.014390e+003,-3.116463e-004
1.016318e+003,-2.694949e-004
1.018247e+003,-2.496926e-004
1.020175e+003,-4.296353e-004
1.022104e+003,-4.640262e-004
1.024032e+003,-4.208965e-004
1.025961e+003,-2.995609e-004
1.027889e+003,-8.965145e-005
1.029818e+003,3.330098e-005
1.031746e+003,-3.485561e-005
1.033675e+003,-1.822368e-006
1.035603e+003,-9.965576e-005
1.037532e+003,-1.431817e-004
1.039460e+003,-1.131711e-004
1.041389e+003,-1.316216e-004
1.043317e+003,-3.107192e-004
1.045246e+003,-3.523701e-004
1.047174e+003,-3.781267e-004
1.049103e+003,-2.943955e-004
1.051031e+003,-8.276095e-005
1.052960e+003,8.231276e-005
1.054888e+003,-8.835949e-005
1.056817e+003,-2.152185e-004
1.058745e+003,-3.369087e-004
1.060674e+003,-1.101567e-004
1.062602e+003,-2.173712e-004
1.064531e+003,-3.006536e-004
1.066459e+003,-1.931285e-004
1.068388e+003,-1.588487e-004
1.070316e+003,-2.862169e-004
1.072245e+003,-4.905705e-004
1.074173e+003,-5.200917e-004
1.076102e+003,-4.542289e-004
1.078030e+003,-4.045107e-004
1.079959e+003,-5.383948e-005
1.081887e+003,1.482670e-004
1.083816e+003,9.331548e-005
1.085744e+003,-5.970343e-005
1.087673e+003,8.917286e-005
1.089601e+003,9.626505e-005
1.091530e+003,-1.987997e-005
1.093458e+003,-2.969120e-004
1.095387e+003,-3.786895e-004
1.097315e+003,-2.196563e-004
1.099244e+003,-2.236966e-004
1.101172e+003,-1.726272e-004
1.103101e+003,-2.345827e-005
1.105029e+003,5.358105e-005
1.106958e+003,8.691928e-005
1.108886e+003,-4.363534e-005
1.110815e+003,-1.836894e-004
1.112743e+003,-1.664004e-004
1.114672e+003,-1.098917e-004
1.116600e+003,-2.211134e-004
1.118529e+003,-2.105158e-004
1.120457e+003,-1.506675e-004
1.122386e+003,-7.033787e-005
1.124314e+003,-1.229761e-004
1.126243e+003,-1.148605e-004
1.128171e+003,-1.919362e-004
1.130100e+003,-1.167818e-004
1.132028e+003,3.011989e-005
1.133957e+003,-1.987997e-005
1.135885e+003,-2.338965e-004
1.137814e+003,-2.897268e-004
1.139742e+003,-3.358161e-004
1.141671e+003,-1.848486e-004
1.143599e+003,2.915805e-006
1.145528e+003,3.330098e-005
1.147456e+003,-1.562320e-004
1.149385e+003,-3.268768e-004
1.151313e+003,-3.616400e-004
1.153242e+003,-1.417243e-004
1.155170e+003,-1.258249e-004
1.157099e+003,-1.719979e-004
1.159027e+003,-5.135746e-006
1.160956e+003,6.792531e-006
1.162884e+003,-1.065791e-004
1.164813e+003,-1.127074e-004
1.166741e+003,5.361419e-005
1.168670e+003,1.775022e-004
1.170598e+003,1.046168e-004
1.172526e+003,-1.036309e-004
1.174455e+003,-2.572759e-004
1.176384e+003,-2.527392e-004
1.178312e+003,-9.902635e-005
1.180240e+003,-5.168879e-006
1.182169e+003,-2.056805e-004
1.184098e+003,-2.520107e-004
1.186026e+003,-2.717797e-004
1.187954e+003,-2.393275e-004
1.189883e+003,-2.907533e-004
1.191812e+003,-2.786341e-004
1.193740e+003,-1.991231e-004
1.195668e+003,-1.785226e-004
1.197597e+003,-1.741176e-004
1.199526e+003,-1.272823e-004
1.201454e+003,-1.234068e-004
1.203382e+003,-9.342794e-005
1.205311e+003,-1.712996e-005
1.207240e+003,-6.169120e-005
1.209168e+003,-1.799137e-004
1.211096e+003,-1.782246e-004
1.213025e+003,-6.782008e-005
1.214953e+003,-2.504861e-005
1.216882e+003,-1.348015e-004
1.218810e+003,-5.556223e-005
1.220739e+003,1.500998e-005
1.222667e+003,-1.005170e-004
1.224596e+003,-1.886243e-004
1.226524e+003,-1.303960e-004
1.228453e+003,-9.591245e-005
1.230381e+003,-1.471565e-004
1.232310e+003,-1.061816e-004
1.234238e+003,-1.015108e-004
1.236167e+003,-1.788207e-004
1.238095e+003,-2.141919e-004
1.240024e+003,-2.077670e-004
1.241952e+003,-1.099580e-004
1.243881e+003,-4.671875e-006
1.245809e+003,-3.886449e-005
1.247738e+003,3.459331e-005
1.249666e+003,1.090124e-005
1.251595e+003,-9.866196e-005
1.253523e+003,-8.511301e-005
1.255452e+003,-1.064797e-004
1.257380e+003,-1.611341e-004
1.259309e+003,-1.990568e-004
1.261237e+003,-1.431155e-004
1.263166e+003,-7.408139e-005
1.265094e+003,8.151050e-006
1.267023e+003,-3.449116e-005
1.268951e+003,-1.329134e-004
1.270880e+003,-1.388426e-004
1.272808e+003,-1.811060e-004
1.274737e+003,-3.280687e-004
1.276665e+003,-1.876969e-004
1.278594e+003,7.459113e-005
1.280522e+003,4.778191e-005
1.282451e+003,-1.269842e-004
1.284379e+003,-1.934266e-004
1.286308e+003,-2.471759e-004
1.288236e+003,-1.532179e-004
1.290165e+003,-4.052104e-005
1.292093e+003,1.633539e-005
1.294022e+003,6.793009e-005
1.295950e+003,-1.170468e-004
1.297879e+003,-1.304954e-004
1.299807e+003,-9.856258e-005
1.301736e+003,-2.509841e-004
1.303664e+003,-1.110842e-004
1.305593e+003,-7.673166e-005
1.307521e+003,-6.798573e-005
1.309450e+003,-3.256954e-005
1.311378e+003,-9.211165e-006
1.313307e+003,5.769019e-005
1.315235e+003,1.022637e-004
1.317164e+003,7.495566e-005
1.319092e+003,5.583445e-005
1.321021e+003,-1.157880e-004
1.322949e+003,-2.757533e-004
1.324878e+003,-1.884255e-004
1.326806e+003,-5.844451e-005
1.328735e+003,-1.637176e-004
1.330663e+003,-1.559670e-004
1.332592e+003,-2.268095e-004
1.334520e+003,-3.522707e-004
1.336449e+003,-3.494235e-004
1.338377e+003,-2.655544e-004
1.340306e+003,-7.232559e-005
1.342234e+003,-3.432551e-005
1.344163e+003,-2.568785e-004
1.346091e+003,-2.170400e-004
1.348020e+003,-8.418543e-005
1.349948e+003,-1.485476e-004
1.351877e+003,-1.777940e-004
1.353805e+003,-1.383126e-004
1.355734e+003,-1.512968e-004
1.357662e+003,-1.574244e-004
1.359591e+003,-1.301310e-004
1.361519e+003,-1.249636e-004
1.363448e+003,-1.523236e-004
1.365376e+003,-5.595979e-005
1.367305e+003,-7.769237e-005
1.369233e+003,-1.887567e-004
1.371162e+003,-2.274388e-004
1.373090e+003,-1.720641e-004
1.375019e+003,-7.696355e-005
1.376947e+003,-8.464922e-005
1.378876e+003,-4.327090e-005
1.380804e+003,-4.250889e-005
1.382733e+003,-1.359277e-004
1.384661e+003,-1.031009e-004
1.386590e+003,-1.872663e-004
1.388518e+003,-3.151229e-004
1.390447e+003,-2.612165e-004
1.392375e+003,-1.342715e-004
1.394304e+003,-1.388757e-004
1.396232e+003,-2.183316e-004
1.398161e+003,-2.547923e-004
1.400089e+003,-2.654550e-004
1.402018e+003,-2.288297e-004
1.403946e+003,-2.186959e-004
1.405875e+003,-1.911413e-004
1.407803e+003,-7.968005e-005
1.409732e+003,-1.218168e-004
1.411660e+003,-1.464278e-004
1.413589e+003,-1.311579e-004
1.415517e+003,-2.116418e-004
1.417446e+003,-2.870778e-004
1.419374e+003,-2.569116e-004
1.421303e+003,-1.991562e-004
1.423231e+003,-1.741838e-004
1.425160e+003,-1.797150e-004
1.427088e+003,-1.930623e-004
1.429017e+003,-1.292035e-004
1.430945e+003,-7.030474e-005
1.432874e+003,-6.523602e-005
1.434802e+003,-2.060888e-005
1.436731e+003,-1.058504e-004
1.438659e+003,-6.772070e-005
1.440588e+003,-1.437448e-004
1.442516e+003,-1.221812e-004
1.444445e+003,-1.326153e-004
1.446373e+003,-2.633358e-004
1.448302e+003,-2.501562e-004
1.450230e+003,-9.057901e-005
1.452159e+003,-5.374009e-005
1.454087e+003,-1.466927e-004
1.456016e+003,-3.213475e-004
1.457944e+003,-4.391022e-004
1.459873e+003,-2.229349e-004
1.461801e+003,-1.328803e-004
1.463730e+003,-8.236341e-005
1.465658e+003,-3.273520e-005
1.467587e+003,-8.531177e-005
1.469515e+003,-2.539644e-004
1.471444e+003,-4.558176e-004
1.473372e+003,-4.504886e-004
1.475301e+003,-3.011171e-004
1.477229e+003,-1.627902e-004
1.479158e+003,-1.030015e-004
1.481086e+003,9.045687e-006
1.483015e+003,8.990195e-005
1.484943e+003,3.131280e-005
1.486872e+003,-9.250038e-005
1.488800e+003,-1.906445e-004
1.490729e+003,-2.434669e-004
1.492657e+003,-2.324393e-004
1.494586e+003,-1.930623e-004
1.496514e+003,-2.287303e-004
1.498443e+003,-2.176361e-004
1.500371e+003,-1.679571e-004
1.502300e+003,-7.981257e-005
1.504228e+003,-2.007128e-004
1.506157e+003,-5.759845e-004
1.508085e+003,-4.911331e-004
1.510014e+003,-3.017794e-004
1.511942e+003,-3.424047e-004
1.513871e+003,-3.679964e-004
1.515799e+003,-3.330681e-004
1.517728e+003,-3.003225e-004
1.519656e+003,-3.257180e-004
1.521585e+003,-4.308932e-004
1.523513e+003,-3.435304e-004
1.525442e+003,-3.510127e-004
1.527370e+003,-2.953227e-004
1.529299e+003,-2.259154e-004
1.531227e+003,-3.354189e-004
1.533156e+003,-3.523369e-004
1.535084e+003,-2.729718e-004
1.537013e+003,-3.365445e-004
1.538941e+003,-4.582008e-004
1.540870e+003,-4.674684e-004
1.542798e+003,-3.104544e-004
1.544727e+003,-2.241271e-004
1.546655e+003,-2.105158e-004
1.548584e+003,-1.124755e-004
1.550512e+003,-9.193723e-005
1.552441e+003,-1.320522e-004
1.554369e+003,-1.096267e-004
1.556298e+003,-1.789863e-004
1.558226e+003,-5.233018e-004
1.560155e+003,-4.909345e-004
1.562083e+003,-2.241602e-004
1.564012e+003,-1.965729e-004
1.565940e+003,-1.787876e-004
1.567869e+003,-1.183718e-004
1.569797e+003,-1.665329e-004
1.571726e+003,-1.666322e-004
1.573654e+003,-1.924992e-004
1.575583e+003,-2.512821e-004
1.577511e+003,-2.044552e-004
1.579440e+003,-1.345696e-004
1.581368e+003,-8.713378e-005
1.583297e+003,-1.343709e-004
1.585225e+003,-7.590345e-005
1.587154e+003,2.544769e-005
1.589082e+003,2.408911e-005
1.591010e+003,-1.367227e-004
1.592939e+003,-3.257180e-004
1.594868e+003,-3.556476e-004
1.596796e+003,-1.879287e-004
1.598724e+003,-1.167818e-004
1.600653e+003,-2.073365e-004
1.602582e+003,-3.288965e-004
1.604510e+003,-2.784355e-004
1.606438e+003,-1.736539e-004
1.608367e+003,-7.958067e-005
1.610296e+003,-8.753131e-005
1.612224e+003,-1.872663e-004
1.614152e+003,-2.685015e-004
1.616081e+003,-3.413452e-004
1.618010e+003,-2.170731e-004
1.619938e+003,-9.909261e-005
1.621866e+003,-1.814703e-004
1.623795e+003,-3.093948e-004
1.625724e+003,-3.057527e-004
1.627652e+003,-2.392613e-004
1.629580e+003,-1.048897e-004
1.631509e+003,-1.039622e-004
1.633438e+003,-1.364908e-004
1.635366e+003,-4.046762e-004
1.637294e+003,-4.115948e-004
1.639223e+003,-2.011433e-004
1.641151e+003,-1.011464e-004
1.643080e+003,-5.238176e-005
1.645008e+003,-1.599417e-004
1.646937e+003,-2.853891e-004
1.648865e+003,-2.806540e-004
1.650794e+003,-3.916996e-004
1.652722e+003,-5.768117e-004
1.654651e+003,-3.977907e-004
1.656579e+003,-2.706870e-004
1.658508e+003,-1.953806e-004
1.660436e+003,-2.178017e-004
1.662365e+003,-2.721440e-004
1.664293e+003,-2.321744e-004
1.666222e+003,-2.147549e-004
1.668150e+003,-1.490114e-004
1.670079e+003,-2.207491e-004
1.672007e+003,-2.564480e-004
1.673936e+003,-1.902802e-004
1.675864e+003,-1.351658e-004
1.677793e+003,-1.314228e-004
1.679721e+003,-1.660029e-004
1.681650e+003,-2.347906e-004
1.683578e+003,-3.277376e-004
1.685507e+003,-3.205529e-004
1.687435e+003,-2.713493e-004
1.689364e+003,-1.258911e-004
1.691292e+003,1.590463e-005
1.693221e+003,-7.537340e-005
1.695149e+003,-3.206522e-004
1.697078e+003,-4.052390e-004
1.699006e+003,-5.002015e-004
1.700935e+003,-6.297195e-004
1.702863e+003,-4.320186e-004
1.704792e+003,-3.163149e-004
1.706720e+003,-1.861734e-004
1.708649e+003,-1.424530e-004
1.710577e+003,-2.116418e-004
1.712506e+003,-2.945942e-004
1.714434e+003,-2.558188e-004
1.716363e+003,-3.540916e-004
1.718291e+003,-3.690226e-004
1.720220e+003,-1.751112e-004
1.722148e+003,-5.705307e-005
1.724077e+003,-1.505681e-004
1.726005e+003,-1.968378e-004
1.727934e+003,-1.679240e-004
1.729862e+003,-1.963411e-004
1.731791e+003,-2.343601e-004
1.733719e+003,-4.531366e-004
1.735648e+003,-4.102706e-004
1.737576e+003,-1.628564e-004
1.739505e+003,-2.064754e-004
1.741433e+003,-2.562493e-004
1.743362e+003,-2.974418e-004
1.745290e+003,-1.568945e-004
1.747219e+003,-8.607371e-005
1.749147e+003,-1.261892e-004
1.751076e+003,-1.910420e-004
1.753004e+003,-2.128340e-004
1.754933e+003,-2.051175e-004
1.756861e+003,-1.650093e-004
1.758790e+003,-1.869020e-004
1.760718e+003,-2.705877e-004
1.762647e+003,-2.421092e-004
1.764575e+003,-6.586548e-005
1.766504e+003,-1.236718e-004
1.768432e+003,-2.114431e-004
1.770361e+003,-1.766017e-004
1.772289e+003,-2.745281e-004
1.774218e+003,-2.660180e-004
1.776146e+003,-1.038297e-004
1.778075e+003,-2.928950e-005
1.780003e+003,-8.302597e-005
1.781932e+003,-1.535823e-004
1.783860e+003,-8.372165e-005
1.785789e+003,-1.925045e-005
1.787717e+003,-1.573582e-004
1.789646e+003,-2.675412e-004
1.791574e+003,-2.583686e-004
1.793503e+003,-1.900815e-004
1.795431e+003,-1.886574e-004
1.797360e+003,-1.789532e-004
1.799288e+003,-2.062104e-004
1.801217e+003,-2.606866e-004
1.803145e+003,-2.024680e-004
1.805074e+003,-1.253611e-004
1.807002e+003,-5.235147e-006
1.808931e+003,-1.600345e-005
1.810859e+003,-9.846321e-005
1.812788e+003,-1.520917e-004
1.814716e+003,-1.816359e-004
1.816645e+003,-1.229430e-004
1.818573e+003,-1.134030e-004
1.820502e+003,-1.596767e-004
1.822430e+003,-6.063106e-005
1.824359e+003,-7.408139e-005
1.826287e+003,-1.496407e-004
1.828216e+003,-1.878956e-004
1.830144e+003,-1.511974e-004
1.832073e+003,-1.750450e-004
1.834001e+003,-2.009777e-004
1.835930e+003,-1.311247e-004
1.837858e+003,-5.927275e-005
1.839787e+003,1.663361e-005
1.841715e+003,-2.521427e-005
1.843644e+003,-3.122423e-004
1.845572e+003,-3.281680e-004
1.847501e+003,-2.009777e-004
1.849429e+003,-1.414593e-004
1.851358e+003,-3.472309e-005
1.853286e+003,1.365144e-005
1.855215e+003,-8.289346e-005
1.857143e+003,-1.340065e-004
1.859072e+003,-1.500713e-004
1.861000e+003,-1.387432e-004
1.862929e+003,-1.010471e-004
1.864857e+003,-1.155893e-004
1.866786e+003,-1.682883e-004
1.868714e+003,-1.282098e-004
1.870643e+003,-1.771647e-004
1.872571e+003,-2.634020e-004
1.874500e+003,-1.848817e-004
1.876428e+003,-6.911211e-005
1.878357e+003,-8.024323e-005
1.880285e+003,-9.395797e-005
1.882214e+003,-4.290646e-005
1.884142e+003,-8.209839e-005
1.886071e+003,-1.894854e-004
1.887999e+003,-2.561500e-004
1.889928e+003,-2.359497e-004
1.891856e+003,-1.111505e-004
1.893785e+003,-3.555137e-005
1.895713e+003,-8.090579e-005
1.897642e+003,-1.055522e-004
1.899570e+003,-1.532841e-004
1.901499e+003,-1.100905e-004
1.903427e+003,-2.014503e-005
1.905356e+003,-6.461089e-006
1.907284e+003,-1.911792e-005
1.909213e+003,-7.481022e-005
1.911141e+003,-8.650436e-005
1.913070e+003,-9.303042e-005
1.914998e+003,-9.147345e-005
1.916927e+003,-2.149205e-004
1.918855e+003,-2.948591e-004
1.920784e+003,-1.983944e-004
1.922712e+003,-8.560992e-005
1.924641e+003,-9.220224e-005
1.926569e+003,-1.163180e-004
1.928498e+003,-8.826011e-005
1.930426e+003,-1.255930e-004
1.932355e+003,-2.590971e-004
1.934283e+003,-2.822103e-004
1.936212e+003,-1.961092e-004
1.938140e+003,-1.246324e-004
1.940069e+003,-1.601073e-004
1.941997e+003,-2.514477e-004
1.943926e+003,-1.755087e-004
1.945854e+003,-7.033787e-005
1.947783e+003,-1.522242e-004
1.949711e+003,-1.478852e-004
1.951640e+003,-1.371201e-004
1.953568e+003,-1.815366e-004
1.955497e+003,-1.695138e-004
1.957425e+003,-1.548740e-004
1.959354e+003,-2.476063e-004
1.961282e+003,-2.569778e-004
1.963211e+003,-2.032629e-004
1.965139e+003,-1.435461e-004
1.967068e+003,-1.682221e-004
1.968996e+003,-1.355302e-004
1.970925e+003,-9.727065e-005
1.972853e+003,-5.165290e-005
1.974782e+003,-7.388262e-005
1.976710e+003,-1.063804e-004
1.978639e+003,-7.563843e-005
1.980567e+003,-5.456834e-005
1.982496e+003,-7.805678e-005
1.984424e+003,-1.367558e-004
1.986353e+003,-9.886072e-005
1.988281e+003,-8.643811e-005
1.990210e+003,-1.053866e-004
1.992138e+003,-1.295679e-004
1.994067e+003,-1.033328e-004
1.995995e+003,-1.330459e-004
1.997924e+003,-1.593786e-004
1.999852e+003,-1.957449e-004
2.001781e+003,-2.065085e-004
2.003709e+003,-2.125360e-004
2.005638e+003,-9.975513e-005
2.007566e+003,-5.168879e-006
2.009495e+003,-3.982529e-005
2.011423e+003,2.273055e-005
2.013352e+003,7.193995e-005
2.015280e+003,2.229978e-005
2.017208e+003,-6.699186e-005
2.019137e+003,-4.565631e-005
2.021066e+003,-4.810796e-005
2.022994e+003,-1.164837e-004
2.024922e+003,-1.120780e-004
2.026851e+003,-1.175437e-004
2.028780e+003,-1.756412e-004
2.030708e+003,-1.849811e-004
2.032636e+003,-2.260810e-004
2.034565e+003,-2.448247e-004
2.036494e+003,-1.197299e-004
2.038422e+003,-1.039953e-004
2.040350e+003,-1.479514e-004
2.042279e+003,-1.200280e-004
2.044208e+003,-5.105656e-005
2.046136e+003,-1.022396e-004
2.048064e+003,-1.317872e-004
2.049993e+003,-7.686417e-005
2.051921e+003,1.093437e-005
2.053850e+003,-3.293399e-005
2.055778e+003,-1.525555e-004
2.057707e+003,-1.347352e-004
2.059635e+003,-9.127468e-005
2.061564e+003,-1.136680e-004
2.063492e+003,-1.390413e-004
2.065421e+003,-1.710042e-004
2.067349e+003,-1.248642e-004
2.069278e+003,7.554627e-006
2.071206e+003,4.151894e-005
2.073135e+003,-1.815707e-005
2.075063e+003,-1.212205e-004
2.076992e+003,-7.123235e-005
2.078920e+003,-4.631892e-005
2.080849e+003,-1.264211e-004
2.082777e+003,-8.620622e-005
2.084706e+003,-5.450207e-005
2.086634e+003,-1.222143e-004
2.088563e+003,-1.553046e-004
2.090491e+003,-3.286772e-005
2.092420e+003,2.975539e-005
2.094348e+003,-1.039622e-004
2.096277e+003,-1.914063e-004
2.098205e+003,-2.338965e-004
2.100134e+003,-7.557217e-005
2.102062e+003,3.389745e-005
2.103991e+003,-2.226550e-005
2.105919e+003,-1.250630e-004
2.107848e+003,-1.881606e-004
2.109776e+003,-9.452113e-005
2.111705e+003,-4.771276e-006
2.113633e+003,-3.048225e-005
2.115562e+003,-6.636241e-005
2.117490e+003,-1.283754e-004
2.119419e+003,-1.428505e-004
2.121347e+003,-2.147033e-005
2.123276e+003,8.072202e-005
2.125204e+003,-4.771276e-006
2.127133e+003,-8.348975e-005
2.129061e+003,-6.868143e-005
2.130990e+003,-3.969276e-005
2.132918e+003,-8.773008e-005
2.134847e+003,-1.728921e-004
2.136775e+003,-1.710705e-004
2.138704e+003,-5.321001e-005
2.140632e+003,-1.414800e-005
2.142561e+003,1.620285e-005
2.144489e+003,1.308814e-005
2.146418e+003,-1.315222e-004
2.148346e+003,-2.005140e-004
2.150275e+003,-1.013121e-004
2.152203e+003,-1.405981e-004
2.154132e+003,-2.212790e-004
2.156060e+003,-2.020706e-004
2.157989e+003,-1.816359e-004
2.159917e+003,-1.755087e-004
2.161846e+003,-1.416912e-004
2.163774e+003,-1.358283e-004
2.165703e+003,-1.155562e-004
2.167631e+003,-4.012347e-005
2.169560e+003,-3.608147e-005
2.171488e+003,-1.099911e-004
2.173417e+003,-1.816359e-004
2.175345e+003,-1.544103e-004
2.177274e+003,-1.099911e-004
2.179202e+003,-1.603723e-004
2.181131e+003,-1.557683e-004
2.183059e+003,-1.638169e-004
2.184988e+003,-1.390744e-004
2.186916e+003,-1.225786e-004
2.188845e+003,-2.388639e-004
2.190773e+003,-2.781374e-004
2.192702e+003,-1.226780e-004
2.194630e+003,1.156393e-005
2.196559e+003,2.445361e-005
2.198487e+003,-7.521362e-006
2.200416e+003,-6.828389e-005
2.202344e+003,-2.889192e-005
2.204273e+003,5.543679e-005
2.206201e+003,-4.572473e-006
2.208130e+003,-5.291184e-005
2.210058e+003,-1.420555e-004
2.211987e+003,-1.924992e-004
2.213915e+003,-1.613990e-004
2.215844e+003,-1.374845e-004
2.217772e+003,-1.185043e-004
2.219701e+003,-1.151918e-004
2.221629e+003,-2.474076e-004
2.223558e+003,-3.066467e-004
2.225486e+003,-2.518451e-004
2.227415e+003,-2.105158e-004
2.229343e+003,-1.856766e-004
2.231272e+003,-1.963411e-004
2.233200e+003,-1.707061e-004
2.235129e+003,-2.116087e-004
2.237057e+003,-2.494608e-004
2.238986e+003,-1.383126e-004
2.240914e+003,-7.484334e-005
2.242843e+003,-6.606425e-005
2.244771e+003,1.037108e-005
2.246700e+003,-2.706967e-005
2.248628e+003,-1.223136e-004
2.250557e+003,-1.749125e-004
2.252485e+003,-2.332341e-004
2.254414e+003,-1.833913e-004
2.256342e+003,-1.078379e-004
2.258271e+003,-1.259905e-004
2.260199e+003,-1.912076e-004
2.262128e+003,-1.160530e-004
2.264056e+003,-3.780429e-005
2.265985e+003,-1.178087e-004
2.267913e+003,-1.753099e-004
2.269842e+003,-1.332447e-004
2.271770e+003,-1.150593e-004
2.273699e+003,-1.194649e-004
2.275627e+003,-1.888230e-004
2.277556e+003,-1.347021e-004
2.279484e+003,-8.845887e-005
2.281413e+003,-1.127405e-004
2.283341e+003,-2.531034e-004
2.285270e+003,-2.954551e-004
2.287198e+003,-2.695611e-004
2.289127e+003,-1.166162e-004
2.291055e+003,9.608978e-006
2.292984e+003,-1.266530e-004
2.294912e+003,-2.565474e-004
2.296841e+003,-2.315121e-004
2.298769e+003,-1.912407e-004
2.300698e+003,-3.019780e-004
2.302626e+003,-4.151698e-004
2.304555e+003,-3.262477e-004
2.306483e+003,-2.723758e-004
2.308412e+003,-2.490965e-004
2.310340e+003,-2.607529e-004
2.312269e+003,-3.792191e-004
2.314197e+003,-4.335413e-004
2.316125e+003,-4.037824e-004
2.318054e+003,-4.799794e-004
2.319983e+003,-5.588435e-004
2.321911e+003,-5.361421e-004
2.323840e+003,-5.342559e-004
2.325768e+003,-4.735585e-004
2.327697e+003,-4.300656e-004
2.329625e+003,-4.675677e-004
2.331553e+003,-4.119589e-004
2.333482e+003,-3.922955e-004
2.335411e+003,-3.400209e-004
2.337339e+003,-3.126396e-004
2.339268e+003,-3.975921e-004
2.341196e+003,-5.529862e-004
2.343125e+003,-5.613253e-004
2.345053e+003,-3.601833e-004
2.346981e+003,-1.753762e-004
2.348910e+003,-1.593786e-004
2.350839e+003,-2.765149e-004
2.352767e+003,-3.220428e-004
2.354696e+003,-4.093107e-004
2.356624e+003,-3.616731e-004
2.358552e+003,-3.948776e-004
2.360481e+003,-4.725655e-004
2.362409e+003,-4.816674e-004
2.364338e+003,-4.864003e-004
2.366267e+003,-3.547869e-004
2.368195e+003,-3.536281e-004
2.370124e+003,-3.273403e-004
2.372052e+003,-2.622099e-004
2.373980e+003,-2.199212e-004
2.375909e+003,-1.696132e-004
2.377838e+003,1.090124e-005
2.379766e+003,1.304683e-004
2.381695e+003,1.210224e-004
2.383623e+003,1.330867e-004
2.385552e+003,1.147252e-004
2.387480e+003,5.676232e-005
2.389408e+003,-7.838806e-005
2.391337e+003,-7.709607e-005
2.393266e+003,-6.394399e-005
2.395194e+003,-1.220155e-004
2.397123e+003,-8.153522e-005
2.399051e+003,-5.317688e-005
2.400979e+003,-4.797544e-005
2.402908e+003,-1.121774e-004
2.404836e+003,-8.855826e-005
2.406765e+003,-9.534930e-005
2.408694e+003,-1.397038e-004
2.410622e+003,-1.117136e-004
2.412551e+003,-7.086793e-005
2.414479e+003,-1.522242e-004
2.416407e+003,-1.658373e-004
2.418336e+003,-1.510981e-004
2.420264e+003,-1.679240e-004
2.422193e+003,-9.561431e-005
2.424122e+003,-6.109487e-005
2.426050e+003,-1.035978e-004
2.427979e+003,-1.166162e-004
2.429907e+003,-1.335097e-004
2.431835e+003,-1.997854e-004
2.433764e+003,-2.589978e-004
2.435692e+003,-2.339958e-004
2.437621e+003,-1.473221e-004
2.439550e+003,-5.705307e-005
2.441478e+003,-3.011780e-005
2.443406e+003,-1.033659e-004
2.445335e+003,-2.139600e-004
2.447263e+003,-2.320419e-004
2.449192e+003,-1.593786e-004
2.451121e+003,-1.259905e-004
2.453049e+003,-1.593124e-004
2.454978e+003,-2.190270e-004
2.456906e+003,-2.093235e-004
2.458834e+003,-1.395050e-004
2.460763e+003,-1.390744e-004
2.462691e+003,-1.309591e-004
2.464620e+003,-1.020409e-004
2.466549e+003,-1.060822e-004
2.468477e+003,-1.994211e-004
2.470406e+003,-2.530372e-004
2.472334e+003,-2.130327e-004
2.474262e+003,-1.682221e-004
2.476191e+003,-1.299654e-004
2.478119e+003,-1.712692e-004
2.480048e+003,-2.103502e-004
2.481977e+003,-1.895847e-004
2.483905e+003,-1.372195e-004
2.485833e+003,2.319389e-006
2.487762e+003,5.964168e-006
2.489690e+003,-7.868621e-005
2.491619e+003,-1.279117e-004
2.493547e+003,-1.973015e-004
2.495476e+003,-2.206498e-004
2.497405e+003,-2.042896e-004
2.499333e+003,-1.690170e-004
2.501261e+003,-1.604054e-004
2.503190e+003,-1.087654e-004
2.505118e+003,-2.212790e-004
2.507047e+003,-2.833692e-004
2.508975e+003,-1.504687e-004
2.510904e+003,-1.023059e-004
2.512833e+003,-1.604716e-004
2.514761e+003,-1.763036e-004
2.516689e+003,-1.089311e-004
2.518618e+003,-8.826011e-005
2.520546e+003,-1.310585e-004
2.522475e+003,-1.525555e-004
2.524403e+003,-1.503362e-004
2.526332e+003,-8.292658e-005
2.528260e+003,-9.246726e-005
2.530189e+003,-7.474396e-005
2.532117e+003,-9.442175e-005
2.534046e+003,-1.589480e-004
2.535974e+003,-1.496407e-004
2.537903e+003,-2.454207e-004
2.539831e+003,-3.603819e-004
2.541760e+003,-3.073751e-004
2.543688e+003,-1.701431e-004
2.545617e+003,-1.639163e-004
2.547545e+003,-1.587493e-004
2.549474e+003,-1.080367e-004
2.551402e+003,-9.624372e-005
2.553331e+003,-9.644248e-005
2.555259e+003,-7.222620e-005
2.557188e+003,-8.670313e-005
2.559116e+003,-1.377495e-004
2.561045e+003,-1.938902e-004
2.562973e+003,-2.780712e-004
2.564902e+003,-2.882367e-004
2.566830e+003,-2.074027e-004
2.568759e+003,-1.924992e-004
2.570687e+003,-1.746807e-004
2.572616e+003,-1.715342e-004
2.574544e+003,-1.890217e-004
2.576473e+003,-2.079657e-004
2.578401e+003,-2.462486e-004
2.580330e+003,-2.653557e-004
2.582258e+003,-2.131983e-004
2.584187e+003,-1.974009e-004
2.586115e+003,-2.032629e-004
2.588044e+003,-2.078663e-004
2.589972e+003,-2.830381e-004
2.591901e+003,-2.359165e-004
2.593829e+003,-2.177354e-004
2.595758e+003,-2.344594e-004
2.597686e+003,-1.498394e-004
2.599615e+003,-7.282251e-005
2.601543e+003,-3.187378e-005
2.603472e+003,-7.298816e-005
2.605400e+003,-1.608360e-004
2.607329e+003,-2.610509e-004
2.609257e+003,-2.821772e-004
2.611186e+003,-2.535670e-004
2.613114e+003,-1.522905e-004
2.615043e+003,-1.162518e-004
2.616971e+003,-1.433473e-004
2.618900e+003,-1.190012e-004
2.620828e+003,-1.146618e-004
2.622757e+003,-1.923336e-004
2.624685e+003,-2.760182e-004
2.626614e+003,-2.489972e-004
2.628542e+003,-1.550396e-004
2.630471e+003,-1.182724e-004
2.632399e+003,-1.672284e-004
2.634328e+003,-1.663010e-004
2.636256e+003,-1.829276e-004
2.638185e+003,-2.338302e-004
2.640113e+003,-2.464804e-004
2.642042e+003,-1.621277e-004
2.643970e+003,-7.746048e-005
2.645899e+003,9.012552e-006
2.647827e+003,-7.116608e-005
2.649756e+003,-1.800793e-004
2.651684e+003,-9.773442e-005
2.653613e+003,-7.282251e-005
2.655541e+003,-8.739880e-005
2.657470e+003,-8.630560e-005
2.659398e+003,-1.174112e-004
2.661327e+003,-2.036603e-004
2.663255e+003,-1.608691e-004
2.665184e+003,-9.524992e-005
2.667112e+003,-6.927775e-005
2.669041e+003,-1.337747e-004
2.670969e+003,-2.570772e-004
2.672898e+003,-2.651901e-004
2.674826e+003,-2.605873e-004
2.676755e+003,-1.641481e-004
2.678683e+003,-1.290048e-004
2.680612e+003,-1.877963e-004
2.682540e+003,-2.114431e-004
2.684469e+003,-1.880943e-004
2.686397e+003,-1.532841e-004
2.688326e+003,-1.468915e-004
2.690254e+003,-9.720439e-005
2.692183e+003,-1.068441e-004
2.694111e+003,-1.232080e-004
2.696040e+003,-4.443048e-005
2.697968e+003,-4.814109e-005
2.699897e+003,-4.234324e-005
2.701825e+003,-4.727970e-005
2.703754e+003,-5.175229e-005
2.705682e+003,-1.076060e-004
2.707611e+003,-1.860409e-004
2.709539e+003,-2.964484e-004
2.711468e+003,-2.027330e-004
2.713396e+003,-1.044259e-004
2.715325e+003,-1.416912e-004
2.717253e+003,-2.307835e-004
2.719182e+003,-3.026071e-004
2.721110e+003,-3.038322e-004
2.723039e+003,-2.059455e-004
2.724967e+003,-1.119124e-004
2.726896e+003,-2.299441e-005
2.728824e+003,-7.765924e-005
2.730753e+003,-1.521911e-004
2.732681e+003,-5.834513e-005
2.734610e+003,-5.533032e-005
2.736538e+003,-1.256924e-004
2.738467e+003,-1.382132e-004
2.740395e+003,-2.298563e-004
2.742324e+003,-2.781706e-004
2.744252e+003,-2.100521e-004
2.746181e+003,-1.080698e-004
2.748109e+003,-4.678274e-005
2.750038e+003,-3.826813e-005
2.751966e+003,-2.044322e-005
2.753895e+003,-1.573582e-004
2.755823e+003,-2.439306e-004
2.757752e+003,-2.316114e-004
2.759680e+003,-1.693151e-004
2.761609e+003,-9.737002e-005
2.763537e+003,-9.422299e-005
2.765466e+003,-1.327147e-004
2.767394e+003,-2.013089e-004
2.769323e+003,-1.829276e-004
2.771251e+003,-1.757405e-004
2.773180e+003,-2.737996e-004
2.775108e+003,-3.248571e-004
2.777037e+003,-2.518120e-004
2.778965e+003,-1.833251e-004
2.780894e+003,-1.207568e-004
2.782822e+003,1.037108e-005
2.784750e+003,1.064064e-004
2.786679e+003,-2.706967e-005
2.788608e+003,-1.452022e-004
2.790536e+003,-1.252286e-004
2.792465e+003,-1.314891e-004
2.794393e+003,-1.758730e-004
2.796322e+003,-2.085949e-004
2.798250e+003,-1.587493e-004
2.800178e+003,-1.164837e-004
2.802107e+003,-1.338740e-004
2.804036e+003,-1.039953e-004
2.805964e+003,-1.474877e-004
2.807893e+003,-2.186959e-004
2.809821e+003,-2.034616e-004
2.811750e+003,-2.945280e-004
2.813678e+003,-2.605542e-004
2.815606e+003,-1.164174e-004
2.817535e+003,-9.561431e-005
2.819464e+003,-1.069104e-004
2.821392e+003,-1.490114e-004
2.823321e+003,-7.895124e-005
2.825249e+003,-7.888499e-005
2.827177e+003,-6.964217e-005
2.829106e+003,-1.240693e-004
2.831034e+003,-2.018057e-004
2.832963e+003,-2.290946e-004
2.834892e+003,-7.888499e-005
2.836820e+003,-4.867118e-005
2.838749e+003,-1.548078e-004
2.840677e+003,-1.962086e-004
2.842605e+003,-2.367776e-004
2.844534e+003,-2.810845e-004
2.846462e+003,-2.232329e-004
2.848391e+003,-1.382463e-004
2.850320e+003,-1.216843e-004
2.852248e+003,-1.670297e-004
2.854177e+003,-1.844180e-004
2.856105e+003,-1.527542e-004
2.858033e+003,-6.056480e-005
2.859962e+003,-1.303297e-004
2.861890e+003,-1.703087e-004
2.863819e+003,-1.709711e-004
2.865748e+003,-8.749819e-005
2.867676e+003,-8.080641e-005
2.869604e+003,-1.510981e-004
2.871533e+003,-2.165763e-004
2.873461e+003,-2.786341e-004
2.875390e+003,-2.857864e-004
2.877319e+003,-2.162452e-004
2.879247e+003,-5.625796e-005
2.881176e+003,-2.614197e-005
2.883104e+003,-3.366288e-005
2.885032e+003,-1.096267e-004
2.886961e+003,-2.609184e-004
2.888889e+003,-1.645456e-004
2.890818e+003,-1.692488e-004
2.892747e+003,-1.204587e-004
2.894675e+003,-9.084403e-005
2.896604e+003,-1.488126e-004
2.898532e+003,-1.651749e-004
2.900460e+003,-1.573582e-004
2.902389e+003,-1.972022e-004
2.904317e+003,-2.321744e-004
2.906246e+003,-2.120723e-004
2.908175e+003,-1.707061e-004
2.910103e+003,-1.818347e-004
2.912031e+003,-1.734552e-004
2.913960e+003,-1.448710e-004
2.915888e+003,-1.356296e-004
2.917817e+003,-2.171393e-004
2.919745e+003,-2.280017e-004
2.921674e+003,-2.386983e-004
2.923603e+003,-2.386652e-004
2.925531e+003,-2.971107e-004
2.927459e+003,-1.358946e-004
2.929388e+003,-1.555365e-004
2.931316e+003,-2.648921e-004
2.933245e+003,-2.555870e-004
2.935173e+003,-2.083300e-004
2.937102e+003,-4.479491e-005
2.939031e+003,-1.722936e-005
2.940959e+003,-2.050182e-004
2.942887e+003,-2.304855e-004
2.944816e+003,-2.046208e-004
2.946744e+003,-1.988581e-004
2.948673e+003,-2.038259e-004
2.950601e+003,-2.052831e-004
2.952530e+003,-1.642806e-004
2.954458e+003,-1.921770e-006
2.956387e+003,-1.491006e-005
2.958315e+003,-2.564149e-004
2.960244e+003,-2.267433e-004
2.962172e+003,-4.416543e-005
2.964101e+003,-3.008467e-005
2.966029e+003,-1.822334e-005
2.967958e+003,-1.241355e-004
2.969886e+003,-1.785226e-004
2.971815e+003,-1.528536e-004
2.973743e+003,-8.945270e-005
2.975672e+003,-1.146618e-004
2.977600e+003,-1.049228e-004
2.979529e+003,1.312128e-005
2.981457e+003,9.649705e-005
2.983386e+003,-1.805768e-005
2.985314e+003,-1.472227e-004
2.987243e+003,-1.575238e-004
2.989171e+003,-6.205562e-005
2.991100e+003,-2.218420e-004
2.993028e+003,-2.977067e-004
2.994957e+003,-1.886574e-004
2.996885e+003,-1.201605e-004
2.998814e+003,-1.909426e-004
3.000742e+003,-1.886574e-004
3.002671e+003,-1.735546e-004
3.004599e+003,-2.175036e-004
3.006528e+003,-6.619676e-005
3.008456e+003,2.514946e-005
3.010385e+003,-1.052541e-004
3.012313e+003,-2.673094e-004
3.014242e+003,-2.929717e-004
3.016170e+003,-2.514808e-004
3.018099e+003,-1.800793e-004
3.020027e+003,-1.708718e-004
3.021956e+003,-2.569778e-004
3.023884e+003,-2.202193e-004
3.025813e+003,-2.087605e-004
3.027741e+003,-1.371201e-004
3.029670e+003,-6.066419e-005
3.031598e+003,-9.432236e-005
3.033527e+003,-4.840613e-005
3.035455e+003,-9.965576e-005
3.037384e+003,-1.028028e-004
3.039312e+003,-1.712361e-004
3.041241e+003,-1.416249e-004
3.043169e+003,-9.886072e-005
3.045098e+003,-1.455997e-004
3.047026e+003,-2.294589e-004
3.048955e+003,-1.232411e-004
3.050883e+003,2.319445e-005
3.052812e+003,-7.454519e-005
3.054740e+003,-1.488789e-004
3.056669e+003,-1.700768e-004
3.058597e+003,-1.149599e-004
3.060526e+003,-9.544867e-005
3.062454e+003,-8.349698e-006
3.064383e+003,-1.231086e-004
3.066311e+003,-2.620443e-004
3.068240e+003,-1.456659e-004
3.070168e+003,-1.291042e-004
3.072097e+003,-6.533541e-005
3.074025e+003,-1.222629e-005
3.075954e+003,-9.071152e-005
3.077882e+003,-1.137343e-004
3.079811e+003,-3.826813e-005
3.081739e+003,4.980332e-005
3.083668e+003,1.025288e-004
3.085596e+003,-3.707541e-005
3.087525e+003,-1.040947e-004
3.089453e+003,-3.982529e-005
3.091382e+003,-5.476712e-005
3.093310e+003,-1.615978e-004
3.095239e+003,-2.686009e-004
3.097167e+003,-2.157153e-004
3.099096e+003,-6.782008e-005
3.101024e+003,-9.826444e-005
3.102953e+003,-2.130990e-004
3.104881e+003,-2.062767e-004
3.106810e+003,-1.265205e-004
3.108738e+003,-3.164186e-005
3.110667e+003,-1.047241e-004
3.112595e+003,-6.129365e-005
3.114524e+003,5.570189e-005
3.116452e+003,1.603717e-005
3.118381e+003,-1.055522e-004
3.120309e+003,5.732227e-006
3.122238e+003,1.365144e-005
3.124166e+003,-3.591581e-005
3.126095e+003,-1.391627e-006
3.128023e+003,5.096314e-005
3.129952e+003,2.292936e-005
3.131880e+003,-7.066916e-005
3.133809e+003,-2.831043e-004
3.135737e+003,-2.629384e-004
3.137666e+003,-1.235061e-004
3.139594e+003,-1.791519e-004
3.141523e+003,-1.356627e-004
3.143451e+003,1.451295e-005
3.145380e+003,3.767504e-005
3.147308e+003,4.983645e-005
3.149237e+003,-7.775863e-005
3.151165e+003,-7.659914e-005
3.153094e+003,4.016031e-005
3.155022e+003,-1.567212e-005
3.156951e+003,-3.205198e-004
3.158879e+003,-3.188643e-004
3.160808e+003,-2.036272e-004
3.162736e+003,-1.904790e-004
3.164665e+003,-2.515470e-004
3.166593e+003,-2.157815e-004
3.168522e+003,-1.348015e-004
3.170450e+003,-1.395382e-004
3.172379e+003,-6.192311e-005
3.174307e+003,7.826965e-005
3.176236e+003,1.291426e-004
3.178164e+003,-1.189496e-005
3.180093e+003,-1.381138e-004
3.182021e+003,-1.844843e-004
3.183950e+003,-1.916712e-004
3.185878e+003,-1.592793e-004
3.187807e+003,-1.109849e-004
3.189735e+003,-1.039953e-004
3.191664e+003,-8.852513e-005
3.193592e+003,-2.098866e-004
3.195521e+003,-2.938657e-004
3.197449e+003,-1.448379e-004
3.199378e+003,-1.329797e-004
3.201306e+003,-3.498814e-005
3.203235e+003,6.129841e-006
3.205163e+003,-8.054138e-005
3.207092e+003,-1.132043e-004
3.209020e+003,-8.372165e-005
3.210948e+003,-8.252905e-005
3.212877e+003,-6.941026e-005
3.214806e+003,-4.048791e-005
3.216734e+003,-6.404338e-005
3.218663e+003,-6.367896e-005
3.220591e+003,-8.199901e-005
3.222520e+003,-1.856766e-004
3.224448e+003,-2.329692e-004
3.226376e+003,-2.110788e-004
3.228305e+003,-1.147611e-004
3.230234e+003,-1.491029e-006
3.232162e+003,5.192414e-005
3.234091e+003,9.874056e-006
3.236019e+003,8.221333e-005
3.237948e+003,3.081575e-005
3.239876e+003,-4.244263e-005
3.241804e+003,-1.140324e-004
3.243733e+003,-1.991231e-004
3.245662e+003,-2.480700e-004
3.247590e+003,-2.453214e-004
3.249519e+003,-2.287303e-004
3.251447e+003,-1.677584e-004
3.253375e+003,-2.333666e-004
3.255304e+003,-2.196563e-004
3.257232e+003,-1.384782e-004
3.259161e+003,-1.703418e-004
3.261090e+003,-1.272492e-004
3.263018e+003,-1.597430e-004
3.264947e+003,-1.332778e-004
3.266875e+003,-7.066916e-005
3.268803e+003,-2.137282e-004
3.270732e+003,-1.219161e-004
3.272660e+003,2.319389e-006
3.274589e+003,-1.295522e-005
3.276518e+003,-8.229716e-005
3.278446e+003,-1.244999e-004
3.280375e+003,-1.020740e-004
3.282303e+003,-1.915105e-005
3.284231e+003,-7.603596e-005
3.286160e+003,-1.195312e-004
3.288088e+003,-1.896510e-004
3.290017e+003,-1.749456e-004
3.291946e+003,-1.716335e-004
3.293874e+003,-1.159676e-005
3.295802e+003,1.893692e-004
3.297731e+003,9.918150e-005
3.299659e+003,-1.264211e-004
3.301588e+003,-1.370208e-004
3.303516e+003,-1.045253e-004
3.305445e+003,-1.510886e-005
3.307374e+003,-5.599617e-006
3.309302e+003,-8.739880e-005
3.311230e+003,-2.150529e-004
3.313159e+003,-1.704412e-004
3.315087e+003,-6.076358e-005
3.317016e+003,-8.541116e-005
3.318944e+003,-1.079704e-004
3.320873e+003,-1.133699e-004
3.322802e+003,1.365144e-005
3.324730e+003,1.458805e-004
3.326658e+003,1.113115e-004
3.328587e+003,-3.512194e-006
3.330515e+003,-8.524552e-005
3.332444e+003,-1.537479e-004
3.334372e+003,-2.760182e-004
3.336301e+003,-1.168480e-004
3.338229e+003,5.897899e-006
3.340158e+003,-1.952812e-004
3.342086e+003,-2.152185e-004
3.344015e+003,-7.225932e-005
3.345943e+003,-1.650044e-005
3.347872e+003,2.842994e-005
3.349800e+003,1.524169e-006
3.351729e+003,1.086933e-004
3.353657e+003,1.378595e-004
3.355586e+003,-2.014503e-005
3.357514e+003,-1.063141e-004
3.359443e+003,8.188193e-005
3.361371e+003,1.609618e-004
3.363300e+003,8.572622e-005
3.365229e+003,1.882421e-004
3.367157e+003,1.664310e-004
3.369085e+003,-1.610284e-005
3.371014e+003,2.952343e-005
3.372942e+003,7.734173e-005
3.374871e+003,1.073344e-004
3.376799e+003,3.409627e-005
3.378728e+003,-8.670313e-005
3.380656e+003,-2.132646e-004
3.382585e+003,-2.661835e-004
3.384513e+003,-8.127019e-005
3.386442e+003,7.885973e-006
3.388370e+003,7.628126e-005
3.390299e+003,8.728383e-005
3.392227e+003,-7.971318e-005
3.394156e+003,-5.393887e-005
3.396084e+003,-8.819385e-005
3.398013e+003,-9.826444e-005
3.399941e+003,-9.100967e-005
3.401870e+003,-2.123840e-005
3.403798e+003,-7.424704e-005
3.405727e+003,-1.961092e-004
3.407655e+003,-1.508331e-004
3.409584e+003,2.876130e-005
3.411512e+003,5.175845e-005
3.413441e+003,3.939816e-005
3.415369e+003,4.844467e-005
3.417298e+003,3.591878e-005
3.419226e+003,-4.141735e-006
3.421155e+003,-1.035315e-004
3.423083e+003,-2.113900e-005
3.425012e+003,7.217193e-005
3.426940e+003,-3.949398e-005
3.428869e+003,-3.366288e-005
3.430797e+003,1.524433e-004
3.432726e+003,2.005404e-004
3.434654e+003,5.632823e-006
3.436583e+003,2.601100e-005
3.438511e+003,1.272202e-004
3.440440e+003,7.684463e-005
3.442368e+003,9.119445e-005
3.444297e+003,-5.268280e-006
3.446225e+003,-3.883136e-005
3.448154e+003,7.591672e-005
3.450082e+003,1.928444e-005
3.452011e+003,-1.641813e-004
3.453939e+003,-2.714486e-004
3.455868e+003,-2.856060e-005
3.457796e+003,7.492252e-005
3.459725e+003,-2.561186e-005
3.461653e+003,-8.686876e-005
3.463582e+003,-2.004563e-005
3.465510e+003,5.616583e-005
3.467439e+003,1.318272e-004
3.469367e+003,2.127063e-004
3.471296e+003,-3.084670e-005
3.473224e+003,-2.258160e-004
3.475153e+003,-1.743163e-004
3.477081e+003,-1.961491e-005
3.479010e+003,2.359208e-005
3.480938e+003,-1.351848e-005
3.482867e+003,7.435915e-005
3.484795e+003,6.779753e-005
3.486724e+003,4.897487e-005
3.488652e+003,2.068388e-004
3.490581e+003,2.171485e-004
3.492509e+003,6.063953e-005
3.494438e+003,-3.664470e-005
3.496366e+003,-6.434154e-005
3.498295e+003,6.554407e-005
3.500223e+003,2.919207e-005
3.502152e+003,-2.365706e-005
3.504080e+003,3.591878e-005
3.506009e+003,7.651324e-005
3.507937e+003,-3.184065e-005
3.509866e+003,4.774878e-005
3.511794e+003,-3.531945e-005
3.513723e+003,-2.567812e-005
3.515651e+003,3.366549e-005
3.517580e+003,3.459331e-005
3.519508e+003,-1.842214e-005
3.521437e+003,2.001342e-005
3.523365e+003,1.596691e-004
3.525294e+003,3.371040e-004
3.527222e+003,2.690986e-004
3.529151e+003,1.622214e-004
3.531079e+003,1.612933e-004
3.533008e+003,1.622214e-004
3.534936e+003,1.526422e-004
3.536865e+003,2.912133e-004
3.538793e+003,1.880101e-004
3.540722e+003,-6.967530e-005
3.542650e+003,2.054359e-005
3.544579e+003,8.135169e-005
3.546507e+003,-5.980282e-005
3.548436e+003,3.210807e-005
3.550364e+003,2.473498e-004
3.552293e+003,2.487090e-004
3.554221e+003,4.615817e-005
3.556150e+003,-4.373473e-005
3.558078e+003,5.278573e-005
3.560007e+003,1.864853e-004
3.561935e+003,2.385643e-004
3.563864e+003,1.328547e-004
3.565792e+003,-4.307212e-005
3.567721e+003,-1.513630e-004
3.569649e+003,-1.783239e-004
3.571578e+003,-9.675032e-006
3.573506e+003,1.517141e-004
3.575435e+003,2.622357e-004
3.577363e+003,6.948764e-005
3.579292e+003,-8.319160e-005
3.581220e+003,2.223351e-005
3.583149e+003,1.133995e-004
3.585077e+003,4.741740e-005
3.587006e+003,-1.805768e-005
3.588934e+003,-6.424215e-005
3.590863e+003,2.849621e-005
3.592791e+003,7.313299e-005
3.594720e+003,1.299711e-004
3.596648e+003,1.064727e-004
3.598577e+003,2.856248e-005
3.600505e+003,-1.149736e-005
3.602434e+003,-2.501548e-005
3.604362e+003,2.004656e-005
3.606291e+003,-1.330459e-004
3.608219e+003,-6.831701e-005
3.610148e+003,1.372297e-004
3.612076e+003,-7.083480e-005
3.614005e+003,-2.465103e-005
3.615933e+003,1.277505e-004
3.617862e+003,1.282477e-004
3.619790e+003,1.141949e-004
3.621719e+003,8.211391e-005
3.623647e+003,4.397110e-005
3.625576e+003,2.203470e-005
3.627504e+003,-1.399688e-004
3.629433e+003,-1.978057e-005
3.631361e+003,2.601138e-004
3.633290e+003,2.487422e-004
3.635218e+003,7.750744e-005
3.637146e+003,2.361111e-004
3.639075e+003,3.160149e-004
3.641004e+003,3.606812e-004
3.642932e+003,2.442997e-004
3.644861e+003,1.795905e-004
3.646789e+003,8.698556e-005
3.648718e+003,3.200866e-005
3.650646e+003,1.186029e-004
3.652574e+003,-4.065356e-005
3.654503e+003,-9.008211e-005
3.656432e+003,2.676067e-004
3.658360e+003,3.736808e-004
3.660289e+003,6.667081e-005
3.662217e+003,-1.191668e-004
3.664146e+003,1.035231e-004
3.666074e+003,2.625009e-004
3.668002e+003,2.583567e-004
3.669931e+003,1.450851e-004
3.671860e+003,1.023300e-004
3.673788e+003,3.015302e-005
3.675717e+003,2.975462e-004
3.677645e+003,4.867135e-004
3.679573e+003,3.449961e-004
3.681502e+003,2.229167e-004
3.683430e+003,1.883416e-004
3.685359e+003,2.512287e-004
3.687288e+003,3.268909e-004
3.689216e+003,3.404200e-004
3.691145e+003,2.325970e-004
3.693073e+003,2.690655e-004
3.695001e+003,4.031633e-004
3.696930e+003,3.547453e-004
3.698858e+003,3.737471e-004
3.700787e+003,1.391190e-004
3.702716e+003,-9.720439e-005
3.704644e+003,-1.878294e-004
3.706573e+003,-4.383412e-005
3.708501e+003,1.082624e-004
3.710429e+003,-1.021734e-004
3.712358e+003,-9.743628e-005
3.714286e+003,2.613405e-004
3.716215e+003,3.649591e-004
3.718144e+003,4.145058e-004
3.720072e+003,6.036245e-004
3.722000e+003,4.414372e-004
3.723929e+003,8.148425e-005
3.725857e+003,-7.898437e-005
3.727786e+003,1.251985e-004
3.729714e+003,3.797827e-004
3.731643e+003,3.829000e-004
3.733572e+003,3.907598e-004
3.735500e+003,4.007091e-004
3.737428e+003,3.884715e-004
3.739357e+003,3.985534e-004
3.741285e+003,3.378998e-004
3.743214e+003,5.954595e-005
3.745142e+003,1.038876e-004
3.747071e+003,3.681095e-004
3.749000e+003,4.812071e-004
3.750928e+003,3.906271e-004
3.752856e+003,2.233146e-004
3.754785e+003,3.186012e-004
3.756713e+003,4.279712e-004
3.758642e+003,4.146384e-004
3.760570e+003,3.360760e-004
3.762499e+003,3.829000e-004
3.764427e+003,5.901536e-004
3.766356e+003,5.954291e-004
3.768284e+003,4.499613e-004
3.770213e+003,4.880735e-004
3.772141e+003,6.205467e-004
3.774070e+003,4.717867e-004
3.775998e+003,2.883950e-004
3.777927e+003,1.253310e-004
3.779855e+003,2.681040e-004
3.781784e+003,4.803446e-004
3.783712e+003,2.208945e-004
3.785641e+003,9.046535e-005
3.787569e+003,1.224475e-004
3.789498e+003,3.783898e-004
3.791426e+003,5.774130e-004
3.793355e+003,5.740952e-004
3.795283e+003,6.011360e-004
3.797212e+003,4.134777e-004
3.799140e+003,2.503335e-004
3.801069e+003,3.035184e-005
3.802997e+003,-7.013910e-005
3.804926e+003,9.841924e-005
3.806854e+003,2.802387e-004
3.808783e+003,4.049873e-004
3.810711e+003,4.553346e-004
3.812640e+003,3.378003e-004
3.814568e+003,8.324068e-005
3.816497e+003,-2.365706e-005
3.818425e+003,-8.789571e-005
3.820354e+003,1.759453e-005
3.822282e+003,4.565951e-004
3.824211e+003,5.900208e-004
3.826139e+003,4.037934e-004
3.828068e+003,3.132627e-004
3.829996e+003,2.352491e-004
3.831925e+003,2.765585e-004
3.833853e+003,3.661861e-004
3.835782e+003,2.431062e-004
3.837710e+003,1.423009e-004
3.839639e+003,1.063402e-004
3.841567e+003,5.894946e-005
3.843496e+003,1.051802e-004
3.845424e+003,3.872776e-004
3.847353e+003,4.426643e-004
3.849281e+003,3.394583e-004
3.851210e+003,2.216239e-004
3.853138e+003,6.040755e-005
3.855067e+003,1.241710e-004
3.856995e+003,4.321503e-004
3.858924e+003,6.348813e-004
3.860852e+003,7.351040e-004
3.862781e+003,5.706779e-004
3.864709e+003,3.296099e-004
3.866638e+003,1.927835e-004
3.868566e+003,1.744526e-004
3.870495e+003,3.750404e-004
3.872423e+003,4.847564e-004
3.874352e+003,4.414040e-004
3.876280e+003,3.654565e-004
3.878209e+003,2.039548e-004
3.880137e+003,2.808355e-004
3.882066e+003,4.303924e-004
3.883994e+003,4.247209e-004
3.885923e+003,4.541406e-004
3.887851e+003,4.585189e-004
3.889780e+003,4.254174e-004
3.891708e+003,6.268512e-004
3.893637e+003,5.484826e-004
3.895565e+003,4.395797e-004
3.897494e+003,5.506722e-004
3.899422e+003,4.488004e-004
3.901351e+003,3.903950e-004
3.903279e+003,3.452282e-004
3.905208e+003,5.494779e-004
3.907136e+003,6.054162e-004
3.909065e+003,4.980913e-004
3.910993e+003,4.710569e-004
3.912922e+003,3.965303e-004
3.914850e+003,3.480800e-004
3.916779e+003,3.179049e-004
3.918707e+003,4.659820e-004
3.920636e+003,6.669368e-004
3.922564e+003,5.899877e-004
3.924493e+003,4.238586e-004
3.926421e+003,5.953295e-004
3.928350e+003,5.805981e-004
3.930278e+003,4.797144e-004
3.932207e+003,5.621845e-004
3.934135e+003,5.969885e-004
3.936064e+003,7.197373e-004
3.937992e+003,7.236868e-004
3.939921e+003,5.536249e-004
3.941849e+003,4.562302e-004
3.943778e+003,4.440574e-004
3.945706e+003,3.958339e-004
3.947635e+003,5.091378e-004
3.949563e+003,5.966899e-004
3.951492e+003,4.134777e-004
3.953420e+003,2.850131e-004
3.955349e+003,2.708558e-004
3.957277e+003,3.227792e-004
3.959206e+003,6.409205e-004
3.961134e+003,8.023193e-004
3.963063e+003,4.617031e-004
3.964991e+003,2.154910e-004
3.966920e+003,4.671097e-004
3.968848e+003,7.640136e-004
3.970777e+003,8.503556e-004
3.972705e+003,1.070056e-003
3.974634e+003,9.166590e-004
3.976562e+003,6.865827e-004
3.978491e+003,8.199132e-004
3.980419e+003,8.289428e-004
3.982348e+003,4.569599e-004
3.984276e+003,4.436926e-004
3.986205e+003,7.581718e-004
3.988133e+003,8.671214e-004
3.990062e+003,4.764968e-004
3.991990e+003,4.180545e-004
3.993919e+003,6.086679e-004
3.995847e+003,8.315654e-004
3.997776e+003,9.227686e-004
3.999704e+003,8.366778e-004
4.001633e+003,0.000000e+000
