3.991989e+002,2.271297e-002
4.011274e+002,2.335620e-002
4.030559e+002,1.857112e-002
4.049844e+002,1.692015e-002
4.069129e+002,1.784416e-002
4.088414e+002,2.380216e-002
4.107699e+002,2.317983e-002
4.126984e+002,1.950243e-002
4.146269e+002,1.141474e-002
4.165554e+002,1.173700e-002
4.184839e+002,1.976056e-002
4.204124e+002,2.080297e-002
4.223409e+002,1.999205e-002
4.242694e+002,2.310942e-002
4.261979e+002,2.152786e-002
4.281264e+002,1.938382e-002
4.300549e+002,1.627101e-002
4.319834e+002,9.147959e-003
4.339119e+002,1.244121e-002
4.358404e+002,2.054238e-002
4.377689e+002,2.223004e-002
4.396974e+002,1.697224e-002
4.416259e+002,1.431098e-002
4.435544e+002,1.305433e-002
4.454829e+002,1.341799e-002
4.474114e+002,2.111731e-002
4.493399e+002,1.989856e-002
4.512684e+002,1.612466e-002
4.531969e+002,1.342486e-002
4.551254e+002,1.724090e-002
4.570539e+002,1.704850e-002
4.589824e+002,1.242566e-002
4.609109e+002,1.234793e-002
4.628394e+002,1.497143e-002
4.647679e+002,1.484000e-002
4.666964e+002,1.512096e-002
4.686249e+002,1.328607e-002
4.705533e+002,1.413408e-002
4.724819e+002,1.691436e-002
4.744103e+002,1.801882e-002
4.763389e+002,1.833541e-002
4.782673e+002,1.778997e-002
4.801959e+002,1.617456e-002
4.821243e+002,1.800497e-002
4.840529e+002,1.972619e-002
4.859813e+002,1.973819e-002
4.879099e+002,1.956191e-002
4.898383e+002,1.884527e-002
4.917668e+002,1.718464e-002
4.936953e+002,1.853526e-002
4.956238e+002,1.914209e-002
4.975523e+002,1.835984e-002
4.994808e+002,1.893697e-002
5.014093e+002,1.973340e-002
5.033378e+002,1.912512e-002
5.052663e+002,2.063063e-002
5.071948e+002,1.842670e-002
5.091233e+002,1.718578e-002
5.110518e+002,1.720884e-002
5.129803e+002,1.671123e-002
5.149088e+002,1.672572e-002
5.168373e+002,1.789630e-002
5.187658e+002,1.772818e-002
5.206943e+002,1.734076e-002
5.226228e+002,1.659196e-002
5.245513e+002,1.710461e-002
5.264798e+002,1.722832e-002
5.284083e+002,1.738041e-002
5.303368e+002,1.660064e-002
5.322653e+002,1.654102e-002
5.341938e+002,1.681747e-002
5.361223e+002,1.740604e-002
5.380508e+002,1.778645e-002
5.399792e+002,1.896705e-002
5.419078e+002,1.822910e-002
5.438363e+002,1.774785e-002
5.457648e+002,1.764753e-002
5.476932e+002,1.748213e-002
5.496218e+002,1.749061e-002
5.515503e+002,1.783291e-002
5.534788e+002,1.766344e-002
5.554072e+002,1.884585e-002
5.573358e+002,1.914531e-002
5.592643e+002,1.981920e-002
5.611927e+002,1.946757e-002
5.631212e+002,1.948150e-002
5.650497e+002,1.918600e-002
5.669783e+002,1.989814e-002
5.689067e+002,2.104521e-002
5.708352e+002,2.010458e-002
5.727637e+002,1.759218e-002
5.746923e+002,1.662708e-002
5.766207e+002,1.788052e-002
5.785492e+002,1.875852e-002
5.804777e+002,1.130427e-002
5.824063e+002,9.962593e-003
5.843347e+002,1.727676e-002
5.862632e+002,2.019392e-002
5.881917e+002,2.026109e-002
5.901202e+002,1.842213e-002
5.920487e+002,1.747368e-002
5.939772e+002,1.699481e-002
5.959057e+002,1.704936e-002
5.978342e+002,2.008122e-002
5.997627e+002,2.307269e-002
6.016912e+002,2.505804e-002
6.036197e+002,2.596413e-002
6.055482e+002,2.742863e-002
6.074767e+002,2.834399e-002
6.094052e+002,2.928848e-002
6.113337e+002,3.082951e-002
6.132622e+002,3.058567e-002
6.151907e+002,2.848266e-002
6.171192e+002,2.749922e-002
6.190477e+002,2.763960e-002
6.209762e+002,2.820770e-002
6.229047e+002,2.615324e-002
6.248332e+002,2.220250e-002
6.267617e+002,1.844720e-002
6.286902e+002,1.623176e-002
6.306187e+002,1.535428e-002
6.325472e+002,1.573300e-002
6.344756e+002,1.648337e-002
6.364042e+002,1.627589e-002
6.383326e+002,1.517541e-002
6.402612e+002,1.429667e-002
6.421896e+002,1.520872e-002
6.441182e+002,1.563190e-002
6.460466e+002,1.517987e-002
6.479752e+002,1.492610e-002
6.499036e+002,1.426660e-002
6.518322e+002,1.376944e-002
6.537606e+002,1.433598e-002
6.556891e+002,1.451464e-002
6.576177e+002,1.382557e-002
6.595461e+002,1.315459e-002
6.614746e+002,1.262667e-002
6.634031e+002,1.271632e-002
6.653317e+002,1.383699e-002
6.672601e+002,1.819545e-002
6.691886e+002,1.692987e-002
6.711171e+002,1.380997e-002
6.730457e+002,1.366603e-002
6.749741e+002,1.371971e-002
6.769026e+002,1.286971e-002
6.788311e+002,1.296949e-002
6.807596e+002,1.412829e-002
6.826881e+002,1.434201e-002
6.846166e+002,1.484284e-002
6.865451e+002,1.459753e-002
6.884736e+002,1.435372e-002
6.904021e+002,1.428400e-002
6.923306e+002,1.453972e-002
6.942591e+002,1.491663e-002
6.961876e+002,1.498820e-002
6.981161e+002,1.453770e-002
7.000446e+002,1.438043e-002
7.019731e+002,1.430557e-002
7.039016e+002,1.445212e-002
7.058301e+002,1.462347e-002
7.077585e+002,1.449498e-002
7.096871e+002,1.464523e-002
7.116156e+002,1.518052e-002
7.135441e+002,1.509773e-002
7.154725e+002,1.520969e-002
7.174011e+002,1.559384e-002
7.193296e+002,1.612164e-002
7.212581e+002,1.678113e-002
7.231865e+002,1.738783e-002
7.251151e+002,1.756006e-002
7.270436e+002,1.755992e-002
7.289720e+002,1.802787e-002
7.309005e+002,1.863434e-002
7.328290e+002,1.866011e-002
7.347576e+002,1.838922e-002
7.366860e+002,1.836413e-002
7.386145e+002,1.839800e-002
7.405430e+002,1.870909e-002
7.424716e+002,1.897134e-002
7.444000e+002,1.901738e-002
7.463285e+002,1.921603e-002
7.482570e+002,1.880966e-002
7.501855e+002,1.831816e-002
7.521140e+002,1.877810e-002
7.540425e+002,1.921765e-002
7.559710e+002,1.934322e-002
7.578995e+002,1.948407e-002
7.598280e+002,1.940991e-002
7.617565e+002,1.962045e-002
7.636850e+002,1.973920e-002
7.656135e+002,1.981140e-002
7.675420e+002,1.975456e-002
7.694705e+002,1.918874e-002
7.713990e+002,1.929590e-002
7.733275e+002,1.953965e-002
7.752560e+002,1.941275e-002
7.771844e+002,1.940620e-002
7.791130e+002,1.899571e-002
7.810415e+002,1.849885e-002
7.829700e+002,1.777347e-002
7.848984e+002,1.779186e-002
7.868270e+002,1.804179e-002
7.887555e+002,1.764490e-002
7.906840e+002,1.739266e-002
7.926124e+002,1.768935e-002
7.945410e+002,1.743146e-002
7.964695e+002,1.660470e-002
7.983979e+002,1.609093e-002
8.003264e+002,1.591887e-002
8.022549e+002,1.611737e-002
8.041835e+002,1.653000e-002
8.061119e+002,1.687089e-002
8.080404e+002,1.720374e-002
8.099689e+002,1.752014e-002
8.118975e+002,1.752863e-002
8.138259e+002,1.795759e-002
8.157545e+002,1.818971e-002
8.176830e+002,1.850455e-002
8.196115e+002,1.816947e-002
8.215399e+002,1.773236e-002
8.234684e+002,1.773974e-002
8.253970e+002,1.776139e-002
8.273254e+002,1.747499e-002
8.292539e+002,1.722690e-002
8.311824e+002,1.707555e-002
8.331110e+002,1.716458e-002
8.350394e+002,1.712856e-002
8.369679e+002,1.730272e-002
8.388964e+002,1.727945e-002
8.408250e+002,1.740121e-002
8.427534e+002,1.716665e-002
8.446819e+002,1.679994e-002
8.466104e+002,1.691443e-002
8.485389e+002,1.708148e-002
8.504674e+002,1.695629e-002
8.523959e+002,1.686008e-002
8.543244e+002,1.661451e-002
8.562529e+002,1.677252e-002
8.581814e+002,1.712404e-002
8.601099e+002,1.717533e-002
8.620384e+002,1.704729e-002
8.639669e+002,1.738386e-002
8.658954e+002,1.763082e-002
8.678239e+002,1.718364e-002
8.697524e+002,1.707717e-002
8.716809e+002,1.692053e-002
8.736094e+002,1.680125e-002
8.755378e+002,1.686858e-002
8.774664e+002,1.735182e-002
8.793949e+002,1.727090e-002
8.813234e+002,1.701156e-002
8.832518e+002,1.736293e-002
8.851804e+002,1.732565e-002
8.871089e+002,1.713921e-002
8.890374e+002,1.706180e-002
8.909658e+002,1.719667e-002
8.928943e+002,1.754025e-002
8.948229e+002,1.755198e-002
8.967513e+002,1.761054e-002
8.986798e+002,1.779269e-002
9.006083e+002,1.760564e-002
9.025369e+002,1.744598e-002
9.044653e+002,1.751949e-002
9.063938e+002,1.733300e-002
9.083223e+002,1.707824e-002
9.102509e+002,1.692398e-002
9.121793e+002,1.693276e-002
9.141078e+002,1.662835e-002
9.160364e+002,1.646847e-002
9.179648e+002,1.636358e-002
9.198933e+002,1.606720e-002
9.218218e+002,1.602028e-002
9.237504e+002,1.607886e-002
9.256788e+002,1.578653e-002
9.276073e+002,1.513293e-002
9.295358e+002,1.474891e-002
9.314644e+002,1.479841e-002
9.333928e+002,1.495429e-002
9.353213e+002,1.513643e-002
9.372498e+002,1.513262e-002
9.391783e+002,1.485841e-002
9.411068e+002,1.481380e-002
9.430353e+002,1.485710e-002
9.449637e+002,1.471538e-002
9.468923e+002,1.465945e-002
9.488208e+002,1.459677e-002
9.507493e+002,1.499383e-002
9.526777e+002,1.518807e-002
9.546063e+002,1.506758e-002
9.565348e+002,1.517417e-002
9.584633e+002,1.521096e-002
9.603917e+002,1.525495e-002
9.623203e+002,1.521730e-002
9.642488e+002,1.522832e-002
9.661772e+002,1.513214e-002
9.681057e+002,1.489479e-002
9.700343e+002,1.464273e-002
9.719628e+002,1.470510e-002
9.738912e+002,1.452112e-002
9.758197e+002,1.431834e-002
9.777483e+002,1.430742e-002
9.796768e+002,1.421716e-002
9.816052e+002,1.409091e-002
9.835337e+002,1.374735e-002
9.854623e+002,1.328914e-002
9.873907e+002,1.315275e-002
9.893192e+002,1.314933e-002
9.912477e+002,1.297314e-002
9.931763e+002,1.275870e-002
9.951047e+002,1.256210e-002
9.970332e+002,1.225740e-002
9.989617e+002,1.221057e-002
1.000890e+003,1.219622e-002
1.002819e+003,1.225280e-002
1.004747e+003,1.220065e-002
1.006676e+003,1.226295e-002
1.008604e+003,1.250944e-002
1.010533e+003,1.260497e-002
1.012461e+003,1.268094e-002
1.014390e+003,1.277013e-002
1.016318e+003,1.279282e-002
1.018247e+003,1.288767e-002
1.020175e+003,1.307045e-002
1.022104e+003,1.318728e-002
1.024032e+003,1.340733e-002
1.025961e+003,1.385851e-002
1.027889e+003,1.396666e-002
1.029818e+003,1.402496e-002
1.031746e+003,1.425547e-002
1.033675e+003,1.465921e-002
1.035603e+003,1.489599e-002
1.037532e+003,1.500237e-002
1.039460e+003,1.527255e-002
1.041389e+003,1.560009e-002
1.043317e+003,1.585687e-002
1.045246e+003,1.595685e-002
1.047174e+003,1.604004e-002
1.049103e+003,1.609815e-002
1.051031e+003,1.591378e-002
1.052960e+003,1.582061e-002
1.054888e+003,1.572685e-002
1.056817e+003,1.582439e-002
1.058745e+003,1.589443e-002
1.060674e+003,1.584948e-002
1.062602e+003,1.582189e-002
1.064531e+003,1.564375e-002
1.066459e+003,1.552629e-002
1.068388e+003,1.560342e-002
1.070316e+003,1.578216e-002
1.072245e+003,1.584993e-002
1.074173e+003,1.574986e-002
1.076102e+003,1.566216e-002
1.078030e+003,1.556705e-002
1.079959e+003,1.555421e-002
1.081887e+003,1.560284e-002
1.083816e+003,1.583962e-002
1.085744e+003,1.588220e-002
1.087673e+003,1.571365e-002
1.089601e+003,1.585924e-002
1.091530e+003,1.627555e-002
1.093458e+003,1.654997e-002
1.095387e+003,1.668334e-002
1.097315e+003,1.682446e-002
1.099244e+003,1.704929e-002
1.101172e+003,1.724983e-002
1.103101e+003,1.724842e-002
1.105029e+003,1.739717e-002
1.106958e+003,1.755271e-002
1.108886e+003,1.774054e-002
1.110815e+003,1.767386e-002
1.112743e+003,1.768059e-002
1.114672e+003,1.773916e-002
1.116600e+003,1.792855e-002
1.118529e+003,1.805188e-002
1.120457e+003,1.797555e-002
1.122386e+003,1.785501e-002
1.124314e+003,1.773795e-002
1.126243e+003,1.757055e-002
1.128171e+003,1.760415e-002
1.130100e+003,1.782821e-002
1.132028e+003,1.772953e-002
1.133957e+003,1.735655e-002
1.135885e+003,1.712994e-002
1.137814e+003,1.675458e-002
1.139742e+003,1.605184e-002
1.141671e+003,1.579604e-002
1.143599e+003,1.563739e-002
1.145528e+003,1.521881e-002
1.147456e+003,1.493848e-002
1.149385e+003,1.479656e-002
1.151313e+003,1.460572e-002
1.153242e+003,1.430149e-002
1.155170e+003,1.411518e-002
1.157099e+003,1.399403e-002
1.159027e+003,1.387753e-002
1.160956e+003,1.377358e-002
1.162884e+003,1.364507e-002
1.164813e+003,1.348990e-002
1.166741e+003,1.346601e-002
1.168670e+003,1.357395e-002
1.170598e+003,1.360113e-002
1.172526e+003,1.356903e-002
1.174455e+003,1.339510e-002
1.176384e+003,1.359077e-002
1.178312e+003,1.368275e-002
1.180240e+003,1.347671e-002
1.182169e+003,1.332272e-002
1.184098e+003,1.316252e-002
1.186026e+003,1.295942e-002
1.187954e+003,1.285275e-002
1.189883e+003,1.274959e-002
1.191812e+003,1.268432e-002
1.193740e+003,1.268538e-002
1.195668e+003,1.245938e-002
1.197597e+003,1.202692e-002
1.199526e+003,1.195471e-002
1.201454e+003,1.212719e-002
1.203382e+003,1.217377e-002
1.205311e+003,1.201071e-002
1.207240e+003,1.187363e-002
1.209168e+003,1.184819e-002
1.211096e+003,1.192611e-002
1.213025e+003,1.210116e-002
1.214953e+003,1.210637e-002
1.216882e+003,1.205196e-002
1.218810e+003,1.206988e-002
1.220739e+003,1.198411e-002
1.222667e+003,1.205326e-002
1.224596e+003,1.221592e-002
1.226524e+003,1.226363e-002
1.228453e+003,1.237544e-002
1.230381e+003,1.244148e-002
1.232310e+003,1.247466e-002
1.234238e+003,1.263772e-002
1.236167e+003,1.269619e-002
1.238095e+003,1.280617e-002
1.240024e+003,1.295843e-002
1.241952e+003,1.299915e-002
1.243881e+003,1.288084e-002
1.245809e+003,1.289265e-002
1.247738e+003,1.292193e-002
1.249666e+003,1.309534e-002
1.251595e+003,1.312724e-002
1.253523e+003,1.302841e-002
1.255452e+003,1.306946e-002
1.257380e+003,1.297983e-002
1.259309e+003,1.301763e-002
1.261237e+003,1.313191e-002
1.263166e+003,1.323093e-002
1.265094e+003,1.364493e-002
1.267023e+003,1.402055e-002
1.268951e+003,1.416033e-002
1.270880e+003,1.438667e-002
1.272808e+003,1.447415e-002
1.274737e+003,1.455099e-002
1.276665e+003,1.471244e-002
1.278594e+003,1.483156e-002
1.280522e+003,1.501074e-002
1.282451e+003,1.513382e-002
1.284379e+003,1.530753e-002
1.286308e+003,1.544841e-002
1.288236e+003,1.565975e-002
1.290165e+003,1.594025e-002
1.292093e+003,1.606580e-002
1.294022e+003,1.631789e-002
1.295950e+003,1.655857e-002
1.297879e+003,1.645246e-002
1.299807e+003,1.618416e-002
1.301736e+003,1.614777e-002
1.303664e+003,1.607054e-002
1.305593e+003,1.593953e-002
1.307521e+003,1.598703e-002
1.309450e+003,1.598459e-002
1.311378e+003,1.557347e-002
1.313307e+003,1.517503e-002
1.315235e+003,1.501355e-002
1.317164e+003,1.496173e-002
1.319092e+003,1.472275e-002
1.321021e+003,1.438461e-002
1.322949e+003,1.419559e-002
1.324878e+003,1.411569e-002
1.326806e+003,1.395841e-002
1.328735e+003,1.399920e-002
1.330663e+003,1.409838e-002
1.332592e+003,1.405313e-002
1.334520e+003,1.406559e-002
1.336449e+003,1.411059e-002
1.338377e+003,1.414335e-002
1.340306e+003,1.396778e-002
1.342234e+003,1.380255e-002
1.344163e+003,1.367646e-002
1.346091e+003,1.362335e-002
1.348020e+003,1.384219e-002
1.349948e+003,1.384660e-002
1.351877e+003,1.374591e-002
1.353805e+003,1.376041e-002
1.355734e+003,1.370781e-002
1.357662e+003,1.363348e-002
1.359591e+003,1.356695e-002
1.361519e+003,1.362308e-002
1.363448e+003,1.357905e-002
1.365376e+003,1.332467e-002
1.367305e+003,1.311603e-002
1.369233e+003,1.300571e-002
1.371162e+003,1.303193e-002
1.373090e+003,1.313168e-002
1.375019e+003,1.301865e-002
1.376947e+003,1.296375e-002
1.378876e+003,1.297997e-002
1.380804e+003,1.292508e-002
1.382733e+003,1.286592e-002
1.384661e+003,1.292572e-002
1.386590e+003,1.300492e-002
1.388518e+003,1.285958e-002
1.390447e+003,1.258454e-002
1.392375e+003,1.239631e-002
1.394304e+003,1.235335e-002
1.396232e+003,1.224346e-002
1.398161e+003,1.222884e-002
1.400089e+003,1.221043e-002
1.402018e+003,1.201217e-002
1.403946e+003,1.191330e-002
1.405875e+003,1.195175e-002
1.407803e+003,1.185020e-002
1.409732e+003,1.187148e-002
1.411660e+003,1.197382e-002
1.413589e+003,1.197185e-002
1.415517e+003,1.205816e-002
1.417446e+003,1.242597e-002
1.419374e+003,1.283036e-002
1.421303e+003,1.295392e-002
1.423231e+003,1.332922e-002
1.425160e+003,1.377132e-002
1.427088e+003,1.399293e-002
1.429017e+003,1.446713e-002
1.430945e+003,1.493995e-002
1.432874e+003,1.536653e-002
1.434802e+003,1.586694e-002
1.436731e+003,1.627634e-002
1.438659e+003,1.648051e-002
1.440588e+003,1.679429e-002
1.442516e+003,1.721580e-002
1.444445e+003,1.758359e-002
1.446373e+003,1.802131e-002
1.448302e+003,1.839258e-002
1.450230e+003,1.852948e-002
1.452159e+003,1.869553e-002
1.454087e+003,1.914161e-002
1.456016e+003,1.984618e-002
1.457944e+003,2.009254e-002
1.459873e+003,1.980110e-002
1.461801e+003,1.953498e-002
1.463730e+003,1.944529e-002
1.465658e+003,1.910130e-002
1.467587e+003,1.860978e-002
1.469515e+003,1.844180e-002
1.471444e+003,1.829065e-002
1.473372e+003,1.796671e-002
1.475301e+003,1.761316e-002
1.477229e+003,1.706256e-002
1.479158e+003,1.639706e-002
1.481086e+003,1.602000e-002
1.483015e+003,1.546791e-002
1.484943e+003,1.490439e-002
1.486872e+003,1.456559e-002
1.488800e+003,1.436088e-002
1.490729e+003,1.417142e-002
1.492657e+003,1.377689e-002
1.494586e+003,1.354982e-002
1.496514e+003,1.336923e-002
1.498443e+003,1.302124e-002
1.500371e+003,1.265123e-002
1.502300e+003,1.255876e-002
1.504228e+003,1.283845e-002
1.506157e+003,1.319302e-002
1.508085e+003,1.280152e-002
1.510014e+003,1.229728e-002
1.511942e+003,1.213267e-002
1.513871e+003,1.208910e-002
1.515799e+003,1.221912e-002
1.517728e+003,1.231336e-002
1.519656e+003,1.234612e-002
1.521585e+003,1.248864e-002
1.523513e+003,1.233273e-002
1.525442e+003,1.230985e-002
1.527370e+003,1.218399e-002
1.529299e+003,1.218280e-002
1.531227e+003,1.230239e-002
1.533156e+003,1.256831e-002
1.535084e+003,1.250426e-002
1.537013e+003,1.258263e-002
1.538941e+003,1.311679e-002
1.540870e+003,1.337432e-002
1.542798e+003,1.322833e-002
1.544727e+003,1.319390e-002
1.546655e+003,1.303716e-002
1.548584e+003,1.303278e-002
1.550512e+003,1.306471e-002
1.552441e+003,1.303415e-002
1.554369e+003,1.317006e-002
1.556298e+003,1.342377e-002
1.558226e+003,1.403164e-002
1.560155e+003,1.419706e-002
1.562083e+003,1.390404e-002
1.564012e+003,1.402250e-002
1.565940e+003,1.416502e-002
1.567869e+003,1.440040e-002
1.569797e+003,1.477479e-002
1.571726e+003,1.471820e-002
1.573654e+003,1.473633e-002
1.575583e+003,1.503255e-002
1.577511e+003,1.501218e-002
1.579440e+003,1.494400e-002
1.581368e+003,1.491591e-002
1.583297e+003,1.480657e-002
1.585225e+003,1.475528e-002
1.587154e+003,1.463340e-002
1.589082e+003,1.442900e-002
1.591010e+003,1.427393e-002
1.592939e+003,1.420240e-002
1.594868e+003,1.414164e-002
1.596796e+003,1.398352e-002
1.598724e+003,1.379769e-002
1.600653e+003,1.360120e-002
1.602582e+003,1.348556e-002
1.604510e+003,1.330011e-002
1.606438e+003,1.304228e-002
1.608367e+003,1.287449e-002
1.610296e+003,1.263748e-002
1.612224e+003,1.238819e-002
1.614152e+003,1.239235e-002
1.616081e+003,1.249764e-002
1.618010e+003,1.229312e-002
1.619938e+003,1.203943e-002
1.621866e+003,1.209932e-002
1.623795e+003,1.192195e-002
1.625724e+003,1.169948e-002
1.627652e+003,1.157911e-002
1.629580e+003,1.143134e-002
1.631509e+003,1.124932e-002
1.633438e+003,1.136086e-002
1.635366e+003,1.155457e-002
1.637294e+003,1.120807e-002
1.639223e+003,1.073066e-002
1.641151e+003,1.045630e-002
1.643080e+003,1.024968e-002
1.645008e+003,1.023092e-002
1.646937e+003,1.022277e-002
1.648865e+003,9.905607e-003
1.650794e+003,9.862896e-003
1.652722e+003,1.020683e-002
1.654651e+003,9.623561e-003
1.656579e+003,9.094192e-003
1.658508e+003,8.983700e-003
1.660436e+003,8.963607e-003
1.662365e+003,9.062625e-003
1.664293e+003,9.045336e-003
1.666222e+003,8.839014e-003
1.668150e+003,8.953054e-003
1.670079e+003,9.164676e-003
1.672007e+003,9.084379e-003
1.673936e+003,9.107218e-003
1.675864e+003,9.052373e-003
1.677793e+003,8.686398e-003
1.679721e+003,8.566177e-003
1.681650e+003,8.708067e-003
1.683578e+003,9.120753e-003
1.685507e+003,9.013840e-003
1.687435e+003,8.654996e-003
1.689364e+003,8.541440e-003
1.691292e+003,8.555870e-003
1.693221e+003,8.696201e-003
1.695149e+003,8.991007e-003
1.697078e+003,9.044862e-003
1.699006e+003,9.237474e-003
1.700935e+003,9.349654e-003
1.702863e+003,8.985222e-003
1.704792e+003,9.068511e-003
1.706720e+003,9.044829e-003
1.708649e+003,8.956775e-003
1.710577e+003,8.876077e-003
1.712506e+003,8.936852e-003
1.714434e+003,9.186910e-003
1.716363e+003,9.396072e-003
1.718291e+003,9.345389e-003
1.720220e+003,9.124577e-003
1.722148e+003,9.036168e-003
1.724077e+003,9.075312e-003
1.726005e+003,9.224950e-003
1.727934e+003,9.277820e-003
1.729862e+003,9.297825e-003
1.731791e+003,9.479238e-003
1.733719e+003,9.644328e-003
1.735648e+003,9.348131e-003
1.737576e+003,9.267326e-003
1.739505e+003,9.469382e-003
1.741433e+003,9.397461e-003
1.743362e+003,9.423601e-003
1.745290e+003,9.434300e-003
1.747219e+003,9.450249e-003
1.749147e+003,9.565805e-003
1.751076e+003,9.664892e-003
1.753004e+003,9.610552e-003
1.754933e+003,9.595851e-003
1.756861e+003,9.688744e-003
1.758790e+003,9.599408e-003
1.760718e+003,9.606319e-003
1.762647e+003,9.629761e-003
1.764575e+003,9.471381e-003
1.766504e+003,9.522960e-003
1.768432e+003,9.572072e-003
1.770361e+003,9.556626e-003
1.772289e+003,9.678173e-003
1.774218e+003,9.690912e-003
1.776146e+003,9.594360e-003
1.778075e+003,9.485265e-003
1.780003e+003,9.497254e-003
1.781932e+003,9.492445e-003
1.783860e+003,9.482624e-003
1.785789e+003,9.524213e-003
1.787717e+003,9.493597e-003
1.789646e+003,9.490481e-003
1.791574e+003,9.591786e-003
1.793503e+003,9.630099e-003
1.795431e+003,9.614212e-003
1.797360e+003,9.657642e-003
1.799288e+003,9.676344e-003
1.801217e+003,9.637586e-003
1.803145e+003,9.555136e-003
1.805074e+003,9.607233e-003
1.807002e+003,9.642702e-003
1.808931e+003,9.629726e-003
1.810859e+003,9.658455e-003
1.812788e+003,9.627084e-003
1.814716e+003,9.612687e-003
1.816645e+003,9.670652e-003
1.818573e+003,9.625221e-003
1.820502e+003,9.591786e-003
1.822430e+003,9.678884e-003
1.824359e+003,9.784301e-003
1.826287e+003,9.778879e-003
1.828216e+003,9.818360e-003
1.830144e+003,9.898013e-003
1.832073e+003,9.646767e-003
1.834001e+003,9.599171e-003
1.835930e+003,9.665773e-003
1.837858e+003,9.595749e-003
1.839787e+003,9.562994e-003
1.841715e+003,9.512020e-003
1.843644e+003,9.681256e-003
1.845572e+003,9.636874e-003
1.847501e+003,9.463727e-003
1.849429e+003,9.564247e-003
1.851358e+003,9.724965e-003
1.853286e+003,9.685288e-003
1.855215e+003,9.619800e-003
1.857143e+003,9.667467e-003
1.859072e+003,9.682680e-003
1.861000e+003,9.632877e-003
1.862929e+003,9.645209e-003
1.864857e+003,9.705753e-003
1.866786e+003,9.674548e-003
1.868714e+003,9.738417e-003
1.870643e+003,9.675768e-003
1.872571e+003,9.627796e-003
1.874500e+003,9.700840e-003
1.876428e+003,9.748787e-003
1.878357e+003,9.841306e-003
1.880285e+003,9.831171e-003
1.882214e+003,9.725270e-003
1.884142e+003,9.782911e-003
1.886071e+003,9.806871e-003
1.887999e+003,9.795993e-003
1.889928e+003,9.735402e-003
1.891856e+003,9.621765e-003
1.893785e+003,9.644565e-003
1.895713e+003,9.663029e-003
1.897642e+003,9.672109e-003
1.899570e+003,9.753395e-003
1.901499e+003,9.819005e-003
1.903427e+003,9.795755e-003
1.905356e+003,9.708328e-003
1.907284e+003,9.690947e-003
1.909213e+003,9.751192e-003
1.911141e+003,9.834730e-003
1.913070e+003,9.806499e-003
1.914998e+003,9.840018e-003
1.916927e+003,9.916895e-003
1.918855e+003,9.868015e-003
1.920784e+003,9.765323e-003
1.922712e+003,9.735809e-003
1.924641e+003,9.778031e-003
1.926569e+003,9.815717e-003
1.928498e+003,9.669195e-003
1.930426e+003,9.614448e-003
1.932355e+003,9.653814e-003
1.934283e+003,9.665807e-003
1.936212e+003,9.690811e-003
1.938140e+003,9.690947e-003
1.940069e+003,9.743128e-003
1.941997e+003,9.882183e-003
1.943926e+003,9.908725e-003
1.945854e+003,9.775287e-003
1.947783e+003,9.700739e-003
1.949711e+003,9.781454e-003
1.951640e+003,9.774100e-003
1.953568e+003,9.721475e-003
1.955497e+003,9.701788e-003
1.957425e+003,9.704839e-003
1.959354e+003,9.757258e-003
1.961282e+003,9.759800e-003
1.963211e+003,9.700840e-003
1.965139e+003,9.699756e-003
1.967068e+003,9.721170e-003
1.968996e+003,9.612822e-003
1.970925e+003,9.614821e-003
1.972853e+003,9.654830e-003
1.974782e+003,9.649104e-003
1.976710e+003,9.637823e-003
1.978639e+003,9.680172e-003
1.980567e+003,9.644700e-003
1.982496e+003,9.576103e-003
1.984424e+003,9.598866e-003
1.986353e+003,9.668111e-003
1.988281e+003,9.671092e-003
1.990210e+003,9.677326e-003
1.992138e+003,9.714630e-003
1.994067e+003,9.743873e-003
1.995995e+003,9.702636e-003
1.997924e+003,9.665536e-003
1.999852e+003,9.677496e-003
2.001781e+003,9.615668e-003
2.003709e+003,9.650968e-003
2.005638e+003,9.691725e-003
2.007566e+003,9.754784e-003
2.009495e+003,9.752921e-003
2.011423e+003,9.664418e-003
2.013352e+003,9.699756e-003
2.015280e+003,9.718155e-003
2.017208e+003,9.726897e-003
2.019137e+003,9.755462e-003
2.021066e+003,9.736926e-003
2.022994e+003,9.710328e-003
2.024922e+003,9.736080e-003
2.026851e+003,9.777862e-003
2.028780e+003,9.735470e-003
2.030708e+003,9.721915e-003
2.032636e+003,9.842255e-003
2.034565e+003,9.818428e-003
2.036494e+003,9.663571e-003
2.038422e+003,9.629219e-003
2.040350e+003,9.671025e-003
2.042279e+003,9.688541e-003
2.044208e+003,9.705449e-003
2.046136e+003,9.685119e-003
2.048064e+003,9.694199e-003
2.049993e+003,9.670720e-003
2.051921e+003,9.630506e-003
2.053850e+003,9.706533e-003
2.055778e+003,9.726490e-003
2.057707e+003,9.771186e-003
2.059635e+003,9.811175e-003
2.061564e+003,9.802804e-003
2.063492e+003,9.691285e-003
2.065421e+003,9.653949e-003
2.067349e+003,9.739942e-003
2.069278e+003,9.703517e-003
2.071206e+003,9.678342e-003
2.073135e+003,9.743805e-003
2.075063e+003,9.778234e-003
2.076992e+003,9.819241e-003
2.078920e+003,9.845847e-003
2.080849e+003,9.835612e-003
2.082777e+003,9.858388e-003
2.084706e+003,9.800296e-003
2.086634e+003,9.638297e-003
2.088563e+003,9.638297e-003
2.090491e+003,9.770813e-003
2.092420e+003,9.817682e-003
2.094348e+003,9.890929e-003
2.096277e+003,9.905403e-003
2.098205e+003,9.853948e-003
2.100134e+003,9.851711e-003
2.102062e+003,9.933980e-003
2.103991e+003,9.949880e-003
2.105919e+003,9.914047e-003
2.107848e+003,1.001732e-002
2.109776e+003,9.995345e-003
2.111705e+003,9.908658e-003
2.113633e+003,9.941370e-003
2.115562e+003,9.981579e-003
2.117490e+003,9.932149e-003
2.119419e+003,9.940388e-003
2.121347e+003,9.949067e-003
2.123276e+003,9.903606e-003
2.125204e+003,9.985309e-003
2.127133e+003,1.002990e-002
2.129061e+003,1.005729e-002
2.130990e+003,1.010772e-002
2.132918e+003,9.984190e-003
2.134847e+003,9.917912e-003
2.136775e+003,9.983716e-003
2.138704e+003,1.010677e-002
2.140632e+003,1.013428e-002
2.142561e+003,1.008656e-002
2.144489e+003,1.005441e-002
2.146418e+003,1.003241e-002
2.148346e+003,1.005489e-002
2.150275e+003,1.013611e-002
2.152203e+003,1.022284e-002
2.154132e+003,1.018763e-002
2.156060e+003,1.011220e-002
2.157989e+003,1.014937e-002
2.159917e+003,1.018105e-002
2.161846e+003,1.011420e-002
2.163774e+003,1.012566e-002
2.165703e+003,1.020815e-002
2.167631e+003,1.030386e-002
2.169560e+003,1.033969e-002
2.171488e+003,1.023760e-002
2.173417e+003,1.015544e-002
2.175345e+003,1.019112e-002
2.177274e+003,1.027556e-002
2.179202e+003,1.030413e-002
2.181131e+003,1.027787e-002
2.183059e+003,1.024784e-002
2.184988e+003,1.028384e-002
2.186916e+003,1.030087e-002
2.188845e+003,1.024082e-002
2.190773e+003,1.018526e-002
2.192702e+003,1.017206e-002
2.194630e+003,1.016080e-002
2.196559e+003,1.020025e-002
2.198487e+003,1.021111e-002
2.200416e+003,1.014164e-002
2.202344e+003,1.011952e-002
2.204273e+003,1.014218e-002
2.206201e+003,1.016273e-002
2.208130e+003,1.013390e-002
2.210058e+003,1.010311e-002
2.211987e+003,1.012034e-002
2.213915e+003,1.017450e-002
2.215844e+003,1.017013e-002
2.217772e+003,1.018370e-002
2.219701e+003,1.024242e-002
2.221629e+003,1.018624e-002
2.223558e+003,1.014734e-002
2.225486e+003,1.019706e-002
2.227415e+003,1.015724e-002
2.229343e+003,1.007625e-002
2.231272e+003,1.001291e-002
2.233200e+003,1.007103e-002
2.235129e+003,1.012424e-002
2.237057e+003,1.006625e-002
2.238986e+003,1.004949e-002
2.240914e+003,1.005434e-002
2.242843e+003,1.013703e-002
2.244771e+003,1.019140e-002
2.246700e+003,1.016694e-002
2.248628e+003,1.016185e-002
2.250557e+003,1.008249e-002
2.252485e+003,1.011098e-002
2.254414e+003,1.017461e-002
2.256342e+003,1.011783e-002
2.258271e+003,1.006496e-002
2.260199e+003,1.015286e-002
2.262128e+003,1.016796e-002
2.264056e+003,1.015449e-002
2.265985e+003,1.020809e-002
2.267913e+003,1.027268e-002
2.269842e+003,1.029592e-002
2.271770e+003,1.022342e-002
2.273699e+003,1.008938e-002
2.275627e+003,1.002467e-002
2.277556e+003,1.010267e-002
2.279484e+003,1.008931e-002
2.281413e+003,1.011997e-002
2.283341e+003,1.016555e-002
2.285270e+003,1.020381e-002
2.287198e+003,1.021321e-002
2.289127e+003,1.029558e-002
2.291055e+003,1.036548e-002
2.292984e+003,1.039599e-002
2.294912e+003,1.037630e-002
2.296841e+003,1.049818e-002
2.298769e+003,1.075159e-002
2.300698e+003,1.088339e-002
2.302626e+003,1.103498e-002
2.304555e+003,1.122888e-002
2.306483e+003,1.149020e-002
2.308412e+003,1.178084e-002
2.310340e+003,1.211380e-002
2.312269e+003,1.262701e-002
2.314197e+003,1.315148e-002
2.316125e+003,1.364790e-002
2.318054e+003,1.421203e-002
2.319983e+003,1.488728e-002
2.321911e+003,1.555493e-002
2.323840e+003,1.618093e-002
2.325768e+003,1.663531e-002
2.327697e+003,1.712563e-002
2.329625e+003,1.786336e-002
2.331553e+003,1.830133e-002
2.333482e+003,1.842362e-002
2.335411e+003,1.855217e-002
2.337339e+003,1.876727e-002
2.339268e+003,1.880565e-002
2.341196e+003,1.859038e-002
2.343125e+003,1.817962e-002
2.345053e+003,1.691877e-002
2.346981e+003,1.474894e-002
2.348910e+003,1.361419e-002
2.350839e+003,1.505368e-002
2.352767e+003,1.758207e-002
2.354696e+003,1.950683e-002
2.356624e+003,2.073665e-002
2.358552e+003,2.141625e-002
2.360481e+003,2.171059e-002
2.362409e+003,2.170777e-002
2.364338e+003,2.139272e-002
2.366267e+003,2.074767e-002
2.368195e+003,1.969461e-002
2.370124e+003,1.836627e-002
2.372052e+003,1.692804e-002
2.373980e+003,1.554682e-002
2.375909e+003,1.409290e-002
2.377838e+003,1.273410e-002
2.379766e+003,1.157278e-002
2.381695e+003,1.084921e-002
2.383623e+003,1.063724e-002
2.385552e+003,1.053226e-002
2.387480e+003,1.038581e-002
2.389408e+003,1.036256e-002
2.391337e+003,1.032442e-002
2.393266e+003,1.026063e-002
2.395194e+003,1.028391e-002
2.397123e+003,1.033134e-002
2.399051e+003,1.035795e-002
2.400979e+003,1.036582e-002
2.402908e+003,1.040546e-002
2.404836e+003,1.043054e-002
2.406765e+003,1.040074e-002
2.408694e+003,1.025870e-002
2.410622e+003,1.022464e-002
2.412551e+003,1.028845e-002
2.414479e+003,1.035784e-002
2.416407e+003,1.044713e-002
2.418336e+003,1.037753e-002
2.420264e+003,1.027933e-002
2.422193e+003,1.030997e-002
2.424122e+003,1.042612e-002
2.426050e+003,1.044601e-002
2.427979e+003,1.038764e-002
2.429907e+003,1.043651e-002
2.431835e+003,1.054523e-002
2.433764e+003,1.060512e-002
2.435692e+003,1.063551e-002
2.437621e+003,1.059959e-002
2.439550e+003,1.056173e-002
2.441478e+003,1.055348e-002
2.443406e+003,1.061470e-002
2.445335e+003,1.066471e-002
2.447263e+003,1.065599e-002
2.449192e+003,1.064390e-002
2.451121e+003,1.062410e-002
2.453049e+003,1.061361e-002
2.454978e+003,1.065653e-002
2.456906e+003,1.072350e-002
2.458834e+003,1.076606e-002
2.460763e+003,1.071742e-002
2.462691e+003,1.057844e-002
2.464620e+003,1.066200e-002
2.466549e+003,1.079404e-002
2.468477e+003,1.079764e-002
2.470406e+003,1.071059e-002
2.472334e+003,1.069623e-002
2.474262e+003,1.077998e-002
2.476191e+003,1.081674e-002
2.478119e+003,1.081989e-002
2.480048e+003,1.081850e-002
2.481977e+003,1.088441e-002
2.483905e+003,1.084785e-002
2.485833e+003,1.077054e-002
2.487762e+003,1.075328e-002
2.489690e+003,1.071705e-002
2.491619e+003,1.072241e-002
2.493547e+003,1.082635e-002
2.495476e+003,1.093758e-002
2.497405e+003,1.099552e-002
2.499333e+003,1.087238e-002
2.501261e+003,1.082689e-002
2.503190e+003,1.097302e-002
2.505118e+003,1.109398e-002
2.507047e+003,1.106676e-002
2.508975e+003,1.098968e-002
2.510904e+003,1.099131e-002
2.512833e+003,1.106016e-002
2.514761e+003,1.106190e-002
2.516689e+003,1.105309e-002
2.518618e+003,1.111132e-002
2.520546e+003,1.114521e-002
2.522475e+003,1.100656e-002
2.524403e+003,1.095607e-002
2.526332e+003,1.099250e-002
2.528260e+003,1.109412e-002
2.530189e+003,1.120566e-002
2.532117e+003,1.119587e-002
2.534046e+003,1.108899e-002
2.535974e+003,1.105571e-002
2.537903e+003,1.102488e-002
2.539831e+003,1.111339e-002
2.541760e+003,1.114956e-002
2.543688e+003,1.119308e-002
2.545617e+003,1.119451e-002
2.547545e+003,1.115228e-002
2.549474e+003,1.115187e-002
2.551402e+003,1.111893e-002
2.553331e+003,1.104079e-002
2.555259e+003,1.113678e-002
2.557188e+003,1.118607e-002
2.559116e+003,1.113814e-002
2.561045e+003,1.119825e-002
2.562973e+003,1.124177e-002
2.564902e+003,1.127683e-002
2.566830e+003,1.130332e-002
2.568759e+003,1.126710e-002
2.570687e+003,1.121236e-002
2.572616e+003,1.121164e-002
2.574544e+003,1.132104e-002
2.576473e+003,1.133852e-002
2.578401e+003,1.133988e-002
2.580330e+003,1.122171e-002
2.582258e+003,1.118662e-002
2.584187e+003,1.138161e-002
2.586115e+003,1.135753e-002
2.588044e+003,1.127863e-002
2.589972e+003,1.132733e-002
2.591901e+003,1.140804e-002
2.593829e+003,1.136181e-002
2.595758e+003,1.137246e-002
2.597686e+003,1.137950e-002
2.599615e+003,1.132542e-002
2.601543e+003,1.135940e-002
2.603472e+003,1.136457e-002
2.605400e+003,1.142015e-002
2.607329e+003,1.143399e-002
2.609257e+003,1.148033e-002
2.611186e+003,1.153188e-002
2.613114e+003,1.151364e-002
2.615043e+003,1.152466e-002
2.616971e+003,1.154603e-002
2.618900e+003,1.156451e-002
2.620828e+003,1.155549e-002
2.622757e+003,1.166582e-002
2.624685e+003,1.178772e-002
2.626614e+003,1.173472e-002
2.628542e+003,1.162491e-002
2.630471e+003,1.164962e-002
2.632399e+003,1.169513e-002
2.634328e+003,1.170129e-002
2.636256e+003,1.171269e-002
2.638185e+003,1.184172e-002
2.640113e+003,1.193677e-002
2.642042e+003,1.191490e-002
2.643970e+003,1.195390e-002
2.645899e+003,1.202539e-002
2.647827e+003,1.195574e-002
2.649756e+003,1.194640e-002
2.651684e+003,1.203387e-002
2.653613e+003,1.205132e-002
2.655541e+003,1.204205e-002
2.657470e+003,1.202417e-002
2.659398e+003,1.212092e-002
2.661327e+003,1.223095e-002
2.663255e+003,1.225706e-002
2.665184e+003,1.224509e-002
2.667112e+003,1.230341e-002
2.669041e+003,1.230328e-002
2.670969e+003,1.227672e-002
2.672898e+003,1.224100e-002
2.674826e+003,1.229312e-002
2.676755e+003,1.239071e-002
2.678683e+003,1.238693e-002
2.680612e+003,1.242310e-002
2.682540e+003,1.247428e-002
2.684469e+003,1.260654e-002
2.686397e+003,1.271567e-002
2.688326e+003,1.271230e-002
2.690254e+003,1.278143e-002
2.692183e+003,1.274567e-002
2.694111e+003,1.263789e-002
2.696040e+003,1.261152e-002
2.697968e+003,1.270800e-002
2.699897e+003,1.292323e-002
2.701825e+003,1.298499e-002
2.703754e+003,1.302340e-002
2.705682e+003,1.308885e-002
2.707611e+003,1.317020e-002
2.709539e+003,1.318215e-002
2.711468e+003,1.319851e-002
2.713396e+003,1.323807e-002
2.715325e+003,1.334066e-002
2.717253e+003,1.339745e-002
2.719182e+003,1.347838e-002
2.721110e+003,1.353372e-002
2.723039e+003,1.367403e-002
2.724967e+003,1.378811e-002
2.726896e+003,1.375562e-002
2.728824e+003,1.378168e-002
2.730753e+003,1.396819e-002
2.732681e+003,1.405508e-002
2.734610e+003,1.405672e-002
2.736538e+003,1.413325e-002
2.738467e+003,1.424055e-002
2.740395e+003,1.422832e-002
2.742324e+003,1.430975e-002
2.744252e+003,1.435625e-002
2.746181e+003,1.440386e-002
2.748109e+003,1.454219e-002
2.750038e+003,1.471991e-002
2.751966e+003,1.478542e-002
2.753895e+003,1.490974e-002
2.755823e+003,1.506686e-002
2.757752e+003,1.519157e-002
2.759680e+003,1.534958e-002
2.761609e+003,1.556145e-002
2.763537e+003,1.582793e-002
2.765466e+003,1.599267e-002
2.767394e+003,1.619083e-002
2.769323e+003,1.649479e-002
2.771251e+003,1.689910e-002
2.773180e+003,1.732486e-002
2.775108e+003,1.767431e-002
2.777037e+003,1.810234e-002
2.778965e+003,1.864326e-002
2.780894e+003,1.925395e-002
2.782822e+003,1.992395e-002
2.784750e+003,2.066180e-002
2.786679e+003,2.129764e-002
2.788608e+003,2.193124e-002
2.790536e+003,2.265321e-002
2.792465e+003,2.341183e-002
2.794393e+003,2.411423e-002
2.796322e+003,2.474417e-002
2.798250e+003,2.536663e-002
2.800178e+003,2.601380e-002
2.802107e+003,2.659852e-002
2.804036e+003,2.713413e-002
2.805964e+003,2.751009e-002
2.807893e+003,2.789017e-002
2.809821e+003,2.814039e-002
2.811750e+003,2.818232e-002
2.813678e+003,2.804473e-002
2.815606e+003,2.798031e-002
2.817535e+003,2.778362e-002
2.819464e+003,2.747275e-002
2.821392e+003,2.727643e-002
2.823321e+003,2.693288e-002
2.825249e+003,2.643165e-002
2.827177e+003,2.597634e-002
2.829106e+003,2.540728e-002
2.831034e+003,2.473484e-002
2.832963e+003,2.423011e-002
2.834892e+003,2.379159e-002
2.836820e+003,2.308405e-002
2.838749e+003,2.234211e-002
2.840677e+003,2.165611e-002
2.842605e+003,2.112618e-002
2.844534e+003,2.056785e-002
2.846462e+003,1.985530e-002
2.848391e+003,1.920241e-002
2.850320e+003,1.879250e-002
2.852248e+003,1.865941e-002
2.854177e+003,1.845404e-002
2.856105e+003,1.833133e-002
2.858033e+003,1.830675e-002
2.859962e+003,1.830046e-002
2.861890e+003,1.822793e-002
2.863819e+003,1.817651e-002
2.865748e+003,1.815129e-002
2.867676e+003,1.813965e-002
2.869604e+003,1.828121e-002
2.871533e+003,1.838822e-002
2.873461e+003,1.854778e-002
2.875390e+003,1.870130e-002
2.877319e+003,1.884412e-002
2.879247e+003,1.904082e-002
2.881176e+003,1.903490e-002
2.883104e+003,1.905165e-002
2.885032e+003,1.923366e-002
2.886961e+003,1.920979e-002
2.888889e+003,1.911453e-002
2.890818e+003,1.906481e-002
2.892747e+003,1.890257e-002
2.894675e+003,1.860186e-002
2.896604e+003,1.856282e-002
2.898532e+003,1.858537e-002
2.900460e+003,1.849836e-002
2.902389e+003,1.844934e-002
2.904317e+003,1.837270e-002
2.906246e+003,1.844651e-002
2.908175e+003,1.844180e-002
2.910103e+003,1.827220e-002
2.912031e+003,1.809723e-002
2.913960e+003,1.785155e-002
2.915888e+003,1.770633e-002
2.917817e+003,1.780895e-002
2.919745e+003,1.812663e-002
2.921674e+003,1.838120e-002
2.923603e+003,1.866332e-002
2.925531e+003,1.890707e-002
2.927459e+003,1.906235e-002
2.929388e+003,1.925991e-002
2.931316e+003,1.956964e-002
2.933245e+003,1.985059e-002
2.935173e+003,1.994795e-002
2.937102e+003,1.998521e-002
2.939031e+003,2.015247e-002
2.940959e+003,2.013502e-002
2.942887e+003,1.995260e-002
2.944816e+003,1.979523e-002
2.946744e+003,1.966808e-002
2.948673e+003,1.937246e-002
2.950601e+003,1.893438e-002
2.952530e+003,1.842787e-002
2.954458e+003,1.795852e-002
2.956387e+003,1.749303e-002
2.958315e+003,1.694427e-002
2.960244e+003,1.628318e-002
2.962172e+003,1.564601e-002
2.964101e+003,1.509811e-002
2.966029e+003,1.469763e-002
2.967958e+003,1.429862e-002
2.969886e+003,1.386118e-002
2.971815e+003,1.339933e-002
2.973743e+003,1.292313e-002
2.975672e+003,1.257264e-002
2.977600e+003,1.235032e-002
2.979529e+003,1.221224e-002
2.981457e+003,1.201524e-002
2.983386e+003,1.178187e-002
2.985314e+003,1.164703e-002
2.987243e+003,1.152745e-002
2.989171e+003,1.145060e-002
2.991100e+003,1.122290e-002
2.993028e+003,1.108538e-002
2.994957e+003,1.101204e-002
2.996885e+003,1.092844e-002
2.998814e+003,1.095090e-002
3.000742e+003,1.099029e-002
3.002671e+003,1.095831e-002
3.004599e+003,1.094975e-002
3.006528e+003,1.097347e-002
3.008456e+003,1.082757e-002
3.010385e+003,1.071019e-002
3.012313e+003,1.068353e-002
3.014242e+003,1.071270e-002
3.016170e+003,1.071732e-002
3.018099e+003,1.074116e-002
3.020027e+003,1.068298e-002
3.021956e+003,1.060373e-002
3.023884e+003,1.053569e-002
3.025813e+003,1.049934e-002
3.027741e+003,1.039042e-002
3.029670e+003,1.031414e-002
3.031598e+003,1.039042e-002
3.033527e+003,1.041367e-002
3.035455e+003,1.047734e-002
3.037384e+003,1.048386e-002
3.039312e+003,1.041672e-002
3.041241e+003,1.037800e-002
3.043169e+003,1.031132e-002
3.045098e+003,1.023251e-002
3.047026e+003,1.021083e-002
3.048955e+003,1.026348e-002
3.050883e+003,1.025375e-002
3.052812e+003,1.030450e-002
3.054740e+003,1.029080e-002
3.056669e+003,1.031078e-002
3.058597e+003,1.024859e-002
3.060526e+003,1.019560e-002
3.062454e+003,1.021328e-002
3.064383e+003,1.011661e-002
3.066311e+003,1.005567e-002
3.068240e+003,1.020951e-002
3.070168e+003,1.017003e-002
3.072097e+003,9.974901e-003
3.074025e+003,9.992225e-003
3.075954e+003,1.004271e-002
3.077882e+003,1.005689e-002
3.079811e+003,1.002413e-002
3.081739e+003,9.971510e-003
3.083668e+003,9.958525e-003
3.085596e+003,9.928556e-003
3.087525e+003,9.849271e-003
3.089453e+003,9.798060e-003
3.091382e+003,9.833714e-003
3.093310e+003,9.994159e-003
3.095239e+003,9.997040e-003
3.097167e+003,9.887742e-003
3.099096e+003,9.903674e-003
3.101024e+003,9.968221e-003
3.102953e+003,9.910353e-003
3.104881e+003,9.830561e-003
3.106810e+003,9.786435e-003
3.108738e+003,9.862218e-003
3.110667e+003,1.001962e-002
3.112595e+003,1.007313e-002
3.114524e+003,1.000664e-002
3.116452e+003,9.906522e-003
3.118381e+003,9.886759e-003
3.120309e+003,9.846661e-003
3.122238e+003,9.858558e-003
3.124166e+003,9.988462e-003
3.126095e+003,9.968357e-003
3.128023e+003,9.915098e-003
3.129952e+003,9.843916e-003
3.131880e+003,9.729811e-003
3.133809e+003,9.823986e-003
3.135737e+003,9.908658e-003
3.137666e+003,9.961746e-003
3.139594e+003,9.989683e-003
3.141523e+003,9.977918e-003
3.143451e+003,1.006764e-002
3.145380e+003,1.009450e-002
3.147308e+003,9.937676e-003
3.149237e+003,9.780471e-003
3.151165e+003,9.942930e-003
3.153094e+003,1.007564e-002
3.155022e+003,1.016246e-002
3.156951e+003,1.011695e-002
3.158879e+003,1.008202e-002
3.160808e+003,1.016599e-002
3.162736e+003,1.022162e-002
3.164665e+003,1.016246e-002
3.166593e+003,1.000565e-002
3.168522e+003,9.934590e-003
3.170450e+003,1.013584e-002
3.172379e+003,1.024028e-002
3.174307e+003,1.011501e-002
3.176236e+003,1.017060e-002
3.178164e+003,1.021701e-002
3.180093e+003,1.019357e-002
3.182021e+003,1.019428e-002
3.183950e+003,1.017573e-002
3.185878e+003,1.018370e-002
3.187807e+003,1.030019e-002
3.189735e+003,1.040145e-002
3.191664e+003,1.030800e-002
3.193592e+003,1.024642e-002
3.195521e+003,1.026135e-002
3.197449e+003,1.026389e-002
3.199378e+003,1.017206e-002
3.201306e+003,1.013875e-002
3.203235e+003,1.031054e-002
3.205163e+003,1.045283e-002
3.207092e+003,1.041055e-002
3.209020e+003,1.040322e-002
3.210948e+003,1.049825e-002
3.212877e+003,1.046746e-002
3.214806e+003,1.043977e-002
3.216734e+003,1.046407e-002
3.218663e+003,1.058322e-002
3.220591e+003,1.064522e-002
3.222520e+003,1.067636e-002
3.224448e+003,1.060023e-002
3.226376e+003,1.055881e-002
3.228305e+003,1.072459e-002
3.230234e+003,1.085342e-002
3.232162e+003,1.077815e-002
3.234091e+003,1.088346e-002
3.236019e+003,1.094074e-002
3.237948e+003,1.085835e-002
3.239876e+003,1.098179e-002
3.241804e+003,1.123708e-002
3.243733e+003,1.132702e-002
3.245662e+003,1.138756e-002
3.247590e+003,1.156896e-002
3.249519e+003,1.150397e-002
3.251447e+003,1.147836e-002
3.253375e+003,1.149282e-002
3.255304e+003,1.161589e-002
3.257232e+003,1.182327e-002
3.259161e+003,1.192059e-002
3.261090e+003,1.190516e-002
3.263018e+003,1.186454e-002
3.264947e+003,1.180182e-002
3.266875e+003,1.176760e-002
3.268803e+003,1.191510e-002
3.270732e+003,1.199610e-002
3.272660e+003,1.198326e-002
3.274589e+003,1.192743e-002
3.276518e+003,1.192559e-002
3.278446e+003,1.195284e-002
3.280375e+003,1.205966e-002
3.282303e+003,1.206992e-002
3.284231e+003,1.205820e-002
3.286160e+003,1.191766e-002
3.288088e+003,1.193533e-002
3.290017e+003,1.191255e-002
3.291946e+003,1.202447e-002
3.293874e+003,1.212501e-002
3.295802e+003,1.208906e-002
3.297731e+003,1.201933e-002
3.299659e+003,1.205912e-002
3.301588e+003,1.193496e-002
3.303516e+003,1.166123e-002
3.305445e+003,1.153749e-002
3.307374e+003,1.156546e-002
3.309302e+003,1.146795e-002
3.311230e+003,1.143770e-002
3.313159e+003,1.143849e-002
3.315087e+003,1.122837e-002
3.317016e+003,1.119148e-002
3.318944e+003,1.122864e-002
3.320873e+003,1.102866e-002
3.322802e+003,1.085427e-002
3.324730e+003,1.077414e-002
3.326658e+003,1.067531e-002
3.328587e+003,1.068078e-002
3.330515e+003,1.063351e-002
3.332444e+003,1.053019e-002
3.334372e+003,1.055603e-002
3.336301e+003,1.060319e-002
3.338229e+003,1.058658e-002
3.340158e+003,1.049038e-002
3.342086e+003,1.050423e-002
3.344015e+003,1.034037e-002
3.345943e+003,1.030365e-002
3.347872e+003,1.046023e-002
3.349800e+003,1.041710e-002
3.351729e+003,1.020042e-002
3.353657e+003,1.005048e-002
3.355586e+003,1.004407e-002
3.357514e+003,1.014476e-002
3.359443e+003,1.009497e-002
3.361371e+003,9.979342e-003
3.363300e+003,1.009399e-002
3.365229e+003,1.010725e-002
3.367157e+003,9.872557e-003
3.369085e+003,9.594124e-003
3.371014e+003,9.515678e-003
3.372942e+003,9.666891e-003
3.374871e+003,9.602863e-003
3.376799e+003,9.548531e-003
3.378728e+003,9.420452e-003
3.380656e+003,9.359778e-003
3.382585e+003,9.359371e-003
3.384513e+003,9.371695e-003
3.386442e+003,9.316817e-003
3.388370e+003,9.199534e-003
3.390299e+003,9.150700e-003
3.392227e+003,9.191377e-003
3.394156e+003,9.080894e-003
3.396084e+003,9.076429e-003
3.398013e+003,9.078695e-003
3.399941e+003,8.892175e-003
3.401870e+003,8.899514e-003
3.403798e+003,8.946526e-003
3.405727e+003,8.965705e-003
3.407655e+003,9.014179e-003
3.409584e+003,9.008022e-003
3.411512e+003,8.861502e-003
3.413441e+003,8.778320e-003
3.415369e+003,8.921328e-003
3.417298e+003,8.937732e-003
3.419226e+003,8.901373e-003
3.421155e+003,9.000580e-003
3.423083e+003,8.979438e-003
3.425012e+003,8.891702e-003
3.426940e+003,8.979641e-003
3.428869e+003,9.038807e-003
3.430797e+003,9.066786e-003
3.432726e+003,9.071421e-003
3.434654e+003,9.052204e-003
3.436583e+003,8.781295e-003
3.438511e+003,8.695728e-003
3.440440e+003,8.979370e-003
3.442368e+003,9.014348e-003
3.444297e+003,8.862685e-003
3.446225e+003,8.998753e-003
3.448154e+003,9.031668e-003
3.450082e+003,8.912061e-003
3.452011e+003,8.856192e-003
3.453939e+003,8.823932e-003
3.455868e+003,8.815818e-003
3.457796e+003,8.908983e-003
3.459725e+003,8.896707e-003
3.461653e+003,8.991040e-003
3.463582e+003,9.116421e-003
3.465510e+003,8.968242e-003
3.467439e+003,8.868637e-003
3.469367e+003,8.977341e-003
3.471296e+003,9.010051e-003
3.473224e+003,8.980352e-003
3.475153e+003,8.872121e-003
3.477081e+003,8.889368e-003
3.479010e+003,8.892648e-003
3.480938e+003,8.689441e-003
3.482867e+003,8.574050e-003
3.484795e+003,8.867521e-003
3.486724e+003,9.052542e-003
3.488652e+003,8.886291e-003
3.490581e+003,8.825420e-003
3.492509e+003,8.835294e-003
3.494438e+003,8.762361e-003
3.496366e+003,8.886730e-003
3.498295e+003,8.970304e-003
3.500223e+003,9.143357e-003
3.502152e+003,9.226406e-003
3.504080e+003,9.072436e-003
3.506009e+003,8.933335e-003
3.507937e+003,8.942399e-003
3.509866e+003,8.986406e-003
3.511794e+003,9.088913e-003
3.513723e+003,9.059512e-003
3.515651e+003,9.012961e-003
3.517580e+003,9.151580e-003
3.519508e+003,9.155404e-003
3.521437e+003,9.128299e-003
3.523365e+003,9.251080e-003
3.525294e+003,9.131006e-003
3.527222e+003,9.074500e-003
3.529151e+003,9.140751e-003
3.531079e+003,9.118452e-003
3.533008e+003,9.157468e-003
3.534936e+003,9.217572e-003
3.536865e+003,9.122005e-003
3.538793e+003,8.939998e-003
3.540722e+003,8.842091e-003
3.542650e+003,8.903910e-003
3.544579e+003,9.039924e-003
3.546507e+003,9.304156e-003
3.548436e+003,9.366617e-003
3.550364e+003,9.319626e-003
3.552293e+003,9.368681e-003
3.554221e+003,9.302700e-003
3.556150e+003,9.210330e-003
3.558078e+003,9.334454e-003
3.560007e+003,9.340548e-003
3.561935e+003,9.141665e-003
3.563864e+003,9.215102e-003
3.565792e+003,9.398849e-003
3.567721e+003,9.366211e-003
3.569649e+003,9.392280e-003
3.571578e+003,9.536372e-003
3.573506e+003,9.480728e-003
3.575435e+003,9.307168e-003
3.577363e+003,9.313770e-003
3.579292e+003,9.377993e-003
3.581220e+003,9.331983e-003
3.583149e+003,9.282255e-003
3.585077e+003,9.449268e-003
3.587006e+003,9.693624e-003
3.588934e+003,9.447067e-003
3.590863e+003,9.232634e-003
3.592791e+003,9.341157e-003
3.594720e+003,9.424752e-003
3.596648e+003,9.371898e-003
3.598577e+003,9.267632e-003
3.600505e+003,9.344847e-003
3.602434e+003,9.402066e-003
3.604362e+003,9.464980e-003
3.606291e+003,9.493630e-003
3.608219e+003,9.513578e-003
3.610148e+003,9.509751e-003
3.612076e+003,9.623696e-003
3.614005e+003,9.475715e-003
3.615933e+003,9.626373e-003
3.617862e+003,9.802296e-003
3.619790e+003,9.621122e-003
3.621719e+003,9.372609e-003
3.623647e+003,9.315496e-003
3.625576e+003,9.509074e-003
3.627504e+003,9.941642e-003
3.629433e+003,9.870014e-003
3.631361e+003,9.415372e-003
3.633290e+003,9.373963e-003
3.635218e+003,9.392957e-003
3.637146e+003,9.372101e-003
3.639075e+003,9.316884e-003
3.641004e+003,9.211277e-003
3.642932e+003,9.226101e-003
3.644861e+003,9.230433e-003
3.646789e+003,9.383477e-003
3.648718e+003,9.618412e-003
3.650646e+003,9.533832e-003
3.652574e+003,9.179634e-003
3.654503e+003,9.387506e-003
3.656432e+003,9.746109e-003
3.658360e+003,9.493258e-003
3.660289e+003,9.267361e-003
3.662217e+003,9.128130e-003
3.664146e+003,8.988368e-003
3.666074e+003,8.918623e-003
3.668002e+003,9.159566e-003
3.669931e+003,9.309335e-003
3.671860e+003,9.195472e-003
3.673788e+003,9.644023e-003
3.675717e+003,9.821817e-003
3.677645e+003,9.396615e-003
3.679573e+003,9.292037e-003
3.681502e+003,9.287941e-003
3.683430e+003,9.264416e-003
3.685359e+003,9.362249e-003
3.687288e+003,9.779353e-003
3.689216e+003,9.913403e-003
3.691145e+003,9.716189e-003
3.693073e+003,9.510665e-003
3.695001e+003,9.554831e-003
3.696930e+003,9.640737e-003
3.698858e+003,9.722390e-003
3.700787e+003,9.937405e-003
3.702716e+003,9.833646e-003
3.704644e+003,9.634673e-003
3.706573e+003,9.746754e-003
3.708501e+003,9.708430e-003
3.710429e+003,9.709751e-003
3.712358e+003,9.592701e-003
3.714286e+003,9.100688e-003
3.716215e+003,9.155031e-003
3.718144e+003,9.546364e-003
3.720072e+003,9.744686e-003
3.722000e+003,9.753293e-003
3.723929e+003,9.490650e-003
3.725857e+003,9.355884e-003
3.727786e+003,9.366718e-003
3.729714e+003,9.450588e-003
3.731643e+003,9.672786e-003
3.733572e+003,9.998803e-003
3.735500e+003,1.021239e-002
3.737428e+003,9.695521e-003
3.739357e+003,9.315496e-003
3.741285e+003,9.519336e-003
3.743214e+003,1.011657e-002
3.745142e+003,1.001481e-002
3.747071e+003,9.683459e-003
3.749000e+003,1.011033e-002
3.750928e+003,1.005953e-002
3.752856e+003,9.639449e-003
3.754785e+003,9.467114e-003
3.756713e+003,9.476088e-003
3.758642e+003,9.502741e-003
3.760570e+003,9.704466e-003
3.762499e+003,9.594021e-003
3.764427e+003,9.477713e-003
3.766356e+003,9.484723e-003
3.768284e+003,9.420249e-003
3.770213e+003,9.476088e-003
3.772141e+003,9.390147e-003
3.774070e+003,9.356223e-003
3.775998e+003,9.402743e-003
3.777927e+003,9.460002e-003
3.779855e+003,9.428578e-003
3.781784e+003,9.282390e-003
3.783712e+003,9.300263e-003
3.785641e+003,9.321894e-003
3.787569e+003,9.362994e-003
3.789498e+003,9.176453e-003
3.791426e+003,8.980250e-003
3.793355e+003,9.018272e-003
3.795283e+003,9.116624e-003
3.797212e+003,9.341598e-003
3.799140e+003,9.657608e-003
3.801069e+003,9.731708e-003
3.802997e+003,9.270644e-003
3.804926e+003,9.435452e-003
3.806854e+003,9.680681e-003
3.808783e+003,9.326160e-003
3.810711e+003,9.177536e-003
3.812640e+003,9.198755e-003
3.814568e+003,9.225695e-003
3.816497e+003,9.411614e-003
3.818425e+003,9.400982e-003
3.820354e+003,9.720256e-003
3.822282e+003,9.591278e-003
3.824211e+003,9.273048e-003
3.826139e+003,9.385407e-003
3.828068e+003,9.454618e-003
3.829996e+003,9.514187e-003
3.831925e+003,9.596257e-003
3.833853e+003,9.653509e-003
3.835782e+003,9.821004e-003
3.837710e+003,9.934455e-003
3.839639e+003,9.670720e-003
3.841567e+003,9.614787e-003
3.843496e+003,9.679190e-003
3.845424e+003,9.364585e-003
3.847353e+003,9.059817e-003
3.849281e+003,9.311197e-003
3.851210e+003,9.947236e-003
3.853138e+003,1.038720e-002
3.855067e+003,9.879539e-003
3.856995e+003,9.401761e-003
3.858924e+003,9.312009e-003
3.860852e+003,9.474734e-003
3.862781e+003,9.700433e-003
3.864709e+003,9.668686e-003
3.866638e+003,9.360996e-003
3.868566e+003,9.549480e-003
3.870495e+003,9.543451e-003
3.872423e+003,9.346236e-003
3.874352e+003,9.400034e-003
3.876280e+003,9.322640e-003
3.878209e+003,9.274909e-003
3.880137e+003,9.440769e-003
3.882066e+003,9.363704e-003
3.883994e+003,9.341225e-003
3.885923e+003,9.439752e-003
3.887851e+003,9.115576e-003
3.889780e+003,9.227726e-003
3.891708e+003,9.359507e-003
3.893637e+003,9.267123e-003
3.895565e+003,9.243464e-003
3.897494e+003,9.268985e-003
3.899422e+003,9.500369e-003
3.901351e+003,9.575222e-003
3.903279e+003,9.589618e-003
3.905208e+003,9.444561e-003
3.907136e+003,9.113275e-003
3.909065e+003,8.952412e-003
3.910993e+003,8.986338e-003
3.912922e+003,9.191614e-003
3.914850e+003,9.419978e-003
3.916779e+003,9.563164e-003
3.918707e+003,9.401084e-003
3.920636e+003,9.161732e-003
3.922564e+003,9.188196e-003
3.924493e+003,9.195439e-003
3.926421e+003,9.100180e-003
3.928350e+003,9.073857e-003
3.930278e+003,9.130329e-003
3.932207e+003,9.242313e-003
3.934135e+003,9.128874e-003
3.936064e+003,8.874860e-003
3.937992e+003,8.954746e-003
3.939921e+003,9.156656e-003
3.941849e+003,9.219806e-003
3.943778e+003,9.158280e-003
3.945706e+003,9.223732e-003
3.947635e+003,9.442394e-003
3.949563e+003,9.319524e-003
3.951492e+003,9.125491e-003
3.953420e+003,9.175404e-003
3.955349e+003,9.167993e-003
3.957277e+003,9.166808e-003
3.959206e+003,9.101872e-003
3.961134e+003,8.883551e-003
3.963063e+003,8.964960e-003
3.964991e+003,9.202511e-003
3.966920e+003,9.401252e-003
3.968848e+003,9.480863e-003
3.970777e+003,9.336519e-003
3.972705e+003,9.472464e-003
3.974634e+003,9.472566e-003
3.976562e+003,9.126742e-003
3.978491e+003,8.993983e-003
3.980419e+003,9.105831e-003
3.982348e+003,9.215000e-003
3.984276e+003,9.252705e-003
3.986205e+003,9.137909e-003
3.988133e+003,9.219027e-003
3.990062e+003,9.334386e-003
3.991990e+003,9.142477e-003
3.993919e+003,9.000410e-003
3.995847e+003,9.151580e-003
3.997776e+003,9.235849e-003
3.999704e+003,9.180210e-003
4.001633e+003,0.000000e+000
