3.991989e+002,-3.096631e-002
4.011274e+002,-1.921128e-002
4.030559e+002,-1.830916e-002
4.049844e+002,-2.487535e-002
4.069129e+002,-2.477599e-002
4.088414e+002,-1.010027e-002
4.107699e+002,2.111589e-003
4.126984e+002,-4.803911e-003
4.146269e+002,-1.320409e-002
4.165554e+002,-1.172668e-002
4.184839e+002,-9.894270e-003
4.204124e+002,-8.235317e-003
4.223409e+002,-9.869169e-003
4.242694e+002,-8.212656e-003
4.261979e+002,-3.450881e-003
4.281264e+002,-7.185092e-003
4.300549e+002,-9.731038e-003
4.319834e+002,-4.522821e-003
4.339119e+002,-2.758905e-003
4.358404e+002,-5.134234e-003
4.377689e+002,-5.095757e-003
4.396974e+002,-4.593316e-003
4.416259e+002,-4.641573e-003
4.435544e+002,-2.657223e-003
4.454829e+002,-6.729939e-004
4.474114e+002,-9.758269e-004
4.493399e+002,7.891410e-004
4.512684e+002,2.219912e-003
4.531969e+002,-1.429334e-003
4.551254e+002,-3.471590e-003
4.570539e+002,-1.216633e-003
4.589824e+002,-7.114343e-004
4.609109e+002,-3.682270e-003
4.628394e+002,-3.956188e-003
4.647679e+002,-2.157358e-003
4.666964e+002,-4.232798e-004
4.686249e+002,-2.599753e-003
4.705533e+002,-3.855574e-003
4.724819e+002,-3.590169e-003
4.744103e+002,-2.243434e-003
4.763389e+002,-6.039778e-004
4.782673e+002,-1.865872e-003
4.801959e+002,-4.712704e-003
4.821243e+002,-4.255396e-003
4.840529e+002,-2.927181e-003
4.859813e+002,-3.113189e-003
4.879099e+002,-4.621707e-003
4.898383e+002,-5.407107e-003
4.917668e+002,-4.530199e-003
4.936953e+002,-3.951164e-003
4.956238e+002,-3.531968e-003
4.975523e+002,-3.575874e-003
4.994808e+002,-4.069219e-003
5.014093e+002,-6.482397e-003
5.033378e+002,-5.916486e-003
5.052663e+002,-5.689522e-003
5.071948e+002,-4.649211e-003
5.091233e+002,-4.312254e-003
5.110518e+002,-5.305192e-003
5.129803e+002,-5.716305e-003
5.149088e+002,-6.235512e-003
5.168373e+002,-6.917834e-003
5.187658e+002,-7.546857e-003
5.206943e+002,-8.080403e-003
5.226228e+002,-7.295950e-003
5.245513e+002,-6.895006e-003
5.264798e+002,-6.947410e-003
5.284083e+002,-7.384401e-003
5.303368e+002,-7.106770e-003
5.322653e+002,-6.813011e-003
5.341938e+002,-6.870383e-003
5.361223e+002,-7.082061e-003
5.380508e+002,-7.419028e-003
5.399792e+002,-7.991574e-003
5.419078e+002,-6.773280e-003
5.438363e+002,-4.568070e-003
5.457648e+002,-3.652897e-003
5.476932e+002,-5.016501e-003
5.496218e+002,-4.149962e-003
5.515503e+002,-2.794856e-003
5.534788e+002,-2.965554e-003
5.554072e+002,-3.654638e-003
5.573358e+002,-3.860730e-003
5.592643e+002,-3.330323e-003
5.611927e+002,-4.084188e-003
5.631212e+002,-4.299262e-003
5.650497e+002,-4.650883e-003
5.669783e+002,-4.841955e-003
5.689067e+002,-4.285318e-003
5.708352e+002,-4.538003e-003
5.727637e+002,-4.835926e-003
5.746923e+002,-4.926682e-003
5.766207e+002,-5.083804e-003
5.785492e+002,-4.989314e-003
5.804777e+002,-3.722186e-003
5.824063e+002,-4.564726e-003
5.843347e+002,-6.535504e-003
5.862632e+002,-7.247922e-003
5.881917e+002,-6.754588e-003
5.901202e+002,-6.925823e-003
5.920487e+002,-6.260824e-003
5.939772e+002,-3.818265e-003
5.959057e+002,-2.420378e-003
5.978342e+002,-4.311926e-003
5.997627e+002,-5.123461e-003
6.016912e+002,-4.848213e-003
6.036197e+002,-4.985122e-003
6.055482e+002,-5.511419e-003
6.074767e+002,-4.641376e-003
6.094052e+002,-2.273561e-003
6.113337e+002,-9.125130e-004
6.132622e+002,-1.977899e-003
6.151907e+002,-3.146316e-003
6.171192e+002,-3.468960e-003
6.190477e+002,-3.528583e-003
6.209762e+002,-4.687170e-003
6.229047e+002,-5.707247e-003
6.248332e+002,-7.340325e-003
6.267617e+002,-8.702388e-003
6.286902e+002,-8.523047e-003
6.306187e+002,-7.680020e-003
6.325472e+002,-6.733122e-003
6.344756e+002,-5.698221e-003
6.364042e+002,-4.999763e-003
6.383326e+002,-4.711688e-003
6.402612e+002,-4.313828e-003
6.421896e+002,-4.161776e-003
6.441182e+002,-4.247948e-003
6.460466e+002,-4.764651e-003
6.479752e+002,-5.399253e-003
6.499036e+002,-5.109675e-003
6.518322e+002,-4.252738e-003
6.537606e+002,-4.256610e-003
6.556891e+002,-4.547873e-003
6.576177e+002,-4.268159e-003
6.595461e+002,-3.920957e-003
6.614746e+002,-3.715583e-003
6.634031e+002,-3.494040e-003
6.653317e+002,-3.514220e-003
6.672601e+002,-3.529668e-003
6.691886e+002,-3.114604e-003
6.711171e+002,-2.905886e-003
6.730457e+002,-2.896704e-003
6.749741e+002,-2.313310e-003
6.769026e+002,-1.778567e-003
6.788311e+002,-1.832747e-003
6.807596e+002,-2.314958e-003
6.826881e+002,-2.083631e-003
6.846166e+002,-1.452088e-003
6.865451e+002,-1.366020e-003
6.884736e+002,-1.437590e-003
6.904021e+002,-1.417544e-003
6.923306e+002,-1.576502e-003
6.942591e+002,-1.745600e-003
6.961876e+002,-1.771010e-003
6.981161e+002,-1.330941e-003
7.000446e+002,-1.079027e-003
7.019731e+002,-1.286113e-003
7.039016e+002,-8.916488e-004
7.058301e+002,-1.774013e-003
7.077585e+002,-3.509422e-003
7.096871e+002,-3.170822e-003
7.116156e+002,-2.418664e-003
7.135441e+002,-2.046169e-003
7.154725e+002,-1.858251e-003
7.174011e+002,-2.678002e-003
7.193296e+002,-3.667617e-003
7.212581e+002,-4.051198e-003
7.231865e+002,-4.019125e-003
7.251151e+002,-3.731121e-003
7.270436e+002,-3.364190e-003
7.289720e+002,-3.246107e-003
7.309005e+002,-2.991419e-003
7.328290e+002,-3.135855e-003
7.347576e+002,-3.249297e-003
7.366860e+002,-3.128223e-003
7.386145e+002,-3.221145e-003
7.405430e+002,-3.523456e-003
7.424716e+002,-3.110426e-003
7.444000e+002,-2.635685e-003
7.463285e+002,-1.861913e-003
7.482570e+002,-1.309667e-003
7.501855e+002,-6.163857e-004
7.521140e+002,-9.840698e-006
7.540425e+002,8.049004e-005
7.559710e+002,3.040781e-004
7.578995e+002,3.589900e-004
7.598280e+002,4.261139e-004
7.617565e+002,4.700950e-004
7.636850e+002,8.676194e-004
7.656135e+002,1.508759e-003
7.675420e+002,1.547795e-003
7.694705e+002,1.310472e-003
7.713990e+002,1.543040e-003
7.733275e+002,2.049963e-003
7.752560e+002,2.244358e-003
7.771844e+002,2.229671e-003
7.791130e+002,2.393127e-003
7.810415e+002,2.011214e-003
7.829700e+002,1.479799e-003
7.848984e+002,1.466235e-003
7.868270e+002,1.302662e-003
7.887555e+002,1.292426e-003
7.906840e+002,9.983154e-004
7.926124e+002,3.433381e-004
7.945410e+002,1.985183e-004
7.964695e+002,4.286014e-004
7.983979e+002,6.468603e-004
8.003264e+002,6.158350e-004
8.022549e+002,3.542479e-004
8.041835e+002,4.456495e-004
8.061119e+002,2.063747e-004
8.080404e+002,2.158225e-004
8.099689e+002,3.374356e-004
8.118975e+002,1.039208e-004
8.138259e+002,-1.739851e-004
8.157545e+002,-4.610473e-004
8.176830e+002,-4.145409e-004
8.196115e+002,2.296250e-005
8.215399e+002,-1.247649e-004
8.234684e+002,-1.956124e-004
8.253970e+002,-9.140719e-005
8.273254e+002,7.488939e-005
8.292539e+002,2.425426e-004
8.311824e+002,3.246692e-004
8.331110e+002,7.220937e-004
8.350394e+002,9.850316e-004
8.369679e+002,7.644119e-004
8.388964e+002,8.616102e-004
8.408250e+002,7.387550e-004
8.427534e+002,3.938109e-004
8.446819e+002,6.181576e-004
8.466104e+002,5.975857e-004
8.485389e+002,3.348491e-004
8.504674e+002,4.073420e-004
8.523959e+002,2.488085e-004
8.543244e+002,3.456593e-004
8.562529e+002,3.533857e-004
8.581814e+002,3.937114e-004
8.601099e+002,4.119189e-004
8.620384e+002,-1.020516e-005
8.639669e+002,-5.343882e-004
8.658954e+002,-5.593068e-004
8.678239e+002,-8.270990e-004
8.697524e+002,-1.140334e-003
8.716809e+002,-1.058997e-003
8.736094e+002,-8.646661e-004
8.755378e+002,-1.127214e-003
8.774664e+002,-1.076416e-003
8.793949e+002,-7.004848e-004
8.813234e+002,-5.629137e-004
8.832518e+002,-1.453678e-004
8.851804e+002,2.714858e-004
8.871089e+002,8.168309e-005
8.890374e+002,-1.332778e-004
8.909658e+002,1.219350e-005
8.928943e+002,2.650538e-004
8.948229e+002,2.608100e-004
8.967513e+002,3.518935e-004
8.986798e+002,4.530792e-004
9.006083e+002,2.672088e-004
9.025369e+002,5.273169e-004
9.044653e+002,5.290752e-004
9.063938e+002,1.136978e-004
9.083223e+002,1.142943e-004
9.102509e+002,4.503149e-005
9.121793e+002,-1.315222e-004
9.141078e+002,-4.732606e-004
9.160364e+002,-4.522429e-004
9.179648e+002,-5.489490e-004
9.198933e+002,-8.556053e-004
9.218218e+002,-1.113069e-003
9.237504e+002,-1.417115e-003
9.256788e+002,-1.535794e-003
9.276073e+002,-1.590434e-003
9.295358e+002,-1.725898e-003
9.314644e+002,-1.771076e-003
9.333928e+002,-2.038815e-003
9.353213e+002,-2.492598e-003
9.372498e+002,-2.889199e-003
9.391783e+002,-3.029392e-003
9.411068e+002,-2.840384e-003
9.430353e+002,-3.031037e-003
9.449637e+002,-3.327693e-003
9.468923e+002,-3.325687e-003
9.488208e+002,-3.348605e-003
9.507493e+002,-3.574494e-003
9.526777e+002,-3.650269e-003
9.546063e+002,-3.478065e-003
9.565348e+002,-3.334795e-003
9.584633e+002,-3.318355e-003
9.603917e+002,-3.629996e-003
9.623203e+002,-3.533579e-003
9.642488e+002,-3.193682e-003
9.661772e+002,-3.208548e-003
9.681057e+002,-3.596939e-003
9.700343e+002,-3.736673e-003
9.719628e+002,-3.495913e-003
9.738912e+002,-3.430237e-003
9.758197e+002,-3.649086e-003
9.777483e+002,-3.543011e-003
9.796768e+002,-3.439474e-003
9.816052e+002,-3.685555e-003
9.835337e+002,-3.838070e-003
9.854623e+002,-3.534959e-003
9.873907e+002,-3.494598e-003
9.893192e+002,-3.541433e-003
9.912477e+002,-3.347520e-003
9.931763e+002,-3.386152e-003
9.951047e+002,-3.265379e-003
9.970332e+002,-3.153947e-003
9.989617e+002,-3.150164e-003
1.000890e+003,-2.872840e-003
1.002819e+003,-2.658046e-003
1.004747e+003,-2.712808e-003
1.006676e+003,-2.582296e-003
1.008604e+003,-2.381792e-003
1.010533e+003,-2.211920e-003
1.012461e+003,-2.052105e-003
1.014390e+003,-1.708571e-003
1.016318e+003,-1.415067e-003
1.018247e+003,-1.558344e-003
1.020175e+003,-1.517370e-003
1.022104e+003,-1.058105e-003
1.024032e+003,-8.173760e-004
1.025961e+003,-4.644564e-004
1.027889e+003,-1.803443e-004
1.029818e+003,-1.065791e-004
1.031746e+003,-5.632750e-006
1.033675e+003,2.293149e-004
1.035603e+003,5.963581e-004
1.037532e+003,1.035114e-003
1.039460e+003,1.315656e-003
1.041389e+003,1.363450e-003
1.043317e+003,1.390706e-003
1.045246e+003,1.385388e-003
1.047174e+003,1.305121e-003
1.049103e+003,1.347961e-003
1.051031e+003,1.648861e-003
1.052960e+003,1.381100e-003
1.054888e+003,1.196294e-003
1.056817e+003,1.281858e-003
1.058745e+003,1.343175e-003
1.060674e+003,1.099120e-003
1.062602e+003,8.606474e-004
1.064531e+003,1.016847e-003
1.066459e+003,1.071584e-003
1.068388e+003,9.514915e-004
1.070316e+003,1.217891e-003
1.072245e+003,1.245470e-003
1.074173e+003,1.140180e-003
1.076102e+003,1.255406e-003
1.078030e+003,1.441899e-003
1.079959e+003,1.559434e-003
1.081887e+003,1.393199e-003
1.083816e+003,1.116859e-003
1.085744e+003,1.085069e-003
1.087673e+003,9.888174e-004
1.089601e+003,1.100084e-003
1.091530e+003,1.126958e-003
1.093458e+003,1.182007e-003
1.095387e+003,1.284118e-003
1.097315e+003,1.161874e-003
1.099244e+003,9.494658e-004
1.101172e+003,9.495987e-004
1.103101e+003,1.069690e-003
1.105029e+003,1.074008e-003
1.106958e+003,9.078268e-004
1.108886e+003,8.748571e-004
1.110815e+003,9.961568e-004
1.112743e+003,1.068561e-003
1.114672e+003,9.759323e-004
1.116600e+003,1.052485e-003
1.118529e+003,1.364281e-003
1.120457e+003,1.360924e-003
1.122386e+003,1.300468e-003
1.124314e+003,1.281027e-003
1.126243e+003,1.219220e-003
1.128171e+003,1.380634e-003
1.130100e+003,1.332706e-003
1.132028e+003,9.005222e-004
1.133957e+003,6.255571e-004
1.135885e+003,4.409728e-004
1.137814e+003,5.848552e-005
1.139742e+003,-4.833223e-004
1.141671e+003,-8.557706e-004
1.143599e+003,-1.145654e-003
1.145528e+003,-1.573663e-003
1.147456e+003,-1.810838e-003
1.149385e+003,-2.091578e-003
1.151313e+003,-2.645795e-003
1.153242e+003,-2.844631e-003
1.155170e+003,-2.879193e-003
1.157099e+003,-3.086311e-003
1.159027e+003,-3.261531e-003
1.160956e+003,-3.423038e-003
1.162884e+003,-3.404957e-003
1.164813e+003,-3.367675e-003
1.166741e+003,-3.433590e-003
1.168670e+003,-3.413241e-003
1.170598e+003,-3.143849e-003
1.172526e+003,-2.889133e-003
1.174455e+003,-2.961539e-003
1.176384e+003,-2.991156e-003
1.178312e+003,-3.002673e-003
1.180240e+003,-2.970786e-003
1.182169e+003,-2.811317e-003
1.184098e+003,-2.822049e-003
1.186026e+003,-2.808749e-003
1.187954e+003,-2.720941e-003
1.189883e+003,-2.636903e-003
1.191812e+003,-2.728086e-003
1.193740e+003,-2.871392e-003
1.195668e+003,-2.952884e-003
1.197597e+003,-2.948211e-003
1.199526e+003,-2.995532e-003
1.201454e+003,-2.878634e-003
1.203382e+003,-2.700757e-003
1.205311e+003,-2.601663e-003
1.207240e+003,-2.496024e-003
1.209168e+003,-2.340203e-003
1.211096e+003,-2.229984e-003
1.213025e+003,-2.296666e-003
1.214953e+003,-2.297721e-003
1.216882e+003,-2.234171e-003
1.218810e+003,-2.136322e-003
1.220739e+003,-1.959955e-003
1.222667e+003,-1.927992e-003
1.224596e+003,-1.971401e-003
1.226524e+003,-1.798860e-003
1.228453e+003,-1.710914e-003
1.230381e+003,-1.672166e-003
1.232310e+003,-1.619088e-003
1.234238e+003,-1.613674e-003
1.236167e+003,-1.531304e-003
1.238095e+003,-1.560193e-003
1.240024e+003,-1.758272e-003
1.241952e+003,-1.851026e-003
1.243881e+003,-2.015004e-003
1.245809e+003,-2.324582e-003
1.247738e+003,-2.673754e-003
1.249666e+003,-3.005075e-003
1.251595e+003,-3.061965e-003
1.253523e+003,-3.040085e-003
1.255452e+003,-3.050910e-003
1.257380e+003,-3.214205e-003
1.259309e+003,-3.610214e-003
1.261237e+003,-3.897412e-003
1.263166e+003,-4.017353e-003
1.265094e+003,-3.949786e-003
1.267023e+003,-3.820794e-003
1.268951e+003,-3.820991e-003
1.270880e+003,-3.862208e-003
1.272808e+003,-3.941511e-003
1.274737e+003,-4.026676e-003
1.276665e+003,-4.041087e-003
1.278594e+003,-4.099910e-003
1.280522e+003,-4.283744e-003
1.282451e+003,-4.421093e-003
1.284379e+003,-4.314747e-003
1.286308e+003,-4.121769e-003
1.288236e+003,-4.146483e-003
1.290165e+003,-4.373073e-003
1.292093e+003,-4.479273e-003
1.294022e+003,-4.491406e-003
1.295950e+003,-4.443756e-003
1.297879e+003,-4.392885e-003
1.299807e+003,-4.418764e-003
1.301736e+003,-4.544299e-003
1.303664e+003,-4.508000e-003
1.305593e+003,-4.464056e-003
1.307521e+003,-4.640656e-003
1.309450e+003,-4.803616e-003
1.311378e+003,-4.793458e-003
1.313307e+003,-4.914855e-003
1.315235e+003,-4.908204e-003
1.317164e+003,-4.770420e-003
1.319092e+003,-4.834583e-003
1.321021e+003,-4.808663e-003
1.322949e+003,-4.709295e-003
1.324878e+003,-4.637640e-003
1.326806e+003,-4.327771e-003
1.328735e+003,-4.141068e-003
1.330663e+003,-4.042631e-003
1.332592e+003,-3.860369e-003
1.334520e+003,-3.836855e-003
1.336449e+003,-3.930282e-003
1.338377e+003,-3.973294e-003
1.340306e+003,-4.032782e-003
1.342234e+003,-3.980911e-003
1.344163e+003,-3.808839e-003
1.346091e+003,-3.836033e-003
1.348020e+003,-3.912090e-003
1.349948e+003,-3.914685e-003
1.351877e+003,-3.992172e-003
1.353805e+003,-4.191443e-003
1.355734e+003,-4.335611e-003
1.357662e+003,-4.495210e-003
1.359591e+003,-4.617707e-003
1.361519e+003,-4.876818e-003
1.363448e+003,-5.198081e-003
1.365376e+003,-5.298908e-003
1.367305e+003,-5.409365e-003
1.369233e+003,-5.619402e-003
1.371162e+003,-5.826460e-003
1.373090e+003,-6.152184e-003
1.375019e+003,-6.240117e-003
1.376947e+003,-6.134151e-003
1.378876e+003,-6.315950e-003
1.380804e+003,-6.598623e-003
1.382733e+003,-6.657786e-003
1.384661e+003,-6.616539e-003
1.386590e+003,-6.864219e-003
1.388518e+003,-6.939617e-003
1.390447e+003,-6.811935e-003
1.392375e+003,-7.064556e-003
1.394304e+003,-7.408734e-003
1.396232e+003,-7.309276e-003
1.398161e+003,-7.408246e-003
1.400089e+003,-7.552458e-003
1.402018e+003,-7.510124e-003
1.403946e+003,-7.534450e-003
1.405875e+003,-7.437236e-003
1.407803e+003,-7.232052e-003
1.409732e+003,-7.114626e-003
1.411660e+003,-6.999091e-003
1.413589e+003,-6.906159e-003
1.415517e+003,-6.864512e-003
1.417446e+003,-6.967594e-003
1.419374e+003,-6.835419e-003
1.421303e+003,-6.150093e-003
1.423231e+003,-5.827866e-003
1.425160e+003,-5.530525e-003
1.427088e+003,-5.121463e-003
1.429017e+003,-4.732730e-003
1.430945e+003,-4.127119e-003
1.432874e+003,-3.627367e-003
1.434802e+003,-3.640576e-003
1.436731e+003,-3.597563e-003
1.438659e+003,-2.842491e-003
1.440588e+003,-2.305433e-003
1.442516e+003,-1.976019e-003
1.444445e+003,-1.796914e-003
1.446373e+003,-1.718472e-003
1.448302e+003,-1.677942e-003
1.450230e+003,-1.399776e-003
1.452159e+003,-1.275145e-003
1.454087e+003,-1.611034e-003
1.456016e+003,-2.672141e-003
1.457944e+003,-2.795251e-003
1.459873e+003,-2.123398e-003
1.461801e+003,-1.878574e-003
1.463730e+003,-2.449867e-003
1.465658e+003,-2.822411e-003
1.467587e+003,-2.616418e-003
1.469515e+003,-2.944821e-003
1.471444e+003,-3.932088e-003
1.473372e+003,-4.488095e-003
1.475301e+003,-4.390622e-003
1.477229e+003,-4.453759e-003
1.479158e+003,-4.550791e-003
1.481086e+003,-4.884026e-003
1.483015e+003,-5.078794e-003
1.484943e+003,-5.368000e-003
1.486872e+003,-5.806157e-003
1.488800e+003,-6.153654e-003
1.490729e+003,-6.218985e-003
1.492657e+003,-6.037733e-003
1.494586e+003,-6.231919e-003
1.496514e+003,-6.596600e-003
1.498443e+003,-6.504789e-003
1.500371e+003,-6.182662e-003
1.502300e+003,-6.024858e-003
1.504228e+003,-6.794810e-003
1.506157e+003,-8.123104e-003
1.508085e+003,-7.761266e-003
1.510014e+003,-6.987419e-003
1.511942e+003,-6.686988e-003
1.513871e+003,-6.426704e-003
1.515799e+003,-6.616083e-003
1.517728e+003,-6.771192e-003
1.519656e+003,-6.947475e-003
1.521585e+003,-7.336448e-003
1.523513e+003,-6.884244e-003
1.525442e+003,-6.701736e-003
1.527370e+003,-6.445019e-003
1.529299e+003,-6.165087e-003
1.531227e+003,-6.146467e-003
1.533156e+003,-6.324996e-003
1.535084e+003,-5.849900e-003
1.537013e+003,-6.006362e-003
1.538941e+003,-7.087049e-003
1.540870e+003,-7.156835e-003
1.542798e+003,-6.363690e-003
1.544727e+003,-5.855000e-003
1.546655e+003,-5.404064e-003
1.548584e+003,-5.353273e-003
1.550512e+003,-5.273900e-003
1.552441e+003,-5.230263e-003
1.554369e+003,-5.609393e-003
1.556298e+003,-6.226595e-003
1.558226e+003,-7.422676e-003
1.560155e+003,-6.696744e-003
1.562083e+003,-5.177291e-003
1.564012e+003,-4.757310e-003
1.565940e+003,-4.563808e-003
1.567869e+003,-4.455037e-003
1.569797e+003,-4.410302e-003
1.571726e+003,-3.901977e-003
1.573654e+003,-4.040529e-003
1.575583e+003,-4.548233e-003
1.577511e+003,-4.050903e-003
1.579440e+003,-3.391543e-003
1.581368e+003,-3.361132e-003
1.583297e+003,-3.285768e-003
1.585225e+003,-3.162434e-003
1.587154e+003,-3.111873e-003
1.589082e+003,-3.127598e-003
1.591010e+003,-3.067459e-003
1.592939e+003,-3.216310e-003
1.594868e+003,-3.395719e-003
1.596796e+003,-3.477079e-003
1.598724e+003,-3.475600e-003
1.600653e+003,-3.573607e-003
1.602582e+003,-3.735753e-003
1.604510e+003,-3.852750e-003
1.606438e+003,-4.020537e-003
1.608367e+003,-4.255757e-003
1.610296e+003,-4.370613e-003
1.612224e+003,-4.475928e-003
1.614152e+003,-4.927075e-003
1.616081e+003,-5.800076e-003
1.618010e+003,-5.806517e-003
1.619938e+003,-5.527810e-003
1.621866e+003,-5.919395e-003
1.623795e+003,-6.188117e-003
1.625724e+003,-6.180114e-003
1.627652e+003,-6.310595e-003
1.629580e+003,-6.262261e-003
1.631509e+003,-6.325845e-003
1.633438e+003,-6.972192e-003
1.635366e+003,-7.769240e-003
1.637294e+003,-7.441665e-003
1.639223e+003,-6.972290e-003
1.641151e+003,-6.985984e-003
1.643080e+003,-7.351238e-003
1.645008e+003,-8.103266e-003
1.646937e+003,-8.603875e-003
1.648865e+003,-8.315125e-003
1.650794e+003,-8.928140e-003
1.652722e+003,-1.045881e-002
1.654651e+003,-9.588034e-003
1.656579e+003,-8.533964e-003
1.658508e+003,-8.438077e-003
1.660436e+003,-8.624794e-003
1.662365e+003,-8.880876e-003
1.664293e+003,-8.656756e-003
1.666222e+003,-8.500921e-003
1.668150e+003,-8.987116e-003
1.670079e+003,-9.223359e-003
1.672007e+003,-8.716223e-003
1.673936e+003,-8.683193e-003
1.675864e+003,-8.515541e-003
1.677793e+003,-7.764423e-003
1.679721e+003,-7.566655e-003
1.681650e+003,-7.783853e-003
1.683578e+003,-8.605954e-003
1.685507e+003,-8.033893e-003
1.687435e+003,-7.069478e-003
1.689364e+003,-6.732045e-003
1.691292e+003,-6.323853e-003
1.693221e+003,-6.258995e-003
1.695149e+003,-6.868296e-003
1.697078e+003,-6.620292e-003
1.699006e+003,-6.951747e-003
1.700935e+003,-7.143341e-003
1.702863e+003,-6.265265e-003
1.704792e+003,-6.373453e-003
1.706720e+003,-6.091221e-003
1.708649e+003,-5.654071e-003
1.710577e+003,-5.574033e-003
1.712506e+003,-5.780002e-003
1.714434e+003,-6.250928e-003
1.716363e+003,-6.920573e-003
1.718291e+003,-6.933780e-003
1.720220e+003,-6.123141e-003
1.722148e+003,-5.925932e-003
1.724077e+003,-5.936816e-003
1.726005e+003,-5.733636e-003
1.727934e+003,-5.826296e-003
1.729862e+003,-6.020839e-003
1.731791e+003,-6.400194e-003
1.733719e+003,-7.146047e-003
1.735648e+003,-6.558546e-003
1.737576e+003,-6.064004e-003
1.739505e+003,-6.300895e-003
1.741433e+003,-6.106446e-003
1.743362e+003,-6.051064e-003
1.745290e+003,-5.943810e-003
1.747219e+003,-5.932076e-003
1.749147e+003,-5.955870e-003
1.751076e+003,-5.845160e-003
1.753004e+003,-5.362633e-003
1.754933e+003,-5.268466e-003
1.756861e+003,-5.416564e-003
1.758790e+003,-5.326828e-003
1.760718e+003,-5.376182e-003
1.762647e+003,-5.213337e-003
1.764575e+003,-4.865972e-003
1.766504e+003,-5.048238e-003
1.768432e+003,-5.246173e-003
1.770361e+003,-5.485343e-003
1.772289e+003,-5.752078e-003
1.774218e+003,-5.320609e-003
1.776146e+003,-4.996193e-003
1.778075e+003,-4.950890e-003
1.780003e+003,-5.005823e-003
1.781932e+003,-4.841758e-003
1.783860e+003,-4.817543e-003
1.785789e+003,-4.933430e-003
1.787717e+003,-4.825637e-003
1.789646e+003,-4.872361e-003
1.791574e+003,-5.311739e-003
1.793503e+003,-5.236090e-003
1.795431e+003,-4.887171e-003
1.797360e+003,-4.767208e-003
1.799288e+003,-4.763963e-003
1.801217e+003,-4.749641e-003
1.803145e+003,-4.560464e-003
1.805074e+003,-4.604954e-003
1.807002e+003,-4.701036e-003
1.808931e+003,-4.779694e-003
1.810859e+003,-4.893854e-003
1.812788e+003,-4.951152e-003
1.814716e+003,-4.839235e-003
1.816645e+003,-4.739645e-003
1.818573e+003,-4.667962e-003
1.820502e+003,-4.767503e-003
1.822430e+003,-4.969268e-003
1.824359e+003,-5.206135e-003
1.826287e+003,-5.117305e-003
1.828216e+003,-5.178862e-003
1.830144e+003,-5.445065e-003
1.832073e+003,-5.186426e-003
1.834001e+003,-5.034515e-003
1.835930e+003,-5.079612e-003
1.837858e+003,-5.002678e-003
1.839787e+003,-4.950792e-003
1.841715e+003,-5.170743e-003
1.843644e+003,-5.560491e-003
1.845572e+003,-5.455012e-003
1.847501e+003,-5.220867e-003
1.849429e+003,-5.124901e-003
1.851358e+003,-5.008116e-003
1.853286e+003,-4.975295e-003
1.855215e+003,-5.030224e-003
1.857143e+003,-5.029242e-003
1.859072e+003,-4.970021e-003
1.861000e+003,-5.017877e-003
1.862929e+003,-5.042605e-003
1.864857e+003,-4.951349e-003
1.866786e+003,-5.075257e-003
1.868714e+003,-5.219165e-003
1.870643e+003,-4.978571e-003
1.872571e+003,-4.811186e-003
1.874500e+003,-4.825834e-003
1.876428e+003,-4.839202e-003
1.878357e+003,-4.863515e-003
1.880285e+003,-4.790640e-003
1.882214e+003,-4.676353e-003
1.884142e+003,-4.667536e-003
1.886071e+003,-4.733058e-003
1.887999e+003,-4.875835e-003
1.889928e+003,-4.908237e-003
1.891856e+003,-4.744201e-003
1.893785e+003,-4.751673e-003
1.895713e+003,-4.825637e-003
1.897642e+003,-4.721783e-003
1.899570e+003,-4.659177e-003
1.901499e+003,-4.722996e-003
1.903427e+003,-4.683270e-003
1.905356e+003,-4.628624e-003
1.907284e+003,-4.634853e-003
1.909213e+003,-4.761047e-003
1.911141e+003,-4.750854e-003
1.913070e+003,-4.653047e-003
1.914998e+003,-4.608167e-003
1.916927e+003,-4.657439e-003
1.918855e+003,-4.694578e-003
1.920784e+003,-4.640393e-003
1.922712e+003,-4.702412e-003
1.924641e+003,-4.623477e-003
1.926569e+003,-4.610725e-003
1.928498e+003,-4.656226e-003
1.930426e+003,-4.696184e-003
1.932355e+003,-4.808794e-003
1.934283e+003,-4.889923e-003
1.936212e+003,-4.887761e-003
1.938140e+003,-4.879995e-003
1.940069e+003,-4.943618e-003
1.941997e+003,-5.070868e-003
1.943926e+003,-5.019219e-003
1.945854e+003,-5.004677e-003
1.947783e+003,-4.994359e-003
1.949711e+003,-4.979946e-003
1.951640e+003,-5.011391e-003
1.953568e+003,-5.015060e-003
1.955497e+003,-4.992852e-003
1.957425e+003,-5.014208e-003
1.959354e+003,-5.016141e-003
1.961282e+003,-4.992950e-003
1.963211e+003,-5.096543e-003
1.965139e+003,-5.203778e-003
1.967068e+003,-5.201355e-003
1.968996e+003,-5.182889e-003
1.970925e+003,-5.177291e-003
1.972853e+003,-5.091172e-003
1.974782e+003,-5.006675e-003
1.976710e+003,-5.028226e-003
1.978639e+003,-5.019842e-003
1.980567e+003,-5.010834e-003
1.982496e+003,-5.052332e-003
1.984424e+003,-5.016828e-003
1.986353e+003,-4.998290e-003
1.988281e+003,-5.046240e-003
1.990210e+003,-5.062517e-003
1.992138e+003,-5.123493e-003
1.994067e+003,-5.077353e-003
1.995995e+003,-4.967269e-003
1.997924e+003,-4.911317e-003
1.999852e+003,-4.901947e-003
2.001781e+003,-4.875179e-003
2.003709e+003,-4.918688e-003
2.005638e+003,-4.996554e-003
2.007566e+003,-4.942079e-003
2.009495e+003,-4.811284e-003
2.011423e+003,-4.830093e-003
2.013352e+003,-4.918131e-003
2.015280e+003,-4.962094e-003
2.017208e+003,-4.928418e-003
2.019137e+003,-4.813283e-003
2.021066e+003,-4.835139e-003
2.022994e+003,-4.987906e-003
2.024922e+003,-4.989380e-003
2.026851e+003,-4.919965e-003
2.028780e+003,-4.897262e-003
2.030708e+003,-4.924257e-003
2.032636e+003,-4.887105e-003
2.034565e+003,-4.937492e-003
2.036494e+003,-4.961079e-003
2.038422e+003,-4.966516e-003
2.040350e+003,-5.015485e-003
2.042279e+003,-4.968612e-003
2.044208e+003,-5.014765e-003
2.046136e+003,-5.093203e-003
2.048064e+003,-5.037397e-003
2.049993e+003,-5.043784e-003
2.051921e+003,-5.060192e-003
2.053850e+003,-5.072506e-003
2.055778e+003,-5.065628e-003
2.057707e+003,-5.019580e-003
2.059635e+003,-5.042866e-003
2.061564e+003,-5.157023e-003
2.063492e+003,-5.189208e-003
2.065421e+003,-5.159053e-003
2.067349e+003,-5.212879e-003
2.069278e+003,-5.226989e-003
2.071206e+003,-5.196149e-003
2.073135e+003,-5.124050e-003
2.075063e+003,-5.126277e-003
2.076992e+003,-5.135511e-003
2.078920e+003,-5.114194e-003
2.080849e+003,-5.030617e-003
2.082777e+003,-5.060093e-003
2.084706e+003,-5.093268e-003
2.086634e+003,-5.005463e-003
2.088563e+003,-5.013553e-003
2.090491e+003,-5.070377e-003
2.092420e+003,-5.034613e-003
2.094348e+003,-5.056524e-003
2.096277e+003,-5.033663e-003
2.098205e+003,-4.985187e-003
2.100134e+003,-4.987480e-003
2.102062e+003,-4.938049e-003
2.103991e+003,-4.764586e-003
2.105919e+003,-4.689760e-003
2.107848e+003,-4.743382e-003
2.109776e+003,-4.815741e-003
2.111705e+003,-4.891299e-003
2.113633e+003,-4.924322e-003
2.115562e+003,-4.829045e-003
2.117490e+003,-4.656522e-003
2.119419e+003,-4.628821e-003
2.121347e+003,-4.703789e-003
2.123276e+003,-4.750363e-003
2.125204e+003,-4.774582e-003
2.127133e+003,-4.702674e-003
2.129061e+003,-4.639639e-003
2.130990e+003,-4.589480e-003
2.132918e+003,-4.520264e-003
2.134847e+003,-4.548135e-003
2.136775e+003,-4.671600e-003
2.138704e+003,-4.565742e-003
2.140632e+003,-4.413319e-003
2.142561e+003,-4.465729e-003
2.144489e+003,-4.555086e-003
2.146418e+003,-4.601610e-003
2.148346e+003,-4.577283e-003
2.150275e+003,-4.625838e-003
2.152203e+003,-4.664782e-003
2.154132e+003,-4.613282e-003
2.156060e+003,-4.683761e-003
2.157989e+003,-4.862499e-003
2.159917e+003,-4.880192e-003
2.161846e+003,-4.768748e-003
2.163774e+003,-4.723422e-003
2.165703e+003,-4.756950e-003
2.167631e+003,-4.770846e-003
2.169560e+003,-4.703428e-003
2.171488e+003,-4.695463e-003
2.173417e+003,-4.721619e-003
2.175345e+003,-4.768748e-003
2.177274e+003,-4.812398e-003
2.179202e+003,-4.836843e-003
2.181131e+003,-4.842348e-003
2.183059e+003,-4.813644e-003
2.184988e+003,-4.788542e-003
2.186916e+003,-4.779628e-003
2.188845e+003,-4.724798e-003
2.190773e+003,-4.645606e-003
2.192702e+003,-4.686581e-003
2.194630e+003,-4.690907e-003
2.196559e+003,-4.560234e-003
2.198487e+003,-4.632296e-003
2.200416e+003,-4.692907e-003
2.202344e+003,-4.672813e-003
2.204273e+003,-4.715228e-003
2.206201e+003,-4.648195e-003
2.208130e+003,-4.599119e-003
2.210058e+003,-4.608266e-003
2.211987e+003,-4.599053e-003
2.213915e+003,-4.560529e-003
2.215844e+003,-4.552070e-003
2.217772e+003,-4.558234e-003
2.219701e+003,-4.566332e-003
2.221629e+003,-4.587546e-003
2.223558e+003,-4.526199e-003
2.225486e+003,-4.528658e-003
2.227415e+003,-4.623543e-003
2.229343e+003,-4.618560e-003
2.231272e+003,-4.552070e-003
2.233200e+003,-4.439459e-003
2.235129e+003,-4.361363e-003
2.237057e+003,-4.391737e-003
2.238986e+003,-4.389605e-003
2.240914e+003,-4.385603e-003
2.242843e+003,-4.406235e-003
2.244771e+003,-4.436901e-003
2.246700e+003,-4.456317e-003
2.248628e+003,-4.448642e-003
2.250557e+003,-4.415878e-003
2.252485e+003,-4.448970e-003
2.254414e+003,-4.469435e-003
2.256342e+003,-4.521477e-003
2.258271e+003,-4.575119e-003
2.260199e+003,-4.462974e-003
2.262128e+003,-4.536462e-003
2.264056e+003,-4.732632e-003
2.265985e+003,-4.722996e-003
2.267913e+003,-4.625280e-003
2.269842e+003,-4.687301e-003
2.271770e+003,-4.826456e-003
2.273699e+003,-4.836745e-003
2.275627e+003,-4.830683e-003
2.277556e+003,-4.951316e-003
2.279484e+003,-4.884746e-003
2.281413e+003,-4.713523e-003
2.283341e+003,-4.709066e-003
2.285270e+003,-4.841791e-003
2.287198e+003,-4.971462e-003
2.289127e+003,-4.992099e-003
2.291055e+003,-4.967728e-003
2.292984e+003,-4.962651e-003
2.294912e+003,-5.005856e-003
2.296841e+003,-4.980994e-003
2.298769e+003,-4.954592e-003
2.300698e+003,-4.964813e-003
2.302626e+003,-4.942406e-003
2.304555e+003,-4.958458e-003
2.306483e+003,-5.065989e-003
2.308412e+003,-4.999206e-003
2.310340e+003,-4.833566e-003
2.312269e+003,-4.853128e-003
2.314197e+003,-4.888809e-003
2.316125e+003,-4.832190e-003
2.318054e+003,-4.682942e-003
2.319983e+003,-4.516985e-003
2.321911e+003,-4.455398e-003
2.323840e+003,-4.400823e-003
2.325768e+003,-4.297129e-003
2.327697e+003,-4.206899e-003
2.329625e+003,-4.143299e-003
2.331553e+003,-4.104374e-003
2.333482e+003,-4.154031e-003
2.335411e+003,-4.238334e-003
2.337339e+003,-4.208113e-003
2.339268e+003,-4.073913e-003
2.341196e+003,-4.124132e-003
2.343125e+003,-4.200139e-003
2.345053e+003,-4.337120e-003
2.346981e+003,-4.565644e-003
2.348910e+003,-4.733058e-003
2.350839e+003,-4.446018e-003
2.352767e+003,-4.096529e-003
2.354696e+003,-3.961277e-003
2.356624e+003,-3.907756e-003
2.358552e+003,-3.842897e-003
2.360481e+003,-3.821812e-003
2.362409e+003,-3.904012e-003
2.364338e+003,-4.018009e-003
2.366267e+003,-4.097120e-003
2.368195e+003,-4.095708e-003
2.370124e+003,-4.218745e-003
2.372052e+003,-4.353194e-003
2.373980e+003,-4.501671e-003
2.375909e+003,-4.618822e-003
2.377838e+003,-4.657898e-003
2.379766e+003,-4.718440e-003
2.381695e+003,-4.851523e-003
2.383623e+003,-4.957803e-003
2.385552e+003,-4.841660e-003
2.387480e+003,-4.758130e-003
2.389408e+003,-4.732730e-003
2.391337e+003,-4.741350e-003
2.393266e+003,-4.707952e-003
2.395194e+003,-4.716342e-003
2.397123e+003,-4.779595e-003
2.399051e+003,-4.778219e-003
2.400979e+003,-4.777990e-003
2.402908e+003,-4.816003e-003
2.404836e+003,-4.834287e-003
2.406765e+003,-4.784314e-003
2.408694e+003,-4.774876e-003
2.410622e+003,-4.770682e-003
2.412551e+003,-4.726372e-003
2.414479e+003,-4.778776e-003
2.416407e+003,-4.767142e-003
2.418336e+003,-4.701199e-003
2.420264e+003,-4.685564e-003
2.422193e+003,-4.673797e-003
2.424122e+003,-4.606528e-003
2.426050e+003,-4.555054e-003
2.427979e+003,-4.552594e-003
2.429907e+003,-4.659767e-003
2.431835e+003,-4.720144e-003
2.433764e+003,-4.648326e-003
2.435692e+003,-4.684187e-003
2.437621e+003,-4.664225e-003
2.439550e+003,-4.641213e-003
2.441478e+003,-4.602758e-003
2.443406e+003,-4.548397e-003
2.445335e+003,-4.549676e-003
2.447263e+003,-4.613347e-003
2.449192e+003,-4.635640e-003
2.451121e+003,-4.537872e-003
2.453049e+003,-4.522100e-003
2.454978e+003,-4.517345e-003
2.456906e+003,-4.526658e-003
2.458834e+003,-4.492030e-003
2.460763e+003,-4.432342e-003
2.462691e+003,-4.426996e-003
2.464620e+003,-4.464056e-003
2.466549e+003,-4.460449e-003
2.468477e+003,-4.418075e-003
2.470406e+003,-4.433654e-003
2.472334e+003,-4.502031e-003
2.474262e+003,-4.503704e-003
2.476191e+003,-4.507672e-003
2.478119e+003,-4.522985e-003
2.480048e+003,-4.461859e-003
2.481977e+003,-4.399314e-003
2.483905e+003,-4.401216e-003
2.485833e+003,-4.441034e-003
2.487762e+003,-4.541839e-003
2.489690e+003,-4.603774e-003
2.491619e+003,-4.614921e-003
2.493547e+003,-4.597578e-003
2.495476e+003,-4.633017e-003
2.497405e+003,-4.580038e-003
2.499333e+003,-4.531085e-003
2.501261e+003,-4.557251e-003
2.503190e+003,-4.530495e-003
2.505118e+003,-4.537938e-003
2.507047e+003,-4.493604e-003
2.508975e+003,-4.588103e-003
2.510904e+003,-4.565808e-003
2.512833e+003,-4.498326e-003
2.514761e+003,-4.550955e-003
2.516689e+003,-4.518264e-003
2.518618e+003,-4.548693e-003
2.520546e+003,-4.675731e-003
2.522475e+003,-4.631575e-003
2.524403e+003,-4.628821e-003
2.526332e+003,-4.594791e-003
2.528260e+003,-4.493473e-003
2.530189e+003,-4.406760e-003
2.532117e+003,-4.408662e-003
2.534046e+003,-4.487013e-003
2.535974e+003,-4.522985e-003
2.537903e+003,-4.541413e-003
2.539831e+003,-4.457956e-003
2.541760e+003,-4.353358e-003
2.543688e+003,-4.331937e-003
2.545617e+003,-4.329870e-003
2.547545e+003,-4.270161e-003
2.549474e+003,-4.192394e-003
2.551402e+003,-4.210738e-003
2.553331e+003,-4.284105e-003
2.555259e+003,-4.248473e-003
2.557188e+003,-4.242107e-003
2.559116e+003,-4.283908e-003
2.561045e+003,-4.258940e-003
2.562973e+003,-4.224881e-003
2.564902e+003,-4.243912e-003
2.566830e+003,-4.239811e-003
2.568759e+003,-4.172901e-003
2.570687e+003,-4.144809e-003
2.572616e+003,-4.112120e-003
2.574544e+003,-4.130499e-003
2.576473e+003,-4.109461e-003
2.578401e+003,-4.042237e-003
2.580330e+003,-3.959734e-003
2.582258e+003,-3.952544e-003
2.584187e+003,-4.001857e-003
2.586115e+003,-4.131911e-003
2.588044e+003,-4.177036e-003
2.589972e+003,-4.084450e-003
2.591901e+003,-4.053135e-003
2.593829e+003,-4.043254e-003
2.595758e+003,-3.940953e-003
2.597686e+003,-3.888316e-003
2.599615e+003,-3.956155e-003
2.601543e+003,-3.996867e-003
2.603472e+003,-4.047193e-003
2.605400e+003,-4.058945e-003
2.607329e+003,-4.050279e-003
2.609257e+003,-4.132731e-003
2.611186e+003,-4.059241e-003
2.613114e+003,-3.900926e-003
2.615043e+003,-3.892421e-003
2.616971e+003,-3.816032e-003
2.618900e+003,-3.765515e-003
2.620828e+003,-3.779015e-003
2.622757e+003,-3.707041e-003
2.624685e+003,-3.655098e-003
2.626614e+003,-3.770606e-003
2.628542e+003,-3.740714e-003
2.630471e+003,-3.653160e-003
2.632399e+003,-3.637553e-003
2.634328e+003,-3.640970e-003
2.636256e+003,-3.580902e-003
2.638185e+003,-3.563978e-003
2.640113e+003,-3.578076e-003
2.642042e+003,-3.493086e-003
2.643970e+003,-3.360639e-003
2.645899e+003,-3.319111e-003
2.647827e+003,-3.359389e-003
2.649756e+003,-3.306024e-003
2.651684e+003,-3.165164e-003
2.653613e+003,-3.164605e-003
2.655541e+003,-3.164342e-003
2.657470e+003,-3.159934e-003
2.659398e+003,-3.112597e-003
2.661327e+003,-3.084502e-003
2.663255e+003,-3.048738e-003
2.665184e+003,-3.032945e-003
2.667112e+003,-2.957886e-003
2.669041e+003,-2.985693e-003
2.670969e+003,-2.953048e-003
2.672898e+003,-2.862636e-003
2.674826e+003,-2.784519e-003
2.676755e+003,-2.729634e-003
2.678683e+003,-2.724926e-003
2.680612e+003,-2.735264e-003
2.682540e+003,-2.672668e-003
2.684469e+003,-2.634071e-003
2.686397e+003,-2.529757e-003
2.688326e+003,-2.459487e-003
2.690254e+003,-2.442355e-003
2.692183e+003,-2.463342e-003
2.694111e+003,-2.340137e-003
2.696040e+003,-2.299962e-003
2.697968e+003,-2.336907e-003
2.699897e+003,-2.271188e-003
2.701825e+003,-2.132102e-003
2.703754e+003,-2.070539e-003
2.705682e+003,-2.067769e-003
2.707611e+003,-2.053391e-003
2.709539e+003,-2.065791e-003
2.711468e+003,-2.009067e-003
2.713396e+003,-1.905626e-003
2.715325e+003,-1.884645e-003
2.717253e+003,-1.763387e-003
2.719182e+003,-1.722466e-003
2.721110e+003,-1.661802e-003
2.723039e+003,-1.496436e-003
2.724967e+003,-1.441520e-003
2.726896e+003,-1.404201e-003
2.728824e+003,-1.290111e-003
2.730753e+003,-1.050800e-003
2.732681e+003,-8.914835e-004
2.734610e+003,-1.040454e-003
2.736538e+003,-9.352277e-004
2.738467e+003,-7.261215e-004
2.740395e+003,-6.755082e-004
2.742324e+003,-5.828341e-004
2.744252e+003,-5.479231e-004
2.746181e+003,-6.330281e-004
2.748109e+003,-5.164844e-004
2.750038e+003,-2.728725e-004
2.751966e+003,-1.305948e-004
2.753895e+003,-1.924992e-004
2.755823e+003,-1.120780e-004
2.757752e+003,1.723643e-004
2.759680e+003,2.971151e-004
2.761609e+003,5.242317e-004
2.763537e+003,8.222038e-004
2.765466e+003,9.820428e-004
2.767394e+003,1.304888e-003
2.769323e+003,1.732984e-003
2.771251e+003,2.050529e-003
2.773180e+003,2.322267e-003
2.775108e+003,2.734795e-003
2.777037e+003,3.248420e-003
2.778965e+003,3.753394e-003
2.780894e+003,4.173139e-003
2.782822e+003,4.602733e-003
2.784750e+003,5.188247e-003
2.786679e+003,5.766627e-003
2.788608e+003,6.280322e-003
2.790536e+003,6.793716e-003
2.792465e+003,7.332250e-003
2.794393e+003,7.955609e-003
2.796322e+003,8.441156e-003
2.798250e+003,8.773079e-003
2.800178e+003,9.145827e-003
2.802107e+003,9.452011e-003
2.804036e+003,9.612314e-003
2.805964e+003,9.878827e-003
2.807893e+003,9.984936e-003
2.809821e+003,9.968831e-003
2.811750e+003,9.827071e-003
2.813678e+003,9.644836e-003
2.815606e+003,9.473515e-003
2.817535e+003,9.334589e-003
2.819464e+003,9.079135e-003
2.821392e+003,8.754483e-003
2.823321e+003,8.347246e-003
2.825249e+003,7.909311e-003
2.827177e+003,7.420380e-003
2.829106e+003,6.907861e-003
2.831034e+003,6.475275e-003
2.832963e+003,6.041306e-003
2.834892e+003,5.670171e-003
2.836820e+003,5.343294e-003
2.838749e+003,4.843940e-003
2.840677e+003,4.394995e-003
2.842605e+003,3.992425e-003
2.844534e+003,3.322636e-003
2.846462e+003,2.705687e-003
2.848391e+003,2.344320e-003
2.850320e+003,2.121111e-003
2.852248e+003,1.946407e-003
2.854177e+003,1.801518e-003
2.856105e+003,1.739437e-003
2.858033e+003,1.760097e-003
2.859962e+003,1.783618e-003
2.861890e+003,1.860480e-003
2.863819e+003,1.958190e-003
2.865748e+003,2.020801e-003
2.867676e+003,2.050163e-003
2.869604e+003,2.185211e-003
2.871533e+003,2.465531e-003
2.873461e+003,2.591642e-003
2.875390e+003,2.668780e-003
2.877319e+003,2.769340e-003
2.879247e+003,2.842407e-003
2.881176e+003,2.928430e-003
2.883104e+003,2.911284e-003
2.885032e+003,2.813993e-003
2.886961e+003,2.774042e-003
2.888889e+003,2.670247e-003
2.890818e+003,2.592009e-003
2.892747e+003,2.482859e-003
2.894675e+003,2.378934e-003
2.896604e+003,2.393327e-003
2.898532e+003,2.265874e-003
2.900460e+003,2.110623e-003
2.902389e+003,2.004790e-003
2.904317e+003,1.855521e-003
2.906246e+003,1.827504e-003
2.908175e+003,1.946507e-003
2.910103e+003,1.817589e-003
2.912031e+003,1.613839e-003
2.913960e+003,1.461015e-003
2.915888e+003,1.407260e-003
2.917817e+003,1.399349e-003
2.919745e+003,1.569775e-003
2.921674e+003,1.813629e-003
2.923603e+003,1.950834e-003
2.925531e+003,2.137759e-003
2.927459e+003,2.327597e-003
2.929388e+003,2.469530e-003
2.931316e+003,2.637677e-003
2.933245e+003,2.867022e-003
2.935173e+003,2.886134e-003
2.937102e+003,2.815393e-003
2.939031e+003,2.775042e-003
2.940959e+003,2.618442e-003
2.942887e+003,2.375369e-003
2.944816e+003,2.104463e-003
2.946744e+003,1.866702e-003
2.948673e+003,1.448881e-003
2.950601e+003,8.481645e-004
2.952530e+003,4.236928e-004
2.954458e+003,-5.311062e-005
2.956387e+003,-5.867056e-004
2.958315e+003,-1.159864e-003
2.960244e+003,-1.689197e-003
2.962172e+003,-2.273198e-003
2.964101e+003,-2.698452e-003
2.966029e+003,-3.016460e-003
2.967958e+003,-3.435825e-003
2.969886e+003,-3.874622e-003
2.971815e+003,-4.042828e-003
2.973743e+003,-4.059208e-003
2.975672e+003,-4.124296e-003
2.977600e+003,-4.371597e-003
2.979529e+003,-4.763046e-003
2.981457e+003,-4.894018e-003
2.983386e+003,-4.831928e-003
2.985314e+003,-4.842414e-003
2.987243e+003,-4.963732e-003
2.989171e+003,-5.089797e-003
2.991100e+003,-5.160494e-003
2.993028e+003,-5.179255e-003
2.994957e+003,-5.152603e-003
2.996885e+003,-5.188030e-003
2.998814e+003,-5.169793e-003
3.000742e+003,-5.043227e-003
3.002671e+003,-5.025672e-003
3.004599e+003,-5.007133e-003
3.006528e+003,-4.917672e-003
3.008456e+003,-5.021872e-003
3.010385e+003,-4.979455e-003
3.012313e+003,-4.933135e-003
3.014242e+003,-5.109085e-003
3.016170e+003,-5.226531e-003
3.018099e+003,-5.156139e-003
3.020027e+003,-5.083477e-003
3.021956e+003,-5.031207e-003
3.023884e+003,-5.007232e-003
3.025813e+003,-4.959178e-003
3.027741e+003,-5.013422e-003
3.029670e+003,-4.978276e-003
3.031598e+003,-5.002678e-003
3.033527e+003,-5.000124e-003
3.035455e+003,-4.933299e-003
3.037384e+003,-4.903683e-003
3.039312e+003,-4.881077e-003
3.041241e+003,-4.939720e-003
3.043169e+003,-5.037855e-003
3.045098e+003,-4.910563e-003
3.047026e+003,-4.832747e-003
3.048955e+003,-4.878357e-003
3.050883e+003,-4.863319e-003
3.052812e+003,-4.835107e-003
3.054740e+003,-4.804534e-003
3.056669e+003,-4.891495e-003
3.058597e+003,-4.940506e-003
3.060526e+003,-4.941325e-003
3.062454e+003,-4.954625e-003
3.064383e+003,-4.902471e-003
3.066311e+003,-4.878652e-003
3.068240e+003,-4.867152e-003
3.070168e+003,-4.769698e-003
3.072097e+003,-4.731779e-003
3.074025e+003,-4.784413e-003
3.075954e+003,-4.739252e-003
3.077882e+003,-4.767830e-003
3.079811e+003,-4.645966e-003
3.081739e+003,-4.534855e-003
3.083668e+003,-4.620363e-003
3.085596e+003,-4.625477e-003
3.087525e+003,-4.569710e-003
3.089453e+003,-4.532199e-003
3.091382e+003,-4.556857e-003
3.093310e+003,-4.532822e-003
3.095239e+003,-4.483471e-003
3.097167e+003,-4.513902e-003
3.099096e+003,-4.506786e-003
3.101024e+003,-4.496949e-003
3.102953e+003,-4.488685e-003
3.104881e+003,-4.296112e-003
3.106810e+003,-4.195971e-003
3.108738e+003,-4.263795e-003
3.110667e+003,-4.250277e-003
3.112595e+003,-4.260711e-003
3.114524e+003,-4.274820e-003
3.116452e+003,-4.157051e-003
3.118381e+003,-4.104997e-003
3.120309e+003,-4.077524e-003
3.122238e+003,-3.958552e-003
3.124166e+003,-3.886838e-003
3.126095e+003,-4.000741e-003
3.128023e+003,-4.047554e-003
3.129952e+003,-3.944860e-003
3.131880e+003,-3.908905e-003
3.133809e+003,-3.958979e-003
3.135737e+003,-3.926538e-003
3.137666e+003,-3.875147e-003
3.139594e+003,-3.880073e-003
3.141523e+003,-3.796325e-003
3.143451e+003,-3.717061e-003
3.145380e+003,-3.577518e-003
3.147308e+003,-3.407948e-003
3.149237e+003,-3.378656e-003
3.151165e+003,-3.427246e-003
3.153094e+003,-3.427607e-003
3.155022e+003,-3.417449e-003
3.156951e+003,-3.363006e-003
3.158879e+003,-3.421920e-003
3.160808e+003,-3.417745e-003
3.162736e+003,-3.277809e-003
3.164665e+003,-3.224565e-003
3.166593e+003,-3.077790e-003
3.168522e+003,-2.963941e-003
3.170450e+003,-2.955681e-003
3.172379e+003,-2.964895e-003
3.174307e+003,-2.871195e-003
3.176236e+003,-2.841767e-003
3.178164e+003,-2.904800e-003
3.180093e+003,-2.949724e-003
3.182021e+003,-2.860431e-003
3.183950e+003,-2.753900e-003
3.185878e+003,-2.872742e-003
3.187807e+003,-2.904800e-003
3.189735e+003,-2.867837e-003
3.191664e+003,-2.865171e-003
3.193592e+003,-2.876527e-003
3.195521e+003,-2.895420e-003
3.197449e+003,-2.880378e-003
3.199378e+003,-2.873762e-003
3.201306e+003,-2.923494e-003
3.203235e+003,-2.900818e-003
3.205163e+003,-2.919973e-003
3.207092e+003,-2.786264e-003
3.209020e+003,-2.719328e-003
3.210948e+003,-2.766675e-003
3.212877e+003,-2.760287e-003
3.214806e+003,-2.718867e-003
3.216734e+003,-2.611676e-003
3.218663e+003,-2.540002e-003
3.220591e+003,-2.513089e-003
3.222520e+003,-2.454710e-003
3.224448e+003,-2.481528e-003
3.226376e+003,-2.431383e-003
3.228305e+003,-2.290766e-003
3.230234e+003,-2.221117e-003
3.232162e+003,-2.250587e-003
3.234091e+003,-2.208096e-003
3.236019e+003,-2.291129e-003
3.237948e+003,-2.278538e-003
3.239876e+003,-2.089039e-003
3.241804e+003,-1.960582e-003
3.243733e+003,-1.859241e-003
3.245662e+003,-1.825785e-003
3.247590e+003,-1.861155e-003
3.249519e+003,-1.708175e-003
3.251447e+003,-1.463514e-003
3.253375e+003,-1.397199e-003
3.255304e+003,-1.454730e-003
3.257232e+003,-1.482534e-003
3.259161e+003,-1.371503e-003
3.261090e+003,-1.113598e-003
3.263018e+003,-1.008026e-003
3.264947e+003,-1.167696e-003
3.266875e+003,-1.173082e-003
3.268803e+003,-1.172454e-003
3.270732e+003,-1.199550e-003
3.272660e+003,-1.126949e-003
3.274589e+003,-1.064847e-003
3.276518e+003,-9.932490e-004
3.278446e+003,-9.062638e-004
3.280375e+003,-1.014769e-003
3.282303e+003,-1.094792e-003
3.284231e+003,-1.065509e-003
3.286160e+003,-1.146745e-003
3.288088e+003,-1.149818e-003
3.290017e+003,-1.207150e-003
3.291946e+003,-1.264606e-003
3.293874e+003,-1.322055e-003
3.295802e+003,-1.554349e-003
3.297731e+003,-1.614500e-003
3.299659e+003,-1.468731e-003
3.301588e+003,-1.387093e-003
3.303516e+003,-1.564122e-003
3.305445e+003,-1.799388e-003
3.307374e+003,-1.894508e-003
3.309302e+003,-2.084917e-003
3.311230e+003,-2.069649e-003
3.313159e+003,-2.021699e-003
3.315087e+003,-2.211952e-003
3.317016e+003,-2.456193e-003
3.318944e+003,-2.529856e-003
3.320873e+003,-2.545503e-003
3.322802e+003,-2.396159e-003
3.324730e+003,-2.340500e-003
3.326658e+003,-2.421860e-003
3.328587e+003,-2.566453e-003
3.330515e+003,-2.650439e-003
3.332444e+003,-2.618361e-003
3.334372e+003,-2.393424e-003
3.336301e+003,-2.252498e-003
3.338229e+003,-2.300555e-003
3.340158e+003,-2.431548e-003
3.342086e+003,-2.584009e-003
3.344015e+003,-2.498132e-003
3.345943e+003,-2.256882e-003
3.347872e+003,-2.382418e-003
3.349800e+003,-2.524091e-003
3.351729e+003,-2.357340e-003
3.353657e+003,-2.230512e-003
3.355586e+003,-2.184260e-003
3.357514e+003,-2.295348e-003
3.359443e+003,-2.453557e-003
3.361371e+003,-2.403375e-003
3.363300e+003,-2.446275e-003
3.365229e+003,-2.510453e-003
3.367157e+003,-2.494607e-003
3.369085e+003,-2.607262e-003
3.371014e+003,-2.775202e-003
3.372942e+003,-2.954694e-003
3.374871e+003,-3.084370e-003
3.376799e+003,-3.195063e-003
3.378728e+003,-3.420211e-003
3.380656e+003,-3.636830e-003
3.382585e+003,-3.595953e-003
3.384513e+003,-3.630883e-003
3.386442e+003,-3.805850e-003
3.388370e+003,-3.964561e-003
3.390299e+003,-4.013544e-003
3.392227e+003,-4.037148e-003
3.394156e+003,-4.237710e-003
3.396084e+003,-4.438902e-003
3.398013e+003,-4.354802e-003
3.399941e+003,-4.240106e-003
3.401870e+003,-4.234987e-003
3.403798e+003,-4.356015e-003
3.405727e+003,-4.486029e-003
3.407655e+003,-4.345322e-003
3.409584e+003,-4.086222e-003
3.411512e+003,-4.123476e-003
3.413441e+003,-4.251098e-003
3.415369e+003,-4.205258e-003
3.417298e+003,-4.325770e-003
3.419226e+003,-4.361363e-003
3.421155e+003,-4.336235e-003
3.423083e+003,-4.298442e-003
3.425012e+003,-4.265895e-003
3.426940e+003,-4.146548e-003
3.428869e+003,-4.083137e-003
3.430797e+003,-4.204831e-003
3.432726e+003,-4.286664e-003
3.434654e+003,-4.280463e-003
3.436583e+003,-4.293783e-003
3.438511e+003,-4.314911e-003
3.440440e+003,-4.206472e-003
3.442368e+003,-4.138015e-003
3.444297e+003,-4.084188e-003
3.446225e+003,-4.152062e-003
3.448154e+003,-4.174280e-003
3.450082e+003,-4.083498e-003
3.452011e+003,-4.032487e-003
3.453939e+003,-4.026742e-003
3.455868e+003,-4.054120e-003
3.457796e+003,-4.182385e-003
3.459725e+003,-4.353818e-003
3.461653e+003,-4.320652e-003
3.463582e+003,-4.161054e-003
3.465510e+003,-4.180088e-003
3.467439e+003,-4.192788e-003
3.469367e+003,-4.162794e-003
3.471296e+003,-4.266978e-003
3.473224e+003,-4.263402e-003
3.475153e+003,-4.170965e-003
3.477081e+003,-4.009080e-003
3.479010e+003,-3.862570e-003
3.480938e+003,-3.939049e-003
3.482867e+003,-3.897773e-003
3.484795e+003,-3.854753e-003
3.486724e+003,-4.038068e-003
3.488652e+003,-4.144087e-003
3.490581e+003,-4.160168e-003
3.492509e+003,-4.111627e-003
3.494438e+003,-4.044731e-003
3.496366e+003,-4.093969e-003
3.498295e+003,-4.193083e-003
3.500223e+003,-4.163089e-003
3.502152e+003,-4.152488e-003
3.504080e+003,-4.078443e-003
3.506009e+003,-3.851010e-003
3.507937e+003,-3.904374e-003
3.509866e+003,-4.045453e-003
3.511794e+003,-3.793861e-003
3.513723e+003,-3.743966e-003
3.515651e+003,-3.842963e-003
3.517580e+003,-3.848087e-003
3.519508e+003,-3.876822e-003
3.521437e+003,-3.917410e-003
3.523365e+003,-3.893898e-003
3.525294e+003,-3.832027e-003
3.527222e+003,-3.832388e-003
3.529151e+003,-3.872816e-003
3.531079e+003,-3.796522e-003
3.533008e+003,-3.905195e-003
3.534936e+003,-3.975987e-003
3.536865e+003,-3.776551e-003
3.538793e+003,-3.761113e-003
3.540722e+003,-3.917935e-003
3.542650e+003,-3.904899e-003
3.544579e+003,-3.855180e-003
3.546507e+003,-3.762394e-003
3.548436e+003,-3.676060e-003
3.550364e+003,-3.675732e-003
3.552293e+003,-3.866773e-003
3.554221e+003,-4.036524e-003
3.556150e+003,-3.879121e-003
3.558078e+003,-3.663937e-003
3.560007e+003,-3.712692e-003
3.561935e+003,-3.619612e-003
3.563864e+003,-3.470768e-003
3.565792e+003,-3.754576e-003
3.567721e+003,-3.996276e-003
3.569649e+003,-3.847101e-003
3.571578e+003,-3.422183e-003
3.573506e+003,-3.378557e-003
3.575435e+003,-3.594014e-003
3.577363e+003,-3.499167e-003
3.579292e+003,-3.365833e-003
3.581220e+003,-3.414162e-003
3.583149e+003,-3.394338e-003
3.585077e+003,-3.618495e-003
3.587006e+003,-3.980780e-003
3.588934e+003,-3.828381e-003
3.590863e+003,-3.615110e-003
3.592791e+003,-3.839252e-003
3.594720e+003,-3.717521e-003
3.596648e+003,-3.408573e-003
3.598577e+003,-3.506759e-003
3.600505e+003,-3.522174e-003
3.602434e+003,-3.345777e-003
3.604362e+003,-3.430073e-003
3.606291e+003,-3.726062e-003
3.608219e+003,-3.819185e-003
3.610148e+003,-3.836559e-003
3.612076e+003,-3.799609e-003
3.614005e+003,-3.430500e-003
3.615933e+003,-3.426424e-003
3.617862e+003,-3.699715e-003
3.619790e+003,-3.708585e-003
3.621719e+003,-3.257716e-003
3.623647e+003,-2.974965e-003
3.625576e+003,-3.348868e-003
3.627504e+003,-4.068136e-003
3.629433e+003,-3.909365e-003
3.631361e+003,-3.329764e-003
3.633290e+003,-3.403872e-003
3.635218e+003,-3.501205e-003
3.637146e+003,-3.393417e-003
3.639075e+003,-3.265313e-003
3.641004e+003,-3.228775e-003
3.642932e+003,-3.284090e-003
3.644861e+003,-3.511065e-003
3.646789e+003,-3.957830e-003
3.648718e+003,-4.273999e-003
3.650646e+003,-4.093345e-003
3.652574e+003,-3.829202e-003
3.654503e+003,-4.064886e-003
3.656432e+003,-4.087273e-003
3.658360e+003,-3.687658e-003
3.660289e+003,-3.494040e-003
3.662217e+003,-3.233873e-003
3.664146e+003,-3.102465e-003
3.666074e+003,-3.308030e-003
3.668002e+003,-3.673530e-003
3.669931e+003,-3.864868e-003
3.671860e+003,-3.753985e-003
3.673788e+003,-4.334595e-003
3.675717e+003,-4.630165e-003
3.677645e+003,-4.012822e-003
3.679573e+003,-3.664692e-003
3.681502e+003,-3.355279e-003
3.683430e+003,-3.409395e-003
3.685359e+003,-3.465772e-003
3.687288e+003,-3.814061e-003
3.689216e+003,-3.964823e-003
3.691145e+003,-3.894062e-003
3.693073e+003,-3.520695e-003
3.695001e+003,-3.291489e-003
3.696930e+003,-3.265905e-003
3.698858e+003,-3.377801e-003
3.700787e+003,-3.598779e-003
3.702716e+003,-3.441545e-003
3.704644e+003,-3.082923e-003
3.706573e+003,-3.169012e-003
3.708501e+003,-3.655296e-003
3.710429e+003,-4.162597e-003
3.712358e+003,-4.037772e-003
3.714286e+003,-3.353077e-003
3.716215e+003,-3.042915e-003
3.718144e+003,-3.113452e-003
3.720072e+003,-3.223743e-003
3.722000e+003,-3.257157e-003
3.723929e+003,-3.096806e-003
3.725857e+003,-3.037288e-003
3.727786e+003,-2.876988e-003
3.729714e+003,-3.159210e-003
3.731643e+003,-3.719262e-003
3.733572e+003,-3.841880e-003
3.735500e+003,-3.660355e-003
3.737428e+003,-3.421460e-003
3.739357e+003,-3.269687e-003
3.741285e+003,-3.067690e-003
3.743214e+003,-3.449139e-003
3.745142e+003,-3.392826e-003
3.747071e+003,-3.318618e-003
3.749000e+003,-3.725701e-003
3.750928e+003,-3.815703e-003
3.752856e+003,-3.386974e-003
3.754785e+003,-2.996651e-003
3.756713e+003,-2.709351e-003
3.758642e+003,-2.608612e-003
3.760570e+003,-2.598007e-003
3.762499e+003,-2.447033e-003
3.764427e+003,-2.593198e-003
3.766356e+003,-2.641679e-003
3.768284e+003,-2.872873e-003
3.770213e+003,-2.681427e-003
3.772141e+003,-2.300687e-003
3.774070e+003,-2.285954e-003
3.775998e+003,-2.361459e-003
3.777927e+003,-2.612762e-003
3.779855e+003,-2.744352e-003
3.781784e+003,-2.509564e-003
3.783712e+003,-2.558877e-003
3.785641e+003,-2.546854e-003
3.787569e+003,-2.442025e-003
3.789498e+003,-2.233808e-003
3.791426e+003,-2.235588e-003
3.793355e+003,-2.313310e-003
3.795283e+003,-2.638122e-003
3.797212e+003,-2.886105e-003
3.799140e+003,-2.962987e-003
3.801069e+003,-2.968647e-003
3.802997e+003,-2.765621e-003
3.804926e+003,-2.756468e-003
3.806854e+003,-2.666806e-003
3.808783e+003,-2.169062e-003
3.810711e+003,-2.216798e-003
3.812640e+003,-2.396126e-003
3.814568e+003,-2.557856e-003
3.816497e+003,-2.456292e-003
3.818425e+003,-2.344586e-003
3.820354e+003,-2.773918e-003
3.822282e+003,-2.655280e-003
3.824211e+003,-2.351770e-003
3.826139e+003,-2.334106e-003
3.828068e+003,-2.138103e-003
3.829996e+003,-2.058701e-003
3.831925e+003,-2.063548e-003
3.833853e+003,-2.259585e-003
3.835782e+003,-2.818921e-003
3.837710e+003,-3.000567e-003
3.839639e+003,-2.797358e-003
3.841567e+003,-2.775268e-003
3.843496e+003,-2.467197e-003
3.845424e+003,-2.094546e-003
3.847353e+003,-1.990630e-003
3.849281e+003,-2.168073e-003
3.851210e+003,-2.776552e-003
3.853138e+003,-3.265050e-003
3.855067e+003,-2.611642e-003
3.856995e+003,-2.259750e-003
3.858924e+003,-2.310179e-003
3.860852e+003,-2.388283e-003
3.862781e+003,-2.447033e-003
3.864709e+003,-2.503140e-003
3.866638e+003,-2.216634e-003
3.868566e+003,-2.334567e-003
3.870495e+003,-2.301511e-003
3.872423e+003,-2.506072e-003
3.874352e+003,-2.532129e-003
3.876280e+003,-2.204799e-003
3.878209e+003,-2.193623e-003
3.880137e+003,-2.264497e-003
3.882066e+003,-1.981197e-003
3.883994e+003,-1.975359e-003
3.885923e+003,-1.967311e-003
3.887851e+003,-1.896983e-003
3.889780e+003,-2.271946e-003
3.891708e+003,-2.288426e-003
3.893637e+003,-1.990201e-003
3.895565e+003,-1.847693e-003
3.897494e+003,-1.856668e-003
3.899422e+003,-2.030867e-003
3.901351e+003,-2.012101e-003
3.903279e+003,-2.147269e-003
3.905208e+003,-2.049005e-003
3.907136e+003,-1.790974e-003
3.909065e+003,-1.824070e-003
3.910993e+003,-2.067506e-003
3.912922e+003,-1.837960e-003
3.914850e+003,-1.833308e-003
3.916779e+003,-2.110109e-003
3.918707e+003,-2.120826e-003
3.920636e+003,-1.836773e-003
3.922564e+003,-1.684016e-003
3.924493e+003,-1.804173e-003
3.926421e+003,-1.787047e-003
3.928350e+003,-1.851290e-003
3.930278e+003,-1.717746e-003
3.932207e+003,-1.532690e-003
3.934135e+003,-1.467675e-003
3.936064e+003,-1.572111e-003
3.937992e+003,-1.660218e-003
3.939921e+003,-1.807374e-003
3.941849e+003,-1.987563e-003
3.943778e+003,-1.892991e-003
3.945706e+003,-1.807374e-003
3.947635e+003,-1.524898e-003
3.949563e+003,-1.287303e-003
3.951492e+003,-1.523545e-003
3.953420e+003,-1.504790e-003
3.955349e+003,-1.391419e-003
3.957277e+003,-1.417181e-003
3.959206e+003,-1.529851e-003
3.961134e+003,-1.713687e-003
3.963063e+003,-1.733389e-003
3.964991e+003,-1.748075e-003
3.966920e+003,-1.903152e-003
3.968848e+003,-1.896653e-003
3.970777e+003,-1.738472e-003
3.972705e+003,-1.595518e-003
3.974634e+003,-1.522224e-003
3.976562e+003,-1.662066e-003
3.978491e+003,-1.679890e-003
3.980419e+003,-1.529653e-003
3.982348e+003,-1.625690e-003
3.984276e+003,-1.694346e-003
3.986205e+003,-1.558641e-003
3.988133e+003,-1.543256e-003
3.990062e+003,-1.600668e-003
3.991990e+003,-1.788862e-003
3.993919e+003,-1.855942e-003
3.995847e+003,-1.658105e-003
3.997776e+003,-1.462688e-003
3.999704e+003,-1.254265e-003
4.001633e+003,0.000000e+000
