3.991989e+002,3.523147e-002
4.011274e+002,3.675707e-002
4.030559e+002,3.257782e-002
4.049844e+002,2.338365e-002
4.069129e+002,1.729796e-002
4.088414e+002,2.735610e-002
4.107699e+002,2.547649e-002
4.126984e+002,2.083463e-002
4.146269e+002,1.516793e-002
4.165554e+002,1.203922e-002
4.184839e+002,2.023640e-002
4.204124e+002,2.403301e-002
4.223409e+002,1.985374e-002
4.242694e+002,2.127436e-002
4.261979e+002,1.865575e-002
4.281264e+002,1.504778e-002
4.300549e+002,1.257141e-002
4.319834e+002,5.566051e-003
4.339119e+002,5.707569e-003
4.358404e+002,9.894793e-003
4.377689e+002,1.151599e-002
4.396974e+002,1.112189e-002
4.416259e+002,1.084085e-002
4.435544e+002,1.326793e-002
4.454829e+002,1.421627e-002
4.474114e+002,1.448278e-002
4.493399e+002,9.515611e-003
4.512684e+002,6.925939e-003
4.531969e+002,9.385407e-003
4.551254e+002,1.574420e-002
4.570539e+002,1.478123e-002
4.589824e+002,4.841193e-003
4.609109e+002,7.548714e-003
4.628394e+002,1.235015e-002
4.647679e+002,8.185281e-003
4.666964e+002,6.825557e-003
4.686249e+002,5.444878e-003
4.705533e+002,6.028270e-003
4.724819e+002,9.215643e-003
4.744103e+002,1.039690e-002
4.763389e+002,9.541452e-003
4.782673e+002,8.444771e-003
4.801959e+002,8.857782e-003
4.821243e+002,1.135641e-002
4.840529e+002,1.243129e-002
4.859813e+002,1.022125e-002
4.879099e+002,9.160412e-003
4.898383e+002,7.950142e-003
4.917668e+002,7.439997e-003
4.936953e+002,9.322030e-003
4.956238e+002,9.399526e-003
4.975523e+002,7.204856e-003
4.994808e+002,7.854786e-003
5.014093e+002,9.196419e-003
5.033378e+002,9.274773e-003
5.052663e+002,9.118959e-003
5.071948e+002,8.724024e-003
5.091233e+002,8.130452e-003
5.110518e+002,6.589840e-003
5.129803e+002,6.089287e-003
5.149088e+002,5.488699e-003
5.168373e+002,6.710391e-003
5.187658e+002,7.689126e-003
5.206943e+002,7.845508e-003
5.226228e+002,7.372623e-003
5.245513e+002,6.231009e-003
5.264798e+002,6.548296e-003
5.284083e+002,7.852626e-003
5.303368e+002,6.908534e-003
5.322653e+002,5.780260e-003
5.341938e+002,5.467359e-003
5.361223e+002,6.016008e-003
5.380508e+002,5.913484e-003
5.399792e+002,6.673142e-003
5.419078e+002,7.318199e-003
5.438363e+002,7.251854e-003
5.457648e+002,6.439728e-003
5.476932e+002,5.467929e-003
5.496218e+002,5.402839e-003
5.515503e+002,6.460780e-003
5.534788e+002,6.235278e-003
5.554072e+002,6.454088e-003
5.573358e+002,6.657160e-003
5.592643e+002,6.746870e-003
5.611927e+002,5.873214e-003
5.631212e+002,5.321323e-003
5.650497e+002,4.175849e-003
5.669783e+002,4.459097e-003
5.689067e+002,5.479304e-003
5.708352e+002,4.173306e-003
5.727637e+002,2.443339e-003
5.746923e+002,3.686890e-003
5.766207e+002,8.115564e-003
5.785492e+002,1.124105e-002
5.804777e+002,8.994254e-003
5.824063e+002,4.634781e-003
5.843347e+002,8.317321e-003
5.862632e+002,1.095546e-002
5.881917e+002,6.973479e-003
5.901202e+002,4.122459e-003
5.920487e+002,3.847353e-003
5.939772e+002,5.222183e-003
5.959057e+002,5.546620e-003
5.978342e+002,5.942169e-003
5.997627e+002,6.069025e-003
6.016912e+002,4.567740e-003
6.036197e+002,4.653736e-003
6.055482e+002,6.446420e-003
6.074767e+002,6.630245e-003
6.094052e+002,6.797150e-003
6.113337e+002,8.241334e-003
6.132622e+002,8.895929e-003
6.151907e+002,8.215941e-003
6.171192e+002,7.810927e-003
6.190477e+002,6.818119e-003
6.209762e+002,6.742764e-003
6.229047e+002,6.531511e-003
6.248332e+002,4.811742e-003
6.267617e+002,4.226300e-003
6.286902e+002,4.296769e-003
6.306187e+002,4.039043e-003
6.325472e+002,4.396067e-003
6.344756e+002,4.901741e-003
6.364042e+002,4.183510e-003
6.383326e+002,3.463091e-003
6.402612e+002,3.367479e-003
6.421896e+002,4.228676e-003
6.441182e+002,4.568276e-003
6.460466e+002,4.519258e-003
6.479752e+002,4.915045e-003
6.499036e+002,4.404702e-003
6.518322e+002,4.170998e-003
6.537606e+002,4.546378e-003
6.556891e+002,4.510820e-003
6.576177e+002,4.053156e-003
6.595461e+002,3.963400e-003
6.614746e+002,3.340031e-003
6.634031e+002,3.239339e-003
6.653317e+002,4.665090e-003
6.672601e+002,8.687750e-003
6.691886e+002,7.378824e-003
6.711171e+002,4.325247e-003
6.730457e+002,4.299245e-003
6.749741e+002,3.875066e-003
6.769026e+002,3.568545e-003
6.788311e+002,3.769738e-003
6.807596e+002,4.104564e-003
6.826881e+002,3.922774e-003
6.846166e+002,3.664669e-003
6.865451e+002,3.573356e-003
6.884736e+002,3.470672e-003
6.904021e+002,3.610072e-003
6.923306e+002,3.772980e-003
6.942591e+002,3.965908e-003
6.961876e+002,4.140154e-003
6.981161e+002,3.481561e-003
7.000446e+002,3.179923e-003
7.019731e+002,3.004326e-003
7.039016e+002,3.310449e-003
7.058301e+002,3.275327e-003
7.077585e+002,3.325140e-003
7.096871e+002,3.640978e-003
7.116156e+002,3.505309e-003
7.135441e+002,3.146714e-003
7.154725e+002,3.075297e-003
7.174011e+002,3.258701e-003
7.193296e+002,3.471908e-003
7.212581e+002,3.506979e-003
7.231865e+002,3.612511e-003
7.251151e+002,3.486237e-003
7.270436e+002,3.502337e-003
7.289720e+002,3.861794e-003
7.309005e+002,4.223457e-003
7.328290e+002,4.057236e-003
7.347576e+002,3.697082e-003
7.366860e+002,2.960755e-003
7.386145e+002,2.638510e-003
7.405430e+002,2.918789e-003
7.424716e+002,3.399637e-003
7.444000e+002,3.233531e-003
7.463285e+002,3.262808e-003
7.482570e+002,2.990814e-003
7.501855e+002,2.523150e-003
7.521140e+002,2.964191e-003
7.540425e+002,3.582209e-003
7.559710e+002,3.187567e-003
7.578995e+002,2.815160e-003
7.598280e+002,2.629376e-003
7.617565e+002,3.025346e-003
7.636850e+002,3.459183e-003
7.656135e+002,3.607500e-003
7.675420e+002,3.211233e-003
7.694705e+002,2.712889e-003
7.713990e+002,2.589876e-003
7.733275e+002,2.856716e-003
7.752560e+002,2.841740e-003
7.771844e+002,2.665046e-003
7.791130e+002,2.438774e-003
7.810415e+002,2.662479e-003
7.829700e+002,2.536047e-003
7.848984e+002,2.951381e-003
7.868270e+002,3.248286e-003
7.887555e+002,2.929430e-003
7.906840e+002,2.769073e-003
7.926124e+002,2.805822e-003
7.945410e+002,2.864453e-003
7.964695e+002,2.796185e-003
7.983979e+002,2.696585e-003
8.003264e+002,2.803355e-003
8.022549e+002,2.976335e-003
8.041835e+002,3.222816e-003
8.061119e+002,2.855782e-003
8.080404e+002,2.271303e-003
8.099689e+002,2.565610e-003
8.118975e+002,2.947244e-003
8.138259e+002,3.023578e-003
8.157545e+002,2.768507e-003
8.176830e+002,2.948045e-003
8.196115e+002,3.183662e-003
8.215399e+002,3.057645e-003
8.234684e+002,2.863386e-003
8.253970e+002,2.716023e-003
8.273254e+002,3.210165e-003
8.292539e+002,3.396731e-003
8.311824e+002,3.136034e-003
8.331110e+002,3.000756e-003
8.350394e+002,2.895240e-003
8.369679e+002,2.976201e-003
8.388964e+002,2.819829e-003
8.408250e+002,2.770907e-003
8.427534e+002,3.060548e-003
8.446819e+002,2.831835e-003
8.466104e+002,2.557011e-003
8.485389e+002,2.464798e-003
8.504674e+002,2.426545e-003
8.523959e+002,2.822897e-003
8.543244e+002,3.297929e-003
8.562529e+002,3.476785e-003
8.581814e+002,3.358363e-003
8.601099e+002,3.067289e-003
8.620384e+002,2.741331e-003
8.639669e+002,2.737629e-003
8.658954e+002,2.916754e-003
8.678239e+002,2.803921e-003
8.697524e+002,2.782879e-003
8.716809e+002,2.837705e-003
8.736094e+002,2.684383e-003
8.755378e+002,2.675815e-003
8.774664e+002,3.182026e-003
8.793949e+002,3.114475e-003
8.813234e+002,2.698219e-003
8.832518e+002,2.829567e-003
8.851804e+002,3.014536e-003
8.871089e+002,2.973099e-003
8.890374e+002,2.626076e-003
8.909658e+002,2.397758e-003
8.928943e+002,2.728093e-003
8.948229e+002,2.783179e-003
8.967513e+002,2.712722e-003
8.986798e+002,2.638377e-003
9.006083e+002,2.519017e-003
9.025369e+002,2.646944e-003
9.044653e+002,3.044832e-003
9.063938e+002,2.861251e-003
9.083223e+002,2.322101e-003
9.102509e+002,2.322167e-003
9.121793e+002,2.764138e-003
9.141078e+002,2.570044e-003
9.160364e+002,2.519717e-003
9.179648e+002,2.712189e-003
9.198933e+002,2.743565e-003
9.218218e+002,2.867922e-003
9.237504e+002,2.924627e-003
9.256788e+002,2.697719e-003
9.276073e+002,2.643811e-003
9.295358e+002,2.420015e-003
9.314644e+002,2.251619e-003
9.333928e+002,2.365175e-003
9.353213e+002,2.420681e-003
9.372498e+002,2.473928e-003
9.391783e+002,2.047799e-003
9.411068e+002,1.939551e-003
9.430353e+002,2.323033e-003
9.449637e+002,2.255216e-003
9.468923e+002,2.459766e-003
9.488208e+002,2.502654e-003
9.507493e+002,2.380400e-003
9.526777e+002,2.336958e-003
9.546063e+002,2.266640e-003
9.565348e+002,2.133498e-003
9.584633e+002,1.956925e-003
9.603917e+002,1.856486e-003
9.623203e+002,1.999330e-003
9.642488e+002,2.157139e-003
9.661772e+002,2.366474e-003
9.681057e+002,2.296018e-003
9.700343e+002,1.979891e-003
9.719628e+002,2.119513e-003
9.738912e+002,2.280097e-003
9.758197e+002,2.060882e-003
9.777483e+002,1.948205e-003
9.796768e+002,2.013844e-003
9.816052e+002,2.031187e-003
9.835337e+002,2.020568e-003
9.854623e+002,2.028824e-003
9.873907e+002,2.001661e-003
9.893192e+002,2.036547e-003
9.912477e+002,2.020701e-003
9.931763e+002,1.973900e-003
9.951047e+002,1.824110e-003
9.970332e+002,1.678264e-003
9.989617e+002,1.600437e-003
1.000890e+003,1.643772e-003
1.002819e+003,1.826938e-003
1.004747e+003,1.758234e-003
1.006676e+003,1.621089e-003
1.008604e+003,1.649459e-003
1.010533e+003,1.719877e-003
1.012461e+003,1.692234e-003
1.014390e+003,1.501045e-003
1.016318e+003,1.595615e-003
1.018247e+003,1.700816e-003
1.020175e+003,1.656311e-003
1.022104e+003,1.661200e-003
1.024032e+003,1.703710e-003
1.025961e+003,1.843043e-003
1.027889e+003,1.877850e-003
1.029818e+003,1.764788e-003
1.031746e+003,1.669882e-003
1.033675e+003,1.642242e-003
1.035603e+003,1.624448e-003
1.037532e+003,1.736277e-003
1.039460e+003,1.920414e-003
1.041389e+003,1.752811e-003
1.043317e+003,1.670979e-003
1.045246e+003,1.804679e-003
1.047174e+003,1.787112e-003
1.049103e+003,1.812065e-003
1.051031e+003,1.685714e-003
1.052960e+003,1.555876e-003
1.054888e+003,1.607953e-003
1.056817e+003,1.629936e-003
1.058745e+003,1.679528e-003
1.060674e+003,1.825974e-003
1.062602e+003,1.844274e-003
1.064531e+003,1.618196e-003
1.066459e+003,1.519099e-003
1.068388e+003,1.563058e-003
1.070316e+003,1.788476e-003
1.072245e+003,1.829334e-003
1.074173e+003,1.651588e-003
1.076102e+003,1.477273e-003
1.078030e+003,1.386584e-003
1.079959e+003,1.314227e-003
1.081887e+003,1.410651e-003
1.083816e+003,1.447351e-003
1.085744e+003,1.472518e-003
1.087673e+003,1.568346e-003
1.089601e+003,1.642209e-003
1.091530e+003,1.686646e-003
1.093458e+003,1.621622e-003
1.095387e+003,1.489242e-003
1.097315e+003,1.569443e-003
1.099244e+003,1.443229e-003
1.101172e+003,1.492966e-003
1.103101e+003,1.580550e-003
1.105029e+003,1.627608e-003
1.106958e+003,1.665624e-003
1.108886e+003,1.819119e-003
1.110815e+003,1.722738e-003
1.112743e+003,1.530804e-003
1.114672e+003,1.504104e-003
1.116600e+003,1.763723e-003
1.118529e+003,1.731520e-003
1.120457e+003,1.490971e-003
1.122386e+003,1.472385e-003
1.124314e+003,1.450742e-003
1.126243e+003,1.279498e-003
1.128171e+003,1.083043e-003
1.130100e+003,1.307514e-003
1.132028e+003,1.417698e-003
1.133957e+003,1.303991e-003
1.135885e+003,1.311535e-003
1.137814e+003,1.247796e-003
1.139742e+003,1.081150e-003
1.141671e+003,1.246567e-003
1.143599e+003,1.426441e-003
1.145528e+003,1.399980e-003
1.147456e+003,1.383161e-003
1.149385e+003,1.487047e-003
1.151313e+003,1.557704e-003
1.153242e+003,1.351052e-003
1.155170e+003,1.355473e-003
1.157099e+003,1.476375e-003
1.159027e+003,1.558935e-003
1.160956e+003,1.422086e-003
1.162884e+003,1.377543e-003
1.164813e+003,1.301000e-003
1.166741e+003,1.193603e-003
1.168670e+003,1.289435e-003
1.170598e+003,1.373621e-003
1.172526e+003,1.369167e-003
1.174455e+003,1.425710e-003
1.176384e+003,1.533863e-003
1.178312e+003,1.485684e-003
1.180240e+003,1.297311e-003
1.182169e+003,1.371560e-003
1.184098e+003,1.410185e-003
1.186026e+003,1.285115e-003
1.187954e+003,1.339818e-003
1.189883e+003,1.411748e-003
1.191812e+003,1.400379e-003
1.193740e+003,1.486682e-003
1.195668e+003,1.326059e-003
1.197597e+003,1.148618e-003
1.199526e+003,1.184499e-003
1.201454e+003,1.317185e-003
1.203382e+003,1.433123e-003
1.205311e+003,1.362619e-003
1.207240e+003,1.351185e-003
1.209168e+003,1.323234e-003
1.211096e+003,1.345369e-003
1.213025e+003,1.526082e-003
1.214953e+003,1.561662e-003
1.216882e+003,1.401410e-003
1.218810e+003,1.201676e-003
1.220739e+003,1.067099e-003
1.222667e+003,1.183037e-003
1.224596e+003,1.453934e-003
1.226524e+003,1.440437e-003
1.228453e+003,1.385421e-003
1.230381e+003,1.280296e-003
1.232310e+003,1.202806e-003
1.234238e+003,1.210182e-003
1.236167e+003,1.238791e-003
1.238095e+003,1.356171e-003
1.240024e+003,1.483723e-003
1.241952e+003,1.407393e-003
1.243881e+003,1.259593e-003
1.245809e+003,1.240752e-003
1.247738e+003,1.294420e-003
1.249666e+003,1.340649e-003
1.251595e+003,1.282556e-003
1.253523e+003,1.171974e-003
1.255452e+003,1.230351e-003
1.257380e+003,1.260025e-003
1.259309e+003,1.301498e-003
1.261237e+003,1.281426e-003
1.263166e+003,1.255871e-003
1.265094e+003,1.309142e-003
1.267023e+003,1.445157e-003
1.268951e+003,1.368502e-003
1.270880e+003,1.173934e-003
1.272808e+003,1.082578e-003
1.274737e+003,1.189018e-003
1.276665e+003,1.209152e-003
1.278594e+003,1.237595e-003
1.280522e+003,1.350122e-003
1.282451e+003,1.307613e-003
1.284379e+003,1.291595e-003
1.286308e+003,1.213837e-003
1.288236e+003,1.211146e-003
1.290165e+003,1.297942e-003
1.292093e+003,1.188918e-003
1.294022e+003,1.177356e-003
1.295950e+003,1.292957e-003
1.297879e+003,1.343208e-003
1.299807e+003,1.262883e-003
1.301736e+003,1.214568e-003
1.303664e+003,1.200381e-003
1.305593e+003,1.248295e-003
1.307521e+003,1.404601e-003
1.309450e+003,1.563291e-003
1.311378e+003,1.414474e-003
1.313307e+003,1.146293e-003
1.315235e+003,1.212010e-003
1.317164e+003,1.434519e-003
1.319092e+003,1.343308e-003
1.321021e+003,1.259958e-003
1.322949e+003,1.287707e-003
1.324878e+003,1.299205e-003
1.326806e+003,1.169249e-003
1.328735e+003,1.160445e-003
1.330663e+003,1.317351e-003
1.332592e+003,1.417931e-003
1.334520e+003,1.388379e-003
1.336449e+003,1.312166e-003
1.338377e+003,1.294220e-003
1.340306e+003,1.221048e-003
1.342234e+003,1.225733e-003
1.344163e+003,1.278501e-003
1.346091e+003,1.216064e-003
1.348020e+003,1.251751e-003
1.349948e+003,1.240818e-003
1.351877e+003,1.138851e-003
1.353805e+003,1.195364e-003
1.355734e+003,1.223540e-003
1.357662e+003,1.290166e-003
1.359591e+003,1.351119e-003
1.361519e+003,1.332240e-003
1.363448e+003,1.346399e-003
1.365376e+003,1.231880e-003
1.367305e+003,1.175230e-003
1.369233e+003,1.235867e-003
1.371162e+003,1.279033e-003
1.373090e+003,1.298242e-003
1.375019e+003,1.292193e-003
1.376947e+003,1.278435e-003
1.378876e+003,1.272819e-003
1.380804e+003,1.182240e-003
1.382733e+003,1.215665e-003
1.384661e+003,1.315523e-003
1.386590e+003,1.396490e-003
1.388518e+003,1.403903e-003
1.390447e+003,1.289933e-003
1.392375e+003,1.179316e-003
1.394304e+003,1.195762e-003
1.396232e+003,1.159282e-003
1.398161e+003,1.231780e-003
1.400089e+003,1.312432e-003
1.402018e+003,1.374818e-003
1.403946e+003,1.345369e-003
1.405875e+003,1.320907e-003
1.407803e+003,1.257931e-003
1.409732e+003,1.222410e-003
1.411660e+003,1.288172e-003
1.413589e+003,1.254642e-003
1.415517e+003,1.232976e-003
1.417446e+003,1.291096e-003
1.419374e+003,1.298507e-003
1.421303e+003,1.306616e-003
1.423231e+003,1.391903e-003
1.425160e+003,1.467199e-003
1.427088e+003,1.387748e-003
1.429017e+003,1.224304e-003
1.430945e+003,1.107624e-003
1.432874e+003,1.140113e-003
1.434802e+003,1.226331e-003
1.436731e+003,1.221280e-003
1.438659e+003,1.234970e-003
1.440588e+003,1.283519e-003
1.442516e+003,1.345502e-003
1.444445e+003,1.324364e-003
1.446373e+003,1.288405e-003
1.448302e+003,1.223074e-003
1.450230e+003,1.160478e-003
1.452159e+003,1.138585e-003
1.454087e+003,1.259792e-003
1.456016e+003,1.444492e-003
1.457944e+003,1.452405e-003
1.459873e+003,1.332274e-003
1.461801e+003,1.254343e-003
1.463730e+003,1.120978e-003
1.465658e+003,1.191975e-003
1.467587e+003,1.306051e-003
1.469515e+003,1.281393e-003
1.471444e+003,1.216462e-003
1.473372e+003,1.232976e-003
1.475301e+003,1.308743e-003
1.477229e+003,1.313496e-003
1.479158e+003,1.231913e-003
1.481086e+003,1.335763e-003
1.483015e+003,1.329781e-003
1.484943e+003,1.228258e-003
1.486872e+003,1.175296e-003
1.488800e+003,1.189018e-003
1.490729e+003,1.346200e-003
1.492657e+003,1.403537e-003
1.494586e+003,1.284018e-003
1.496514e+003,1.206694e-003
1.498443e+003,1.226995e-003
1.500371e+003,1.224237e-003
1.502300e+003,1.258363e-003
1.504228e+003,1.336827e-003
1.506157e+003,1.455663e-003
1.508085e+003,1.328385e-003
1.510014e+003,1.202042e-003
1.511942e+003,1.155860e-003
1.513871e+003,1.224636e-003
1.515799e+003,1.309641e-003
1.517728e+003,1.260091e-003
1.519656e+003,1.174166e-003
1.521585e+003,1.123437e-003
1.523513e+003,1.186559e-003
1.525442e+003,1.260690e-003
1.527370e+003,1.226563e-003
1.529299e+003,1.263248e-003
1.531227e+003,1.198121e-003
1.533156e+003,1.198055e-003
1.535084e+003,1.222543e-003
1.537013e+003,1.148087e-003
1.538941e+003,1.155130e-003
1.540870e+003,1.201776e-003
1.542798e+003,1.314692e-003
1.544727e+003,1.284849e-003
1.546655e+003,1.198088e-003
1.548584e+003,1.225101e-003
1.550512e+003,1.263348e-003
1.552441e+003,1.272154e-003
1.554369e+003,1.203903e-003
1.556298e+003,1.181309e-003
1.558226e+003,1.328651e-003
1.560155e+003,1.386418e-003
1.562083e+003,1.299803e-003
1.564012e+003,1.180645e-003
1.565940e+003,1.142206e-003
1.567869e+003,1.202374e-003
1.569797e+003,1.394263e-003
1.571726e+003,1.264445e-003
1.573654e+003,1.109352e-003
1.575583e+003,1.285214e-003
1.577511e+003,1.398086e-003
1.579440e+003,1.267934e-003
1.581368e+003,1.178020e-003
1.583297e+003,1.113205e-003
1.585225e+003,1.166060e-003
1.587154e+003,1.168618e-003
1.589082e+003,1.037871e-003
1.591010e+003,9.615864e-004
1.592939e+003,1.026977e-003
1.594868e+003,1.111112e-003
1.596796e+003,1.156359e-003
1.598724e+003,1.136991e-003
1.600653e+003,1.113737e-003
1.602582e+003,1.160944e-003
1.604510e+003,1.175462e-003
1.606438e+003,1.198454e-003
1.608367e+003,1.310605e-003
1.610296e+003,1.230019e-003
1.612224e+003,1.136692e-003
1.614152e+003,1.099785e-003
1.616081e+003,1.094869e-003
1.618010e+003,1.182439e-003
1.619938e+003,1.221912e-003
1.621866e+003,1.251551e-003
1.623795e+003,1.124599e-003
1.625724e+003,1.111677e-003
1.627652e+003,1.136492e-003
1.629580e+003,1.126294e-003
1.631509e+003,1.062615e-003
1.633438e+003,9.816774e-004
1.635366e+003,1.001271e-003
1.637294e+003,1.259095e-003
1.639223e+003,1.372524e-003
1.641151e+003,1.285214e-003
1.643080e+003,1.127556e-003
1.645008e+003,1.112707e-003
1.646937e+003,1.195463e-003
1.648865e+003,1.161774e-003
1.650794e+003,1.135230e-003
1.652722e+003,1.270958e-003
1.654651e+003,1.350986e-003
1.656579e+003,1.287707e-003
1.658508e+003,1.234339e-003
1.660436e+003,1.178286e-003
1.662365e+003,1.184565e-003
1.664293e+003,1.267037e-003
1.666222e+003,1.197125e-003
1.668150e+003,1.171110e-003
1.670079e+003,1.268466e-003
1.672007e+003,1.285746e-003
1.673936e+003,1.287939e-003
1.675864e+003,1.235236e-003
1.677793e+003,1.135064e-003
1.679721e+003,1.078459e-003
1.681650e+003,1.155694e-003
1.683578e+003,1.189848e-003
1.685507e+003,1.200148e-003
1.687435e+003,1.225002e-003
1.689364e+003,1.155130e-003
1.691292e+003,1.135363e-003
1.693221e+003,1.158884e-003
1.695149e+003,1.061552e-003
1.697078e+003,1.001138e-003
1.699006e+003,9.406330e-004
1.700935e+003,1.092809e-003
1.702863e+003,1.226563e-003
1.704792e+003,1.228125e-003
1.706720e+003,1.169449e-003
1.708649e+003,1.122673e-003
1.710577e+003,1.022493e-003
1.712506e+003,9.495987e-004
1.714434e+003,9.606899e-004
1.716363e+003,1.105067e-003
1.718291e+003,1.182672e-003
1.720220e+003,1.203039e-003
1.722148e+003,1.150645e-003
1.724077e+003,1.121643e-003
1.726005e+003,1.207358e-003
1.727934e+003,1.197988e-003
1.729862e+003,1.142439e-003
1.731791e+003,1.144332e-003
1.733719e+003,1.067797e-003
1.735648e+003,1.059294e-003
1.737576e+003,1.089222e-003
1.739505e+003,1.086332e-003
1.741433e+003,1.035546e-003
1.743362e+003,1.025814e-003
1.745290e+003,1.092377e-003
1.747219e+003,1.125928e-003
1.749147e+003,1.180512e-003
1.751076e+003,1.237994e-003
1.753004e+003,1.210880e-003
1.754933e+003,1.202108e-003
1.756861e+003,1.144565e-003
1.758790e+003,1.045643e-003
1.760718e+003,1.024685e-003
1.762647e+003,1.094570e-003
1.764575e+003,1.114301e-003
1.766504e+003,1.100748e-003
1.768432e+003,1.090550e-003
1.770361e+003,9.943635e-004
1.772289e+003,9.818766e-004
1.774218e+003,1.035180e-003
1.776146e+003,1.013559e-003
1.778075e+003,1.017113e-003
1.780003e+003,1.004559e-003
1.781932e+003,1.028106e-003
1.783860e+003,1.029966e-003
1.785789e+003,1.081382e-003
1.787717e+003,1.158684e-003
1.789646e+003,1.064243e-003
1.791574e+003,9.931015e-004
1.793503e+003,1.047735e-003
1.795431e+003,1.043583e-003
1.797360e+003,1.001039e-003
1.799288e+003,1.020434e-003
1.801217e+003,1.058497e-003
1.803145e+003,1.079688e-003
1.805074e+003,1.111079e-003
1.807002e+003,1.112175e-003
1.808931e+003,1.095101e-003
1.810859e+003,1.074606e-003
1.812788e+003,1.121211e-003
1.814716e+003,1.155495e-003
1.816645e+003,1.062715e-003
1.818573e+003,1.019903e-003
1.820502e+003,1.030199e-003
1.822430e+003,1.037638e-003
1.824359e+003,1.024353e-003
1.826287e+003,1.079024e-003
1.828216e+003,1.130712e-003
1.830144e+003,1.149681e-003
1.832073e+003,1.072015e-003
1.834001e+003,1.095035e-003
1.835930e+003,1.145695e-003
1.837858e+003,1.124533e-003
1.839787e+003,1.112906e-003
1.841715e+003,1.058198e-003
1.843644e+003,1.131576e-003
1.845572e+003,1.084770e-003
1.847501e+003,9.421273e-004
1.849429e+003,9.687261e-004
1.851358e+003,1.138286e-003
1.853286e+003,1.193204e-003
1.855215e+003,1.217559e-003
1.857143e+003,1.248727e-003
1.859072e+003,1.144067e-003
1.861000e+003,1.091082e-003
1.862929e+003,1.110016e-003
1.864857e+003,1.156591e-003
1.866786e+003,1.091580e-003
1.868714e+003,9.993782e-004
1.870643e+003,1.004160e-003
1.872571e+003,1.029468e-003
1.874500e+003,1.072547e-003
1.876428e+003,1.118719e-003
1.878357e+003,1.151409e-003
1.880285e+003,1.111013e-003
1.882214e+003,1.015087e-003
1.884142e+003,1.015120e-003
1.886071e+003,1.051522e-003
1.887999e+003,1.025017e-003
1.889928e+003,9.270188e-004
1.891856e+003,9.002233e-004
1.893785e+003,9.982822e-004
1.895713e+003,1.072447e-003
1.897642e+003,1.034217e-003
1.899570e+003,1.152538e-003
1.901499e+003,1.196659e-003
1.903427e+003,1.099619e-003
1.905356e+003,1.009840e-003
1.907284e+003,9.301068e-004
1.909213e+003,9.546461e-004
1.911141e+003,9.920056e-004
1.913070e+003,1.019305e-003
1.914998e+003,1.140479e-003
1.916927e+003,1.203471e-003
1.918855e+003,1.169814e-003
1.920784e+003,1.141509e-003
1.922712e+003,1.076666e-003
1.924641e+003,1.072447e-003
1.926569e+003,1.130147e-003
1.928498e+003,1.075171e-003
1.930426e+003,1.080087e-003
1.932355e+003,1.095799e-003
1.934283e+003,1.048499e-003
1.936212e+003,1.010936e-003
1.938140e+003,1.013028e-003
1.940069e+003,1.065671e-003
1.941997e+003,1.147555e-003
1.943926e+003,1.129383e-003
1.945854e+003,1.053481e-003
1.947783e+003,1.080618e-003
1.949711e+003,1.125397e-003
1.951640e+003,1.063844e-003
1.953568e+003,1.087959e-003
1.955497e+003,1.074806e-003
1.957425e+003,1.063280e-003
1.959354e+003,1.136326e-003
1.961282e+003,1.145362e-003
1.963211e+003,1.109219e-003
1.965139e+003,1.063413e-003
1.967068e+003,1.076599e-003
1.968996e+003,1.007149e-003
1.970925e+003,1.004791e-003
1.972853e+003,1.140080e-003
1.974782e+003,1.164532e-003
1.976710e+003,1.077762e-003
1.978639e+003,1.055175e-003
1.980567e+003,1.072447e-003
1.982496e+003,1.017744e-003
1.984424e+003,9.971199e-004
1.986353e+003,1.032490e-003
1.988281e+003,1.023456e-003
1.990210e+003,9.796517e-004
1.992138e+003,1.011965e-003
1.994067e+003,1.113438e-003
1.995995e+003,1.079954e-003
1.997924e+003,1.031726e-003
1.999852e+003,1.065106e-003
2.001781e+003,1.029900e-003
2.003709e+003,1.008312e-003
2.005638e+003,1.057434e-003
2.007566e+003,1.153834e-003
2.009495e+003,1.127656e-003
2.011423e+003,1.046772e-003
2.013352e+003,1.099320e-003
2.015280e+003,1.127689e-003
2.017208e+003,1.152173e-003
2.019137e+003,1.155163e-003
2.021066e+003,1.066003e-003
2.022994e+003,9.838360e-004
2.024922e+003,9.941641e-004
2.026851e+003,1.082744e-003
2.028780e+003,1.152173e-003
2.030708e+003,1.128785e-003
2.032636e+003,1.130745e-003
2.034565e+003,1.095201e-003
2.036494e+003,1.099054e-003
2.038422e+003,1.004825e-003
2.040350e+003,9.820095e-004
2.042279e+003,1.066668e-003
2.044208e+003,1.072381e-003
2.046136e+003,9.962897e-004
2.048064e+003,1.005256e-003
2.049993e+003,1.088856e-003
2.051921e+003,1.072447e-003
2.053850e+003,1.080618e-003
2.055778e+003,1.101645e-003
2.057707e+003,1.161076e-003
2.059635e+003,1.144133e-003
2.061564e+003,1.072746e-003
2.063492e+003,1.001504e-003
2.065421e+003,1.000308e-003
2.067349e+003,1.016781e-003
2.069278e+003,1.008146e-003
2.071206e+003,1.064243e-003
2.073135e+003,1.108621e-003
2.075063e+003,1.202673e-003
2.076992e+003,1.199949e-003
2.078920e+003,1.079323e-003
2.080849e+003,9.983487e-004
2.082777e+003,9.492998e-004
2.084706e+003,9.372793e-004
2.086634e+003,9.762976e-004
2.088563e+003,9.800502e-004
2.090491e+003,9.901125e-004
2.092420e+003,9.380429e-004
2.094348e+003,9.787218e-004
2.096277e+003,9.923709e-004
2.098205e+003,9.249601e-004
2.100134e+003,8.804681e-004
2.102062e+003,9.168914e-004
2.103991e+003,9.931347e-004
2.105919e+003,1.105399e-003
2.107848e+003,1.149748e-003
2.109776e+003,1.031195e-003
2.111705e+003,9.467097e-004
2.113633e+003,9.270852e-004
2.115562e+003,9.768953e-004
2.117490e+003,1.011334e-003
2.119419e+003,1.038867e-003
2.121347e+003,1.069890e-003
2.123276e+003,9.678295e-004
2.125204e+003,9.082917e-004
2.127133e+003,9.588966e-004
2.129061e+003,9.926034e-004
2.130990e+003,1.072082e-003
2.132918e+003,1.046340e-003
2.134847e+003,9.666340e-004
2.136775e+003,9.869245e-004
2.138704e+003,9.942638e-004
2.140632e+003,9.382090e-004
2.142561e+003,9.013522e-004
2.144489e+003,8.567962e-004
2.146418e+003,8.482973e-004
2.148346e+003,9.610883e-004
2.150275e+003,1.031527e-003
2.152203e+003,1.015984e-003
2.154132e+003,1.022958e-003
2.156060e+003,9.963560e-004
2.157989e+003,9.884521e-004
2.159917e+003,9.836367e-004
2.161846e+003,8.624070e-004
2.163774e+003,8.608466e-004
2.165703e+003,9.319664e-004
2.167631e+003,1.009109e-003
2.169560e+003,1.056570e-003
2.171488e+003,9.879540e-004
2.173417e+003,9.278489e-004
2.175345e+003,9.456139e-004
2.177274e+003,1.003297e-003
2.179202e+003,1.003530e-003
2.181131e+003,1.021364e-003
2.183059e+003,1.042022e-003
2.184988e+003,1.055042e-003
2.186916e+003,1.062615e-003
2.188845e+003,9.536831e-004
2.190773e+003,8.062696e-004
2.192702e+003,8.253243e-004
2.194630e+003,9.618521e-004
2.196559e+003,1.025449e-003
2.198487e+003,9.803823e-004
2.200416e+003,8.591202e-004
2.202344e+003,8.397652e-004
2.204273e+003,9.273841e-004
2.206201e+003,9.703533e-004
2.208130e+003,9.512258e-004
2.210058e+003,8.864444e-004
2.211987e+003,8.535427e-004
2.213915e+003,9.299408e-004
2.215844e+003,9.903450e-004
2.217772e+003,9.569042e-004
2.219701e+003,9.460124e-004
2.221629e+003,9.446510e-004
2.223558e+003,9.731428e-004
2.225486e+003,1.046074e-003
2.227415e+003,1.031029e-003
2.229343e+003,1.036642e-003
2.231272e+003,1.040627e-003
2.233200e+003,1.016515e-003
2.235129e+003,9.939981e-004
2.237057e+003,9.582657e-004
2.238986e+003,9.646083e-004
2.240914e+003,9.359842e-004
2.242843e+003,9.010866e-004
2.244771e+003,9.491338e-004
2.246700e+003,1.033885e-003
2.248628e+003,1.033121e-003
2.250557e+003,8.948777e-004
2.252485e+003,8.885029e-004
2.254414e+003,9.892824e-004
2.256342e+003,1.037572e-003
2.258271e+003,1.067166e-003
2.260199e+003,1.079555e-003
2.262128e+003,1.115364e-003
2.264056e+003,1.108654e-003
2.265985e+003,1.147787e-003
2.267913e+003,1.198819e-003
2.269842e+003,1.254741e-003
2.271770e+003,1.287208e-003
2.273699e+003,1.251186e-003
2.275627e+003,1.106262e-003
2.277556e+003,1.046838e-003
2.279484e+003,1.118952e-003
2.281413e+003,1.219287e-003
2.283341e+003,1.203371e-003
2.285270e+003,1.254575e-003
2.287198e+003,1.287474e-003
2.289127e+003,1.316819e-003
2.291055e+003,1.376812e-003
2.292984e+003,1.375981e-003
2.294912e+003,1.341547e-003
2.296841e+003,1.462112e-003
2.298769e+003,1.684983e-003
2.300698e+003,1.852992e-003
2.302626e+003,1.999663e-003
2.304555e+003,2.131866e-003
2.306483e+003,2.323800e-003
2.308412e+003,2.516884e-003
2.310340e+003,2.739797e-003
2.312269e+003,3.151987e-003
2.314197e+003,3.735280e-003
2.316125e+003,4.350882e-003
2.318054e+003,4.815729e-003
2.319983e+003,5.242841e-003
2.321911e+003,5.819816e-003
2.323840e+003,6.470870e-003
2.325768e+003,6.879448e-003
2.327697e+003,7.295690e-003
2.329625e+003,7.908839e-003
2.331553e+003,8.277367e-003
2.333482e+003,8.337417e-003
2.335411e+003,8.444366e-003
2.337339e+003,8.628395e-003
2.339268e+003,8.625928e-003
2.341196e+003,8.382207e-003
2.343125e+003,7.916802e-003
2.345053e+003,6.888133e-003
2.346981e+003,5.189555e-003
2.348910e+003,4.117174e-003
2.350839e+003,5.253170e-003
2.352767e+003,7.408078e-003
2.354696e+003,9.083026e-003
2.356624e+003,1.021178e-002
2.358552e+003,1.082329e-002
2.360481e+003,1.105673e-002
2.362409e+003,1.102917e-002
2.364338e+003,1.069983e-002
2.366267e+003,1.006194e-002
2.368195e+003,9.204677e-003
2.370124e+003,8.152396e-003
2.372052e+003,6.851744e-003
2.373980e+003,5.524538e-003
2.375909e+003,4.272508e-003
2.377838e+003,3.144979e-003
2.379766e+003,2.125839e-003
2.381695e+003,1.449047e-003
2.383623e+003,1.228225e-003
2.385552e+003,1.025084e-003
2.387480e+003,9.277493e-004
2.389408e+003,9.351873e-004
2.391337e+003,9.289115e-004
2.393266e+003,9.036764e-004
2.395194e+003,8.802689e-004
2.397123e+003,9.072956e-004
2.399051e+003,9.437544e-004
2.400979e+003,9.424593e-004
2.402908e+003,8.890674e-004
2.404836e+003,8.764176e-004
2.406765e+003,9.085241e-004
2.408694e+003,8.374082e-004
2.410622e+003,8.529119e-004
2.412551e+003,8.895654e-004
2.414479e+003,9.378769e-004
2.416407e+003,9.818434e-004
2.418336e+003,1.004958e-003
2.420264e+003,9.171239e-004
2.422193e+003,8.205440e-004
2.424122e+003,8.797045e-004
2.426050e+003,9.649736e-004
2.427979e+003,9.770282e-004
2.429907e+003,9.893819e-004
2.431835e+003,9.651728e-004
2.433764e+003,1.005522e-003
2.435692e+003,9.994446e-004
2.437621e+003,9.872565e-004
2.439550e+003,9.712831e-004
2.441478e+003,9.323648e-004
2.443406e+003,9.799505e-004
2.445335e+003,9.740394e-004
2.447263e+003,9.282142e-004
2.449192e+003,9.413303e-004
2.451121e+003,9.132058e-004
2.453049e+003,9.126745e-004
2.454978e+003,1.040229e-003
2.456906e+003,1.050691e-003
2.458834e+003,1.003895e-003
2.460763e+003,1.003596e-003
2.462691e+003,9.762312e-004
2.464620e+003,1.002666e-003
2.466549e+003,1.050027e-003
2.468477e+003,1.072381e-003
2.470406e+003,1.033188e-003
2.472334e+003,8.926864e-004
2.474262e+003,8.994265e-004
2.476191e+003,9.138699e-004
2.478119e+003,9.244289e-004
2.480048e+003,8.998581e-004
2.481977e+003,9.538159e-004
2.483905e+003,9.094870e-004
2.485833e+003,8.760524e-004
2.487762e+003,9.387071e-004
2.489690e+003,8.792729e-004
2.491619e+003,8.661586e-004
2.493547e+003,9.590295e-004
2.495476e+003,1.047038e-003
2.497405e+003,9.899134e-004
2.499333e+003,8.354827e-004
2.501261e+003,8.041119e-004
2.503190e+003,8.130415e-004
2.505118e+003,9.058014e-004
2.507047e+003,8.540739e-004
2.508975e+003,8.042115e-004
2.510904e+003,8.187513e-004
2.512833e+003,9.052037e-004
2.514761e+003,8.941804e-004
2.516689e+003,8.123444e-004
2.518618e+003,8.020538e-004
2.520546e+003,8.562318e-004
2.522475e+003,9.001901e-004
2.524403e+003,8.997585e-004
2.526332e+003,8.647642e-004
2.528260e+003,9.088893e-004
2.530189e+003,9.028132e-004
2.532117e+003,8.194484e-004
2.534046e+003,8.004272e-004
2.535974e+003,8.354495e-004
2.537903e+003,8.029501e-004
2.539831e+003,8.264198e-004
2.541760e+003,7.781538e-004
2.543688e+003,8.132739e-004
2.545617e+003,8.933172e-004
2.547545e+003,8.976335e-004
2.549474e+003,8.436163e-004
2.551402e+003,7.677976e-004
2.553331e+003,8.329929e-004
2.555259e+003,8.980652e-004
2.557188e+003,8.847511e-004
2.559116e+003,8.319305e-004
2.561045e+003,7.736064e-004
2.562973e+003,8.005600e-004
2.564902e+003,9.421605e-004
2.566830e+003,9.848655e-004
2.568759e+003,8.759859e-004
2.570687e+003,8.763512e-004
2.572616e+003,9.181864e-004
2.574544e+003,9.278822e-004
2.576473e+003,8.617762e-004
2.578401e+003,8.330261e-004
2.580330e+003,8.055725e-004
2.582258e+003,8.163612e-004
2.584187e+003,8.304035e-004
2.586115e+003,7.550518e-004
2.588044e+003,7.455922e-004
2.589972e+003,8.351839e-004
2.591901e+003,8.890341e-004
2.593829e+003,8.057717e-004
2.595758e+003,7.083868e-004
2.597686e+003,7.027448e-004
2.599615e+003,7.435344e-004
2.601543e+003,7.577071e-004
2.603472e+003,7.726770e-004
2.605400e+003,7.695568e-004
2.607329e+003,7.754983e-004
2.609257e+003,8.452762e-004
2.611186e+003,8.773472e-004
2.613114e+003,8.650298e-004
2.615043e+003,8.099543e-004
2.616971e+003,7.698887e-004
2.618900e+003,7.709177e-004
2.620828e+003,7.883443e-004
2.622757e+003,8.733963e-004
2.624685e+003,8.908602e-004
2.626614e+003,8.054729e-004
2.628542e+003,7.540560e-004
2.630471e+003,7.922281e-004
2.632399e+003,8.301379e-004
2.634328e+003,8.155312e-004
2.636256e+003,7.873817e-004
2.638185e+003,8.352503e-004
2.640113e+003,8.286440e-004
2.642042e+003,7.113073e-004
2.643970e+003,7.902696e-004
2.645899e+003,7.992986e-004
2.647827e+003,7.355355e-004
2.649756e+003,8.475005e-004
2.651684e+003,9.048386e-004
2.653613e+003,8.009915e-004
2.655541e+003,8.111162e-004
2.657470e+003,7.745689e-004
2.659398e+003,7.895393e-004
2.661327e+003,7.818715e-004
2.663255e+003,8.050082e-004
2.665184e+003,7.708513e-004
2.667112e+003,8.472349e-004
2.669041e+003,9.076940e-004
2.670969e+003,9.049714e-004
2.672898e+003,9.328297e-004
2.674826e+003,8.920555e-004
2.676755e+003,8.053069e-004
2.678683e+003,7.036077e-004
2.680612e+003,7.647107e-004
2.682540e+003,7.874813e-004
2.684469e+003,7.986678e-004
2.686397e+003,8.492600e-004
2.688326e+003,8.940477e-004
2.690254e+003,9.313687e-004
2.692183e+003,8.562651e-004
2.694111e+003,7.037736e-004
2.696040e+003,6.052835e-004
2.697968e+003,7.578399e-004
2.699897e+003,8.451766e-004
2.701825e+003,8.074978e-004
2.703754e+003,8.439150e-004
2.705682e+003,8.640006e-004
2.707611e+003,7.856556e-004
2.709539e+003,7.680299e-004
2.711468e+003,7.517990e-004
2.713396e+003,7.527284e-004
2.715325e+003,7.209321e-004
2.717253e+003,7.314863e-004
2.719182e+003,8.055393e-004
2.721110e+003,7.518322e-004
2.723039e+003,7.521309e-004
2.724967e+003,7.826018e-004
2.726896e+003,7.251471e-004
2.728824e+003,6.465949e-004
2.730753e+003,6.708526e-004
2.732681e+003,7.680963e-004
2.734610e+003,7.961451e-004
2.736538e+003,7.013509e-004
2.738467e+003,6.757972e-004
2.740395e+003,7.555829e-004
2.742324e+003,7.255786e-004
2.744252e+003,6.882088e-004
2.746181e+003,7.254790e-004
2.748109e+003,6.906315e-004
2.750038e+003,6.992269e-004
2.751966e+003,7.266406e-004
2.753895e+003,7.183433e-004
2.755823e+003,7.484799e-004
2.757752e+003,7.591344e-004
2.759680e+003,7.544212e-004
2.761609e+003,7.599642e-004
2.763537e+003,8.563647e-004
2.765466e+003,8.512520e-004
2.767394e+003,8.366114e-004
2.769323e+003,7.860208e-004
2.771251e+003,7.757971e-004
2.773180e+003,7.592671e-004
2.775108e+003,7.290635e-004
2.777037e+003,7.449284e-004
2.778965e+003,7.142611e-004
2.780894e+003,7.205006e-004
2.782822e+003,8.684494e-004
2.784750e+003,9.427582e-004
2.786679e+003,8.969695e-004
2.788608e+003,7.655737e-004
2.790536e+003,6.977667e-004
2.792465e+003,7.449284e-004
2.794393e+003,8.111825e-004
2.796322e+003,7.397839e-004
2.798250e+003,6.924235e-004
2.800178e+003,7.734403e-004
2.802107e+003,7.427710e-004
2.804036e+003,6.522693e-004
2.805964e+003,6.549904e-004
2.807893e+003,7.646775e-004
2.809821e+003,7.995309e-004
2.811750e+003,7.444306e-004
2.813678e+003,7.031431e-004
2.815606e+003,7.535914e-004
2.817535e+003,7.439991e-004
2.819464e+003,6.900341e-004
2.821392e+003,7.176796e-004
2.823321e+003,8.535095e-004
2.825249e+003,9.337927e-004
2.827177e+003,8.932840e-004
2.829106e+003,8.240296e-004
2.831034e+003,6.851225e-004
2.832963e+003,6.151382e-004
2.834892e+003,8.538415e-004
2.836820e+003,9.566385e-004
2.838749e+003,8.445458e-004
2.840677e+003,7.491105e-004
2.842605e+003,8.439150e-004
2.844534e+003,9.372793e-004
2.846462e+003,8.285112e-004
2.848391e+003,7.512679e-004
2.850320e+003,7.830665e-004
2.852248e+003,7.944853e-004
2.854177e+003,7.388878e-004
2.856105e+003,7.631506e-004
2.858033e+003,6.533643e-004
2.859962e+003,7.212308e-004
2.861890e+003,7.899044e-004
2.863819e+003,7.308889e-004
2.865748e+003,7.164184e-004
2.867676e+003,7.472850e-004
2.869604e+003,7.498739e-004
2.871533e+003,6.912288e-004
2.873461e+003,6.956095e-004
2.875390e+003,6.867155e-004
2.877319e+003,6.642820e-004
2.879247e+003,6.823349e-004
2.881176e+003,6.346822e-004
2.883104e+003,6.796136e-004
2.885032e+003,8.718359e-004
2.886961e+003,8.811653e-004
2.888889e+003,7.602297e-004
2.890818e+003,7.641464e-004
2.892747e+003,7.408792e-004
2.894675e+003,6.275148e-004
2.896604e+003,6.498137e-004
2.898532e+003,6.967711e-004
2.900460e+003,7.008863e-004
2.902389e+003,6.558200e-004
2.904317e+003,5.993443e-004
2.906246e+003,6.634856e-004
2.908175e+003,6.894700e-004
2.910103e+003,7.427710e-004
2.912031e+003,6.716491e-004
2.913960e+003,6.203476e-004
2.915888e+003,6.951449e-004
2.917817e+003,7.093492e-004
2.919745e+003,6.788503e-004
2.921674e+003,7.207329e-004
2.923603e+003,8.707070e-004
2.925531e+003,8.320966e-004
2.927459e+003,6.545921e-004
2.929388e+003,5.101993e-004
2.931316e+003,5.130522e-004
2.933245e+003,5.669620e-004
2.935173e+003,4.833632e-004
2.937102e+003,4.622338e-004
2.939031e+003,5.956613e-004
2.940959e+003,6.435752e-004
2.942887e+003,5.452314e-004
2.944816e+003,4.694980e-004
2.946744e+003,5.719718e-004
2.948673e+003,7.140288e-004
2.950601e+003,7.070925e-004
2.952530e+003,6.413851e-004
2.954458e+003,6.380668e-004
2.956387e+003,6.468935e-004
2.958315e+003,7.817719e-004
2.960244e+003,7.373941e-004
2.962172e+003,5.964576e-004
2.964101e+003,5.743606e-004
2.966029e+003,5.982825e-004
2.967958e+003,6.400246e-004
2.969886e+003,6.918262e-004
2.971815e+003,7.157214e-004
2.973743e+003,6.643484e-004
2.975672e+003,6.826667e-004
2.977600e+003,7.867510e-004
2.979529e+003,7.720463e-004
2.981457e+003,7.409123e-004
2.983386e+003,7.557820e-004
2.985314e+003,6.627887e-004
2.987243e+003,6.380336e-004
2.989171e+003,7.398835e-004
2.991100e+003,6.265857e-004
2.993028e+003,5.932060e-004
2.994957e+003,6.248603e-004
2.996885e+003,6.485527e-004
2.998814e+003,7.747349e-004
3.000742e+003,8.277809e-004
3.002671e+003,7.311876e-004
3.004599e+003,6.152377e-004
3.006528e+003,6.754322e-004
3.008456e+003,6.341181e-004
3.010385e+003,5.817593e-004
3.012313e+003,6.391287e-004
3.014242e+003,6.684633e-004
3.016170e+003,7.169162e-004
3.018099e+003,7.617566e-004
3.020027e+003,5.958272e-004
3.021956e+003,5.295728e-004
3.023884e+003,6.249598e-004
3.025813e+003,6.545589e-004
3.027741e+003,5.542221e-004
3.029670e+003,5.270847e-004
3.031598e+003,6.981982e-004
3.033527e+003,7.009195e-004
3.035455e+003,6.093979e-004
3.037384e+003,6.286430e-004
3.039312e+003,6.938174e-004
3.041241e+003,6.864832e-004
3.043169e+003,5.884614e-004
3.045098e+003,5.608242e-004
3.047026e+003,5.528287e-004
3.048955e+003,5.507386e-004
3.050883e+003,5.928079e-004
3.052812e+003,6.772242e-004
3.054740e+003,6.042217e-004
3.056669e+003,6.602667e-004
3.058597e+003,7.079885e-004
3.060526e+003,6.774897e-004
3.062454e+003,7.058313e-004
3.064383e+003,7.287979e-004
3.066311e+003,7.463224e-004
3.068240e+003,8.454754e-004
3.070168e+003,8.428527e-004
3.072097e+003,6.655762e-004
3.074025e+003,5.082089e-004
3.075954e+003,5.151089e-004
3.077882e+003,6.137777e-004
3.079811e+003,6.715163e-004
3.081739e+003,5.980502e-004
3.083668e+003,5.051570e-004
3.085596e+003,5.332552e-004
3.087525e+003,5.362077e-004
3.089453e+003,4.820695e-004
3.091382e+003,5.130190e-004
3.093310e+003,6.300035e-004
3.095239e+003,5.591322e-004
3.097167e+003,5.039628e-004
3.099096e+003,5.551842e-004
3.101024e+003,5.392930e-004
3.102953e+003,4.499945e-004
3.104881e+003,4.185188e-004
3.106810e+003,5.013754e-004
3.108738e+003,5.697157e-004
3.110667e+003,6.235330e-004
3.112595e+003,6.476899e-004
3.114524e+003,6.795804e-004
3.116452e+003,6.553886e-004
3.118381e+003,6.639169e-004
3.120309e+003,6.275812e-004
3.122238e+003,5.714741e-004
3.124166e+003,5.277481e-004
3.126095e+003,5.147772e-004
3.128023e+003,4.994514e-004
3.129952e+003,5.494779e-004
3.131880e+003,6.115878e-004
3.133809e+003,5.657013e-004
3.135737e+003,5.231370e-004
3.137666e+003,5.553169e-004
3.139594e+003,4.915565e-004
3.141523e+003,5.417811e-004
3.143451e+003,6.733083e-004
3.145380e+003,6.327244e-004
3.147308e+003,4.862159e-004
3.149237e+003,5.043277e-004
3.151165e+003,5.644073e-004
3.153094e+003,7.151572e-004
3.155022e+003,7.609599e-004
3.156951e+003,6.054494e-004
3.158879e+003,5.747256e-004
3.160808e+003,6.395932e-004
3.162736e+003,7.139956e-004
3.164665e+003,6.721800e-004
3.166593e+003,4.805105e-004
3.168522e+003,5.150426e-004
3.170450e+003,6.213099e-004
3.172379e+003,6.112560e-004
3.174307e+003,4.575569e-004
3.176236e+003,5.245634e-004
3.178164e+003,5.988466e-004
3.180093e+003,5.163364e-004
3.182021e+003,4.667449e-004
3.183950e+003,5.261558e-004
3.185878e+003,5.861057e-004
3.187807e+003,7.309221e-004
3.189735e+003,7.672001e-004
3.191664e+003,6.774566e-004
3.193592e+003,5.805317e-004
3.195521e+003,5.251938e-004
3.197449e+003,5.848781e-004
3.199378e+003,5.922770e-004
3.201306e+003,4.384852e-004
3.203235e+003,5.079767e-004
3.205163e+003,5.962254e-004
3.207092e+003,4.536762e-004
3.209020e+003,5.379328e-004
3.210948e+003,5.305348e-004
3.212877e+003,5.292410e-004
3.214806e+003,6.134791e-004
3.216734e+003,5.258572e-004
3.218663e+003,4.407406e-004
3.220591e+003,4.517193e-004
3.222520e+003,5.624167e-004
3.224448e+003,5.795695e-004
3.226376e+003,4.497292e-004
3.228305e+003,4.881067e-004
3.230234e+003,6.815052e-004
3.232162e+003,5.686540e-004
3.234091e+003,5.218431e-004
3.236019e+003,4.863486e-004
3.237948e+003,4.058164e-004
3.239876e+003,4.700287e-004
3.241804e+003,6.262871e-004
3.243733e+003,5.588005e-004
3.245662e+003,4.581540e-004
3.247590e+003,6.342176e-004
3.249519e+003,6.279130e-004
3.251447e+003,5.106969e-004
3.253375e+003,3.806449e-004
3.255304e+003,3.501028e-004
3.257232e+003,4.855857e-004
3.259161e+003,5.881628e-004
3.261090e+003,6.503446e-004
3.263018e+003,5.911821e-004
3.264947e+003,5.176964e-004
3.266875e+003,4.422663e-004
3.268803e+003,5.483831e-004
3.270732e+003,5.727017e-004
3.272660e+003,4.345051e-004
3.274589e+003,4.147711e-004
3.276518e+003,5.135830e-004
3.278446e+003,5.548524e-004
3.280375e+003,5.537908e-004
3.282303e+003,4.495965e-004
3.284231e+003,5.724694e-004
3.286160e+003,5.773134e-004
3.288088e+003,5.270847e-004
3.290017e+003,4.717203e-004
3.291946e+003,6.881093e-004
3.293874e+003,7.425387e-004
3.295802e+003,6.007710e-004
3.297731e+003,5.512030e-004
3.299659e+003,4.768285e-004
3.301588e+003,4.186847e-004
3.303516e+003,5.125214e-004
3.305445e+003,5.890255e-004
3.307374e+003,6.288089e-004
3.309302e+003,5.677582e-004
3.311230e+003,4.938121e-004
3.313159e+003,4.401436e-004
3.315087e+003,3.640969e-004
3.317016e+003,5.579047e-004
3.318944e+003,7.718803e-004
3.320873e+003,6.874124e-004
3.322802e+003,6.123178e-004
3.324730e+003,5.971213e-004
3.326658e+003,5.562790e-004
3.328587e+003,3.959997e-004
3.330515e+003,3.927828e-004
3.332444e+003,4.091993e-004
3.334372e+003,4.163631e-004
3.336301e+003,4.705262e-004
3.338229e+003,5.950973e-004
3.340158e+003,4.907272e-004
3.342086e+003,4.226978e-004
3.344015e+003,4.589501e-004
3.345943e+003,5.055220e-004
3.347872e+003,5.537576e-004
3.349800e+003,5.025032e-004
3.351729e+003,4.075742e-004
3.353657e+003,3.954359e-004
3.355586e+003,4.905614e-004
3.357514e+003,5.258241e-004
3.359443e+003,3.458914e-004
3.361371e+003,2.920422e-004
3.363300e+003,4.627645e-004
3.365229e+003,5.610897e-004
3.367157e+003,4.434604e-004
3.369085e+003,3.021550e-004
3.371014e+003,2.726793e-004
3.372942e+003,4.291321e-004
3.374871e+003,3.156501e-004
3.376799e+003,4.572253e-004
3.378728e+003,5.958272e-004
3.380656e+003,5.166681e-004
3.382585e+003,4.484356e-004
3.384513e+003,4.180213e-004
3.386442e+003,3.779587e-004
3.388370e+003,3.424096e-004
3.390299e+003,3.553091e-004
3.392227e+003,4.855857e-004
3.394156e+003,3.563371e-004
3.396084e+003,3.666172e-004
3.398013e+003,3.591889e-004
3.399941e+003,2.191044e-004
3.401870e+003,2.714194e-004
3.403798e+003,3.766986e-004
3.405727e+003,4.406743e-004
3.407655e+003,5.019062e-004
3.409584e+003,4.869456e-004
3.411512e+003,5.202176e-004
3.413441e+003,3.375682e-004
3.415369e+003,2.967504e-004
3.417298e+003,4.068446e-004
3.419226e+003,5.027023e-004
3.421155e+003,4.172917e-004
3.423083e+003,2.648548e-004
3.425012e+003,2.894892e-004
3.426940e+003,3.208560e-004
3.428869e+003,3.470852e-004
3.430797e+003,4.060154e-004
3.432726e+003,3.738134e-004
3.434654e+003,3.697344e-004
3.436583e+003,3.058354e-004
3.438511e+003,4.099621e-004
3.440440e+003,5.623836e-004
3.442368e+003,3.706298e-004
3.444297e+003,3.545132e-004
3.446225e+003,6.087343e-004
3.448154e+003,8.049086e-004
3.450082e+003,7.352368e-004
3.452011e+003,6.596362e-004
3.453939e+003,6.785185e-004
3.455868e+003,4.580213e-004
3.457796e+003,4.680385e-004
3.459725e+003,3.927165e-004
3.461653e+003,3.750404e-004
3.463582e+003,4.854861e-004
3.465510e+003,4.418351e-004
3.467439e+003,4.056838e-004
3.469367e+003,4.924189e-004
3.471296e+003,5.042613e-004
3.473224e+003,4.690004e-004
3.475153e+003,3.595869e-004
3.477081e+003,4.659156e-004
3.479010e+003,5.310324e-004
3.480938e+003,3.898975e-004
3.482867e+003,1.784635e-004
3.484795e+003,3.913236e-004
3.486724e+003,5.302362e-004
3.488652e+003,4.308568e-004
3.490581e+003,5.338191e-004
3.492509e+003,5.317954e-004
3.494438e+003,4.171590e-004
3.496366e+003,5.228052e-004
3.498295e+003,4.449861e-004
3.500223e+003,3.774613e-004
3.502152e+003,5.426105e-004
3.504080e+003,7.316523e-004
3.506009e+003,5.649714e-004
3.507937e+003,3.438023e-004
3.509866e+003,3.046418e-004
3.511794e+003,4.152686e-004
3.513723e+003,3.829332e-004
3.515651e+003,3.934792e-004
3.517580e+003,4.775583e-004
3.519508e+003,6.482209e-004
3.521437e+003,6.795804e-004
3.523365e+003,5.708769e-004
3.525294e+003,4.173580e-004
3.527222e+003,4.342398e-004
3.529151e+003,4.748383e-004
3.531079e+003,4.092325e-004
3.533008e+003,4.686024e-004
3.534936e+003,4.982903e-004
3.536865e+003,5.180945e-004
3.538793e+003,3.247687e-004
3.540722e+003,2.398904e-004
3.542650e+003,3.149538e-004
3.544579e+003,3.798822e-004
3.546507e+003,5.382314e-004
3.548436e+003,5.340845e-004
3.550364e+003,5.266534e-004
3.552293e+003,5.123555e-004
3.554221e+003,5.378664e-004
3.556150e+003,5.383309e-004
3.558078e+003,5.838496e-004
3.560007e+003,4.275732e-004
3.561935e+003,3.113728e-004
3.563864e+003,4.242234e-004
3.565792e+003,4.818042e-004
3.567721e+003,4.140746e-004
3.569649e+003,3.531868e-004
3.571578e+003,4.699955e-004
3.573506e+003,6.147400e-004
3.575435e+003,5.844799e-004
3.577363e+003,4.894004e-004
3.579292e+003,3.322295e-004
3.581220e+003,4.356992e-004
3.583149e+003,5.536249e-004
3.585077e+003,5.453973e-004
3.587006e+003,5.352125e-004
3.588934e+003,5.445679e-004
3.590863e+003,6.051839e-004
3.592791e+003,5.938697e-004
3.594720e+003,5.078440e-004
3.596648e+003,6.307999e-004
3.598577e+003,5.361745e-004
3.600505e+003,3.842929e-004
3.602434e+003,5.257909e-004
3.604362e+003,7.732744e-004
3.606291e+003,7.240518e-004
3.608219e+003,6.754986e-004
3.610148e+003,5.684550e-004
3.612076e+003,4.251189e-004
3.614005e+003,3.691043e-004
3.615933e+003,4.572916e-004
3.617862e+003,6.214426e-004
3.619790e+003,5.669288e-004
3.621719e+003,4.791837e-004
3.623647e+003,4.141078e-004
3.625576e+003,5.218431e-004
3.627504e+003,6.095638e-004
3.629433e+003,7.477497e-004
3.631361e+003,6.807751e-004
3.633290e+003,6.175603e-004
3.635218e+003,6.206130e-004
3.637146e+003,6.237653e-004
3.639075e+003,6.606649e-004
3.641004e+003,4.716540e-004
3.642932e+003,4.158656e-004
3.644861e+003,3.971273e-004
3.646789e+003,3.602833e-004
3.648718e+003,3.373361e-004
3.650646e+003,2.637939e-004
3.652574e+003,1.433615e-004
3.654503e+003,2.900528e-004
3.656432e+003,6.340849e-004
3.658360e+003,7.385226e-004
3.660289e+003,5.800009e-004
3.662217e+003,4.999158e-004
3.664146e+003,3.274878e-004
3.666074e+003,2.430731e-004
3.668002e+003,2.502009e-004
3.669931e+003,1.513827e-004
3.671860e+003,1.948387e-004
3.673788e+003,4.017372e-004
3.675717e+003,4.723837e-004
3.677645e+003,5.823897e-004
3.679573e+003,5.724694e-004
3.681502e+003,6.988619e-004
3.683430e+003,6.716491e-004
3.685359e+003,5.701470e-004
3.687288e+003,4.377555e-004
3.689216e+003,3.329922e-004
3.691145e+003,5.204167e-004
3.693073e+003,7.105440e-004
3.695001e+003,6.022973e-004
3.696930e+003,7.594995e-004
3.698858e+003,8.800033e-004
3.700787e+003,6.853216e-004
3.702716e+003,5.960595e-004
3.704644e+003,6.528334e-004
3.706573e+003,7.557820e-004
3.708501e+003,6.435752e-004
3.710429e+003,4.615372e-004
3.712358e+003,4.960679e-004
3.714286e+003,4.338750e-004
3.716215e+003,4.459480e-004
3.718144e+003,6.773570e-004
3.720072e+003,6.986959e-004
3.722000e+003,6.839942e-004
3.723929e+003,5.557482e-004
3.725857e+003,4.322829e-004
3.727786e+003,2.731435e-004
3.729714e+003,3.586584e-004
3.731643e+003,4.165289e-004
3.733572e+003,5.065835e-004
3.735500e+003,4.772930e-004
3.737428e+003,3.452945e-004
3.739357e+003,2.781168e-004
3.741285e+003,2.945289e-004
3.743214e+003,2.871019e-004
3.745142e+003,1.333187e-004
3.747071e+003,1.819440e-004
3.749000e+003,2.261324e-004
3.750928e+003,7.389519e-005
3.752856e+003,4.301011e-005
3.754785e+003,3.008619e-004
3.756713e+003,3.349486e-004
3.758642e+003,2.225189e-004
3.760570e+003,4.293642e-004
3.762499e+003,3.871449e-004
3.764427e+003,1.428975e-004
3.766356e+003,2.093250e-004
3.768284e+003,2.368073e-004
3.770213e+003,3.802801e-004
3.772141e+003,3.610791e-004
3.774070e+003,3.287146e-004
3.775998e+003,3.246029e-004
3.777927e+003,2.108168e-004
3.779855e+003,3.035144e-004
3.781784e+003,3.899970e-004
3.783712e+003,3.590895e-004
3.785641e+003,3.535184e-004
3.787569e+003,2.764922e-004
3.789498e+003,9.321605e-005
3.791426e+003,9.277630e-006
3.793355e+003,1.573158e-004
3.795283e+003,2.584561e-004
3.797212e+003,3.694360e-004
3.799140e+003,2.950594e-004
3.801069e+003,1.289437e-004
3.802997e+003,2.922521e-005
3.804926e+003,2.942305e-004
3.806854e+003,4.740754e-004
3.808783e+003,2.470514e-004
3.810711e+003,1.340479e-004
3.812640e+003,1.971260e-004
3.814568e+003,-3.333157e-005
3.816497e+003,9.195670e-005
3.818425e+003,3.697676e-004
3.820354e+003,3.047744e-004
3.822282e+003,3.522914e-004
3.824211e+003,2.610421e-004
3.826139e+003,7.071380e-005
3.828068e+003,2.812002e-004
3.829996e+003,3.455598e-004
3.831925e+003,2.459905e-004
3.833853e+003,1.858886e-004
3.835782e+003,8.360523e-005
3.837710e+003,1.578130e-004
3.839639e+003,2.003083e-004
3.841567e+003,2.234140e-004
3.843496e+003,3.170759e-004
3.845424e+003,1.403453e-004
3.847353e+003,-9.213599e-005
3.849281e+003,-1.270836e-004
3.851210e+003,5.341536e-005
3.853138e+003,2.221543e-004
3.855067e+003,1.845295e-004
3.856995e+003,1.898001e-004
3.858924e+003,3.684079e-004
3.860852e+003,4.239581e-004
3.862781e+003,3.183360e-004
3.864709e+003,1.335176e-004
3.866638e+003,-1.141318e-004
3.868566e+003,-2.161458e-004
3.870495e+003,-9.488552e-005
3.872423e+003,3.022213e-004
3.874352e+003,3.145559e-004
3.876280e+003,2.256351e-004
3.878209e+003,1.736571e-004
3.880137e+003,-4.764413e-005
3.882066e+003,-6.692560e-005
3.883994e+003,1.386881e-004
3.885923e+003,2.934016e-004
3.887851e+003,2.518254e-004
3.889780e+003,2.282541e-004
3.891708e+003,2.685018e-004
3.893637e+003,2.459905e-004
3.895565e+003,1.025620e-004
3.897494e+003,-1.126556e-006
3.899422e+003,-5.466773e-005
3.901351e+003,-7.076854e-005
3.903279e+003,1.473389e-004
3.905208e+003,3.820710e-004
3.907136e+003,1.093230e-004
3.909065e+003,3.217434e-005
3.910993e+003,2.123417e-004
3.912922e+003,2.157893e-004
3.914850e+003,2.928711e-004
3.916779e+003,1.733256e-004
3.918707e+003,7.608242e-005
3.920636e+003,8.267730e-005
3.922564e+003,1.095218e-004
3.924493e+003,7.714290e-005
3.926421e+003,7.091263e-005
3.928350e+003,5.162590e-005
3.930278e+003,-4.452986e-005
3.932207e+003,-2.204511e-004
3.934135e+003,-1.655724e-004
3.936064e+003,2.011283e-005
3.937992e+003,2.483775e-004
3.939921e+003,3.534521e-004
3.941849e+003,2.876324e-004
3.943778e+003,1.479355e-004
3.945706e+003,1.945735e-004
3.947635e+003,3.546127e-004
3.949563e+003,2.698280e-004
3.951492e+003,1.651383e-004
3.953420e+003,7.664580e-005
3.955349e+003,-1.009477e-004
3.957277e+003,7.343124e-005
3.959206e+003,9.961235e-005
3.961134e+003,-2.487985e-004
3.963063e+003,2.183588e-005
3.964991e+003,3.899639e-004
3.966920e+003,4.121842e-004
3.968848e+003,4.520509e-004
3.970777e+003,3.363081e-004
3.972705e+003,3.236745e-004
3.974634e+003,4.206415e-004
3.976562e+003,2.397247e-004
3.978491e+003,1.325895e-004
3.980419e+003,2.250384e-004
3.982348e+003,3.421775e-004
3.984276e+003,4.068114e-004
3.986205e+003,2.619041e-004
3.988133e+003,4.138425e-004
3.990062e+003,5.960595e-004
3.991990e+003,3.019561e-004
3.993919e+003,1.255299e-004
3.995847e+003,4.635700e-005
3.997776e+003,2.245412e-004
3.999704e+003,1.613928e-004
4.001633e+003,0.000000e+000
