3.991989e+002,2.925424e-002
4.011274e+002,2.417346e-002
4.030559e+002,1.720884e-002
4.049844e+002,1.700705e-002
4.069129e+002,1.627307e-002
4.088414e+002,2.029844e-002
4.107699e+002,1.880187e-002
4.126984e+002,1.282756e-002
4.146269e+002,1.573282e-002
4.165554e+002,1.980720e-002
4.184839e+002,2.105261e-002
4.204124e+002,2.301263e-002
4.223409e+002,2.092235e-002
4.242694e+002,1.835829e-002
4.261979e+002,1.051920e-002
4.281264e+002,1.721494e-002
4.300549e+002,2.658669e-002
4.319834e+002,3.085697e-002
4.339119e+002,3.024465e-002
4.358404e+002,3.110720e-002
4.377689e+002,2.638461e-002
4.396974e+002,1.815693e-002
4.416259e+002,1.130257e-002
4.435544e+002,1.563495e-002
4.454829e+002,1.733200e-002
4.474114e+002,1.794972e-002
4.493399e+002,2.018243e-002
4.512684e+002,1.995274e-002
4.531969e+002,1.690586e-002
4.551254e+002,1.951037e-002
4.570539e+002,2.138844e-002
4.589824e+002,1.697989e-002
4.609109e+002,1.340251e-002
4.628394e+002,1.306826e-002
4.647679e+002,1.386504e-002
4.666964e+002,1.653947e-002
4.686249e+002,1.819438e-002
4.705533e+002,1.668795e-002
4.724819e+002,1.585580e-002
4.744103e+002,1.692721e-002
4.763389e+002,1.706473e-002
4.782673e+002,1.548776e-002
4.801959e+002,1.404526e-002
4.821243e+002,1.490065e-002
4.840529e+002,1.609729e-002
4.859813e+002,1.576196e-002
4.879099e+002,1.663493e-002
4.898383e+002,1.753760e-002
4.917668e+002,1.640109e-002
4.936953e+002,1.645233e-002
4.956238e+002,1.614877e-002
4.975523e+002,1.691285e-002
4.994808e+002,1.637975e-002
5.014093e+002,1.670048e-002
5.033378e+002,1.752949e-002
5.052663e+002,1.806839e-002
5.071948e+002,1.696132e-002
5.091233e+002,1.453972e-002
5.110518e+002,1.446189e-002
5.129803e+002,1.554902e-002
5.149088e+002,1.547475e-002
5.168373e+002,1.557876e-002
5.187658e+002,1.659616e-002
5.206943e+002,1.654456e-002
5.226228e+002,1.619685e-002
5.245513e+002,1.632897e-002
5.264798e+002,1.507049e-002
5.284083e+002,1.489280e-002
5.303368e+002,1.645401e-002
5.322653e+002,1.656587e-002
5.341938e+002,1.614698e-002
5.361223e+002,1.539029e-002
5.380508e+002,1.486259e-002
5.399792e+002,1.578684e-002
5.419078e+002,1.613010e-002
5.438363e+002,1.620214e-002
5.457648e+002,1.616112e-002
5.476932e+002,1.693831e-002
5.496218e+002,1.754526e-002
5.515503e+002,1.833890e-002
5.534788e+002,1.775555e-002
5.554072e+002,1.701235e-002
5.573358e+002,1.679071e-002
5.592643e+002,1.743694e-002
5.611927e+002,1.787327e-002
5.631212e+002,1.832431e-002
5.650497e+002,1.847354e-002
5.669783e+002,1.763590e-002
5.689067e+002,1.712911e-002
5.708352e+002,1.824469e-002
5.727637e+002,1.935624e-002
5.746923e+002,1.885835e-002
5.766207e+002,1.626062e-002
5.785492e+002,1.434235e-002
5.804777e+002,1.012210e-002
5.824063e+002,1.228456e-002
5.843347e+002,1.696284e-002
5.862632e+002,1.746654e-002
5.881917e+002,1.757407e-002
5.901202e+002,1.808787e-002
5.920487e+002,1.919861e-002
5.939772e+002,2.060540e-002
5.959057e+002,2.213077e-002
5.978342e+002,2.235920e-002
5.997627e+002,2.365056e-002
6.016912e+002,2.456020e-002
6.036197e+002,2.537636e-002
6.055482e+002,2.747836e-002
6.074767e+002,2.891755e-002
6.094052e+002,2.819529e-002
6.113337e+002,2.706694e-002
6.132622e+002,2.681166e-002
6.151907e+002,2.744387e-002
6.171192e+002,2.701948e-002
6.190477e+002,2.579138e-002
6.209762e+002,2.564753e-002
6.229047e+002,2.497416e-002
6.248332e+002,2.261795e-002
6.267617e+002,1.995212e-002
6.286902e+002,1.771434e-002
6.306187e+002,1.652033e-002
6.325472e+002,1.560675e-002
6.344756e+002,1.489523e-002
6.364042e+002,1.477246e-002
6.383326e+002,1.445233e-002
6.402612e+002,1.404943e-002
6.421896e+002,1.430653e-002
6.441182e+002,1.384979e-002
6.460466e+002,1.326905e-002
6.479752e+002,1.305699e-002
6.499036e+002,1.314540e-002
6.518322e+002,1.304351e-002
6.537606e+002,1.288702e-002
6.556891e+002,1.267804e-002
6.576177e+002,1.211540e-002
6.595461e+002,1.150374e-002
6.614746e+002,1.174394e-002
6.634031e+002,1.193043e-002
6.653317e+002,1.244946e-002
6.672601e+002,1.247674e-002
6.691886e+002,1.189617e-002
6.711171e+002,1.224537e-002
6.730457e+002,1.234118e-002
6.749741e+002,1.204879e-002
6.769026e+002,1.250337e-002
6.788311e+002,1.297300e-002
6.807596e+002,1.318256e-002
6.826881e+002,1.309756e-002
6.846166e+002,1.356329e-002
6.865451e+002,1.406292e-002
6.884736e+002,1.451252e-002
6.904021e+002,1.467172e-002
6.923306e+002,1.442667e-002
6.942591e+002,1.392310e-002
6.961876e+002,1.296744e-002
6.981161e+002,1.270247e-002
7.000446e+002,1.335378e-002
7.019731e+002,1.434909e-002
7.039016e+002,1.521943e-002
7.058301e+002,1.471590e-002
7.077585e+002,1.382273e-002
7.096871e+002,1.395653e-002
7.116156e+002,1.477966e-002
7.135441e+002,1.519455e-002
7.154725e+002,1.493405e-002
7.174011e+002,1.503104e-002
7.193296e+002,1.556169e-002
7.212581e+002,1.573598e-002
7.231865e+002,1.589900e-002
7.251151e+002,1.640979e-002
7.270436e+002,1.650712e-002
7.289720e+002,1.685229e-002
7.309005e+002,1.729372e-002
7.328290e+002,1.721325e-002
7.347576e+002,1.791767e-002
7.366860e+002,1.886149e-002
7.386145e+002,1.898578e-002
7.405430e+002,1.828858e-002
7.424716e+002,1.775672e-002
7.444000e+002,1.760891e-002
7.463285e+002,1.758073e-002
7.482570e+002,1.745529e-002
7.501855e+002,1.791674e-002
7.521140e+002,1.851603e-002
7.540425e+002,1.860418e-002
7.559710e+002,1.827022e-002
7.578995e+002,1.838967e-002
7.598280e+002,1.837616e-002
7.617565e+002,1.830931e-002
7.636850e+002,1.852727e-002
7.656135e+002,1.913527e-002
7.675420e+002,1.922517e-002
7.694705e+002,1.897775e-002
7.713990e+002,1.874095e-002
7.733275e+002,1.855590e-002
7.752560e+002,1.842638e-002
7.771844e+002,1.818916e-002
7.791130e+002,1.791781e-002
7.810415e+002,1.786301e-002
7.829700e+002,1.786371e-002
7.848984e+002,1.847970e-002
7.868270e+002,1.829334e-002
7.887555e+002,1.735200e-002
7.906840e+002,1.689941e-002
7.926124e+002,1.640147e-002
7.945410e+002,1.617381e-002
7.964695e+002,1.641836e-002
7.983979e+002,1.636947e-002
8.003264e+002,1.580941e-002
8.022549e+002,1.572496e-002
8.041835e+002,1.605638e-002
8.061119e+002,1.642287e-002
8.080404e+002,1.707914e-002
8.099689e+002,1.727293e-002
8.118975e+002,1.698444e-002
8.138259e+002,1.734962e-002
8.157545e+002,1.814843e-002
8.176830e+002,1.794823e-002
8.196115e+002,1.701252e-002
8.215399e+002,1.661641e-002
8.234684e+002,1.692236e-002
8.253970e+002,1.688308e-002
8.273254e+002,1.648017e-002
8.292539e+002,1.630235e-002
8.311824e+002,1.602158e-002
8.331110e+002,1.597679e-002
8.350394e+002,1.610630e-002
8.369679e+002,1.648065e-002
8.388964e+002,1.667294e-002
8.408250e+002,1.665665e-002
8.427534e+002,1.679332e-002
8.446819e+002,1.660150e-002
8.466104e+002,1.649025e-002
8.485389e+002,1.645653e-002
8.504674e+002,1.601625e-002
8.523959e+002,1.576440e-002
8.543244e+002,1.565666e-002
8.562529e+002,1.582415e-002
8.581814e+002,1.614330e-002
8.601099e+002,1.646024e-002
8.620384e+002,1.674807e-002
8.639669e+002,1.641131e-002
8.658954e+002,1.610262e-002
8.678239e+002,1.640763e-002
8.697524e+002,1.634662e-002
8.716809e+002,1.603795e-002
8.736094e+002,1.591072e-002
8.755378e+002,1.603417e-002
8.774664e+002,1.629003e-002
8.793949e+002,1.658215e-002
8.813234e+002,1.643051e-002
8.832518e+002,1.618464e-002
8.851804e+002,1.614361e-002
8.871089e+002,1.629994e-002
8.890374e+002,1.668378e-002
8.909658e+002,1.684020e-002
8.928943e+002,1.691213e-002
8.948229e+002,1.704044e-002
8.967513e+002,1.701470e-002
8.986798e+002,1.717978e-002
9.006083e+002,1.708999e-002
9.025369e+002,1.712484e-002
9.044653e+002,1.739321e-002
9.063938e+002,1.724669e-002
9.083223e+002,1.690076e-002
9.102509e+002,1.650705e-002
9.121793e+002,1.602756e-002
9.141078e+002,1.587305e-002
9.160364e+002,1.603035e-002
9.179648e+002,1.593403e-002
9.198933e+002,1.564581e-002
9.218218e+002,1.507200e-002
9.237504e+002,1.467100e-002
9.256788e+002,1.456922e-002
9.276073e+002,1.433228e-002
9.295358e+002,1.436187e-002
9.314644e+002,1.454853e-002
9.333928e+002,1.445281e-002
9.353213e+002,1.442153e-002
9.372498e+002,1.445983e-002
9.391783e+002,1.414000e-002
9.411068e+002,1.392967e-002
9.430353e+002,1.421747e-002
9.449637e+002,1.446206e-002
9.468923e+002,1.423517e-002
9.488208e+002,1.418221e-002
9.507493e+002,1.448689e-002
9.526777e+002,1.461754e-002
9.546063e+002,1.452201e-002
9.565348e+002,1.459663e-002
9.584633e+002,1.474774e-002
9.603917e+002,1.466956e-002
9.623203e+002,1.447620e-002
9.642488e+002,1.469211e-002
9.661772e+002,1.488378e-002
9.681057e+002,1.482992e-002
9.700343e+002,1.467960e-002
9.719628e+002,1.456103e-002
9.738912e+002,1.434694e-002
9.758197e+002,1.417591e-002
9.777483e+002,1.400519e-002
9.796768e+002,1.399461e-002
9.816052e+002,1.390257e-002
9.835337e+002,1.362120e-002
9.854623e+002,1.333205e-002
9.873907e+002,1.316743e-002
9.893192e+002,1.292289e-002
9.912477e+002,1.279303e-002
9.931763e+002,1.268139e-002
9.951047e+002,1.244025e-002
9.970332e+002,1.229169e-002
9.989617e+002,1.219588e-002
1.000890e+003,1.221507e-002
1.002819e+003,1.219411e-002
1.004747e+003,1.226121e-002
1.006676e+003,1.237152e-002
1.008604e+003,1.230123e-002
1.010533e+003,1.210054e-002
1.012461e+003,1.242679e-002
1.014390e+003,1.281528e-002
1.016318e+003,1.281429e-002
1.018247e+003,1.287087e-002
1.020175e+003,1.281176e-002
1.022104e+003,1.300837e-002
1.024032e+003,1.337128e-002
1.025961e+003,1.346673e-002
1.027889e+003,1.351981e-002
1.029818e+003,1.375357e-002
1.031746e+003,1.420874e-002
1.033675e+003,1.451033e-002
1.035603e+003,1.498704e-002
1.037532e+003,1.518035e-002
1.039460e+003,1.523642e-002
1.041389e+003,1.539733e-002
1.043317e+003,1.542352e-002
1.045246e+003,1.542572e-002
1.047174e+003,1.560930e-002
1.049103e+003,1.581457e-002
1.051031e+003,1.579591e-002
1.052960e+003,1.585666e-002
1.054888e+003,1.586831e-002
1.056817e+003,1.575900e-002
1.058745e+003,1.569737e-002
1.060674e+003,1.575557e-002
1.062602e+003,1.575028e-002
1.064531e+003,1.564145e-002
1.066459e+003,1.559175e-002
1.068388e+003,1.550864e-002
1.070316e+003,1.541003e-002
1.072245e+003,1.557924e-002
1.074173e+003,1.572551e-002
1.076102e+003,1.552430e-002
1.078030e+003,1.543447e-002
1.079959e+003,1.563595e-002
1.081887e+003,1.584161e-002
1.083816e+003,1.600353e-002
1.085744e+003,1.616335e-002
1.087673e+003,1.639947e-002
1.089601e+003,1.648925e-002
1.091530e+003,1.661992e-002
1.093458e+003,1.689576e-002
1.095387e+003,1.693748e-002
1.097315e+003,1.722797e-002
1.099244e+003,1.736465e-002
1.101172e+003,1.754257e-002
1.103101e+003,1.771365e-002
1.105029e+003,1.746346e-002
1.106958e+003,1.726221e-002
1.108886e+003,1.745039e-002
1.110815e+003,1.785414e-002
1.112743e+003,1.801630e-002
1.114672e+003,1.796270e-002
1.116600e+003,1.807243e-002
1.118529e+003,1.814832e-002
1.120457e+003,1.797327e-002
1.122386e+003,1.799447e-002
1.124314e+003,1.807688e-002
1.126243e+003,1.778520e-002
1.128171e+003,1.752959e-002
1.130100e+003,1.755671e-002
1.132028e+003,1.749872e-002
1.133957e+003,1.733365e-002
1.135885e+003,1.719777e-002
1.137814e+003,1.697476e-002
1.139742e+003,1.643657e-002
1.141671e+003,1.602375e-002
1.143599e+003,1.585257e-002
1.145528e+003,1.578278e-002
1.147456e+003,1.552141e-002
1.149385e+003,1.510353e-002
1.151313e+003,1.474476e-002
1.153242e+003,1.453027e-002
1.155170e+003,1.435807e-002
1.157099e+003,1.418700e-002
1.159027e+003,1.394469e-002
1.160956e+003,1.400642e-002
1.162884e+003,1.389132e-002
1.164813e+003,1.366787e-002
1.166741e+003,1.370915e-002
1.168670e+003,1.385594e-002
1.170598e+003,1.385930e-002
1.172526e+003,1.372392e-002
1.174455e+003,1.375682e-002
1.176384e+003,1.390189e-002
1.178312e+003,1.386891e-002
1.180240e+003,1.381421e-002
1.182169e+003,1.363286e-002
1.184098e+003,1.351601e-002
1.186026e+003,1.341222e-002
1.187954e+003,1.319749e-002
1.189883e+003,1.297751e-002
1.191812e+003,1.283807e-002
1.193740e+003,1.287012e-002
1.195668e+003,1.284190e-002
1.197597e+003,1.264758e-002
1.199526e+003,1.258195e-002
1.201454e+003,1.244118e-002
1.203382e+003,1.228357e-002
1.205311e+003,1.221445e-002
1.207240e+003,1.218883e-002
1.209168e+003,1.235042e-002
1.211096e+003,1.236613e-002
1.213025e+003,1.227625e-002
1.214953e+003,1.229881e-002
1.216882e+003,1.237265e-002
1.218810e+003,1.245914e-002
1.220739e+003,1.245952e-002
1.222667e+003,1.254481e-002
1.224596e+003,1.255429e-002
1.226524e+003,1.258826e-002
1.228453e+003,1.265751e-002
1.230381e+003,1.284084e-002
1.232310e+003,1.302275e-002
1.234238e+003,1.314202e-002
1.236167e+003,1.320367e-002
1.238095e+003,1.322570e-002
1.240024e+003,1.328907e-002
1.241952e+003,1.353051e-002
1.243881e+003,1.362462e-002
1.245809e+003,1.377248e-002
1.247738e+003,1.369759e-002
1.249666e+003,1.353143e-002
1.251595e+003,1.365826e-002
1.253523e+003,1.394363e-002
1.255452e+003,1.390651e-002
1.257380e+003,1.392529e-002
1.259309e+003,1.407363e-002
1.261237e+003,1.417581e-002
1.263166e+003,1.430427e-002
1.265094e+003,1.456210e-002
1.267023e+003,1.482063e-002
1.268951e+003,1.521693e-002
1.270880e+003,1.541604e-002
1.272808e+003,1.562194e-002
1.274737e+003,1.586673e-002
1.276665e+003,1.618010e-002
1.278594e+003,1.641578e-002
1.280522e+003,1.666547e-002
1.282451e+003,1.680738e-002
1.284379e+003,1.670709e-002
1.286308e+003,1.685556e-002
1.288236e+003,1.722473e-002
1.290165e+003,1.794692e-002
1.292093e+003,1.829106e-002
1.294022e+003,1.736627e-002
1.295950e+003,1.760871e-002
1.297879e+003,1.805650e-002
1.299807e+003,1.774057e-002
1.301736e+003,1.776235e-002
1.303664e+003,1.794243e-002
1.305593e+003,1.806973e-002
1.307521e+003,1.783367e-002
1.309450e+003,1.745695e-002
1.311378e+003,1.711732e-002
1.313307e+003,1.704688e-002
1.315235e+003,1.693510e-002
1.317164e+003,1.670771e-002
1.319092e+003,1.634287e-002
1.321021e+003,1.586577e-002
1.322949e+003,1.561074e-002
1.324878e+003,1.552612e-002
1.326806e+003,1.552296e-002
1.328735e+003,1.555744e-002
1.330663e+003,1.540426e-002
1.332592e+003,1.527070e-002
1.334520e+003,1.518361e-002
1.336449e+003,1.503022e-002
1.338377e+003,1.488179e-002
1.340306e+003,1.502199e-002
1.342234e+003,1.516230e-002
1.344163e+003,1.515667e-002
1.346091e+003,1.499849e-002
1.348020e+003,1.491334e-002
1.349948e+003,1.496457e-002
1.351877e+003,1.499040e-002
1.353805e+003,1.499222e-002
1.355734e+003,1.488838e-002
1.357662e+003,1.462508e-002
1.359591e+003,1.459640e-002
1.361519e+003,1.468807e-002
1.363448e+003,1.457693e-002
1.365376e+003,1.438872e-002
1.367305e+003,1.433190e-002
1.369233e+003,1.427352e-002
1.371162e+003,1.414773e-002
1.373090e+003,1.414332e-002
1.375019e+003,1.415581e-002
1.376947e+003,1.418460e-002
1.378876e+003,1.431666e-002
1.380804e+003,1.443770e-002
1.382733e+003,1.438780e-002
1.384661e+003,1.423021e-002
1.386590e+003,1.409006e-002
1.388518e+003,1.403947e-002
1.390447e+003,1.399940e-002
1.392375e+003,1.389487e-002
1.394304e+003,1.383751e-002
1.396232e+003,1.366175e-002
1.398161e+003,1.342937e-002
1.400089e+003,1.333639e-002
1.402018e+003,1.330547e-002
1.403946e+003,1.334644e-002
1.405875e+003,1.338279e-002
1.407803e+003,1.327821e-002
1.409732e+003,1.321238e-002
1.411660e+003,1.313915e-002
1.413589e+003,1.303698e-002
1.415517e+003,1.314407e-002
1.417446e+003,1.345500e-002
1.419374e+003,1.378360e-002
1.421303e+003,1.411241e-002
1.423231e+003,1.444959e-002
1.425160e+003,1.496066e-002
1.427088e+003,1.550950e-002
1.429017e+003,1.593709e-002
1.430945e+003,1.623389e-002
1.432874e+003,1.657245e-002
1.434802e+003,1.694909e-002
1.436731e+003,1.731200e-002
1.438659e+003,1.772062e-002
1.440588e+003,1.808669e-002
1.442516e+003,1.842939e-002
1.444445e+003,1.879381e-002
1.446373e+003,1.927941e-002
1.448302e+003,1.967013e-002
1.450230e+003,2.004493e-002
1.452159e+003,2.045259e-002
1.454087e+003,2.086345e-002
1.456016e+003,2.086213e-002
1.457944e+003,2.098894e-002
1.459873e+003,2.121785e-002
1.461801e+003,2.114406e-002
1.463730e+003,2.103411e-002
1.465658e+003,2.101039e-002
1.467587e+003,2.081402e-002
1.469515e+003,2.044589e-002
1.471444e+003,2.005496e-002
1.473372e+003,1.969610e-002
1.475301e+003,1.940582e-002
1.477229e+003,1.894729e-002
1.479158e+003,1.852205e-002
1.481086e+003,1.791170e-002
1.483015e+003,1.738338e-002
1.484943e+003,1.698727e-002
1.486872e+003,1.658756e-002
1.488800e+003,1.617549e-002
1.490729e+003,1.571434e-002
1.492657e+003,1.536293e-002
1.494586e+003,1.519562e-002
1.496514e+003,1.494561e-002
1.498443e+003,1.457967e-002
1.500371e+003,1.428225e-002
1.502300e+003,1.418118e-002
1.504228e+003,1.404878e-002
1.506157e+003,1.375378e-002
1.508085e+003,1.368039e-002
1.510014e+003,1.365741e-002
1.511942e+003,1.361289e-002
1.513871e+003,1.360223e-002
1.515799e+003,1.337770e-002
1.517728e+003,1.329703e-002
1.519656e+003,1.331179e-002
1.521585e+003,1.323694e-002
1.523513e+003,1.333550e-002
1.525442e+003,1.341837e-002
1.527370e+003,1.346235e-002
1.529299e+003,1.354831e-002
1.531227e+003,1.360024e-002
1.533156e+003,1.377529e-002
1.535084e+003,1.397394e-002
1.537013e+003,1.410940e-002
1.538941e+003,1.420833e-002
1.540870e+003,1.423103e-002
1.542798e+003,1.427263e-002
1.544727e+003,1.449933e-002
1.546655e+003,1.456607e-002
1.548584e+003,1.463179e-002
1.550512e+003,1.470551e-002
1.552441e+003,1.472077e-002
1.554369e+003,1.487195e-002
1.556298e+003,1.498916e-002
1.558226e+003,1.491252e-002
1.560155e+003,1.509855e-002
1.562083e+003,1.550867e-002
1.564012e+003,1.584893e-002
1.565940e+003,1.621019e-002
1.567869e+003,1.641805e-002
1.569797e+003,1.647824e-002
1.571726e+003,1.657062e-002
1.573654e+003,1.670503e-002
1.575583e+003,1.690300e-002
1.577511e+003,1.693948e-002
1.579440e+003,1.682474e-002
1.581368e+003,1.681385e-002
1.583297e+003,1.678379e-002
1.585225e+003,1.678867e-002
1.587154e+003,1.677521e-002
1.589082e+003,1.657231e-002
1.591010e+003,1.634053e-002
1.592939e+003,1.607522e-002
1.594868e+003,1.585484e-002
1.596796e+003,1.574966e-002
1.598724e+003,1.552560e-002
1.600653e+003,1.510030e-002
1.602582e+003,1.483420e-002
1.604510e+003,1.464362e-002
1.606438e+003,1.446021e-002
1.608367e+003,1.425034e-002
1.610296e+003,1.400327e-002
1.612224e+003,1.374215e-002
1.614152e+003,1.356411e-002
1.616081e+003,1.330076e-002
1.618010e+003,1.325696e-002
1.619938e+003,1.318092e-002
1.621866e+003,1.288985e-002
1.623795e+003,1.273488e-002
1.625724e+003,1.274976e-002
1.627652e+003,1.255750e-002
1.629580e+003,1.236927e-002
1.631509e+003,1.230863e-002
1.633438e+003,1.225818e-002
1.635366e+003,1.209939e-002
1.637294e+003,1.185721e-002
1.639223e+003,1.162328e-002
1.641151e+003,1.134202e-002
1.643080e+003,1.099559e-002
1.645008e+003,1.068339e-002
1.646937e+003,1.049961e-002
1.648865e+003,1.044645e-002
1.650794e+003,1.033158e-002
1.652722e+003,1.007822e-002
1.654651e+003,9.891708e-003
1.656579e+003,9.767797e-003
1.658508e+003,9.665875e-003
1.660436e+003,9.647580e-003
1.662365e+003,9.576713e-003
1.664293e+003,9.481032e-003
1.666222e+003,9.529361e-003
1.668150e+003,9.468570e-003
1.670079e+003,9.242313e-003
1.672007e+003,9.195371e-003
1.673936e+003,9.125253e-003
1.675864e+003,9.033394e-003
1.677793e+003,8.909558e-003
1.679721e+003,8.922748e-003
1.681650e+003,8.975378e-003
1.683578e+003,8.918521e-003
1.685507e+003,8.843849e-003
1.687435e+003,8.702828e-003
1.689364e+003,8.645768e-003
1.691292e+003,8.635798e-003
1.693221e+003,8.675041e-003
1.695149e+003,8.752015e-003
1.697078e+003,8.897146e-003
1.699006e+003,8.915071e-003
1.700935e+003,8.911622e-003
1.702863e+003,8.973112e-003
1.704792e+003,9.008259e-003
1.706720e+003,9.155810e-003
1.708649e+003,9.211243e-003
1.710577e+003,9.180987e-003
1.712506e+003,9.265059e-003
1.714434e+003,9.334115e-003
1.716363e+003,9.253821e-003
1.718291e+003,9.174422e-003
1.720220e+003,9.249557e-003
1.722148e+003,9.305543e-003
1.724077e+003,9.288686e-003
1.726005e+003,9.356460e-003
1.727934e+003,9.375995e-003
1.729862e+003,9.413240e-003
1.731791e+003,9.482895e-003
1.733719e+003,9.437720e-003
1.735648e+003,9.346201e-003
1.737576e+003,9.381175e-003
1.739505e+003,9.443410e-003
1.741433e+003,9.548531e-003
1.743362e+003,9.617735e-003
1.745290e+003,9.642600e-003
1.747219e+003,9.743026e-003
1.749147e+003,9.702907e-003
1.751076e+003,9.595275e-003
1.753004e+003,9.634402e-003
1.754933e+003,9.717917e-003
1.756861e+003,9.807854e-003
1.758790e+003,9.739739e-003
1.760718e+003,9.607436e-003
1.762647e+003,9.627152e-003
1.764575e+003,9.732556e-003
1.766504e+003,9.836866e-003
1.768432e+003,9.817411e-003
1.770361e+003,9.729743e-003
1.772289e+003,9.667670e-003
1.774218e+003,9.624984e-003
1.776146e+003,9.699180e-003
1.778075e+003,9.774032e-003
1.780003e+003,9.693217e-003
1.781932e+003,9.670482e-003
1.783860e+003,9.725914e-003
1.785789e+003,9.749532e-003
1.787717e+003,9.789079e-003
1.789646e+003,9.781827e-003
1.791574e+003,9.696876e-003
1.793503e+003,9.668585e-003
1.795431e+003,9.725541e-003
1.797360e+003,9.839849e-003
1.799288e+003,9.947846e-003
1.801217e+003,9.877946e-003
1.803145e+003,9.870184e-003
1.805074e+003,9.904013e-003
1.807002e+003,9.939574e-003
1.808931e+003,9.942422e-003
1.810859e+003,9.997786e-003
1.812788e+003,1.006794e-002
1.814716e+003,1.000386e-002
1.816645e+003,9.991717e-003
1.818573e+003,1.002715e-002
1.820502e+003,1.002539e-002
1.822430e+003,9.973171e-003
1.824359e+003,9.962458e-003
1.826287e+003,1.002756e-002
1.828216e+003,1.000687e-002
1.830144e+003,1.000769e-002
1.832073e+003,1.002634e-002
1.834001e+003,1.004675e-002
1.835930e+003,1.003315e-002
1.837858e+003,9.957440e-003
1.839787e+003,9.845644e-003
1.841715e+003,9.876421e-003
1.843644e+003,9.881268e-003
1.845572e+003,9.791791e-003
1.847501e+003,9.837341e-003
1.849429e+003,9.980223e-003
1.851358e+003,1.008870e-002
1.853286e+003,1.008514e-002
1.855215e+003,9.982596e-003
1.857143e+003,9.939845e-003
1.859072e+003,9.930353e-003
1.861000e+003,9.910149e-003
1.862929e+003,9.963441e-003
1.864857e+003,1.006740e-002
1.866786e+003,1.004112e-002
1.868714e+003,9.998769e-003
1.870643e+003,1.005340e-002
1.872571e+003,1.014072e-002
1.874500e+003,1.014432e-002
1.876428e+003,1.013163e-002
1.878357e+003,1.015985e-002
1.880285e+003,1.009171e-002
1.882214e+003,1.000633e-002
1.884142e+003,1.001918e-002
1.886071e+003,1.005621e-002
1.887999e+003,1.007150e-002
1.889928e+003,1.003098e-002
1.891856e+003,1.004712e-002
1.893785e+003,1.008293e-002
1.895713e+003,1.011685e-002
1.897642e+003,1.019974e-002
1.899570e+003,1.022725e-002
1.901499e+003,1.018577e-002
1.903427e+003,1.022318e-002
1.905356e+003,1.018478e-002
1.907284e+003,1.012322e-002
1.909213e+003,1.018288e-002
1.911141e+003,1.024459e-002
1.913070e+003,1.026070e-002
1.914998e+003,1.017305e-002
1.916927e+003,1.007700e-002
1.918855e+003,1.001067e-002
1.920784e+003,1.004671e-002
1.922712e+003,1.006357e-002
1.924641e+003,1.009707e-002
1.926569e+003,1.010643e-002
1.928498e+003,1.010823e-002
1.930426e+003,1.015595e-002
1.932355e+003,1.013977e-002
1.934283e+003,1.007228e-002
1.936212e+003,1.004780e-002
1.938140e+003,1.011074e-002
1.940069e+003,1.016460e-002
1.941997e+003,1.016046e-002
1.943926e+003,1.016602e-002
1.945854e+003,1.010399e-002
1.947783e+003,1.001721e-002
1.949711e+003,1.005784e-002
1.951640e+003,1.008049e-002
1.953568e+003,1.007137e-002
1.955497e+003,1.007615e-002
1.957425e+003,1.006876e-002
1.959354e+003,1.003508e-002
1.961282e+003,1.008870e-002
1.963211e+003,1.009385e-002
1.965139e+003,1.004522e-002
1.967068e+003,1.007734e-002
1.968996e+003,1.019272e-002
1.970925e+003,1.017969e-002
1.972853e+003,1.002803e-002
1.974782e+003,1.002203e-002
1.976710e+003,1.010304e-002
1.978639e+003,1.010464e-002
1.980567e+003,1.008375e-002
1.982496e+003,1.005550e-002
1.984424e+003,9.958017e-003
1.986353e+003,9.939811e-003
1.988281e+003,1.008069e-002
1.990210e+003,1.017854e-002
1.992138e+003,1.014846e-002
1.994067e+003,1.014964e-002
1.995995e+003,1.016240e-002
1.997924e+003,1.016847e-002
1.999852e+003,1.020147e-002
2.001781e+003,1.010389e-002
2.003709e+003,1.003085e-002
2.005638e+003,1.008134e-002
2.007566e+003,1.009253e-002
2.009495e+003,1.004102e-002
2.011423e+003,9.962186e-003
2.013352e+003,1.004593e-002
2.015280e+003,1.008724e-002
2.017208e+003,1.004872e-002
2.019137e+003,1.000626e-002
2.021066e+003,1.001508e-002
2.022994e+003,1.007384e-002
2.024922e+003,1.010518e-002
2.026851e+003,1.012482e-002
2.028780e+003,1.014544e-002
2.030708e+003,1.024537e-002
2.032636e+003,1.031332e-002
2.034565e+003,1.019543e-002
2.036494e+003,1.008171e-002
2.038422e+003,1.021090e-002
2.040350e+003,1.027397e-002
2.042279e+003,1.023193e-002
2.044208e+003,1.017484e-002
2.046136e+003,1.015137e-002
2.048064e+003,1.017101e-002
2.049993e+003,1.021419e-002
2.051921e+003,1.024025e-002
2.053850e+003,1.010108e-002
2.055778e+003,1.003413e-002
2.057707e+003,1.012153e-002
2.059635e+003,1.022189e-002
2.061564e+003,1.018078e-002
2.063492e+003,1.014469e-002
2.065421e+003,1.022973e-002
2.067349e+003,1.023180e-002
2.069278e+003,1.018400e-002
2.071206e+003,1.016999e-002
2.073135e+003,1.025612e-002
2.075063e+003,1.030192e-002
2.076992e+003,1.025144e-002
2.078920e+003,1.027536e-002
2.080849e+003,1.034210e-002
2.082777e+003,1.033735e-002
2.084706e+003,1.040098e-002
2.086634e+003,1.038455e-002
2.088563e+003,1.037902e-002
2.090491e+003,1.041940e-002
2.092420e+003,1.037339e-002
2.094348e+003,1.034631e-002
2.096277e+003,1.038628e-002
2.098205e+003,1.040800e-002
2.100134e+003,1.041167e-002
2.102062e+003,1.048942e-002
2.103991e+003,1.053634e-002
2.105919e+003,1.056615e-002
2.107848e+003,1.055151e-002
2.109776e+003,1.049985e-002
2.111705e+003,1.054309e-002
2.113633e+003,1.059687e-002
2.115562e+003,1.066634e-002
2.117490e+003,1.066672e-002
2.119419e+003,1.059324e-002
2.121347e+003,1.055291e-002
2.123276e+003,1.060040e-002
2.125204e+003,1.062230e-002
2.127133e+003,1.059545e-002
2.129061e+003,1.063697e-002
2.130990e+003,1.068757e-002
2.132918e+003,1.073559e-002
2.134847e+003,1.069956e-002
2.136775e+003,1.060526e-002
2.138704e+003,1.061354e-002
2.140632e+003,1.071939e-002
2.142561e+003,1.067972e-002
2.144489e+003,1.061493e-002
2.146418e+003,1.063779e-002
2.148346e+003,1.078413e-002
2.150275e+003,1.080573e-002
2.152203e+003,1.071114e-002
2.154132e+003,1.073977e-002
2.156060e+003,1.077794e-002
2.157989e+003,1.069504e-002
2.159917e+003,1.067796e-002
2.161846e+003,1.075780e-002
2.163774e+003,1.074581e-002
2.165703e+003,1.078110e-002
2.167631e+003,1.080644e-002
2.169560e+003,1.086358e-002
2.171488e+003,1.092977e-002
2.173417e+003,1.094319e-002
2.175345e+003,1.093371e-002
2.177274e+003,1.087500e-002
2.179202e+003,1.084721e-002
2.181131e+003,1.087153e-002
2.183059e+003,1.087873e-002
2.184988e+003,1.091135e-002
2.186916e+003,1.090520e-002
2.188845e+003,1.094037e-002
2.190773e+003,1.101945e-002
2.192702e+003,1.104816e-002
2.194630e+003,1.096983e-002
2.196559e+003,1.087442e-002
2.198487e+003,1.085777e-002
2.200416e+003,1.085753e-002
2.202344e+003,1.088380e-002
2.204273e+003,1.090948e-002
2.206201e+003,1.088957e-002
2.208130e+003,1.082791e-002
2.210058e+003,1.080586e-002
2.211987e+003,1.082258e-002
2.213915e+003,1.086260e-002
2.215844e+003,1.081415e-002
2.217772e+003,1.079099e-002
2.219701e+003,1.085156e-002
2.221629e+003,1.078348e-002
2.223558e+003,1.071575e-002
2.225486e+003,1.079601e-002
2.227415e+003,1.088658e-002
2.229343e+003,1.086688e-002
2.231272e+003,1.088240e-002
2.233200e+003,1.086712e-002
2.235129e+003,1.088862e-002
2.237057e+003,1.099610e-002
2.238986e+003,1.094346e-002
2.240914e+003,1.075233e-002
2.242843e+003,1.073345e-002
2.244771e+003,1.083511e-002
2.246700e+003,1.083562e-002
2.248628e+003,1.081745e-002
2.250557e+003,1.081178e-002
2.252485e+003,1.077444e-002
2.254414e+003,1.083817e-002
2.256342e+003,1.085587e-002
2.258271e+003,1.077635e-002
2.260199e+003,1.070591e-002
2.262128e+003,1.066763e-002
2.264056e+003,1.075077e-002
2.265985e+003,1.081218e-002
2.267913e+003,1.071134e-002
2.269842e+003,1.064617e-002
2.271770e+003,1.070822e-002
2.273699e+003,1.073596e-002
2.275627e+003,1.077509e-002
2.277556e+003,1.072975e-002
2.279484e+003,1.063307e-002
2.281413e+003,1.059769e-002
2.283341e+003,1.055868e-002
2.285270e+003,1.051828e-002
2.287198e+003,1.058502e-002
2.289127e+003,1.060943e-002
2.291055e+003,1.063507e-002
2.292984e+003,1.062305e-002
2.294912e+003,1.055919e-002
2.296841e+003,1.057490e-002
2.298769e+003,1.063242e-002
2.300698e+003,1.068346e-002
2.302626e+003,1.064471e-002
2.304555e+003,1.063266e-002
2.306483e+003,1.073280e-002
2.308412e+003,1.086528e-002
2.310340e+003,1.083348e-002
2.312269e+003,1.076086e-002
2.314197e+003,1.083399e-002
2.316125e+003,1.091132e-002
2.318054e+003,1.078205e-002
2.319983e+003,1.065544e-002
2.321911e+003,1.065208e-002
2.323840e+003,1.070017e-002
2.325768e+003,1.079387e-002
2.327697e+003,1.087204e-002
2.329625e+003,1.079958e-002
2.331553e+003,1.061605e-002
2.333482e+003,1.060713e-002
2.335411e+003,1.069412e-002
2.337339e+003,1.069850e-002
2.339268e+003,1.066940e-002
2.341196e+003,1.066274e-002
2.343125e+003,1.056757e-002
2.345053e+003,1.059541e-002
2.346981e+003,1.070587e-002
2.348910e+003,1.067864e-002
2.350839e+003,1.074727e-002
2.352767e+003,1.081724e-002
2.354696e+003,1.077485e-002
2.356624e+003,1.082927e-002
2.358552e+003,1.081205e-002
2.360481e+003,1.077336e-002
2.362409e+003,1.082659e-002
2.364338e+003,1.073410e-002
2.366267e+003,1.074405e-002
2.368195e+003,1.077071e-002
2.370124e+003,1.078430e-002
2.372052e+003,1.080267e-002
2.373980e+003,1.082893e-002
2.375909e+003,1.077132e-002
2.377838e+003,1.086834e-002
2.379766e+003,1.094869e-002
2.381695e+003,1.089008e-002
2.383623e+003,1.097880e-002
2.385552e+003,1.107590e-002
2.387480e+003,1.104765e-002
2.389408e+003,1.108875e-002
2.391337e+003,1.118227e-002
2.393266e+003,1.115891e-002
2.395194e+003,1.118784e-002
2.397123e+003,1.115419e-002
2.399051e+003,1.104446e-002
2.400979e+003,1.104592e-002
2.402908e+003,1.106716e-002
2.404836e+003,1.110302e-002
2.406765e+003,1.111954e-002
2.408694e+003,1.114113e-002
2.410622e+003,1.113083e-002
2.412551e+003,1.107770e-002
2.414479e+003,1.108667e-002
2.416407e+003,1.112189e-002
2.418336e+003,1.117061e-002
2.420264e+003,1.119022e-002
2.422193e+003,1.119158e-002
2.424122e+003,1.118138e-002
2.426050e+003,1.114348e-002
2.427979e+003,1.117826e-002
2.429907e+003,1.128580e-002
2.431835e+003,1.138681e-002
2.433764e+003,1.141933e-002
2.435692e+003,1.141984e-002
2.437621e+003,1.138705e-002
2.439550e+003,1.144842e-002
2.441478e+003,1.142753e-002
2.443406e+003,1.139130e-002
2.445335e+003,1.144212e-002
2.447263e+003,1.148543e-002
2.449192e+003,1.144556e-002
2.451121e+003,1.152116e-002
2.453049e+003,1.155263e-002
2.454978e+003,1.152551e-002
2.456906e+003,1.153453e-002
2.458834e+003,1.153371e-002
2.460763e+003,1.156379e-002
2.462691e+003,1.163005e-002
2.464620e+003,1.167127e-002
2.466549e+003,1.172069e-002
2.468477e+003,1.167777e-002
2.470406e+003,1.164230e-002
2.472334e+003,1.150187e-002
2.474262e+003,1.154998e-002
2.476191e+003,1.174758e-002
2.478119e+003,1.177281e-002
2.480048e+003,1.171402e-002
2.481977e+003,1.168560e-002
2.483905e+003,1.168165e-002
2.485833e+003,1.170088e-002
2.487762e+003,1.173819e-002
2.489690e+003,1.178993e-002
2.491619e+003,1.179031e-002
2.493547e+003,1.186794e-002
2.495476e+003,1.195638e-002
2.497405e+003,1.195918e-002
2.499333e+003,1.193217e-002
2.501261e+003,1.206055e-002
2.503190e+003,1.201613e-002
2.505118e+003,1.191401e-002
2.507047e+003,1.192726e-002
2.508975e+003,1.197089e-002
2.510904e+003,1.201493e-002
2.512833e+003,1.207015e-002
2.514761e+003,1.213404e-002
2.516689e+003,1.215591e-002
2.518618e+003,1.214249e-002
2.520546e+003,1.215537e-002
2.522475e+003,1.215322e-002
2.524403e+003,1.215894e-002
2.526332e+003,1.214862e-002
2.528260e+003,1.221125e-002
2.530189e+003,1.225399e-002
2.532117e+003,1.227362e-002
2.534046e+003,1.218525e-002
2.535974e+003,1.219939e-002
2.537903e+003,1.227972e-002
2.539831e+003,1.228204e-002
2.541760e+003,1.226936e-002
2.543688e+003,1.217949e-002
2.545617e+003,1.210620e-002
2.547545e+003,1.226714e-002
2.549474e+003,1.237950e-002
2.551402e+003,1.232489e-002
2.553331e+003,1.227372e-002
2.555259e+003,1.217782e-002
2.557188e+003,1.217782e-002
2.559116e+003,1.223708e-002
2.561045e+003,1.235829e-002
2.562973e+003,1.241230e-002
2.564902e+003,1.231190e-002
2.566830e+003,1.229980e-002
2.568759e+003,1.238325e-002
2.570687e+003,1.243974e-002
2.572616e+003,1.247674e-002
2.574544e+003,1.242126e-002
2.576473e+003,1.232148e-002
2.578401e+003,1.227952e-002
2.580330e+003,1.234312e-002
2.582258e+003,1.244005e-002
2.584187e+003,1.248387e-002
2.586115e+003,1.246194e-002
2.588044e+003,1.251681e-002
2.589972e+003,1.259375e-002
2.591901e+003,1.252963e-002
2.593829e+003,1.250897e-002
2.595758e+003,1.253625e-002
2.597686e+003,1.248758e-002
2.599615e+003,1.257100e-002
2.601543e+003,1.257748e-002
2.603472e+003,1.244585e-002
2.605400e+003,1.247060e-002
2.607329e+003,1.256060e-002
2.609257e+003,1.255460e-002
2.611186e+003,1.251579e-002
2.613114e+003,1.252308e-002
2.615043e+003,1.256817e-002
2.616971e+003,1.266716e-002
2.618900e+003,1.268927e-002
2.620828e+003,1.274341e-002
2.622757e+003,1.288446e-002
2.624685e+003,1.299007e-002
2.626614e+003,1.296228e-002
2.628542e+003,1.274519e-002
2.630471e+003,1.262189e-002
2.632399e+003,1.273444e-002
2.634328e+003,1.274840e-002
2.636256e+003,1.274355e-002
2.638185e+003,1.283466e-002
2.640113e+003,1.292583e-002
2.642042e+003,1.302630e-002
2.643970e+003,1.302787e-002
2.645899e+003,1.310825e-002
2.647827e+003,1.321986e-002
2.649756e+003,1.317720e-002
2.651684e+003,1.310067e-002
2.653613e+003,1.316084e-002
2.655541e+003,1.321703e-002
2.657470e+003,1.319701e-002
2.659398e+003,1.325160e-002
2.661327e+003,1.335102e-002
2.663255e+003,1.333745e-002
2.665184e+003,1.336116e-002
2.667112e+003,1.345128e-002
2.669041e+003,1.344769e-002
2.670969e+003,1.337165e-002
2.672898e+003,1.337616e-002
2.674826e+003,1.348829e-002
2.676755e+003,1.359368e-002
2.678683e+003,1.354561e-002
2.680612e+003,1.352548e-002
2.682540e+003,1.365310e-002
2.684469e+003,1.376639e-002
2.686397e+003,1.379509e-002
2.688326e+003,1.377662e-002
2.690254e+003,1.376079e-002
2.692183e+003,1.381226e-002
2.694111e+003,1.386812e-002
2.696040e+003,1.389847e-002
2.697968e+003,1.391458e-002
2.699897e+003,1.399023e-002
2.701825e+003,1.402650e-002
2.703754e+003,1.403499e-002
2.705682e+003,1.411727e-002
2.707611e+003,1.427027e-002
2.709539e+003,1.437314e-002
2.711468e+003,1.439221e-002
2.713396e+003,1.438691e-002
2.715325e+003,1.440626e-002
2.717253e+003,1.442975e-002
2.719182e+003,1.442890e-002
2.721110e+003,1.456055e-002
2.723039e+003,1.473876e-002
2.724967e+003,1.478147e-002
2.726896e+003,1.475264e-002
2.728824e+003,1.480235e-002
2.730753e+003,1.496001e-002
2.732681e+003,1.507142e-002
2.734610e+003,1.512466e-002
2.736538e+003,1.518395e-002
2.738467e+003,1.525069e-002
2.740395e+003,1.534529e-002
2.742324e+003,1.547444e-002
2.744252e+003,1.556338e-002
2.746181e+003,1.559872e-002
2.748109e+003,1.572052e-002
2.750038e+003,1.579893e-002
2.751966e+003,1.573076e-002
2.753895e+003,1.578704e-002
2.755823e+003,1.590172e-002
2.757752e+003,1.600817e-002
2.759680e+003,1.615341e-002
2.761609e+003,1.636496e-002
2.763537e+003,1.659912e-002
2.765466e+003,1.680114e-002
2.767394e+003,1.704402e-002
2.769323e+003,1.740549e-002
2.771251e+003,1.783098e-002
2.773180e+003,1.829037e-002
2.775108e+003,1.868269e-002
2.777037e+003,1.903687e-002
2.778965e+003,1.951307e-002
2.780894e+003,2.013585e-002
2.782822e+003,2.075622e-002
2.784750e+003,2.129464e-002
2.786679e+003,2.198777e-002
2.788608e+003,2.271982e-002
2.790536e+003,2.332581e-002
2.792465e+003,2.400503e-002
2.794393e+003,2.474575e-002
2.796322e+003,2.538996e-002
2.798250e+003,2.605067e-002
2.800178e+003,2.674287e-002
2.802107e+003,2.743124e-002
2.804036e+003,2.793617e-002
2.805964e+003,2.833158e-002
2.807893e+003,2.853294e-002
2.809821e+003,2.866551e-002
2.811750e+003,2.891603e-002
2.813678e+003,2.890233e-002
2.815606e+003,2.867878e-002
2.817535e+003,2.851291e-002
2.819464e+003,2.833869e-002
2.821392e+003,2.804544e-002
2.823321e+003,2.768861e-002
2.825249e+003,2.717416e-002
2.827177e+003,2.673491e-002
2.829106e+003,2.637274e-002
2.831034e+003,2.573443e-002
2.832963e+003,2.516537e-002
2.834892e+003,2.462840e-002
2.836820e+003,2.403046e-002
2.838749e+003,2.347793e-002
2.840677e+003,2.283431e-002
2.842605e+003,2.223643e-002
2.844534e+003,2.164800e-002
2.846462e+003,2.099002e-002
2.848391e+003,2.036598e-002
2.850320e+003,1.996863e-002
2.852248e+003,1.965758e-002
2.854177e+003,1.942003e-002
2.856105e+003,1.916526e-002
2.858033e+003,1.904965e-002
2.859962e+003,1.916204e-002
2.861890e+003,1.918732e-002
2.863819e+003,1.922434e-002
2.865748e+003,1.936345e-002
2.867676e+003,1.930463e-002
2.869604e+003,1.922493e-002
2.871533e+003,1.933369e-002
2.873461e+003,1.943060e-002
2.875390e+003,1.953757e-002
2.877319e+003,1.964326e-002
2.879247e+003,1.989276e-002
2.881176e+003,2.004715e-002
2.883104e+003,2.001988e-002
2.885032e+003,1.989998e-002
2.886961e+003,1.992513e-002
2.888889e+003,1.993335e-002
2.890818e+003,1.988898e-002
2.892747e+003,1.970230e-002
2.894675e+003,1.954846e-002
2.896604e+003,1.955626e-002
2.898532e+003,1.957702e-002
2.900460e+003,1.949411e-002
2.902389e+003,1.933996e-002
2.904317e+003,1.923542e-002
2.906246e+003,1.916415e-002
2.908175e+003,1.914393e-002
2.910103e+003,1.904913e-002
2.912031e+003,1.896864e-002
2.913960e+003,1.884776e-002
2.915888e+003,1.868179e-002
2.917817e+003,1.877399e-002
2.919745e+003,1.892590e-002
2.921674e+003,1.913970e-002
2.923603e+003,1.934450e-002
2.925531e+003,1.949987e-002
2.927459e+003,1.976825e-002
2.929388e+003,2.001238e-002
2.931316e+003,2.020794e-002
2.933245e+003,2.036751e-002
2.935173e+003,2.058407e-002
2.937102e+003,2.079042e-002
2.939031e+003,2.088164e-002
2.940959e+003,2.087096e-002
2.942887e+003,2.074975e-002
2.944816e+003,2.065665e-002
2.946744e+003,2.056312e-002
2.948673e+003,2.029067e-002
2.950601e+003,1.980463e-002
2.952530e+003,1.934149e-002
2.954458e+003,1.882129e-002
2.956387e+003,1.830665e-002
2.958315e+003,1.786595e-002
2.960244e+003,1.731337e-002
2.962172e+003,1.679288e-002
2.964101e+003,1.643171e-002
2.966029e+003,1.593561e-002
2.967958e+003,1.533077e-002
2.969886e+003,1.483945e-002
2.971815e+003,1.450621e-002
2.973743e+003,1.415400e-002
2.975672e+003,1.375059e-002
2.977600e+003,1.354849e-002
2.979529e+003,1.340364e-002
2.981457e+003,1.308407e-002
2.983386e+003,1.285265e-002
2.985314e+003,1.261381e-002
2.987243e+003,1.245734e-002
2.989171e+003,1.260003e-002
2.991100e+003,1.261309e-002
2.993028e+003,1.235908e-002
2.994957e+003,1.210085e-002
2.996885e+003,1.197702e-002
2.998814e+003,1.199388e-002
3.000742e+003,1.186593e-002
3.002671e+003,1.169247e-002
3.004599e+003,1.172141e-002
3.006528e+003,1.177240e-002
3.008456e+003,1.164237e-002
3.010385e+003,1.150016e-002
3.012313e+003,1.159081e-002
3.014242e+003,1.166899e-002
3.016170e+003,1.158959e-002
3.018099e+003,1.163029e-002
3.020027e+003,1.172900e-002
3.021956e+003,1.158649e-002
3.023884e+003,1.149394e-002
3.025813e+003,1.146135e-002
3.027741e+003,1.137607e-002
3.029670e+003,1.140685e-002
3.031598e+003,1.146999e-002
3.033527e+003,1.140984e-002
3.035455e+003,1.144372e-002
3.037384e+003,1.149465e-002
3.039312e+003,1.141920e-002
3.041241e+003,1.130138e-002
3.043169e+003,1.116347e-002
3.045098e+003,1.115680e-002
3.047026e+003,1.125653e-002
3.048955e+003,1.117108e-002
3.050883e+003,1.112563e-002
3.052812e+003,1.115986e-002
3.054740e+003,1.112128e-002
3.056669e+003,1.105683e-002
3.058597e+003,1.100456e-002
3.060526e+003,1.094699e-002
3.062454e+003,1.095675e-002
3.064383e+003,1.096606e-002
3.066311e+003,1.097248e-002
3.068240e+003,1.093643e-002
3.070168e+003,1.085675e-002
3.072097e+003,1.081534e-002
3.074025e+003,1.081252e-002
3.075954e+003,1.088043e-002
3.077882e+003,1.086939e-002
3.079811e+003,1.076334e-002
3.081739e+003,1.072934e-002
3.083668e+003,1.075580e-002
3.085596e+003,1.081337e-002
3.087525e+003,1.079360e-002
3.089453e+003,1.081874e-002
3.091382e+003,1.072747e-002
3.093310e+003,1.066397e-002
3.095239e+003,1.075138e-002
3.097167e+003,1.073002e-002
3.099096e+003,1.052918e-002
3.101024e+003,1.050453e-002
3.102953e+003,1.056017e-002
3.104881e+003,1.039225e-002
3.106810e+003,1.028801e-002
3.108738e+003,1.049761e-002
3.110667e+003,1.049136e-002
3.112595e+003,1.050633e-002
3.114524e+003,1.059225e-002
3.116452e+003,1.049971e-002
3.118381e+003,1.042504e-002
3.120309e+003,1.040641e-002
3.122238e+003,1.040617e-002
3.124166e+003,1.038072e-002
3.126095e+003,1.034610e-002
3.128023e+003,1.031862e-002
3.129952e+003,1.040630e-002
3.131880e+003,1.044496e-002
3.133809e+003,1.033955e-002
3.135737e+003,1.033090e-002
3.137666e+003,1.045087e-002
3.139594e+003,1.042731e-002
3.141523e+003,1.030352e-002
3.143451e+003,1.036996e-002
3.145380e+003,1.047031e-002
3.147308e+003,1.058519e-002
3.149237e+003,1.051509e-002
3.151165e+003,1.036826e-002
3.153094e+003,1.026053e-002
3.155022e+003,1.026253e-002
3.156951e+003,1.042595e-002
3.158879e+003,1.055749e-002
3.160808e+003,1.054024e-002
3.162736e+003,1.044489e-002
3.164665e+003,1.040820e-002
3.166593e+003,1.036816e-002
3.168522e+003,1.032897e-002
3.170450e+003,1.043491e-002
3.172379e+003,1.046889e-002
3.174307e+003,1.046926e-002
3.176236e+003,1.054954e-002
3.178164e+003,1.054669e-002
3.180093e+003,1.049418e-002
3.182021e+003,1.050511e-002
3.183950e+003,1.052748e-002
3.185878e+003,1.055457e-002
3.187807e+003,1.061436e-002
3.189735e+003,1.063337e-002
3.191664e+003,1.058607e-002
3.193592e+003,1.053094e-002
3.195521e+003,1.045596e-002
3.197449e+003,1.050080e-002
3.199378e+003,1.057263e-002
3.201306e+003,1.063850e-002
3.203235e+003,1.053756e-002
3.205163e+003,1.044041e-002
3.207092e+003,1.045474e-002
3.209020e+003,1.065049e-002
3.210948e+003,1.090928e-002
3.212877e+003,1.096949e-002
3.214806e+003,1.091397e-002
3.216734e+003,1.073916e-002
3.218663e+003,1.055094e-002
3.220591e+003,1.065986e-002
3.222520e+003,1.085940e-002
3.224448e+003,1.095389e-002
3.226376e+003,1.107712e-002
3.228305e+003,1.120525e-002
3.230234e+003,1.121229e-002
3.232162e+003,1.117350e-002
3.234091e+003,1.113726e-002
3.236019e+003,1.119559e-002
3.237948e+003,1.136134e-002
3.239876e+003,1.147434e-002
3.241804e+003,1.156274e-002
3.243733e+003,1.156566e-002
3.245662e+003,1.159435e-002
3.247590e+003,1.163219e-002
3.249519e+003,1.170891e-002
3.251447e+003,1.172832e-002
3.253375e+003,1.165520e-002
3.255304e+003,1.166929e-002
3.257232e+003,1.198785e-002
3.259161e+003,1.219718e-002
3.261090e+003,1.217401e-002
3.263018e+003,1.211240e-002
3.264947e+003,1.195465e-002
3.266875e+003,1.181738e-002
3.268803e+003,1.187015e-002
3.270732e+003,1.200805e-002
3.272660e+003,1.229172e-002
3.274589e+003,1.242276e-002
3.276518e+003,1.240763e-002
3.278446e+003,1.236368e-002
3.280375e+003,1.230293e-002
3.282303e+003,1.249174e-002
3.284231e+003,1.254338e-002
3.286160e+003,1.240197e-002
3.288088e+003,1.236187e-002
3.290017e+003,1.226459e-002
3.291946e+003,1.216426e-002
3.293874e+003,1.210405e-002
3.295802e+003,1.214289e-002
3.297731e+003,1.228869e-002
3.299659e+003,1.217261e-002
3.301588e+003,1.196561e-002
3.303516e+003,1.193421e-002
3.305445e+003,1.192014e-002
3.307374e+003,1.182194e-002
3.309302e+003,1.169128e-002
3.311230e+003,1.159428e-002
3.313159e+003,1.146111e-002
3.315087e+003,1.135821e-002
3.317016e+003,1.134464e-002
3.318944e+003,1.123452e-002
3.320873e+003,1.128332e-002
3.322802e+003,1.117421e-002
3.324730e+003,1.084378e-002
3.326658e+003,1.075216e-002
3.328587e+003,1.082057e-002
3.330515e+003,1.083753e-002
3.332444e+003,1.082054e-002
3.334372e+003,1.077241e-002
3.336301e+003,1.076164e-002
3.338229e+003,1.080838e-002
3.340158e+003,1.075699e-002
3.342086e+003,1.061799e-002
3.344015e+003,1.069657e-002
3.345943e+003,1.071110e-002
3.347872e+003,1.061351e-002
3.349800e+003,1.065334e-002
3.351729e+003,1.065351e-002
3.353657e+003,1.038411e-002
3.355586e+003,1.026935e-002
3.357514e+003,1.025470e-002
3.359443e+003,1.022847e-002
3.361371e+003,1.034346e-002
3.363300e+003,1.037963e-002
3.365229e+003,1.022121e-002
3.367157e+003,1.014042e-002
3.369085e+003,1.002945e-002
3.371014e+003,9.860727e-003
3.372942e+003,9.916048e-003
3.374871e+003,9.848898e-003
3.376799e+003,9.796026e-003
3.378728e+003,9.695928e-003
3.380656e+003,9.456413e-003
3.382585e+003,9.227286e-003
3.384513e+003,9.224206e-003
3.386442e+003,9.346371e-003
3.388370e+003,9.594124e-003
3.390299e+003,9.607030e-003
3.392227e+003,9.455905e-003
3.394156e+003,9.408837e-003
3.396084e+003,9.255751e-003
3.398013e+003,9.265160e-003
3.399941e+003,9.392789e-003
3.401870e+003,9.363129e-003
3.403798e+003,9.387947e-003
3.405727e+003,9.219265e-003
3.407655e+003,9.114967e-003
3.409584e+003,9.253111e-003
3.411512e+003,9.254701e-003
3.413441e+003,9.109383e-003
3.415369e+003,9.100756e-003
3.417298e+003,9.128299e-003
3.419226e+003,9.158348e-003
3.421155e+003,8.967226e-003
3.423083e+003,8.896098e-003
3.425012e+003,9.047400e-003
3.426940e+003,8.992326e-003
3.428869e+003,9.085699e-003
3.430797e+003,9.211751e-003
3.432726e+003,9.103835e-003
3.434654e+003,8.866202e-003
3.436583e+003,8.696472e-003
3.438511e+003,8.803881e-003
3.440440e+003,9.030383e-003
3.442368e+003,9.265330e-003
3.444297e+003,9.289498e-003
3.446225e+003,9.211311e-003
3.448154e+003,9.183255e-003
3.450082e+003,9.054471e-003
3.452011e+003,8.897451e-003
3.453939e+003,8.839657e-003
3.455868e+003,8.796510e-003
3.457796e+003,8.905602e-003
3.459725e+003,9.103970e-003
3.461653e+003,9.160040e-003
3.463582e+003,8.996317e-003
3.465510e+003,8.920212e-003
3.467439e+003,8.992529e-003
3.469367e+003,8.954103e-003
3.471296e+003,8.945139e-003
3.473224e+003,8.960056e-003
3.475153e+003,8.921633e-003
3.477081e+003,8.996149e-003
3.479010e+003,9.068275e-003
3.480938e+003,9.236898e-003
3.482867e+003,9.289633e-003
3.484795e+003,9.274875e-003
3.486724e+003,9.196284e-003
3.488652e+003,9.104173e-003
3.490581e+003,9.024937e-003
3.492509e+003,9.035559e-003
3.494438e+003,9.208468e-003
3.496366e+003,9.401252e-003
3.498295e+003,9.325381e-003
3.500223e+003,9.220043e-003
3.502152e+003,9.127182e-003
3.504080e+003,8.924508e-003
3.506009e+003,9.015261e-003
3.507937e+003,9.260591e-003
3.509866e+003,9.286283e-003
3.511794e+003,9.235679e-003
3.513723e+003,9.181495e-003
3.515651e+003,9.054301e-003
3.517580e+003,9.040363e-003
3.519508e+003,9.211446e-003
3.521437e+003,9.258932e-003
3.523365e+003,9.106339e-003
3.525294e+003,9.075820e-003
3.527222e+003,9.150430e-003
3.529151e+003,9.227252e-003
3.531079e+003,9.218892e-003
3.533008e+003,9.152663e-003
3.534936e+003,9.102583e-003
3.536865e+003,9.117065e-003
3.538793e+003,9.289532e-003
3.540722e+003,9.518963e-003
3.542650e+003,9.489973e-003
3.544579e+003,9.513916e-003
3.546507e+003,9.469586e-003
3.548436e+003,9.314954e-003
3.550364e+003,9.293696e-003
3.552293e+003,9.223157e-003
3.554221e+003,9.038096e-003
3.556150e+003,9.034849e-003
3.558078e+003,9.141191e-003
3.560007e+003,9.218757e-003
3.561935e+003,9.397698e-003
3.563864e+003,9.365499e-003
3.565792e+003,9.292511e-003
3.567721e+003,9.407246e-003
3.569649e+003,9.390485e-003
3.571578e+003,9.271253e-003
3.573506e+003,9.179262e-003
3.575435e+003,9.324738e-003
3.577363e+003,9.437823e-003
3.579292e+003,9.425869e-003
3.581220e+003,9.360590e-003
3.583149e+003,9.326092e-003
3.585077e+003,9.415610e-003
3.587006e+003,9.377586e-003
3.588934e+003,9.284048e-003
3.590863e+003,9.316343e-003
3.592791e+003,9.245326e-003
3.594720e+003,9.249354e-003
3.596648e+003,9.494342e-003
3.598577e+003,9.646767e-003
3.600505e+003,9.505009e-003
3.602434e+003,9.302565e-003
3.604362e+003,9.546973e-003
3.606291e+003,9.700569e-003
3.608219e+003,9.616278e-003
3.610148e+003,9.453569e-003
3.612076e+003,9.266040e-003
3.614005e+003,9.226033e-003
3.615933e+003,9.400677e-003
3.617862e+003,9.627525e-003
3.619790e+003,9.637925e-003
3.621719e+003,9.423804e-003
3.623647e+003,9.408770e-003
3.625576e+003,9.594124e-003
3.627504e+003,9.835782e-003
3.629433e+003,9.796772e-003
3.631361e+003,9.652764e-003
3.633290e+003,9.517202e-003
3.635218e+003,9.539183e-003
3.637146e+003,9.493868e-003
3.639075e+003,9.289904e-003
3.641004e+003,9.465895e-003
3.642932e+003,9.687423e-003
3.644861e+003,9.661301e-003
3.646789e+003,9.724186e-003
3.648718e+003,9.598290e-003
3.650646e+003,9.464337e-003
3.652574e+003,9.438838e-003
3.654503e+003,9.515509e-003
3.656432e+003,9.499083e-003
3.658360e+003,9.224070e-003
3.660289e+003,9.072436e-003
3.662217e+003,9.059444e-003
3.664146e+003,9.336045e-003
3.666074e+003,9.589382e-003
3.668002e+003,9.536677e-003
3.669931e+003,9.524179e-003
3.671860e+003,9.379109e-003
3.673788e+003,9.409887e-003
3.675717e+003,9.469349e-003
3.677645e+003,9.587721e-003
3.679573e+003,9.436400e-003
3.681502e+003,9.463727e-003
3.683430e+003,9.521774e-003
3.685359e+003,9.437585e-003
3.687288e+003,9.628845e-003
3.689216e+003,9.716155e-003
3.691145e+003,9.615431e-003
3.693073e+003,9.562181e-003
3.695001e+003,9.495595e-003
3.696930e+003,9.454550e-003
3.698858e+003,9.428951e-003
3.700787e+003,9.376333e-003
3.702716e+003,9.438703e-003
3.704644e+003,9.584470e-003
3.706573e+003,9.839849e-003
3.708501e+003,9.924726e-003
3.710429e+003,9.759156e-003
3.712358e+003,9.554018e-003
3.714286e+003,9.455871e-003
3.716215e+003,9.399831e-003
3.718144e+003,9.466708e-003
3.720072e+003,9.540640e-003
3.722000e+003,9.343223e-003
3.723929e+003,9.379618e-003
3.725857e+003,9.626576e-003
3.727786e+003,9.790943e-003
3.729714e+003,9.648597e-003
3.731643e+003,9.513273e-003
3.733572e+003,9.529869e-003
3.735500e+003,9.587822e-003
3.737428e+003,9.499185e-003
3.739357e+003,9.512223e-003
3.741285e+003,9.784843e-003
3.743214e+003,9.929844e-003
3.745142e+003,9.797687e-003
3.747071e+003,9.714868e-003
3.749000e+003,9.713445e-003
3.750928e+003,9.644971e-003
3.752856e+003,9.546058e-003
3.754785e+003,9.509819e-003
3.756713e+003,9.582268e-003
3.758642e+003,9.566788e-003
3.760570e+003,9.582031e-003
3.762499e+003,9.616786e-003
3.764427e+003,9.787384e-003
3.766356e+003,9.817005e-003
3.768284e+003,9.840391e-003
3.770213e+003,9.808023e-003
3.772141e+003,9.757665e-003
3.774070e+003,9.798331e-003
3.775998e+003,9.875370e-003
3.777927e+003,9.710057e-003
3.779855e+003,9.527870e-003
3.781784e+003,9.626745e-003
3.783712e+003,9.653407e-003
3.785641e+003,9.664994e-003
3.787569e+003,9.757461e-003
3.789498e+003,9.834527e-003
3.791426e+003,9.760647e-003
3.793355e+003,9.639246e-003
3.795283e+003,9.649342e-003
3.797212e+003,9.591888e-003
3.799140e+003,9.642329e-003
3.801069e+003,9.812667e-003
3.802997e+003,9.734622e-003
3.804926e+003,9.371594e-003
3.806854e+003,9.344441e-003
3.808783e+003,9.373016e-003
3.810711e+003,9.578711e-003
3.812640e+003,9.835036e-003
3.814568e+003,9.864625e-003
3.816497e+003,9.815480e-003
3.818425e+003,9.762443e-003
3.820354e+003,1.000725e-002
3.822282e+003,9.874048e-003
3.824211e+003,9.722153e-003
3.826139e+003,9.477036e-003
3.828068e+003,9.562316e-003
3.829996e+003,9.744653e-003
3.831925e+003,9.643413e-003
3.833853e+003,9.660454e-003
3.835782e+003,9.763866e-003
3.837710e+003,9.737604e-003
3.839639e+003,9.651002e-003
3.841567e+003,9.688473e-003
3.843496e+003,9.693589e-003
3.845424e+003,9.645954e-003
3.847353e+003,9.616786e-003
3.849281e+003,9.806735e-003
3.851210e+003,1.010545e-002
3.853138e+003,1.011874e-002
3.855067e+003,9.648427e-003
3.856995e+003,9.639246e-003
3.858924e+003,9.843916e-003
3.860852e+003,9.957881e-003
3.862781e+003,9.946591e-003
3.864709e+003,9.902047e-003
3.866638e+003,9.798195e-003
3.868566e+003,9.867506e-003
3.870495e+003,1.007713e-002
3.872423e+003,9.978359e-003
3.874352e+003,9.746821e-003
3.876280e+003,9.578643e-003
3.878209e+003,9.605065e-003
3.880137e+003,9.687185e-003
3.882066e+003,9.730116e-003
3.883994e+003,9.682442e-003
3.885923e+003,9.712699e-003
3.887851e+003,9.747702e-003
3.889780e+003,9.971578e-003
3.891708e+003,9.724829e-003
3.893637e+003,9.500404e-003
3.895565e+003,9.802771e-003
3.897494e+003,1.015487e-002
3.899422e+003,1.024703e-002
3.901351e+003,1.011322e-002
3.903279e+003,1.015826e-002
3.905208e+003,1.003990e-002
3.907136e+003,9.875879e-003
3.909065e+003,9.842492e-003
3.910993e+003,9.760139e-003
3.912922e+003,9.773626e-003
3.914850e+003,9.720459e-003
3.916779e+003,9.598697e-003
3.918707e+003,9.760172e-003
3.920636e+003,9.725609e-003
3.922564e+003,9.485130e-003
3.924493e+003,9.554899e-003
3.926421e+003,9.681731e-003
3.928350e+003,9.800195e-003
3.930278e+003,9.956626e-003
3.932207e+003,1.012997e-002
3.934135e+003,1.036775e-002
3.936064e+003,1.045283e-002
3.937992e+003,1.030047e-002
3.939921e+003,1.008836e-002
3.941849e+003,1.005143e-002
3.943778e+003,1.008863e-002
3.945706e+003,1.001955e-002
3.947635e+003,9.931200e-003
3.949563e+003,9.917607e-003
3.951492e+003,9.991141e-003
3.953420e+003,1.014818e-002
3.955349e+003,1.032378e-002
3.957277e+003,1.023750e-002
3.959206e+003,9.987378e-003
3.961134e+003,9.844390e-003
3.963063e+003,9.991853e-003
3.964991e+003,9.994870e-003
3.966920e+003,9.987479e-003
3.968848e+003,1.014991e-002
3.970777e+003,1.023872e-002
3.972705e+003,1.014547e-002
3.974634e+003,1.008629e-002
3.976562e+003,1.011501e-002
3.978491e+003,9.996159e-003
3.980419e+003,1.003139e-002
3.982348e+003,1.008703e-002
3.984276e+003,1.012241e-002
3.986205e+003,1.011752e-002
3.988133e+003,1.029999e-002
3.990062e+003,1.039388e-002
3.991990e+003,1.019859e-002
3.993919e+003,1.011172e-002
3.995847e+003,1.009077e-002
3.997776e+003,1.001565e-002
3.999704e+003,9.889505e-003
4.001633e+003,0.000000e+000
