3.991989e+002,1.401699e-002
4.011274e+002,1.820865e-002
4.030559e+002,1.662722e-002
4.049844e+002,7.889133e-003
4.069129e+002,4.868467e-003
4.088414e+002,1.230249e-002
4.107699e+002,1.221715e-002
4.126984e+002,5.892156e-003
4.146269e+002,9.301312e-003
4.165554e+002,1.304835e-002
4.184839e+002,1.163635e-002
4.204124e+002,7.539106e-003
4.223409e+002,3.041128e-003
4.242694e+002,1.264677e-003
4.261979e+002,5.942908e-003
4.281264e+002,5.049077e-003
4.300549e+002,-4.497703e-003
4.319834e+002,4.320395e-003
4.339119e+002,7.729127e-003
4.358404e+002,1.020202e-003
4.377689e+002,1.009087e-002
4.396974e+002,1.144798e-002
4.416259e+002,4.251696e-003
4.435544e+002,6.316495e-003
4.454829e+002,8.971658e-003
4.474114e+002,9.704194e-003
4.493399e+002,1.059283e-002
4.512684e+002,6.488123e-003
4.531969e+002,3.768835e-003
4.551254e+002,5.922183e-003
4.570539e+002,7.927364e-003
4.589824e+002,7.861500e-003
4.609109e+002,5.097015e-003
4.628394e+002,4.111755e-003
4.647679e+002,6.572986e-003
4.666964e+002,6.281599e-003
4.686249e+002,3.831207e-003
4.705533e+002,4.519191e-003
4.724819e+002,5.977944e-003
4.744103e+002,5.385965e-003
4.763389e+002,5.934511e-003
4.782673e+002,5.470076e-003
4.801959e+002,4.293021e-003
4.821243e+002,3.732339e-003
4.840529e+002,3.546797e-003
4.859813e+002,5.320518e-003
4.879099e+002,4.990317e-003
4.898383e+002,2.146883e-003
4.917668e+002,2.252485e-003
4.936953e+002,1.973001e-003
4.956238e+002,-4.214261e-004
4.975523e+002,-7.802365e-005
4.994808e+002,1.291661e-003
5.014093e+002,1.343208e-003
5.033378e+002,1.244008e-003
5.052663e+002,1.372890e-003
5.071948e+002,1.189649e-003
5.091233e+002,6.348946e-005
5.110518e+002,1.315621e-004
5.129803e+002,-1.924297e-003
5.149088e+002,-3.068545e-003
5.168373e+002,-3.060419e-003
5.187658e+002,-2.384625e-003
5.206943e+002,-1.661604e-003
5.226228e+002,-1.830042e-003
5.245513e+002,-2.322934e-003
5.264798e+002,-1.560358e-003
5.284083e+002,-1.162078e-003
5.303368e+002,-2.100844e-003
5.322653e+002,-3.032583e-003
5.341938e+002,-2.669012e-003
5.361223e+002,-2.457906e-003
5.380508e+002,-2.381660e-003
5.399792e+002,-9.070243e-004
5.419078e+002,-1.463284e-004
5.438363e+002,-7.852953e-004
5.457648e+002,-5.627152e-004
5.476932e+002,-1.259485e-003
5.496218e+002,-4.036500e-004
5.515503e+002,1.298208e-003
5.534788e+002,2.145085e-003
5.554072e+002,1.479700e-003
5.573358e+002,1.031195e-003
5.592643e+002,1.228457e-003
5.611927e+002,2.937503e-003
5.631212e+002,3.059380e-003
5.650497e+002,1.750249e-003
5.669783e+002,-6.606425e-005
5.689067e+002,7.570101e-004
5.708352e+002,2.922158e-003
5.727637e+002,2.606675e-003
5.746923e+002,-1.588487e-004
5.766207e+002,-7.740830e-004
5.785492e+002,2.394060e-003
5.804777e+002,1.563870e-002
5.824063e+002,1.285449e-002
5.843347e+002,1.461414e-003
5.862632e+002,7.792824e-004
5.881917e+002,4.718199e-004
5.901202e+002,1.286510e-003
5.920487e+002,1.123935e-003
5.939772e+002,-6.059301e-004
5.959057e+002,-1.672529e-003
5.978342e+002,-1.366564e-004
5.997627e+002,1.419726e-003
6.016912e+002,2.219113e-003
6.036197e+002,1.289734e-003
6.055482e+002,2.815427e-003
6.074767e+002,4.588836e-003
6.094052e+002,5.175069e-003
6.113337e+002,4.412635e-003
6.132622e+002,4.823167e-003
6.151907e+002,4.510218e-003
6.171192e+002,4.547684e-003
6.190477e+002,3.145613e-003
6.209762e+002,2.435941e-003
6.229047e+002,5.995433e-004
6.248332e+002,-7.713377e-004
6.267617e+002,-1.741937e-003
6.286902e+002,-2.780041e-003
6.306187e+002,-2.919282e-003
6.325472e+002,-2.097382e-003
6.344756e+002,-1.558278e-003
6.364042e+002,-1.266456e-003
6.383326e+002,-1.358291e-003
6.402612e+002,-1.593669e-003
6.421896e+002,-1.587727e-003
6.441182e+002,-1.085373e-003
6.460466e+002,-1.037578e-003
6.479752e+002,-1.016092e-003
6.499036e+002,-4.900409e-004
6.518322e+002,-4.367520e-004
6.537606e+002,-5.295235e-004
6.556891e+002,-4.577705e-004
6.576177e+002,-5.710209e-004
6.595461e+002,-4.457884e-004
6.614746e+002,-5.596046e-004
6.634031e+002,-4.069603e-004
6.653317e+002,-6.556582e-004
6.672601e+002,-9.213411e-004
6.691886e+002,-3.486620e-004
6.711171e+002,8.860946e-005
6.730457e+002,3.481463e-004
6.749741e+002,8.686818e-004
6.769026e+002,1.431428e-003
6.788311e+002,2.083555e-003
6.807596e+002,1.736543e-003
6.826881e+002,9.151316e-004
6.846166e+002,6.324258e-004
6.865451e+002,1.256935e-003
6.884736e+002,2.141156e-003
6.904021e+002,2.420714e-003
6.923306e+002,1.974899e-003
6.942591e+002,1.254077e-003
6.961876e+002,8.195149e-004
6.981161e+002,1.004825e-003
7.000446e+002,1.349856e-003
7.019731e+002,1.375981e-003
7.039016e+002,1.236631e-003
7.058301e+002,6.187881e-004
7.077585e+002,1.797562e-004
7.096871e+002,1.665968e-004
7.116156e+002,1.070243e-005
7.135441e+002,-2.639649e-004
7.154725e+002,-3.558794e-004
7.174011e+002,-3.677977e-004
7.193296e+002,-7.495737e-004
7.212581e+002,-1.261336e-003
7.231865e+002,-1.190463e-003
7.251151e+002,-8.753139e-004
7.270436e+002,-1.238737e-003
7.289720e+002,-1.753223e-003
7.309005e+002,-2.128904e-003
7.328290e+002,-1.749824e-003
7.347576e+002,-1.499408e-003
7.366860e+002,-1.352544e-003
7.386145e+002,-7.062739e-004
7.405430e+002,-5.529862e-004
7.424716e+002,-1.392774e-003
7.444000e+002,-1.397365e-003
7.463285e+002,-9.477253e-004
7.482570e+002,-4.338392e-004
7.501855e+002,-6.632928e-005
7.521140e+002,8.888349e-004
7.540425e+002,1.560165e-003
7.559710e+002,1.642342e-003
7.578995e+002,1.578255e-003
7.598280e+002,2.018970e-003
7.617565e+002,2.244991e-003
7.636850e+002,2.413751e-003
7.656135e+002,2.810224e-003
7.675420e+002,3.043464e-003
7.694705e+002,3.060282e-003
7.713990e+002,2.811458e-003
7.733275e+002,2.984308e-003
7.752560e+002,3.136635e-003
7.771844e+002,3.085909e-003
7.791130e+002,3.382038e-003
7.810415e+002,3.536809e-003
7.829700e+002,3.167273e-003
7.848984e+002,2.699986e-003
7.868270e+002,2.766372e-003
7.887555e+002,2.756435e-003
7.906840e+002,2.634677e-003
7.926124e+002,2.095507e-003
7.945410e+002,1.838418e-003
7.964695e+002,1.808439e-003
7.983979e+002,1.745359e-003
8.003264e+002,1.729923e-003
8.022549e+002,1.873857e-003
8.041835e+002,1.572901e-003
8.061119e+002,1.880113e-003
8.080404e+002,2.058585e-003
8.099689e+002,2.188874e-003
8.118975e+002,2.612842e-003
8.138259e+002,2.649445e-003
8.157545e+002,2.332194e-003
8.176830e+002,2.270903e-003
8.196115e+002,2.168161e-003
8.215399e+002,1.669117e-003
8.234684e+002,1.063778e-003
8.253970e+002,7.219609e-004
8.273254e+002,8.044107e-004
8.292539e+002,1.054079e-003
8.311824e+002,7.871161e-004
8.331110e+002,3.219171e-004
8.350394e+002,3.778261e-004
8.369679e+002,1.849936e-004
8.388964e+002,7.913129e-005
8.408250e+002,4.285351e-004
8.427534e+002,5.520324e-004
8.446819e+002,3.715252e-004
8.466104e+002,1.351085e-004
8.485389e+002,9.646390e-005
8.504674e+002,-9.680687e-005
8.523959e+002,-4.505879e-004
8.543244e+002,-5.410069e-004
8.562529e+002,-2.642298e-004
8.581814e+002,-1.765023e-004
8.601099e+002,1.093437e-005
8.620384e+002,3.588565e-005
8.639669e+002,-1.384782e-004
8.658954e+002,-4.928542e-004
8.678239e+002,-8.117869e-004
8.697524e+002,-5.044708e-004
8.716809e+002,1.353074e-004
8.736094e+002,2.874667e-004
8.755378e+002,2.047504e-004
8.774664e+002,-2.233323e-004
8.793949e+002,-3.266450e-004
8.813234e+002,-3.517410e-004
8.832518e+002,-2.489641e-004
8.851804e+002,2.923406e-004
8.871089e+002,7.557156e-004
8.890374e+002,5.922439e-004
8.909658e+002,4.353012e-004
8.928943e+002,6.949458e-004
8.948229e+002,7.751664e-004
8.967513e+002,5.986807e-004
8.986798e+002,6.694256e-004
9.006083e+002,7.100462e-004
9.025369e+002,7.789505e-004
9.044653e+002,6.624237e-004
9.063938e+002,6.120855e-004
9.083223e+002,4.151028e-004
9.102509e+002,2.713200e-004
9.121793e+002,2.058111e-004
9.141078e+002,2.674077e-004
9.160364e+002,1.866179e-004
9.179648e+002,6.329063e-005
9.198933e+002,-3.995781e-005
9.218218e+002,-1.754756e-004
9.237504e+002,-6.065918e-004
9.256788e+002,-7.488460e-004
9.276073e+002,-6.793788e-004
9.295358e+002,-7.087879e-004
9.314644e+002,-1.116109e-003
9.333928e+002,-1.576370e-003
9.353213e+002,-1.669691e-003
9.372498e+002,-1.369885e-003
9.391783e+002,-1.297676e-003
9.411068e+002,-1.526285e-003
9.430353e+002,-1.683157e-003
9.449637e+002,-1.598357e-003
9.468923e+002,-1.364996e-003
9.488208e+002,-1.373089e-003
9.507493e+002,-1.387753e-003
9.526777e+002,-1.446936e-003
9.546063e+002,-1.655002e-003
9.565348e+002,-1.669955e-003
9.584633e+002,-1.550850e-003
9.603917e+002,-1.393897e-003
9.623203e+002,-1.468401e-003
9.642488e+002,-1.573135e-003
9.661772e+002,-1.407636e-003
9.681057e+002,-1.171827e-003
9.700343e+002,-1.191587e-003
9.719628e+002,-1.307091e-003
9.738912e+002,-9.595281e-004
9.758197e+002,-7.526167e-004
9.777483e+002,-9.204153e-004
9.796768e+002,-8.990556e-004
9.816052e+002,-1.174007e-003
9.835337e+002,-1.057906e-003
9.854623e+002,-9.028580e-004
9.873907e+002,-8.013690e-004
9.893192e+002,-4.891143e-004
9.912477e+002,-5.535488e-004
9.931763e+002,-6.606869e-004
9.951047e+002,-5.385579e-004
9.970332e+002,-6.150953e-004
9.989617e+002,-6.386527e-004
1.000890e+003,-6.473541e-004
1.002819e+003,-5.513317e-004
1.004747e+003,-4.423129e-004
1.006676e+003,-2.699585e-004
1.008604e+003,-2.753351e-005
1.010533e+003,3.094164e-004
1.012461e+003,4.373244e-004
1.014390e+003,4.057833e-004
1.016318e+003,7.367635e-004
1.018247e+003,1.088225e-003
1.020175e+003,1.101446e-003
1.022104e+003,1.321638e-003
1.024032e+003,1.580949e-003
1.025961e+003,1.871827e-003
1.027889e+003,2.132099e-003
1.029818e+003,2.486425e-003
1.031746e+003,2.775609e-003
1.033675e+003,3.030985e-003
1.035603e+003,3.058279e-003
1.037532e+003,3.170111e-003
1.039460e+003,3.438576e-003
1.041389e+003,3.644721e-003
1.043317e+003,3.527923e-003
1.045246e+003,3.487439e-003
1.047174e+003,3.522345e-003
1.049103e+003,3.607065e-003
1.051031e+003,3.768401e-003
1.052960e+003,3.900675e-003
1.054888e+003,3.688728e-003
1.056817e+003,3.553178e-003
1.058745e+003,3.519940e-003
1.060674e+003,3.597778e-003
1.062602e+003,3.439979e-003
1.064531e+003,3.405080e-003
1.066459e+003,3.635732e-003
1.068388e+003,3.819708e-003
1.070316e+003,3.599314e-003
1.072245e+003,3.534304e-003
1.074173e+003,3.581307e-003
1.076102e+003,3.546597e-003
1.078030e+003,3.486471e-003
1.079959e+003,3.946280e-003
1.081887e+003,4.253971e-003
1.083816e+003,4.248216e-003
1.085744e+003,4.222453e-003
1.087673e+003,4.403095e-003
1.089601e+003,4.497128e-003
1.091530e+003,4.425823e-003
1.093458e+003,4.112257e-003
1.095387e+003,4.249420e-003
1.097315e+003,4.479953e-003
1.099244e+003,4.346197e-003
1.101172e+003,4.359350e-003
1.103101e+003,4.494315e-003
1.105029e+003,4.436769e-003
1.106958e+003,4.393154e-003
1.108886e+003,4.520831e-003
1.110815e+003,4.575978e-003
1.112743e+003,4.615558e-003
1.114672e+003,4.618037e-003
1.116600e+003,4.489896e-003
1.118529e+003,4.511624e-003
1.120457e+003,4.678587e-003
1.122386e+003,4.745109e-003
1.124314e+003,4.567975e-003
1.126243e+003,4.556155e-003
1.128171e+003,4.464821e-003
1.130100e+003,4.351686e-003
1.132028e+003,4.169258e-003
1.133957e+003,3.925316e-003
1.135885e+003,3.699689e-003
1.137814e+003,3.342503e-003
1.139742e+003,2.910083e-003
1.141671e+003,2.586976e-003
1.143599e+003,2.426179e-003
1.145528e+003,2.336192e-003
1.147456e+003,1.989211e-003
1.149385e+003,1.642375e-003
1.151313e+003,1.377178e-003
1.153242e+003,1.192407e-003
1.155170e+003,1.114899e-003
1.157099e+003,1.055839e-003
1.159027e+003,8.902958e-004
1.160956e+003,6.698571e-004
1.162884e+003,6.454666e-004
1.164813e+003,6.040558e-004
1.166741e+003,6.664390e-004
1.168670e+003,8.730643e-004
1.170598e+003,8.839543e-004
1.172526e+003,7.844938e-004
1.174455e+003,6.029277e-004
1.176384e+003,6.417169e-004
1.178312e+003,7.686606e-004
1.180240e+003,7.714156e-004
1.182169e+003,5.521320e-004
1.184098e+003,4.028316e-004
1.186026e+003,3.318979e-004
1.187954e+003,3.826016e-004
1.189883e+003,3.651912e-004
1.191812e+003,5.480845e-004
1.193740e+003,6.206462e-004
1.195668e+003,5.981830e-004
1.197597e+003,7.633166e-004
1.199526e+003,7.139292e-004
1.201454e+003,6.184895e-004
1.203382e+003,7.536245e-004
1.205311e+003,8.842531e-004
1.207240e+003,9.822752e-004
1.209168e+003,1.011102e-003
1.211096e+003,1.188220e-003
1.213025e+003,1.419925e-003
1.214953e+003,1.511219e-003
1.216882e+003,1.437245e-003
1.218810e+003,1.517437e-003
1.220739e+003,1.778628e-003
1.222667e+003,1.944311e-003
1.224596e+003,2.042140e-003
1.226524e+003,2.229770e-003
1.228453e+003,2.308976e-003
1.230381e+003,2.404521e-003
1.232310e+003,2.515351e-003
1.234238e+003,2.649678e-003
1.236167e+003,2.866321e-003
1.238095e+003,2.931499e-003
1.240024e+003,2.941406e-003
1.241952e+003,2.963958e-003
1.243881e+003,2.886601e-003
1.245809e+003,2.635710e-003
1.247738e+003,2.543513e-003
1.249666e+003,2.722592e-003
1.251595e+003,2.710955e-003
1.253523e+003,2.597742e-003
1.255452e+003,2.376102e-003
1.257380e+003,2.236565e-003
1.259309e+003,2.217048e-003
1.261237e+003,2.392394e-003
1.263166e+003,2.659512e-003
1.265094e+003,3.021976e-003
1.267023e+003,3.235033e-003
1.268951e+003,3.367846e-003
1.270880e+003,3.527322e-003
1.272808e+003,3.765560e-003
1.274737e+003,3.965908e-003
1.276665e+003,4.303261e-003
1.278594e+003,4.709000e-003
1.280522e+003,4.903048e-003
1.282451e+003,5.046462e-003
1.284379e+003,5.364092e-003
1.286308e+003,5.691018e-003
1.288236e+003,6.150648e-003
1.290165e+003,6.561987e-003
1.292093e+003,6.850734e-003
1.294022e+003,7.157796e-003
1.295950e+003,7.246025e-003
1.297879e+003,7.271261e-003
1.299807e+003,7.294780e-003
1.301736e+003,7.190000e-003
1.303664e+003,7.132601e-003
1.305593e+003,7.012640e-003
1.307521e+003,6.792000e-003
1.309450e+003,6.619916e-003
1.311378e+003,6.409530e-003
1.313307e+003,6.213632e-003
1.315235e+003,6.062977e-003
1.317164e+003,5.762867e-003
1.319092e+003,5.311797e-003
1.321021e+003,5.035568e-003
1.322949e+003,4.800117e-003
1.324878e+003,4.529369e-003
1.326806e+003,4.353594e-003
1.328735e+003,4.254339e-003
1.330663e+003,4.166180e-003
1.332592e+003,3.944675e-003
1.334520e+003,3.750754e-003
1.336449e+003,3.566875e-003
1.338377e+003,3.455509e-003
1.340306e+003,3.574491e-003
1.342234e+003,3.721177e-003
1.344163e+003,3.625809e-003
1.346091e+003,3.614115e-003
1.348020e+003,3.539348e-003
1.349948e+003,3.234165e-003
1.351877e+003,3.112372e-003
1.353805e+003,3.052373e-003
1.355734e+003,3.046867e-003
1.357662e+003,2.994384e-003
1.359591e+003,2.710722e-003
1.361519e+003,2.384065e-003
1.363448e+003,2.188874e-003
1.365376e+003,2.313007e-003
1.367305e+003,2.246423e-003
1.369233e+003,2.097771e-003
1.371162e+003,1.996801e-003
1.373090e+003,1.894190e-003
1.375019e+003,1.864539e-003
1.376947e+003,1.992074e-003
1.378876e+003,2.010748e-003
1.380804e+003,1.981356e-003
1.382733e+003,1.850364e-003
1.384661e+003,1.712193e-003
1.386590e+003,1.424180e-003
1.388518e+003,1.292193e-003
1.390447e+003,1.326025e-003
1.392375e+003,1.218589e-003
1.394304e+003,8.913915e-004
1.396232e+003,7.801122e-004
1.398161e+003,6.772906e-004
1.400089e+003,6.306671e-004
1.402018e+003,8.552358e-004
1.403946e+003,8.908270e-004
1.405875e+003,9.149656e-004
1.407803e+003,1.105531e-003
1.409732e+003,1.096862e-003
1.411660e+003,1.164266e-003
1.413589e+003,1.243676e-003
1.415517e+003,1.308178e-003
1.417446e+003,1.324796e-003
1.419374e+003,1.758999e-003
1.421303e+003,2.811792e-003
1.423231e+003,3.327711e-003
1.425160e+003,3.796510e-003
1.427088e+003,4.349544e-003
1.429017e+003,4.684750e-003
1.430945e+003,5.030775e-003
1.432874e+003,5.392137e-003
1.434802e+003,5.369996e-003
1.436731e+003,5.265311e-003
1.438659e+003,6.042079e-003
1.440588e+003,6.541400e-003
1.442516e+003,6.906009e-003
1.444445e+003,7.252528e-003
1.446373e+003,7.403831e-003
1.448302e+003,7.747206e-003
1.450230e+003,8.459974e-003
1.452159e+003,8.767399e-003
1.454087e+003,8.618121e-003
1.456016e+003,8.031039e-003
1.457944e+003,8.352312e-003
1.459873e+003,9.378467e-003
1.461801e+003,9.795383e-003
1.463730e+003,9.629015e-003
1.465658e+003,9.516457e-003
1.467587e+003,9.666553e-003
1.469515e+003,9.423837e-003
1.471444e+003,8.521806e-003
1.473372e+003,8.067595e-003
1.475301e+003,8.214151e-003
1.477229e+003,8.160262e-003
1.479158e+003,8.000157e-003
1.481086e+003,7.699649e-003
1.483015e+003,7.359682e-003
1.484943e+003,6.826802e-003
1.486872e+003,6.209464e-003
1.488800e+003,5.537626e-003
1.490729e+003,5.179327e-003
1.492657e+003,5.092992e-003
1.494586e+003,4.585521e-003
1.496514e+003,3.857081e-003
1.498443e+003,3.659924e-003
1.500371e+003,3.652773e-003
1.502300e+003,3.553278e-003
1.504228e+003,2.677048e-003
1.506157e+003,1.342178e-003
1.508085e+003,1.517802e-003
1.510014e+003,2.188175e-003
1.511942e+003,2.284527e-003
1.513871e+003,2.262976e-003
1.515799e+003,2.020635e-003
1.517728e+003,1.983386e-003
1.519656e+003,1.777630e-003
1.521585e+003,1.355008e-003
1.523513e+003,2.050928e-003
1.525442e+003,2.444438e-003
1.527370e+003,2.760704e-003
1.529299e+003,3.152455e-003
1.531227e+003,3.273557e-003
1.533156e+003,3.183027e-003
1.535084e+003,3.739257e-003
1.537013e+003,3.912477e-003
1.538941e+003,3.272556e-003
1.540870e+003,3.356393e-003
1.542798e+003,4.292318e-003
1.544727e+003,5.078711e-003
1.546655e+003,5.710524e-003
1.548584e+003,6.030992e-003
1.550512e+003,6.211582e-003
1.552441e+003,6.254774e-003
1.554369e+003,6.088783e-003
1.556298e+003,5.846850e-003
1.558226e+003,4.845783e-003
1.560155e+003,5.572663e-003
1.562083e+003,7.248182e-003
1.564012e+003,7.888964e-003
1.565940e+003,8.186395e-003
1.567869e+003,8.252377e-003
1.569797e+003,8.197099e-003
1.571726e+003,8.671660e-003
1.573654e+003,8.691638e-003
1.575583e+003,8.122653e-003
1.577511e+003,8.297326e-003
1.579440e+003,8.714118e-003
1.581368e+003,8.641882e-003
1.583297e+003,8.379132e-003
1.585225e+003,8.131362e-003
1.587154e+003,7.988445e-003
1.589082e+003,7.707338e-003
1.591010e+003,7.175650e-003
1.592939e+003,6.540122e-003
1.594868e+003,6.095839e-003
1.596796e+003,5.707704e-003
1.598724e+003,5.302003e-003
1.600653e+003,4.805679e-003
1.602582e+003,4.214155e-003
1.604510e+003,3.741262e-003
1.606438e+003,3.341734e-003
1.608367e+003,2.860017e-003
1.610296e+003,2.476394e-003
1.612224e+003,2.079160e-003
1.614152e+003,1.490771e-003
1.616081e+003,5.940355e-004
1.618010e+003,7.109091e-004
1.619938e+003,9.901790e-004
1.621866e+003,6.332553e-004
1.623795e+003,3.377672e-004
1.625724e+003,4.243893e-004
1.627652e+003,3.337217e-004
1.629580e+003,3.388946e-004
1.631509e+003,1.335507e-004
1.633438e+003,-5.688700e-004
1.635366e+003,-1.578186e-003
1.637294e+003,-1.400073e-003
1.639223e+003,-1.057510e-003
1.641151e+003,-1.309106e-003
1.643080e+003,-1.699561e-003
1.645008e+003,-2.484856e-003
1.646937e+003,-3.292541e-003
1.648865e+003,-3.235057e-003
1.650794e+003,-3.873078e-003
1.652722e+003,-5.428607e-003
1.654651e+003,-4.920850e-003
1.656579e+003,-4.182123e-003
1.658508e+003,-4.259071e-003
1.660436e+003,-4.690317e-003
1.662365e+003,-5.276715e-003
1.664293e+003,-5.342996e-003
1.666222e+003,-5.499674e-003
1.668150e+003,-6.013715e-003
1.670079e+003,-6.295540e-003
1.672007e+003,-6.149832e-003
1.673936e+003,-6.287278e-003
1.675864e+003,-6.279505e-003
1.677793e+003,-5.804686e-003
1.679721e+003,-5.721831e-003
1.681650e+003,-6.032962e-003
1.683578e+003,-6.816828e-003
1.685507e+003,-6.326628e-003
1.687435e+003,-5.521888e-003
1.689364e+003,-5.132924e-003
1.691292e+003,-4.670289e-003
1.693221e+003,-4.825309e-003
1.695149e+003,-5.606744e-003
1.697078e+003,-5.454652e-003
1.699006e+003,-5.706429e-003
1.700935e+003,-5.922075e-003
1.702863e+003,-4.900997e-003
1.704792e+003,-4.744922e-003
1.706720e+003,-4.680648e-003
1.708649e+003,-4.501441e-003
1.710577e+003,-4.463040e-003
1.712506e+003,-4.676616e-003
1.714434e+003,-5.013062e-003
1.716363e+003,-5.592646e-003
1.718291e+003,-5.701295e-003
1.720220e+003,-4.916067e-003
1.722148e+003,-4.591742e-003
1.724077e+003,-4.648753e-003
1.726005e+003,-4.589021e-003
1.727934e+003,-4.658980e-003
1.729862e+003,-4.801355e-003
1.731791e+003,-5.171037e-003
1.733719e+003,-5.957472e-003
1.735648e+003,-5.425367e-003
1.737576e+003,-4.819575e-003
1.739505e+003,-5.065792e-003
1.741433e+003,-4.948958e-003
1.743362e+003,-4.820197e-003
1.745290e+003,-4.620789e-003
1.747219e+003,-4.622100e-003
1.749147e+003,-4.713261e-003
1.751076e+003,-4.758458e-003
1.753004e+003,-4.369596e-003
1.754933e+003,-4.133618e-003
1.756861e+003,-4.083006e-003
1.758790e+003,-4.017386e-003
1.760718e+003,-4.268684e-003
1.762647e+003,-4.151504e-003
1.764575e+003,-3.740976e-003
1.766504e+003,-3.948538e-003
1.768432e+003,-4.203617e-003
1.770361e+003,-4.221140e-003
1.772289e+003,-4.326492e-003
1.774218e+003,-4.000610e-003
1.776146e+003,-3.685851e-003
1.778075e+003,-3.547579e-003
1.780003e+003,-3.526841e-003
1.781932e+003,-3.523818e-003
1.783860e+003,-3.495716e-003
1.785789e+003,-3.438094e-003
1.787717e+003,-3.531344e-003
1.789646e+003,-3.784402e-003
1.791574e+003,-4.038166e-003
1.793503e+003,-3.814685e-003
1.795431e+003,-3.522470e-003
1.797360e+003,-3.517803e-003
1.799288e+003,-3.687756e-003
1.801217e+003,-3.722711e-003
1.803145e+003,-3.506299e-003
1.805074e+003,-3.386941e-003
1.807002e+003,-3.305136e-003
1.808931e+003,-3.350052e-003
1.810859e+003,-3.499923e-003
1.812788e+003,-3.540973e-003
1.814716e+003,-3.556847e-003
1.816645e+003,-3.593948e-003
1.818573e+003,-3.540185e-003
1.820502e+003,-3.460808e-003
1.822430e+003,-3.437535e-003
1.824359e+003,-3.684997e-003
1.826287e+003,-3.699781e-003
1.828216e+003,-3.811236e-003
1.830144e+003,-3.984621e-003
1.832073e+003,-3.793993e-003
1.834001e+003,-3.703855e-003
1.835930e+003,-3.644683e-003
1.837858e+003,-3.626414e-003
1.839787e+003,-3.562828e-003
1.841715e+003,-3.768964e-003
1.843644e+003,-4.287746e-003
1.845572e+003,-4.165189e-003
1.847501e+003,-3.791497e-003
1.849429e+003,-3.634990e-003
1.851358e+003,-3.637947e-003
1.853286e+003,-3.621387e-003
1.855215e+003,-3.616228e-003
1.857143e+003,-3.649644e-003
1.859072e+003,-3.638637e-003
1.861000e+003,-3.572555e-003
1.862929e+003,-3.596314e-003
1.864857e+003,-3.659173e-003
1.866786e+003,-3.789427e-003
1.868714e+003,-3.946962e-003
1.870643e+003,-3.834654e-003
1.872571e+003,-3.606633e-003
1.874500e+003,-3.408080e-003
1.876428e+003,-3.294975e-003
1.878357e+003,-3.271956e-003
1.880285e+003,-3.292607e-003
1.882214e+003,-3.246469e-003
1.884142e+003,-3.204634e-003
1.886071e+003,-3.272219e-003
1.887999e+003,-3.432900e-003
1.889928e+003,-3.483489e-003
1.891856e+003,-3.253244e-003
1.893785e+003,-3.095984e-003
1.895713e+003,-3.052193e-003
1.897642e+003,-3.083186e-003
1.899570e+003,-3.159506e-003
1.901499e+003,-3.100951e-003
1.903427e+003,-3.015111e-003
1.905356e+003,-3.066407e-003
1.907284e+003,-3.035314e-003
1.909213e+003,-2.992505e-003
1.911141e+003,-2.949132e-003
1.913070e+003,-2.955418e-003
1.914998e+003,-3.038407e-003
1.916927e+003,-3.275080e-003
1.918855e+003,-3.295501e-003
1.920784e+003,-3.170164e-003
1.922712e+003,-3.160690e-003
1.924641e+003,-3.086772e-003
1.926569e+003,-3.034294e-003
1.928498e+003,-3.027352e-003
1.930426e+003,-3.087397e-003
1.932355e+003,-3.182959e-003
1.934283e+003,-3.241634e-003
1.936212e+003,-3.256434e-003
1.938140e+003,-3.221145e-003
1.940069e+003,-3.187991e-003
1.941997e+003,-3.353997e-003
1.943926e+003,-3.369483e-003
1.945854e+003,-3.268470e-003
1.947783e+003,-3.292903e-003
1.949711e+003,-3.244660e-003
1.951640e+003,-3.240911e-003
1.953568e+003,-3.235353e-003
1.955497e+003,-3.161875e-003
1.957425e+003,-3.252323e-003
1.959354e+003,-3.401406e-003
1.961282e+003,-3.400354e-003
1.963211e+003,-3.399993e-003
1.965139e+003,-3.363006e-003
1.967068e+003,-3.380859e-003
1.968996e+003,-3.314277e-003
1.970925e+003,-3.285570e-003
1.972853e+003,-3.263110e-003
1.974782e+003,-3.204996e-003
1.976710e+003,-3.168355e-003
1.978639e+003,-3.118091e-003
1.980567e+003,-3.182268e-003
1.982496e+003,-3.228085e-003
1.984424e+003,-3.117828e-003
1.986353e+003,-3.035972e-003
1.988281e+003,-3.043803e-003
1.990210e+003,-3.046896e-003
1.992138e+003,-3.037584e-003
1.994067e+003,-3.069763e-003
1.995995e+003,-3.061800e-003
1.997924e+003,-2.982567e-003
1.999852e+003,-2.963481e-003
2.001781e+003,-2.907170e-003
2.003709e+003,-2.808946e-003
2.005638e+003,-2.745998e-003
2.007566e+003,-2.747513e-003
2.009495e+003,-2.776683e-003
2.011423e+003,-2.746690e-003
2.013352e+003,-2.724333e-003
2.015280e+003,-2.714389e-003
2.017208e+003,-2.731774e-003
2.019137e+003,-2.618625e-003
2.021066e+003,-2.543329e-003
2.022994e+003,-2.558020e-003
2.024922e+003,-2.589674e-003
2.026851e+003,-2.593100e-003
2.028780e+003,-2.627649e-003
2.030708e+003,-2.667464e-003
2.032636e+003,-2.722818e-003
2.034565e+003,-2.713105e-003
2.036494e+003,-2.600938e-003
2.038422e+003,-2.588884e-003
2.040350e+003,-2.658145e-003
2.042279e+003,-2.673392e-003
2.044208e+003,-2.585293e-003
2.046136e+003,-2.540859e-003
2.048064e+003,-2.567803e-003
2.049993e+003,-2.559799e-003
2.051921e+003,-2.481001e-003
2.053850e+003,-2.492071e-003
2.055778e+003,-2.502382e-003
2.057707e+003,-2.469997e-003
2.059635e+003,-2.425649e-003
2.061564e+003,-2.448615e-003
2.063492e+003,-2.497473e-003
2.065421e+003,-2.435435e-003
2.067349e+003,-2.311662e-003
2.069278e+003,-2.300325e-003
2.071206e+003,-2.303884e-003
2.073135e+003,-2.343762e-003
2.075063e+003,-2.355956e-003
2.076992e+003,-2.189964e-003
2.078920e+003,-2.175293e-003
2.080849e+003,-2.306785e-003
2.082777e+003,-2.276066e-003
2.084706e+003,-2.168732e-003
2.086634e+003,-2.119177e-003
2.088563e+003,-2.124585e-003
2.090491e+003,-2.001250e-003
2.092420e+003,-1.903779e-003
2.094348e+003,-1.942341e-003
2.096277e+003,-1.941648e-003
2.098205e+003,-1.902327e-003
2.100134e+003,-1.800576e-003
2.102062e+003,-1.645364e-003
2.103991e+003,-1.544346e-003
2.105919e+003,-1.597070e-003
2.107848e+003,-1.656290e-003
2.109776e+003,-1.589378e-003
2.111705e+003,-1.455819e-003
2.113633e+003,-1.424248e-003
2.115562e+003,-1.392906e-003
2.117490e+003,-1.369654e-003
2.119419e+003,-1.341412e-003
2.121347e+003,-1.268075e-003
2.123276e+003,-1.182401e-003
2.125204e+003,-1.201301e-003
2.127133e+003,-1.229453e-003
2.129061e+003,-1.271511e-003
2.130990e+003,-1.154544e-003
2.132918e+003,-1.088447e-003
2.134847e+003,-1.158146e-003
2.136775e+003,-1.196048e-003
2.138704e+003,-1.091785e-003
2.140632e+003,-9.766204e-004
2.142561e+003,-9.210436e-004
2.144489e+003,-9.495106e-004
2.146418e+003,-9.602224e-004
2.148346e+003,-9.060985e-004
2.150275e+003,-9.217379e-004
2.152203e+003,-9.824057e-004
2.154132e+003,-9.495437e-004
2.156060e+003,-9.338391e-004
2.157989e+003,-9.503041e-004
2.159917e+003,-9.927861e-004
2.161846e+003,-1.031364e-003
2.163774e+003,-1.007695e-003
2.165703e+003,-8.737927e-004
2.167631e+003,-8.103978e-004
2.169560e+003,-8.955175e-004
2.171488e+003,-9.468656e-004
2.173417e+003,-9.580074e-004
2.175345e+003,-9.702728e-004
2.177274e+003,-1.016125e-003
2.179202e+003,-1.171661e-003
2.181131e+003,-1.146414e-003
2.183059e+003,-9.811164e-004
2.184988e+003,-8.831507e-004
2.186916e+003,-9.443860e-004
2.188845e+003,-1.106459e-003
2.190773e+003,-1.068814e-003
2.192702e+003,-9.368478e-004
2.194630e+003,-8.251478e-004
2.196559e+003,-8.087442e-004
2.198487e+003,-9.238209e-004
2.200416e+003,-9.833644e-004
2.202344e+003,-9.444191e-004
2.204273e+003,-9.871993e-004
2.206201e+003,-1.046437e-003
2.208130e+003,-1.001216e-003
2.210058e+003,-9.786700e-004
2.211987e+003,-9.768187e-004
2.213915e+003,-9.688182e-004
2.215844e+003,-9.863728e-004
2.217772e+003,-9.609498e-004
2.219701e+003,-8.876147e-004
2.221629e+003,-9.578090e-004
2.223558e+003,-1.064616e-003
2.225486e+003,-9.941416e-004
2.227415e+003,-9.249451e-004
2.229343e+003,-9.898770e-004
2.231272e+003,-1.091851e-003
2.233200e+003,-1.091520e-003
2.235129e+003,-1.107285e-003
2.237057e+003,-1.138417e-003
2.238986e+003,-1.005480e-003
2.240914e+003,-1.028851e-003
2.242843e+003,-1.101898e-003
2.244771e+003,-1.038537e-003
2.246700e+003,-1.012455e-003
2.248628e+003,-1.028422e-003
2.250557e+003,-1.101237e-003
2.252485e+003,-1.132072e-003
2.254414e+003,-1.082398e-003
2.256342e+003,-1.089736e-003
2.258271e+003,-1.187225e-003
2.260199e+003,-1.204672e-003
2.262128e+003,-1.181013e-003
2.264056e+003,-1.210355e-003
2.265985e+003,-1.249541e-003
2.267913e+003,-1.254067e-003
2.269842e+003,-1.309304e-003
2.271770e+003,-1.360801e-003
2.273699e+003,-1.355649e-003
2.275627e+003,-1.365657e-003
2.277556e+003,-1.363279e-003
2.279484e+003,-1.360042e-003
2.281413e+003,-1.379794e-003
2.283341e+003,-1.434255e-003
2.285270e+003,-1.482171e-003
2.287198e+003,-1.526054e-003
2.289127e+003,-1.576238e-003
2.291055e+003,-1.527705e-003
2.292984e+003,-1.496370e-003
2.294912e+003,-1.536289e-003
2.296841e+003,-1.554911e-003
2.298769e+003,-1.589345e-003
2.300698e+003,-1.752662e-003
2.302626e+003,-1.769624e-003
2.304555e+003,-1.596706e-003
2.306483e+003,-1.573762e-003
2.308412e+003,-1.622026e-003
2.310340e+003,-1.629057e-003
2.312269e+003,-1.723951e-003
2.314197e+003,-1.823674e-003
2.316125e+003,-1.785398e-003
2.318054e+003,-1.776587e-003
2.319983e+003,-1.812521e-003
2.321911e+003,-1.812059e-003
2.323840e+003,-1.863266e-003
2.325768e+003,-1.854457e-003
2.327697e+003,-1.791436e-003
2.329625e+003,-1.756061e-003
2.331553e+003,-1.865015e-003
2.333482e+003,-1.903449e-003
2.335411e+003,-1.814336e-003
2.337339e+003,-1.725766e-003
2.339268e+003,-1.733752e-003
2.341196e+003,-1.722664e-003
2.343125e+003,-1.499111e-003
2.345053e+003,-1.294075e-003
2.346981e+003,-1.164490e-003
2.348910e+003,-1.086695e-003
2.350839e+003,-1.177345e-003
2.352767e+003,-1.381874e-003
2.354696e+003,-1.621201e-003
2.356624e+003,-1.630246e-003
2.358552e+003,-1.642888e-003
2.360481e+003,-1.737779e-003
2.362409e+003,-1.811201e-003
2.364338e+003,-1.737614e-003
2.366267e+003,-1.624304e-003
2.368195e+003,-1.487289e-003
2.370124e+003,-1.289186e-003
2.372052e+003,-1.059261e-003
2.373980e+003,-8.618883e-004
2.375909e+003,-7.204650e-004
2.377838e+003,-5.603326e-004
2.379766e+003,-4.589621e-004
2.381695e+003,-4.161629e-004
2.383623e+003,-4.060004e-004
2.385552e+003,-3.384979e-004
2.387480e+003,-2.131983e-004
2.389408e+003,-1.075067e-004
2.391337e+003,-1.325822e-004
2.393266e+003,-9.965576e-005
2.395194e+003,-2.458476e-005
2.397123e+003,8.062260e-005
2.399051e+003,1.060302e-005
2.400979e+003,-7.090627e-006
2.402908e+003,9.708382e-006
2.404836e+003,8.440060e-005
2.406765e+003,1.640776e-004
2.408694e+003,2.105184e-004
2.410622e+003,2.282873e-004
2.412551e+003,1.977227e-004
2.414479e+003,1.818777e-004
2.416407e+003,3.030502e-004
2.418336e+003,3.661861e-004
2.420264e+003,3.686732e-004
2.422193e+003,3.693033e-004
2.424122e+003,4.325483e-004
2.426050e+003,5.030672e-004
2.427979e+003,5.459613e-004
2.429907e+003,5.079436e-004
2.431835e+003,5.594308e-004
2.433764e+003,4.840929e-004
2.435692e+003,5.067493e-004
2.437621e+003,6.137777e-004
2.439550e+003,6.816048e-004
2.441478e+003,7.712828e-004
2.443406e+003,8.460397e-004
2.445335e+003,8.664242e-004
2.447263e+003,8.871416e-004
2.449192e+003,8.288432e-004
2.451121e+003,8.278805e-004
2.453049e+003,8.859131e-004
2.454978e+003,8.643326e-004
2.456906e+003,9.225362e-004
2.458834e+003,1.067631e-003
2.460763e+003,1.072547e-003
2.462691e+003,1.043849e-003
2.464620e+003,1.049761e-003
2.466549e+003,1.077430e-003
2.468477e+003,1.154432e-003
2.470406e+003,1.230949e-003
2.472334e+003,1.252980e-003
2.474262e+003,1.275643e-003
2.476191e+003,1.282822e-003
2.478119e+003,1.251452e-003
2.480048e+003,1.255173e-003
2.481977e+003,1.317617e-003
2.483905e+003,1.382529e-003
2.485833e+003,1.483623e-003
2.487762e+003,1.563125e-003
2.489690e+003,1.578754e-003
2.491619e+003,1.546731e-003
2.493547e+003,1.454931e-003
2.495476e+003,1.398584e-003
2.497405e+003,1.450044e-003
2.499333e+003,1.524153e-003
2.501261e+003,1.603862e-003
2.503190e+003,1.604793e-003
2.505118e+003,1.515974e-003
2.507047e+003,1.577890e-003
2.508975e+003,1.730721e-003
2.510904e+003,1.716783e-003
2.512833e+003,1.591424e-003
2.514761e+003,1.660336e-003
2.516689e+003,1.750083e-003
2.518618e+003,1.707868e-003
2.520546e+003,1.776465e-003
2.522475e+003,1.836588e-003
2.524403e+003,1.872492e-003
2.526332e+003,1.866070e-003
2.528260e+003,1.837387e-003
2.530189e+003,1.898150e-003
2.532117e+003,1.898882e-003
2.534046e+003,1.843742e-003
2.535974e+003,1.867701e-003
2.537903e+003,1.918351e-003
2.539831e+003,1.994870e-003
2.541760e+003,2.004690e-003
2.543688e+003,2.026160e-003
2.545617e+003,1.965179e-003
2.547545e+003,1.939585e-003
2.549474e+003,2.013045e-003
2.551402e+003,2.072401e-003
2.553331e+003,2.035215e-003
2.555259e+003,2.043138e-003
2.557188e+003,2.158538e-003
2.559116e+003,2.193503e-003
2.561045e+003,2.215150e-003
2.562973e+003,2.280896e-003
2.564902e+003,2.247955e-003
2.566830e+003,2.194935e-003
2.568759e+003,2.148415e-003
2.570687e+003,2.185245e-003
2.572616e+003,2.200763e-003
2.574544e+003,2.152411e-003
2.576473e+003,2.131833e-003
2.578401e+003,2.173656e-003
2.580330e+003,2.210887e-003
2.582258e+003,2.268439e-003
2.584187e+003,2.171791e-003
2.586115e+003,2.181748e-003
2.588044e+003,2.293520e-003
2.589972e+003,2.274967e-003
2.591901e+003,2.337258e-003
2.593829e+003,2.454235e-003
2.595758e+003,2.363509e-003
2.597686e+003,2.342788e-003
2.599615e+003,2.523550e-003
2.601543e+003,2.534348e-003
2.603472e+003,2.423813e-003
2.605400e+003,2.431143e-003
2.607329e+003,2.430777e-003
2.609257e+003,2.461099e-003
2.611186e+003,2.495856e-003
2.613114e+003,2.575210e-003
2.615043e+003,2.561778e-003
2.616971e+003,2.481126e-003
2.618900e+003,2.514718e-003
2.620828e+003,2.549079e-003
2.622757e+003,2.586776e-003
2.624685e+003,2.547013e-003
2.626614e+003,2.495056e-003
2.628542e+003,2.616276e-003
2.630471e+003,2.709255e-003
2.632399e+003,2.698186e-003
2.634328e+003,2.828800e-003
2.636256e+003,2.839673e-003
2.638185e+003,2.711989e-003
2.640113e+003,2.730627e-003
2.642042e+003,2.906147e-003
2.643970e+003,3.052006e-003
2.645899e+003,3.045666e-003
2.647827e+003,2.975701e-003
2.649756e+003,3.027582e-003
2.651684e+003,3.041996e-003
2.653613e+003,3.080570e-003
2.655541e+003,3.124587e-003
2.657470e+003,3.108234e-003
2.659398e+003,3.059380e-003
2.661327e+003,3.014636e-003
2.663255e+003,3.082105e-003
2.665184e+003,3.173248e-003
2.667112e+003,3.277163e-003
2.669041e+003,3.295859e-003
2.670969e+003,3.224885e-003
2.672898e+003,3.259770e-003
2.674826e+003,3.290684e-003
2.676755e+003,3.346142e-003
2.678683e+003,3.323637e-003
2.680612e+003,3.382405e-003
2.682540e+003,3.494353e-003
2.684469e+003,3.521176e-003
2.686397e+003,3.553412e-003
2.688326e+003,3.582042e-003
2.690254e+003,3.596575e-003
2.692183e+003,3.637771e-003
2.694111e+003,3.740494e-003
2.696040e+003,3.830404e-003
2.697968e+003,3.799285e-003
2.699897e+003,3.765994e-003
2.701825e+003,3.771342e-003
2.703754e+003,3.812722e-003
2.705682e+003,3.816198e-003
2.707611e+003,3.758541e-003
2.709539e+003,3.719539e-003
2.711468e+003,3.946681e-003
2.713396e+003,4.142296e-003
2.715325e+003,4.158687e-003
2.717253e+003,4.041049e-003
2.719182e+003,3.969987e-003
2.721110e+003,4.090348e-003
2.723039e+003,4.217234e-003
2.724967e+003,4.296233e-003
2.726896e+003,4.365642e-003
2.728824e+003,4.333313e-003
2.730753e+003,4.335990e-003
2.732681e+003,4.390209e-003
2.734610e+003,4.429037e-003
2.736538e+003,4.473224e-003
2.738467e+003,4.455850e-003
2.740395e+003,4.418057e-003
2.742324e+003,4.448151e-003
2.744252e+003,4.642283e-003
2.746181e+003,4.829432e-003
2.748109e+003,4.872521e-003
2.750038e+003,4.918430e-003
2.751966e+003,5.002283e-003
2.753895e+003,5.027690e-003
2.755823e+003,5.152671e-003
2.757752e+003,5.247972e-003
2.759680e+003,5.368688e-003
2.761609e+003,5.567427e-003
2.763537e+003,5.783785e-003
2.765466e+003,5.888394e-003
2.767394e+003,5.933906e-003
2.769323e+003,6.190676e-003
2.771251e+003,6.479917e-003
2.773180e+003,6.668566e-003
2.775108e+003,6.914493e-003
2.777037e+003,7.252797e-003
2.778965e+003,7.632538e-003
2.780894e+003,8.002384e-003
2.782822e+003,8.504608e-003
2.784750e+003,9.065974e-003
2.786679e+003,9.331204e-003
2.788608e+003,9.553883e-003
2.790536e+003,9.945235e-003
2.792465e+003,1.029310e-002
2.794393e+003,1.061093e-002
2.796322e+003,1.095304e-002
2.798250e+003,1.140607e-002
2.800178e+003,1.174431e-002
2.802107e+003,1.191109e-002
2.804036e+003,1.204505e-002
2.805964e+003,1.215012e-002
2.807893e+003,1.225010e-002
2.809821e+003,1.237612e-002
2.811750e+003,1.232083e-002
2.813678e+003,1.227982e-002
2.815606e+003,1.224206e-002
2.817535e+003,1.204665e-002
2.819464e+003,1.192546e-002
2.821392e+003,1.183917e-002
2.823321e+003,1.165680e-002
2.825249e+003,1.131648e-002
2.827177e+003,1.102444e-002
2.829106e+003,1.066172e-002
2.831034e+003,1.035021e-002
2.832963e+003,1.011620e-002
2.834892e+003,9.878420e-003
2.836820e+003,9.421197e-003
2.838749e+003,8.917134e-003
2.840677e+003,8.484403e-003
2.842605e+003,7.986589e-003
2.844534e+003,7.528149e-003
2.846462e+003,7.122665e-003
2.848391e+003,6.665740e-003
2.850320e+003,6.406470e-003
2.852248e+003,6.216254e-003
2.854177e+003,6.089892e-003
2.856105e+003,6.120000e-003
2.858033e+003,6.082432e-003
2.859962e+003,5.966355e-003
2.861890e+003,5.997429e-003
2.863819e+003,6.063213e-003
2.865748e+003,6.047354e-003
2.867676e+003,6.037006e-003
2.869604e+003,6.097889e-003
2.871533e+003,5.997228e-003
2.873461e+003,6.025314e-003
2.875390e+003,6.234572e-003
2.877319e+003,6.326917e-003
2.879247e+003,6.423889e-003
2.881176e+003,6.440972e-003
2.883104e+003,6.538810e-003
2.885032e+003,6.524717e-003
2.886961e+003,6.399039e-003
2.888889e+003,6.473964e-003
2.890818e+003,6.469154e-003
2.892747e+003,6.449716e-003
2.894675e+003,6.313201e-003
2.896604e+003,6.066035e-003
2.898532e+003,5.963298e-003
2.900460e+003,5.935149e-003
2.902389e+003,5.766963e-003
2.904317e+003,5.519638e-003
2.906246e+003,5.554036e-003
2.908175e+003,5.635462e-003
2.910103e+003,5.462829e-003
2.912031e+003,5.115019e-003
2.913960e+003,4.844108e-003
2.915888e+003,4.741391e-003
2.917817e+003,4.682473e-003
2.919745e+003,4.865652e-003
2.921674e+003,5.001177e-003
2.923603e+003,4.940146e-003
2.925531e+003,4.849770e-003
2.927459e+003,5.051524e-003
2.929388e+003,5.293551e-003
2.931316e+003,5.334506e-003
2.933245e+003,5.395391e-003
2.935173e+003,5.553768e-003
2.937102e+003,5.743225e-003
2.939031e+003,5.750544e-003
2.940959e+003,5.608542e-003
2.942887e+003,5.575147e-003
2.944816e+003,5.502222e-003
2.946744e+003,5.339403e-003
2.948673e+003,5.032350e-003
2.950601e+003,4.726854e-003
2.952530e+003,4.516780e-003
2.954458e+003,4.328962e-003
2.956387e+003,4.023157e-003
2.958315e+003,3.515998e-003
2.960244e+003,3.055576e-003
2.962172e+003,2.802854e-003
2.964101e+003,2.522517e-003
2.966029e+003,2.187542e-003
2.967958e+003,1.974566e-003
2.969886e+003,1.924674e-003
2.971815e+003,1.666289e-003
2.973743e+003,1.401775e-003
2.975672e+003,1.221845e-003
2.977600e+003,1.195463e-003
2.979529e+003,1.047968e-003
2.981457e+003,9.172899e-004
2.983386e+003,8.171247e-004
2.985314e+003,6.300699e-004
2.987243e+003,5.229047e-004
2.989171e+003,5.148104e-004
2.991100e+003,3.244371e-004
2.993028e+003,1.351085e-004
2.994957e+003,1.772039e-004
2.996885e+003,2.447307e-004
2.998814e+003,2.073360e-004
3.000742e+003,1.478030e-004
3.002671e+003,-3.412793e-006
3.004599e+003,-3.700914e-005
3.006528e+003,3.363235e-005
3.008456e+003,1.411077e-004
3.010385e+003,-2.272936e-005
3.012313e+003,-1.222143e-004
3.014242e+003,-1.934985e-005
3.016170e+003,-2.422031e-005
3.018099e+003,-5.708620e-005
3.020027e+003,-2.219924e-005
3.021956e+003,-7.494273e-005
3.023884e+003,-9.531617e-005
3.025813e+003,-1.376501e-004
3.027741e+003,-1.330790e-004
3.029670e+003,-1.325822e-004
3.031598e+003,-2.566136e-004
3.033527e+003,-2.129003e-004
3.035455e+003,-2.918459e-004
3.037384e+003,-3.974266e-004
3.039312e+003,-3.979562e-004
3.041241e+003,-3.955728e-004
3.043169e+003,-5.055630e-004
3.045098e+003,-5.541776e-004
3.047026e+003,-5.292587e-004
3.048955e+003,-4.699508e-004
3.050883e+003,-5.511662e-004
3.052812e+003,-6.507618e-004
3.054740e+003,-7.170578e-004
3.056669e+003,-7.266839e-004
3.058597e+003,-6.910567e-004
3.060526e+003,-7.354827e-004
3.062454e+003,-7.613489e-004
3.064383e+003,-8.478671e-004
3.066311e+003,-9.948027e-004
3.068240e+003,-9.620077e-004
3.070168e+003,-9.234572e-004
3.072097e+003,-8.913843e-004
3.074025e+003,-9.391622e-004
3.075954e+003,-9.789345e-004
3.077882e+003,-9.364180e-004
3.079811e+003,-8.645999e-004
3.081739e+003,-9.012379e-004
3.083668e+003,-1.032818e-003
3.085596e+003,-1.122918e-003
3.087525e+003,-1.191917e-003
3.089453e+003,-1.164854e-003
3.091382e+003,-1.192479e-003
3.093310e+003,-1.284428e-003
3.095239e+003,-1.348415e-003
3.097167e+003,-1.292258e-003
3.099096e+003,-1.188976e-003
3.101024e+003,-1.255818e-003
3.102953e+003,-1.337944e-003
3.104881e+003,-1.287897e-003
3.106810e+003,-1.242239e-003
3.108738e+003,-1.237250e-003
3.110667e+003,-1.231832e-003
3.112595e+003,-1.260047e-003
3.114524e+003,-1.389306e-003
3.116452e+003,-1.408660e-003
3.118381e+003,-1.380388e-003
3.120309e+003,-1.293315e-003
3.122238e+003,-1.226050e-003
3.124166e+003,-1.223935e-003
3.126095e+003,-1.176981e-003
3.128023e+003,-1.178237e-003
3.129952e+003,-1.338043e-003
3.131880e+003,-1.493266e-003
3.133809e+003,-1.715700e-003
3.135737e+003,-1.729462e-003
3.137666e+003,-1.518031e-003
3.139594e+003,-1.489006e-003
3.141523e+003,-1.523313e-003
3.143451e+003,-1.431250e-003
3.145380e+003,-1.355550e-003
3.147308e+003,-1.345838e-003
3.149237e+003,-1.485803e-003
3.151165e+003,-1.529224e-003
3.153094e+003,-1.373716e-003
3.155022e+003,-1.312707e-003
3.156951e+003,-1.657577e-003
3.158879e+003,-1.737779e-003
3.160808e+003,-1.544973e-003
3.162736e+003,-1.458362e-003
3.164665e+003,-1.563495e-003
3.166593e+003,-1.538766e-003
3.168522e+003,-1.424975e-003
3.170450e+003,-1.496172e-003
3.172379e+003,-1.502677e-003
3.174307e+003,-1.393170e-003
3.176236e+003,-1.304977e-003
3.178164e+003,-1.382271e-003
3.180093e+003,-1.435708e-003
3.182021e+003,-1.532294e-003
3.183950e+003,-1.539921e-003
3.185878e+003,-1.425800e-003
3.187807e+003,-1.361231e-003
3.189735e+003,-1.477812e-003
3.191664e+003,-1.737086e-003
3.193592e+003,-1.844592e-003
3.195521e+003,-1.616711e-003
3.197449e+003,-1.457272e-003
3.199378e+003,-1.481676e-003
3.201306e+003,-1.522686e-003
3.203235e+003,-1.549628e-003
3.205163e+003,-1.526813e-003
3.207092e+003,-1.502049e-003
3.209020e+003,-1.391056e-003
3.210948e+003,-1.300748e-003
3.212877e+003,-1.348943e-003
3.214806e+003,-1.314424e-003
3.216734e+003,-1.266060e-003
3.218663e+003,-1.308379e-003
3.220591e+003,-1.214981e-003
3.222520e+003,-1.183855e-003
3.224448e+003,-1.150347e-003
3.226376e+003,-1.127941e-003
3.228305e+003,-1.021083e-003
3.230234e+003,-8.566635e-004
3.232162e+003,-7.900910e-004
3.234091e+003,-7.741822e-004
3.236019e+003,-6.301827e-004
3.237948e+003,-5.298213e-004
3.239876e+003,-6.032830e-004
3.241804e+003,-6.247566e-004
3.243733e+003,-6.289255e-004
3.245662e+003,-6.262455e-004
3.247590e+003,-6.014301e-004
3.249519e+003,-5.448787e-004
3.251447e+003,-3.737237e-004
3.253375e+003,-2.614151e-004
3.255304e+003,-2.535670e-004
3.257232e+003,-1.815697e-004
3.259161e+003,-1.429167e-004
3.261090e+003,1.341949e-005
3.263018e+003,5.924770e-005
3.264947e+003,1.116631e-005
3.266875e+003,9.361375e-005
3.268803e+003,1.648068e-004
3.270732e+003,3.038792e-004
3.272660e+003,3.221823e-004
3.274589e+003,2.148280e-004
3.276518e+003,1.749830e-004
3.278446e+003,1.305677e-004
3.280375e+003,1.438587e-004
3.282303e+003,1.805849e-004
3.284231e+003,1.671934e-004
3.286160e+003,1.597023e-004
3.288088e+003,1.581444e-004
3.290017e+003,1.771707e-004
3.291946e+003,1.096751e-005
3.293874e+003,-5.191794e-005
3.295802e+003,-8.117081e-005
3.297731e+003,-1.996530e-004
3.299659e+003,-3.474702e-004
3.301588e+003,-3.399547e-004
3.303516e+003,-3.776632e-004
3.305445e+003,-5.128108e-004
3.307374e+003,-7.866844e-004
3.309302e+003,-8.820595e-004
3.311230e+003,-1.081770e-003
3.313159e+003,-1.214849e-003
3.315087e+003,-1.048189e-003
3.317016e+003,-1.101568e-003
3.318944e+003,-1.290705e-003
3.320873e+003,-1.362090e-003
3.322802e+003,-1.351322e-003
3.324730e+003,-1.338373e-003
3.326658e+003,-1.462325e-003
3.328587e+003,-1.536058e-003
3.330515e+003,-1.626582e-003
3.332444e+003,-1.737317e-003
3.334372e+003,-1.876298e-003
3.336301e+003,-2.011738e-003
3.338229e+003,-2.059921e-003
3.340158e+003,-2.078619e-003
3.342086e+003,-2.086467e-003
3.344015e+003,-1.967278e-003
3.345943e+003,-1.923605e-003
3.347872e+003,-1.934292e-003
3.349800e+003,-1.922681e-003
3.351729e+003,-2.047884e-003
3.353657e+003,-2.168337e-003
3.355586e+003,-2.290503e-003
3.357514e+003,-2.494541e-003
3.359443e+003,-2.522049e-003
3.361371e+003,-2.493191e-003
3.363300e+003,-2.511277e-003
3.365229e+003,-2.536247e-003
3.367157e+003,-2.623565e-003
3.369085e+003,-2.752320e-003
3.371014e+003,-2.866652e-003
3.372942e+003,-3.098254e-003
3.374871e+003,-3.164046e-003
3.376799e+003,-3.164408e-003
3.378728e+003,-3.304281e-003
3.380656e+003,-3.542354e-003
3.382585e+003,-3.665974e-003
3.384513e+003,-3.613040e-003
3.386442e+003,-3.608111e-003
3.388370e+003,-3.602887e-003
3.390299e+003,-3.700471e-003
3.392227e+003,-3.835212e-003
3.394156e+003,-3.847430e-003
3.396084e+003,-3.954153e-003
3.398013e+003,-3.978941e-003
3.399941e+003,-3.962853e-003
3.401870e+003,-4.082546e-003
3.403798e+003,-4.156886e-003
3.405727e+003,-4.146745e-003
3.407655e+003,-4.117568e-003
3.409584e+003,-4.069975e-003
3.411512e+003,-4.112087e-003
3.413441e+003,-4.169521e-003
3.415369e+003,-4.158429e-003
3.417298e+003,-4.066429e-003
3.419226e+003,-4.230032e-003
3.421155e+003,-4.345256e-003
3.423083e+003,-4.186061e-003
3.425012e+003,-4.111299e-003
3.426940e+003,-4.235971e-003
3.428869e+003,-4.271079e-003
3.430797e+003,-4.085106e-003
3.432726e+003,-4.089045e-003
3.434654e+003,-4.268520e-003
3.436583e+003,-4.181827e-003
3.438511e+003,-4.189244e-003
3.440440e+003,-4.398199e-003
3.442368e+003,-4.412565e-003
3.444297e+003,-4.457858e-003
3.446225e+003,-4.595840e-003
3.448154e+003,-4.511509e-003
3.450082e+003,-4.547709e-003
3.452011e+003,-4.658619e-003
3.453939e+003,-4.666323e-003
3.455868e+003,-4.639869e-003
3.457796e+003,-4.632952e-003
3.459725e+003,-4.603348e-003
3.461653e+003,-4.620625e-003
3.463582e+003,-4.637377e-003
3.465510e+003,-4.739383e-003
3.467439e+003,-4.778252e-003
3.469367e+003,-4.672977e-003
3.471296e+003,-4.682745e-003
3.473224e+003,-4.761112e-003
3.475153e+003,-4.798439e-003
3.477081e+003,-4.829602e-003
3.479010e+003,-4.904961e-003
3.480938e+003,-4.896738e-003
3.482867e+003,-4.742104e-003
3.484795e+003,-4.838842e-003
3.486724e+003,-4.995636e-003
3.488652e+003,-4.671371e-003
3.490581e+003,-4.485373e-003
3.492509e+003,-4.622166e-003
3.494438e+003,-4.693595e-003
3.496366e+003,-4.769928e-003
3.498295e+003,-4.795719e-003
3.500223e+003,-4.846247e-003
3.502152e+003,-4.859059e-003
3.504080e+003,-4.687400e-003
3.506009e+003,-4.461761e-003
3.507937e+003,-4.579283e-003
3.509866e+003,-4.584562e-003
3.511794e+003,-4.597250e-003
3.513723e+003,-4.743480e-003
3.515651e+003,-4.868462e-003
3.517580e+003,-4.725257e-003
3.519508e+003,-4.701855e-003
3.521437e+003,-4.913773e-003
3.523365e+003,-4.865284e-003
3.525294e+003,-4.722864e-003
3.527222e+003,-4.895132e-003
3.529151e+003,-4.926386e-003
3.531079e+003,-4.874982e-003
3.533008e+003,-4.865612e-003
3.534936e+003,-4.866890e-003
3.536865e+003,-4.781693e-003
3.538793e+003,-4.831600e-003
3.540722e+003,-4.950989e-003
3.542650e+003,-4.938868e-003
3.544579e+003,-4.987349e-003
3.546507e+003,-5.093006e-003
3.548436e+003,-4.874655e-003
3.550364e+003,-4.688219e-003
3.552293e+003,-4.728961e-003
3.554221e+003,-4.777302e-003
3.556150e+003,-4.871804e-003
3.558078e+003,-4.950170e-003
3.560007e+003,-4.814201e-003
3.561935e+003,-4.783135e-003
3.563864e+003,-4.942537e-003
3.565792e+003,-5.331148e-003
3.567721e+003,-5.394279e-003
3.569649e+003,-5.116715e-003
3.571578e+003,-4.829012e-003
3.573506e+003,-4.666061e-003
3.575435e+003,-4.689825e-003
3.577363e+003,-4.826194e-003
3.579292e+003,-4.849885e-003
3.581220e+003,-4.658357e-003
3.583149e+003,-4.678025e-003
3.585077e+003,-4.942177e-003
3.587006e+003,-5.243783e-003
3.588934e+003,-5.262606e-003
3.590863e+003,-4.912496e-003
3.592791e+003,-4.721357e-003
3.594720e+003,-4.860730e-003
3.596648e+003,-5.016402e-003
3.598577e+003,-4.952987e-003
3.600505e+003,-4.949711e-003
3.602434e+003,-4.869150e-003
3.604362e+003,-4.832387e-003
3.606291e+003,-5.154011e-003
3.608219e+003,-5.247253e-003
3.610148e+003,-4.798537e-003
3.612076e+003,-4.880389e-003
3.614005e+003,-5.075912e-003
3.615933e+003,-5.074831e-003
3.617862e+003,-5.253899e-003
3.619790e+003,-5.063074e-003
3.621719e+003,-4.669896e-003
3.623647e+003,-4.760752e-003
3.625576e+003,-4.919867e-003
3.627504e+003,-5.613089e-003
3.629433e+003,-5.744361e-003
3.631361e+003,-5.104403e-003
3.633290e+003,-4.954789e-003
3.635218e+003,-4.843659e-003
3.637146e+003,-4.705395e-003
3.639075e+003,-4.748757e-003
3.641004e+003,-4.693005e-003
3.642932e+003,-4.732369e-003
3.644861e+003,-5.022069e-003
3.646789e+003,-5.717515e-003
3.648718e+003,-6.188934e-003
3.650646e+003,-5.752177e-003
3.652574e+003,-5.179026e-003
3.654503e+003,-5.343291e-003
3.656432e+003,-5.189798e-003
3.658360e+003,-4.767765e-003
3.660289e+003,-4.935723e-003
3.662217e+003,-5.229183e-003
3.664146e+003,-5.201682e-003
3.666074e+003,-5.212126e-003
3.668002e+003,-5.523687e-003
3.669931e+003,-5.726279e-003
3.671860e+003,-5.513349e-003
3.673788e+003,-6.102983e-003
3.675717e+003,-6.071127e-003
3.677645e+003,-5.252589e-003
3.679573e+003,-5.186884e-003
3.681502e+003,-5.132859e-003
3.683430e+003,-5.175163e-003
3.685359e+003,-5.150606e-003
3.687288e+003,-5.500001e-003
3.689216e+003,-5.673171e-003
3.691145e+003,-5.584239e-003
3.693073e+003,-5.352716e-003
3.695001e+003,-5.123592e-003
3.696930e+003,-5.112196e-003
3.698858e+003,-5.131483e-003
3.700787e+003,-5.479912e-003
3.702716e+003,-5.492607e-003
3.704644e+003,-5.150409e-003
3.706573e+003,-5.067233e-003
3.708501e+003,-5.410969e-003
3.710429e+003,-6.028224e-003
3.712358e+003,-5.903019e-003
3.714286e+003,-5.034580e-003
3.716215e+003,-4.677796e-003
3.718144e+003,-4.520362e-003
3.720072e+003,-4.560070e-003
3.722000e+003,-4.716867e-003
3.723929e+003,-4.992459e-003
3.725857e+003,-5.171299e-003
3.727786e+003,-4.940965e-003
3.729714e+003,-4.919310e-003
3.731643e+003,-5.428737e-003
3.733572e+003,-5.617472e-003
3.735500e+003,-5.524211e-003
3.737428e+003,-5.051971e-003
3.739357e+003,-4.952102e-003
3.741285e+003,-5.237007e-003
3.743214e+003,-6.053810e-003
3.745142e+003,-5.522608e-003
3.747071e+003,-4.879373e-003
3.749000e+003,-5.393428e-003
3.750928e+003,-5.694068e-003
3.752856e+003,-5.263916e-003
3.754785e+003,-4.507803e-003
3.756713e+003,-4.340434e-003
3.758642e+003,-4.332528e-003
3.760570e+003,-4.384816e-003
3.762499e+003,-4.227899e-003
3.764427e+003,-4.152062e-003
3.766356e+003,-4.228589e-003
3.768284e+003,-4.620068e-003
3.770213e+003,-4.532265e-003
3.772141e+003,-3.819415e-003
3.774070e+003,-3.617016e-003
3.775998e+003,-3.958388e-003
3.777927e+003,-4.453300e-003
3.779855e+003,-4.365331e-003
3.781784e+003,-3.908544e-003
3.783712e+003,-4.045716e-003
3.785641e+003,-4.119373e-003
3.787569e+003,-3.991745e-003
3.789498e+003,-3.815703e-003
3.791426e+003,-3.773201e-003
3.793355e+003,-3.727902e-003
3.795283e+003,-3.811499e-003
3.797212e+003,-3.901648e-003
3.799140e+003,-4.195807e-003
3.801069e+003,-4.690284e-003
3.802997e+003,-4.399740e-003
3.804926e+003,-4.415123e-003
3.806854e+003,-4.512590e-003
3.808783e+003,-3.976216e-003
3.810711e+003,-3.844901e-003
3.812640e+003,-4.045979e-003
3.814568e+003,-4.658685e-003
3.816497e+003,-4.675632e-003
3.818425e+003,-4.572792e-003
3.820354e+003,-5.067233e-003
3.822282e+003,-4.619970e-003
3.824211e+003,-4.143923e-003
3.826139e+003,-4.233051e-003
3.828068e+003,-4.288731e-003
3.829996e+003,-4.397739e-003
3.831925e+003,-4.342500e-003
3.833853e+003,-4.294702e-003
3.835782e+003,-4.581545e-003
3.837710e+003,-4.761669e-003
3.839639e+003,-4.516690e-003
3.841567e+003,-4.374057e-003
3.843496e+003,-4.232264e-003
3.845424e+003,-3.808412e-003
3.847353e+003,-3.815703e-003
3.849281e+003,-4.196332e-003
3.851210e+003,-4.956263e-003
3.853138e+003,-5.844702e-003
3.855067e+003,-4.929892e-003
3.856995e+003,-3.867331e-003
3.858924e+003,-3.490588e-003
3.860852e+003,-3.789493e-003
3.862781e+003,-4.177036e-003
3.864709e+003,-4.177561e-003
3.866638e+003,-4.083465e-003
3.868566e+003,-4.471337e-003
3.870495e+003,-4.412696e-003
3.872423e+003,-4.233248e-003
3.874352e+003,-4.006486e-003
3.876280e+003,-3.702015e-003
3.878209e+003,-4.079526e-003
3.880137e+003,-4.219959e-003
3.882066e+003,-3.836428e-003
3.883994e+003,-4.012100e-003
3.885923e+003,-4.208638e-003
3.887851e+003,-3.906377e-003
3.889780e+003,-4.016827e-003
3.891708e+003,-4.078542e-003
3.893637e+003,-3.893307e-003
3.895565e+003,-3.773168e-003
3.897494e+003,-3.965907e-003
3.899422e+003,-4.279249e-003
3.901351e+003,-4.430473e-003
3.903279e+003,-4.240007e-003
3.905208e+003,-3.426029e-003
3.907136e+003,-3.174210e-003
3.909065e+003,-3.409625e-003
3.910993e+003,-3.565819e-003
3.912922e+003,-3.658910e-003
3.914850e+003,-3.789493e-003
3.916779e+003,-3.920693e-003
3.918707e+003,-3.641923e-003
3.920636e+003,-3.335880e-003
3.922564e+003,-3.457521e-003
3.924493e+003,-3.740122e-003
3.926421e+003,-3.434872e-003
3.928350e+003,-3.340385e-003
3.930278e+003,-3.609919e-003
3.932207e+003,-3.629897e-003
3.934135e+003,-3.401209e-003
3.936064e+003,-3.202990e-003
3.937992e+003,-3.209206e-003
3.939921e+003,-3.351893e-003
3.941849e+003,-3.402688e-003
3.943778e+003,-3.364683e-003
3.945706e+003,-3.557866e-003
3.947635e+003,-3.709374e-003
3.949563e+003,-3.641200e-003
3.951492e+003,-3.607881e-003
3.953420e+003,-3.390722e-003
3.955349e+003,-3.443846e-003
3.957277e+003,-3.529963e-003
3.959206e+003,-3.255250e-003
3.961134e+003,-3.129901e-003
3.963063e+003,-3.417186e-003
3.964991e+003,-3.461005e-003
3.966920e+003,-3.256532e-003
3.968848e+003,-3.202891e-003
3.970777e+003,-3.273337e-003
3.972705e+003,-3.202727e-003
3.974634e+003,-3.368957e-003
3.976562e+003,-3.310693e-003
3.978491e+003,-3.106577e-003
3.980419e+003,-3.115097e-003
3.982348e+003,-3.478460e-003
3.984276e+003,-3.667682e-003
3.986205e+003,-3.528024e-003
3.988133e+003,-3.218218e-003
3.990062e+003,-3.191544e-003
3.991990e+003,-3.336176e-003
3.993919e+003,-3.338346e-003
3.995847e+003,-3.183518e-003
3.997776e+003,-3.131907e-003
3.999704e+003,-3.248048e-003
4.001633e+003,0.000000e+000
