3.991989e+002,2.094067e-002
4.011274e+002,2.506436e-002
4.030559e+002,1.309131e-002
4.049844e+002,3.088812e-003
4.069129e+002,9.955033e-003
4.088414e+002,1.583398e-002
4.107699e+002,9.197096e-003
4.126984e+002,6.875173e-003
4.146269e+002,1.179211e-002
4.165554e+002,1.620538e-002
4.184839e+002,1.468440e-002
4.204124e+002,1.664033e-002
4.223409e+002,1.823892e-002
4.242694e+002,1.542568e-002
4.261979e+002,8.153037e-003
4.281264e+002,1.353727e-002
4.300549e+002,1.702899e-002
4.319834e+002,1.334849e-002
4.339119e+002,1.479909e-002
4.358404e+002,1.523422e-002
4.377689e+002,1.298222e-002
4.396974e+002,6.905471e-003
4.416259e+002,2.183147e-003
4.435544e+002,6.155488e-003
4.454829e+002,7.260682e-003
4.474114e+002,9.408092e-003
4.493399e+002,1.117737e-002
4.512684e+002,1.004054e-002
4.531969e+002,1.028018e-002
4.551254e+002,1.042789e-002
4.570539e+002,9.820157e-003
4.589824e+002,7.579227e-003
4.609109e+002,5.569475e-003
4.628394e+002,7.212908e-003
4.647679e+002,6.560641e-003
4.666964e+002,6.886618e-003
4.686249e+002,8.488693e-003
4.705533e+002,9.812023e-003
4.724819e+002,9.194728e-003
4.744103e+002,9.486925e-003
4.763389e+002,9.831442e-003
4.782673e+002,7.181376e-003
4.801959e+002,6.808627e-003
4.821243e+002,8.184370e-003
4.840529e+002,7.369185e-003
4.859813e+002,5.850812e-003
4.879099e+002,7.270554e-003
4.898383e+002,7.820542e-003
4.917668e+002,5.870929e-003
4.936953e+002,5.205282e-003
4.956238e+002,6.580926e-003
4.975523e+002,7.155944e-003
4.994808e+002,5.609012e-003
5.014093e+002,5.507255e-003
5.033378e+002,7.104982e-003
5.052663e+002,9.577085e-003
5.071948e+002,8.393050e-003
5.091233e+002,4.385322e-003
5.110518e+002,3.905088e-003
5.129803e+002,5.094434e-003
5.149088e+002,5.536518e-003
5.168373e+002,4.746717e-003
5.187658e+002,4.567339e-003
5.206943e+002,4.762228e-003
5.226228e+002,4.692856e-003
5.245513e+002,5.048339e-003
5.264798e+002,5.096747e-003
5.284083e+002,4.809096e-003
5.303368e+002,4.752848e-003
5.322653e+002,4.733486e-003
5.341938e+002,5.186939e-003
5.361223e+002,4.680195e-003
5.380508e+002,4.580398e-003
5.399792e+002,4.839920e-003
5.419078e+002,5.708778e-003
5.438363e+002,5.970353e-003
5.457648e+002,6.396450e-003
5.476932e+002,6.436466e-003
5.496218e+002,6.303922e-003
5.515503e+002,6.839155e-003
5.534788e+002,6.363094e-003
5.554072e+002,5.524303e-003
5.573358e+002,5.490008e-003
5.592643e+002,6.013185e-003
5.611927e+002,7.285716e-003
5.631212e+002,8.675717e-003
5.650497e+002,8.684336e-003
5.669783e+002,7.997794e-003
5.689067e+002,7.690374e-003
5.708352e+002,6.625366e-003
5.727637e+002,6.515030e-003
5.746923e+002,5.494705e-003
5.766207e+002,3.431095e-003
5.785492e+002,5.764176e-003
5.804777e+002,1.544175e-002
5.824063e+002,1.343709e-002
5.843347e+002,6.342820e-003
5.862632e+002,5.521786e-003
5.881917e+002,6.235009e-003
5.901202e+002,8.196930e-003
5.920487e+002,9.174016e-003
5.939772e+002,1.053624e-002
5.959057e+002,1.084262e-002
5.978342e+002,1.116935e-002
5.997627e+002,1.223023e-002
6.016912e+002,1.379506e-002
6.036197e+002,1.550795e-002
6.055482e+002,1.741563e-002
6.074767e+002,1.758707e-002
6.094052e+002,1.727665e-002
6.113337e+002,1.603502e-002
6.132622e+002,1.531789e-002
6.151907e+002,1.597706e-002
6.171192e+002,1.580168e-002
6.190477e+002,1.462700e-002
6.209762e+002,1.452972e-002
6.229047e+002,1.404464e-002
6.248332e+002,1.213656e-002
6.267617e+002,9.041919e-003
6.286902e+002,6.087674e-003
6.306187e+002,4.873259e-003
6.325472e+002,4.365676e-003
6.344756e+002,4.186788e-003
6.364042e+002,3.964369e-003
6.383326e+002,3.518871e-003
6.402612e+002,3.474480e-003
6.421896e+002,3.628449e-003
6.441182e+002,3.867043e-003
6.460466e+002,3.641078e-003
6.479752e+002,3.453539e-003
6.499036e+002,3.249821e-003
6.518322e+002,2.964158e-003
6.537606e+002,2.898442e-003
6.556891e+002,2.266374e-003
6.576177e+002,1.563457e-003
6.595461e+002,1.301864e-003
6.614746e+002,1.603264e-003
6.634031e+002,1.701082e-003
6.653317e+002,2.052227e-003
6.672601e+002,1.757335e-003
6.691886e+002,1.322968e-003
6.711171e+002,1.508493e-003
6.730457e+002,1.874289e-003
6.749741e+002,1.998332e-003
6.769026e+002,2.031553e-003
6.788311e+002,1.906536e-003
6.807596e+002,2.125573e-003
6.826881e+002,2.253884e-003
6.846166e+002,1.870263e-003
6.865451e+002,2.466464e-003
6.884736e+002,3.106466e-003
6.904021e+002,3.090814e-003
6.923306e+002,3.367813e-003
6.942591e+002,3.538346e-003
6.961876e+002,3.172013e-003
6.981161e+002,2.906948e-003
7.000446e+002,3.137937e-003
7.019731e+002,3.708678e-003
7.039016e+002,3.967212e-003
7.058301e+002,3.664736e-003
7.077585e+002,4.035598e-003
7.096871e+002,4.607957e-003
7.116156e+002,5.234892e-003
7.135441e+002,5.283522e-003
7.154725e+002,4.752647e-003
7.174011e+002,4.323340e-003
7.193296e+002,4.719384e-003
7.212581e+002,5.055111e-003
7.231865e+002,5.370801e-003
7.251151e+002,5.771093e-003
7.270436e+002,5.849637e-003
7.289720e+002,5.895750e-003
7.309005e+002,5.947477e-003
7.328290e+002,6.062171e-003
7.347576e+002,6.509615e-003
7.366860e+002,7.311695e-003
7.386145e+002,7.727171e-003
7.405430e+002,7.612845e-003
7.424716e+002,7.132668e-003
7.444000e+002,6.959540e-003
7.463285e+002,7.241477e-003
7.482570e+002,7.065409e-003
7.501855e+002,7.320288e-003
7.521140e+002,7.698434e-003
7.540425e+002,8.220431e-003
7.559710e+002,8.350894e-003
7.578995e+002,8.027090e-003
7.598280e+002,7.859847e-003
7.617565e+002,7.778138e-003
7.636850e+002,7.888424e-003
7.656135e+002,8.398218e-003
7.675420e+002,8.480416e-003
7.694705e+002,8.560972e-003
7.713990e+002,8.276657e-003
7.733275e+002,8.067358e-003
7.752560e+002,8.176773e-003
7.771844e+002,8.009573e-003
7.791130e+002,7.511562e-003
7.810415e+002,7.263612e-003
7.829700e+002,7.562875e-003
7.848984e+002,7.901010e-003
7.868270e+002,7.549658e-003
7.887555e+002,7.117612e-003
7.906840e+002,6.977621e-003
7.926124e+002,6.448539e-003
7.945410e+002,6.068354e-003
7.964695e+002,5.965985e-003
7.983979e+002,5.917347e-003
8.003264e+002,5.663524e-003
8.022549e+002,5.257597e-003
8.041835e+002,5.358221e-003
8.061119e+002,6.076317e-003
8.080404e+002,6.951224e-003
8.099689e+002,7.084538e-003
8.118975e+002,6.955331e-003
8.138259e+002,7.022742e-003
8.157545e+002,7.500066e-003
8.176830e+002,7.314526e-003
8.196115e+002,7.056047e-003
8.215399e+002,7.120037e-003
8.234684e+002,7.565336e-003
8.253970e+002,7.129637e-003
8.273254e+002,6.422510e-003
8.292539e+002,6.174712e-003
8.311824e+002,5.802623e-003
8.331110e+002,5.886782e-003
8.350394e+002,6.011707e-003
8.369679e+002,6.055417e-003
8.388964e+002,6.130250e-003
8.408250e+002,6.069832e-003
8.427534e+002,6.161873e-003
8.446819e+002,6.462226e-003
8.466104e+002,6.370390e-003
8.485389e+002,6.222875e-003
8.504674e+002,6.090833e-003
8.523959e+002,5.962357e-003
8.543244e+002,5.714418e-003
8.562529e+002,5.867202e-003
8.581814e+002,6.096512e-003
8.601099e+002,6.282070e-003
8.620384e+002,6.320832e-003
8.639669e+002,5.881946e-003
8.658954e+002,5.567159e-003
8.678239e+002,5.653051e-003
8.697524e+002,5.743292e-003
8.716809e+002,5.622774e-003
8.736094e+002,5.565481e-003
8.755378e+002,5.595251e-003
8.774664e+002,5.575180e-003
8.793949e+002,5.825324e-003
8.813234e+002,5.961585e-003
8.832518e+002,5.904281e-003
8.851804e+002,5.775861e-003
8.871089e+002,5.629890e-003
8.890374e+002,5.858772e-003
8.909658e+002,5.869015e-003
8.928943e+002,6.351091e-003
8.948229e+002,6.615744e-003
8.967513e+002,6.507731e-003
8.986798e+002,6.441712e-003
9.006083e+002,6.165872e-003
9.025369e+002,5.919026e-003
9.044653e+002,6.081424e-003
9.063938e+002,6.046111e-003
9.083223e+002,5.980867e-003
9.102509e+002,5.993163e-003
9.121793e+002,5.693838e-003
9.141078e+002,5.170643e-003
9.160364e+002,4.880027e-003
9.179648e+002,4.763434e-003
9.198933e+002,4.825178e-003
9.218218e+002,4.716939e-003
9.237504e+002,4.425120e-003
9.256788e+002,3.960557e-003
9.276073e+002,3.796510e-003
9.295358e+002,4.191673e-003
9.314644e+002,3.995836e-003
9.333928e+002,3.525585e-003
9.353213e+002,3.602622e-003
9.372498e+002,3.706840e-003
9.391783e+002,3.430294e-003
9.411068e+002,3.202955e-003
9.430353e+002,3.312386e-003
9.449637e+002,3.461153e-003
9.468923e+002,3.566708e-003
9.488208e+002,3.860123e-003
9.507493e+002,4.120084e-003
9.526777e+002,4.090415e-003
9.546063e+002,4.097272e-003
9.565348e+002,4.410057e-003
9.584633e+002,4.769095e-003
9.603917e+002,4.705182e-003
9.623203e+002,4.500040e-003
9.642488e+002,4.362563e-003
9.661772e+002,4.363668e-003
9.681057e+002,4.725413e-003
9.700343e+002,4.724777e-003
9.719628e+002,4.242093e-003
9.738912e+002,3.802894e-003
9.758197e+002,3.703632e-003
9.777483e+002,3.772746e-003
9.796768e+002,3.848523e-003
9.816052e+002,3.670784e-003
9.835337e+002,3.441682e-003
9.854623e+002,3.066555e-003
9.873907e+002,2.747066e-003
9.893192e+002,2.677115e-003
9.912477e+002,2.669581e-003
9.931763e+002,2.544846e-003
9.951047e+002,2.453102e-003
9.970332e+002,2.514518e-003
9.989617e+002,2.438874e-003
1.000890e+003,2.304479e-003
1.002819e+003,2.436941e-003
1.004747e+003,2.607742e-003
1.006676e+003,2.592342e-003
1.008604e+003,2.589842e-003
1.010533e+003,2.509019e-003
1.012461e+003,2.500655e-003
1.014390e+003,2.709088e-003
1.016318e+003,2.748600e-003
1.018247e+003,3.182227e-003
1.020175e+003,3.531865e-003
1.022104e+003,3.691034e-003
1.024032e+003,4.093726e-003
1.025961e+003,4.324310e-003
1.027889e+003,4.317985e-003
1.029818e+003,4.538275e-003
1.031746e+003,4.942123e-003
1.033675e+003,5.494202e-003
1.035603e+003,6.083205e-003
1.037532e+003,6.211716e-003
1.039460e+003,6.370357e-003
1.041389e+003,6.856356e-003
1.043317e+003,7.063860e-003
1.045246e+003,7.052848e-003
1.047174e+003,7.206002e-003
1.049103e+003,7.220623e-003
1.051031e+003,7.278741e-003
1.052960e+003,7.533576e-003
1.054888e+003,7.622489e-003
1.056817e+003,7.411651e-003
1.058745e+003,7.516686e-003
1.060674e+003,7.596221e-003
1.062602e+003,7.572080e-003
1.064531e+003,7.646870e-003
1.066459e+003,7.584420e-003
1.068388e+003,7.594164e-003
1.070316e+003,7.588129e-003
1.072245e+003,7.610113e-003
1.074173e+003,7.591029e-003
1.076102e+003,7.498044e-003
1.078030e+003,7.362074e-003
1.079959e+003,7.521237e-003
1.081887e+003,7.804282e-003
1.083816e+003,7.915992e-003
1.085744e+003,8.046667e-003
1.087673e+003,8.183526e-003
1.089601e+003,8.079747e-003
1.091530e+003,8.119885e-003
1.093458e+003,8.452914e-003
1.095387e+003,8.691165e-003
1.097315e+003,8.987793e-003
1.099244e+003,9.041851e-003
1.101172e+003,9.183357e-003
1.103101e+003,9.321894e-003
1.105029e+003,9.047129e-003
1.106958e+003,8.971421e-003
1.108886e+003,9.124374e-003
1.110815e+003,8.997738e-003
1.112743e+003,8.973282e-003
1.114672e+003,9.034037e-003
1.116600e+003,9.287569e-003
1.118529e+003,9.307371e-003
1.120457e+003,9.103801e-003
1.122386e+003,9.294610e-003
1.124314e+003,9.399153e-003
1.126243e+003,9.059681e-003
1.128171e+003,8.859337e-003
1.130100e+003,8.891397e-003
1.132028e+003,8.737343e-003
1.133957e+003,8.538432e-003
1.135885e+003,8.375653e-003
1.137814e+003,8.201320e-003
1.139742e+003,7.794937e-003
1.141671e+003,7.422166e-003
1.143599e+003,7.117141e-003
1.145528e+003,6.744278e-003
1.147456e+003,6.350116e-003
1.149385e+003,6.078232e-003
1.151313e+003,5.806518e-003
1.153242e+003,5.692965e-003
1.155170e+003,5.426559e-003
1.157099e+003,5.200553e-003
1.159027e+003,5.050183e-003
1.160956e+003,4.927712e-003
1.162884e+003,4.798609e-003
1.164813e+003,4.692018e-003
1.166741e+003,4.732112e-003
1.168670e+003,4.819113e-003
1.170598e+003,4.878117e-003
1.172526e+003,4.861766e-003
1.174455e+003,4.832314e-003
1.176384e+003,4.727657e-003
1.178312e+003,4.602298e-003
1.180240e+003,4.569113e-003
1.182169e+003,4.436702e-003
1.184098e+003,4.403129e-003
1.186026e+003,4.375884e-003
1.187954e+003,4.092555e-003
1.189883e+003,3.553144e-003
1.191812e+003,3.328412e-003
1.193740e+003,3.489443e-003
1.195668e+003,3.433466e-003
1.197597e+003,3.432197e-003
1.199526e+003,3.438209e-003
1.201454e+003,3.147382e-003
1.203382e+003,3.016271e-003
1.205311e+003,2.960488e-003
1.207240e+003,2.767206e-003
1.209168e+003,2.968762e-003
1.211096e+003,3.023278e-003
1.213025e+003,2.942807e-003
1.214953e+003,2.937070e-003
1.216882e+003,2.895773e-003
1.218810e+003,2.831968e-003
1.220739e+003,2.893172e-003
1.222667e+003,3.077066e-003
1.224596e+003,3.290150e-003
1.226524e+003,3.361468e-003
1.228453e+003,3.438142e-003
1.230381e+003,3.678369e-003
1.232310e+003,3.913748e-003
1.234238e+003,4.081016e-003
1.236167e+003,4.144436e-003
1.238095e+003,4.161531e-003
1.240024e+003,4.259024e-003
1.241952e+003,4.401589e-003
1.243881e+003,4.369022e-003
1.245809e+003,4.354598e-003
1.247738e+003,4.365241e-003
1.249666e+003,4.403698e-003
1.251595e+003,4.535630e-003
1.253523e+003,4.663416e-003
1.255452e+003,4.725447e-003
1.257380e+003,4.901942e-003
1.259309e+003,4.985726e-003
1.261237e+003,4.928718e-003
1.263166e+003,5.113476e-003
1.265094e+003,5.281779e-003
1.267023e+003,5.451421e-003
1.268951e+003,5.741647e-003
1.270880e+003,6.039324e-003
1.272808e+003,6.310982e-003
1.274737e+003,6.512238e-003
1.276665e+003,6.810377e-003
1.278594e+003,7.134824e-003
1.280522e+003,7.253235e-003
1.282451e+003,7.409224e-003
1.284379e+003,7.658639e-003
1.286308e+003,8.126164e-003
1.288236e+003,8.375721e-003
1.290165e+003,8.464874e-003
1.292093e+003,8.690049e-003
1.294022e+003,8.782140e-003
1.295950e+003,8.877633e-003
1.297879e+003,9.018204e-003
1.299807e+003,9.117505e-003
1.301736e+003,9.047772e-003
1.303664e+003,8.925826e-003
1.305593e+003,8.929344e-003
1.307521e+003,8.802258e-003
1.309450e+003,8.538196e-003
1.311378e+003,8.279934e-003
1.313307e+003,8.180217e-003
1.315235e+003,8.020306e-003
1.317164e+003,7.770717e-003
1.319092e+003,7.478424e-003
1.321021e+003,7.079958e-003
1.322949e+003,6.830976e-003
1.324878e+003,6.784057e-003
1.326806e+003,6.805766e-003
1.328735e+003,6.897324e-003
1.330663e+003,6.878001e-003
1.332592e+003,6.782745e-003
1.334520e+003,6.729640e-003
1.336449e+003,6.783351e-003
1.338377e+003,6.787558e-003
1.340306e+003,6.847234e-003
1.342234e+003,7.125224e-003
1.344163e+003,7.291006e-003
1.346091e+003,7.337811e-003
1.348020e+003,7.517765e-003
1.349948e+003,7.545983e-003
1.351877e+003,7.442256e-003
1.353805e+003,7.311830e-003
1.355734e+003,7.157224e-003
1.357662e+003,6.989776e-003
1.359591e+003,6.849287e-003
1.361519e+003,6.603734e-003
1.363448e+003,6.399308e-003
1.365376e+003,6.238606e-003
1.367305e+003,6.064859e-003
1.369233e+003,5.948484e-003
1.371162e+003,5.743460e-003
1.373090e+003,5.775290e-003
1.375019e+003,5.933906e-003
1.376947e+003,6.042415e-003
1.378876e+003,6.155354e-003
1.380804e+003,6.265229e-003
1.382733e+003,6.292996e-003
1.384661e+003,6.266103e-003
1.386590e+003,6.137508e-003
1.388518e+003,5.968001e-003
1.390447e+003,5.865556e-003
1.392375e+003,5.606629e-003
1.394304e+003,5.333701e-003
1.396232e+003,5.202968e-003
1.398161e+003,5.203538e-003
1.400089e+003,5.211821e-003
1.402018e+003,5.038987e-003
1.403946e+003,4.894168e-003
1.405875e+003,4.793785e-003
1.407803e+003,4.517986e-003
1.409732e+003,4.325180e-003
1.411660e+003,4.242294e-003
1.413589e+003,4.163872e-003
1.415517e+003,4.199100e-003
1.417446e+003,4.388033e-003
1.419374e+003,4.740989e-003
1.421303e+003,5.208836e-003
1.423231e+003,5.644424e-003
1.425160e+003,6.194306e-003
1.427088e+003,6.646831e-003
1.429017e+003,7.039074e-003
1.430945e+003,7.407303e-003
1.432874e+003,7.643767e-003
1.434802e+003,8.031714e-003
1.436731e+003,8.466867e-003
1.438659e+003,8.889300e-003
1.440588e+003,9.163423e-003
1.442516e+003,9.544162e-003
1.444445e+003,1.004855e-002
1.446373e+003,1.050351e-002
1.448302e+003,1.090537e-002
1.450230e+003,1.125972e-002
1.452159e+003,1.170925e-002
1.454087e+003,1.218583e-002
1.456016e+003,1.234179e-002
1.457944e+003,1.256919e-002
1.459873e+003,1.270404e-002
1.461801e+003,1.264574e-002
1.463730e+003,1.252649e-002
1.465658e+003,1.237435e-002
1.467587e+003,1.200594e-002
1.469515e+003,1.161007e-002
1.471444e+003,1.133396e-002
1.473372e+003,1.093993e-002
1.475301e+003,1.062478e-002
1.477229e+003,1.018068e-002
1.479158e+003,9.637213e-003
1.481086e+003,8.965197e-003
1.483015e+003,8.432711e-003
1.484943e+003,8.093012e-003
1.486872e+003,7.674557e-003
1.488800e+003,7.224767e-003
1.490729e+003,6.826499e-003
1.492657e+003,6.504502e-003
1.494586e+003,6.342215e-003
1.496514e+003,6.148666e-003
1.498443e+003,5.850645e-003
1.500371e+003,5.606528e-003
1.502300e+003,5.424479e-003
1.504228e+003,5.254545e-003
1.506157e+003,5.044920e-003
1.508085e+003,4.944435e-003
1.510014e+003,4.932036e-003
1.511942e+003,4.902545e-003
1.513871e+003,4.850306e-003
1.515799e+003,4.687329e-003
1.517728e+003,4.852652e-003
1.519656e+003,5.009221e-003
1.521585e+003,4.951306e-003
1.523513e+003,5.163333e-003
1.525442e+003,5.448132e-003
1.527370e+003,5.541787e-003
1.529299e+003,5.569542e-003
1.531227e+003,5.617907e-003
1.533156e+003,5.841644e-003
1.535084e+003,6.203885e-003
1.537013e+003,6.379873e-003
1.538941e+003,6.561819e-003
1.540870e+003,6.775913e-003
1.542798e+003,6.902912e-003
1.544727e+003,7.227697e-003
1.546655e+003,7.528924e-003
1.548584e+003,7.679818e-003
1.550512e+003,7.863929e-003
1.552441e+003,7.922809e-003
1.554369e+003,8.066345e-003
1.556298e+003,8.184606e-003
1.558226e+003,8.273449e-003
1.560155e+003,8.634547e-003
1.562083e+003,9.089455e-003
1.564012e+003,9.488855e-003
1.565940e+003,9.730488e-003
1.567869e+003,9.876183e-003
1.569797e+003,1.002691e-002
1.571726e+003,1.007591e-002
1.573654e+003,1.003335e-002
1.575583e+003,1.004604e-002
1.577511e+003,9.974494e-003
1.579440e+003,9.851101e-003
1.581368e+003,9.885200e-003
1.583297e+003,9.674345e-003
1.585225e+003,9.425056e-003
1.587154e+003,9.316004e-003
1.589082e+003,9.207656e-003
1.591010e+003,9.040533e-003
1.592939e+003,8.804963e-003
1.594868e+003,8.591624e-003
1.596796e+003,8.434636e-003
1.598724e+003,8.342956e-003
1.600653e+003,8.128426e-003
1.602582e+003,7.871284e-003
1.604510e+003,7.658066e-003
1.606438e+003,7.438210e-003
1.608367e+003,7.100132e-003
1.610296e+003,6.912372e-003
1.612224e+003,6.725871e-003
1.614152e+003,6.515871e-003
1.616081e+003,6.285936e-003
1.618010e+003,6.199751e-003
1.619938e+003,6.031428e-003
1.621866e+003,5.889100e-003
1.623795e+003,5.741982e-003
1.625724e+003,5.753600e-003
1.627652e+003,5.742520e-003
1.629580e+003,5.551754e-003
1.631509e+003,5.302641e-003
1.633438e+003,5.237576e-003
1.635366e+003,5.226844e-003
1.637294e+003,5.020920e-003
1.639223e+003,4.687899e-003
1.641151e+003,4.374645e-003
1.643080e+003,4.034495e-003
1.645008e+003,3.764390e-003
1.646937e+003,3.558757e-003
1.648865e+003,3.355224e-003
1.650794e+003,3.191839e-003
1.652722e+003,3.061149e-003
1.654651e+003,2.931032e-003
1.656579e+003,2.805289e-003
1.658508e+003,2.645211e-003
1.660436e+003,2.571377e-003
1.662365e+003,2.465398e-003
1.664293e+003,2.407820e-003
1.666222e+003,2.411452e-003
1.668150e+003,2.346585e-003
1.670079e+003,2.129302e-003
1.672007e+003,2.052659e-003
1.673936e+003,1.937122e-003
1.675864e+003,1.733616e-003
1.677793e+003,1.438209e-003
1.679721e+003,1.218489e-003
1.681650e+003,1.038701e-003
1.683578e+003,9.003893e-004
1.685507e+003,6.981317e-004
1.687435e+003,3.384635e-004
1.689364e+003,1.700440e-004
1.691292e+003,1.315441e-005
1.693221e+003,-1.796487e-004
1.695149e+003,-2.663822e-004
1.697078e+003,-1.419893e-004
1.699006e+003,-1.172124e-004
1.700935e+003,-1.188024e-004
1.702863e+003,-8.547741e-005
1.704792e+003,-7.345196e-005
1.706720e+003,5.484030e-005
1.708649e+003,8.217319e-006
1.710577e+003,-8.302597e-005
1.712506e+003,-2.504861e-005
1.714434e+003,-9.200348e-005
1.716363e+003,-2.378704e-004
1.718291e+003,-2.699585e-004
1.720220e+003,-2.485998e-004
1.722148e+003,-2.811838e-004
1.724077e+003,-3.087988e-004
1.726005e+003,-3.518072e-004
1.727934e+003,-3.988169e-004
1.729862e+003,-4.172222e-004
1.731791e+003,-5.001353e-004
1.733719e+003,-6.672044e-004
1.735648e+003,-6.968459e-004
1.737576e+003,-6.925123e-004
1.739505e+003,-6.293887e-004
1.741433e+003,-5.705246e-004
1.743362e+003,-6.097020e-004
1.745290e+003,-4.784570e-004
1.747219e+003,-4.087148e-004
1.749147e+003,-5.374328e-004
1.751076e+003,-5.569241e-004
1.753004e+003,-4.362555e-004
1.754933e+003,-3.240625e-004
1.756861e+003,-2.592627e-004
1.758790e+003,-3.144607e-004
1.760718e+003,-3.637588e-004
1.762647e+003,-3.693537e-004
1.764575e+003,-3.274397e-004
1.766504e+003,-3.032694e-004
1.768432e+003,-2.669120e-004
1.770361e+003,-2.900910e-004
1.772289e+003,-3.783915e-004
1.774218e+003,-4.993079e-004
1.776146e+003,-5.210845e-004
1.778075e+003,-5.108913e-004
1.780003e+003,-5.301854e-004
1.781932e+003,-5.746609e-004
1.783860e+003,-5.274055e-004
1.785789e+003,-4.780598e-004
1.787717e+003,-4.715064e-004
1.789646e+003,-3.981880e-004
1.791574e+003,-4.499921e-004
1.793503e+003,-5.704584e-004
1.795431e+003,-5.779037e-004
1.797360e+003,-4.070596e-004
1.799288e+003,-3.335317e-004
1.801217e+003,-4.158319e-004
1.803145e+003,-3.864691e-004
1.805074e+003,-3.284660e-004
1.807002e+003,-3.081035e-004
1.808931e+003,-4.186455e-004
1.810859e+003,-3.372729e-004
1.812788e+003,-1.984938e-004
1.814716e+003,-2.217758e-004
1.816645e+003,-2.745613e-004
1.818573e+003,-2.762831e-004
1.820502e+003,-2.745613e-004
1.822430e+003,-2.395924e-004
1.824359e+003,-2.257829e-004
1.826287e+003,-2.921108e-004
1.828216e+003,-3.737899e-004
1.830144e+003,-3.111828e-004
1.832073e+003,-2.395924e-004
1.834001e+003,-2.438643e-004
1.835930e+003,-2.985014e-004
1.837858e+003,-3.855753e-004
1.839787e+003,-4.979179e-004
1.841715e+003,-4.758753e-004
1.843644e+003,-4.125878e-004
1.845572e+003,-4.359576e-004
1.847501e+003,-4.691564e-004
1.849429e+003,-5.257508e-004
1.851358e+003,-5.468311e-004
1.853286e+003,-4.610804e-004
1.855215e+003,-4.075231e-004
1.857143e+003,-4.150705e-004
1.859072e+003,-4.940456e-004
1.861000e+003,-5.050004e-004
1.862929e+003,-4.302311e-004
1.864857e+003,-3.935534e-004
1.866786e+003,-4.485688e-004
1.868714e+003,-4.662107e-004
1.870643e+003,-4.095755e-004
1.872571e+003,-3.145600e-004
1.874500e+003,-2.066741e-004
1.876428e+003,-1.864384e-004
1.878357e+003,-2.261803e-004
1.880285e+003,-2.080651e-004
1.882214e+003,-1.797150e-004
1.884142e+003,-2.206829e-004
1.886071e+003,-2.198218e-004
1.887999e+003,-2.501893e-004
1.889928e+003,-3.207184e-004
1.891856e+003,-3.172088e-004
1.893785e+003,-2.623092e-004
1.895713e+003,-2.111782e-004
1.897642e+003,-1.728259e-004
1.899570e+003,-2.047532e-004
1.901499e+003,-1.582856e-004
1.903427e+003,-9.624372e-005
1.905356e+003,-1.880943e-004
1.907284e+003,-2.301212e-004
1.909213e+003,-2.042896e-004
1.911141e+003,-1.873657e-004
1.913070e+003,-2.416125e-004
1.914998e+003,-2.852235e-004
1.916927e+003,-3.171426e-004
1.918855e+003,-3.639574e-004
1.920784e+003,-3.212813e-004
1.922712e+003,-3.537275e-004
1.924641e+003,-3.995452e-004
1.926569e+003,-4.197048e-004
1.928498e+003,-4.380761e-004
1.930426e+003,-4.315552e-004
1.932355e+003,-3.993466e-004
1.934283e+003,-3.261815e-004
1.936212e+003,-2.697598e-004
1.938140e+003,-2.790646e-004
1.940069e+003,-3.338628e-004
1.941997e+003,-3.219104e-004
1.943926e+003,-2.255511e-004
1.945854e+003,-2.273725e-004
1.947783e+003,-2.772103e-004
1.949711e+003,-2.792302e-004
1.951640e+003,-2.942631e-004
1.953568e+003,-3.341607e-004
1.955497e+003,-2.604217e-004
1.957425e+003,-2.341945e-004
1.959354e+003,-3.135336e-004
1.961282e+003,-3.288965e-004
1.963211e+003,-3.295586e-004
1.965139e+003,-2.928393e-004
1.967068e+003,-2.800911e-004
1.968996e+003,-2.856209e-004
1.970925e+003,-3.078386e-004
1.972853e+003,-3.226719e-004
1.974782e+003,-2.526398e-004
1.976710e+003,-2.858527e-004
1.978639e+003,-3.383986e-004
1.980567e+003,-3.506154e-004
1.982496e+003,-3.466425e-004
1.984424e+003,-3.994459e-004
1.986353e+003,-4.519781e-004
1.988281e+003,-4.070596e-004
1.990210e+003,-3.884223e-004
1.992138e+003,-3.584286e-004
1.994067e+003,-3.218442e-004
1.995995e+003,-3.288302e-004
1.997924e+003,-3.446229e-004
1.999852e+003,-3.335979e-004
2.001781e+003,-3.596536e-004
2.003709e+003,-4.266893e-004
2.005638e+003,-3.635933e-004
2.007566e+003,-3.656789e-004
2.009495e+003,-4.139781e-004
2.011423e+003,-3.563429e-004
2.013352e+003,-1.898497e-004
2.015280e+003,-2.008121e-004
2.017208e+003,-3.313134e-004
2.019137e+003,-4.317869e-004
2.021066e+003,-3.874954e-004
2.022994e+003,-2.501893e-004
2.024922e+003,-1.691495e-004
2.026851e+003,-2.026336e-004
2.028780e+003,-3.031700e-004
2.030708e+003,-3.227712e-004
2.032636e+003,-2.626735e-004
2.034565e+003,-2.521431e-004
2.036494e+003,-2.811838e-004
2.038422e+003,-2.787997e-004
2.040350e+003,-2.318764e-004
2.042279e+003,-2.415131e-004
2.044208e+003,-2.927399e-004
2.046136e+003,-2.424735e-004
2.048064e+003,-1.926979e-004
2.049993e+003,-1.928967e-004
2.051921e+003,-2.154835e-004
2.053850e+003,-1.944533e-004
2.055778e+003,-1.857097e-004
2.057707e+003,-1.680233e-004
2.059635e+003,-1.202930e-004
2.061564e+003,-1.059166e-004
2.063492e+003,-1.333440e-004
2.065421e+003,-1.240693e-004
2.067349e+003,-1.103223e-004
2.069278e+003,-1.240361e-004
2.071206e+003,-1.170468e-004
2.073135e+003,-7.712920e-005
2.075063e+003,-5.377322e-005
2.076992e+003,-8.070702e-005
2.078920e+003,-6.135990e-005
2.080849e+003,-6.937714e-005
2.082777e+003,-2.349140e-005
2.084706e+003,-1.756101e-006
2.086634e+003,-1.593718e-005
2.088563e+003,5.954595e-005
2.090491e+003,1.759774e-004
2.092420e+003,1.970265e-004
2.094348e+003,1.147915e-004
2.096277e+003,1.216852e-004
2.098205e+003,1.565203e-004
2.100134e+003,1.142281e-004
2.102062e+003,1.826732e-004
2.103991e+003,1.865847e-004
2.105919e+003,1.755796e-004
2.107848e+003,2.349176e-004
2.109776e+003,1.948056e-004
2.111705e+003,1.914575e-004
2.113633e+003,1.979547e-004
2.115562e+003,1.941426e-004
2.117490e+003,2.439682e-004
2.119419e+003,3.267914e-004
2.121347e+003,3.468530e-004
2.123276e+003,3.633673e-004
2.125204e+003,2.780173e-004
2.127133e+003,1.828058e-004
2.129061e+003,2.894560e-004
2.130990e+003,3.796169e-004
2.132918e+003,3.977243e-004
2.134847e+003,3.940762e-004
2.136775e+003,4.282034e-004
2.138704e+003,4.540411e-004
2.140632e+003,4.092988e-004
2.142561e+003,3.411163e-004
2.144489e+003,2.996682e-004
2.146418e+003,3.715584e-004
2.148346e+003,4.855193e-004
2.150275e+003,5.138151e-004
2.152203e+003,5.038301e-004
2.154132e+003,5.432077e-004
2.156060e+003,5.400229e-004
2.157989e+003,4.712228e-004
2.159917e+003,4.571258e-004
2.161846e+003,4.861827e-004
2.163774e+003,5.230706e-004
2.165703e+003,6.111565e-004
2.167631e+003,6.221062e-004
2.169560e+003,6.176931e-004
2.171488e+003,6.499132e-004
2.173417e+003,6.014014e-004
2.175345e+003,5.882292e-004
2.177274e+003,6.423142e-004
2.179202e+003,6.567159e-004
2.181131e+003,5.901536e-004
2.183059e+003,6.266521e-004
2.184988e+003,6.719477e-004
2.186916e+003,5.839159e-004
2.188845e+003,5.516675e-004
2.190773e+003,6.259221e-004
2.192702e+003,5.809962e-004
2.194630e+003,5.236677e-004
2.196559e+003,5.114267e-004
2.198487e+003,5.250942e-004
2.200416e+003,4.660483e-004
2.202344e+003,4.305583e-004
2.204273e+003,4.978923e-004
2.206201e+003,5.773466e-004
2.208130e+003,5.054888e-004
2.210058e+003,3.821041e-004
2.211987e+003,4.134113e-004
2.213915e+003,5.046926e-004
2.215844e+003,4.748715e-004
2.217772e+003,4.699623e-004
2.219701e+003,5.674597e-004
2.221629e+003,4.931487e-004
2.223558e+003,3.687395e-004
2.225486e+003,3.238403e-004
2.227415e+003,4.012065e-004
2.229343e+003,4.841925e-004
2.231272e+003,5.567103e-004
2.233200e+003,4.777905e-004
2.235129e+003,4.382199e-004
2.237057e+003,4.779895e-004
2.238986e+003,4.230626e-004
2.240914e+003,3.189991e-004
2.242843e+003,3.443329e-004
2.244771e+003,4.231953e-004
2.246700e+003,3.745430e-004
2.248628e+003,3.570003e-004
2.250557e+003,3.499370e-004
2.252485e+003,3.359102e-004
2.254414e+003,3.246692e-004
2.256342e+003,4.312548e-004
2.258271e+003,4.350026e-004
2.260199e+003,2.642581e-004
2.262128e+003,1.872477e-004
2.264056e+003,2.316024e-004
2.265985e+003,2.796751e-004
2.267913e+003,2.317019e-004
2.269842e+003,2.221543e-004
2.271770e+003,2.350834e-004
2.273699e+003,1.950376e-004
2.275627e+003,1.933139e-004
2.277556e+003,1.882753e-004
2.279484e+003,1.058099e-004
2.281413e+003,9.205611e-005
2.283341e+003,9.483998e-005
2.285270e+003,1.221492e-004
2.287198e+003,2.326633e-004
2.289127e+003,2.907491e-004
2.291055e+003,3.377009e-004
2.292984e+003,2.476813e-004
2.294912e+003,1.767729e-004
2.296841e+003,1.791264e-004
2.298769e+003,1.565866e-004
2.300698e+003,2.230162e-004
2.302626e+003,2.565664e-004
2.304555e+003,3.110743e-004
2.306483e+003,3.572324e-004
2.308412e+003,3.947395e-004
2.310340e+003,3.658213e-004
2.312269e+003,3.804128e-004
2.314197e+003,3.974258e-004
2.316125e+003,3.693033e-004
2.318054e+003,3.524904e-004
2.319983e+003,3.305716e-004
2.321911e+003,3.194302e-004
2.323840e+003,3.144896e-004
2.325768e+003,4.069441e-004
2.327697e+003,4.812402e-004
2.329625e+003,3.943084e-004
2.331553e+003,2.169165e-004
2.333482e+003,2.167839e-004
2.335411e+003,2.811339e-004
2.337339e+003,2.453937e-004
2.339268e+003,2.485101e-004
2.341196e+003,3.190986e-004
2.343125e+003,2.976788e-004
2.345053e+003,1.971591e-004
2.346981e+003,1.873803e-004
2.348910e+003,1.887062e-004
2.350839e+003,1.890046e-004
2.352767e+003,1.929824e-004
2.354696e+003,1.263585e-004
2.356624e+003,1.357714e-004
2.358552e+003,1.566529e-004
2.360481e+003,1.780657e-004
2.362409e+003,1.557911e-004
2.364338e+003,1.729941e-004
2.366267e+003,2.236792e-004
2.368195e+003,2.215576e-004
2.370124e+003,2.264639e-004
2.372052e+003,2.200989e-004
2.373980e+003,2.773874e-004
2.375909e+003,2.996682e-004
2.377838e+003,4.209400e-004
2.379766e+003,4.570926e-004
2.381695e+003,3.659871e-004
2.383623e+003,4.114877e-004
2.385552e+003,5.650377e-004
2.387480e+003,6.343503e-004
2.389408e+003,7.479820e-004
2.391337e+003,8.130415e-004
2.393266e+003,8.174899e-004
2.395194e+003,8.619422e-004
2.397123e+003,9.075280e-004
2.399051e+003,8.882373e-004
2.400979e+003,8.615106e-004
2.402908e+003,8.364454e-004
2.404836e+003,8.856475e-004
2.406765e+003,8.859464e-004
2.408694e+003,8.771148e-004
2.410622e+003,8.547047e-004
2.412551e+003,8.806673e-004
2.414479e+003,8.873740e-004
2.416407e+003,8.345200e-004
2.418336e+003,8.557339e-004
2.420264e+003,9.272512e-004
2.422193e+003,9.693570e-004
2.424122e+003,1.019438e-003
2.426050e+003,1.028870e-003
2.427979e+003,1.074606e-003
2.429907e+003,1.138120e-003
2.431835e+003,1.219785e-003
2.433764e+003,1.242247e-003
2.435692e+003,1.232046e-003
2.437621e+003,1.255805e-003
2.439550e+003,1.369034e-003
2.441478e+003,1.334833e-003
2.443406e+003,1.207391e-003
2.445335e+003,1.258463e-003
2.447263e+003,1.285248e-003
2.449192e+003,1.284184e-003
2.451121e+003,1.307846e-003
2.453049e+003,1.307813e-003
2.454978e+003,1.385620e-003
2.456906e+003,1.384424e-003
2.458834e+003,1.340317e-003
2.460763e+003,1.423715e-003
2.462691e+003,1.553515e-003
2.464620e+003,1.544470e-003
2.466549e+003,1.573699e-003
2.468477e+003,1.573101e-003
2.470406e+003,1.499349e-003
2.472334e+003,1.404102e-003
2.474262e+003,1.452804e-003
2.476191e+003,1.495925e-003
2.478119e+003,1.481894e-003
2.480048e+003,1.517271e-003
2.481977e+003,1.527844e-003
2.483905e+003,1.564920e-003
2.485833e+003,1.625014e-003
2.487762e+003,1.626810e-003
2.489690e+003,1.676567e-003
2.491619e+003,1.682388e-003
2.493547e+003,1.690538e-003
2.495476e+003,1.686679e-003
2.497405e+003,1.716949e-003
2.499333e+003,1.767349e-003
2.501261e+003,1.898250e-003
2.503190e+003,1.859548e-003
2.505118e+003,1.764022e-003
2.507047e+003,1.802283e-003
2.508975e+003,1.867434e-003
2.510904e+003,1.824543e-003
2.512833e+003,1.897418e-003
2.514761e+003,1.997966e-003
2.516689e+003,1.990376e-003
2.518618e+003,1.944011e-003
2.520546e+003,2.016507e-003
2.522475e+003,2.009084e-003
2.524403e+003,1.886769e-003
2.526332e+003,1.945509e-003
2.528260e+003,2.065843e-003
2.530189e+003,2.063646e-003
2.532117e+003,2.060683e-003
2.534046e+003,2.082156e-003
2.535974e+003,2.135495e-003
2.537903e+003,2.153976e-003
2.539831e+003,2.106927e-003
2.541760e+003,2.090446e-003
2.543688e+003,2.026294e-003
2.545617e+003,1.991841e-003
2.547545e+003,2.051860e-003
2.549474e+003,2.104097e-003
2.551402e+003,2.063013e-003
2.553331e+003,2.074499e-003
2.555259e+003,2.122243e-003
2.557188e+003,2.118447e-003
2.559116e+003,2.065909e-003
2.561045e+003,2.110989e-003
2.562973e+003,2.199198e-003
2.564902e+003,2.197200e-003
2.566830e+003,2.161934e-003
2.568759e+003,2.209788e-003
2.570687e+003,2.249720e-003
2.572616e+003,2.243958e-003
2.574544e+003,2.279031e-003
2.576473e+003,2.246923e-003
2.578401e+003,2.221677e-003
2.580330e+003,2.240128e-003
2.582258e+003,2.305212e-003
2.584187e+003,2.342088e-003
2.586115e+003,2.360544e-003
2.588044e+003,2.386797e-003
2.589972e+003,2.448470e-003
2.591901e+003,2.427478e-003
2.593829e+003,2.392061e-003
2.595758e+003,2.412018e-003
2.597686e+003,2.430544e-003
2.599615e+003,2.490690e-003
2.601543e+003,2.470596e-003
2.603472e+003,2.344087e-003
2.605400e+003,2.356480e-003
2.607329e+003,2.428811e-003
2.609257e+003,2.469596e-003
2.611186e+003,2.515718e-003
2.613114e+003,2.568710e-003
2.615043e+003,2.620342e-003
2.616971e+003,2.670114e-003
2.618900e+003,2.570543e-003
2.620828e+003,2.543680e-003
2.622757e+003,2.716623e-003
2.624685e+003,2.790482e-003
2.626614e+003,2.715723e-003
2.628542e+003,2.650211e-003
2.630471e+003,2.633910e-003
2.632399e+003,2.675748e-003
2.634328e+003,2.663113e-003
2.636256e+003,2.621776e-003
2.638185e+003,2.600675e-003
2.640113e+003,2.722225e-003
2.642042e+003,2.957319e-003
2.643970e+003,2.968929e-003
2.645899e+003,2.933834e-003
2.647827e+003,2.965092e-003
2.649756e+003,2.981439e-003
2.651684e+003,2.988846e-003
2.653613e+003,3.096087e-003
2.655541e+003,3.260604e-003
2.657470e+003,3.334756e-003
2.659398e+003,3.329080e-003
2.661327e+003,3.256532e-003
2.663255e+003,3.209931e-003
2.665184e+003,3.175651e-003
2.667112e+003,3.229859e-003
2.669041e+003,3.267315e-003
2.670969e+003,3.261673e-003
2.672898e+003,3.297829e-003
2.674826e+003,3.376495e-003
2.676755e+003,3.435036e-003
2.678683e+003,3.449564e-003
2.680612e+003,3.471207e-003
2.682540e+003,3.547900e-003
2.684469e+003,3.544726e-003
2.686397e+003,3.536809e-003
2.688326e+003,3.548367e-003
2.690254e+003,3.642148e-003
2.692183e+003,3.760981e-003
2.694111e+003,3.781570e-003
2.696040e+003,3.871823e-003
2.697968e+003,3.909903e-003
2.699897e+003,3.888673e-003
2.701825e+003,3.870386e-003
2.703754e+003,3.867043e-003
2.705682e+003,3.991388e-003
2.707611e+003,4.203349e-003
2.709539e+003,4.352790e-003
2.711468e+003,4.340374e-003
2.713396e+003,4.336392e-003
2.715325e+003,4.385657e-003
2.717253e+003,4.438041e-003
2.719182e+003,4.373206e-003
2.721110e+003,4.449322e-003
2.723039e+003,4.535730e-003
2.724967e+003,4.570118e-003
2.726896e+003,4.711378e-003
2.728824e+003,4.791875e-003
2.730753e+003,4.849033e-003
2.732681e+003,4.970141e-003
2.734610e+003,5.042741e-003
2.736538e+003,5.139527e-003
2.738467e+003,5.212827e-003
2.740395e+003,5.306665e-003
2.742324e+003,5.311093e-003
2.744252e+003,5.361173e-003
2.746181e+003,5.405523e-003
2.748109e+003,5.497592e-003
2.750038e+003,5.635865e-003
2.751966e+003,5.681048e-003
2.753895e+003,5.790534e-003
2.755823e+003,5.803227e-003
2.757752e+003,5.853432e-003
2.759680e+003,6.123529e-003
2.761609e+003,6.403444e-003
2.763537e+003,6.621430e-003
2.765466e+003,6.765749e-003
2.767394e+003,6.983884e-003
2.769323e+003,7.333498e-003
2.771251e+003,7.708586e-003
2.773180e+003,8.096085e-003
2.775108e+003,8.615383e-003
2.777037e+003,9.101568e-003
2.778965e+003,9.525770e-003
2.780894e+003,1.004580e-002
2.782822e+003,1.064016e-002
2.784750e+003,1.130855e-002
2.786679e+003,1.205935e-002
2.788608e+003,1.283780e-002
2.790536e+003,1.356445e-002
2.792465e+003,1.419179e-002
2.794393e+003,1.486914e-002
2.796322e+003,1.558048e-002
2.798250e+003,1.623248e-002
2.800178e+003,1.695371e-002
2.802107e+003,1.774292e-002
2.804036e+003,1.836406e-002
2.805964e+003,1.885530e-002
2.807893e+003,1.908621e-002
2.809821e+003,1.910570e-002
2.811750e+003,1.923805e-002
2.813678e+003,1.934977e-002
2.815606e+003,1.929475e-002
2.817535e+003,1.906059e-002
2.819464e+003,1.871902e-002
2.821392e+003,1.843575e-002
2.823321e+003,1.811671e-002
2.825249e+003,1.768856e-002
2.827177e+003,1.730703e-002
2.829106e+003,1.684454e-002
2.831034e+003,1.620500e-002
2.832963e+003,1.563372e-002
2.834892e+003,1.509883e-002
2.836820e+003,1.443116e-002
2.838749e+003,1.389457e-002
2.840677e+003,1.325956e-002
2.842605e+003,1.247268e-002
2.844534e+003,1.169833e-002
2.846462e+003,1.094295e-002
2.848391e+003,1.026220e-002
2.850320e+003,9.926014e-003
2.852248e+003,9.693217e-003
2.854177e+003,9.430204e-003
2.856105e+003,9.264789e-003
2.858033e+003,9.232938e-003
2.859962e+003,9.337027e-003
2.861890e+003,9.257849e-003
2.863819e+003,9.259745e-003
2.865748e+003,9.434775e-003
2.867676e+003,9.503587e-003
2.869604e+003,9.487670e-003
2.871533e+003,9.535051e-003
2.873461e+003,9.689185e-003
2.875390e+003,9.837951e-003
2.877319e+003,9.876861e-003
2.879247e+003,1.005072e-002
2.881176e+003,1.026148e-002
2.883104e+003,1.022885e-002
2.885032e+003,1.011074e-002
2.886961e+003,1.010467e-002
2.888889e+003,1.011915e-002
2.890818e+003,1.003627e-002
2.892747e+003,9.861812e-003
2.894675e+003,9.679122e-003
2.896604e+003,9.619903e-003
2.898532e+003,9.543316e-003
2.900460e+003,9.447778e-003
2.902389e+003,9.418047e-003
2.904317e+003,9.394515e-003
2.906246e+003,9.268817e-003
2.908175e+003,9.159431e-003
2.910103e+003,9.086139e-003
2.912031e+003,8.837188e-003
2.913960e+003,8.587467e-003
2.915888e+003,8.439366e-003
2.917817e+003,8.493390e-003
2.919745e+003,8.677238e-003
2.921674e+003,8.827956e-003
2.923603e+003,8.903031e-003
2.925531e+003,9.114392e-003
2.927459e+003,9.465624e-003
2.929388e+003,9.843577e-003
2.931316e+003,1.019611e-002
2.933245e+003,1.039999e-002
2.935173e+003,1.064875e-002
2.937102e+003,1.095403e-002
2.939031e+003,1.102743e-002
2.940959e+003,1.105197e-002
2.942887e+003,1.095726e-002
2.944816e+003,1.084014e-002
2.946744e+003,1.068156e-002
2.948673e+003,1.041282e-002
2.950601e+003,1.005519e-002
2.952530e+003,9.630539e-003
2.954458e+003,9.112159e-003
2.956387e+003,8.549753e-003
2.958315e+003,7.982337e-003
2.960244e+003,7.493695e-003
2.962172e+003,6.980415e-003
2.964101e+003,6.518494e-003
2.966029e+003,6.059517e-003
2.967958e+003,5.602366e-003
2.969886e+003,5.090243e-003
2.971815e+003,4.474597e-003
2.973743e+003,4.085197e-003
2.975672e+003,3.802460e-003
2.977600e+003,3.571050e-003
2.979529e+003,3.441248e-003
2.981457e+003,3.111271e-003
2.983386e+003,2.780178e-003
2.985314e+003,2.547812e-003
2.987243e+003,2.348817e-003
2.989171e+003,2.292254e-003
2.991100e+003,2.279131e-003
2.993028e+003,2.052460e-003
2.994957e+003,1.893657e-003
2.996885e+003,1.869531e-003
2.998814e+003,1.918883e-003
3.000742e+003,1.761494e-003
3.002671e+003,1.569842e-003
3.004599e+003,1.538185e-003
3.006528e+003,1.523754e-003
3.008456e+003,1.464273e-003
3.010385e+003,1.309009e-003
3.012313e+003,1.250521e-003
3.014242e+003,1.252316e-003
3.016170e+003,1.219120e-003
3.018099e+003,1.255539e-003
3.020027e+003,1.304390e-003
3.021956e+003,1.226331e-003
3.023884e+003,1.089421e-003
3.025813e+003,1.046340e-003
3.027741e+003,9.644423e-004
3.029670e+003,9.448834e-004
3.031598e+003,1.078393e-003
3.033527e+003,1.112607e-003
3.035455e+003,1.074307e-003
3.037384e+003,1.029501e-003
3.039312e+003,8.485629e-004
3.041241e+003,6.121519e-004
3.043169e+003,5.137488e-004
3.045098e+003,6.095638e-004
3.047026e+003,6.358435e-004
3.048955e+003,6.120523e-004
3.050883e+003,5.267530e-004
3.052812e+003,3.927165e-004
3.054740e+003,4.138425e-004
3.056669e+003,4.892676e-004
3.058597e+003,4.841593e-004
3.060526e+003,5.004134e-004
3.062454e+003,4.346378e-004
3.064383e+003,3.392925e-004
3.066311e+003,2.514939e-004
3.068240e+003,2.347850e-004
3.070168e+003,2.221211e-004
3.072097e+003,1.644422e-004
3.074025e+003,1.899990e-004
3.075954e+003,2.845158e-004
3.077882e+003,2.356138e-004
3.079811e+003,4.950508e-005
3.081739e+003,-7.066916e-005
3.083668e+003,3.644760e-006
3.085596e+003,8.406919e-005
3.087525e+003,3.830464e-005
3.089453e+003,-1.437994e-005
3.091382e+003,-4.337029e-005
3.093310e+003,-7.563843e-005
3.095239e+003,-8.567618e-005
3.097167e+003,-1.037965e-004
3.099096e+003,-2.355523e-004
3.101024e+003,-3.726974e-004
3.102953e+003,-3.754451e-004
3.104881e+003,-3.471060e-004
3.106810e+003,-3.449871e-004
3.108738e+003,-3.236983e-004
3.110667e+003,-4.512830e-004
3.112595e+003,-4.311580e-004
3.114524e+003,-3.172088e-004
3.116452e+003,-2.921108e-004
3.118381e+003,-4.604846e-004
3.120309e+003,-6.654179e-004
3.122238e+003,-6.915529e-004
3.124166e+003,-7.224498e-004
3.126095e+003,-7.058438e-004
3.128023e+003,-6.669397e-004
3.129952e+003,-7.141138e-004
3.131880e+003,-6.590658e-004
3.133809e+003,-4.859038e-004
3.135737e+003,-5.639395e-004
3.137666e+003,-6.083454e-004
3.139594e+003,-4.888495e-004
3.141523e+003,-4.954687e-004
3.143451e+003,-5.937205e-004
3.145380e+003,-6.039778e-004
3.147308e+003,-5.199593e-004
3.149237e+003,-6.093381e-004
3.151165e+003,-7.505991e-004
3.153094e+003,-8.145980e-004
3.155022e+003,-8.414185e-004
3.156951e+003,-7.057115e-004
3.158879e+003,-5.368371e-004
3.160808e+003,-5.118180e-004
3.162736e+003,-6.015293e-004
3.164665e+003,-6.208855e-004
3.166593e+003,-6.621757e-004
3.168522e+003,-6.519859e-004
3.170450e+003,-5.960035e-004
3.172379e+003,-6.263116e-004
3.174307e+003,-6.136725e-004
3.176236e+003,-5.485850e-004
3.178164e+003,-5.772750e-004
3.180093e+003,-5.287954e-004
3.182021e+003,-5.963013e-004
3.183950e+003,-6.958204e-004
3.185878e+003,-7.019734e-004
3.187807e+003,-6.294879e-004
3.189735e+003,-6.234662e-004
3.191664e+003,-6.831502e-004
3.193592e+003,-7.492098e-004
3.195521e+003,-7.260554e-004
3.197449e+003,-5.046363e-004
3.199378e+003,-3.965328e-004
3.201306e+003,-3.163811e-004
3.203235e+003,-3.872305e-004
3.205163e+003,-5.094021e-004
3.207092e+003,-5.329652e-004
3.209020e+003,-4.212275e-004
3.210948e+003,-3.498870e-004
3.212877e+003,-3.617724e-004
3.214806e+003,-2.756540e-004
3.216734e+003,-3.543896e-004
3.218663e+003,-5.839592e-004
3.220591e+003,-5.839592e-004
3.222520e+003,-3.981880e-004
3.224448e+003,-2.583686e-004
3.226376e+003,-8.156835e-005
3.228305e+003,-2.375646e-005
3.230234e+003,5.208983e-005
3.232162e+003,6.461619e-005
3.234091e+003,-8.349698e-006
3.236019e+003,-2.842808e-005
3.237948e+003,1.928444e-005
3.239876e+003,2.113140e-004
3.241804e+003,3.896322e-004
3.243733e+003,3.121686e-004
3.245662e+003,2.250716e-004
3.247590e+003,2.295470e-004
3.249519e+003,2.817970e-004
3.251447e+003,3.458914e-004
3.253375e+003,3.383972e-004
3.255304e+003,3.949053e-004
3.257232e+003,5.877647e-004
3.259161e+003,6.621914e-004
3.261090e+003,6.124505e-004
3.263018e+003,6.318285e-004
3.264947e+003,5.830865e-004
3.266875e+003,5.204831e-004
3.268803e+003,6.891713e-004
3.270732e+003,8.031824e-004
3.272660e+003,8.684494e-004
3.274589e+003,8.703418e-004
3.276518e+003,8.753883e-004
3.278446e+003,9.136707e-004
3.280375e+003,8.381386e-004
3.282303e+003,9.017839e-004
3.284231e+003,9.877547e-004
3.286160e+003,9.687593e-004
3.288088e+003,9.113464e-004
3.290017e+003,7.893069e-004
3.291946e+003,6.838946e-004
3.293874e+003,6.371045e-004
3.295802e+003,5.714410e-004
3.297731e+003,4.714218e-004
3.299659e+003,4.022346e-004
3.301588e+003,4.532119e-004
3.303516e+003,4.298949e-004
3.305445e+003,2.640260e-004
3.307374e+003,1.399476e-004
3.309302e+003,1.206096e-005
3.311230e+003,-3.545198e-005
3.313159e+003,-1.012127e-004
3.315087e+003,-2.007790e-004
3.317016e+003,-3.256849e-004
3.318944e+003,-4.714402e-004
3.320873e+003,-5.538797e-004
3.322802e+003,-6.548972e-004
3.324730e+003,-8.208486e-004
3.326658e+003,-8.772318e-004
3.328587e+003,-7.870482e-004
3.330515e+003,-7.180502e-004
3.332444e+003,-9.073219e-004
3.334372e+003,-1.120075e-003
3.336301e+003,-1.079457e-003
3.338229e+003,-9.962573e-004
3.340158e+003,-9.004112e-004
3.342086e+003,-9.504694e-004
3.344015e+003,-1.042933e-003
3.345943e+003,-1.106823e-003
3.347872e+003,-1.158245e-003
3.349800e+003,-1.186895e-003
3.351729e+003,-1.188415e-003
3.353657e+003,-1.244056e-003
3.355586e+003,-1.328860e-003
3.357514e+003,-1.487025e-003
3.359443e+003,-1.552864e-003
3.361371e+003,-1.517733e-003
3.363300e+003,-1.577922e-003
3.365229e+003,-1.690584e-003
3.367157e+003,-1.792360e-003
3.369085e+003,-1.948806e-003
3.371014e+003,-1.974699e-003
3.372942e+003,-1.932181e-003
3.374871e+003,-2.086566e-003
3.376799e+003,-2.180370e-003
3.378728e+003,-2.271616e-003
3.380656e+003,-2.413557e-003
3.382585e+003,-2.580023e-003
3.384513e+003,-2.736812e-003
3.386442e+003,-2.764798e-003
3.388370e+003,-2.635257e-003
3.390299e+003,-2.576730e-003
3.392227e+003,-2.637726e-003
3.394156e+003,-2.809111e-003
3.396084e+003,-2.969042e-003
3.398013e+003,-2.817242e-003
3.399941e+003,-2.657552e-003
3.401870e+003,-2.799630e-003
3.403798e+003,-2.875605e-003
3.405727e+003,-2.902496e-003
3.407655e+003,-2.872972e-003
3.409584e+003,-2.747842e-003
3.411512e+003,-2.782445e-003
3.413441e+003,-2.981580e-003
3.415369e+003,-3.012610e-003
3.417298e+003,-2.951732e-003
3.419226e+003,-2.940806e-003
3.421155e+003,-3.060879e-003
3.423083e+003,-3.086969e-003
3.425012e+003,-3.110327e-003
3.426940e+003,-3.126907e-003
3.428869e+003,-2.998724e-003
3.430797e+003,-2.988260e-003
3.432726e+003,-3.082265e-003
3.434654e+003,-3.250744e-003
3.436583e+003,-3.412682e-003
3.438511e+003,-3.469223e-003
3.440440e+003,-3.366951e-003
3.442368e+003,-3.238609e-003
3.444297e+003,-3.238905e-003
3.446225e+003,-3.285373e-003
3.448154e+003,-3.408935e-003
3.450082e+003,-3.454628e-003
3.452011e+003,-3.528682e-003
3.453939e+003,-3.782924e-003
3.455868e+003,-3.817772e-003
3.457796e+003,-3.555499e-003
3.459725e+003,-3.416200e-003
3.461653e+003,-3.369976e-003
3.463582e+003,-3.407159e-003
3.465510e+003,-3.580245e-003
3.467439e+003,-3.728986e-003
3.469367e+003,-3.763149e-003
3.471296e+003,-3.660093e-003
3.473224e+003,-3.593686e-003
3.475153e+003,-3.726982e-003
3.477081e+003,-3.700996e-003
3.479010e+003,-3.785059e-003
3.480938e+003,-3.721266e-003
3.482867e+003,-3.617739e-003
3.484795e+003,-3.508863e-003
3.486724e+003,-3.654113e-003
3.488652e+003,-3.745904e-003
3.490581e+003,-3.820532e-003
3.492509e+003,-3.905556e-003
3.494438e+003,-3.779212e-003
3.496366e+003,-3.567758e-003
3.498295e+003,-3.588526e-003
3.500223e+003,-3.658943e-003
3.502152e+003,-3.744623e-003
3.504080e+003,-3.786340e-003
3.506009e+003,-3.623522e-003
3.507937e+003,-3.591024e-003
3.509866e+003,-3.645570e-003
3.511794e+003,-3.692520e-003
3.513723e+003,-3.818627e-003
3.515651e+003,-4.051493e-003
3.517580e+003,-3.984326e-003
3.519508e+003,-3.973425e-003
3.521437e+003,-4.078378e-003
3.523365e+003,-4.139000e-003
3.525294e+003,-4.027201e-003
3.527222e+003,-3.780033e-003
3.529151e+003,-3.768865e-003
3.531079e+003,-3.869860e-003
3.533008e+003,-3.989382e-003
3.534936e+003,-4.020110e-003
3.536865e+003,-4.013709e-003
3.538793e+003,-3.906541e-003
3.540722e+003,-3.655985e-003
3.542650e+003,-3.721890e-003
3.544579e+003,-3.817149e-003
3.546507e+003,-3.821648e-003
3.548436e+003,-3.927162e-003
3.550364e+003,-4.067316e-003
3.552293e+003,-4.118093e-003
3.554221e+003,-4.038822e-003
3.556150e+003,-4.081660e-003
3.558078e+003,-4.051034e-003
3.560007e+003,-4.030156e-003
3.561935e+003,-4.010689e-003
3.563864e+003,-4.141461e-003
3.565792e+003,-4.128990e-003
3.567721e+003,-4.045059e-003
3.569649e+003,-4.158593e-003
3.571578e+003,-4.279281e-003
3.573506e+003,-4.190754e-003
3.575435e+003,-4.000150e-003
3.577363e+003,-3.938031e-003
3.579292e+003,-4.043352e-003
3.581220e+003,-4.218219e-003
3.583149e+003,-4.390261e-003
3.585077e+003,-4.342271e-003
3.587006e+003,-4.236529e-003
3.588934e+003,-4.128432e-003
3.590863e+003,-4.198334e-003
3.592791e+003,-4.347421e-003
3.594720e+003,-4.510951e-003
3.596648e+003,-4.417812e-003
3.598577e+003,-4.213396e-003
3.600505e+003,-4.175888e-003
3.602434e+003,-4.257069e-003
3.604362e+003,-4.182746e-003
3.606291e+003,-4.204733e-003
3.608219e+003,-4.242632e-003
3.610148e+003,-4.274524e-003
3.612076e+003,-4.285318e-003
3.614005e+003,-4.139788e-003
3.615933e+003,-4.179268e-003
3.617862e+003,-4.212116e-003
3.619790e+003,-4.066134e-003
3.621719e+003,-4.127349e-003
3.623647e+003,-4.265994e-003
3.625576e+003,-4.349160e-003
3.627504e+003,-4.331970e-003
3.629433e+003,-4.191804e-003
3.631361e+003,-4.193707e-003
3.633290e+003,-4.158757e-003
3.635218e+003,-4.284498e-003
3.637146e+003,-4.471796e-003
3.639075e+003,-4.435064e-003
3.641004e+003,-4.282366e-003
3.642932e+003,-4.288960e-003
3.644861e+003,-4.524461e-003
3.646789e+003,-4.568201e-003
3.648718e+003,-4.612528e-003
3.650646e+003,-4.495309e-003
3.652574e+003,-4.338137e-003
3.654503e+003,-4.272457e-003
3.656432e+003,-4.433359e-003
3.658360e+003,-4.588234e-003
3.660289e+003,-4.519477e-003
3.662217e+003,-4.558234e-003
3.664146e+003,-4.658259e-003
3.666074e+003,-4.753935e-003
3.668002e+003,-4.778875e-003
3.669931e+003,-4.893756e-003
3.671860e+003,-4.983746e-003
3.673788e+003,-5.023412e-003
3.675717e+003,-4.762587e-003
3.677645e+003,-4.518821e-003
3.679573e+003,-4.625838e-003
3.681502e+003,-4.606889e-003
3.683430e+003,-4.645245e-003
3.685359e+003,-4.741907e-003
3.687288e+003,-4.728895e-003
3.689216e+003,-4.594332e-003
3.691145e+003,-4.499048e-003
3.693073e+003,-4.522362e-003
3.695001e+003,-4.741710e-003
3.696930e+003,-4.850769e-003
3.698858e+003,-4.820820e-003
3.700787e+003,-4.567251e-003
3.702716e+003,-4.286762e-003
3.704644e+003,-4.330297e-003
3.706573e+003,-4.502163e-003
3.708501e+003,-4.549348e-003
3.710429e+003,-4.506852e-003
3.712358e+003,-4.375500e-003
3.714286e+003,-4.329575e-003
3.716215e+003,-4.636558e-003
3.718144e+003,-4.482093e-003
3.720072e+003,-4.233248e-003
3.722000e+003,-4.418305e-003
3.723929e+003,-4.592791e-003
3.725857e+003,-4.435163e-003
3.727786e+003,-4.158133e-003
3.729714e+003,-4.226029e-003
3.731643e+003,-4.498064e-003
3.733572e+003,-4.770059e-003
3.735500e+003,-4.761309e-003
3.737428e+003,-4.635377e-003
3.739357e+003,-4.635115e-003
3.741285e+003,-4.522821e-003
3.743214e+003,-4.409055e-003
3.745142e+003,-4.254510e-003
3.747071e+003,-4.465532e-003
3.749000e+003,-4.560365e-003
3.750928e+003,-4.507082e-003
3.752856e+003,-4.438475e-003
3.754785e+003,-4.331019e-003
3.756713e+003,-4.123377e-003
3.758642e+003,-4.122294e-003
3.760570e+003,-4.256282e-003
3.762499e+003,-4.247193e-003
3.764427e+003,-4.138836e-003
3.766356e+003,-4.204011e-003
3.768284e+003,-4.285483e-003
3.770213e+003,-4.341975e-003
3.772141e+003,-4.280660e-003
3.774070e+003,-4.140017e-003
3.775998e+003,-4.151570e-003
3.777927e+003,-4.333610e-003
3.779855e+003,-4.397379e-003
3.781784e+003,-4.283284e-003
3.783712e+003,-4.146483e-003
3.785641e+003,-4.022408e-003
3.787569e+003,-4.023755e-003
3.789498e+003,-3.921679e-003
3.791426e+003,-3.966925e-003
3.793355e+003,-4.148321e-003
3.795283e+003,-4.095610e-003
3.797212e+003,-4.229770e-003
3.799140e+003,-4.346896e-003
3.801069e+003,-4.265502e-003
3.802997e+003,-4.126430e-003
3.804926e+003,-4.351456e-003
3.806854e+003,-4.360542e-003
3.808783e+003,-4.390884e-003
3.810711e+003,-4.191705e-003
3.812640e+003,-4.039545e-003
3.814568e+003,-4.268225e-003
3.816497e+003,-4.294407e-003
3.818425e+003,-4.173459e-003
3.820354e+003,-3.873735e-003
3.822282e+003,-3.716437e-003
3.824211e+003,-4.008062e-003
3.826139e+003,-4.352637e-003
3.828068e+003,-4.218777e-003
3.829996e+003,-4.019093e-003
3.831925e+003,-3.956188e-003
3.833853e+003,-3.968928e-003
3.835782e+003,-4.066331e-003
3.837710e+003,-3.954547e-003
3.839639e+003,-4.095774e-003
3.841567e+003,-4.227079e-003
3.843496e+003,-4.246274e-003
3.845424e+003,-4.398034e-003
3.847353e+003,-4.460678e-003
3.849281e+003,-4.327049e-003
3.851210e+003,-4.301788e-003
3.853138e+003,-4.207916e-003
3.855067e+003,-4.163417e-003
3.856995e+003,-4.307070e-003
3.858924e+003,-4.402003e-003
3.860852e+003,-4.516526e-003
3.862781e+003,-4.466811e-003
3.864709e+003,-4.273737e-003
3.866638e+003,-4.259694e-003
3.868566e+003,-4.398199e-003
3.870495e+003,-4.114023e-003
3.872423e+003,-4.236103e-003
3.874352e+003,-4.445232e-003
3.876280e+003,-4.436803e-003
3.878209e+003,-4.445658e-003
3.880137e+003,-4.552496e-003
3.882066e+003,-4.541151e-003
3.883994e+003,-4.515083e-003
3.885923e+003,-4.341155e-003
3.887851e+003,-4.332036e-003
3.889780e+003,-4.366217e-003
3.891708e+003,-4.610889e-003
3.893637e+003,-4.770583e-003
3.895565e+003,-4.481732e-003
3.897494e+003,-4.402036e-003
3.899422e+003,-4.504721e-003
3.901351e+003,-4.589578e-003
3.903279e+003,-4.536954e-003
3.905208e+003,-4.324326e-003
3.907136e+003,-4.437557e-003
3.909065e+003,-4.504852e-003
3.910993e+003,-4.396264e-003
3.912922e+003,-4.249490e-003
3.914850e+003,-4.330297e-003
3.916779e+003,-4.585185e-003
3.918707e+003,-4.510623e-003
3.920636e+003,-4.562365e-003
3.922564e+003,-4.677992e-003
3.924493e+003,-4.486750e-003
3.926421e+003,-4.303002e-003
3.928350e+003,-4.302313e-003
3.930278e+003,-4.239253e-003
3.932207e+003,-4.053923e-003
3.934135e+003,-3.837479e-003
3.936064e+003,-3.851469e-003
3.937992e+003,-4.143627e-003
3.939921e+003,-4.392098e-003
3.941849e+003,-4.317076e-003
3.943778e+003,-4.088291e-003
3.945706e+003,-4.257758e-003
3.947635e+003,-4.330658e-003
3.949563e+003,-4.142577e-003
3.951492e+003,-4.241025e-003
3.953420e+003,-4.313566e-003
3.955349e+003,-4.269439e-003
3.957277e+003,-4.204798e-003
3.959206e+003,-4.142544e-003
3.961134e+003,-4.160496e-003
3.963063e+003,-4.154228e-003
3.964991e+003,-4.404004e-003
3.966920e+003,-4.466680e-003
3.968848e+003,-4.205520e-003
3.970777e+003,-4.099877e-003
3.972705e+003,-4.179301e-003
3.974634e+003,-4.226849e-003
3.976562e+003,-4.133618e-003
3.978491e+003,-4.134504e-003
3.980419e+003,-4.112481e-003
3.982348e+003,-4.189047e-003
3.984276e+003,-4.093050e-003
3.986205e+003,-4.246471e-003
3.988133e+003,-4.311991e-003
3.990062e+003,-4.034621e-003
3.991990e+003,-3.888381e-003
3.993919e+003,-3.902896e-003
3.995847e+003,-3.951821e-003
3.997776e+003,-4.090128e-003
3.999704e+003,-4.098892e-003
4.001633e+003,0.000000e+000
