3.991989e+002,3.949891e-003
4.011274e+002,1.531169e-003
4.030559e+002,-9.353901e-003
4.049844e+002,-1.623056e-002
4.069129e+002,-5.849181e-003
4.088414e+002,4.838244e-003
4.107699e+002,-8.126798e-004
4.126984e+002,-7.510222e-003
4.146269e+002,-5.376705e-003
4.165554e+002,2.381266e-003
4.184839e+002,5.416729e-003
4.204124e+002,9.357205e-003
4.223409e+002,1.337042e-002
4.242694e+002,1.028666e-002
4.261979e+002,-3.266893e-005
4.281264e+002,4.510586e-003
4.300549e+002,1.025951e-002
4.319834e+002,8.328095e-003
4.339119e+002,7.469289e-003
4.358404e+002,8.860487e-003
4.377689e+002,1.031054e-002
4.396974e+002,3.356961e-003
4.416259e+002,-4.327935e-003
4.435544e+002,-1.364071e-003
4.454829e+002,2.270237e-003
4.474114e+002,4.950836e-003
4.493399e+002,4.773484e-003
4.512684e+002,4.031518e-003
4.531969e+002,4.747186e-003
4.551254e+002,5.079750e-003
4.570539e+002,4.075163e-003
4.589824e+002,2.933700e-003
4.609109e+002,2.801453e-003
4.628394e+002,2.977369e-003
4.647679e+002,2.510019e-003
4.666964e+002,2.735895e-003
4.686249e+002,2.374903e-003
4.705533e+002,2.274268e-003
4.724819e+002,1.082213e-003
4.744103e+002,7.408792e-004
4.763389e+002,8.405952e-004
4.782673e+002,-4.448616e-004
4.801959e+002,-6.364690e-004
4.821243e+002,-7.272313e-005
4.840529e+002,-1.340586e-003
4.859813e+002,-1.466816e-003
4.879099e+002,3.615074e-005
4.898383e+002,-1.173181e-003
4.917668e+002,-3.409428e-003
4.936953e+002,-5.193301e-003
4.956238e+002,-4.079461e-003
4.975523e+002,-1.266655e-003
4.994808e+002,-3.126414e-003
5.014093e+002,-4.228523e-003
5.033378e+002,-1.832945e-003
5.052663e+002,-7.339280e-004
5.071948e+002,-1.844889e-003
5.091233e+002,-4.585283e-003
5.110518e+002,-5.292787e-003
5.129803e+002,-4.003039e-003
5.149088e+002,-3.460644e-003
5.168373e+002,-3.931267e-003
5.187658e+002,-4.839399e-003
5.206943e+002,-5.392152e-003
5.226228e+002,-5.059144e-003
5.245513e+002,-4.334037e-003
5.264798e+002,-5.059177e-003
5.284083e+002,-6.195989e-003
5.303368e+002,-5.771337e-003
5.322653e+002,-4.303527e-003
5.341938e+002,-2.419949e-003
5.361223e+002,-2.675500e-003
5.380508e+002,-3.660454e-003
5.399792e+002,-4.534921e-003
5.419078e+002,-2.883307e-003
5.438363e+002,-1.934919e-003
5.457648e+002,-2.724102e-003
5.476932e+002,-2.864282e-003
5.496218e+002,-3.022877e-003
5.515503e+002,-2.769605e-003
5.534788e+002,-2.720711e-003
5.554072e+002,-2.745932e-003
5.573358e+002,-2.172227e-003
5.592643e+002,-1.563693e-003
5.611927e+002,-1.603045e-003
5.631212e+002,-4.904712e-004
5.650497e+002,1.876786e-004
5.669783e+002,-1.123711e-003
5.689067e+002,-1.265696e-003
5.708352e+002,-5.598693e-004
5.727637e+002,-3.548531e-004
5.746923e+002,-1.327473e-003
5.766207e+002,-3.670212e-003
5.785492e+002,-1.787509e-003
5.804777e+002,9.141733e-003
5.824063e+002,6.087741e-003
5.843347e+002,-1.922219e-003
5.862632e+002,-1.739561e-003
5.881917e+002,-2.111000e-003
5.901202e+002,-2.069089e-003
5.920487e+002,-2.478431e-003
5.939772e+002,-4.350242e-003
5.959057e+002,-4.735975e-003
5.978342e+002,-2.444562e-003
5.997627e+002,-1.879696e-003
6.016912e+002,-2.283647e-003
6.036197e+002,-2.820271e-003
6.055482e+002,-1.590995e-003
6.074767e+002,-6.222127e-005
6.094052e+002,5.368380e-004
6.113337e+002,-3.523369e-004
6.132622e+002,-9.728846e-004
6.151907e+002,-1.409122e-003
6.171192e+002,-1.861979e-003
6.190477e+002,-2.259124e-003
6.209762e+002,-1.208901e-003
6.229047e+002,-1.411434e-003
6.248332e+002,-2.657848e-003
6.267617e+002,-3.714893e-003
6.286902e+002,-4.292110e-003
6.306187e+002,-4.232690e-003
6.325472e+002,-3.776814e-003
6.344756e+002,-3.579161e-003
6.364042e+002,-3.343180e-003
6.383326e+002,-3.158651e-003
6.402612e+002,-2.981481e-003
6.421896e+002,-2.372169e-003
6.441182e+002,-2.193524e-003
6.460466e+002,-2.514308e-003
6.479752e+002,-2.027734e-003
6.499036e+002,-2.106251e-003
6.518322e+002,-2.377475e-003
6.537606e+002,-2.141400e-003
6.556891e+002,-2.130091e-003
6.576177e+002,-2.273034e-003
6.595461e+002,-2.152577e-003
6.614746e+002,-2.220754e-003
6.634031e+002,-2.604067e-003
6.653317e+002,-2.014278e-003
6.672601e+002,-1.362618e-003
6.691886e+002,-1.582379e-003
6.711171e+002,-1.281125e-003
6.730457e+002,-1.094065e-003
6.749741e+002,-1.082332e-003
6.769026e+002,-8.531251e-004
6.788311e+002,-6.805698e-004
6.807596e+002,-5.357781e-004
6.826881e+002,-4.994734e-004
6.846166e+002,-3.966983e-004
6.865451e+002,-1.848817e-004
6.884736e+002,1.077653e-004
6.904021e+002,4.724833e-004
6.923306e+002,5.740952e-004
6.942591e+002,8.728383e-005
6.961876e+002,-5.903123e-004
6.981161e+002,-7.763652e-004
7.000446e+002,-7.148085e-004
7.019731e+002,-6.163857e-004
7.039016e+002,-6.258815e-004
7.058301e+002,-9.296070e-004
7.077585e+002,-1.312773e-003
7.096871e+002,-1.465099e-003
7.116156e+002,-1.348778e-003
7.135441e+002,-1.542298e-003
7.154725e+002,-2.482846e-003
7.174011e+002,-3.113156e-003
7.193296e+002,-3.045711e-003
7.212581e+002,-3.317006e-003
7.231865e+002,-3.492955e-003
7.251151e+002,-3.013532e-003
7.270436e+002,-3.201411e-003
7.289720e+002,-3.283729e-003
7.309005e+002,-3.201049e-003
7.328290e+002,-3.266497e-003
7.347576e+002,-3.174933e-003
7.366860e+002,-2.787712e-003
7.386145e+002,-2.635981e-003
7.405430e+002,-2.653534e-003
7.424716e+002,-3.141941e-003
7.444000e+002,-3.069927e-003
7.463285e+002,-2.244389e-003
7.482570e+002,-1.722334e-003
7.501855e+002,-1.381214e-003
7.521140e+002,-1.024554e-003
7.540425e+002,-8.540180e-004
7.559710e+002,-3.948776e-004
7.578995e+002,-2.468778e-004
7.598280e+002,-4.242067e-004
7.617565e+002,-8.975084e-005
7.636850e+002,4.948405e-004
7.656135e+002,9.987140e-004
7.675420e+002,1.389609e-003
7.694705e+002,1.671279e-003
7.713990e+002,1.550888e-003
7.733275e+002,1.180213e-003
7.752560e+002,1.155229e-003
7.771844e+002,1.223606e-003
7.791130e+002,1.140545e-003
7.810415e+002,1.109584e-003
7.829700e+002,1.322935e-003
7.848984e+002,1.657974e-003
7.868270e+002,1.764189e-003
7.887555e+002,1.301864e-003
7.906840e+002,8.177554e-004
7.926124e+002,2.033581e-004
7.945410e+002,2.321660e-004
7.964695e+002,7.650758e-004
7.983979e+002,9.043737e-004
8.003264e+002,5.883619e-004
8.022549e+002,2.451285e-004
8.041835e+002,1.908277e-004
8.061119e+002,4.981245e-004
8.080404e+002,1.159814e-003
8.099689e+002,1.323234e-003
8.118975e+002,8.295403e-004
8.138259e+002,1.084903e-003
8.157545e+002,1.539848e-003
8.176830e+002,1.077230e-003
8.196115e+002,3.270567e-004
8.215399e+002,5.202075e-006
8.234684e+002,-1.034653e-004
8.253970e+002,-4.425777e-004
8.273254e+002,-8.240896e-004
8.292539e+002,-5.503058e-004
8.311824e+002,-7.033628e-004
8.331110e+002,-9.636608e-004
8.350394e+002,-1.208373e-003
8.369679e+002,-9.255072e-004
8.388964e+002,-7.877097e-004
8.408250e+002,-1.117729e-003
8.427534e+002,-1.444790e-003
8.446819e+002,-1.075127e-003
8.466104e+002,-8.586145e-004
8.485389e+002,-1.086695e-003
8.504674e+002,-1.397596e-003
8.523959e+002,-1.625591e-003
8.543244e+002,-1.504097e-003
8.562529e+002,-1.235499e-003
8.581814e+002,-1.359612e-003
8.601099e+002,-1.132997e-003
8.620384e+002,-1.199088e-003
8.639669e+002,-1.696855e-003
8.658954e+002,-1.471802e-003
8.678239e+002,-1.230279e-003
8.697524e+002,-1.632028e-003
8.716809e+002,-1.894146e-003
8.736094e+002,-2.109450e-003
8.755378e+002,-1.865510e-003
8.774664e+002,-1.305935e-003
8.793949e+002,-1.190662e-003
8.813234e+002,-1.449842e-003
8.832518e+002,-1.310757e-003
8.851804e+002,-1.125033e-003
8.871089e+002,-9.502710e-004
8.890374e+002,-5.425953e-004
8.909658e+002,-3.954072e-004
8.928943e+002,4.344090e-005
8.948229e+002,1.257950e-004
8.967513e+002,-1.136680e-004
8.986798e+002,-4.745514e-004
9.006083e+002,-7.112359e-004
9.025369e+002,-3.572368e-004
9.044653e+002,-2.024443e-005
9.063938e+002,-2.455863e-004
9.083223e+002,-4.414523e-004
9.102509e+002,-3.017131e-004
9.121793e+002,-4.533021e-004
9.141078e+002,-8.841758e-004
9.160364e+002,-9.850174e-004
9.179648e+002,-7.785150e-004
9.198933e+002,-1.244255e-003
9.218218e+002,-2.075321e-003
9.237504e+002,-2.329954e-003
9.256788e+002,-2.237665e-003
9.276073e+002,-2.226062e-003
9.295358e+002,-2.113605e-003
9.314644e+002,-2.225798e-003
9.333928e+002,-2.464034e-003
9.353213e+002,-2.586578e-003
9.372498e+002,-2.646849e-003
9.391783e+002,-2.830509e-003
9.411068e+002,-2.872314e-003
9.430353e+002,-2.754987e-003
9.449637e+002,-2.604594e-003
9.468923e+002,-2.662360e-003
9.488208e+002,-2.785013e-003
9.507493e+002,-2.898810e-003
9.526777e+002,-2.811844e-003
9.546063e+002,-2.863262e-003
9.565348e+002,-2.796897e-003
9.584633e+002,-2.568264e-003
9.603917e+002,-2.419224e-003
9.623203e+002,-2.705070e-003
9.642488e+002,-2.657783e-003
9.661772e+002,-2.259750e-003
9.681057e+002,-2.139026e-003
9.700343e+002,-2.312552e-003
9.719628e+002,-2.411810e-003
9.738912e+002,-2.467790e-003
9.758197e+002,-2.319506e-003
9.777483e+002,-2.353946e-003
9.796768e+002,-2.214161e-003
9.816052e+002,-1.979581e-003
9.835337e+002,-1.968597e-003
9.854623e+002,-2.014641e-003
9.873907e+002,-1.977107e-003
9.893192e+002,-1.904603e-003
9.912477e+002,-1.838653e-003
9.931763e+002,-1.954909e-003
9.951047e+002,-1.850663e-003
9.970332e+002,-1.797046e-003
9.989617e+002,-1.798597e-003
1.000890e+003,-1.593933e-003
1.002819e+003,-1.431250e-003
1.004747e+003,-1.359150e-003
1.006676e+003,-1.161285e-003
1.008604e+003,-8.678737e-004
1.010533e+003,-8.461475e-004
1.012461e+003,-6.429537e-004
1.014390e+003,-3.668045e-004
1.016318e+003,-2.384333e-004
1.018247e+003,1.332193e-004
1.020175e+003,3.597859e-004
1.022104e+003,4.755017e-004
1.024032e+003,9.556091e-004
1.025961e+003,1.214768e-003
1.027889e+003,1.172372e-003
1.029818e+003,1.297843e-003
1.031746e+003,1.455397e-003
1.033675e+003,1.491569e-003
1.035603e+003,1.859015e-003
1.037532e+003,2.164332e-003
1.039460e+003,2.357179e-003
1.041389e+003,2.582709e-003
1.043317e+003,2.564744e-003
1.045246e+003,2.366341e-003
1.047174e+003,2.323533e-003
1.049103e+003,2.486192e-003
1.051031e+003,2.745865e-003
1.052960e+003,2.991882e-003
1.054888e+003,2.909082e-003
1.056817e+003,2.538247e-003
1.058745e+003,2.522850e-003
1.060674e+003,2.490157e-003
1.062602e+003,2.469297e-003
1.064531e+003,2.598076e-003
1.066459e+003,2.519751e-003
1.068388e+003,2.281196e-003
1.070316e+003,2.284693e-003
1.072245e+003,2.475695e-003
1.074173e+003,2.556378e-003
1.076102e+003,2.565111e-003
1.078030e+003,2.510852e-003
1.079959e+003,2.565544e-003
1.081887e+003,2.686650e-003
1.083816e+003,2.792350e-003
1.085744e+003,3.039293e-003
1.087673e+003,3.246350e-003
1.089601e+003,3.059347e-003
1.091530e+003,3.105932e-003
1.093458e+003,3.415265e-003
1.095387e+003,3.425885e-003
1.097315e+003,3.446658e-003
1.099244e+003,3.479323e-003
1.101172e+003,3.507347e-003
1.103101e+003,3.683816e-003
1.105029e+003,3.591597e-003
1.106958e+003,3.367813e-003
1.108886e+003,3.358230e-003
1.110815e+003,3.563300e-003
1.112743e+003,3.845915e-003
1.114672e+003,3.786450e-003
1.116600e+003,3.853303e-003
1.118529e+003,3.888071e-003
1.120457e+003,3.704601e-003
1.122386e+003,3.717534e-003
1.124314e+003,3.773782e-003
1.126243e+003,3.479791e-003
1.128171e+003,3.363472e-003
1.130100e+003,3.391922e-003
1.132028e+003,3.029984e-003
1.133957e+003,2.720891e-003
1.135885e+003,2.569210e-003
1.137814e+003,2.416116e-003
1.139742e+003,2.250819e-003
1.141671e+003,2.013711e-003
1.143599e+003,1.612875e-003
1.145528e+003,1.277438e-003
1.147456e+003,9.639774e-004
1.149385e+003,6.303353e-004
1.151313e+003,3.692038e-004
1.153242e+003,1.795242e-004
1.155170e+003,9.510510e-005
1.157099e+003,-6.735628e-005
1.159027e+003,-3.511782e-004
1.160956e+003,-3.427358e-004
1.162884e+003,-3.755444e-004
1.164813e+003,-4.602198e-004
1.166741e+003,-4.348322e-004
1.168670e+003,-3.407824e-004
1.170598e+003,-2.866805e-004
1.172526e+003,-4.045769e-004
1.174455e+003,-3.536612e-004
1.176384e+003,-1.810729e-004
1.178312e+003,-1.717329e-004
1.180240e+003,-1.221149e-004
1.182169e+003,-1.952812e-004
1.184098e+003,-1.510318e-004
1.186026e+003,-8.276095e-005
1.187954e+003,-2.552228e-004
1.189883e+003,-6.022573e-004
1.191812e+003,-6.744826e-004
1.193740e+003,-3.898789e-004
1.195668e+003,-2.409170e-004
1.197597e+003,-2.464142e-004
1.199526e+003,-1.450035e-004
1.201454e+003,-2.019050e-004
1.203382e+003,-2.292271e-004
1.205311e+003,-1.549734e-004
1.207240e+003,-2.982063e-007
1.209168e+003,2.327627e-004
1.211096e+003,4.062808e-004
1.213025e+003,5.498760e-004
1.214953e+003,5.962254e-004
1.216882e+003,6.062457e-004
1.218810e+003,6.307335e-004
1.220739e+003,5.681895e-004
1.222667e+003,7.966761e-004
1.224596e+003,1.093806e-003
1.226524e+003,1.162173e-003
1.228453e+003,1.263049e-003
1.230381e+003,1.539748e-003
1.232310e+003,1.822513e-003
1.234238e+003,1.946341e-003
1.236167e+003,2.023631e-003
1.238095e+003,2.011547e-003
1.240024e+003,1.966045e-003
1.241952e+003,2.084387e-003
1.243881e+003,2.081024e-003
1.245809e+003,1.981922e-003
1.247738e+003,1.768281e-003
1.249666e+003,1.614305e-003
1.251595e+003,1.654947e-003
1.253523e+003,1.618429e-003
1.255452e+003,1.462079e-003
1.257380e+003,1.335797e-003
1.259309e+003,1.293223e-003
1.261237e+003,1.377178e-003
1.263166e+003,1.504104e-003
1.265094e+003,1.651023e-003
1.267023e+003,1.849931e-003
1.268951e+003,2.094175e-003
1.270880e+003,2.318670e-003
1.272808e+003,2.672347e-003
1.274737e+003,3.076666e-003
1.276665e+003,3.368380e-003
1.278594e+003,3.597043e-003
1.280522e+003,3.745406e-003
1.282451e+003,3.894590e-003
1.284379e+003,4.060380e-003
1.286308e+003,4.489963e-003
1.288236e+003,4.872790e-003
1.290165e+003,5.131346e-003
1.292093e+003,5.336350e-003
1.294022e+003,5.449743e-003
1.295950e+003,5.674200e-003
1.297879e+003,5.822906e-003
1.299807e+003,5.861996e-003
1.301736e+003,5.752290e-003
1.303664e+003,5.644626e-003
1.305593e+003,5.687628e-003
1.307521e+003,5.714418e-003
1.309450e+003,5.559205e-003
1.311378e+003,5.297039e-003
1.313307e+003,5.147306e-003
1.315235e+003,5.025780e-003
1.317164e+003,4.713556e-003
1.319092e+003,4.340909e-003
1.321021e+003,3.946447e-003
1.322949e+003,3.591597e-003
1.324878e+003,3.387748e-003
1.326806e+003,3.329013e-003
1.328735e+003,3.341033e-003
1.330663e+003,3.226488e-003
1.332592e+003,3.126790e-003
1.334520e+003,3.076432e-003
1.336449e+003,2.934501e-003
1.338377e+003,2.799920e-003
1.340306e+003,2.718324e-003
1.342234e+003,2.770141e-003
1.344163e+003,2.856849e-003
1.346091e+003,2.821997e-003
1.348020e+003,2.616676e-003
1.349948e+003,2.442905e-003
1.351877e+003,2.289123e-003
1.353805e+003,2.203594e-003
1.355734e+003,1.983952e-003
1.357662e+003,1.744827e-003
1.359591e+003,1.664493e-003
1.361519e+003,1.591025e-003
1.363448e+003,1.456527e-003
1.365376e+003,1.217393e-003
1.367305e+003,1.051223e-003
1.369233e+003,1.031627e-003
1.371162e+003,9.107820e-004
1.373090e+003,8.690470e-004
1.375019e+003,9.507277e-004
1.376947e+003,1.016914e-003
1.378876e+003,1.043251e-003
1.380804e+003,1.116195e-003
1.382733e+003,1.106262e-003
1.384661e+003,9.053366e-004
1.386590e+003,6.273489e-004
1.388518e+003,5.069815e-004
1.390447e+003,4.778237e-004
1.392375e+003,3.316658e-004
1.394304e+003,1.270545e-004
1.396232e+003,-3.164186e-005
1.398161e+003,-1.196305e-004
1.400089e+003,-3.396106e-005
1.402018e+003,4.065737e-005
1.403946e+003,-1.610284e-005
1.405875e+003,-7.464457e-005
1.407803e+003,1.819097e-005
1.409732e+003,1.006066e-004
1.411660e+003,8.211391e-005
1.413589e+003,1.492945e-004
1.415517e+003,4.886042e-004
1.417446e+003,9.541480e-004
1.419374e+003,1.390706e-003
1.421303e+003,1.841479e-003
1.423231e+003,2.321168e-003
1.425160e+003,2.968661e-003
1.427088e+003,3.596809e-003
1.429017e+003,3.925182e-003
1.430945e+003,4.099078e-003
1.432874e+003,4.307611e-003
1.434802e+003,4.630360e-003
1.436731e+003,4.926238e-003
1.438659e+003,5.193646e-003
1.440588e+003,5.462661e-003
1.442516e+003,5.855145e-003
1.444445e+003,6.237194e-003
1.446373e+003,6.691312e-003
1.448302e+003,7.033652e-003
1.450230e+003,7.294847e-003
1.452159e+003,7.710577e-003
1.454087e+003,8.185923e-003
1.456016e+003,8.193723e-003
1.457944e+003,8.222660e-003
1.459873e+003,8.554687e-003
1.461801e+003,8.610854e-003
1.463730e+003,8.568035e-003
1.465658e+003,8.676156e-003
1.467587e+003,8.599566e-003
1.469515e+003,8.319246e-003
1.471444e+003,7.995398e-003
1.473372e+003,7.706495e-003
1.475301e+003,7.601582e-003
1.477229e+003,7.281470e-003
1.479158e+003,6.916041e-003
1.481086e+003,6.484692e-003
1.483015e+003,6.158748e-003
1.484943e+003,5.824619e-003
1.486872e+003,5.389017e-003
1.488800e+003,4.903316e-003
1.490729e+003,4.526222e-003
1.492657e+003,4.213286e-003
1.494586e+003,3.843174e-003
1.496514e+003,3.353087e-003
1.498443e+003,2.990280e-003
1.500371e+003,2.761771e-003
1.502300e+003,2.574010e-003
1.504228e+003,2.311374e-003
1.506157e+003,1.918883e-003
1.508085e+003,1.764089e-003
1.510014e+003,1.740668e-003
1.511942e+003,1.689640e-003
1.513871e+003,1.754874e-003
1.515799e+003,1.682754e-003
1.517728e+003,1.704076e-003
1.519656e+003,1.731753e-003
1.521585e+003,1.582977e-003
1.523513e+003,1.706837e-003
1.525442e+003,2.048964e-003
1.527370e+003,2.325898e-003
1.529299e+003,2.484525e-003
1.531227e+003,2.659012e-003
1.533156e+003,2.947778e-003
1.535084e+003,3.329915e-003
1.537013e+003,3.576195e-003
1.538941e+003,3.701092e-003
1.540870e+003,3.863499e-003
1.542798e+003,4.103627e-003
1.544727e+003,4.484305e-003
1.546655e+003,4.868601e-003
1.548584e+003,5.160248e-003
1.550512e+003,5.336250e-003
1.552441e+003,5.378718e-003
1.554369e+003,5.482223e-003
1.556298e+003,5.589746e-003
1.558226e+003,5.592734e-003
1.560155e+003,5.932697e-003
1.562083e+003,6.475376e-003
1.564012e+003,6.827577e-003
1.565940e+003,7.174268e-003
1.567869e+003,7.439997e-003
1.569797e+003,7.588938e-003
1.571726e+003,7.818518e-003
1.573654e+003,7.899120e-003
1.575583e+003,7.821318e-003
1.577511e+003,7.706360e-003
1.579440e+003,7.613856e-003
1.581368e+003,7.580880e-003
1.583297e+003,7.469660e-003
1.585225e+003,7.259772e-003
1.587154e+003,7.067497e-003
1.589082e+003,6.732231e-003
1.591010e+003,6.285029e-003
1.592939e+003,5.810380e-003
1.594868e+003,5.468566e-003
1.596796e+003,5.043143e-003
1.598724e+003,4.515006e-003
1.600653e+003,3.944809e-003
1.602582e+003,3.551040e-003
1.604510e+003,3.143009e-003
1.606438e+003,2.736496e-003
1.608367e+003,2.321068e-003
1.610296e+003,2.011580e-003
1.612224e+003,1.650823e-003
1.614152e+003,1.268831e-003
1.616081e+003,7.262091e-004
1.618010e+003,4.972289e-004
1.619938e+003,4.627645e-004
1.621866e+003,2.321328e-004
1.623795e+003,-1.331784e-004
1.625724e+003,-1.845836e-004
1.627652e+003,-1.683877e-004
1.629580e+003,-2.774090e-004
1.631509e+003,-5.146311e-004
1.633438e+003,-7.533444e-004
1.635366e+003,-1.039363e-003
1.637294e+003,-1.302961e-003
1.639223e+003,-1.512318e-003
1.641151e+003,-1.839610e-003
1.643080e+003,-2.224941e-003
1.645008e+003,-2.655477e-003
1.646937e+003,-3.050121e-003
1.648865e+003,-3.259558e-003
1.650794e+003,-3.475173e-003
1.652722e+003,-3.999789e-003
1.654651e+003,-4.389441e-003
1.656579e+003,-4.497145e-003
1.658508e+003,-4.833566e-003
1.660436e+003,-5.122380e-003
1.662365e+003,-5.376836e-003
1.664293e+003,-5.582048e-003
1.666222e+003,-5.593463e-003
1.668150e+003,-5.764438e-003
1.670079e+003,-6.083282e-003
1.672007e+003,-6.060900e-003
1.673936e+003,-6.167341e-003
1.675864e+003,-6.206834e-003
1.677793e+003,-5.983715e-003
1.679721e+003,-5.819006e-003
1.681650e+003,-5.720229e-003
1.683578e+003,-5.732197e-003
1.685507e+003,-5.571874e-003
1.687435e+003,-5.438063e-003
1.689364e+003,-5.295438e-003
1.691292e+003,-5.147462e-003
1.693221e+003,-5.069624e-003
1.695149e+003,-5.089568e-003
1.697078e+003,-4.937525e-003
1.699006e+003,-4.895460e-003
1.700935e+003,-4.953708e-003
1.702863e+003,-4.701658e-003
1.704792e+003,-4.564988e-003
1.706720e+003,-4.548233e-003
1.708649e+003,-4.574726e-003
1.710577e+003,-4.609413e-003
1.712506e+003,-4.673338e-003
1.714434e+003,-4.752722e-003
1.716363e+003,-4.894903e-003
1.718291e+003,-4.971626e-003
1.720220e+003,-4.875900e-003
1.722148e+003,-4.804665e-003
1.724077e+003,-4.836319e-003
1.726005e+003,-4.896836e-003
1.727934e+003,-4.900767e-003
1.729862e+003,-4.838482e-003
1.731791e+003,-4.830847e-003
1.733719e+003,-5.007002e-003
1.735648e+003,-5.065890e-003
1.737576e+003,-5.042539e-003
1.739505e+003,-5.116453e-003
1.741433e+003,-4.998322e-003
1.743362e+003,-4.906206e-003
1.745290e+003,-4.801257e-003
1.747219e+003,-4.619346e-003
1.749147e+003,-4.505967e-003
1.751076e+003,-4.494883e-003
1.753004e+003,-4.428144e-003
1.754933e+003,-4.283383e-003
1.756861e+003,-4.195446e-003
1.758790e+003,-4.192165e-003
1.760718e+003,-4.203978e-003
1.762647e+003,-4.162597e-003
1.764575e+003,-4.072961e-003
1.766504e+003,-3.983341e-003
1.768432e+003,-3.903520e-003
1.770361e+003,-3.979499e-003
1.772289e+003,-4.175986e-003
1.774218e+003,-4.156755e-003
1.776146e+003,-3.945747e-003
1.778075e+003,-3.793336e-003
1.780003e+003,-3.797902e-003
1.781932e+003,-3.877840e-003
1.783860e+003,-3.823192e-003
1.785789e+003,-3.687034e-003
1.787717e+003,-3.539889e-003
1.789646e+003,-3.620565e-003
1.791574e+003,-3.776289e-003
1.793503e+003,-3.842701e-003
1.795431e+003,-3.786044e-003
1.797360e+003,-3.715977e-003
1.799288e+003,-3.651517e-003
1.801217e+003,-3.752999e-003
1.803145e+003,-3.718901e-003
1.805074e+003,-3.581954e-003
1.807002e+003,-3.584254e-003
1.808931e+003,-3.739301e-003
1.810859e+003,-3.738874e-003
1.812788e+003,-3.621222e-003
1.814716e+003,-3.539100e-003
1.816645e+003,-3.593456e-003
1.818573e+003,-3.777110e-003
1.820502e+003,-3.847594e-003
1.822430e+003,-3.807492e-003
1.824359e+003,-3.840697e-003
1.826287e+003,-3.884671e-003
1.828216e+003,-3.947061e-003
1.830144e+003,-3.944302e-003
1.832073e+003,-3.865131e-003
1.834001e+003,-3.786208e-003
1.835930e+003,-3.880008e-003
1.837858e+003,-4.005502e-003
1.839787e+003,-4.045158e-003
1.841715e+003,-3.991220e-003
1.843644e+003,-3.999691e-003
1.845572e+003,-4.140477e-003
1.847501e+003,-4.202337e-003
1.849429e+003,-4.053201e-003
1.851358e+003,-3.900433e-003
1.853286e+003,-3.851666e-003
1.855215e+003,-3.792153e-003
1.857143e+003,-3.838300e-003
1.859072e+003,-3.944204e-003
1.861000e+003,-3.825458e-003
1.862929e+003,-3.710228e-003
1.864857e+003,-3.678524e-003
1.866786e+003,-3.759471e-003
1.868714e+003,-3.838431e-003
1.870643e+003,-3.806310e-003
1.872571e+003,-3.722350e-003
1.874500e+003,-3.631178e-003
1.876428e+003,-3.535485e-003
1.878357e+003,-3.559903e-003
1.880285e+003,-3.617148e-003
1.882214e+003,-3.636107e-003
1.884142e+003,-3.618035e-003
1.886071e+003,-3.532856e-003
1.887999e+003,-3.517606e-003
1.889928e+003,-3.513333e-003
1.891856e+003,-3.435563e-003
1.893785e+003,-3.428396e-003
1.895713e+003,-3.427311e-003
1.897642e+003,-3.389867e-003
1.899570e+003,-3.377374e-003
1.901499e+003,-3.373560e-003
1.903427e+003,-3.351630e-003
1.905356e+003,-3.399729e-003
1.907284e+003,-3.327660e-003
1.909213e+003,-3.200063e-003
1.911141e+003,-3.170164e-003
1.913070e+003,-3.136283e-003
1.914998e+003,-3.205720e-003
1.916927e+003,-3.334236e-003
1.918855e+003,-3.342325e-003
1.920784e+003,-3.297376e-003
1.922712e+003,-3.329041e-003
1.924641e+003,-3.311088e-003
1.926569e+003,-3.320459e-003
1.928498e+003,-3.292246e-003
1.930426e+003,-3.250843e-003
1.932355e+003,-3.250843e-003
1.934283e+003,-3.279717e-003
1.936212e+003,-3.350052e-003
1.938140e+003,-3.379445e-003
1.940069e+003,-3.414885e-003
1.941997e+003,-3.462222e-003
1.943926e+003,-3.425668e-003
1.945854e+003,-3.412781e-003
1.947783e+003,-3.514976e-003
1.949711e+003,-3.581691e-003
1.951640e+003,-3.551326e-003
1.953568e+003,-3.529668e-003
1.955497e+003,-3.508469e-003
1.957425e+003,-3.526019e-003
1.959354e+003,-3.569828e-003
1.961282e+003,-3.494401e-003
1.963211e+003,-3.463832e-003
1.965139e+003,-3.489405e-003
1.967068e+003,-3.489931e-003
1.968996e+003,-3.465016e-003
1.970925e+003,-3.453708e-003
1.972853e+003,-3.507023e-003
1.974782e+003,-3.518362e-003
1.976710e+003,-3.479446e-003
1.978639e+003,-3.432735e-003
1.980567e+003,-3.405022e-003
1.982496e+003,-3.339530e-003
1.984424e+003,-3.338346e-003
1.986353e+003,-3.326148e-003
1.988281e+003,-3.240977e-003
1.990210e+003,-3.169572e-003
1.992138e+003,-3.175854e-003
1.994067e+003,-3.184077e-003
1.995995e+003,-3.147072e-003
1.997924e+003,-3.042882e-003
1.999852e+003,-3.008596e-003
2.001781e+003,-3.071243e-003
2.003709e+003,-3.113814e-003
2.005638e+003,-3.070190e-003
2.007566e+003,-3.068841e-003
2.009495e+003,-3.069960e-003
2.011423e+003,-3.028075e-003
2.013352e+003,-2.961078e-003
2.015280e+003,-2.917636e-003
2.017208e+003,-2.969963e-003
2.019137e+003,-3.042981e-003
2.021066e+003,-2.961901e-003
2.022994e+003,-2.823563e-003
2.024922e+003,-2.865665e-003
2.026851e+003,-2.923626e-003
2.028780e+003,-2.911087e-003
2.030708e+003,-2.926819e-003
2.032636e+003,-2.907960e-003
2.034565e+003,-2.860266e-003
2.036494e+003,-2.855131e-003
2.038422e+003,-2.820930e-003
2.040350e+003,-2.776025e-003
2.042279e+003,-2.730095e-003
2.044208e+003,-2.774840e-003
2.046136e+003,-2.740928e-003
2.048064e+003,-2.728185e-003
2.049993e+003,-2.767992e-003
2.051921e+003,-2.779976e-003
2.053850e+003,-2.796140e-003
2.055778e+003,-2.796963e-003
2.057707e+003,-2.706815e-003
2.059635e+003,-2.640131e-003
2.061564e+003,-2.682579e-003
2.063492e+003,-2.727197e-003
2.065421e+003,-2.724465e-003
2.067349e+003,-2.716200e-003
2.069278e+003,-2.702963e-003
2.071206e+003,-2.656861e-003
2.073135e+003,-2.644774e-003
2.075063e+003,-2.596920e-003
2.076992e+003,-2.526562e-003
2.078920e+003,-2.462156e-003
2.080849e+003,-2.455797e-003
2.082777e+003,-2.423969e-003
2.084706e+003,-2.334996e-003
2.086634e+003,-2.328339e-003
2.088563e+003,-2.351507e-003
2.090491e+003,-2.277945e-003
2.092420e+003,-2.212678e-003
2.094348e+003,-2.209645e-003
2.096277e+003,-2.108725e-003
2.098205e+003,-2.030042e-003
2.100134e+003,-2.046895e-003
2.102062e+003,-2.012431e-003
2.103991e+003,-1.937987e-003
2.105919e+003,-1.884645e-003
2.107848e+003,-1.887284e-003
2.109776e+003,-1.794703e-003
2.111705e+003,-1.746260e-003
2.113633e+003,-1.745039e-003
2.115562e+003,-1.698109e-003
2.117490e+003,-1.648698e-003
2.119419e+003,-1.625657e-003
2.121347e+003,-1.531304e-003
2.123276e+003,-1.460971e-003
2.125204e+003,-1.490063e-003
2.127133e+003,-1.527573e-003
2.129061e+003,-1.456810e-003
2.130990e+003,-1.407108e-003
2.132918e+003,-1.371866e-003
2.134847e+003,-1.389570e-003
2.136775e+003,-1.431514e-003
2.138704e+003,-1.369323e-003
2.140632e+003,-1.296453e-003
2.142561e+003,-1.327638e-003
2.144489e+003,-1.329554e-003
2.146418e+003,-1.288492e-003
2.148346e+003,-1.271379e-003
2.150275e+003,-1.221853e-003
2.152203e+003,-1.219640e-003
2.154132e+003,-1.260675e-003
2.156060e+003,-1.287104e-003
2.157989e+003,-1.320800e-003
2.159917e+003,-1.384517e-003
2.161846e+003,-1.370413e-003
2.163774e+003,-1.317364e-003
2.165703e+003,-1.324268e-003
2.167631e+003,-1.270024e-003
2.169560e+003,-1.176519e-003
2.171488e+003,-1.151999e-003
2.173417e+003,-1.229387e-003
2.175345e+003,-1.234442e-003
2.177274e+003,-1.146646e-003
2.179202e+003,-1.125991e-003
2.181131e+003,-1.184185e-003
2.183059e+003,-1.209298e-003
2.184988e+003,-1.189076e-003
2.186916e+003,-1.220400e-003
2.188845e+003,-1.249310e-003
2.190773e+003,-1.116903e-003
2.192702e+003,-1.063889e-003
2.194630e+003,-1.145952e-003
2.196559e+003,-1.237184e-003
2.198487e+003,-1.267547e-003
2.200416e+003,-1.224133e-003
2.202344e+003,-1.159236e-003
2.204273e+003,-1.133460e-003
2.206201e+003,-1.157749e-003
2.208130e+003,-1.176849e-003
2.210058e+003,-1.222316e-003
2.211987e+003,-1.217888e-003
2.213915e+003,-1.146514e-003
2.215844e+003,-1.162177e-003
2.217772e+003,-1.151140e-003
2.219701e+003,-1.084315e-003
2.221629e+003,-1.147406e-003
2.223558e+003,-1.141556e-003
2.225486e+003,-1.071392e-003
2.227415e+003,-1.038503e-003
2.229343e+003,-1.075986e-003
2.231272e+003,-1.001712e-003
2.233200e+003,-9.716614e-004
2.235129e+003,-9.890506e-004
2.237057e+003,-9.848190e-004
2.238986e+003,-1.055626e-003
2.240914e+003,-1.101237e-003
2.242843e+003,-1.113069e-003
2.244771e+003,-1.171893e-003
2.246700e+003,-1.244321e-003
2.248628e+003,-1.190364e-003
2.250557e+003,-1.179328e-003
2.252485e+003,-1.238836e-003
2.254414e+003,-1.280563e-003
2.256342e+003,-1.264078e-003
2.258271e+003,-1.249310e-003
2.260199e+003,-1.247459e-003
2.262128e+003,-1.276896e-003
2.264056e+003,-1.242338e-003
2.265985e+003,-1.277260e-003
2.267913e+003,-1.439572e-003
2.269842e+003,-1.484978e-003
2.271770e+003,-1.395020e-003
2.273699e+003,-1.473255e-003
2.275627e+003,-1.486662e-003
2.277556e+003,-1.486893e-003
2.279484e+003,-1.604563e-003
2.281413e+003,-1.647576e-003
2.283341e+003,-1.744577e-003
2.285270e+003,-1.779326e-003
2.287198e+003,-1.686260e-003
2.289127e+003,-1.648599e-003
2.291055e+003,-1.682860e-003
2.292984e+003,-1.699660e-003
2.294912e+003,-1.704545e-003
2.296841e+003,-1.662528e-003
2.298769e+003,-1.719726e-003
2.300698e+003,-1.716261e-003
2.302626e+003,-1.686557e-003
2.304555e+003,-1.682728e-003
2.306483e+003,-1.621993e-003
2.308412e+003,-1.480388e-003
2.310340e+003,-1.426098e-003
2.312269e+003,-1.501158e-003
2.314197e+003,-1.456381e-003
2.316125e+003,-1.308941e-003
2.318054e+003,-1.296453e-003
2.319983e+003,-1.281422e-003
2.321911e+003,-1.261137e-003
2.323840e+003,-1.111681e-003
2.325768e+003,-1.006770e-003
2.327697e+003,-1.098362e-003
2.329625e+003,-1.111416e-003
2.331553e+003,-1.034934e-003
2.333482e+003,-9.540400e-004
2.335411e+003,-8.797449e-004
2.337339e+003,-8.574902e-004
2.339268e+003,-8.661541e-004
2.341196e+003,-8.148625e-004
2.343125e+003,-8.054370e-004
2.345053e+003,-8.585815e-004
2.346981e+003,-9.595281e-004
2.348910e+003,-9.754632e-004
2.350839e+003,-8.068922e-004
2.352767e+003,-7.004186e-004
2.354696e+003,-7.071340e-004
2.356624e+003,-5.930918e-004
2.358552e+003,-5.578838e-004
2.360481e+003,-5.763154e-004
2.362409e+003,-5.440845e-004
2.364338e+003,-6.266756e-004
2.366267e+003,-5.649654e-004
2.368195e+003,-6.133748e-004
2.370124e+003,-7.219867e-004
2.372052e+003,-7.243684e-004
2.373980e+003,-7.505660e-004
2.375909e+003,-8.289179e-004
2.377838e+003,-7.410067e-004
2.379766e+003,-6.475856e-004
2.381695e+003,-6.493391e-004
2.383623e+003,-5.853158e-004
2.385552e+003,-4.630994e-004
2.387480e+003,-4.713740e-004
2.389408e+003,-3.955728e-004
2.391337e+003,-2.703559e-004
2.393266e+003,-2.617463e-004
2.395194e+003,-2.106483e-004
2.397123e+003,-1.313235e-004
2.399051e+003,-1.936915e-004
2.400979e+003,-2.707201e-004
2.402908e+003,-2.421092e-004
2.404836e+003,-1.571926e-004
2.406765e+003,-2.173712e-004
2.408694e+003,-2.720115e-004
2.410622e+003,-2.424735e-004
2.412551e+003,-1.379482e-004
2.414479e+003,-4.101800e-005
2.416407e+003,-3.604834e-005
2.418336e+003,-5.870955e-005
2.420264e+003,-4.737909e-005
2.422193e+003,1.272366e-005
2.424122e+003,8.337325e-005
2.426050e+003,1.316283e-004
2.427979e+003,1.371303e-004
2.429907e+003,1.875460e-004
2.431835e+003,2.998008e-004
2.433764e+003,3.484116e-004
2.435692e+003,3.752394e-004
2.437621e+003,4.183198e-004
2.439550e+003,5.213124e-004
2.441478e+003,4.956698e-004
2.443406e+003,4.262798e-004
2.445335e+003,4.767954e-004
2.447263e+003,5.608574e-004
2.449192e+003,5.662984e-004
2.451121e+003,6.351799e-004
2.453049e+003,6.703548e-004
2.454978e+003,6.578110e-004
2.456906e+003,6.603330e-004
2.458834e+003,7.092829e-004
2.460763e+003,8.439150e-004
2.462691e+003,9.000241e-004
2.464620e+003,9.589298e-004
2.466549e+003,1.065671e-003
2.468477e+003,1.037671e-003
2.470406e+003,1.002101e-003
2.472334e+003,1.006950e-003
2.474262e+003,1.043118e-003
2.476191e+003,1.082678e-003
2.478119e+003,1.073211e-003
2.480048e+003,1.148817e-003
2.481977e+003,1.240021e-003
2.483905e+003,1.308411e-003
2.485833e+003,1.231813e-003
2.487762e+003,1.185728e-003
2.489690e+003,1.230052e-003
2.491619e+003,1.232910e-003
2.493547e+003,1.297145e-003
2.495476e+003,1.381898e-003
2.497405e+003,1.352714e-003
2.499333e+003,1.329017e-003
2.501261e+003,1.537021e-003
2.503190e+003,1.524985e-003
2.505118e+003,1.299438e-003
2.507047e+003,1.253612e-003
2.508975e+003,1.334102e-003
2.510904e+003,1.429101e-003
2.512833e+003,1.546033e-003
2.514761e+003,1.608352e-003
2.516689e+003,1.515043e-003
2.518618e+003,1.450111e-003
2.520546e+003,1.540912e-003
2.522475e+003,1.453934e-003
2.524403e+003,1.364979e-003
2.526332e+003,1.466534e-003
2.528260e+003,1.648694e-003
2.530189e+003,1.725432e-003
2.532117e+003,1.709930e-003
2.534046e+003,1.672343e-003
2.535974e+003,1.719345e-003
2.537903e+003,1.716750e-003
2.539831e+003,1.673341e-003
2.541760e+003,1.735811e-003
2.543688e+003,1.794797e-003
2.545617e+003,1.801651e-003
2.547545e+003,1.837985e-003
2.549474e+003,1.897717e-003
2.551402e+003,1.927204e-003
2.553331e+003,1.918018e-003
2.555259e+003,1.929134e-003
2.557188e+003,1.935757e-003
2.559116e+003,1.873191e-003
2.561045e+003,1.883441e-003
2.562973e+003,1.997400e-003
2.564902e+003,1.950202e-003
2.566830e+003,1.861411e-003
2.568759e+003,1.938686e-003
2.570687e+003,2.002393e-003
2.572616e+003,2.055656e-003
2.574544e+003,2.175820e-003
2.576473e+003,2.075531e-003
2.578401e+003,2.005588e-003
2.580330e+003,2.060050e-003
2.582258e+003,2.127138e-003
2.584187e+003,2.172490e-003
2.586115e+003,2.187809e-003
2.588044e+003,2.223143e-003
2.589972e+003,2.264542e-003
2.591901e+003,2.231635e-003
2.593829e+003,2.260312e-003
2.595758e+003,2.336791e-003
2.597686e+003,2.367540e-003
2.599615e+003,2.470829e-003
2.601543e+003,2.417049e-003
2.603472e+003,2.263876e-003
2.605400e+003,2.272469e-003
2.607329e+003,2.320502e-003
2.609257e+003,2.384031e-003
2.611186e+003,2.367673e-003
2.613114e+003,2.282628e-003
2.615043e+003,2.338990e-003
2.616971e+003,2.470596e-003
2.618900e+003,2.509986e-003
2.620828e+003,2.500488e-003
2.622757e+003,2.579443e-003
2.624685e+003,2.675415e-003
2.626614e+003,2.629810e-003
2.628542e+003,2.477961e-003
2.630471e+003,2.403522e-003
2.632399e+003,2.442039e-003
2.634328e+003,2.384065e-003
2.636256e+003,2.410952e-003
2.638185e+003,2.572477e-003
2.640113e+003,2.650045e-003
2.642042e+003,2.698319e-003
2.643970e+003,2.749366e-003
2.645899e+003,2.846676e-003
2.647827e+003,2.911417e-003
2.649756e+003,2.917355e-003
2.651684e+003,2.828133e-003
2.653613e+003,2.836004e-003
2.655541e+003,2.929497e-003
2.657470e+003,2.941940e-003
2.659398e+003,2.953616e-003
2.661327e+003,3.042597e-003
2.663255e+003,3.049003e-003
2.665184e+003,3.014269e-003
2.667112e+003,3.035122e-003
2.669041e+003,3.146147e-003
2.670969e+003,3.174683e-003
2.672898e+003,3.148082e-003
2.674826e+003,3.217308e-003
2.676755e+003,3.331818e-003
2.678683e+003,3.297796e-003
2.680612e+003,3.276796e-003
2.682540e+003,3.367011e-003
2.684469e+003,3.418605e-003
2.686397e+003,3.478789e-003
2.688326e+003,3.527589e-003
2.690254e+003,3.509251e-003
2.692183e+003,3.529861e-003
2.694111e+003,3.572120e-003
2.696040e+003,3.676164e-003
2.697968e+003,3.743602e-003
2.699897e+003,3.681176e-003
2.701825e+003,3.610941e-003
2.703754e+003,3.661862e-003
2.705682e+003,3.836622e-003
2.707611e+003,3.964002e-003
2.709539e+003,3.993495e-003
2.711468e+003,3.962463e-003
2.713396e+003,3.955341e-003
2.715325e+003,3.958451e-003
2.717253e+003,3.896529e-003
2.719182e+003,3.856646e-003
2.721110e+003,3.994398e-003
2.723039e+003,4.116471e-003
2.724967e+003,4.171265e-003
2.726896e+003,4.235134e-003
2.728824e+003,4.236371e-003
2.730753e+003,4.270702e-003
2.732681e+003,4.361024e-003
2.734610e+003,4.369993e-003
2.736538e+003,4.423346e-003
2.738467e+003,4.457155e-003
2.740395e+003,4.592854e-003
2.742324e+003,4.745009e-003
2.744252e+003,4.707560e-003
2.746181e+003,4.635451e-003
2.748109e+003,4.779145e-003
2.750038e+003,4.920474e-003
2.751966e+003,4.947150e-003
2.753895e+003,5.012473e-003
2.755823e+003,5.020082e-003
2.757752e+003,5.122964e-003
2.759680e+003,5.363086e-003
2.761609e+003,5.540579e-003
2.763537e+003,5.676248e-003
2.765466e+003,5.800877e-003
2.767394e+003,6.027330e-003
2.769323e+003,6.309906e-003
2.771251e+003,6.566965e-003
2.773180e+003,6.846594e-003
2.775108e+003,7.089085e-003
2.777037e+003,7.319041e-003
2.778965e+003,7.616689e-003
2.780894e+003,8.006839e-003
2.782822e+003,8.333668e-003
2.784750e+003,8.759386e-003
2.786679e+003,9.316241e-003
2.788608e+003,9.736452e-003
2.790536e+003,1.005021e-002
2.792465e+003,1.041733e-002
2.794393e+003,1.078409e-002
2.796322e+003,1.104293e-002
2.798250e+003,1.136440e-002
2.800178e+003,1.179473e-002
2.802107e+003,1.218617e-002
2.804036e+003,1.243623e-002
2.805964e+003,1.256217e-002
2.807893e+003,1.256646e-002
2.809821e+003,1.253918e-002
2.811750e+003,1.257138e-002
2.813678e+003,1.258505e-002
2.815606e+003,1.247377e-002
2.817535e+003,1.229329e-002
2.819464e+003,1.216017e-002
2.821392e+003,1.199347e-002
2.823321e+003,1.167406e-002
2.825249e+003,1.130522e-002
2.827177e+003,1.106920e-002
2.829106e+003,1.093204e-002
2.831034e+003,1.065738e-002
2.832963e+003,1.034366e-002
2.834892e+003,1.010833e-002
2.836820e+003,9.683052e-003
2.838749e+003,9.211616e-003
2.840677e+003,8.767669e-003
2.842605e+003,8.274699e-003
2.844534e+003,7.699851e-003
2.846462e+003,7.246464e-003
2.848391e+003,6.861574e-003
2.850320e+003,6.628226e-003
2.852248e+003,6.548431e-003
2.854177e+003,6.440199e-003
2.856105e+003,6.187550e-003
2.858033e+003,6.164764e-003
2.859962e+003,6.290239e-003
2.861890e+003,6.274843e-003
2.863819e+003,6.286844e-003
2.865748e+003,6.332364e-003
2.867676e+003,6.352167e-003
2.869604e+003,6.400418e-003
2.871533e+003,6.385488e-003
2.873461e+003,6.402603e-003
2.875390e+003,6.573424e-003
2.877319e+003,6.659078e-003
2.879247e+003,6.751009e-003
2.881176e+003,6.820003e-003
2.883104e+003,6.763562e-003
2.885032e+003,6.630245e-003
2.886961e+003,6.584188e-003
2.888889e+003,6.577696e-003
2.890818e+003,6.604239e-003
2.892747e+003,6.470701e-003
2.894675e+003,6.320160e-003
2.896604e+003,6.329977e-003
2.898532e+003,6.286037e-003
2.900460e+003,6.157135e-003
2.902389e+003,6.080719e-003
2.904317e+003,5.902668e-003
2.906246e+003,5.754204e-003
2.908175e+003,5.778312e-003
2.910103e+003,5.649023e-003
2.912031e+003,5.435349e-003
2.913960e+003,5.259207e-003
2.915888e+003,5.134397e-003
2.917817e+003,5.146736e-003
2.919745e+003,5.157063e-003
2.921674e+003,5.130642e-003
2.923603e+003,5.130743e-003
2.925531e+003,5.190695e-003
2.927459e+003,5.314648e-003
2.929388e+003,5.456118e-003
2.931316e+003,5.574509e-003
2.933245e+003,5.600520e-003
2.935173e+003,5.829185e-003
2.937102e+003,5.985537e-003
2.939031e+003,5.891551e-003
2.940959e+003,5.868075e-003
2.942887e+003,5.806854e-003
2.944816e+003,5.670876e-003
2.946744e+003,5.511618e-003
2.948673e+003,5.313508e-003
2.950601e+003,5.027657e-003
2.952530e+003,4.691851e-003
2.954458e+003,4.381071e-003
2.956387e+003,3.981189e-003
2.958315e+003,3.621633e-003
2.960244e+003,3.327277e-003
2.962172e+003,3.064753e-003
2.964101e+003,2.878395e-003
2.966029e+003,2.532681e-003
2.967958e+003,2.102998e-003
2.969886e+003,1.938420e-003
2.971815e+003,1.785149e-003
2.973743e+003,1.645202e-003
2.975672e+003,1.429898e-003
2.977600e+003,1.219087e-003
2.979529e+003,1.220117e-003
2.981457e+003,1.133835e-003
2.983386e+003,9.563065e-004
2.985314e+003,7.251471e-004
2.987243e+003,6.829986e-004
2.989171e+003,6.782530e-004
2.991100e+003,5.587341e-004
2.993028e+003,5.065171e-004
2.994957e+003,4.801456e-004
2.996885e+003,4.187510e-004
2.998814e+003,4.414703e-004
3.000742e+003,3.474168e-004
3.002671e+003,2.279226e-004
3.004599e+003,1.734582e-004
3.006528e+003,2.473829e-004
3.008456e+003,2.190381e-004
3.010385e+003,1.495265e-004
3.012313e+003,1.663647e-004
3.014242e+003,2.196348e-004
3.016170e+003,2.719831e-004
3.018099e+003,2.689328e-004
3.020027e+003,2.866377e-004
3.021956e+003,2.262650e-004
3.023884e+003,1.219504e-004
3.025813e+003,3.601819e-005
3.027741e+003,1.789242e-006
3.029670e+003,1.143938e-004
3.031598e+003,2.775200e-004
3.033527e+003,2.423105e-004
3.035455e+003,2.275911e-004
3.037384e+003,1.956011e-004
3.039312e+003,-4.208003e-006
3.041241e+003,-1.522242e-004
3.043169e+003,-1.567289e-004
3.045098e+003,-4.648457e-005
3.047026e+003,2.644177e-005
3.048955e+003,-1.022396e-004
3.050883e+003,-2.060117e-004
3.052812e+003,-2.720778e-004
3.054740e+003,-2.140594e-004
3.056669e+003,-1.648106e-004
3.058597e+003,-2.817136e-004
3.060526e+003,-4.082845e-004
3.062454e+003,-3.996445e-004
3.064383e+003,-4.091120e-004
3.066311e+003,-4.559831e-004
3.068240e+003,-4.500914e-004
3.070168e+003,-4.954357e-004
3.072097e+003,-5.633108e-004
3.074025e+003,-5.013268e-004
3.075954e+003,-4.072914e-004
3.077882e+003,-4.124223e-004
3.079811e+003,-5.641712e-004
3.081739e+003,-6.151284e-004
3.083668e+003,-6.069557e-004
3.085596e+003,-5.924961e-004
3.087525e+003,-5.953418e-004
3.089453e+003,-5.881284e-004
3.091382e+003,-5.644690e-004
3.093310e+003,-5.580162e-004
3.095239e+003,-5.867386e-004
3.097167e+003,-6.408694e-004
3.099096e+003,-7.008487e-004
3.101024e+003,-8.596397e-004
3.102953e+003,-8.991217e-004
3.104881e+003,-8.623843e-004
3.106810e+003,-8.650629e-004
3.108738e+003,-8.305715e-004
3.110667e+003,-8.079836e-004
3.112595e+003,-8.456845e-004
3.114524e+003,-8.428075e-004
3.116452e+003,-8.387399e-004
3.118381e+003,-8.360943e-004
3.120309e+003,-9.647848e-004
3.122238e+003,-9.932490e-004
3.124166e+003,-9.688513e-004
3.126095e+003,-9.662725e-004
3.128023e+003,-9.265652e-004
3.129952e+003,-8.875486e-004
3.131880e+003,-9.189605e-004
3.133809e+003,-1.014670e-003
3.135737e+003,-9.767526e-004
3.137666e+003,-8.840766e-004
3.139594e+003,-8.855315e-004
3.141523e+003,-8.049739e-004
3.143451e+003,-7.301902e-004
3.145380e+003,-8.583500e-004
3.147308e+003,-7.712385e-004
3.149237e+003,-7.135514e-004
3.151165e+003,-9.022629e-004
3.153094e+003,-1.059195e-003
3.155022e+003,-9.811495e-004
3.156951e+003,-8.181697e-004
3.158879e+003,-7.504668e-004
3.160808e+003,-7.264854e-004
3.162736e+003,-7.255592e-004
3.164665e+003,-7.982602e-004
3.166593e+003,-8.828862e-004
3.168522e+003,-9.263999e-004
3.170450e+003,-8.547455e-004
3.172379e+003,-7.499375e-004
3.174307e+003,-6.523498e-004
3.176236e+003,-6.892041e-004
3.178164e+003,-7.052814e-004
3.180093e+003,-5.991139e-004
3.182021e+003,-6.944310e-004
3.183950e+003,-7.937291e-004
3.185878e+003,-8.159870e-004
3.187807e+003,-7.985578e-004
3.189735e+003,-8.126137e-004
3.191664e+003,-8.122168e-004
3.193592e+003,-7.535098e-004
3.195521e+003,-7.751083e-004
3.197449e+003,-7.887681e-004
3.199378e+003,-6.974745e-004
3.201306e+003,-6.598929e-004
3.203235e+003,-7.911825e-004
3.205163e+003,-7.873128e-004
3.207092e+003,-7.448106e-004
3.209020e+003,-6.612825e-004
3.210948e+003,-5.128771e-004
3.212877e+003,-4.375133e-004
3.214806e+003,-4.191090e-004
3.216734e+003,-4.683290e-004
3.218663e+003,-6.068565e-004
3.220591e+003,-5.235666e-004
3.222520e+003,-2.860513e-004
3.224448e+003,-2.931373e-004
3.226376e+003,-2.456857e-004
3.228305e+003,-7.176240e-005
3.230234e+003,-2.750038e-005
3.232162e+003,2.147139e-005
3.234091e+003,1.050476e-004
3.236019e+003,1.625197e-004
3.237948e+003,8.141797e-005
3.239876e+003,1.273196e-004
3.241804e+003,3.399226e-004
3.243733e+003,3.707956e-004
3.245662e+003,4.278717e-004
3.247590e+003,3.569340e-004
3.249519e+003,3.988850e-004
3.251447e+003,5.671279e-004
3.253375e+003,6.397923e-004
3.255304e+003,6.555545e-004
3.257232e+003,8.061700e-004
3.259161e+003,8.562651e-004
3.261090e+003,8.062032e-004
3.263018e+003,8.379394e-004
3.264947e+003,8.064356e-004
3.266875e+003,9.122761e-004
3.268803e+003,1.004293e-003
3.270732e+003,1.018176e-003
3.272660e+003,1.182439e-003
3.274589e+003,1.245304e-003
3.276518e+003,1.197856e-003
3.278446e+003,1.178851e-003
3.280375e+003,1.092610e-003
3.282303e+003,1.174465e-003
3.284231e+003,1.239356e-003
3.286160e+003,1.199616e-003
3.288088e+003,1.054013e-003
3.290017e+003,8.827258e-004
3.291946e+003,8.036803e-004
3.293874e+003,6.897355e-004
3.295802e+003,7.476501e-004
3.297731e+003,7.476501e-004
3.299659e+003,4.660483e-004
3.301588e+003,4.067782e-004
3.303516e+003,4.673087e-004
3.305445e+003,4.356328e-004
3.307374e+003,2.661147e-004
3.309302e+003,8.549423e-005
3.311230e+003,6.229244e-006
3.313159e+003,-1.258249e-004
3.315087e+003,-2.837335e-004
3.317016e+003,-3.261484e-004
3.318944e+003,-3.118781e-004
3.320873e+003,-3.160500e-004
3.322802e+003,-4.938139e-004
3.324730e+003,-7.253938e-004
3.326658e+003,-7.513267e-004
3.328587e+003,-6.673367e-004
3.330515e+003,-5.994778e-004
3.332444e+003,-6.854328e-004
3.334372e+003,-8.987579e-004
3.336301e+003,-9.406500e-004
3.338229e+003,-9.108598e-004
3.340158e+003,-8.117538e-004
3.342086e+003,-8.218738e-004
3.344015e+003,-1.003431e-003
3.345943e+003,-1.152891e-003
3.347872e+003,-1.265465e-003
3.349800e+003,-1.252118e-003
3.351729e+003,-1.196048e-003
3.353657e+003,-1.311022e-003
3.355586e+003,-1.419030e-003
3.357514e+003,-1.579804e-003
3.359443e+003,-1.496832e-003
3.361371e+003,-1.350033e-003
3.363300e+003,-1.368663e-003
3.365229e+003,-1.530511e-003
3.367157e+003,-1.754015e-003
3.369085e+003,-1.859736e-003
3.371014e+003,-1.822057e-003
3.372942e+003,-1.790974e-003
3.374871e+003,-1.965761e-003
3.376799e+003,-2.133948e-003
3.378728e+003,-2.194645e-003
3.380656e+003,-2.263145e-003
3.382585e+003,-2.451448e-003
3.384513e+003,-2.523268e-003
3.386442e+003,-2.519677e-003
3.388370e+003,-2.490786e-003
3.390299e+003,-2.543658e-003
3.392227e+003,-2.586282e-003
3.394156e+003,-2.526562e-003
3.396084e+003,-2.560260e-003
3.398013e+003,-2.587401e-003
3.399941e+003,-2.576170e-003
3.401870e+003,-2.543329e-003
3.403798e+003,-2.589971e-003
3.405727e+003,-2.838640e-003
3.407655e+003,-2.843775e-003
3.409584e+003,-2.674940e-003
3.411512e+003,-2.774313e-003
3.413441e+003,-2.921125e-003
3.415369e+003,-2.851017e-003
3.417298e+003,-2.893972e-003
3.419226e+003,-3.029721e-003
3.421155e+003,-3.082100e-003
3.423083e+003,-2.990860e-003
3.425012e+003,-2.892820e-003
3.426940e+003,-3.044362e-003
3.428869e+003,-3.179900e-003
3.430797e+003,-3.057820e-003
3.432726e+003,-2.935310e-003
3.434654e+003,-3.102004e-003
3.436583e+003,-3.271068e-003
3.438511e+003,-3.251106e-003
3.440440e+003,-3.186380e-003
3.442368e+003,-3.096017e-003
3.444297e+003,-3.075981e-003
3.446225e+003,-3.144145e-003
3.448154e+003,-3.191050e-003
3.450082e+003,-3.123387e-003
3.452011e+003,-3.161677e-003
3.453939e+003,-3.433360e-003
3.455868e+003,-3.701621e-003
3.457796e+003,-3.480991e-003
3.459725e+003,-3.181775e-003
3.461653e+003,-3.169637e-003
3.463582e+003,-3.258341e-003
3.465510e+003,-3.303722e-003
3.467439e+003,-3.328877e-003
3.469367e+003,-3.459888e-003
3.471296e+003,-3.527827e-003
3.473224e+003,-3.538081e-003
3.475153e+003,-3.560593e-003
3.477081e+003,-3.480465e-003
3.479010e+003,-3.436154e-003
3.480938e+003,-3.437338e-003
3.482867e+003,-3.506759e-003
3.484795e+003,-3.509520e-003
3.486724e+003,-3.550767e-003
3.488652e+003,-3.463734e-003
3.490581e+003,-3.428659e-003
3.492509e+003,-3.431256e-003
3.494438e+003,-3.429711e-003
3.496366e+003,-3.262846e-003
3.498295e+003,-3.207298e-003
3.500223e+003,-3.430533e-003
3.502152e+003,-3.578964e-003
3.504080e+003,-3.570222e-003
3.506009e+003,-3.393056e-003
3.507937e+003,-3.284649e-003
3.509866e+003,-3.472346e-003
3.511794e+003,-3.524475e-003
3.513723e+003,-3.527597e-003
3.515651e+003,-3.621682e-003
3.517580e+003,-3.457718e-003
3.519508e+003,-3.384606e-003
3.521437e+003,-3.527005e-003
3.523365e+003,-3.643927e-003
3.525294e+003,-3.486480e-003
3.527222e+003,-3.428298e-003
3.529151e+003,-3.446148e-003
3.531079e+003,-3.473529e-003
3.533008e+003,-3.494072e-003
3.534936e+003,-3.443090e-003
3.536865e+003,-3.445753e-003
3.538793e+003,-3.397067e-003
3.540722e+003,-3.107663e-003
3.542650e+003,-3.077560e-003
3.544579e+003,-3.234892e-003
3.546507e+003,-3.431519e-003
3.548436e+003,-3.409395e-003
3.550364e+003,-3.311252e-003
3.552293e+003,-3.401735e-003
3.554221e+003,-3.506135e-003
3.556150e+003,-3.486480e-003
3.558078e+003,-3.398940e-003
3.560007e+003,-3.349394e-003
3.561935e+003,-3.220158e-003
3.563864e+003,-3.356364e-003
3.565792e+003,-3.402951e-003
3.567721e+003,-3.309345e-003
3.569649e+003,-3.340089e-003
3.571578e+003,-3.379642e-003
3.573506e+003,-3.319177e-003
3.575435e+003,-3.178617e-003
3.577363e+003,-3.068381e-003
3.579292e+003,-3.082001e-003
3.581220e+003,-3.220093e-003
3.583149e+003,-3.387598e-003
3.585077e+003,-3.367149e-003
3.587006e+003,-3.359192e-003
3.588934e+003,-3.293364e-003
3.590863e+003,-3.258177e-003
3.592791e+003,-3.384672e-003
3.594720e+003,-3.376847e-003
3.596648e+003,-3.110360e-003
3.598577e+003,-2.838475e-003
3.600505e+003,-2.867014e-003
3.602434e+003,-3.097201e-003
3.604362e+003,-3.175328e-003
3.606291e+003,-3.338839e-003
3.608219e+003,-3.336801e-003
3.610148e+003,-3.194701e-003
3.612076e+003,-3.241174e-003
3.614005e+003,-3.333184e-003
3.615933e+003,-3.443123e-003
3.617862e+003,-3.269062e-003
3.619790e+003,-2.891404e-003
3.621719e+003,-2.863163e-003
3.623647e+003,-2.960979e-003
3.625576e+003,-2.993821e-003
3.627504e+003,-2.915168e-003
3.629433e+003,-2.804272e-003
3.631361e+003,-2.937877e-003
3.633290e+003,-2.998955e-003
3.635218e+003,-2.984212e-003
3.637146e+003,-2.992999e-003
3.639075e+003,-3.102399e-003
3.641004e+003,-2.927049e-003
3.642932e+003,-2.974965e-003
3.644861e+003,-3.180689e-003
3.646789e+003,-3.140296e-003
3.648718e+003,-3.267023e-003
3.650646e+003,-3.364321e-003
3.652574e+003,-3.336439e-003
3.654503e+003,-3.293693e-003
3.656432e+003,-3.185886e-003
3.658360e+003,-3.337524e-003
3.660289e+003,-3.468040e-003
3.662217e+003,-3.462287e-003
3.664146e+003,-3.265839e-003
3.666074e+003,-3.269851e-003
3.668002e+003,-3.350545e-003
3.669931e+003,-3.495683e-003
3.671860e+003,-3.837314e-003
3.673788e+003,-3.851207e-003
3.675717e+003,-3.337820e-003
3.677645e+003,-3.180130e-003
3.679573e+003,-3.497359e-003
3.681502e+003,-3.438192e-003
3.683430e+003,-3.342095e-003
3.685359e+003,-3.282216e-003
3.687288e+003,-3.227032e-003
3.689216e+003,-3.208943e-003
3.691145e+003,-3.210226e-003
3.693073e+003,-3.205851e-003
3.695001e+003,-3.318848e-003
3.696930e+003,-3.314376e-003
3.698858e+003,-3.210916e-003
3.700787e+003,-3.137862e-003
3.702716e+003,-3.105689e-003
3.704644e+003,-3.105392e-003
3.706573e+003,-3.107893e-003
3.708501e+003,-3.116018e-003
3.710429e+003,-3.065584e-003
3.712358e+003,-2.998955e-003
3.714286e+003,-3.083548e-003
3.716215e+003,-3.248672e-003
3.718144e+003,-3.189570e-003
3.720072e+003,-3.074895e-003
3.722000e+003,-2.967594e-003
3.723929e+003,-2.845684e-003
3.725857e+003,-2.690483e-003
3.727786e+003,-2.520863e-003
3.729714e+003,-2.648364e-003
3.731643e+003,-2.988128e-003
3.733572e+003,-3.244167e-003
3.735500e+003,-3.141842e-003
3.737428e+003,-2.960091e-003
3.739357e+003,-2.862603e-003
3.741285e+003,-2.724530e-003
3.743214e+003,-2.790313e-003
3.745142e+003,-2.704148e-003
3.747071e+003,-2.760386e-003
3.749000e+003,-2.570867e-003
3.750928e+003,-2.428483e-003
3.752856e+003,-2.463210e-003
3.754785e+003,-2.566519e-003
3.756713e+003,-2.461332e-003
3.758642e+003,-2.330777e-003
3.760570e+003,-2.381495e-003
3.762499e+003,-2.496287e-003
3.764427e+003,-2.256091e-003
3.766356e+003,-2.134575e-003
3.768284e+003,-2.225303e-003
3.770213e+003,-2.160556e-003
3.772141e+003,-2.145818e-003
3.774070e+003,-2.210568e-003
3.775998e+003,-2.221381e-003
3.777927e+003,-2.286745e-003
3.779855e+003,-2.298446e-003
3.781784e+003,-2.112187e-003
3.783712e+003,-1.998447e-003
3.785641e+003,-1.966948e-003
3.787569e+003,-2.209777e-003
3.789498e+003,-2.285723e-003
3.791426e+003,-2.134081e-003
3.793355e+003,-2.110109e-003
3.795283e+003,-1.849343e-003
3.797212e+003,-1.905461e-003
3.799140e+003,-2.127882e-003
3.801069e+003,-2.036341e-003
3.802997e+003,-2.034825e-003
3.804926e+003,-2.326131e-003
3.806854e+003,-2.383802e-003
3.808783e+003,-2.261233e-003
3.810711e+003,-2.079509e-003
3.812640e+003,-1.975821e-003
3.814568e+003,-1.973314e-003
3.816497e+003,-1.838752e-003
3.818425e+003,-1.796650e-003
3.820354e+003,-1.551675e-003
3.822282e+003,-1.622488e-003
3.824211e+003,-1.934853e-003
3.826139e+003,-2.171765e-003
3.828068e+003,-1.995973e-003
3.829996e+003,-1.796716e-003
3.831925e+003,-1.836905e-003
3.833853e+003,-1.711475e-003
3.835782e+003,-1.530743e-003
3.837710e+003,-1.644671e-003
3.839639e+003,-1.951181e-003
3.841567e+003,-1.887581e-003
3.843496e+003,-1.741673e-003
3.845424e+003,-1.743323e-003
3.847353e+003,-1.899556e-003
3.849281e+003,-1.814270e-003
3.851210e+003,-1.573861e-003
3.853138e+003,-1.419757e-003
3.855067e+003,-1.556066e-003
3.856995e+003,-1.704974e-003
3.858924e+003,-1.730749e-003
3.860852e+003,-1.792789e-003
3.862781e+003,-1.679032e-003
3.864709e+003,-1.428574e-003
3.866638e+003,-1.496172e-003
3.868566e+003,-1.686491e-003
3.870495e+003,-1.576502e-003
3.872423e+003,-1.516545e-003
3.874352e+003,-1.462226e-003
3.876280e+003,-1.670582e-003
3.878209e+003,-1.826181e-003
3.880137e+003,-1.747250e-003
3.882066e+003,-1.659161e-003
3.883994e+003,-1.758767e-003
3.885923e+003,-1.713687e-003
3.887851e+003,-1.642261e-003
3.889780e+003,-1.505153e-003
3.891708e+003,-1.710914e-003
3.893637e+003,-2.002998e-003
3.895565e+003,-1.823872e-003
3.897494e+003,-1.597796e-003
3.899422e+003,-1.416124e-003
3.901351e+003,-1.494686e-003
3.903279e+003,-1.470482e-003
3.905208e+003,-1.337680e-003
3.907136e+003,-1.460311e-003
3.909065e+003,-1.553788e-003
3.910993e+003,-1.597235e-003
3.912922e+003,-1.603837e-003
3.914850e+003,-1.594329e-003
3.916779e+003,-1.649325e-003
3.918707e+003,-1.714050e-003
3.920636e+003,-1.785266e-003
3.922564e+003,-1.870788e-003
3.924493e+003,-1.709594e-003
3.926421e+003,-1.447002e-003
3.928350e+003,-1.487025e-003
3.930278e+003,-1.454366e-003
3.932207e+003,-1.086364e-003
3.934135e+003,-9.022298e-004
3.936064e+003,-1.032487e-003
3.937992e+003,-1.152528e-003
3.939921e+003,-1.333517e-003
3.941849e+003,-1.383691e-003
3.943778e+003,-1.219177e-003
3.945706e+003,-1.364567e-003
3.947635e+003,-1.369753e-003
3.949563e+003,-1.162574e-003
3.951492e+003,-1.229585e-003
3.953420e+003,-1.398851e-003
3.955349e+003,-1.369125e-003
3.957277e+003,-1.249772e-003
3.959206e+003,-1.296387e-003
3.961134e+003,-1.325259e-003
3.963063e+003,-1.284693e-003
3.964991e+003,-1.494455e-003
3.966920e+003,-1.570923e-003
3.968848e+003,-1.470382e-003
3.970777e+003,-1.440661e-003
3.972705e+003,-1.286906e-003
3.974634e+003,-1.295925e-003
3.976562e+003,-1.469293e-003
3.978491e+003,-1.468599e-003
3.980419e+003,-1.351949e-003
3.982348e+003,-1.352610e-003
3.984276e+003,-1.215080e-003
3.986205e+003,-1.148034e-003
3.988133e+003,-1.176948e-003
3.990062e+003,-1.238935e-003
3.991990e+003,-1.475005e-003
3.993919e+003,-1.399676e-003
3.995847e+003,-1.109500e-003
3.997776e+003,-1.167068e-003
3.999704e+003,-1.262690e-003
4.001633e+003,0.000000e+000
