3.991989e+002,-9.584274e-003
4.011274e+002,2.324532e-003
4.030559e+002,9.427250e-004
4.049844e+002,5.175970e-004
4.069129e+002,-3.268602e-003
4.088414e+002,-3.498740e-003
4.107699e+002,-3.012117e-003
4.126984e+002,-5.512531e-003
4.146269e+002,-2.822928e-005
4.165554e+002,6.418340e-003
4.184839e+002,4.348306e-003
4.204124e+002,2.301514e-003
4.223409e+002,1.254210e-003
4.242694e+002,1.631865e-003
4.261979e+002,2.218714e-003
4.281264e+002,-7.986240e-004
4.300549e+002,-1.173978e-002
4.319834e+002,-4.221337e-003
4.339119e+002,2.206758e-003
4.358404e+002,-3.010899e-003
4.377689e+002,3.017539e-003
4.396974e+002,5.980498e-003
4.416259e+002,1.725565e-003
4.435544e+002,2.128203e-003
4.454829e+002,3.214337e-003
4.474114e+002,4.958478e-003
4.493399e+002,7.675400e-003
4.512684e+002,3.312653e-003
4.531969e+002,-1.007489e-004
4.551254e+002,8.047758e-004
4.570539e+002,3.593368e-003
4.589824e+002,3.091949e-003
4.609109e+002,1.301565e-003
4.628394e+002,2.274667e-003
4.647679e+002,2.757136e-003
4.666964e+002,3.163502e-003
4.686249e+002,1.952598e-003
4.705533e+002,4.699623e-004
4.724819e+002,8.987956e-004
4.744103e+002,1.438774e-003
4.763389e+002,2.413484e-003
4.782673e+002,1.533331e-003
4.801959e+002,-6.258569e-005
4.821243e+002,2.402883e-004
4.840529e+002,2.866377e-004
4.859813e+002,-4.496280e-004
4.879099e+002,-1.237052e-003
4.898383e+002,-2.135564e-003
4.917668e+002,-3.405483e-003
4.936953e+002,-3.576663e-003
4.956238e+002,-4.260482e-003
4.975523e+002,-4.376025e-003
4.994808e+002,-5.285357e-003
5.014093e+002,-6.361600e-003
5.033378e+002,-6.042275e-003
5.052663e+002,-3.477704e-003
5.071948e+002,-1.850927e-003
5.091233e+002,-2.354506e-003
5.110518e+002,-2.572382e-003
5.129803e+002,-4.271834e-003
5.149088e+002,-6.399508e-003
5.168373e+002,-6.213889e-003
5.187658e+002,-5.837804e-003
5.206943e+002,-5.566575e-003
5.226228e+002,-6.200530e-003
5.245513e+002,-6.180408e-003
5.264798e+002,-5.664733e-003
5.284083e+002,-4.305266e-003
5.303368e+002,-3.266760e-003
5.322653e+002,-4.164270e-003
5.341938e+002,-4.998224e-003
5.361223e+002,-5.273507e-003
5.380508e+002,-4.897131e-003
5.399792e+002,-3.418435e-003
5.419078e+002,-3.609064e-003
5.438363e+002,-3.598023e-003
5.457648e+002,-1.935843e-003
5.476932e+002,-2.421300e-003
5.496218e+002,-2.945018e-003
5.515503e+002,-1.676193e-003
5.534788e+002,-8.988571e-004
5.554072e+002,-1.601658e-003
5.573358e+002,-2.738722e-003
5.592643e+002,-3.315987e-003
5.611927e+002,-1.581686e-003
5.631212e+002,-8.049739e-004
5.650497e+002,-1.694049e-003
5.669783e+002,-1.470217e-003
5.689067e+002,-6.145990e-004
5.708352e+002,5.240990e-004
5.727637e+002,-6.951588e-004
5.746923e+002,-2.375662e-003
5.766207e+002,-2.086500e-003
5.785492e+002,-1.859868e-003
5.804777e+002,1.472818e-003
5.824063e+002,1.908933e-003
5.843347e+002,-9.762567e-004
5.862632e+002,-1.427947e-003
5.881917e+002,-2.673392e-003
5.901202e+002,-2.484296e-003
5.920487e+002,-2.132465e-003
5.939772e+002,-2.758937e-003
5.959057e+002,-3.595953e-003
5.978342e+002,-3.261761e-003
5.997627e+002,-2.845520e-003
6.016912e+002,-2.274912e-003
6.036197e+002,-1.928421e-003
6.055482e+002,-1.339959e-003
6.074767e+002,-1.405357e-003
6.094052e+002,-3.442918e-004
6.113337e+002,1.369466e-003
6.132622e+002,1.193237e-003
6.151907e+002,-1.334434e-004
6.171192e+002,-2.716906e-005
6.190477e+002,-1.187324e-003
6.209762e+002,-1.810409e-003
6.229047e+002,-2.884130e-003
6.248332e+002,-2.731972e-003
6.267617e+002,-3.781380e-003
6.286902e+002,-5.053609e-003
6.306187e+002,-4.680746e-003
6.325472e+002,-3.765252e-003
6.344756e+002,-3.429941e-003
6.364042e+002,-2.981646e-003
6.383326e+002,-2.429801e-003
6.402612e+002,-2.343630e-003
6.421896e+002,-2.576170e-003
6.441182e+002,-2.709812e-003
6.460466e+002,-3.071934e-003
6.479752e+002,-2.637265e-003
6.499036e+002,-2.057052e-003
6.518322e+002,-1.891671e-003
6.537606e+002,-1.798762e-003
6.556891e+002,-1.803348e-003
6.576177e+002,-2.149379e-003
6.595461e+002,-2.551696e-003
6.614746e+002,-2.567902e-003
6.634031e+002,-2.259355e-003
6.653317e+002,-2.383241e-003
6.672601e+002,-2.203052e-003
6.691886e+002,-1.610901e-003
6.711171e+002,-1.380487e-003
6.730457e+002,-1.283305e-003
6.749741e+002,-1.124900e-003
6.769026e+002,-6.714721e-004
6.788311e+002,2.498031e-004
6.807596e+002,2.202315e-004
6.826881e+002,-4.892797e-004
6.846166e+002,-6.887410e-004
6.865451e+002,-2.513483e-004
6.884736e+002,1.291426e-004
6.904021e+002,1.579456e-004
6.923306e+002,2.524887e-005
6.942591e+002,-3.105868e-004
6.961876e+002,-6.193635e-004
6.981161e+002,-4.954687e-004
7.000446e+002,-4.139119e-004
7.019731e+002,-1.704081e-004
7.039016e+002,-1.583518e-004
7.058301e+002,-6.830178e-004
7.077585e+002,-1.401889e-003
7.096871e+002,-1.527639e-003
7.116156e+002,-1.690848e-003
7.135441e+002,-2.363370e-003
7.154725e+002,-2.477311e-003
7.174011e+002,-2.007583e-003
7.193296e+002,-2.236149e-003
7.212581e+002,-3.212956e-003
7.231865e+002,-3.306320e-003
7.251151e+002,-2.638912e-003
7.270436e+002,-3.090851e-003
7.289720e+002,-3.194833e-003
7.309005e+002,-3.239891e-003
7.328290e+002,-3.225125e-003
7.347576e+002,-3.148881e-003
7.366860e+002,-2.998757e-003
7.386145e+002,-2.678167e-003
7.405430e+002,-2.809243e-003
7.424716e+002,-3.192826e-003
7.444000e+002,-2.777013e-003
7.463285e+002,-2.166161e-003
7.482570e+002,-1.715700e-003
7.501855e+002,-1.388216e-003
7.521140e+002,-1.138219e-003
7.540425e+002,-9.112565e-004
7.559710e+002,-3.418750e-004
7.578995e+002,-3.176061e-004
7.598280e+002,1.557328e-005
7.617565e+002,4.482366e-004
7.636850e+002,7.965766e-004
7.656135e+002,1.396955e-003
7.675420e+002,1.479633e-003
7.694705e+002,1.183369e-003
7.713990e+002,8.139710e-004
7.733275e+002,1.132506e-003
7.752560e+002,1.338256e-003
7.771844e+002,1.373621e-003
7.791130e+002,1.621555e-003
7.810415e+002,1.557671e-003
7.829700e+002,1.177190e-003
7.848984e+002,1.170346e-003
7.868270e+002,1.541411e-003
7.887555e+002,1.181841e-003
7.906840e+002,7.182438e-004
7.926124e+002,3.152854e-004
7.945410e+002,4.929165e-004
7.964695e+002,5.122892e-004
7.983979e+002,3.337880e-004
8.003264e+002,4.158324e-004
8.022549e+002,1.550950e-004
8.041835e+002,4.970134e-006
8.061119e+002,3.794179e-004
8.080404e+002,3.514292e-004
8.099689e+002,4.999158e-004
8.118975e+002,7.664035e-004
8.138259e+002,1.078858e-003
8.157545e+002,1.062848e-003
8.176830e+002,9.151648e-004
8.196115e+002,7.252467e-004
8.215399e+002,2.643244e-004
8.234684e+002,-1.374845e-004
8.253970e+002,-4.587634e-004
8.273254e+002,-6.832825e-004
8.292539e+002,-3.309492e-004
8.311824e+002,-6.921484e-004
8.331110e+002,-1.081969e-003
8.350394e+002,-9.064621e-004
8.369679e+002,-1.405720e-003
8.388964e+002,-1.554316e-003
8.408250e+002,-8.856968e-004
8.427534e+002,-7.867505e-004
8.446819e+002,-1.198427e-003
8.466104e+002,-1.376821e-003
8.485389e+002,-1.106162e-003
8.504674e+002,-1.214948e-003
8.523959e+002,-1.714347e-003
8.543244e+002,-1.969422e-003
8.562529e+002,-2.102328e-003
8.581814e+002,-2.097217e-003
8.601099e+002,-1.536983e-003
8.620384e+002,-1.301111e-003
8.639669e+002,-1.517007e-003
8.658954e+002,-1.757810e-003
8.678239e+002,-1.881642e-003
8.697524e+002,-2.012299e-003
8.716809e+002,-1.812620e-003
8.736094e+002,-1.473916e-003
8.755378e+002,-1.203681e-003
8.774664e+002,-1.317827e-003
8.793949e+002,-1.331205e-003
8.813234e+002,-1.326713e-003
8.832518e+002,-1.235400e-003
8.851804e+002,-1.082431e-003
8.871089e+002,-9.146622e-004
8.890374e+002,-9.307973e-004
8.909658e+002,-9.856124e-004
8.928943e+002,-7.383274e-004
8.948229e+002,-6.778901e-004
8.967513e+002,-1.015497e-003
8.986798e+002,-8.731976e-004
9.006083e+002,-5.149951e-004
9.025369e+002,-1.803443e-004
9.044653e+002,-3.407493e-004
9.063938e+002,-7.660788e-004
9.083223e+002,-9.657766e-004
9.102509e+002,-1.075689e-003
9.121793e+002,-1.216732e-003
9.141078e+002,-1.406579e-003
9.160364e+002,-1.582841e-003
9.179648e+002,-1.581686e-003
9.198933e+002,-1.560292e-003
9.218218e+002,-1.702795e-003
9.237504e+002,-1.981593e-003
9.256788e+002,-2.019324e-003
9.276073e+002,-2.079872e-003
9.295358e+002,-2.214985e-003
9.314644e+002,-2.505677e-003
9.333928e+002,-2.820073e-003
9.353213e+002,-2.935112e-003
9.372498e+002,-2.572415e-003
9.391783e+002,-2.414908e-003
9.411068e+002,-2.518030e-003
9.430353e+002,-2.746755e-003
9.449637e+002,-2.955319e-003
9.468923e+002,-2.984311e-003
9.488208e+002,-2.896572e-003
9.507493e+002,-2.809506e-003
9.526777e+002,-2.887883e-003
9.546063e+002,-3.017283e-003
9.565348e+002,-2.910823e-003
9.584633e+002,-2.744023e-003
9.603917e+002,-2.609897e-003
9.623203e+002,-2.492894e-003
9.642488e+002,-2.663875e-003
9.661772e+002,-2.592342e-003
9.681057e+002,-2.356219e-003
9.700343e+002,-2.396126e-003
9.719628e+002,-2.407955e-003
9.738912e+002,-2.243928e-003
9.758197e+002,-2.100283e-003
9.777483e+002,-2.044619e-003
9.796768e+002,-2.082444e-003
9.816052e+002,-2.165765e-003
9.835337e+002,-1.959955e-003
9.854623e+002,-2.098766e-003
9.873907e+002,-2.260937e-003
9.893192e+002,-1.897181e-003
9.912477e+002,-1.804008e-003
9.931763e+002,-1.958834e-003
9.951047e+002,-1.888669e-003
9.970332e+002,-1.806714e-003
9.989617e+002,-1.549199e-003
1.000890e+003,-1.493332e-003
1.002819e+003,-1.561745e-003
1.004747e+003,-1.325061e-003
1.006676e+003,-9.932490e-004
1.008604e+003,-8.954183e-004
1.010533e+003,-7.732892e-004
1.012461e+003,-6.995916e-004
1.014390e+003,-6.864584e-004
1.016318e+003,-2.021700e-004
1.018247e+003,1.670608e-004
1.020175e+003,9.556908e-005
1.022104e+003,1.503883e-004
1.024032e+003,3.605486e-004
1.025961e+003,6.777220e-004
1.027889e+003,9.319332e-004
1.029818e+003,1.175595e-003
1.031746e+003,1.387017e-003
1.033675e+003,1.829933e-003
1.035603e+003,2.089547e-003
1.037532e+003,2.164232e-003
1.039460e+003,2.381466e-003
1.041389e+003,2.519850e-003
1.043317e+003,2.366008e-003
1.045246e+003,2.167629e-003
1.047174e+003,2.099036e-003
1.049103e+003,2.170459e-003
1.051031e+003,2.311408e-003
1.052960e+003,2.483192e-003
1.054888e+003,2.422814e-003
1.056817e+003,2.352182e-003
1.058745e+003,2.216549e-003
1.060674e+003,2.370772e-003
1.062602e+003,2.494423e-003
1.064531e+003,2.506820e-003
1.066459e+003,2.470030e-003
1.068388e+003,2.528449e-003
1.070316e+003,2.439873e-003
1.072245e+003,2.473029e-003
1.074173e+003,2.583443e-003
1.076102e+003,2.467964e-003
1.078030e+003,2.353381e-003
1.079959e+003,2.741297e-003
1.081887e+003,2.923726e-003
1.083816e+003,3.102761e-003
1.085744e+003,3.159964e-003
1.087673e+003,3.182160e-003
1.089601e+003,3.290551e-003
1.091530e+003,3.292521e-003
1.093458e+003,3.067022e-003
1.095387e+003,3.153356e-003
1.097315e+003,3.381337e-003
1.099244e+003,3.318162e-003
1.101172e+003,3.369182e-003
1.103101e+003,3.530963e-003
1.105029e+003,3.472309e-003
1.106958e+003,3.509318e-003
1.108886e+003,3.590394e-003
1.110815e+003,3.420943e-003
1.112743e+003,3.398234e-003
1.114672e+003,3.628549e-003
1.116600e+003,3.696113e-003
1.118529e+003,3.584481e-003
1.120457e+003,3.658888e-003
1.122386e+003,3.863064e-003
1.124314e+003,3.712421e-003
1.126243e+003,3.628348e-003
1.128171e+003,3.484901e-003
1.130100e+003,3.406148e-003
1.132028e+003,3.272623e-003
1.133957e+003,3.134833e-003
1.135885e+003,2.818595e-003
1.137814e+003,2.416549e-003
1.139742e+003,1.913559e-003
1.141671e+003,1.632963e-003
1.143599e+003,1.622520e-003
1.145528e+003,1.459286e-003
1.147456e+003,1.019936e-003
1.149385e+003,6.457321e-004
1.151313e+003,5.171989e-004
1.153242e+003,3.853209e-004
1.155170e+003,2.043194e-004
1.157099e+003,-2.209984e-005
1.159027e+003,-2.513483e-004
1.160956e+003,-4.315552e-004
1.162884e+003,-4.236439e-004
1.164813e+003,-4.070928e-004
1.166741e+003,-3.779281e-004
1.168670e+003,-7.785801e-005
1.170598e+003,1.643479e-005
1.172526e+003,-9.508428e-005
1.174455e+003,-1.823646e-004
1.176384e+003,-2.602893e-004
1.178312e+003,-8.753131e-005
1.180240e+003,2.226665e-005
1.182169e+003,-2.553221e-004
1.184098e+003,-4.162953e-004
1.186026e+003,-4.913648e-004
1.187954e+003,-2.743626e-004
1.189883e+003,-1.915719e-004
1.191812e+003,-3.342270e-004
1.193740e+003,-3.541909e-004
1.195668e+003,-2.417118e-004
1.197597e+003,-1.673609e-004
1.199526e+003,-1.543441e-004
1.201454e+003,-2.225706e-004
1.203382e+003,-1.995867e-004
1.205311e+003,7.952177e-007
1.207240e+003,6.945450e-005
1.209168e+003,1.077653e-004
1.211096e+003,3.131301e-004
1.213025e+003,4.604758e-004
1.214953e+003,6.351467e-004
1.216882e+003,7.424059e-004
1.218810e+003,8.434835e-004
1.220739e+003,1.035712e-003
1.222667e+003,1.205531e-003
1.224596e+003,1.305852e-003
1.226524e+003,1.493664e-003
1.228453e+003,1.560165e-003
1.230381e+003,1.621522e-003
1.232310e+003,1.786513e-003
1.234238e+003,2.052593e-003
1.236167e+003,2.214151e-003
1.238095e+003,2.266074e-003
1.240024e+003,2.307011e-003
1.241952e+003,2.265008e-003
1.243881e+003,2.137893e-003
1.245809e+003,1.962850e-003
1.247738e+003,1.917419e-003
1.249666e+003,1.944111e-003
1.251595e+003,1.896553e-003
1.253523e+003,1.840581e-003
1.255452e+003,1.706371e-003
1.257380e+003,1.482393e-003
1.259309e+003,1.386518e-003
1.261237e+003,1.552883e-003
1.263166e+003,1.958989e-003
1.265094e+003,2.380000e-003
1.267023e+003,2.655412e-003
1.268951e+003,2.740630e-003
1.270880e+003,2.897841e-003
1.272808e+003,3.062250e-003
1.274737e+003,3.351217e-003
1.276665e+003,3.790861e-003
1.278594e+003,4.081819e-003
1.280522e+003,4.246777e-003
1.282451e+003,4.371366e-003
1.284379e+003,4.632001e-003
1.286308e+003,5.053535e-003
1.288236e+003,5.551989e-003
1.290165e+003,5.989064e-003
1.292093e+003,6.309435e-003
1.294022e+003,6.607300e-003
1.295950e+003,6.714732e-003
1.297879e+003,6.819970e-003
1.299807e+003,6.769889e-003
1.301736e+003,6.587620e-003
1.303664e+003,6.581598e-003
1.305593e+003,6.458830e-003
1.307521e+003,6.291886e-003
1.309450e+003,6.140130e-003
1.311378e+003,5.827674e-003
1.313307e+003,5.532223e-003
1.315235e+003,5.252365e-003
1.317164e+003,5.021423e-003
1.319092e+003,4.804171e-003
1.321021e+003,4.527728e-003
1.322949e+003,4.102925e-003
1.324878e+003,3.802794e-003
1.326806e+003,3.698486e-003
1.328735e+003,3.638773e-003
1.330663e+003,3.669948e-003
1.332592e+003,3.407150e-003
1.334520e+003,3.102695e-003
1.336449e+003,3.071727e-003
1.338377e+003,3.036324e-003
1.340306e+003,3.057011e-003
1.342234e+003,3.110504e-003
1.344163e+003,2.954650e-003
1.346091e+003,2.806089e-003
1.348020e+003,2.811425e-003
1.349948e+003,2.724759e-003
1.351877e+003,2.548379e-003
1.353805e+003,2.426079e-003
1.355734e+003,2.337158e-003
1.357662e+003,2.216682e-003
1.359591e+003,2.040175e-003
1.361519e+003,1.798357e-003
1.363448e+003,1.692800e-003
1.365376e+003,1.839150e-003
1.367305e+003,1.643639e-003
1.369233e+003,1.502774e-003
1.371162e+003,1.484919e-003
1.373090e+003,1.429300e-003
1.375019e+003,1.422651e-003
1.376947e+003,1.488876e-003
1.378876e+003,1.486050e-003
1.380804e+003,1.439672e-003
1.382733e+003,1.305187e-003
1.384661e+003,1.238160e-003
1.386590e+003,9.565721e-004
1.388518e+003,7.459574e-004
1.390447e+003,7.626527e-004
1.392375e+003,5.573739e-004
1.394304e+003,2.112477e-004
1.396232e+003,2.476481e-004
1.398161e+003,2.277900e-004
1.400089e+003,2.619704e-004
1.402018e+003,4.608739e-004
1.403946e+003,4.792168e-004
1.405875e+003,5.135830e-004
1.407803e+003,6.432434e-004
1.409732e+003,6.005387e-004
1.411660e+003,6.404892e-004
1.413589e+003,7.379584e-004
1.415517e+003,8.095560e-004
1.417446e+003,9.588302e-004
1.419374e+003,1.444393e-003
1.421303e+003,2.365574e-003
1.423231e+003,2.910183e-003
1.425160e+003,3.389418e-003
1.427088e+003,3.942335e-003
1.429017e+003,4.317048e-003
1.430945e+003,4.603503e-003
1.432874e+003,4.916352e-003
1.434802e+003,4.963337e-003
1.436731e+003,4.928248e-003
1.438659e+003,5.650232e-003
1.440588e+003,6.112271e-003
1.442516e+003,6.398097e-003
1.444445e+003,6.790217e-003
1.446373e+003,7.076995e-003
1.448302e+003,7.414684e-003
1.450230e+003,8.044608e-003
1.452159e+003,8.396732e-003
1.454087e+003,8.301818e-003
1.456016e+003,7.733984e-003
1.457944e+003,8.036541e-003
1.459873e+003,9.011540e-003
1.461801e+003,9.325042e-003
1.463730e+003,9.104579e-003
1.465658e+003,8.964216e-003
1.467587e+003,9.038333e-003
1.469515e+003,8.801785e-003
1.471444e+003,8.120459e-003
1.473372e+003,7.703763e-003
1.475301e+003,7.756718e-003
1.477229e+003,7.701504e-003
1.479158e+003,7.588702e-003
1.481086e+003,7.327364e-003
1.483015e+003,6.917153e-003
1.484943e+003,6.302341e-003
1.486872e+003,5.793490e-003
1.488800e+003,5.252264e-003
1.490729e+003,4.831443e-003
1.492657e+003,4.702636e-003
1.494586e+003,4.235903e-003
1.496514e+003,3.535974e-003
1.498443e+003,3.318362e-003
1.500371e+003,3.324840e-003
1.502300e+003,3.138838e-003
1.504228e+003,2.333460e-003
1.506157e+003,1.256071e-003
1.508085e+003,1.398684e-003
1.510014e+003,1.853958e-003
1.511942e+003,1.834725e-003
1.513871e+003,1.803115e-003
1.515799e+003,1.717249e-003
1.517728e+003,1.772606e-003
1.519656e+003,1.625945e-003
1.521585e+003,1.348859e-003
1.523513e+003,1.788210e-003
1.525442e+003,2.062580e-003
1.527370e+003,2.448703e-003
1.529299e+003,2.875227e-003
1.531227e+003,3.042597e-003
1.533156e+003,3.044799e-003
1.535084e+003,3.463725e-003
1.537013e+003,3.565238e-003
1.538941e+003,3.119815e-003
1.540870e+003,3.271922e-003
1.542798e+003,4.119817e-003
1.544727e+003,4.709000e-003
1.546655e+003,5.283254e-003
1.548584e+003,5.695484e-003
1.550512e+003,5.856253e-003
1.552441e+003,5.817801e-003
1.554369e+003,5.656609e-003
1.556298e+003,5.530310e-003
1.558226e+003,4.866356e-003
1.560155e+003,5.586692e-003
1.562083e+003,7.007690e-003
1.564012e+003,7.427020e-003
1.565940e+003,7.612238e-003
1.567869e+003,7.747476e-003
1.569797e+003,7.789439e-003
1.571726e+003,8.237349e-003
1.573654e+003,8.274732e-003
1.575583e+003,7.791631e-003
1.577511e+003,7.941435e-003
1.579440e+003,8.276962e-003
1.581368e+003,8.193655e-003
1.583297e+003,8.002384e-003
1.585225e+003,7.748791e-003
1.587154e+003,7.523429e-003
1.589082e+003,7.181511e-003
1.591010e+003,6.690336e-003
1.592939e+003,6.115430e-003
1.594868e+003,5.646975e-003
1.596796e+003,5.266686e-003
1.598724e+003,4.959852e-003
1.600653e+003,4.427530e-003
1.602582e+003,3.752191e-003
1.604510e+003,3.246717e-003
1.606438e+003,2.843441e-003
1.608367e+003,2.428578e-003
1.610296e+003,2.134796e-003
1.612224e+003,1.761727e-003
1.614152e+003,1.209651e-003
1.616081e+003,4.193812e-004
1.618010e+003,4.584194e-004
1.619938e+003,6.951449e-004
1.621866e+003,3.325280e-004
1.623795e+003,-2.438597e-005
1.625724e+003,-2.972022e-005
1.627652e+003,-1.225786e-004
1.629580e+003,-1.630551e-004
1.631509e+003,-3.907065e-004
1.633438e+003,-9.359551e-004
1.635366e+003,-1.769426e-003
1.637294e+003,-1.627770e-003
1.639223e+003,-1.403508e-003
1.641151e+003,-1.661043e-003
1.643080e+003,-2.054612e-003
1.645008e+003,-2.838212e-003
1.646937e+003,-3.577518e-003
1.648865e+003,-3.488419e-003
1.650794e+003,-3.954448e-003
1.652722e+003,-5.396635e-003
1.654651e+003,-5.254357e-003
1.656579e+003,-4.587873e-003
1.658508e+003,-4.682254e-003
1.660436e+003,-5.185476e-003
1.662365e+003,-5.745833e-003
1.664293e+003,-5.763097e-003
1.666222e+003,-5.806157e-003
1.668150e+003,-6.239921e-003
1.670079e+003,-6.572678e-003
1.672007e+003,-6.497151e-003
1.673936e+003,-6.559623e-003
1.675864e+003,-6.533578e-003
1.677793e+003,-6.246813e-003
1.679721e+003,-6.304357e-003
1.681650e+003,-6.549408e-003
1.683578e+003,-7.103967e-003
1.685507e+003,-6.599439e-003
1.687435e+003,-5.837445e-003
1.689364e+003,-5.503959e-003
1.691292e+003,-5.145399e-003
1.693221e+003,-5.165307e-003
1.695149e+003,-5.765517e-003
1.697078e+003,-5.815116e-003
1.699006e+003,-6.100925e-003
1.700935e+003,-6.165349e-003
1.702863e+003,-5.266731e-003
1.704792e+003,-5.157155e-003
1.706720e+003,-5.089077e-003
1.708649e+003,-4.977719e-003
1.710577e+003,-4.978931e-003
1.712506e+003,-5.216448e-003
1.714434e+003,-5.507526e-003
1.716363e+003,-5.944039e-003
1.718291e+003,-5.965642e-003
1.720220e+003,-5.261330e-003
1.722148e+003,-4.920064e-003
1.724077e+003,-4.978374e-003
1.726005e+003,-5.020759e-003
1.727934e+003,-5.101193e-003
1.729862e+003,-5.249087e-003
1.731791e+003,-5.545770e-003
1.733719e+003,-6.133203e-003
1.735648e+003,-5.755642e-003
1.737576e+003,-5.259791e-003
1.739505e+003,-5.362829e-003
1.741433e+003,-5.247679e-003
1.743362e+003,-5.102732e-003
1.745290e+003,-4.950236e-003
1.747219e+003,-4.991902e-003
1.749147e+003,-5.102274e-003
1.751076e+003,-5.073193e-003
1.753004e+003,-4.706476e-003
1.754933e+003,-4.565185e-003
1.756861e+003,-4.572103e-003
1.758790e+003,-4.432178e-003
1.760718e+003,-4.562365e-003
1.762647e+003,-4.562103e-003
1.764575e+003,-4.240565e-003
1.766504e+003,-4.340138e-003
1.768432e+003,-4.476059e-003
1.770361e+003,-4.563874e-003
1.772289e+003,-4.750199e-003
1.774218e+003,-4.429522e-003
1.776146e+003,-4.030419e-003
1.778075e+003,-3.962197e-003
1.780003e+003,-3.968501e-003
1.781932e+003,-3.917574e-003
1.783860e+003,-3.920070e-003
1.785789e+003,-3.965447e-003
1.787717e+003,-4.016532e-003
1.789646e+003,-4.143004e-003
1.791574e+003,-4.302313e-003
1.793503e+003,-4.133716e-003
1.795431e+003,-3.875180e-003
1.797360e+003,-3.870878e-003
1.799288e+003,-4.051493e-003
1.801217e+003,-4.119570e-003
1.803145e+003,-3.946502e-003
1.805074e+003,-3.822798e-003
1.807002e+003,-3.771427e-003
1.808931e+003,-3.839778e-003
1.810859e+003,-3.882011e-003
1.812788e+003,-3.954776e-003
1.814716e+003,-4.003335e-003
1.816645e+003,-4.006847e-003
1.818573e+003,-3.964758e-003
1.820502e+003,-3.934616e-003
1.822430e+003,-3.908380e-003
1.824359e+003,-4.093148e-003
1.826287e+003,-4.175100e-003
1.828216e+003,-4.191246e-003
1.830144e+003,-4.240172e-003
1.832073e+003,-4.140805e-003
1.834001e+003,-4.054940e-003
1.835930e+003,-4.024411e-003
1.837858e+003,-4.018436e-003
1.839787e+003,-4.003663e-003
1.841715e+003,-4.149962e-003
1.843644e+003,-4.529543e-003
1.845572e+003,-4.436803e-003
1.847501e+003,-4.187833e-003
1.849429e+003,-4.088389e-003
1.851358e+003,-4.005600e-003
1.853286e+003,-4.015153e-003
1.855215e+003,-4.009802e-003
1.857143e+003,-4.057205e-003
1.859072e+003,-4.119012e-003
1.861000e+003,-4.096595e-003
1.862929e+003,-4.016433e-003
1.864857e+003,-3.958355e-003
1.866786e+003,-4.117207e-003
1.868714e+003,-4.194167e-003
1.870643e+003,-3.987478e-003
1.872571e+003,-3.897872e-003
1.874500e+003,-3.856855e-003
1.876428e+003,-3.727902e-003
1.878357e+003,-3.674418e-003
1.880285e+003,-3.652437e-003
1.882214e+003,-3.637027e-003
1.884142e+003,-3.679116e-003
1.886071e+003,-3.690023e-003
1.887999e+003,-3.758124e-003
1.889928e+003,-3.824801e-003
1.891856e+003,-3.696430e-003
1.893785e+003,-3.571734e-003
1.895713e+003,-3.510474e-003
1.897642e+003,-3.535715e-003
1.899570e+003,-3.520564e-003
1.901499e+003,-3.463109e-003
1.903427e+003,-3.407587e-003
1.905356e+003,-3.447134e-003
1.907284e+003,-3.465114e-003
1.909213e+003,-3.424024e-003
1.911141e+003,-3.382831e-003
1.913070e+003,-3.450947e-003
1.914998e+003,-3.479084e-003
1.916927e+003,-3.622767e-003
1.918855e+003,-3.643566e-003
1.920784e+003,-3.528649e-003
1.922712e+003,-3.511952e-003
1.924641e+003,-3.476652e-003
1.926569e+003,-3.464687e-003
1.928498e+003,-3.410907e-003
1.930426e+003,-3.436976e-003
1.932355e+003,-3.510868e-003
1.934283e+003,-3.543471e-003
1.936212e+003,-3.565720e-003
1.938140e+003,-3.569861e-003
1.940069e+003,-3.583926e-003
1.941997e+003,-3.678196e-003
1.943926e+003,-3.636304e-003
1.945854e+003,-3.602262e-003
1.947783e+003,-3.620927e-003
1.949711e+003,-3.572128e-003
1.951640e+003,-3.568382e-003
1.953568e+003,-3.624771e-003
1.955497e+003,-3.600488e-003
1.957425e+003,-3.618856e-003
1.959354e+003,-3.672709e-003
1.961282e+003,-3.644387e-003
1.963211e+003,-3.694491e-003
1.965139e+003,-3.732501e-003
1.967068e+003,-3.707994e-003
1.968996e+003,-3.648330e-003
1.970925e+003,-3.557077e-003
1.972853e+003,-3.513399e-003
1.974782e+003,-3.559706e-003
1.976710e+003,-3.537621e-003
1.978639e+003,-3.482766e-003
1.980567e+003,-3.525132e-003
1.982496e+003,-3.556157e-003
1.984424e+003,-3.532691e-003
1.986353e+003,-3.428396e-003
1.988281e+003,-3.365505e-003
1.990210e+003,-3.376519e-003
1.992138e+003,-3.370173e-003
1.994067e+003,-3.339300e-003
1.995995e+003,-3.308391e-003
1.997924e+003,-3.259459e-003
1.999852e+003,-3.325030e-003
2.001781e+003,-3.316710e-003
2.003709e+003,-3.178058e-003
2.005638e+003,-3.134802e-003
2.007566e+003,-3.108616e-003
2.009495e+003,-3.055220e-003
2.011423e+003,-2.984870e-003
2.013352e+003,-3.020771e-003
2.015280e+003,-3.107334e-003
2.017208e+003,-3.158585e-003
2.019137e+003,-3.025180e-003
2.021066e+003,-2.950415e-003
2.022994e+003,-2.999744e-003
2.024922e+003,-2.974867e-003
2.026851e+003,-2.906874e-003
2.028780e+003,-3.012643e-003
2.030708e+003,-3.084041e-003
2.032636e+003,-3.081278e-003
2.034565e+003,-3.078975e-003
2.036494e+003,-2.954167e-003
2.038422e+003,-2.893972e-003
2.040350e+003,-2.970424e-003
2.042279e+003,-3.072789e-003
2.044208e+003,-3.047192e-003
2.046136e+003,-3.016756e-003
2.048064e+003,-2.995927e-003
2.049993e+003,-2.925502e-003
2.051921e+003,-2.792420e-003
2.053850e+003,-2.754361e-003
2.055778e+003,-2.800881e-003
2.057707e+003,-2.820271e-003
2.059635e+003,-2.815465e-003
2.061564e+003,-2.788437e-003
2.063492e+003,-2.792683e-003
2.065421e+003,-2.755909e-003
2.067349e+003,-2.661668e-003
2.069278e+003,-2.586940e-003
2.071206e+003,-2.568199e-003
2.073135e+003,-2.561776e-003
2.075063e+003,-2.614409e-003
2.076992e+003,-2.580616e-003
2.078920e+003,-2.567902e-003
2.080849e+003,-2.596722e-003
2.082777e+003,-2.502679e-003
2.084706e+003,-2.447330e-003
2.086634e+003,-2.453063e-003
2.088563e+003,-2.452700e-003
2.090491e+003,-2.338753e-003
2.092420e+003,-2.239972e-003
2.094348e+003,-2.275011e-003
2.096277e+003,-2.270166e-003
2.098205e+003,-2.274747e-003
2.100134e+003,-2.216700e-003
2.102062e+003,-2.089567e-003
2.103991e+003,-1.935744e-003
2.105919e+003,-1.881873e-003
2.107848e+003,-1.920768e-003
2.109776e+003,-1.890418e-003
2.111705e+003,-1.826082e-003
2.113633e+003,-1.801698e-003
2.115562e+003,-1.724578e-003
2.117490e+003,-1.687448e-003
2.119419e+003,-1.644044e-003
2.121347e+003,-1.531766e-003
2.123276e+003,-1.507167e-003
2.125204e+003,-1.622719e-003
2.127133e+003,-1.603639e-003
2.129061e+003,-1.584128e-003
2.130990e+003,-1.457471e-003
2.132918e+003,-1.342403e-003
2.134847e+003,-1.336755e-003
2.136775e+003,-1.321593e-003
2.138704e+003,-1.274088e-003
2.140632e+003,-1.295429e-003
2.142561e+003,-1.220102e-003
2.144489e+003,-1.180980e-003
2.146418e+003,-1.289846e-003
2.148346e+003,-1.301144e-003
2.150275e+003,-1.257107e-003
2.152203e+003,-1.355186e-003
2.154132e+003,-1.337911e-003
2.156060e+003,-1.229288e-003
2.157989e+003,-1.248484e-003
2.159917e+003,-1.341445e-003
2.161846e+003,-1.372494e-003
2.163774e+003,-1.312707e-003
2.165703e+003,-1.239563e-003
2.167631e+003,-1.253340e-003
2.169560e+003,-1.185969e-003
2.171488e+003,-1.151801e-003
2.173417e+003,-1.244155e-003
2.175345e+003,-1.241149e-003
2.177274e+003,-1.298006e-003
2.179202e+003,-1.401130e-003
2.181131e+003,-1.367672e-003
2.183059e+003,-1.299493e-003
2.184988e+003,-1.239464e-003
2.186916e+003,-1.224034e-003
2.188845e+003,-1.330677e-003
2.190773e+003,-1.361891e-003
2.192702e+003,-1.211181e-003
2.194630e+003,-1.068285e-003
2.196559e+003,-1.124636e-003
2.198487e+003,-1.209066e-003
2.200416e+003,-1.237812e-003
2.202344e+003,-1.233120e-003
2.204273e+003,-1.278383e-003
2.206201e+003,-1.335169e-003
2.208130e+003,-1.336953e-003
2.210058e+003,-1.364831e-003
2.211987e+003,-1.353336e-003
2.213915e+003,-1.283966e-003
2.215844e+003,-1.262690e-003
2.217772e+003,-1.221589e-003
2.219701e+003,-1.142350e-003
2.221629e+003,-1.161715e-003
2.223558e+003,-1.211181e-003
2.225486e+003,-1.203945e-003
2.227415e+003,-1.226975e-003
2.229343e+003,-1.261236e-003
2.231272e+003,-1.311385e-003
2.233200e+003,-1.311253e-003
2.235129e+003,-1.329190e-003
2.237057e+003,-1.357961e-003
2.238986e+003,-1.314457e-003
2.240914e+003,-1.298964e-003
2.242843e+003,-1.290144e-003
2.244771e+003,-1.235730e-003
2.246700e+003,-1.244618e-003
2.248628e+003,-1.310658e-003
2.250557e+003,-1.351024e-003
2.252485e+003,-1.329025e-003
2.254414e+003,-1.329223e-003
2.256342e+003,-1.350165e-003
2.258271e+003,-1.394920e-003
2.260199e+003,-1.426362e-003
2.262128e+003,-1.440761e-003
2.264056e+003,-1.514167e-003
2.265985e+003,-1.610935e-003
2.267913e+003,-1.606940e-003
2.269842e+003,-1.573861e-003
2.271770e+003,-1.556264e-003
2.273699e+003,-1.585878e-003
2.275627e+003,-1.620805e-003
2.277556e+003,-1.701046e-003
2.279484e+003,-1.827435e-003
2.281413e+003,-1.821793e-003
2.283341e+003,-1.849706e-003
2.285270e+003,-1.942275e-003
2.287198e+003,-1.905263e-003
2.289127e+003,-1.810673e-003
2.291055e+003,-1.684907e-003
2.292984e+003,-1.731937e-003
2.294912e+003,-1.844592e-003
2.296841e+003,-1.816184e-003
2.298769e+003,-1.808001e-003
2.300698e+003,-1.824037e-003
2.302626e+003,-1.763717e-003
2.304555e+003,-1.712334e-003
2.306483e+003,-1.721872e-003
2.308412e+003,-1.713324e-003
2.310340e+003,-1.630180e-003
2.312269e+003,-1.602946e-003
2.314197e+003,-1.653847e-003
2.316125e+003,-1.603012e-003
2.318054e+003,-1.588288e-003
2.319983e+003,-1.503271e-003
2.321911e+003,-1.397365e-003
2.323840e+003,-1.366912e-003
2.325768e+003,-1.372494e-003
2.327697e+003,-1.301244e-003
2.329625e+003,-1.262062e-003
2.331553e+003,-1.275971e-003
2.333482e+003,-1.152297e-003
2.335411e+003,-9.882241e-004
2.337339e+003,-9.390960e-004
2.339268e+003,-9.975466e-004
2.341196e+003,-1.089108e-003
2.343125e+003,-1.032950e-003
2.345053e+003,-1.007232e-003
2.346981e+003,-1.030802e-003
2.348910e+003,-9.862736e-004
2.350839e+003,-9.399226e-004
2.352767e+003,-9.643220e-004
2.354696e+003,-9.609498e-004
2.356624e+003,-7.742814e-004
2.358552e+003,-6.760706e-004
2.360481e+003,-7.635981e-004
2.362409e+003,-8.166485e-004
2.364338e+003,-7.558252e-004
2.366267e+003,-6.610509e-004
2.368195e+003,-5.892203e-004
2.370124e+003,-5.635424e-004
2.372052e+003,-6.179077e-004
2.373980e+003,-7.374343e-004
2.375909e+003,-7.170248e-004
2.377838e+003,-5.227392e-004
2.379766e+003,-4.715395e-004
2.381695e+003,-5.229047e-004
2.383623e+003,-5.502396e-004
2.385552e+003,-6.343516e-004
2.387480e+003,-5.935219e-004
2.389408e+003,-5.530524e-004
2.391337e+003,-5.654617e-004
2.393266e+003,-4.850764e-004
2.395194e+003,-4.396980e-004
2.397123e+003,-3.532640e-004
2.399051e+003,-2.826408e-004
2.400979e+003,-2.974749e-004
2.402908e+003,-2.485005e-004
2.404836e+003,-1.126411e-004
2.406765e+003,-7.186179e-005
2.408694e+003,-1.759724e-004
2.410622e+003,-1.981957e-004
2.412551e+003,-1.270836e-004
2.414479e+003,-9.435549e-005
2.416407e+003,-4.701466e-005
2.418336e+003,-9.277521e-007
2.420264e+003,6.276040e-005
2.422193e+003,1.061082e-004
2.424122e+003,1.870156e-004
2.426050e+003,2.101206e-004
2.427979e+003,2.468525e-004
2.429907e+003,2.494715e-004
2.431835e+003,2.371388e-004
2.433764e+003,1.495265e-004
2.435692e+003,1.952365e-004
2.437621e+003,3.045755e-004
2.439550e+003,3.758032e-004
2.441478e+003,4.508900e-004
2.443406e+003,4.586184e-004
2.445335e+003,4.712228e-004
2.447263e+003,5.324258e-004
2.449192e+003,5.395252e-004
2.451121e+003,5.118912e-004
2.453049e+003,5.523310e-004
2.454978e+003,6.139104e-004
2.456906e+003,6.788835e-004
2.458834e+003,7.545871e-004
2.460763e+003,7.556492e-004
2.462691e+003,7.582050e-004
2.464620e+003,8.773472e-004
2.466549e+003,9.313687e-004
2.468477e+003,9.087565e-004
2.470406e+003,9.272845e-004
2.472334e+003,9.546461e-004
2.474262e+003,9.585978e-004
2.476191e+003,9.889503e-004
2.478119e+003,1.052385e-003
2.480048e+003,1.033188e-003
2.481977e+003,1.074573e-003
2.483905e+003,1.165229e-003
2.485833e+003,1.259394e-003
2.487762e+003,1.336661e-003
2.489690e+003,1.302329e-003
2.491619e+003,1.255406e-003
2.493547e+003,1.174233e-003
2.495476e+003,1.133934e-003
2.497405e+003,1.223274e-003
2.499333e+003,1.328950e-003
2.501261e+003,1.375881e-003
2.503190e+003,1.411848e-003
2.505118e+003,1.315756e-003
2.507047e+003,1.248993e-003
2.508975e+003,1.319478e-003
2.510904e+003,1.303692e-003
2.512833e+003,1.269795e-003
2.514761e+003,1.377477e-003
2.516689e+003,1.423848e-003
2.518618e+003,1.500313e-003
2.520546e+003,1.598608e-003
2.522475e+003,1.563490e-003
2.524403e+003,1.497321e-003
2.526332e+003,1.547064e-003
2.528260e+003,1.566284e-003
2.530189e+003,1.573467e-003
2.532117e+003,1.617797e-003
2.534046e+003,1.592356e-003
2.535974e+003,1.590327e-003
2.537903e+003,1.595714e-003
2.539831e+003,1.619892e-003
2.541760e+003,1.617464e-003
2.543688e+003,1.638384e-003
2.545617e+003,1.715552e-003
2.547545e+003,1.808771e-003
2.549474e+003,1.845605e-003
2.551402e+003,1.863308e-003
2.553331e+003,1.866536e-003
2.555259e+003,1.891195e-003
2.557188e+003,1.885804e-003
2.559116e+003,1.925273e-003
2.561045e+003,1.990044e-003
2.562973e+003,2.048298e-003
2.564902e+003,2.055423e-003
2.566830e+003,2.011381e-003
2.568759e+003,1.970339e-003
2.570687e+003,1.993672e-003
2.572616e+003,1.996368e-003
2.574544e+003,1.946774e-003
2.576473e+003,1.990976e-003
2.578401e+003,2.028757e-003
2.580330e+003,2.020735e-003
2.582258e+003,2.070104e-003
2.584187e+003,1.960653e-003
2.586115e+003,1.947007e-003
2.588044e+003,2.098570e-003
2.589972e+003,2.088648e-003
2.591901e+003,2.087217e-003
2.593829e+003,2.078128e-003
2.595758e+003,2.042606e-003
2.597686e+003,2.180349e-003
2.599615e+003,2.283561e-003
2.601543e+003,2.267739e-003
2.603472e+003,2.268838e-003
2.605400e+003,2.224442e-003
2.607329e+003,2.219579e-003
2.609257e+003,2.259113e-003
2.611186e+003,2.245957e-003
2.613114e+003,2.340422e-003
2.615043e+003,2.439407e-003
2.616971e+003,2.390828e-003
2.618900e+003,2.324666e-003
2.620828e+003,2.351183e-003
2.622757e+003,2.308476e-003
2.624685e+003,2.291588e-003
2.626614e+003,2.372671e-003
2.628542e+003,2.436275e-003
2.630471e+003,2.462199e-003
2.632399e+003,2.535381e-003
2.634328e+003,2.618942e-003
2.636256e+003,2.611309e-003
2.638185e+003,2.522483e-003
2.640113e+003,2.524616e-003
2.642042e+003,2.615442e-003
2.643970e+003,2.795951e-003
2.645899e+003,2.856549e-003
2.647827e+003,2.746465e-003
2.649756e+003,2.647944e-003
2.651684e+003,2.680949e-003
2.653613e+003,2.806022e-003
2.655541e+003,2.872658e-003
2.657470e+003,2.860551e-003
2.659398e+003,2.812692e-003
2.661327e+003,2.799019e-003
2.663255e+003,2.881864e-003
2.665184e+003,2.957052e-003
2.667112e+003,3.047335e-003
2.669041e+003,2.961689e-003
2.670969e+003,2.958220e-003
2.672898e+003,3.121583e-003
2.674826e+003,3.178455e-003
2.676755e+003,3.205358e-003
2.678683e+003,3.236268e-003
2.680612e+003,3.243646e-003
2.682540e+003,3.224117e-003
2.684469e+003,3.233431e-003
2.686397e+003,3.371853e-003
2.688326e+003,3.398802e-003
2.690254e+003,3.421377e-003
2.692183e+003,3.510988e-003
2.694111e+003,3.605061e-003
2.696040e+003,3.659723e-003
2.697968e+003,3.645021e-003
2.699897e+003,3.637270e-003
2.701825e+003,3.634396e-003
2.703754e+003,3.644921e-003
2.705682e+003,3.668578e-003
2.707611e+003,3.600751e-003
2.709539e+003,3.600116e-003
2.711468e+003,3.839597e-003
2.713396e+003,3.923711e-003
2.715325e+003,3.895259e-003
2.717253e+003,3.834917e-003
2.719182e+003,3.786149e-003
2.721110e+003,3.839062e-003
2.723039e+003,3.983597e-003
2.724967e+003,4.054694e-003
2.726896e+003,4.186688e-003
2.728824e+003,4.165411e-003
2.730753e+003,4.186287e-003
2.732681e+003,4.315977e-003
2.734610e+003,4.252365e-003
2.736538e+003,4.223088e-003
2.738467e+003,4.210575e-003
2.740395e+003,4.186755e-003
2.742324e+003,4.296434e-003
2.744252e+003,4.447313e-003
2.746181e+003,4.562717e-003
2.748109e+003,4.635484e-003
2.750038e+003,4.665057e-003
2.751966e+003,4.780954e-003
2.753895e+003,4.769464e-003
2.755823e+003,4.889678e-003
2.757752e+003,5.082164e-003
2.759680e+003,5.153609e-003
2.761609e+003,5.393412e-003
2.763537e+003,5.680511e-003
2.765466e+003,5.714888e-003
2.767394e+003,5.790300e-003
2.769323e+003,5.979288e-003
2.771251e+003,6.226337e-003
2.773180e+003,6.484390e-003
2.775108e+003,6.656656e-003
2.777037e+003,6.976914e-003
2.778965e+003,7.443941e-003
2.780894e+003,7.881440e-003
2.782822e+003,8.315226e-003
2.784750e+003,8.813721e-003
2.786679e+003,9.116929e-003
2.788608e+003,9.355545e-003
2.790536e+003,9.728997e-003
2.792465e+003,1.005051e-002
2.794393e+003,1.034329e-002
2.796322e+003,1.072917e-002
2.798250e+003,1.114905e-002
2.800178e+003,1.145185e-002
2.802107e+003,1.174180e-002
2.804036e+003,1.194542e-002
2.805964e+003,1.204263e-002
2.807893e+003,1.209359e-002
2.809821e+003,1.219694e-002
2.811750e+003,1.219779e-002
2.813678e+003,1.216528e-002
2.815606e+003,1.209778e-002
2.817535e+003,1.191987e-002
2.819464e+003,1.174809e-002
2.821392e+003,1.157608e-002
2.823321e+003,1.140318e-002
2.825249e+003,1.107172e-002
2.827177e+003,1.077431e-002
2.829106e+003,1.045898e-002
2.831034e+003,1.016942e-002
2.832963e+003,9.927946e-003
2.834892e+003,9.653035e-003
2.836820e+003,9.243431e-003
2.838749e+003,8.807871e-003
2.840677e+003,8.407981e-003
2.842605e+003,7.887682e-003
2.844534e+003,7.327162e-003
2.846462e+003,6.858813e-003
2.848391e+003,6.415751e-003
2.850320e+003,6.079307e-003
2.852248e+003,5.918153e-003
2.854177e+003,5.898470e-003
2.856105e+003,5.904146e-003
2.858033e+003,5.899746e-003
2.859962e+003,5.838689e-003
2.861890e+003,5.920336e-003
2.863819e+003,5.929708e-003
2.865748e+003,5.910965e-003
2.867676e+003,5.971092e-003
2.869604e+003,5.998941e-003
2.871533e+003,5.936459e-003
2.873461e+003,5.936727e-003
2.875390e+003,6.025314e-003
2.877319e+003,6.080584e-003
2.879247e+003,6.267044e-003
2.881176e+003,6.348738e-003
2.883104e+003,6.387001e-003
2.885032e+003,6.361178e-003
2.886961e+003,6.274876e-003
2.888889e+003,6.232320e-003
2.890818e+003,6.164158e-003
2.892747e+003,6.215682e-003
2.894675e+003,6.170847e-003
2.896604e+003,5.983622e-003
2.898532e+003,5.862735e-003
2.900460e+003,5.886715e-003
2.902389e+003,5.693838e-003
2.904317e+003,5.446086e-003
2.906246e+003,5.439577e-003
2.908175e+003,5.433940e-003
2.910103e+003,5.294792e-003
2.912031e+003,4.996719e-003
2.913960e+003,4.730270e-003
2.915888e+003,4.629456e-003
2.917817e+003,4.507808e-003
2.919745e+003,4.541891e-003
2.921674e+003,4.631734e-003
2.923603e+003,4.730404e-003
2.925531e+003,4.780217e-003
2.927459e+003,4.981101e-003
2.929388e+003,5.104961e-003
2.931316e+003,5.210982e-003
2.933245e+003,5.296838e-003
2.935173e+003,5.302875e-003
2.937102e+003,5.495075e-003
2.939031e+003,5.630225e-003
2.940959e+003,5.551318e-003
2.942887e+003,5.488900e-003
2.944816e+003,5.369090e-003
2.946744e+003,5.229091e-003
2.948673e+003,4.923121e-003
2.950601e+003,4.636958e-003
2.952530e+003,4.361157e-003
2.954458e+003,4.060112e-003
2.956387e+003,3.724385e-003
2.958315e+003,3.285209e-003
2.960244e+003,2.998721e-003
2.962172e+003,2.797152e-003
2.964101e+003,2.478794e-003
2.966029e+003,2.182081e-003
2.967958e+003,1.962483e-003
2.969886e+003,1.796727e-003
2.971815e+003,1.478037e-003
2.973743e+003,1.277405e-003
2.975672e+003,1.120846e-003
2.977600e+003,9.968875e-004
2.979529e+003,9.375449e-004
2.981457e+003,7.904688e-004
2.983386e+003,6.131141e-004
2.985314e+003,4.335765e-004
2.987243e+003,2.990714e-004
2.989171e+003,3.569340e-004
2.991100e+003,2.600143e-004
2.993028e+003,1.747509e-004
2.994957e+003,1.193652e-004
2.996885e+003,7.594986e-005
2.998814e+003,5.792216e-005
3.000742e+003,1.520879e-005
3.002671e+003,-4.042165e-005
3.004599e+003,-1.028690e-004
3.006528e+003,-1.555033e-004
3.008456e+003,-7.259061e-005
3.010385e+003,-1.432811e-004
3.012313e+003,-2.515470e-004
3.014242e+003,-2.134964e-004
3.016170e+003,-2.537657e-004
3.018099e+003,-3.205198e-004
3.020027e+003,-3.575016e-004
3.021956e+003,-3.709428e-004
3.023884e+003,-3.190630e-004
3.025813e+003,-3.467749e-004
3.027741e+003,-4.370830e-004
3.029670e+003,-3.534957e-004
3.031598e+003,-3.964004e-004
3.033527e+003,-3.974266e-004
3.035455e+003,-4.919274e-004
3.037384e+003,-5.838599e-004
3.039312e+003,-5.514971e-004
3.041241e+003,-5.258832e-004
3.043169e+003,-5.985514e-004
3.045098e+003,-7.242691e-004
3.047026e+003,-7.923070e-004
3.048955e+003,-6.894688e-004
3.050883e+003,-6.676675e-004
3.052812e+003,-7.690556e-004
3.054740e+003,-8.701884e-004
3.056669e+003,-8.343415e-004
3.058597e+003,-7.325718e-004
3.060526e+003,-8.107616e-004
3.062454e+003,-9.242177e-004
3.064383e+003,-1.021877e-003
3.066311e+003,-1.090463e-003
3.068240e+003,-1.029810e-003
3.070168e+003,-9.509323e-004
3.072097e+003,-8.868873e-004
3.074025e+003,-9.034532e-004
3.075954e+003,-1.073111e-003
3.077882e+003,-1.146745e-003
3.079811e+003,-1.131147e-003
3.081739e+003,-1.081208e-003
3.083668e+003,-1.139243e-003
3.085596e+003,-1.364633e-003
3.087525e+003,-1.388282e-003
3.089453e+003,-1.241876e-003
3.091382e+003,-1.235433e-003
3.093310e+003,-1.317728e-003
3.095239e+003,-1.458924e-003
3.097167e+003,-1.455819e-003
3.099096e+003,-1.315845e-003
3.101024e+003,-1.418502e-003
3.102953e+003,-1.540945e-003
3.104881e+003,-1.450503e-003
3.106810e+003,-1.403607e-003
3.108738e+003,-1.399610e-003
3.110667e+003,-1.482765e-003
3.112595e+003,-1.491318e-003
3.114524e+003,-1.410245e-003
3.116452e+003,-1.421606e-003
3.118381e+003,-1.488643e-003
3.120309e+003,-1.565509e-003
3.122238e+003,-1.589444e-003
3.124166e+003,-1.511229e-003
3.126095e+003,-1.427683e-003
3.128023e+003,-1.436666e-003
3.129952e+003,-1.498120e-003
3.131880e+003,-1.567324e-003
3.133809e+003,-1.706525e-003
3.135737e+003,-1.677909e-003
3.137666e+003,-1.556693e-003
3.139594e+003,-1.576370e-003
3.141523e+003,-1.600998e-003
3.143451e+003,-1.481610e-003
3.145380e+003,-1.446011e-003
3.147308e+003,-1.555637e-003
3.149237e+003,-1.641931e-003
3.151165e+003,-1.562405e-003
3.153094e+003,-1.530379e-003
3.155022e+003,-1.644671e-003
3.156951e+003,-1.820143e-003
3.158879e+003,-1.820275e-003
3.160808e+003,-1.756886e-003
3.162736e+003,-1.752629e-003
3.164665e+003,-1.728472e-003
3.166593e+003,-1.655729e-003
3.168522e+003,-1.621894e-003
3.170450e+003,-1.656125e-003
3.172379e+003,-1.617900e-003
3.174307e+003,-1.546194e-003
3.176236e+003,-1.396010e-003
3.178164e+003,-1.363345e-003
3.180093e+003,-1.519582e-003
3.182021e+003,-1.682530e-003
3.183950e+003,-1.780910e-003
3.185878e+003,-1.714314e-003
3.187807e+003,-1.615886e-003
3.189735e+003,-1.699561e-003
3.191664e+003,-1.807770e-003
3.193592e+003,-1.828095e-003
3.195521e+003,-1.796848e-003
3.197449e+003,-1.686557e-003
3.199378e+003,-1.599909e-003
3.201306e+003,-1.580827e-003
3.203235e+003,-1.623380e-003
3.205163e+003,-1.671968e-003
3.207092e+003,-1.652791e-003
3.209020e+003,-1.557090e-003
3.210948e+003,-1.436005e-003
3.212877e+003,-1.411632e-003
3.214806e+003,-1.425371e-003
3.216734e+003,-1.417874e-003
3.218663e+003,-1.373650e-003
3.220591e+003,-1.358952e-003
3.222520e+003,-1.364468e-003
3.224448e+003,-1.240125e-003
3.226376e+003,-1.216236e-003
3.228305e+003,-1.144035e-003
3.230234e+003,-9.859761e-004
3.232162e+003,-8.621859e-004
3.234091e+003,-8.284549e-004
3.236019e+003,-7.373681e-004
3.237948e+003,-7.531460e-004
3.239876e+003,-8.113900e-004
3.241804e+003,-7.747445e-004
3.243733e+003,-8.208486e-004
3.245662e+003,-7.855599e-004
3.247590e+003,-6.499346e-004
3.249519e+003,-5.511331e-004
3.251447e+003,-4.920267e-004
3.253375e+003,-4.671374e-004
3.255304e+003,-3.728629e-004
3.257232e+003,-2.014414e-004
3.259161e+003,-1.859747e-004
3.261090e+003,-1.396044e-004
3.263018e+003,-9.763504e-005
3.264947e+003,-6.616364e-005
3.266875e+003,3.224062e-005
3.268803e+003,-3.074730e-005
3.270732e+003,3.313404e-008
3.272660e+003,-1.169616e-005
3.274589e+003,6.266099e-005
3.276518e+003,1.738560e-004
3.278446e+003,1.257619e-004
3.280375e+003,1.616579e-004
3.282303e+003,7.217193e-005
3.284231e+003,-4.370160e-005
3.286160e+003,4.523032e-005
3.288088e+003,3.412940e-005
3.290017e+003,1.951639e-005
3.291946e+003,-1.345365e-004
3.293874e+003,-1.497400e-004
3.295802e+003,-1.082354e-004
3.297731e+003,-2.297569e-004
3.299659e+003,-3.468411e-004
3.301588e+003,-3.930237e-004
3.303516e+003,-5.402126e-004
3.305445e+003,-6.610840e-004
3.307374e+003,-7.261215e-004
3.309302e+003,-8.892019e-004
3.311230e+003,-1.130353e-003
3.313159e+003,-1.166804e-003
3.315087e+003,-1.078928e-003
3.317016e+003,-1.140862e-003
3.318944e+003,-1.296751e-003
3.320873e+003,-1.416190e-003
3.322802e+003,-1.471439e-003
3.324730e+003,-1.570758e-003
3.326658e+003,-1.733884e-003
3.328587e+003,-1.806648e-003
3.330515e+003,-1.815986e-003
3.332444e+003,-1.797673e-003
3.334372e+003,-1.864388e-003
3.336301e+003,-1.993763e-003
3.338229e+003,-1.976151e-003
3.340158e+003,-2.079542e-003
3.342086e+003,-2.293799e-003
3.344015e+003,-2.315419e-003
3.345943e+003,-2.199854e-003
3.347872e+003,-2.154885e-003
3.349800e+003,-2.134575e-003
3.351729e+003,-2.211194e-003
3.353657e+003,-2.426276e-003
3.355586e+003,-2.586051e-003
3.357514e+003,-2.623367e-003
3.359443e+003,-2.558778e-003
3.361371e+003,-2.598271e-003
3.363300e+003,-2.791828e-003
3.365229e+003,-2.808387e-003
3.367157e+003,-2.820172e-003
3.369085e+003,-3.031991e-003
3.371014e+003,-3.180986e-003
3.372942e+003,-3.225848e-003
3.374871e+003,-3.280342e-003
3.376799e+003,-3.473233e-003
3.378728e+003,-3.651780e-003
3.380656e+003,-3.583433e-003
3.382585e+003,-3.593456e-003
3.384513e+003,-3.754182e-003
3.386442e+003,-3.657168e-003
3.388370e+003,-3.577255e-003
3.390299e+003,-3.767223e-003
3.392227e+003,-4.021620e-003
3.394156e+003,-3.973590e-003
3.396084e+003,-3.980222e-003
3.398013e+003,-4.090489e-003
3.399941e+003,-4.183764e-003
3.401870e+003,-4.290666e-003
3.403798e+003,-4.340073e-003
3.405727e+003,-4.290240e-003
3.407655e+003,-4.326819e-003
3.409584e+003,-4.249457e-003
3.411512e+003,-4.105916e-003
3.413441e+003,-4.140838e-003
3.415369e+003,-4.336891e-003
3.417298e+003,-4.259071e-003
3.419226e+003,-4.239646e-003
3.421155e+003,-4.335776e-003
3.423083e+003,-4.216382e-003
3.425012e+003,-4.097349e-003
3.426940e+003,-4.266158e-003
3.428869e+003,-4.394263e-003
3.430797e+003,-4.271145e-003
3.432726e+003,-4.226882e-003
3.434654e+003,-4.336759e-003
3.436583e+003,-4.404234e-003
3.438511e+003,-4.391376e-003
3.440440e+003,-4.460678e-003
3.442368e+003,-4.536659e-003
3.444297e+003,-4.632558e-003
3.446225e+003,-4.628756e-003
3.448154e+003,-4.549414e-003
3.450082e+003,-4.722406e-003
3.452011e+003,-4.842938e-003
3.453939e+003,-4.795358e-003
3.455868e+003,-4.659603e-003
3.457796e+003,-4.775139e-003
3.459725e+003,-4.849327e-003
3.461653e+003,-4.807713e-003
3.463582e+003,-4.874982e-003
3.465510e+003,-4.851523e-003
3.467439e+003,-4.774122e-003
3.469367e+003,-4.784085e-003
3.471296e+003,-4.852899e-003
3.473224e+003,-4.850310e-003
3.475153e+003,-4.846936e-003
3.477081e+003,-4.882748e-003
3.479010e+003,-4.974640e-003
3.480938e+003,-5.056327e-003
3.482867e+003,-4.888547e-003
3.484795e+003,-4.807156e-003
3.486724e+003,-4.762587e-003
3.488652e+003,-4.621806e-003
3.490581e+003,-4.657144e-003
3.492509e+003,-4.794441e-003
3.494438e+003,-4.764324e-003
3.496366e+003,-4.902373e-003
3.498295e+003,-4.933168e-003
3.500223e+003,-4.956787e-003
3.502152e+003,-5.009033e-003
3.504080e+003,-4.889398e-003
3.506009e+003,-4.658718e-003
3.507937e+003,-4.806205e-003
3.509866e+003,-4.921702e-003
3.511794e+003,-4.941522e-003
3.513723e+003,-4.963338e-003
3.515651e+003,-4.952168e-003
3.517580e+003,-4.831502e-003
3.519508e+003,-4.886548e-003
3.521437e+003,-4.965632e-003
3.523365e+003,-4.872623e-003
3.525294e+003,-4.732435e-003
3.527222e+003,-4.880454e-003
3.529151e+003,-5.014470e-003
3.531079e+003,-5.053413e-003
3.533008e+003,-4.876621e-003
3.534936e+003,-4.754000e-003
3.536865e+003,-4.721095e-003
3.538793e+003,-4.824850e-003
3.540722e+003,-5.078368e-003
3.542650e+003,-5.091795e-003
3.544579e+003,-5.034155e-003
3.546507e+003,-5.123559e-003
3.548436e+003,-4.849131e-003
3.550364e+003,-4.642491e-003
3.552293e+003,-4.785625e-003
3.554221e+003,-4.894936e-003
3.556150e+003,-4.929794e-003
3.558078e+003,-4.934511e-003
3.560007e+003,-4.931956e-003
3.561935e+003,-4.993769e-003
3.563864e+003,-5.026523e-003
3.565792e+003,-5.342898e-003
3.567721e+003,-5.399744e-003
3.569649e+003,-5.248236e-003
3.571578e+003,-5.027408e-003
3.573506e+003,-4.754361e-003
3.575435e+003,-4.588824e-003
3.577363e+003,-4.847132e-003
3.579292e+003,-5.191762e-003
3.581220e+003,-5.127325e-003
3.583149e+003,-4.938082e-003
3.585077e+003,-5.013193e-003
3.587006e+003,-5.265978e-003
3.588934e+003,-5.162328e-003
3.590863e+003,-4.862434e-003
3.592791e+003,-4.875245e-003
3.594720e+003,-4.928974e-003
3.596648e+003,-4.981387e-003
3.598577e+003,-4.837564e-003
3.600505e+003,-4.697660e-003
3.602434e+003,-4.773664e-003
3.604362e+003,-4.932939e-003
3.606291e+003,-5.095528e-003
3.608219e+003,-5.091827e-003
3.610148e+003,-4.851162e-003
3.612076e+003,-4.987906e-003
3.614005e+003,-5.130108e-003
3.615933e+003,-5.095626e-003
3.617862e+003,-5.193661e-003
3.619790e+003,-5.076370e-003
3.621719e+003,-4.702216e-003
3.623647e+003,-4.708050e-003
3.625576e+003,-5.082167e-003
3.627504e+003,-5.651062e-003
3.629433e+003,-5.522608e-003
3.631361e+003,-5.041622e-003
3.633290e+003,-5.124279e-003
3.635218e+003,-5.061502e-003
3.637146e+003,-4.814496e-003
3.639075e+003,-4.893658e-003
3.641004e+003,-4.985023e-003
3.642932e+003,-4.940801e-003
3.644861e+003,-5.037954e-003
3.646789e+003,-5.734028e-003
3.648718e+003,-6.179395e-003
3.650646e+003,-5.741713e-003
3.652574e+003,-5.195331e-003
3.654503e+003,-5.200242e-003
3.656432e+003,-5.082560e-003
3.658360e+003,-4.817904e-003
3.660289e+003,-4.964256e-003
3.662217e+003,-5.131942e-003
3.664146e+003,-5.106825e-003
3.666074e+003,-5.125491e-003
3.668002e+003,-5.440059e-003
3.669931e+003,-5.667774e-003
3.671860e+003,-5.403377e-003
3.673788e+003,-5.721570e-003
3.675717e+003,-5.899423e-003
3.677645e+003,-5.359360e-003
3.679573e+003,-5.102208e-003
3.681502e+003,-5.099359e-003
3.683430e+003,-5.269284e-003
3.685359e+003,-5.358084e-003
3.687288e+003,-5.740274e-003
3.689216e+003,-5.909197e-003
3.691145e+003,-5.556500e-003
3.693073e+003,-5.266469e-003
3.695001e+003,-5.099032e-003
3.696930e+003,-5.250691e-003
3.698858e+003,-5.406551e-003
3.700787e+003,-5.633106e-003
3.702716e+003,-5.475528e-003
3.704644e+003,-5.229150e-003
3.706573e+003,-5.158595e-003
3.708501e+003,-5.297337e-003
3.710429e+003,-5.729581e-003
3.712358e+003,-5.724676e-003
3.714286e+003,-5.112360e-003
3.716215e+003,-4.778055e-003
3.718144e+003,-4.760915e-003
3.720072e+003,-4.794965e-003
3.722000e+003,-4.770420e-003
3.723929e+003,-4.932971e-003
3.725857e+003,-5.095069e-003
3.727786e+003,-4.939490e-003
3.729714e+003,-4.917410e-003
3.731643e+003,-5.227153e-003
3.733572e+003,-5.207804e-003
3.735500e+003,-5.233864e-003
3.737428e+003,-4.860435e-003
3.739357e+003,-4.541774e-003
3.741285e+003,-4.859779e-003
3.743214e+003,-5.792328e-003
3.745142e+003,-5.221718e-003
3.747071e+003,-4.697102e-003
3.749000e+003,-5.201781e-003
3.750928e+003,-5.332195e-003
3.752856e+003,-5.004840e-003
3.754785e+003,-4.395181e-003
3.756713e+003,-4.260613e-003
3.758642e+003,-4.440902e-003
3.760570e+003,-4.449036e-003
3.762499e+003,-4.317076e-003
3.764427e+003,-4.332856e-003
3.766356e+003,-4.272720e-003
3.768284e+003,-4.431457e-003
3.770213e+003,-4.299492e-003
3.772141e+003,-3.926965e-003
3.774070e+003,-3.992927e-003
3.775998e+003,-4.252213e-003
3.777927e+003,-4.501507e-003
3.779855e+003,-4.395017e-003
3.781784e+003,-4.036721e-003
3.783712e+003,-4.252574e-003
3.785641e+003,-4.157937e-003
3.787569e+003,-3.838201e-003
3.789498e+003,-3.893669e-003
3.791426e+003,-3.911204e-003
3.793355e+003,-3.921055e-003
3.795283e+003,-4.086288e-003
3.797212e+003,-4.147992e-003
3.799140e+003,-4.328919e-003
3.801069e+003,-4.704379e-003
3.802997e+003,-4.474157e-003
3.804926e+003,-4.390655e-003
3.806854e+003,-4.327213e-003
3.808783e+003,-3.924896e-003
3.810711e+003,-3.762065e-003
3.812640e+003,-3.843259e-003
3.814568e+003,-4.463958e-003
3.816497e+003,-4.456021e-003
3.818425e+003,-4.358640e-003
3.820354e+003,-4.900407e-003
3.822282e+003,-4.543741e-003
3.824211e+003,-3.958355e-003
3.826139e+003,-3.925455e-003
3.828068e+003,-3.921055e-003
3.829996e+003,-4.174903e-003
3.831925e+003,-4.188784e-003
3.833853e+003,-4.059142e-003
3.835782e+003,-4.328656e-003
3.837710e+003,-4.654620e-003
3.839639e+003,-4.542496e-003
3.841567e+003,-4.360378e-003
3.843496e+003,-4.071878e-003
3.845424e+003,-3.757467e-003
3.847353e+003,-3.894489e-003
3.849281e+003,-4.292306e-003
3.851210e+003,-4.891102e-003
3.853138e+003,-5.541877e-003
3.855067e+003,-4.702838e-003
3.856995e+003,-3.868349e-003
3.858924e+003,-3.788409e-003
3.860852e+003,-4.027924e-003
3.862781e+003,-4.191410e-003
3.864709e+003,-4.213626e-003
3.866638e+003,-4.221238e-003
3.868566e+003,-4.367825e-003
3.870495e+003,-4.047161e-003
3.872423e+003,-4.051756e-003
3.874352e+003,-4.067348e-003
3.876280e+003,-3.810580e-003
3.878209e+003,-3.949227e-003
3.880137e+003,-4.071156e-003
3.882066e+003,-3.939574e-003
3.883994e+003,-4.133781e-003
3.885923e+003,-3.959012e-003
3.887851e+003,-3.598845e-003
3.889780e+003,-3.873243e-003
3.891708e+003,-4.042434e-003
3.893637e+003,-3.970142e-003
3.895565e+003,-3.775073e-003
3.897494e+003,-3.904998e-003
3.899422e+003,-4.238629e-003
3.901351e+003,-4.122294e-003
3.903279e+003,-4.003203e-003
3.905208e+003,-3.770737e-003
3.907136e+003,-3.571044e-003
3.909065e+003,-3.723237e-003
3.910993e+003,-3.763117e-003
3.912922e+003,-3.665941e-003
3.914850e+003,-3.684767e-003
3.916779e+003,-3.842504e-003
3.918707e+003,-3.657267e-003
3.920636e+003,-3.420901e-003
3.922564e+003,-3.596216e-003
3.924493e+003,-3.820696e-003
3.926421e+003,-3.628648e-003
3.928350e+003,-3.521813e-003
3.930278e+003,-3.831107e-003
3.932207e+003,-3.845689e-003
3.934135e+003,-3.506825e-003
3.936064e+003,-3.382404e-003
3.937992e+003,-3.516258e-003
3.939921e+003,-3.667781e-003
3.941849e+003,-3.779672e-003
3.943778e+003,-3.639097e-003
3.945706e+003,-3.703394e-003
3.947635e+003,-3.894621e-003
3.949563e+003,-3.766599e-003
3.951492e+003,-3.619744e-003
3.953420e+003,-3.430303e-003
3.955349e+003,-3.465969e-003
3.957277e+003,-3.557635e-003
3.959206e+003,-3.392135e-003
3.961134e+003,-3.275080e-003
3.963063e+003,-3.479544e-003
3.964991e+003,-3.515765e-003
3.966920e+003,-3.272614e-003
3.968848e+003,-3.297902e-003
3.970777e+003,-3.398908e-003
3.972705e+003,-3.328679e-003
3.974634e+003,-3.396278e-003
3.976562e+003,-3.446936e-003
3.978491e+003,-3.144145e-003
3.980419e+003,-3.173552e-003
3.982348e+003,-3.661111e-003
3.984276e+003,-3.830450e-003
3.986205e+003,-3.622767e-003
3.988133e+003,-3.404792e-003
3.990062e+003,-3.514220e-003
3.991990e+003,-3.562532e-003
3.993919e+003,-3.503407e-003
3.995847e+003,-3.557504e-003
3.997776e+003,-3.499101e-003
3.999704e+003,-3.288595e-003
4.001633e+003,0.000000e+000
