3.991989e+002,1.394287e-002
4.011274e+002,1.014842e-002
4.030559e+002,1.184704e-004
4.049844e+002,-2.145818e-003
4.069129e+002,3.811552e-003
4.088414e+002,1.024744e-002
4.107699e+002,1.212255e-002
4.126984e+002,9.797010e-003
4.146269e+002,3.079302e-003
4.165554e+002,3.131128e-003
4.184839e+002,9.387811e-003
4.204124e+002,9.919674e-003
4.223409e+002,9.826291e-003
4.242694e+002,9.348842e-003
4.261979e+002,5.917347e-003
4.281264e+002,4.907270e-003
4.300549e+002,5.771832e-003
4.319834e+002,7.028444e-004
4.339119e+002,6.900009e-004
4.358404e+002,9.648223e-003
4.377689e+002,1.272321e-002
4.396974e+002,8.715740e-003
4.416259e+002,5.203907e-003
4.435544e+002,6.732332e-003
4.454829e+002,8.842937e-003
4.474114e+002,1.245529e-002
4.493399e+002,1.076949e-002
4.512684e+002,6.736101e-003
4.531969e+002,5.465513e-003
4.551254e+002,7.195020e-003
4.570539e+002,6.283852e-003
4.589824e+002,3.435571e-003
4.609109e+002,5.715962e-003
4.628394e+002,7.774090e-003
4.647679e+002,6.224455e-003
4.666964e+002,4.716403e-003
4.686249e+002,2.399224e-003
4.705533e+002,3.174950e-003
4.724819e+002,5.959536e-003
4.744103e+002,6.899579e-003
4.763389e+002,7.344281e-003
4.782673e+002,7.762047e-003
4.801959e+002,7.135733e-003
4.821243e+002,8.194094e-003
4.840529e+002,8.951871e-003
4.859813e+002,7.559638e-003
4.879099e+002,6.606963e-003
4.898383e+002,7.163826e-003
4.917668e+002,7.778273e-003
4.936953e+002,8.953764e-003
4.956238e+002,7.934720e-003
4.975523e+002,6.513718e-003
4.994808e+002,6.518831e-003
5.014093e+002,7.692836e-003
5.033378e+002,7.948792e-003
5.052663e+002,7.110539e-003
5.071948e+002,6.164528e-003
5.091233e+002,5.392439e-003
5.110518e+002,4.644996e-003
5.129803e+002,3.777926e-003
5.149088e+002,3.136234e-003
5.168373e+002,3.820644e-003
5.187658e+002,5.111834e-003
5.206943e+002,6.655714e-003
5.226228e+002,5.353156e-003
5.245513e+002,3.849358e-003
5.264798e+002,3.972696e-003
5.284083e+002,5.043847e-003
5.303368e+002,3.931334e-003
5.322653e+002,2.702987e-003
5.341938e+002,2.664046e-003
5.361223e+002,3.959354e-003
5.380508e+002,4.432116e-003
5.399792e+002,6.584088e-003
5.419078e+002,6.838886e-003
5.438363e+002,6.100107e-003
5.457648e+002,5.074621e-003
5.476932e+002,4.006637e-003
5.496218e+002,4.395163e-003
5.515503e+002,5.415319e-003
5.534788e+002,4.974297e-003
5.554072e+002,5.102849e-003
5.573358e+002,5.774786e-003
5.592643e+002,6.910722e-003
5.611927e+002,6.295752e-003
5.631212e+002,6.652820e-003
5.650497e+002,6.905268e-003
5.669783e+002,7.521642e-003
5.689067e+002,8.785082e-003
5.708352e+002,8.330628e-003
5.727637e+002,6.475746e-003
5.746923e+002,4.902445e-003
5.766207e+002,5.221546e-003
5.785492e+002,4.821291e-003
5.804777e+002,-7.133466e-003
5.824063e+002,-6.525288e-003
5.843347e+002,5.529068e-003
5.862632e+002,8.434670e-003
5.881917e+002,7.736716e-003
5.901202e+002,6.351024e-003
5.920487e+002,5.642477e-003
5.939772e+002,5.957856e-003
5.959057e+002,7.448457e-003
5.978342e+002,8.926300e-003
5.997627e+002,9.991378e-003
6.016912e+002,1.052996e-002
6.036197e+002,1.236627e-002
6.055482e+002,1.348193e-002
6.074767e+002,1.435543e-002
6.094052e+002,1.551018e-002
6.113337e+002,1.673843e-002
6.132622e+002,1.580931e-002
6.151907e+002,1.496416e-002
6.171192e+002,1.488910e-002
6.190477e+002,1.555472e-002
6.209762e+002,1.573983e-002
6.229047e+002,1.310067e-002
6.248332e+002,9.631454e-003
6.267617e+002,7.285244e-003
6.286902e+002,5.628346e-003
6.306187e+002,4.562282e-003
6.325472e+002,4.030247e-003
6.344756e+002,4.362195e-003
6.364042e+002,4.349410e-003
6.383326e+002,3.917425e-003
6.402612e+002,3.079302e-003
6.421896e+002,3.457880e-003
6.441182e+002,3.590795e-003
6.460466e+002,2.877428e-003
6.479752e+002,2.544146e-003
6.499036e+002,2.541113e-003
6.518322e+002,2.173323e-003
6.537606e+002,2.089414e-003
6.556891e+002,2.128836e-003
6.576177e+002,2.354081e-003
6.595461e+002,2.013877e-003
6.614746e+002,9.381094e-004
6.634031e+002,6.553886e-004
6.653317e+002,9.031452e-004
6.672601e+002,1.773670e-003
6.691886e+002,1.576892e-003
6.711171e+002,1.042720e-003
6.730457e+002,1.414640e-003
6.749741e+002,1.538584e-003
6.769026e+002,1.578289e-003
6.788311e+002,1.854057e-003
6.807596e+002,1.798690e-003
6.826881e+002,1.856420e-003
6.846166e+002,2.008085e-003
6.865451e+002,2.053259e-003
6.884736e+002,2.135695e-003
6.904021e+002,2.386464e-003
6.923306e+002,2.638977e-003
6.942591e+002,2.781945e-003
6.961876e+002,3.114308e-003
6.981161e+002,3.146280e-003
7.000446e+002,3.073295e-003
7.019731e+002,3.098824e-003
7.039016e+002,3.189436e-003
7.058301e+002,3.158696e-003
7.077585e+002,3.115109e-003
7.096871e+002,3.460218e-003
7.116156e+002,3.884494e-003
7.135441e+002,3.688026e-003
7.154725e+002,3.896730e-003
7.174011e+002,4.526020e-003
7.193296e+002,4.983480e-003
7.212581e+002,5.210312e-003
7.231865e+002,5.250890e-003
7.251151e+002,5.576422e-003
7.270436e+002,6.372912e-003
7.289720e+002,6.868945e-003
7.309005e+002,7.037356e-003
7.328290e+002,6.946948e-003
7.347576e+002,6.816772e-003
7.366860e+002,6.938497e-003
7.386145e+002,6.884565e-003
7.405430e+002,7.588264e-003
7.424716e+002,8.042819e-003
7.444000e+002,7.654390e-003
7.463285e+002,7.645993e-003
7.482570e+002,7.634089e-003
7.501855e+002,7.831912e-003
7.521140e+002,8.344881e-003
7.540425e+002,8.520287e-003
7.559710e+002,8.637048e-003
7.578995e+002,9.178889e-003
7.598280e+002,9.509514e-003
7.617565e+002,9.486248e-003
7.636850e+002,9.468096e-003
7.656135e+002,9.872828e-003
7.675420e+002,1.020056e-002
7.694705e+002,9.987988e-003
7.713990e+002,9.439210e-003
7.733275e+002,9.093515e-003
7.752560e+002,8.977815e-003
7.771844e+002,8.749615e-003
7.791130e+002,8.594328e-003
7.810415e+002,8.269600e-003
7.829700e+002,7.574136e-003
7.848984e+002,7.536577e-003
7.868270e+002,7.659246e-003
7.887555e+002,7.713241e-003
7.906840e+002,7.388867e-003
7.926124e+002,6.830841e-003
7.945410e+002,6.659280e-003
7.964695e+002,6.548902e-003
7.983979e+002,6.205800e-003
8.003264e+002,5.856153e-003
8.022549e+002,5.873851e-003
8.041835e+002,5.787647e-003
8.061119e+002,5.712740e-003
8.080404e+002,6.048463e-003
8.099689e+002,6.631691e-003
8.118975e+002,7.005029e-003
8.138259e+002,7.247407e-003
8.157545e+002,7.089422e-003
8.176830e+002,7.098010e-003
8.196115e+002,7.063692e-003
8.215399e+002,6.867330e-003
8.234684e+002,7.252225e-003
8.253970e+002,7.915587e-003
8.273254e+002,7.956048e-003
8.292539e+002,7.528722e-003
8.311824e+002,7.638473e-003
8.331110e+002,7.977511e-003
8.350394e+002,7.672533e-003
8.369679e+002,7.695096e-003
8.388964e+002,7.876379e-003
8.408250e+002,7.848443e-003
8.427534e+002,7.863018e-003
8.446819e+002,7.721538e-003
8.466104e+002,7.614700e-003
8.485389e+002,7.499021e-003
8.504674e+002,7.400292e-003
8.523959e+002,7.459143e-003
8.543244e+002,7.586949e-003
8.562529e+002,7.493257e-003
8.581814e+002,7.156112e-003
8.601099e+002,7.080396e-003
8.620384e+002,7.173527e-003
8.639669e+002,7.117646e-003
8.658954e+002,7.132264e-003
8.678239e+002,7.064904e-003
8.697524e+002,6.960382e-003
8.716809e+002,6.994457e-003
8.736094e+002,7.104174e-003
8.755378e+002,6.973681e-003
8.774664e+002,7.182757e-003
8.793949e+002,7.250506e-003
8.813234e+002,7.114076e-003
8.832518e+002,6.991662e-003
8.851804e+002,6.815325e-003
8.871089e+002,7.053016e-003
8.890374e+002,6.963244e-003
8.909658e+002,6.655209e-003
8.928943e+002,6.822258e-003
8.948229e+002,7.204957e-003
8.967513e+002,7.277528e-003
8.986798e+002,7.149375e-003
9.006083e+002,6.976005e-003
9.025369e+002,6.963984e-003
9.044653e+002,7.274563e-003
9.063938e+002,7.287704e-003
9.083223e+002,6.886955e-003
9.102509e+002,6.573424e-003
9.121793e+002,6.541367e-003
9.141078e+002,6.146851e-003
9.160364e+002,5.851955e-003
9.179648e+002,5.826768e-003
9.198933e+002,5.683398e-003
9.218218e+002,5.629487e-003
9.237504e+002,5.346581e-003
9.256788e+002,5.001781e-003
9.276073e+002,4.681133e-003
9.295358e+002,4.396535e-003
9.314644e+002,4.226100e-003
9.333928e+002,4.446812e-003
9.353213e+002,4.438644e-003
9.372498e+002,4.284722e-003
9.391783e+002,4.001654e-003
9.411068e+002,3.957916e-003
9.430353e+002,4.131457e-003
9.449637e+002,4.061517e-003
9.468923e+002,3.937988e-003
9.488208e+002,3.984366e-003
9.507493e+002,4.110652e-003
9.526777e+002,4.131257e-003
9.546063e+002,4.133096e-003
9.565348e+002,4.217969e-003
9.584633e+002,4.152900e-003
9.603917e+002,4.109815e-003
9.623203e+002,4.256180e-003
9.642488e+002,4.153803e-003
9.661772e+002,4.178424e-003
9.681057e+002,4.104931e-003
9.700343e+002,3.767599e-003
9.719628e+002,3.639241e-003
9.738912e+002,3.444321e-003
9.758197e+002,3.303104e-003
9.777483e+002,3.257867e-003
9.796768e+002,3.171012e-003
9.816052e+002,2.915053e-003
9.835337e+002,2.796885e-003
9.854623e+002,2.574477e-003
9.873907e+002,2.393960e-003
9.893192e+002,2.256715e-003
9.912477e+002,1.951433e-003
9.931763e+002,1.929999e-003
9.951047e+002,1.942513e-003
9.970332e+002,1.607354e-003
9.989617e+002,1.392069e-003
1.000890e+003,1.416136e-003
1.002819e+003,1.677399e-003
1.004747e+003,1.966511e-003
1.006676e+003,2.147816e-003
1.008604e+003,2.101667e-003
1.010533e+003,2.129535e-003
1.012461e+003,2.234433e-003
1.014390e+003,2.198199e-003
1.016318e+003,2.632543e-003
1.018247e+003,2.927296e-003
1.020175e+003,2.845543e-003
1.022104e+003,2.924494e-003
1.024032e+003,3.213169e-003
1.025961e+003,3.650936e-003
1.027889e+003,4.035665e-003
1.029818e+003,4.440953e-003
1.031746e+003,4.798174e-003
1.033675e+003,5.185497e-003
1.035603e+003,5.544136e-003
1.037532e+003,5.832409e-003
1.039460e+003,6.157269e-003
1.041389e+003,6.313032e-003
1.043317e+003,6.522766e-003
1.045246e+003,6.838213e-003
1.047174e+003,6.910890e-003
1.049103e+003,7.008161e-003
1.051031e+003,6.837405e-003
1.052960e+003,6.724255e-003
1.054888e+003,6.830303e-003
1.056817e+003,6.924290e-003
1.058745e+003,6.861708e-003
1.060674e+003,6.813575e-003
1.062602e+003,6.866219e-003
1.064531e+003,6.924559e-003
1.066459e+003,6.878303e-003
1.068388e+003,6.774499e-003
1.070316e+003,7.005905e-003
1.072245e+003,7.367433e-003
1.074173e+003,7.397091e-003
1.076102e+003,7.056350e-003
1.078030e+003,6.887056e-003
1.079959e+003,6.795198e-003
1.081887e+003,6.797857e-003
1.083816e+003,6.981021e-003
1.085744e+003,7.060155e-003
1.087673e+003,7.048571e-003
1.089601e+003,7.185250e-003
1.091530e+003,7.385463e-003
1.093458e+003,7.234200e-003
1.095387e+003,7.239961e-003
1.097315e+003,7.518035e-003
1.099244e+003,7.720964e-003
1.101172e+003,7.734928e-003
1.103101e+003,7.501482e-003
1.105029e+003,7.578621e-003
1.106958e+003,7.742551e-003
1.108886e+003,7.811670e-003
1.110815e+003,7.815651e-003
1.112743e+003,7.694556e-003
1.114672e+003,7.582801e-003
1.116600e+003,7.878471e-003
1.118529e+003,7.973495e-003
1.120457e+003,7.904688e-003
1.122386e+003,8.070160e-003
1.124314e+003,8.083426e-003
1.126243e+003,7.844124e-003
1.128171e+003,7.707473e-003
1.130100e+003,7.792475e-003
1.132028e+003,7.658099e-003
1.133957e+003,7.441682e-003
1.135885e+003,7.226249e-003
1.137814e+003,6.808963e-003
1.139742e+003,6.252690e-003
1.141671e+003,5.909789e-003
1.143599e+003,5.675945e-003
1.145528e+003,5.236066e-003
1.147456e+003,4.810067e-003
1.149385e+003,4.530541e-003
1.151313e+003,4.193245e-003
1.153242e+003,3.927823e-003
1.155170e+003,4.009848e-003
1.157099e+003,3.906492e-003
1.159027e+003,3.737753e-003
1.160956e+003,3.612344e-003
1.162884e+003,3.480358e-003
1.164813e+003,3.288481e-003
1.166741e+003,3.247585e-003
1.168670e+003,3.257400e-003
1.170598e+003,3.282705e-003
1.172526e+003,3.375794e-003
1.174455e+003,3.270853e-003
1.176384e+003,3.371553e-003
1.178312e+003,3.486337e-003
1.180240e+003,3.158529e-003
1.182169e+003,2.942474e-003
1.184098e+003,2.916554e-003
1.186026e+003,2.791516e-003
1.187954e+003,2.773708e-003
1.189883e+003,2.617076e-003
1.191812e+003,2.390528e-003
1.193740e+003,2.323233e-003
1.195668e+003,2.029922e-003
1.197597e+003,1.740934e-003
1.199526e+003,1.657109e-003
1.201454e+003,1.594950e-003
1.203382e+003,1.572137e-003
1.205311e+003,1.459453e-003
1.207240e+003,1.410518e-003
1.209168e+003,1.358896e-003
1.211096e+003,1.322469e-003
1.213025e+003,1.425543e-003
1.214953e+003,1.454100e-003
1.216882e+003,1.345834e-003
1.218810e+003,1.354376e-003
1.220739e+003,1.319013e-003
1.222667e+003,1.312731e-003
1.224596e+003,1.358431e-003
1.226524e+003,1.449379e-003
1.228453e+003,1.694130e-003
1.230381e+003,1.794198e-003
1.232310e+003,1.840714e-003
1.234238e+003,1.881943e-003
1.236167e+003,2.031254e-003
1.238095e+003,2.218913e-003
1.240024e+003,2.319336e-003
1.241952e+003,2.407653e-003
1.243881e+003,2.268206e-003
1.245809e+003,2.109491e-003
1.247738e+003,2.077295e-003
1.249666e+003,2.238163e-003
1.251595e+003,2.222144e-003
1.253523e+003,2.118814e-003
1.255452e+003,1.994104e-003
1.257380e+003,1.849432e-003
1.259309e+003,1.790605e-003
1.261237e+003,1.768115e-003
1.263166e+003,1.814993e-003
1.265094e+003,2.032952e-003
1.267023e+003,2.288790e-003
1.268951e+003,2.326898e-003
1.270880e+003,2.327097e-003
1.272808e+003,2.260878e-003
1.274737e+003,2.250853e-003
1.276665e+003,2.343687e-003
1.278594e+003,2.388296e-003
1.280522e+003,2.312707e-003
1.282451e+003,2.131599e-003
1.284379e+003,2.011181e-003
1.286308e+003,2.047799e-003
1.288236e+003,2.150679e-003
1.290165e+003,2.292754e-003
1.292093e+003,2.322600e-003
1.294022e+003,2.301315e-003
1.295950e+003,2.334293e-003
1.297879e+003,2.322800e-003
1.299807e+003,2.178518e-003
1.301736e+003,2.062181e-003
1.303664e+003,1.910297e-003
1.305593e+003,1.729624e-003
1.307521e+003,1.758134e-003
1.309450e+003,1.708899e-003
1.311378e+003,1.481661e-003
1.313307e+003,1.317850e-003
1.315235e+003,1.354875e-003
1.317164e+003,1.517204e-003
1.319092e+003,1.386950e-003
1.321021e+003,1.261819e-003
1.322949e+003,1.313795e-003
1.324878e+003,1.462910e-003
1.326806e+003,1.662697e-003
1.328735e+003,1.885704e-003
1.330663e+003,2.089647e-003
1.332592e+003,2.284360e-003
1.334520e+003,2.309076e-003
1.336449e+003,2.366840e-003
1.338377e+003,2.492790e-003
1.340306e+003,2.531848e-003
1.342234e+003,2.540247e-003
1.344163e+003,2.619142e-003
1.346091e+003,2.710222e-003
1.348020e+003,3.012801e-003
1.349948e+003,3.195177e-003
1.351877e+003,3.142909e-003
1.353805e+003,3.110370e-003
1.355734e+003,3.100492e-003
1.357662e+003,2.937703e-003
1.359591e+003,2.716857e-003
1.361519e+003,2.586843e-003
1.363448e+003,2.390861e-003
1.365376e+003,1.951067e-003
1.367305e+003,1.674937e-003
1.369233e+003,1.526581e-003
1.371162e+003,1.460284e-003
1.373090e+003,1.479799e-003
1.375019e+003,1.385620e-003
1.376947e+003,1.318514e-003
1.378876e+003,1.262251e-003
1.380804e+003,1.228557e-003
1.382733e+003,1.310073e-003
1.384661e+003,1.437744e-003
1.386590e+003,1.456195e-003
1.388518e+003,1.270825e-003
1.390447e+003,9.121433e-004
1.392375e+003,7.996637e-004
1.394304e+003,8.633366e-004
1.396232e+003,5.776452e-004
1.398161e+003,4.729808e-004
1.400089e+003,3.767980e-004
1.402018e+003,5.344849e-005
1.403946e+003,-1.906777e-004
1.405875e+003,-2.979385e-004
1.407803e+003,-4.235446e-004
1.409732e+003,-4.653832e-004
1.411660e+003,-4.222537e-004
1.413589e+003,-3.502512e-004
1.415517e+003,-2.821110e-004
1.417446e+003,-4.022286e-005
1.419374e+003,2.790783e-004
1.421303e+003,3.400884e-004
1.423231e+003,4.916560e-004
1.425160e+003,8.906279e-004
1.427088e+003,1.225168e-003
1.429017e+003,1.583111e-003
1.430945e+003,1.914690e-003
1.432874e+003,2.424846e-003
1.434802e+003,3.042763e-003
1.436731e+003,3.589626e-003
1.438659e+003,3.820610e-003
1.440588e+003,4.046969e-003
1.442516e+003,4.452033e-003
1.444445e+003,4.731845e-003
1.446373e+003,4.940079e-003
1.448302e+003,5.267155e-003
1.450230e+003,5.394385e-003
1.452159e+003,5.426727e-003
1.454087e+003,5.632609e-003
1.456016e+003,6.136601e-003
1.457944e+003,6.266674e-003
1.459873e+003,5.788889e-003
1.461801e+003,5.306598e-003
1.463730e+003,5.010797e-003
1.465658e+003,4.690076e-003
1.467587e+003,4.255745e-003
1.469515e+003,3.841369e-003
1.471444e+003,3.628348e-003
1.473372e+003,3.329948e-003
1.475301e+003,2.753568e-003
1.477229e+003,2.099835e-003
1.479158e+003,1.516572e-003
1.481086e+003,1.114567e-003
1.483015e+003,6.846247e-004
1.484943e+003,3.473836e-004
1.486872e+003,2.130047e-004
1.488800e+003,1.075333e-004
1.490729e+003,7.850163e-005
1.492657e+003,-1.041941e-004
1.494586e+003,-2.420761e-004
1.496514e+003,-1.876307e-004
1.498443e+003,-2.925082e-004
1.500371e+003,-4.436700e-004
1.502300e+003,-4.230150e-004
1.504228e+003,-1.735214e-004
1.506157e+003,2.619373e-004
1.508085e+003,2.551396e-005
1.510014e+003,-3.801130e-004
1.511942e+003,-4.324489e-004
1.513871e+003,-3.601833e-004
1.515799e+003,-1.737202e-004
1.517728e+003,-5.612543e-005
1.519656e+003,1.208898e-004
1.521585e+003,3.492406e-004
1.523513e+003,1.310649e-004
1.525442e+003,1.923194e-004
1.527370e+003,2.319008e-004
1.529299e+003,1.354731e-004
1.531227e+003,6.670394e-005
1.533156e+003,3.881399e-004
1.535084e+003,5.113935e-004
1.537013e+003,5.523310e-004
1.538941e+003,9.971199e-004
1.540870e+003,1.314991e-003
1.542798e+003,1.246135e-003
1.544727e+003,1.153900e-003
1.546655e+003,9.063991e-004
1.548584e+003,8.247931e-004
1.550512e+003,8.729647e-004
1.552441e+003,9.557751e-004
1.554369e+003,9.960904e-004
1.556298e+003,1.185396e-003
1.558226e+003,1.821881e-003
1.560155e+003,1.845406e-003
1.562083e+003,1.457026e-003
1.564012e+003,1.494162e-003
1.565940e+003,1.564754e-003
1.567869e+003,1.723370e-003
1.569797e+003,1.993472e-003
1.571726e+003,1.830266e-003
1.573654e+003,1.752844e-003
1.575583e+003,1.992773e-003
1.577511e+003,1.849332e-003
1.579440e+003,1.626810e-003
1.581368e+003,1.573068e-003
1.583297e+003,1.442232e-003
1.585225e+003,1.444991e-003
1.587154e+003,1.506431e-003
1.589082e+003,1.539349e-003
1.591010e+003,1.544836e-003
1.592939e+003,1.577790e-003
1.594868e+003,1.674538e-003
1.596796e+003,1.887468e-003
1.598724e+003,1.999397e-003
1.600653e+003,2.044503e-003
1.602582e+003,2.169127e-003
1.604510e+003,2.139624e-003
1.606438e+003,2.023464e-003
1.608367e+003,2.055789e-003
1.610296e+003,1.964880e-003
1.612224e+003,1.767382e-003
1.614152e+003,1.768214e-003
1.616081e+003,1.910863e-003
1.618010e+003,1.713290e-003
1.619938e+003,1.449446e-003
1.621866e+003,1.462079e-003
1.623795e+003,1.316254e-003
1.625724e+003,1.162372e-003
1.627652e+003,1.123669e-003
1.629580e+003,1.017246e-003
1.631509e+003,8.303703e-004
1.633438e+003,8.351839e-004
1.635366e+003,9.970866e-004
1.637294e+003,8.930516e-004
1.639223e+003,6.279794e-004
1.641151e+003,3.852878e-004
1.643080e+003,8.615705e-005
1.645008e+003,9.798841e-005
1.646937e+003,2.080322e-004
1.648865e+003,-1.695138e-004
1.650794e+003,-1.202599e-004
1.652722e+003,5.249284e-004
1.654651e+003,2.560691e-004
1.656579e+003,-2.253193e-004
1.658508e+003,-3.058189e-004
1.660436e+003,-2.244251e-004
1.662365e+003,1.123258e-005
1.664293e+003,1.012363e-004
1.666222e+003,6.776440e-005
1.668150e+003,3.307042e-004
1.670079e+003,5.070479e-004
1.672007e+003,4.017040e-004
1.673936e+003,4.645888e-004
1.675864e+003,4.122505e-004
1.677793e+003,-4.674961e-005
1.679721e+003,-2.898261e-004
1.681650e+003,-2.673756e-004
1.683578e+003,1.500998e-005
1.685507e+003,-2.248556e-004
1.687435e+003,-7.177526e-004
1.689364e+003,-1.013546e-003
1.691292e+003,-1.145952e-003
1.693221e+003,-1.099651e-003
1.695149e+003,-8.697254e-004
1.697078e+003,-9.114219e-004
1.699006e+003,-7.561890e-004
1.700935e+003,-5.718482e-004
1.702863e+003,-9.412782e-004
1.704792e+003,-9.321859e-004
1.706720e+003,-9.477914e-004
1.708649e+003,-1.143738e-003
1.710577e+003,-1.380520e-003
1.712506e+003,-1.364699e-003
1.714434e+003,-1.167663e-003
1.716363e+003,-9.137033e-004
1.718291e+003,-8.736936e-004
1.720220e+003,-1.123182e-003
1.722148e+003,-1.269661e-003
1.724077e+003,-1.317662e-003
1.726005e+003,-1.365888e-003
1.727934e+003,-1.345805e-003
1.729862e+003,-1.305472e-003
1.731791e+003,-1.236920e-003
1.733719e+003,-1.077474e-003
1.735648e+003,-1.235532e-003
1.737576e+003,-1.462886e-003
1.739505e+003,-1.389306e-003
1.741433e+003,-1.458362e-003
1.743362e+003,-1.446903e-003
1.745290e+003,-1.353171e-003
1.747219e+003,-1.258461e-003
1.749147e+003,-1.164590e-003
1.751076e+003,-1.041545e-003
1.753004e+003,-1.136500e-003
1.754933e+003,-1.185342e-003
1.756861e+003,-1.090958e-003
1.758790e+003,-1.148166e-003
1.760718e+003,-1.056452e-003
1.762647e+003,-1.046139e-003
1.764575e+003,-1.236061e-003
1.766504e+003,-1.163169e-003
1.768432e+003,-1.084447e-003
1.770361e+003,-1.125561e-003
1.772289e+003,-1.042404e-003
1.774218e+003,-1.141986e-003
1.776146e+003,-1.352511e-003
1.778075e+003,-1.449116e-003
1.780003e+003,-1.389933e-003
1.781932e+003,-1.365888e-003
1.783860e+003,-1.429598e-003
1.785789e+003,-1.301706e-003
1.787717e+003,-1.151074e-003
1.789646e+003,-1.240092e-003
1.791574e+003,-1.170075e-003
1.793503e+003,-1.187225e-003
1.795431e+003,-1.337184e-003
1.797360e+003,-1.298303e-003
1.799288e+003,-1.220102e-003
1.801217e+003,-1.248384e-003
1.803145e+003,-1.326944e-003
1.805074e+003,-1.294009e-003
1.807002e+003,-1.250003e-003
1.808931e+003,-1.243858e-003
1.810859e+003,-1.234673e-003
1.812788e+003,-1.244783e-003
1.814716e+003,-1.293513e-003
1.816645e+003,-1.255818e-003
1.818573e+003,-1.227371e-003
1.820502e+003,-1.274980e-003
1.822430e+003,-1.239398e-003
1.824359e+003,-1.104707e-003
1.826287e+003,-1.103253e-003
1.828216e+003,-1.155667e-003
1.830144e+003,-1.153189e-003
1.832073e+003,-1.323046e-003
1.834001e+003,-1.337448e-003
1.835930e+003,-1.333550e-003
1.837858e+003,-1.425668e-003
1.839787e+003,-1.400073e-003
1.841715e+003,-1.304910e-003
1.843644e+003,-1.194660e-003
1.845572e+003,-1.336722e-003
1.847501e+003,-1.549364e-003
1.849429e+003,-1.553590e-003
1.851358e+003,-1.458230e-003
1.853286e+003,-1.388480e-003
1.855215e+003,-1.390660e-003
1.857143e+003,-1.377746e-003
1.859072e+003,-1.361792e-003
1.861000e+003,-1.366020e-003
1.862929e+003,-1.359943e-003
1.864857e+003,-1.378935e-003
1.866786e+003,-1.411962e-003
1.868714e+003,-1.332593e-003
1.870643e+003,-1.359844e-003
1.872571e+003,-1.417643e-003
1.874500e+003,-1.335830e-003
1.876428e+003,-1.266093e-003
1.878357e+003,-1.217426e-003
1.880285e+003,-1.218186e-003
1.882214e+003,-1.304877e-003
1.884142e+003,-1.338010e-003
1.886071e+003,-1.352907e-003
1.887999e+003,-1.325523e-003
1.889928e+003,-1.337944e-003
1.891856e+003,-1.439341e-003
1.893785e+003,-1.346995e-003
1.895713e+003,-1.270289e-003
1.897642e+003,-1.358126e-003
1.899570e+003,-1.290111e-003
1.901499e+003,-1.282512e-003
1.903427e+003,-1.324698e-003
1.905356e+003,-1.344914e-003
1.907284e+003,-1.398190e-003
1.909213e+003,-1.333154e-003
1.911141e+003,-1.367870e-003
1.913070e+003,-1.419955e-003
1.914998e+003,-1.337944e-003
1.916927e+003,-1.303886e-003
1.918855e+003,-1.304051e-003
1.920784e+003,-1.347721e-003
1.922712e+003,-1.405291e-003
1.924641e+003,-1.462721e-003
1.926569e+003,-1.369587e-003
1.928498e+003,-1.362816e-003
1.930426e+003,-1.337911e-003
1.932355e+003,-1.439572e-003
1.934283e+003,-1.567654e-003
1.936212e+003,-1.611826e-003
1.938140e+003,-1.613774e-003
1.940069e+003,-1.481511e-003
1.941997e+003,-1.379893e-003
1.943926e+003,-1.418204e-003
1.945854e+003,-1.486266e-003
1.947783e+003,-1.462226e-003
1.949711e+003,-1.444889e-003
1.951640e+003,-1.450767e-003
1.953568e+003,-1.428641e-003
1.955497e+003,-1.431316e-003
1.957425e+003,-1.499408e-003
1.959354e+003,-1.455819e-003
1.961282e+003,-1.433363e-003
1.963211e+003,-1.553590e-003
1.965139e+003,-1.599248e-003
1.967068e+003,-1.529356e-003
1.968996e+003,-1.657676e-003
1.970925e+003,-1.695831e-003
1.972853e+003,-1.616414e-003
1.974782e+003,-1.621564e-003
1.976710e+003,-1.628859e-003
1.978639e+003,-1.581652e-003
1.980567e+003,-1.604200e-003
1.982496e+003,-1.669031e-003
1.984424e+003,-1.604761e-003
1.986353e+003,-1.537016e-003
1.988281e+003,-1.606412e-003
1.990210e+003,-1.705436e-003
1.992138e+003,-1.652791e-003
1.994067e+003,-1.633382e-003
1.995995e+003,-1.746161e-003
1.997924e+003,-1.765466e-003
1.999852e+003,-1.763288e-003
2.001781e+003,-1.824796e-003
2.003709e+003,-1.796089e-003
2.005638e+003,-1.740617e-003
2.007566e+003,-1.669856e-003
2.009495e+003,-1.631170e-003
2.011423e+003,-1.677942e-003
2.013352e+003,-1.635032e-003
2.015280e+003,-1.578252e-003
2.017208e+003,-1.537016e-003
2.019137e+003,-1.537181e-003
2.021066e+003,-1.607864e-003
2.022994e+003,-1.721409e-003
2.024922e+003,-1.802622e-003
2.026851e+003,-1.714809e-003
2.028780e+003,-1.621003e-003
2.030708e+003,-1.617537e-003
2.032636e+003,-1.566466e-003
2.034565e+003,-1.593834e-003
2.036494e+003,-1.640083e-003
2.038422e+003,-1.626516e-003
2.040350e+003,-1.649325e-003
2.042279e+003,-1.670582e-003
2.044208e+003,-1.728472e-003
2.046136e+003,-1.858152e-003
2.048064e+003,-1.910310e-003
2.049993e+003,-1.793449e-003
2.051921e+003,-1.712037e-003
2.053850e+003,-1.729660e-003
2.055778e+003,-1.773485e-003
2.057707e+003,-1.730221e-003
2.059635e+003,-1.714776e-003
2.061564e+003,-1.685105e-003
2.063492e+003,-1.773650e-003
2.065421e+003,-1.808001e-003
2.067349e+003,-1.710848e-003
2.069278e+003,-1.821793e-003
2.071206e+003,-1.876925e-003
2.073135e+003,-1.815788e-003
2.075063e+003,-1.708571e-003
2.076992e+003,-1.630048e-003
2.078920e+003,-1.681870e-003
2.080849e+003,-1.746260e-003
2.082777e+003,-1.800807e-003
2.084706e+003,-1.820869e-003
2.086634e+003,-1.821331e-003
2.088563e+003,-1.778204e-003
2.090491e+003,-1.699924e-003
2.092420e+003,-1.720815e-003
2.094348e+003,-1.682365e-003
2.096277e+003,-1.656290e-003
2.098205e+003,-1.710023e-003
2.100134e+003,-1.764113e-003
2.102062e+003,-1.732300e-003
2.103991e+003,-1.765235e-003
2.105919e+003,-1.803051e-003
2.107848e+003,-1.760285e-003
2.109776e+003,-1.788928e-003
2.111705e+003,-1.814897e-003
2.113633e+003,-1.764740e-003
2.115562e+003,-1.747877e-003
2.117490e+003,-1.829580e-003
2.119419e+003,-1.782626e-003
2.121347e+003,-1.727284e-003
2.123276e+003,-1.805262e-003
2.125204e+003,-1.816547e-003
2.127133e+003,-1.787839e-003
2.129061e+003,-1.730584e-003
2.130990e+003,-1.666753e-003
2.132918e+003,-1.777412e-003
2.134847e+003,-1.826643e-003
2.136775e+003,-1.848650e-003
2.138704e+003,-1.830207e-003
2.140632e+003,-1.793878e-003
2.142561e+003,-1.812125e-003
2.144489e+003,-1.793185e-003
2.146418e+003,-1.760450e-003
2.148346e+003,-1.689692e-003
2.150275e+003,-1.648137e-003
2.152203e+003,-1.624568e-003
2.154132e+003,-1.662891e-003
2.156060e+003,-1.713357e-003
2.157989e+003,-1.718373e-003
2.159917e+003,-1.726327e-003
2.161846e+003,-1.726558e-003
2.163774e+003,-1.732300e-003
2.165703e+003,-1.733950e-003
2.167631e+003,-1.682167e-003
2.169560e+003,-1.651371e-003
2.171488e+003,-1.660515e-003
2.173417e+003,-1.736789e-003
2.175345e+003,-1.737317e-003
2.177274e+003,-1.691805e-003
2.179202e+003,-1.681507e-003
2.181131e+003,-1.675731e-003
2.183059e+003,-1.686920e-003
2.184988e+003,-1.654804e-003
2.186916e+003,-1.668932e-003
2.188845e+003,-1.756787e-003
2.190773e+003,-1.788697e-003
2.192702e+003,-1.810970e-003
2.194630e+003,-1.772891e-003
2.196559e+003,-1.659855e-003
2.198487e+003,-1.603870e-003
2.200416e+003,-1.666687e-003
2.202344e+003,-1.757909e-003
2.204273e+003,-1.744214e-003
2.206201e+003,-1.753124e-003
2.208130e+003,-1.752200e-003
2.210058e+003,-1.783253e-003
2.211987e+003,-1.802589e-003
2.213915e+003,-1.732696e-003
2.215844e+003,-1.713984e-003
2.217772e+003,-1.730188e-003
2.219701e+003,-1.679593e-003
2.221629e+003,-1.690419e-003
2.223558e+003,-1.774673e-003
2.225486e+003,-1.730287e-003
2.227415e+003,-1.741574e-003
2.229343e+003,-1.733752e-003
2.231272e+003,-1.696723e-003
2.233200e+003,-1.616348e-003
2.235129e+003,-1.546194e-003
2.237057e+003,-1.610835e-003
2.238986e+003,-1.652989e-003
2.240914e+003,-1.570461e-003
2.242843e+003,-1.523974e-003
2.244771e+003,-1.594429e-003
2.246700e+003,-1.690155e-003
2.248628e+003,-1.711211e-003
2.250557e+003,-1.783385e-003
2.252485e+003,-1.763387e-003
2.254414e+003,-1.661637e-003
2.256342e+003,-1.705271e-003
2.258271e+003,-1.809056e-003
2.260199e+003,-1.806747e-003
2.262128e+003,-1.745336e-003
2.264056e+003,-1.737878e-003
2.265985e+003,-1.769591e-003
2.267913e+003,-1.796815e-003
2.269842e+003,-1.794175e-003
2.271770e+003,-1.796749e-003
2.273699e+003,-1.837004e-003
2.275627e+003,-1.868578e-003
2.277556e+003,-1.877189e-003
2.279484e+003,-1.804173e-003
2.281413e+003,-1.698109e-003
2.283341e+003,-1.808727e-003
2.285270e+003,-1.913972e-003
2.287198e+003,-1.863629e-003
2.289127e+003,-1.772462e-003
2.291055e+003,-1.818196e-003
2.292984e+003,-1.918557e-003
2.294912e+003,-2.026382e-003
2.296841e+003,-1.979911e-003
2.298769e+003,-1.794340e-003
2.300698e+003,-1.734115e-003
2.302626e+003,-1.763849e-003
2.304555e+003,-1.866598e-003
2.306483e+003,-1.887185e-003
2.308412e+003,-1.944188e-003
2.310340e+003,-1.941253e-003
2.312269e+003,-1.801962e-003
2.314197e+003,-1.692168e-003
2.316125e+003,-1.627902e-003
2.318054e+003,-1.620937e-003
2.319983e+003,-1.650084e-003
2.321911e+003,-1.577328e-003
2.323840e+003,-1.442049e-003
2.325768e+003,-1.458461e-003
2.327697e+003,-1.355550e-003
2.329625e+003,-1.098758e-003
2.331553e+003,-1.159699e-003
2.333482e+003,-1.262393e-003
2.335411e+003,-1.242470e-003
2.337339e+003,-1.051990e-003
2.339268e+003,-1.053841e-003
2.341196e+003,-1.206522e-003
2.343125e+003,-1.206522e-003
2.345053e+003,-1.342271e-003
2.346981e+003,-1.575611e-003
2.348910e+003,-1.735997e-003
2.350839e+003,-1.640644e-003
2.352767e+003,-1.312707e-003
2.354696e+003,-1.100477e-003
2.356624e+003,-9.093058e-004
2.358552e+003,-8.101333e-004
2.360481e+003,-8.690971e-004
2.362409e+003,-9.652477e-004
2.364338e+003,-9.811495e-004
2.366267e+003,-1.016422e-003
2.368195e+003,-1.054667e-003
2.370124e+003,-1.129296e-003
2.372052e+003,-1.283966e-003
2.373980e+003,-1.432273e-003
2.375909e+003,-1.643020e-003
2.377838e+003,-1.816019e-003
2.379766e+003,-1.919811e-003
2.381695e+003,-1.925782e-003
2.383623e+003,-1.905098e-003
2.385552e+003,-1.916710e-003
2.387480e+003,-1.927596e-003
2.389408e+003,-1.888504e-003
2.391337e+003,-1.900843e-003
2.393266e+003,-1.960219e-003
2.395194e+003,-1.957746e-003
2.397123e+003,-1.911597e-003
2.399051e+003,-1.906616e-003
2.400979e+003,-1.933765e-003
2.402908e+003,-2.028855e-003
2.404836e+003,-2.101503e-003
2.406765e+003,-2.105328e-003
2.408694e+003,-2.092073e-003
2.410622e+003,-1.979185e-003
2.412551e+003,-1.968960e-003
2.414479e+003,-1.923407e-003
2.416407e+003,-1.919646e-003
2.418336e+003,-1.998645e-003
2.420264e+003,-2.063746e-003
2.422193e+003,-2.093622e-003
2.424122e+003,-1.940461e-003
2.426050e+003,-1.867984e-003
2.427979e+003,-2.014212e-003
2.429907e+003,-2.062097e-003
2.431835e+003,-1.950621e-003
2.433764e+003,-1.859538e-003
2.435692e+003,-1.841095e-003
2.437621e+003,-1.907374e-003
2.439550e+003,-1.965563e-003
2.441478e+003,-1.988816e-003
2.443406e+003,-1.896752e-003
2.445335e+003,-1.855018e-003
2.447263e+003,-1.948509e-003
2.449192e+003,-1.993335e-003
2.451121e+003,-1.970214e-003
2.453049e+003,-1.902525e-003
2.454978e+003,-1.879069e-003
2.456906e+003,-1.837432e-003
2.458834e+003,-1.843668e-003
2.460763e+003,-1.826049e-003
2.462691e+003,-1.932214e-003
2.464620e+003,-2.083466e-003
2.466549e+003,-2.031131e-003
2.468477e+003,-1.950357e-003
2.470406e+003,-1.936503e-003
2.472334e+003,-1.913114e-003
2.474262e+003,-1.937987e-003
2.476191e+003,-1.996303e-003
2.478119e+003,-2.038650e-003
2.480048e+003,-2.037529e-003
2.481977e+003,-2.041849e-003
2.483905e+003,-2.045642e-003
2.485833e+003,-2.063417e-003
2.487762e+003,-1.950357e-003
2.489690e+003,-1.941747e-003
2.491619e+003,-1.968960e-003
2.493547e+003,-1.853599e-003
2.495476e+003,-1.807110e-003
2.497405e+003,-1.855579e-003
2.499333e+003,-1.923407e-003
2.501261e+003,-1.959329e-003
2.503190e+003,-1.921394e-003
2.505118e+003,-1.925848e-003
2.507047e+003,-1.980570e-003
2.508975e+003,-1.926969e-003
2.510904e+003,-1.834166e-003
2.512833e+003,-1.754609e-003
2.514761e+003,-1.820737e-003
2.516689e+003,-1.914302e-003
2.518618e+003,-1.816151e-003
2.520546e+003,-1.767611e-003
2.522475e+003,-1.854457e-003
2.524403e+003,-1.894278e-003
2.526332e+003,-1.923011e-003
2.528260e+003,-1.883556e-003
2.530189e+003,-1.861913e-003
2.532117e+003,-1.937129e-003
2.534046e+003,-1.955403e-003
2.535974e+003,-1.932676e-003
2.537903e+003,-2.010155e-003
2.539831e+003,-1.933666e-003
2.541760e+003,-1.894904e-003
2.543688e+003,-1.943166e-003
2.545617e+003,-1.989443e-003
2.547545e+003,-1.948147e-003
2.549474e+003,-1.884183e-003
2.551402e+003,-1.951148e-003
2.553331e+003,-2.016785e-003
2.555259e+003,-1.937327e-003
2.557188e+003,-1.896620e-003
2.559116e+003,-1.931291e-003
2.561045e+003,-1.895366e-003
2.562973e+003,-1.889593e-003
2.564902e+003,-1.821298e-003
2.566830e+003,-1.747910e-003
2.568759e+003,-1.848914e-003
2.570687e+003,-1.817569e-003
2.572616e+003,-1.736822e-003
2.574544e+003,-1.742762e-003
2.576473e+003,-1.747217e-003
2.578401e+003,-1.695468e-003
2.580330e+003,-1.767479e-003
2.582258e+003,-1.786651e-003
2.584187e+003,-1.681441e-003
2.586115e+003,-1.676556e-003
2.588044e+003,-1.758503e-003
2.589972e+003,-1.703158e-003
2.591901e+003,-1.673355e-003
2.593829e+003,-1.731046e-003
2.595758e+003,-1.814072e-003
2.597686e+003,-1.856437e-003
2.599615e+003,-1.831922e-003
2.601543e+003,-1.743059e-003
2.603472e+003,-1.714974e-003
2.605400e+003,-1.661505e-003
2.607329e+003,-1.603375e-003
2.609257e+003,-1.600833e-003
2.611186e+003,-1.499309e-003
2.613114e+003,-1.502677e-003
2.615043e+003,-1.634636e-003
2.616971e+003,-1.623380e-003
2.618900e+003,-1.544081e-003
2.620828e+003,-1.486464e-003
2.622757e+003,-1.360702e-003
2.624685e+003,-1.377647e-003
2.626614e+003,-1.454895e-003
2.628542e+003,-1.414737e-003
2.630471e+003,-1.390297e-003
2.632399e+003,-1.368497e-003
2.634328e+003,-1.351982e-003
2.636256e+003,-1.356540e-003
2.638185e+003,-1.245708e-003
2.640113e+003,-1.143638e-003
2.642042e+003,-1.185870e-003
2.643970e+003,-1.067260e-003
2.645899e+003,-9.248128e-004
2.647827e+003,-9.510976e-004
2.649756e+003,-1.020059e-003
2.651684e+003,-9.721572e-004
2.653613e+003,-8.919464e-004
2.655541e+003,-7.640611e-004
2.657470e+003,-8.129775e-004
2.659398e+003,-8.473380e-004
2.661327e+003,-7.656157e-004
2.663255e+003,-7.399151e-004
2.665184e+003,-7.943906e-004
2.667112e+003,-7.590997e-004
2.669041e+003,-6.830510e-004
2.670969e+003,-6.160217e-004
2.672898e+003,-6.173452e-004
2.674826e+003,-6.273373e-004
2.676755e+003,-5.634432e-004
2.678683e+003,-5.377306e-004
2.680612e+003,-5.096999e-004
2.682540e+003,-4.743197e-004
2.684469e+003,-3.850125e-004
2.686397e+003,-3.208840e-004
2.688326e+003,-2.940644e-004
2.690254e+003,-2.319426e-004
2.692183e+003,-2.243258e-004
2.694111e+003,-2.618456e-004
2.696040e+003,-3.082028e-004
2.697968e+003,-1.866040e-004
2.699897e+003,9.377034e-006
2.701825e+003,-4.668335e-005
2.703754e+003,-2.021172e-006
2.705682e+003,1.432621e-004
2.707611e+003,1.260270e-004
2.709539e+003,1.979879e-004
2.711468e+003,2.769232e-004
2.713396e+003,2.860409e-004
2.715325e+003,3.817393e-004
2.717253e+003,4.692658e-004
2.719182e+003,6.343835e-004
2.721110e+003,7.396511e-004
2.723039e+003,8.098879e-004
2.724967e+003,8.772144e-004
2.726896e+003,9.286791e-004
2.728824e+003,1.021430e-003
2.730753e+003,1.170479e-003
2.732681e+003,1.250122e-003
2.734610e+003,1.296081e-003
2.736538e+003,1.358564e-003
2.738467e+003,1.392036e-003
2.740395e+003,1.432392e-003
2.742324e+003,1.516938e-003
2.744252e+003,1.586137e-003
2.746181e+003,1.637153e-003
2.748109e+003,1.730755e-003
2.750038e+003,1.899182e-003
2.751966e+003,2.018138e-003
2.753895e+003,2.112721e-003
2.755823e+003,2.256415e-003
2.757752e+003,2.391794e-003
2.759680e+003,2.533915e-003
2.761609e+003,2.745665e-003
2.763537e+003,3.078935e-003
2.765466e+003,3.414430e-003
2.767394e+003,3.806504e-003
2.769323e+003,4.085364e-003
2.771251e+003,4.442426e-003
2.773180e+003,4.931064e-003
2.775108e+003,5.418473e-003
2.777037e+003,5.882181e-003
2.778965e+003,6.372307e-003
2.780894e+003,7.049615e-003
2.782822e+003,7.899424e-003
2.784750e+003,8.717059e-003
2.786679e+003,9.480186e-003
2.788608e+003,1.018139e-002
2.790536e+003,1.093004e-002
2.792465e+003,1.170976e-002
2.794393e+003,1.254361e-002
2.796322e+003,1.345364e-002
2.798250e+003,1.421343e-002
2.800178e+003,1.487123e-002
2.802107e+003,1.559422e-002
2.804036e+003,1.624304e-002
2.805964e+003,1.661919e-002
2.807893e+003,1.690172e-002
2.809821e+003,1.708923e-002
2.811750e+003,1.708038e-002
2.813678e+003,1.701414e-002
2.815606e+003,1.692580e-002
2.817535e+003,1.666560e-002
2.819464e+003,1.635529e-002
2.821392e+003,1.594650e-002
2.823321e+003,1.547348e-002
2.825249e+003,1.502346e-002
2.827177e+003,1.439752e-002
2.829106e+003,1.362284e-002
2.831034e+003,1.285002e-002
2.832963e+003,1.221848e-002
2.834892e+003,1.174666e-002
2.836820e+003,1.120746e-002
2.838749e+003,1.054218e-002
2.840677e+003,9.796874e-003
2.842605e+003,9.136589e-003
2.844534e+003,8.399975e-003
2.846462e+003,7.507213e-003
2.848391e+003,6.755148e-003
2.850320e+003,6.351461e-003
2.852248e+003,6.129140e-003
2.854177e+003,5.937198e-003
2.856105e+003,5.918522e-003
2.858033e+003,5.901056e-003
2.859962e+003,5.974350e-003
2.861890e+003,5.983588e-003
2.863819e+003,5.902165e-003
2.865748e+003,6.018494e-003
2.867676e+003,6.138584e-003
2.869604e+003,6.332229e-003
2.871533e+003,6.477596e-003
2.873461e+003,6.614668e-003
2.875390e+003,6.688890e-003
2.877319e+003,6.902373e-003
2.879247e+003,7.115255e-003
2.881176e+003,7.133611e-003
2.883104e+003,7.115490e-003
2.885032e+003,7.178715e-003
2.886961e+003,7.140180e-003
2.888889e+003,7.064533e-003
2.890818e+003,6.941561e-003
2.892747e+003,6.643837e-003
2.894675e+003,6.397694e-003
2.896604e+003,6.366995e-003
2.898532e+003,6.343761e-003
2.900460e+003,6.379536e-003
2.902389e+003,6.265901e-003
2.904317e+003,6.176862e-003
2.906246e+003,6.182542e-003
2.908175e+003,6.104509e-003
2.910103e+003,5.975559e-003
2.912031e+003,5.763101e-003
2.913960e+003,5.511585e-003
2.915888e+003,5.343328e-003
2.917817e+003,5.324308e-003
2.919745e+003,5.677725e-003
2.921674e+003,6.118522e-003
2.923603e+003,6.501240e-003
2.925531e+003,6.876486e-003
2.927459e+003,7.291713e-003
2.929388e+003,7.590186e-003
2.931316e+003,7.861905e-003
2.933245e+003,8.085755e-003
2.935173e+003,8.283412e-003
2.937102e+003,8.431494e-003
2.939031e+003,8.532045e-003
2.940959e+003,8.414670e-003
2.942887e+003,8.274090e-003
2.944816e+003,8.166070e-003
2.946744e+003,7.952672e-003
2.948673e+003,7.587657e-003
2.950601e+003,7.045102e-003
2.952530e+003,6.372273e-003
2.954458e+003,5.676583e-003
2.956387e+003,5.037479e-003
2.958315e+003,4.449824e-003
2.960244e+003,3.737252e-003
2.962172e+003,2.998621e-003
2.964101e+003,2.414251e-003
2.966029e+003,1.889897e-003
2.967958e+003,1.346898e-003
2.969886e+003,8.638014e-004
2.971815e+003,5.391935e-004
2.973743e+003,1.273528e-004
2.975672e+003,-3.489600e-004
2.977600e+003,-6.477510e-004
2.979529e+003,-7.182157e-004
2.981457e+003,-8.330848e-004
2.983386e+003,-1.017612e-003
2.985314e+003,-1.176122e-003
2.987243e+003,-1.388579e-003
2.989171e+003,-1.552599e-003
2.991100e+003,-1.725964e-003
2.993028e+003,-1.784936e-003
2.994957e+003,-1.721211e-003
2.996885e+003,-1.761803e-003
2.998814e+003,-1.876661e-003
3.000742e+003,-1.924660e-003
3.002671e+003,-2.098173e-003
3.004599e+003,-2.234665e-003
3.006528e+003,-2.085082e-003
3.008456e+003,-2.113209e-003
3.010385e+003,-2.227776e-003
3.012313e+003,-2.273001e-003
3.014242e+003,-2.254971e-003
3.016170e+003,-2.312585e-003
3.018099e+003,-2.308169e-003
3.020027e+003,-2.335820e-003
3.021956e+003,-2.376651e-003
3.023884e+003,-2.335655e-003
3.025813e+003,-2.310575e-003
3.027741e+003,-2.489139e-003
3.029670e+003,-2.638089e-003
3.031598e+003,-2.564279e-003
3.033527e+003,-2.545569e-003
3.035455e+003,-2.471546e-003
3.037384e+003,-2.433854e-003
3.039312e+003,-2.426803e-003
3.041241e+003,-2.511475e-003
3.043169e+003,-2.621786e-003
3.045098e+003,-2.541287e-003
3.047026e+003,-2.560623e-003
3.048955e+003,-2.635059e-003
3.050883e+003,-2.524256e-003
3.052812e+003,-2.415007e-003
3.054740e+003,-2.514044e-003
3.056669e+003,-2.547052e-003
3.058597e+003,-2.698715e-003
3.060526e+003,-2.789589e-003
3.062454e+003,-2.656729e-003
3.064383e+003,-2.599325e-003
3.066311e+003,-2.609436e-003
3.068240e+003,-2.584734e-003
3.070168e+003,-2.605978e-003
3.072097e+003,-2.680637e-003
3.074025e+003,-2.696607e-003
3.075954e+003,-2.711623e-003
3.077882e+003,-2.651921e-003
3.079811e+003,-2.629757e-003
3.081739e+003,-2.745010e-003
3.083668e+003,-2.739182e-003
3.085596e+003,-2.747743e-003
3.087525e+003,-2.788272e-003
3.089453e+003,-2.803712e-003
3.091382e+003,-2.805654e-003
3.093310e+003,-2.665620e-003
3.095239e+003,-2.627945e-003
3.097167e+003,-2.708264e-003
3.099096e+003,-2.701415e-003
3.101024e+003,-2.712907e-003
3.102953e+003,-2.705432e-003
3.104881e+003,-2.733618e-003
3.106810e+003,-2.655905e-003
3.108738e+003,-2.639176e-003
3.110667e+003,-2.697003e-003
3.112595e+003,-2.621358e-003
3.114524e+003,-2.543757e-003
3.116452e+003,-2.710536e-003
3.118381e+003,-2.746755e-003
3.120309e+003,-2.618131e-003
3.122238e+003,-2.582296e-003
3.124166e+003,-2.459026e-003
3.126095e+003,-2.373883e-003
3.128023e+003,-2.505413e-003
3.129952e+003,-2.609831e-003
3.131880e+003,-2.590531e-003
3.133809e+003,-2.555287e-003
3.135737e+003,-2.534962e-003
3.137666e+003,-2.402749e-003
3.139594e+003,-2.348211e-003
3.141523e+003,-2.383143e-003
3.143451e+003,-2.308366e-003
3.145380e+003,-2.287470e-003
3.147308e+003,-2.436391e-003
3.149237e+003,-2.501328e-003
3.151165e+003,-2.357307e-003
3.153094e+003,-2.292414e-003
3.155022e+003,-2.314596e-003
3.156951e+003,-2.348112e-003
3.158879e+003,-2.268650e-003
3.160808e+003,-2.173051e-003
3.162736e+003,-2.188315e-003
3.164665e+003,-2.162204e-003
3.166593e+003,-2.133157e-003
3.168522e+003,-2.220556e-003
3.170450e+003,-2.171106e-003
3.172379e+003,-2.059822e-003
3.174307e+003,-2.082741e-003
3.176236e+003,-2.068363e-003
3.178164e+003,-1.975062e-003
3.180093e+003,-1.970774e-003
3.182021e+003,-2.008407e-003
3.183950e+003,-1.963518e-003
3.185878e+003,-1.936865e-003
3.187807e+003,-1.884183e-003
3.189735e+003,-1.851653e-003
3.191664e+003,-1.937591e-003
3.193592e+003,-1.907078e-003
3.195521e+003,-1.906286e-003
3.197449e+003,-2.004944e-003
3.199378e+003,-2.066154e-003
3.201306e+003,-2.132102e-003
3.203235e+003,-2.067539e-003
3.205163e+003,-2.028130e-003
3.207092e+003,-2.071529e-003
3.209020e+003,-1.911927e-003
3.210948e+003,-1.722103e-003
3.212877e+003,-1.667875e-003
3.214806e+003,-1.700584e-003
3.216734e+003,-1.749890e-003
3.218663e+003,-1.714413e-003
3.220591e+003,-1.647345e-003
3.222520e+003,-1.550817e-003
3.224448e+003,-1.624502e-003
3.226376e+003,-1.814336e-003
3.228305e+003,-1.750616e-003
3.230234e+003,-1.444459e-003
3.232162e+003,-1.416751e-003
3.234091e+003,-1.394359e-003
3.236019e+003,-1.396209e-003
3.237948e+003,-1.499639e-003
3.239876e+003,-1.347027e-003
3.241804e+003,-1.119249e-003
3.243733e+003,-1.075689e-003
3.245662e+003,-1.033744e-003
3.247590e+003,-9.320206e-004
3.249519e+003,-9.649501e-004
3.251447e+003,-8.765043e-004
3.253375e+003,-8.760414e-004
3.255304e+003,-8.509756e-004
3.257232e+003,-6.928431e-004
3.259161e+003,-5.958050e-004
3.261090e+003,-5.986507e-004
3.263018e+003,-6.081138e-004
3.264947e+003,-6.835802e-004
3.266875e+003,-8.413524e-004
3.268803e+003,-8.034857e-004
3.270732e+003,-7.080933e-004
3.272660e+003,-6.878147e-004
3.274589e+003,-6.687924e-004
3.276518e+003,-7.478868e-004
3.278446e+003,-6.234993e-004
3.280375e+003,-4.781591e-004
3.282303e+003,-5.503389e-004
3.284231e+003,-4.962631e-004
3.286160e+003,-5.837937e-004
3.288088e+003,-6.998232e-004
3.290017e+003,-8.037834e-004
3.291946e+003,-8.459160e-004
3.293874e+003,-8.214108e-004
3.295802e+003,-8.423775e-004
3.297731e+003,-8.066276e-004
3.299659e+003,-7.035282e-004
3.301588e+003,-7.660788e-004
3.303516e+003,-1.051626e-003
3.305445e+003,-1.061641e-003
3.307374e+003,-9.579743e-004
3.309302e+003,-1.121596e-003
3.311230e+003,-1.250829e-003
3.313159e+003,-1.338571e-003
3.315087e+003,-1.511889e-003
3.317016e+003,-1.424083e-003
3.318944e+003,-1.400568e-003
3.320873e+003,-1.563297e-003
3.322802e+003,-1.717449e-003
3.324730e+003,-1.805988e-003
3.326658e+003,-1.840666e-003
3.328587e+003,-1.869963e-003
3.330515e+003,-1.864586e-003
3.332444e+003,-2.011541e-003
3.334372e+003,-2.141400e-003
3.336301e+003,-1.978295e-003
3.338229e+003,-1.780151e-003
3.340158e+003,-1.902492e-003
3.342086e+003,-1.954843e-003
3.344015e+003,-1.824169e-003
3.345943e+003,-1.770911e-003
3.347872e+003,-1.873725e-003
3.349800e+003,-2.005571e-003
3.351729e+003,-2.082180e-003
3.353657e+003,-2.042805e-003
3.355586e+003,-1.922384e-003
3.357514e+003,-1.796122e-003
3.359443e+003,-1.881048e-003
3.361371e+003,-2.041585e-003
3.363300e+003,-2.038090e-003
3.365229e+003,-2.055403e-003
3.367157e+003,-2.302698e-003
3.369085e+003,-2.593890e-003
3.371014e+003,-2.701283e-003
3.372942e+003,-2.640723e-003
3.374871e+003,-2.721304e-003
3.376799e+003,-2.761473e-003
3.378728e+003,-2.800650e-003
3.380656e+003,-2.928168e-003
3.382585e+003,-3.135000e-003
3.384513e+003,-3.186709e-003
3.386442e+003,-3.262945e-003
3.388370e+003,-3.382141e-003
3.390299e+003,-3.363400e-003
3.392227e+003,-3.375697e-003
3.394156e+003,-3.597070e-003
3.396084e+003,-3.676257e-003
3.398013e+003,-3.706089e-003
3.399941e+003,-3.793960e-003
3.401870e+003,-3.661998e-003
3.403798e+003,-3.567626e-003
3.405727e+003,-3.624870e-003
3.407655e+003,-3.590761e-003
3.409584e+003,-3.621058e-003
3.411512e+003,-3.715944e-003
3.413441e+003,-3.777438e-003
3.415369e+003,-3.882109e-003
3.417298e+003,-3.874097e-003
3.419226e+003,-3.821976e-003
3.421155e+003,-3.738480e-003
3.423083e+003,-3.786668e-003
3.425012e+003,-3.830549e-003
3.426940e+003,-3.941019e-003
3.428869e+003,-3.987281e-003
3.430797e+003,-3.990564e-003
3.432726e+003,-3.844507e-003
3.434654e+003,-3.819185e-003
3.436583e+003,-4.002416e-003
3.438511e+003,-4.041777e-003
3.440440e+003,-3.939049e-003
3.442368e+003,-4.049918e-003
3.444297e+003,-4.131090e-003
3.446225e+003,-4.030057e-003
3.448154e+003,-3.964725e-003
3.450082e+003,-3.903881e-003
3.452011e+003,-3.921613e-003
3.453939e+003,-3.961802e-003
3.455868e+003,-3.963017e-003
3.457796e+003,-3.961015e-003
3.459725e+003,-4.007865e-003
3.461653e+003,-3.939311e-003
3.463582e+003,-3.894358e-003
3.465510e+003,-3.975067e-003
3.467439e+003,-4.004484e-003
3.469367e+003,-4.013052e-003
3.471296e+003,-4.101879e-003
3.473224e+003,-4.015810e-003
3.475153e+003,-3.936389e-003
3.477081e+003,-3.945025e-003
3.479010e+003,-4.042597e-003
3.480938e+003,-4.104833e-003
3.482867e+003,-4.156131e-003
3.484795e+003,-3.936028e-003
3.486724e+003,-3.817772e-003
3.488652e+003,-3.943875e-003
3.490581e+003,-3.858202e-003
3.492509e+003,-3.878530e-003
3.494438e+003,-3.968304e-003
3.496366e+003,-3.813601e-003
3.498295e+003,-3.835738e-003
3.500223e+003,-3.888940e-003
3.502152e+003,-3.935831e-003
3.504080e+003,-3.924273e-003
3.506009e+003,-3.935404e-003
3.507937e+003,-3.977398e-003
3.509866e+003,-4.080642e-003
3.511794e+003,-4.039610e-003
3.513723e+003,-4.022934e-003
3.515651e+003,-4.025297e-003
3.517580e+003,-3.872783e-003
3.519508e+003,-3.804011e-003
3.521437e+003,-3.889498e-003
3.523365e+003,-4.025691e-003
3.525294e+003,-4.173394e-003
3.527222e+003,-4.162498e-003
3.529151e+003,-4.037608e-003
3.531079e+003,-4.006224e-003
3.533008e+003,-3.889334e-003
3.534936e+003,-3.824276e-003
3.536865e+003,-3.831008e-003
3.538793e+003,-4.060652e-003
3.540722e+003,-4.207817e-003
3.542650e+003,-4.119570e-003
3.544579e+003,-3.873243e-003
3.546507e+003,-3.720970e-003
3.548436e+003,-3.847101e-003
3.550364e+003,-3.922335e-003
3.552293e+003,-3.863325e-003
3.554221e+003,-3.914126e-003
3.556150e+003,-4.080741e-003
3.558078e+003,-4.033340e-003
3.560007e+003,-4.064952e-003
3.561935e+003,-4.307431e-003
3.563864e+003,-4.322653e-003
3.565792e+003,-3.984326e-003
3.567721e+003,-3.923353e-003
3.569649e+003,-4.154228e-003
3.571578e+003,-4.246438e-003
3.573506e+003,-4.165911e-003
3.575435e+003,-4.059864e-003
3.577363e+003,-4.008587e-003
3.579292e+003,-4.136013e-003
3.581220e+003,-4.279118e-003
3.583149e+003,-4.273015e-003
3.585077e+003,-4.116288e-003
3.587006e+003,-3.917935e-003
3.588934e+003,-4.030287e-003
3.590863e+003,-4.304511e-003
3.592791e+003,-4.306250e-003
3.594720e+003,-4.156033e-003
3.596648e+003,-4.022113e-003
3.598577e+003,-4.179629e-003
3.600505e+003,-4.349619e-003
3.602434e+003,-4.268881e-003
3.604362e+003,-4.245126e-003
3.606291e+003,-4.342336e-003
3.608219e+003,-4.207719e-003
3.610148e+003,-4.010130e-003
3.612076e+003,-4.009178e-003
3.614005e+003,-4.270259e-003
3.615933e+003,-4.298868e-003
3.617862e+003,-4.064230e-003
3.619790e+003,-4.178480e-003
3.621719e+003,-4.325835e-003
3.623647e+003,-4.375599e-003
3.625576e+003,-4.277084e-003
3.627504e+003,-3.916195e-003
3.629433e+003,-3.737560e-003
3.631361e+003,-4.177922e-003
3.633290e+003,-4.320554e-003
3.635218e+003,-4.382913e-003
3.637146e+003,-4.434802e-003
3.639075e+003,-4.422175e-003
3.641004e+003,-4.519903e-003
3.642932e+003,-4.388621e-003
3.644861e+003,-4.386718e-003
3.646789e+003,-4.234790e-003
3.648718e+003,-3.887790e-003
3.650646e+003,-3.935010e-003
3.652574e+003,-4.349094e-003
3.654503e+003,-4.325015e-003
3.656432e+003,-4.126528e-003
3.658360e+003,-4.411384e-003
3.660289e+003,-4.680975e-003
3.662217e+003,-4.756557e-003
3.664146e+003,-4.800897e-003
3.666074e+003,-4.838842e-003
3.668002e+003,-4.788804e-003
3.669931e+003,-4.624723e-003
3.671860e+003,-4.573742e-003
3.673788e+003,-4.407678e-003
3.675717e+003,-4.150290e-003
3.677645e+003,-4.393213e-003
3.679573e+003,-4.528658e-003
3.681502e+003,-4.583218e-003
3.683430e+003,-4.708476e-003
3.685359e+003,-4.906402e-003
3.687288e+003,-4.634755e-003
3.689216e+003,-4.415878e-003
3.691145e+003,-4.554398e-003
3.693073e+003,-4.707198e-003
3.695001e+003,-4.714900e-003
3.696930e+003,-4.660816e-003
3.698858e+003,-4.626395e-003
3.700787e+003,-4.487111e-003
3.702716e+003,-4.352473e-003
3.704644e+003,-4.385636e-003
3.706573e+003,-4.430801e-003
3.708501e+003,-4.614101e-003
3.710429e+003,-4.496031e-003
3.712358e+003,-4.283087e-003
3.714286e+003,-4.581021e-003
3.716215e+003,-4.650424e-003
3.718144e+003,-4.417944e-003
3.720072e+003,-4.481536e-003
3.722000e+003,-4.505049e-003
3.723929e+003,-4.418993e-003
3.725857e+003,-4.483668e-003
3.727786e+003,-4.628723e-003
3.729714e+003,-4.549709e-003
3.731643e+003,-4.294866e-003
3.733572e+003,-4.152915e-003
3.735500e+003,-4.016335e-003
3.737428e+003,-4.088323e-003
3.739357e+003,-4.399281e-003
3.741285e+003,-4.552791e-003
3.743214e+003,-4.244076e-003
3.745142e+003,-3.878530e-003
3.747071e+003,-4.220385e-003
3.749000e+003,-4.005140e-003
3.750928e+003,-3.698598e-003
3.752856e+003,-3.790774e-003
3.754785e+003,-4.059109e-003
3.756713e+003,-4.194527e-003
3.758642e+003,-4.173459e-003
3.760570e+003,-4.026053e-003
3.762499e+003,-4.173558e-003
3.764427e+003,-4.198334e-003
3.766356e+003,-4.213035e-003
3.768284e+003,-4.328329e-003
3.770213e+003,-4.012002e-003
3.772141e+003,-4.074898e-003
3.774070e+003,-4.239745e-003
3.775998e+003,-4.243157e-003
3.777927e+003,-4.249227e-003
3.779855e+003,-4.083137e-003
3.781784e+003,-4.155213e-003
3.783712e+003,-4.279741e-003
3.785641e+003,-4.123476e-003
3.787569e+003,-4.073815e-003
3.789498e+003,-4.319536e-003
3.791426e+003,-4.361723e-003
3.793355e+003,-4.298704e-003
3.795283e+003,-4.258480e-003
3.797212e+003,-4.199417e-003
3.799140e+003,-4.180745e-003
3.801069e+003,-4.000117e-003
3.802997e+003,-4.161579e-003
3.804926e+003,-4.220877e-003
3.806854e+003,-4.051953e-003
3.808783e+003,-4.222977e-003
3.810711e+003,-4.315338e-003
3.812640e+003,-4.361100e-003
3.814568e+003,-4.345551e-003
3.816497e+003,-3.933368e-003
3.818425e+003,-3.900368e-003
3.820354e+003,-3.829629e-003
3.822282e+003,-3.884014e-003
3.824211e+003,-4.245946e-003
3.826139e+003,-4.253788e-003
3.828068e+003,-4.357032e-003
3.829996e+003,-4.274524e-003
3.831925e+003,-4.166961e-003
3.833853e+003,-4.252640e-003
3.835782e+003,-4.190031e-003
3.837710e+003,-3.861026e-003
3.839639e+003,-3.898988e-003
3.841567e+003,-4.286828e-003
3.843496e+003,-4.270161e-003
3.845424e+003,-4.372745e-003
3.847353e+003,-4.785331e-003
3.849281e+003,-4.859878e-003
3.851210e+003,-4.383373e-003
3.853138e+003,-3.649808e-003
3.855067e+003,-3.685029e-003
3.856995e+003,-4.090489e-003
3.858924e+003,-4.370383e-003
3.860852e+003,-4.306152e-003
3.862781e+003,-4.133158e-003
3.864709e+003,-4.168241e-003
3.866638e+003,-4.421453e-003
3.868566e+003,-4.314648e-003
3.870495e+003,-4.052084e-003
3.872423e+003,-4.045815e-003
3.874352e+003,-4.105358e-003
3.876280e+003,-4.310515e-003
3.878209e+003,-4.487734e-003
3.880137e+003,-4.571152e-003
3.882066e+003,-4.869052e-003
3.883994e+003,-4.897458e-003
3.885923e+003,-4.528986e-003
3.887851e+003,-4.487013e-003
3.889780e+003,-4.344239e-003
3.891708e+003,-4.132436e-003
3.893637e+003,-4.413942e-003
3.895565e+003,-4.702838e-003
3.897494e+003,-4.661602e-003
3.899422e+003,-4.397739e-003
3.901351e+003,-4.296244e-003
3.903279e+003,-4.349553e-003
3.905208e+003,-4.573546e-003
3.907136e+003,-4.827865e-003
3.909065e+003,-4.729813e-003
3.910993e+003,-4.651572e-003
3.912922e+003,-4.571742e-003
3.914850e+003,-4.486586e-003
3.916779e+003,-4.426012e-003
3.918707e+003,-4.525248e-003
3.920636e+003,-4.625543e-003
3.922564e+003,-4.366644e-003
3.924493e+003,-4.319373e-003
3.926421e+003,-4.516690e-003
3.928350e+003,-4.779235e-003
3.930278e+003,-4.947975e-003
3.932207e+003,-4.806467e-003
3.934135e+003,-4.842971e-003
3.936064e+003,-4.884648e-003
3.937992e+003,-4.748101e-003
3.939921e+003,-4.619183e-003
3.941849e+003,-4.588201e-003
3.943778e+003,-4.837499e-003
3.945706e+003,-4.924421e-003
3.947635e+003,-4.751936e-003
3.949563e+003,-4.612528e-003
3.951492e+003,-4.635738e-003
3.953420e+003,-4.698741e-003
3.955349e+003,-4.952430e-003
3.957277e+003,-4.890283e-003
3.959206e+003,-4.850146e-003
3.961134e+003,-4.873180e-003
3.963063e+003,-4.740104e-003
3.964991e+003,-4.600168e-003
3.966920e+003,-4.528461e-003
3.968848e+003,-4.355720e-003
3.970777e+003,-4.438574e-003
3.972705e+003,-4.622363e-003
3.974634e+003,-4.668880e-003
3.976562e+003,-4.734532e-003
3.978491e+003,-4.785134e-003
3.980419e+003,-4.705329e-003
3.982348e+003,-4.692120e-003
3.984276e+003,-4.804665e-003
3.986205e+003,-4.889071e-003
3.988133e+003,-4.666519e-003
3.990062e+003,-4.450053e-003
3.991990e+003,-4.688383e-003
3.993919e+003,-5.010277e-003
3.995847e+003,-5.032321e-003
3.997776e+003,-4.733058e-003
3.999704e+003,-4.673567e-003
4.001633e+003,0.000000e+000
