3.991989e+002,1.718974e-002
4.011274e+002,1.309817e-002
4.030559e+002,1.136525e-002
4.049844e+002,2.899376e-003
4.069129e+002,1.005763e-002
4.088414e+002,1.655740e-002
4.107699e+002,9.300838e-003
4.126984e+002,5.039322e-003
4.146269e+002,7.209168e-003
4.165554e+002,1.333673e-002
4.184839e+002,1.478631e-002
4.204124e+002,1.815513e-002
4.223409e+002,1.870923e-002
4.242694e+002,1.358048e-002
4.261979e+002,5.943815e-003
4.281264e+002,1.264802e-002
4.300549e+002,1.833592e-002
4.319834e+002,1.450358e-002
4.339119e+002,1.558632e-002
4.358404e+002,2.007050e-002
4.377689e+002,1.966417e-002
4.396974e+002,1.131145e-002
4.416259e+002,4.920541e-003
4.435544e+002,7.136710e-003
4.454829e+002,8.839893e-003
4.474114e+002,1.152065e-002
4.493399e+002,1.323165e-002
4.512684e+002,1.306027e-002
4.531969e+002,1.418933e-002
4.551254e+002,1.232465e-002
4.570539e+002,1.053552e-002
4.589824e+002,8.954508e-003
4.609109e+002,7.266342e-003
4.628394e+002,9.664011e-003
4.647679e+002,1.056486e-002
4.666964e+002,9.114797e-003
4.686249e+002,9.394075e-003
4.705533e+002,1.044486e-002
4.724819e+002,9.027710e-003
4.744103e+002,8.164112e-003
4.763389e+002,8.982787e-003
4.782673e+002,9.182544e-003
4.801959e+002,8.245825e-003
4.821243e+002,8.557356e-003
4.840529e+002,7.906983e-003
4.859813e+002,6.266439e-003
4.879099e+002,7.201049e-003
4.898383e+002,8.361061e-003
4.917668e+002,6.974287e-003
4.936953e+002,6.235580e-003
4.956238e+002,9.189786e-003
4.975523e+002,1.049224e-002
4.994808e+002,7.654761e-003
5.014093e+002,8.185383e-003
5.033378e+002,1.057249e-002
5.052663e+002,1.177237e-002
5.071948e+002,1.054303e-002
5.091233e+002,7.570191e-003
5.110518e+002,6.402805e-003
5.129803e+002,6.597443e-003
5.149088e+002,6.679098e-003
5.168373e+002,6.470029e-003
5.187658e+002,6.354352e-003
5.206943e+002,5.627305e-003
5.226228e+002,5.051021e-003
5.245513e+002,6.171754e-003
5.264798e+002,5.964978e-003
5.284083e+002,4.670014e-003
5.303368e+002,5.148043e-003
5.322653e+002,5.241935e-003
5.341938e+002,5.042640e-003
5.361223e+002,5.319948e-003
5.380508e+002,6.064658e-003
5.399792e+002,6.584492e-003
5.419078e+002,6.748485e-003
5.438363e+002,7.035505e-003
5.457648e+002,7.006141e-003
5.476932e+002,7.431604e-003
5.496218e+002,7.350212e-003
5.515503e+002,7.589680e-003
5.534788e+002,7.917747e-003
5.554072e+002,7.719818e-003
5.573358e+002,7.285985e-003
5.592643e+002,7.682651e-003
5.611927e+002,7.616015e-003
5.631212e+002,8.365824e-003
5.650497e+002,8.880339e-003
5.669783e+002,8.516435e-003
5.689067e+002,8.717431e-003
5.708352e+002,7.834577e-003
5.727637e+002,7.279314e-003
5.746923e+002,7.602999e-003
5.766207e+002,6.349645e-003
5.785492e+002,4.697612e-003
5.804777e+002,5.391271e-004
5.824063e+002,2.867355e-003
5.843347e+002,7.434099e-003
5.862632e+002,7.450649e-003
5.881917e+002,8.359946e-003
5.901202e+002,9.114358e-003
5.920487e+002,9.221295e-003
5.939772e+002,8.775615e-003
5.959057e+002,1.094832e-002
5.978342e+002,1.346245e-002
5.997627e+002,1.460335e-002
6.016912e+002,1.536420e-002
6.036197e+002,1.681509e-002
6.055482e+002,1.809143e-002
6.074767e+002,1.869826e-002
6.094052e+002,1.880558e-002
6.113337e+002,1.844381e-002
6.132622e+002,1.758825e-002
6.151907e+002,1.735479e-002
6.171192e+002,1.650619e-002
6.190477e+002,1.630685e-002
6.209762e+002,1.750741e-002
6.229047e+002,1.631291e-002
6.248332e+002,1.251265e-002
6.267617e+002,9.673905e-003
6.286902e+002,7.666733e-003
6.306187e+002,6.728899e-003
6.325472e+002,5.896455e-003
6.344756e+002,5.643887e-003
6.364042e+002,5.833786e-003
6.383326e+002,5.033959e-003
6.402612e+002,4.343085e-003
6.421896e+002,4.551936e-003
6.441182e+002,4.606985e-003
6.460466e+002,4.269831e-003
6.479752e+002,4.049644e-003
6.499036e+002,3.650100e-003
6.518322e+002,3.560060e-003
6.537606e+002,3.738956e-003
6.556891e+002,3.241142e-003
6.576177e+002,2.847110e-003
6.595461e+002,2.194103e-003
6.614746e+002,2.089947e-003
6.634031e+002,2.504787e-003
6.653317e+002,2.825699e-003
6.672601e+002,2.790115e-003
6.691886e+002,3.045800e-003
6.711171e+002,3.091082e-003
6.730457e+002,2.938904e-003
6.749741e+002,2.869823e-003
6.769026e+002,3.071693e-003
6.788311e+002,3.353588e-003
6.807596e+002,3.682145e-003
6.826881e+002,3.749751e-003
6.846166e+002,4.078809e-003
6.865451e+002,4.424250e-003
6.884736e+002,4.223757e-003
6.904021e+002,3.798750e-003
6.923306e+002,3.989515e-003
6.942591e+002,4.309385e-003
6.961876e+002,4.042721e-003
6.981161e+002,3.874899e-003
7.000446e+002,4.063223e-003
7.019731e+002,4.327724e-003
7.039016e+002,4.671320e-003
7.058301e+002,4.678856e-003
7.077585e+002,4.699421e-003
7.096871e+002,5.258502e-003
7.116156e+002,6.182610e-003
7.135441e+002,6.407748e-003
7.154725e+002,6.072251e-003
7.174011e+002,5.881442e-003
7.193296e+002,6.163218e-003
7.212581e+002,6.322513e-003
7.231865e+002,6.396012e-003
7.251151e+002,6.617897e-003
7.270436e+002,6.704267e-003
7.289720e+002,6.890658e-003
7.309005e+002,7.270924e-003
7.328290e+002,7.294510e-003
7.347576e+002,7.665485e-003
7.366860e+002,8.087578e-003
7.386145e+002,8.374336e-003
7.405430e+002,8.237923e-003
7.424716e+002,8.304588e-003
7.444000e+002,8.430413e-003
7.463285e+002,8.200036e-003
7.482570e+002,7.931278e-003
7.501855e+002,8.116036e-003
7.521140e+002,8.702963e-003
7.540425e+002,9.085699e-003
7.559710e+002,8.754991e-003
7.578995e+002,8.659424e-003
7.598280e+002,8.786806e-003
7.617565e+002,8.895117e-003
7.636850e+002,9.101771e-003
7.656135e+002,1.005397e-002
7.675420e+002,1.037885e-002
7.694705e+002,1.030790e-002
7.713990e+002,9.991344e-003
7.733275e+002,9.572478e-003
7.752560e+002,9.209416e-003
7.771844e+002,9.024226e-003
7.791130e+002,8.501127e-003
7.810415e+002,8.126467e-003
7.829700e+002,8.140950e-003
7.848984e+002,8.327994e-003
7.868270e+002,8.414636e-003
7.887555e+002,8.060135e-003
7.906840e+002,7.612339e-003
7.926124e+002,7.322647e-003
7.945410e+002,7.148904e-003
7.964695e+002,6.954153e-003
7.983979e+002,6.835150e-003
8.003264e+002,6.516980e-003
8.022549e+002,6.228858e-003
8.041835e+002,6.725803e-003
8.061119e+002,7.308831e-003
8.080404e+002,7.959861e-003
8.099689e+002,7.951086e-003
8.118975e+002,7.697726e-003
8.138259e+002,8.249472e-003
8.157545e+002,8.807296e-003
8.176830e+002,8.248865e-003
8.196115e+002,7.344112e-003
8.215399e+002,7.141662e-003
8.234684e+002,7.551378e-003
8.253970e+002,7.325477e-003
8.273254e+002,6.980752e-003
8.292539e+002,6.972570e-003
8.311824e+002,6.847739e-003
8.331110e+002,6.754240e-003
8.350394e+002,6.864805e-003
8.369679e+002,7.339967e-003
8.388964e+002,7.272575e-003
8.408250e+002,6.916849e-003
8.427534e+002,7.035302e-003
8.446819e+002,7.280594e-003
8.466104e+002,7.055474e-003
8.485389e+002,6.873793e-003
8.504674e+002,6.866017e-003
8.523959e+002,6.616619e-003
8.543244e+002,6.346619e-003
8.562529e+002,6.633945e-003
8.581814e+002,6.586913e-003
8.601099e+002,6.768811e-003
8.620384e+002,6.893890e-003
8.639669e+002,6.735764e-003
8.658954e+002,6.780995e-003
8.678239e+002,6.793952e-003
8.697524e+002,6.639295e-003
8.716809e+002,6.725265e-003
8.736094e+002,6.537532e-003
8.755378e+002,6.317907e-003
8.774664e+002,6.317806e-003
8.793949e+002,6.408723e-003
8.813234e+002,6.259413e-003
8.832518e+002,6.274843e-003
8.851804e+002,6.249161e-003
8.871089e+002,6.341408e-003
8.890374e+002,6.774398e-003
8.909658e+002,6.709618e-003
8.928943e+002,6.900219e-003
8.948229e+002,6.906447e-003
8.967513e+002,6.904326e-003
8.986798e+002,6.972469e-003
9.006083e+002,6.839054e-003
9.025369e+002,6.678156e-003
9.044653e+002,6.434145e-003
9.063938e+002,6.422914e-003
9.083223e+002,6.631052e-003
9.102509e+002,6.572448e-003
9.121793e+002,6.141575e-003
9.141078e+002,5.712840e-003
9.160364e+002,5.698774e-003
9.179648e+002,5.515511e-003
9.198933e+002,5.417903e-003
9.218218e+002,5.179596e-003
9.237504e+002,4.855969e-003
9.256788e+002,4.446377e-003
9.276073e+002,4.170462e-003
9.295358e+002,4.527393e-003
9.314644e+002,4.565564e-003
9.333928e+002,4.288704e-003
9.353213e+002,4.268225e-003
9.372498e+002,4.576580e-003
9.391783e+002,4.571792e-003
9.411068e+002,4.139318e-003
9.430353e+002,3.877573e-003
9.449637e+002,3.937520e-003
9.468923e+002,4.012489e-003
9.488208e+002,4.243097e-003
9.507493e+002,4.466830e-003
9.526777e+002,4.840757e-003
9.546063e+002,4.985458e-003
9.565348e+002,5.207931e-003
9.584633e+002,5.462929e-003
9.603917e+002,5.398008e-003
9.623203e+002,5.190996e-003
9.642488e+002,4.981235e-003
9.661772e+002,5.032216e-003
9.681057e+002,5.193344e-003
9.700343e+002,5.107810e-003
9.719628e+002,4.883412e-003
9.738912e+002,4.609899e-003
9.758197e+002,4.367550e-003
9.777483e+002,4.401388e-003
9.796768e+002,4.431045e-003
9.816052e+002,4.346599e-003
9.835337e+002,4.157884e-003
9.854623e+002,3.942735e-003
9.873907e+002,3.727861e-003
9.893192e+002,3.395195e-003
9.912477e+002,3.354723e-003
9.931763e+002,3.302236e-003
9.951047e+002,3.170978e-003
9.970332e+002,3.125655e-003
9.989617e+002,2.941406e-003
1.000890e+003,2.954617e-003
1.002819e+003,2.993116e-003
1.004747e+003,3.039827e-003
1.006676e+003,3.133164e-003
1.008604e+003,3.043164e-003
1.010533e+003,2.999589e-003
1.012461e+003,3.188702e-003
1.014390e+003,3.402475e-003
1.016318e+003,3.588456e-003
1.018247e+003,3.796611e-003
1.020175e+003,3.834884e-003
1.022104e+003,3.957782e-003
1.024032e+003,4.474998e-003
1.025961e+003,4.808124e-003
1.027889e+003,4.853992e-003
1.029818e+003,5.187911e-003
1.031746e+003,5.554607e-003
1.033675e+003,5.702903e-003
1.035603e+003,6.213934e-003
1.037532e+003,6.608343e-003
1.039460e+003,6.896616e-003
1.041389e+003,7.249664e-003
1.043317e+003,7.250304e-003
1.045246e+003,7.286862e-003
1.047174e+003,7.691049e-003
1.049103e+003,7.963202e-003
1.051031e+003,7.900234e-003
1.052960e+003,7.977005e-003
1.054888e+003,7.976127e-003
1.056817e+003,7.851074e-003
1.058745e+003,7.947274e-003
1.060674e+003,7.970525e-003
1.062602e+003,7.971976e-003
1.064531e+003,8.026381e-003
1.066459e+003,7.930974e-003
1.068388e+003,8.015479e-003
1.070316e+003,8.197132e-003
1.072245e+003,8.106212e-003
1.074173e+003,8.103106e-003
1.076102e+003,8.084270e-003
1.078030e+003,7.831608e-003
1.079959e+003,7.836162e-003
1.081887e+003,8.121809e-003
1.083816e+003,8.300974e-003
1.085744e+003,8.536100e-003
1.087673e+003,8.731968e-003
1.089601e+003,8.752692e-003
1.091530e+003,8.921125e-003
1.093458e+003,9.273928e-003
1.095387e+003,9.236492e-003
1.097315e+003,9.370138e-003
1.099244e+003,9.347251e-003
1.101172e+003,9.463152e-003
1.103101e+003,9.630336e-003
1.105029e+003,9.516356e-003
1.106958e+003,9.528344e-003
1.108886e+003,9.619258e-003
1.110815e+003,9.847067e-003
1.112743e+003,1.000894e-002
1.114672e+003,9.801652e-003
1.116600e+003,9.786435e-003
1.118529e+003,9.796840e-003
1.120457e+003,9.724864e-003
1.122386e+003,9.778472e-003
1.124314e+003,9.884793e-003
1.126243e+003,9.591346e-003
1.128171e+003,9.452350e-003
1.130100e+003,9.423601e-003
1.132028e+003,9.057786e-003
1.133957e+003,8.946424e-003
1.135885e+003,8.903166e-003
1.137814e+003,8.776190e-003
1.139742e+003,8.461799e-003
1.141671e+003,8.071510e-003
1.143599e+003,7.746700e-003
1.145528e+003,7.349976e-003
1.147456e+003,6.913584e-003
1.149385e+003,6.541064e-003
1.151313e+003,6.263413e-003
1.153242e+003,6.169704e-003
1.155170e+003,6.047118e-003
1.157099e+003,5.823913e-003
1.159027e+003,5.588169e-003
1.160956e+003,5.502256e-003
1.162884e+003,5.397102e-003
1.164813e+003,5.256691e-003
1.166741e+003,5.179160e-003
1.168670e+003,5.229460e-003
1.170598e+003,5.256490e-003
1.172526e+003,5.248140e-003
1.174455e+003,5.300024e-003
1.176384e+003,5.287279e-003
1.178312e+003,5.187543e-003
1.180240e+003,5.158203e-003
1.182169e+003,5.037445e-003
1.184098e+003,4.904824e-003
1.186026e+003,4.906332e-003
1.187954e+003,4.706890e-003
1.189883e+003,4.344490e-003
1.191812e+003,4.175313e-003
1.193740e+003,4.141760e-003
1.195668e+003,4.015365e-003
1.197597e+003,3.843441e-003
1.199526e+003,3.727460e-003
1.201454e+003,3.611008e-003
1.203382e+003,3.501034e-003
1.205311e+003,3.421377e-003
1.207240e+003,3.314723e-003
1.209168e+003,3.319765e-003
1.211096e+003,3.375794e-003
1.213025e+003,3.411692e-003
1.214953e+003,3.441014e-003
1.216882e+003,3.349748e-003
1.218810e+003,3.350383e-003
1.220739e+003,3.393292e-003
1.222667e+003,3.555149e-003
1.224596e+003,3.747813e-003
1.226524e+003,3.813791e-003
1.228453e+003,3.828031e-003
1.230381e+003,3.975337e-003
1.232310e+003,4.225363e-003
1.234238e+003,4.480522e-003
1.236167e+003,4.676913e-003
1.238095e+003,4.752948e-003
1.240024e+003,4.851379e-003
1.241952e+003,5.027556e-003
1.243881e+003,5.071235e-003
1.245809e+003,5.109285e-003
1.247738e+003,5.065335e-003
1.249666e+003,5.015087e-003
1.251595e+003,5.074956e-003
1.253523e+003,5.235396e-003
1.255452e+003,5.260951e-003
1.257380e+003,5.257932e-003
1.259309e+003,5.348393e-003
1.261237e+003,5.589612e-003
1.263166e+003,5.884464e-003
1.265094e+003,6.115833e-003
1.267023e+003,6.286272e-003
1.268951e+003,6.499457e-003
1.270880e+003,6.773961e-003
1.272808e+003,6.994625e-003
1.274737e+003,7.193402e-003
1.276665e+003,7.530171e-003
1.278594e+003,7.921998e-003
1.280522e+003,8.131025e-003
1.282451e+003,8.282602e-003
1.284379e+003,8.534783e-003
1.286308e+003,8.951600e-003
1.288236e+003,9.179769e-003
1.290165e+003,9.392957e-003
1.292093e+003,9.740315e-003
1.294022e+003,9.692437e-003
1.295950e+003,9.771118e-003
1.297879e+003,1.004878e-002
1.299807e+003,1.010179e-002
1.301736e+003,9.906013e-003
1.303664e+003,9.807041e-003
1.305593e+003,9.842661e-003
1.307521e+003,9.800974e-003
1.309450e+003,9.541621e-003
1.311378e+003,9.188027e-003
1.313307e+003,9.018036e-003
1.315235e+003,8.909085e-003
1.317164e+003,8.726154e-003
1.319092e+003,8.406596e-003
1.321021e+003,7.947240e-003
1.322949e+003,7.676513e-003
1.324878e+003,7.656649e-003
1.326806e+003,7.586915e-003
1.328735e+003,7.630615e-003
1.330663e+003,7.568876e-003
1.332592e+003,7.499999e-003
1.334520e+003,7.548141e-003
1.336449e+003,7.460491e-003
1.338377e+003,7.424425e-003
1.340306e+003,7.523766e-003
1.342234e+003,7.747982e-003
1.344163e+003,7.931413e-003
1.346091e+003,8.006873e-003
1.348020e+003,8.103579e-003
1.349948e+003,8.157697e-003
1.351877e+003,8.128730e-003
1.353805e+003,8.066750e-003
1.355734e+003,7.956048e-003
1.357662e+003,7.687204e-003
1.359591e+003,7.466019e-003
1.361519e+003,7.270991e-003
1.363448e+003,7.062109e-003
1.365376e+003,6.959742e-003
1.367305e+003,6.809468e-003
1.369233e+003,6.645216e-003
1.371162e+003,6.468347e-003
1.373090e+003,6.424461e-003
1.375019e+003,6.520344e-003
1.376947e+003,6.676709e-003
1.378876e+003,6.848984e-003
1.380804e+003,7.017792e-003
1.382733e+003,6.972301e-003
1.384661e+003,6.802434e-003
1.386590e+003,6.669912e-003
1.388518e+003,6.684314e-003
1.390447e+003,6.670013e-003
1.392375e+003,6.368407e-003
1.394304e+003,6.026423e-003
1.396232e+003,5.912611e-003
1.398161e+003,5.851014e-003
1.400089e+003,5.789393e-003
1.402018e+003,5.747724e-003
1.403946e+003,5.615893e-003
1.405875e+003,5.430786e-003
1.407803e+003,5.301467e-003
1.409732e+003,5.081527e-003
1.411660e+003,4.933008e-003
1.413589e+003,4.879491e-003
1.415517e+003,4.940146e-003
1.417446e+003,5.078175e-003
1.419374e+003,5.265110e-003
1.421303e+003,5.792583e-003
1.423231e+003,6.388312e-003
1.425160e+003,7.002100e-003
1.427088e+003,7.522114e-003
1.429017e+003,7.866999e-003
1.430945e+003,8.079679e-003
1.432874e+003,8.377342e-003
1.434802e+003,8.761820e-003
1.436731e+003,9.042867e-003
1.438659e+003,9.561097e-003
1.440588e+003,9.967746e-003
1.442516e+003,1.029154e-002
1.444445e+003,1.066998e-002
1.446373e+003,1.107053e-002
1.448302e+003,1.156185e-002
1.450230e+003,1.210487e-002
1.452159e+003,1.257339e-002
1.454087e+003,1.293166e-002
1.456016e+003,1.277518e-002
1.457944e+003,1.294088e-002
1.459873e+003,1.336209e-002
1.461801e+003,1.344133e-002
1.463730e+003,1.325512e-002
1.465658e+003,1.319752e-002
1.467587e+003,1.305146e-002
1.469515e+003,1.264273e-002
1.471444e+003,1.212790e-002
1.473372e+003,1.164094e-002
1.475301e+003,1.143035e-002
1.477229e+003,1.118203e-002
1.479158e+003,1.074955e-002
1.481086e+003,1.002759e-002
1.483015e+003,9.456616e-003
1.484943e+003,9.036811e-003
1.486872e+003,8.551409e-003
1.488800e+003,7.963911e-003
1.490729e+003,7.535903e-003
1.492657e+003,7.303844e-003
1.494586e+003,7.065173e-003
1.496514e+003,6.715439e-003
1.498443e+003,6.437542e-003
1.500371e+003,6.388077e-003
1.502300e+003,6.346754e-003
1.504228e+003,5.975761e-003
1.506157e+003,5.419580e-003
1.508085e+003,5.408274e-003
1.510014e+003,5.514068e-003
1.511942e+003,5.554338e-003
1.513871e+003,5.550278e-003
1.515799e+003,5.413306e-003
1.517728e+003,5.452628e-003
1.519656e+003,5.451421e-003
1.521585e+003,5.352116e-003
1.523513e+003,5.644458e-003
1.525442e+003,5.886278e-003
1.527370e+003,6.023029e-003
1.529299e+003,6.129846e-003
1.531227e+003,6.313032e-003
1.533156e+003,6.588158e-003
1.535084e+003,6.939271e-003
1.537013e+003,7.056047e-003
1.538941e+003,6.975365e-003
1.540870e+003,7.179490e-003
1.542798e+003,7.606236e-003
1.544727e+003,7.911167e-003
1.546655e+003,8.141356e-003
1.548584e+003,8.389166e-003
1.550512e+003,8.704112e-003
1.552441e+003,8.872865e-003
1.554369e+003,8.858593e-003
1.556298e+003,8.811084e-003
1.558226e+003,8.673485e-003
1.560155e+003,9.213037e-003
1.562083e+003,1.004973e-002
1.564012e+003,1.039388e-002
1.565940e+003,1.064563e-002
1.567869e+003,1.084130e-002
1.569797e+003,1.091404e-002
1.571726e+003,1.109966e-002
1.573654e+003,1.098533e-002
1.575583e+003,1.072560e-002
1.577511e+003,1.077536e-002
1.579440e+003,1.082733e-002
1.581368e+003,1.081881e-002
1.583297e+003,1.066471e-002
1.585225e+003,1.047286e-002
1.587154e+003,1.037647e-002
1.589082e+003,1.015771e-002
1.591010e+003,9.794739e-003
1.592939e+003,9.481912e-003
1.594868e+003,9.381175e-003
1.596796e+003,9.375555e-003
1.598724e+003,9.246747e-003
1.600653e+003,8.803679e-003
1.602582e+003,8.450650e-003
1.604510e+003,8.208309e-003
1.606438e+003,8.009911e-003
1.608367e+003,7.755875e-003
1.610296e+003,7.613452e-003
1.612224e+003,7.440806e-003
1.614152e+003,7.148466e-003
1.616081e+003,6.708103e-003
1.618010e+003,6.614971e-003
1.619938e+003,6.574702e-003
1.621866e+003,6.280120e-003
1.623795e+003,6.011237e-003
1.625724e+003,6.129611e-003
1.627652e+003,6.202641e-003
1.629580e+003,6.090463e-003
1.631509e+003,5.878755e-003
1.633438e+003,5.633951e-003
1.635366e+003,5.348863e-003
1.637294e+003,5.250152e-003
1.639223e+003,5.131078e-003
1.641151e+003,4.964477e-003
1.643080e+003,4.683913e-003
1.645008e+003,4.204821e-003
1.646937e+003,3.818505e-003
1.648865e+003,3.796276e-003
1.650794e+003,3.496458e-003
1.652722e+003,2.901544e-003
1.654651e+003,3.010398e-003
1.656579e+003,3.192307e-003
1.658508e+003,3.004793e-003
1.660436e+003,2.889936e-003
1.662365e+003,2.799186e-003
1.664293e+003,2.764772e-003
1.666222e+003,2.828233e-003
1.668150e+003,2.581943e-003
1.670079e+003,2.291888e-003
1.672007e+003,2.283494e-003
1.673936e+003,1.986948e-003
1.675864e+003,1.798590e-003
1.677793e+003,1.723037e-003
1.679721e+003,1.546897e-003
1.681650e+003,1.244706e-003
1.683578e+003,7.440987e-004
1.685507e+003,6.312644e-004
1.687435e+003,5.926752e-004
1.689364e+003,4.342398e-004
1.691292e+003,3.446313e-004
1.693221e+003,1.328547e-004
1.695149e+003,-2.135626e-004
1.697078e+003,-1.820996e-004
1.699006e+003,-3.691882e-004
1.700935e+003,-4.775964e-004
1.702863e+003,-1.470240e-004
1.704792e+003,-5.171915e-005
1.706720e+003,1.041859e-004
1.708649e+003,2.118113e-004
1.710577e+003,1.849273e-004
1.712506e+003,3.293648e-005
1.714434e+003,-1.104217e-004
1.716363e+003,-2.724420e-004
1.718291e+003,-2.514477e-004
1.720220e+003,-1.007489e-004
1.722148e+003,-1.240693e-004
1.724077e+003,-1.786882e-004
1.726005e+003,-2.148542e-004
1.727934e+003,-3.001238e-004
1.729862e+003,-2.471759e-004
1.731791e+003,-3.337965e-004
1.733719e+003,-6.591651e-004
1.735648e+003,-5.788964e-004
1.737576e+003,-5.113216e-004
1.739505e+003,-5.834297e-004
1.741433e+003,-3.980887e-004
1.743362e+003,-2.196563e-004
1.745290e+003,-1.701431e-004
1.747219e+003,-1.980964e-004
1.749147e+003,-3.011503e-004
1.751076e+003,-3.823310e-004
1.753004e+003,-2.592958e-004
1.754933e+003,-1.065460e-004
1.756861e+003,-3.886449e-005
1.758790e+003,-6.394399e-005
1.760718e+003,-1.661023e-004
1.762647e+003,-1.255267e-004
1.764575e+003,-4.701466e-005
1.766504e+003,-1.251624e-004
1.768432e+003,-1.615647e-004
1.770361e+003,-2.157153e-004
1.772289e+003,-3.429013e-004
1.774218e+003,-2.954220e-004
1.776146e+003,-1.767010e-004
1.778075e+003,-1.673609e-004
1.780003e+003,-2.453214e-004
1.781932e+003,-2.428046e-004
1.783860e+003,-1.977652e-004
1.785789e+003,-2.107274e-005
1.787717e+003,9.676217e-005
1.789646e+003,-9.587932e-005
1.791574e+003,-3.140965e-004
1.793503e+003,-3.283005e-004
1.795431e+003,-2.452220e-004
1.797360e+003,-1.902140e-004
1.799288e+003,-1.782246e-004
1.801217e+003,-2.206829e-004
1.803145e+003,-1.728921e-004
1.805074e+003,-8.975084e-005
1.807002e+003,-7.825555e-005
1.808931e+003,-1.106205e-004
1.810859e+003,2.485060e-006
1.812788e+003,1.120075e-004
1.814716e+003,1.163492e-004
1.816645e+003,7.107833e-005
1.818573e+003,4.307639e-005
1.820502e+003,2.627609e-005
1.822430e+003,2.007969e-005
1.824359e+003,-3.637965e-005
1.826287e+003,-4.297272e-005
1.828216e+003,-1.262886e-004
1.830144e+003,-1.762042e-004
1.832073e+003,2.253121e-006
1.834001e+003,6.468246e-005
1.835930e+003,-1.152911e-004
1.837858e+003,-2.116087e-004
1.839787e+003,-2.358503e-004
1.841715e+003,-2.662829e-004
1.843644e+003,-3.058189e-004
1.845572e+003,-1.796156e-004
1.847501e+003,-1.741176e-004
1.849429e+003,-2.061442e-004
1.851358e+003,-1.250630e-004
1.853286e+003,-1.028690e-004
1.855215e+003,-8.806135e-005
1.857143e+003,-1.226780e-004
1.859072e+003,-1.408962e-004
1.861000e+003,-1.207568e-004
1.862929e+003,-6.122739e-005
1.864857e+003,3.237316e-005
1.866786e+003,-9.246726e-005
1.868714e+003,-2.241602e-004
1.870643e+003,-1.241355e-004
1.872571e+003,6.461186e-006
1.874500e+003,5.507227e-005
1.876428e+003,-4.323777e-005
1.878357e+003,-5.456834e-005
1.880285e+003,1.915190e-005
1.882214e+003,4.927311e-005
1.884142e+003,2.574591e-005
1.886071e+003,1.007286e-005
1.887999e+003,-3.661157e-005
1.889928e+003,-5.271306e-005
1.891856e+003,-3.734046e-005
1.893785e+003,2.326072e-005
1.895713e+003,9.295093e-005
1.897642e+003,9.689474e-005
1.899570e+003,5.580131e-005
1.901499e+003,7.720917e-005
1.903427e+003,1.606635e-004
1.905356e+003,1.102178e-004
1.907284e+003,7.485625e-005
1.909213e+003,1.413728e-004
1.911141e+003,1.442564e-004
1.913070e+003,1.003083e-004
1.914998e+003,-2.289502e-005
1.916927e+003,-1.139993e-004
1.918855e+003,-5.248115e-005
1.920784e+003,-9.707188e-005
1.922712e+003,-1.955462e-004
1.924641e+003,-1.048234e-004
1.926569e+003,-2.687088e-005
1.928498e+003,-4.764413e-005
1.930426e+003,-3.064791e-005
1.932355e+003,2.359208e-005
1.934283e+003,4.420306e-005
1.936212e+003,3.111398e-005
1.938140e+003,-3.720793e-005
1.940069e+003,-6.719063e-005
1.941997e+003,-2.856060e-005
1.943926e+003,3.131280e-005
1.945854e+003,-3.329843e-005
1.947783e+003,-1.404987e-004
1.949711e+003,-1.095936e-004
1.951640e+003,-7.941503e-005
1.953568e+003,-4.867118e-005
1.955497e+003,-1.454560e-005
1.957425e+003,-1.033770e-005
1.959354e+003,-1.095273e-004
1.961282e+003,-1.108855e-004
1.963211e+003,-2.408778e-005
1.965139e+003,-1.676550e-005
1.967068e+003,-5.566162e-005
1.968996e+003,-3.240388e-005
1.970925e+003,2.326072e-005
1.972853e+003,3.379685e-006
1.974782e+003,-2.190105e-005
1.976710e+003,-5.089090e-005
1.978639e+003,-8.676938e-005
1.980567e+003,-1.164837e-004
1.982496e+003,-1.224130e-004
1.984424e+003,-1.513630e-004
1.986353e+003,-1.574575e-004
1.988281e+003,-8.339037e-005
1.990210e+003,-8.832636e-005
1.992138e+003,-1.333440e-004
1.994067e+003,-6.397712e-005
1.995995e+003,-6.662744e-005
1.997924e+003,-2.650722e-007
1.999852e+003,7.760686e-005
2.001781e+003,-6.275134e-005
2.003709e+003,-1.351658e-004
2.005638e+003,-1.039622e-004
2.007566e+003,-1.020740e-004
2.009495e+003,-1.085998e-004
2.011423e+003,-1.165168e-004
2.013352e+003,-6.096620e-006
2.015280e+003,5.583445e-005
2.017208e+003,-2.991901e-005
2.019137e+003,-1.127405e-004
2.021066e+003,-1.155562e-004
2.022994e+003,2.157080e-005
2.024922e+003,1.056110e-004
2.026851e+003,1.124383e-004
2.028780e+003,7.379577e-005
2.030708e+003,2.243232e-005
2.032636e+003,9.623191e-005
2.034565e+003,8.532853e-005
2.036494e+003,-4.406805e-006
2.038422e+003,3.711171e-005
2.040350e+003,1.048819e-004
2.042279e+003,1.500568e-004
2.044208e+003,1.615253e-004
2.046136e+003,1.413728e-004
2.048064e+003,1.753807e-004
2.049993e+003,2.513613e-004
2.051921e+003,2.324644e-004
2.053850e+003,1.579124e-004
2.055778e+003,1.813805e-004
2.057707e+003,2.167175e-004
2.059635e+003,2.209608e-004
2.061564e+003,2.021647e-004
2.063492e+003,1.819440e-004
2.065421e+003,1.838003e-004
2.067349e+003,2.459573e-004
2.069278e+003,2.231820e-004
2.071206e+003,1.619231e-004
2.073135e+003,1.958663e-004
2.075063e+003,1.929824e-004
2.076992e+003,1.660996e-004
2.078920e+003,2.642912e-004
2.080849e+003,3.910914e-004
2.082777e+003,4.645225e-004
2.084706e+003,4.758998e-004
2.086634e+003,3.610791e-004
2.088563e+003,3.510313e-004
2.090491e+003,4.636269e-004
2.092420e+003,5.218100e-004
2.094348e+003,4.735447e-004
2.096277e+003,4.767290e-004
2.098205e+003,5.770148e-004
2.100134e+003,5.341840e-004
2.102062e+003,5.187912e-004
2.103991e+003,5.996760e-004
2.105919e+003,6.775561e-004
2.107848e+003,6.197171e-004
2.109776e+003,5.684218e-004
2.111705e+003,6.091656e-004
2.113633e+003,7.014173e-004
2.115562e+003,7.001894e-004
2.117490e+003,6.821358e-004
2.119419e+003,7.106104e-004
2.121347e+003,7.134314e-004
2.123276e+003,6.801778e-004
2.125204e+003,6.509087e-004
2.127133e+003,6.379009e-004
2.129061e+003,6.931869e-004
2.130990e+003,7.329467e-004
2.132918e+003,7.572756e-004
2.134847e+003,7.484135e-004
2.136775e+003,7.367303e-004
2.138704e+003,7.421736e-004
2.140632e+003,7.415762e-004
2.142561e+003,7.577071e-004
2.144489e+003,6.845252e-004
2.146418e+003,7.103781e-004
2.148346e+003,8.306691e-004
2.150275e+003,9.228682e-004
2.152203e+003,9.361503e-004
2.154132e+003,9.686597e-004
2.156060e+003,1.001769e-003
2.157989e+003,8.997253e-004
2.159917e+003,8.163612e-004
2.161846e+003,8.880713e-004
2.163774e+003,1.004559e-003
2.165703e+003,9.842013e-004
2.167631e+003,9.036764e-004
2.169560e+003,9.762976e-004
2.171488e+003,1.120713e-003
2.173417e+003,1.091314e-003
2.175345e+003,1.054777e-003
2.177274e+003,1.020700e-003
2.179202e+003,1.055607e-003
2.181131e+003,1.087727e-003
2.183059e+003,1.070122e-003
2.184988e+003,1.025051e-003
2.186916e+003,1.018574e-003
2.188845e+003,1.005821e-003
2.190773e+003,1.015818e-003
2.192702e+003,1.062350e-003
2.194630e+003,1.025051e-003
2.196559e+003,9.746372e-004
2.198487e+003,8.586222e-004
2.200416e+003,7.709841e-004
2.202344e+003,8.107178e-004
2.204273e+003,8.843859e-004
2.206201e+003,9.045065e-004
2.208130e+003,8.720019e-004
2.210058e+003,8.274489e-004
2.211987e+003,7.903028e-004
2.213915e+003,8.473677e-004
2.215844e+003,8.228013e-004
2.217772e+003,7.662376e-004
2.219701e+003,8.356819e-004
2.221629e+003,8.396656e-004
2.223558e+003,7.955476e-004
2.225486e+003,7.622876e-004
2.227415e+003,8.335905e-004
2.229343e+003,8.926864e-004
2.231272e+003,9.122097e-004
2.233200e+003,8.299719e-004
2.235129e+003,8.483637e-004
2.237057e+003,8.432179e-004
2.238986e+003,7.936886e-004
2.240914e+003,7.273044e-004
2.242843e+003,7.265079e-004
2.244771e+003,7.571761e-004
2.246700e+003,7.190071e-004
2.248628e+003,6.812065e-004
2.250557e+003,6.265857e-004
2.252485e+003,5.797023e-004
2.254414e+003,6.537625e-004
2.256342e+003,7.211976e-004
2.258271e+003,6.199494e-004
2.260199e+003,5.833851e-004
2.262128e+003,5.868357e-004
2.264056e+003,6.857531e-004
2.265985e+003,7.643456e-004
2.267913e+003,6.746689e-004
2.269842e+003,6.016337e-004
2.271770e+003,6.210112e-004
2.273699e+003,5.921443e-004
2.275627e+003,5.077777e-004
2.277556e+003,5.111613e-004
2.279484e+003,5.160046e-004
2.281413e+003,5.033989e-004
2.283341e+003,5.250942e-004
2.285270e+003,5.261558e-004
2.287198e+003,5.428427e-004
2.289127e+003,5.436721e-004
2.291055e+003,5.723368e-004
2.292984e+003,5.515680e-004
2.294912e+003,5.857408e-004
2.296841e+003,6.459644e-004
2.298769e+003,6.082034e-004
2.300698e+003,5.978844e-004
2.302626e+003,6.174608e-004
2.304555e+003,5.932392e-004
2.306483e+003,6.344499e-004
2.308412e+003,6.667709e-004
2.310340e+003,5.433404e-004
2.312269e+003,4.916560e-004
2.314197e+003,4.700618e-004
2.316125e+003,4.194143e-004
2.318054e+003,2.371388e-004
2.319983e+003,1.223481e-004
2.321911e+003,7.846850e-005
2.323840e+003,6.133544e-005
2.325768e+003,9.235438e-005
2.327697e+003,3.187612e-005
2.329625e+003,-9.111765e-006
2.331553e+003,-7.567155e-005
2.333482e+003,-7.683104e-005
2.335411e+003,-3.439177e-005
2.337339e+003,-1.292698e-004
2.339268e+003,-1.929629e-004
2.341196e+003,-1.845174e-004
2.343125e+003,-1.026371e-004
2.345053e+003,-1.676550e-005
2.346981e+003,2.431394e-004
2.348910e+003,3.614439e-004
2.350839e+003,1.591388e-004
2.352767e+003,-5.672177e-005
2.354696e+003,-1.844180e-004
2.356624e+003,-1.463946e-004
2.358552e+003,-2.093235e-004
2.360481e+003,-3.239301e-004
2.362409e+003,-3.031700e-004
2.364338e+003,-2.543287e-004
2.366267e+003,-1.248974e-004
2.368195e+003,-1.338078e-004
2.370124e+003,-7.494273e-005
2.372052e+003,1.394836e-004
2.373980e+003,3.513629e-004
2.375909e+003,4.718530e-004
2.377838e+003,5.981830e-004
2.379766e+003,8.028836e-004
2.381695e+003,9.758991e-004
2.383623e+003,1.013128e-003
2.385552e+003,1.054444e-003
2.387480e+003,1.122938e-003
2.389408e+003,1.167887e-003
2.391337e+003,1.205896e-003
2.393266e+003,1.249325e-003
2.395194e+003,1.300701e-003
2.397123e+003,1.345635e-003
2.399051e+003,1.255938e-003
2.400979e+003,1.122241e-003
2.402908e+003,1.134499e-003
2.404836e+003,1.291794e-003
2.406765e+003,1.332772e-003
2.408694e+003,1.241383e-003
2.410622e+003,1.217957e-003
2.412551e+003,1.272254e-003
2.414479e+003,1.340151e-003
2.416407e+003,1.362519e-003
2.418336e+003,1.339054e-003
2.420264e+003,1.337359e-003
2.422193e+003,1.464739e-003
2.424122e+003,1.489807e-003
2.426050e+003,1.491735e-003
2.427979e+003,1.565386e-003
2.429907e+003,1.591025e-003
2.431835e+003,1.694197e-003
2.433764e+003,1.770144e-003
2.435692e+003,1.761228e-003
2.437621e+003,1.765819e-003
2.439550e+003,1.832296e-003
2.441478e+003,1.865438e-003
2.443406e+003,1.831031e-003
2.445335e+003,1.821415e-003
2.447263e+003,1.791204e-003
2.449192e+003,1.751513e-003
2.451121e+003,1.868699e-003
2.453049e+003,1.954162e-003
2.454978e+003,1.985284e-003
2.456906e+003,2.036247e-003
2.458834e+003,2.064678e-003
2.460763e+003,2.087783e-003
2.462691e+003,2.070171e-003
2.464620e+003,2.079260e-003
2.466549e+003,2.097005e-003
2.468477e+003,2.062214e-003
2.470406e+003,2.065443e-003
2.472334e+003,1.998831e-003
2.474262e+003,2.019536e-003
2.476191e+003,2.144719e-003
2.478119e+003,2.169826e-003
2.480048e+003,2.157805e-003
2.481977e+003,2.118547e-003
2.483905e+003,2.065177e-003
2.485833e+003,2.058685e-003
2.487762e+003,2.197433e-003
2.489690e+003,2.261178e-003
2.491619e+003,2.251152e-003
2.493547e+003,2.294286e-003
2.495476e+003,2.284626e-003
2.497405e+003,2.275467e-003
2.499333e+003,2.371838e-003
2.501261e+003,2.565911e-003
2.503190e+003,2.558445e-003
2.505118e+003,2.413284e-003
2.507047e+003,2.352282e-003
2.508975e+003,2.402089e-003
2.510904e+003,2.454401e-003
2.512833e+003,2.494856e-003
2.514761e+003,2.518184e-003
2.516689e+003,2.586976e-003
2.518618e+003,2.583143e-003
2.520546e+003,2.578176e-003
2.522475e+003,2.520817e-003
2.524403e+003,2.465464e-003
2.526332e+003,2.572343e-003
2.528260e+003,2.715857e-003
2.530189e+003,2.721791e-003
2.532117e+003,2.637577e-003
2.534046e+003,2.597709e-003
2.535974e+003,2.652578e-003
2.537903e+003,2.619576e-003
2.539831e+003,2.602376e-003
2.541760e+003,2.607476e-003
2.543688e+003,2.555078e-003
2.545617e+003,2.552279e-003
2.547545e+003,2.718791e-003
2.549474e+003,2.846176e-003
2.551402e+003,2.793950e-003
2.553331e+003,2.671114e-003
2.555259e+003,2.634177e-003
2.557188e+003,2.645444e-003
2.559116e+003,2.676748e-003
2.561045e+003,2.730360e-003
2.562973e+003,2.784846e-003
2.564902e+003,2.741931e-003
2.566830e+003,2.684216e-003
2.568759e+003,2.718924e-003
2.570687e+003,2.750367e-003
2.572616e+003,2.782645e-003
2.574544e+003,2.799753e-003
2.576473e+003,2.727393e-003
2.578401e+003,2.697152e-003
2.580330e+003,2.780278e-003
2.582258e+003,2.908816e-003
2.584187e+003,2.921691e-003
2.586115e+003,2.895573e-003
2.588044e+003,2.955818e-003
2.589972e+003,3.012768e-003
2.591901e+003,3.026214e-003
2.593829e+003,3.005294e-003
2.595758e+003,2.994851e-003
2.597686e+003,3.088445e-003
2.599615e+003,3.160732e-003
2.601543e+003,3.086443e-003
2.603472e+003,2.937537e-003
2.605400e+003,2.948145e-003
2.607329e+003,3.019440e-003
2.609257e+003,3.088345e-003
2.611186e+003,3.114675e-003
2.613114e+003,3.114074e-003
2.615043e+003,3.093584e-003
2.616971e+003,3.163802e-003
2.618900e+003,3.190337e-003
2.620828e+003,3.156259e-003
2.622757e+003,3.221848e-003
2.624685e+003,3.328178e-003
2.626614e+003,3.357895e-003
2.628542e+003,3.292187e-003
2.630471e+003,3.173849e-003
2.632399e+003,3.174817e-003
2.634328e+003,3.140373e-003
2.636256e+003,3.179323e-003
2.638185e+003,3.334389e-003
2.640113e+003,3.500399e-003
2.642042e+003,3.564135e-003
2.643970e+003,3.536843e-003
2.645899e+003,3.576062e-003
2.647827e+003,3.642983e-003
2.649756e+003,3.655313e-003
2.651684e+003,3.611609e-003
2.653613e+003,3.677734e-003
2.655541e+003,3.743502e-003
2.657470e+003,3.708879e-003
2.659398e+003,3.780366e-003
2.661327e+003,3.944541e-003
2.663255e+003,3.906024e-003
2.665184e+003,3.827998e-003
2.667112e+003,3.886767e-003
2.669041e+003,3.927322e-003
2.670969e+003,3.876236e-003
2.672898e+003,3.906693e-003
2.674826e+003,3.980587e-003
2.676755e+003,4.073658e-003
2.678683e+003,4.039411e-003
2.680612e+003,4.055129e-003
2.682540e+003,4.134702e-003
2.684469e+003,4.196256e-003
2.686397e+003,4.269698e-003
2.688326e+003,4.222419e-003
2.690254e+003,4.216799e-003
2.692183e+003,4.336994e-003
2.694111e+003,4.440485e-003
2.696040e+003,4.477944e-003
2.697968e+003,4.462980e-003
2.699897e+003,4.480857e-003
2.701825e+003,4.520563e-003
2.703754e+003,4.595600e-003
2.705682e+003,4.713723e-003
2.707611e+003,4.836536e-003
2.709539e+003,4.898524e-003
2.711468e+003,4.913269e-003
2.713396e+003,4.943765e-003
2.715325e+003,4.873795e-003
2.717253e+003,4.862771e-003
2.719182e+003,4.929053e-003
2.721110e+003,5.077370e-003
2.723039e+003,5.221613e-003
2.724967e+003,5.337222e-003
2.726896e+003,5.403107e-003
2.728824e+003,5.414984e-003
2.730753e+003,5.463936e-003
2.732681e+003,5.553768e-003
2.734610e+003,5.657986e-003
2.736538e+003,5.734697e-003
2.738467e+003,5.748362e-003
2.740395e+003,5.836674e-003
2.742324e+003,5.921612e-003
2.744252e+003,5.944923e-003
2.746181e+003,5.995044e-003
2.748109e+003,6.178912e-003
2.750038e+003,6.292121e-003
2.751966e+003,6.342921e-003
2.753895e+003,6.381823e-003
2.755823e+003,6.407815e-003
2.757752e+003,6.470433e-003
2.759680e+003,6.624155e-003
2.761609e+003,6.904191e-003
2.763537e+003,7.113907e-003
2.765466e+003,7.301283e-003
2.767394e+003,7.694691e-003
2.769323e+003,8.025031e-003
2.771251e+003,8.340558e-003
2.773180e+003,8.800635e-003
2.775108e+003,9.219975e-003
2.777037e+003,9.652764e-003
2.778965e+003,1.012041e-002
2.780894e+003,1.069619e-002
2.782822e+003,1.129998e-002
2.784750e+003,1.192049e-002
2.786679e+003,1.263213e-002
2.788608e+003,1.336359e-002
2.790536e+003,1.408540e-002
2.792465e+003,1.478929e-002
2.794393e+003,1.543427e-002
2.796322e+003,1.607848e-002
2.798250e+003,1.672338e-002
2.800178e+003,1.749627e-002
2.802107e+003,1.819320e-002
2.804036e+003,1.865499e-002
2.805964e+003,1.916301e-002
2.807893e+003,1.953019e-002
2.809821e+003,1.964531e-002
2.811750e+003,1.978688e-002
2.813678e+003,1.986508e-002
2.815606e+003,1.970515e-002
2.817535e+003,1.949169e-002
2.819464e+003,1.919636e-002
2.821392e+003,1.893438e-002
2.823321e+003,1.861604e-002
2.825249e+003,1.808680e-002
2.827177e+003,1.767130e-002
2.829106e+003,1.728869e-002
2.831034e+003,1.678217e-002
2.832963e+003,1.619919e-002
2.834892e+003,1.560256e-002
2.836820e+003,1.493227e-002
2.838749e+003,1.446990e-002
2.840677e+003,1.392515e-002
2.842605e+003,1.311119e-002
2.844534e+003,1.227802e-002
2.846462e+003,1.158305e-002
2.848391e+003,1.093303e-002
2.850320e+003,1.038964e-002
2.852248e+003,1.013970e-002
2.854177e+003,1.001837e-002
2.856105e+003,9.865879e-003
2.858033e+003,9.812057e-003
2.859962e+003,9.863710e-003
2.861890e+003,9.895471e-003
2.863819e+003,9.933743e-003
2.865748e+003,1.000216e-002
2.867676e+003,9.997176e-003
2.869604e+003,9.975714e-003
2.871533e+003,1.005787e-002
2.873461e+003,1.016457e-002
2.875390e+003,1.037274e-002
2.877319e+003,1.050182e-002
2.879247e+003,1.063775e-002
2.881176e+003,1.079309e-002
2.883104e+003,1.085376e-002
2.885032e+003,1.075237e-002
2.886961e+003,1.070811e-002
2.888889e+003,1.067487e-002
2.890818e+003,1.055192e-002
2.892747e+003,1.031723e-002
2.894675e+003,1.020337e-002
2.896604e+003,1.019411e-002
2.898532e+003,1.020035e-002
2.900460e+003,1.004105e-002
2.902389e+003,9.956525e-003
2.904317e+003,9.914996e-003
2.906246e+003,9.860286e-003
2.908175e+003,9.763629e-003
2.910103e+003,9.523738e-003
2.912031e+003,9.293628e-003
2.913960e+003,9.097237e-003
2.915888e+003,8.911790e-003
2.917817e+003,8.900326e-003
2.919745e+003,9.041310e-003
2.921674e+003,9.254059e-003
2.923603e+003,9.381039e-003
2.925531e+003,9.680443e-003
2.927459e+003,1.012325e-002
2.929388e+003,1.044710e-002
2.931316e+003,1.066285e-002
2.933245e+003,1.091869e-002
2.935173e+003,1.117985e-002
2.937102e+003,1.129709e-002
2.939031e+003,1.143825e-002
2.940959e+003,1.157182e-002
2.942887e+003,1.157141e-002
2.944816e+003,1.142682e-002
2.946744e+003,1.127292e-002
2.948673e+003,1.105632e-002
2.950601e+003,1.068736e-002
2.952530e+003,1.030722e-002
2.954458e+003,9.752615e-003
2.956387e+003,9.219265e-003
2.958315e+003,8.698939e-003
2.960244e+003,8.094397e-003
2.962172e+003,7.484660e-003
2.964101e+003,7.016074e-003
2.966029e+003,6.547724e-003
2.967958e+003,6.001393e-003
2.969886e+003,5.552996e-003
2.971815e+003,5.121254e-003
2.973743e+003,4.796097e-003
2.975672e+003,4.464252e-003
2.977600e+003,4.257853e-003
2.979529e+003,4.134167e-003
2.981457e+003,3.811284e-003
2.983386e+003,3.566374e-003
2.985314e+003,3.323804e-003
2.987243e+003,3.108301e-003
2.989171e+003,3.062751e-003
2.991100e+003,2.920557e-003
2.993028e+003,2.660813e-003
2.994957e+003,2.539247e-003
2.996885e+003,2.374103e-003
2.998814e+003,2.313040e-003
3.000742e+003,2.259745e-003
3.002671e+003,2.145318e-003
3.004599e+003,2.111955e-003
3.006528e+003,2.041707e-003
3.008456e+003,1.985184e-003
3.010385e+003,1.928102e-003
3.012313e+003,1.958256e-003
3.014242e+003,1.946973e-003
3.016170e+003,1.863308e-003
3.018099e+003,1.781722e-003
3.020027e+003,1.847203e-003
3.021956e+003,1.861811e-003
3.023884e+003,1.761361e-003
3.025813e+003,1.633561e-003
3.027741e+003,1.508027e-003
3.029670e+003,1.589263e-003
3.031598e+003,1.650058e-003
3.033527e+003,1.612409e-003
3.035455e+003,1.541045e-003
3.037384e+003,1.551852e-003
3.039312e+003,1.456760e-003
3.041241e+003,1.284483e-003
3.043169e+003,1.219586e-003
3.045098e+003,1.297677e-003
3.047026e+003,1.323998e-003
3.048955e+003,1.268798e-003
3.050883e+003,1.225367e-003
3.052812e+003,1.200414e-003
3.054740e+003,1.139482e-003
3.056669e+003,1.095201e-003
3.058597e+003,1.018209e-003
3.060526e+003,9.317339e-004
3.062454e+003,9.635457e-004
3.064383e+003,9.402013e-004
3.066311e+003,8.217390e-004
3.068240e+003,7.515667e-004
3.070168e+003,7.598978e-004
3.072097e+003,7.078557e-004
3.074025e+003,7.526620e-004
3.075954e+003,8.201788e-004
3.077882e+003,7.607940e-004
3.079811e+003,6.382659e-004
3.081739e+003,5.734316e-004
3.083668e+003,5.602270e-004
3.085596e+003,5.100335e-004
3.087525e+003,4.350026e-004
3.089453e+003,4.509896e-004
3.091382e+003,4.098294e-004
3.093310e+003,3.458914e-004
3.095239e+003,3.356781e-004
3.097167e+003,2.931363e-004
3.099096e+003,2.555055e-004
3.101024e+003,2.204967e-004
3.102953e+003,1.006066e-004
3.104881e+003,-6.228753e-005
3.106810e+003,-3.690975e-005
3.108738e+003,3.177671e-005
3.110667e+003,-5.529719e-005
3.112595e+003,-1.100905e-004
3.114524e+003,2.660745e-005
3.116452e+003,7.813709e-005
3.118381e+003,-2.209984e-005
3.120309e+003,-1.572588e-004
3.122238e+003,-2.632695e-004
3.124166e+003,-3.141296e-004
3.126095e+003,-3.071102e-004
3.128023e+003,-2.028986e-004
3.129952e+003,-1.208230e-004
3.131880e+003,-2.322407e-004
3.133809e+003,-2.569116e-004
3.135737e+003,-1.583518e-004
3.137666e+003,-1.828283e-004
3.139594e+003,-2.093567e-004
3.141523e+003,-1.125749e-004
3.143451e+003,-9.813194e-005
3.145380e+003,-1.868689e-004
3.147308e+003,-1.900153e-004
3.149237e+003,-2.474076e-004
3.151165e+003,-3.365777e-004
3.153094e+003,-3.677315e-004
3.155022e+003,-3.826290e-004
3.156951e+003,-3.961686e-004
3.158879e+003,-3.409479e-004
3.160808e+003,-1.829607e-004
3.162736e+003,-2.287303e-004
3.164665e+003,-2.376055e-004
3.166593e+003,-2.745613e-004
3.168522e+003,-3.383655e-004
3.170450e+003,-3.867670e-004
3.172379e+003,-3.599846e-004
3.174307e+003,-2.453214e-004
3.176236e+003,-1.485476e-004
3.178164e+003,-2.116087e-004
3.180093e+003,-2.507192e-004
3.182021e+003,-2.490634e-004
3.183950e+003,-2.725082e-004
3.185878e+003,-3.607130e-004
3.187807e+003,-4.744521e-004
3.189735e+003,-3.999755e-004
3.191664e+003,-3.154209e-004
3.193592e+003,-3.893161e-004
3.195521e+003,-4.194069e-004
3.197449e+003,-2.524080e-004
3.199378e+003,-1.779596e-004
3.201306e+003,-1.941552e-004
3.203235e+003,-2.745281e-004
3.205163e+003,-2.937002e-004
3.207092e+003,-2.296907e-004
3.209020e+003,-1.221812e-004
3.210948e+003,-1.590405e-005
3.212877e+003,-6.924959e-006
3.214806e+003,-4.979761e-005
3.216734e+003,-5.009578e-005
3.218663e+003,-1.432148e-004
3.220591e+003,-6.831701e-005
3.222520e+003,1.690828e-004
3.224448e+003,2.320665e-004
3.226376e+003,2.654516e-004
3.228305e+003,3.587247e-004
3.230234e+003,4.116204e-004
3.232162e+003,3.768975e-004
3.234091e+003,2.555055e-004
3.236019e+003,2.203310e-004
3.237948e+003,3.601175e-004
3.239876e+003,5.520324e-004
3.241804e+003,5.951304e-004
3.243733e+003,5.637106e-004
3.245662e+003,6.000742e-004
3.247590e+003,5.896227e-004
3.249519e+003,6.753659e-004
3.251447e+003,7.246161e-004
3.253375e+003,6.619922e-004
3.255304e+003,7.130000e-004
3.257232e+003,9.079265e-004
3.259161e+003,1.021829e-003
3.261090e+003,1.013094e-003
3.263018e+003,1.027375e-003
3.264947e+003,9.363494e-004
3.266875e+003,8.645982e-004
3.268803e+003,9.541812e-004
3.270732e+003,1.098223e-003
3.272660e+003,1.244540e-003
3.274589e+003,1.268698e-003
3.276518e+003,1.198420e-003
3.278446e+003,1.151940e-003
3.280375e+003,1.100217e-003
3.282303e+003,1.149781e-003
3.284231e+003,1.186227e-003
3.286160e+003,1.204002e-003
3.288088e+003,1.231913e-003
3.290017e+003,1.204467e-003
3.291946e+003,1.114434e-003
3.293874e+003,9.977177e-004
3.295802e+003,9.990128e-004
3.297731e+003,1.002168e-003
3.299659e+003,9.885186e-004
3.301588e+003,1.013260e-003
3.303516e+003,8.045102e-004
3.305445e+003,5.874992e-004
3.307374e+003,4.837944e-004
3.309302e+003,3.333569e-004
3.311230e+003,2.658163e-004
3.313159e+003,2.538478e-004
3.315087e+003,8.857632e-005
3.317016e+003,-4.141557e-005
3.318944e+003,-1.678246e-004
3.320873e+003,-9.627685e-005
3.322802e+003,-1.313235e-004
3.324730e+003,-5.191650e-004
3.326658e+003,-6.894688e-004
3.328587e+003,-5.861431e-004
3.330515e+003,-5.416025e-004
3.332444e+003,-6.312084e-004
3.334372e+003,-7.999800e-004
3.336301e+003,-8.594412e-004
3.338229e+003,-7.762329e-004
3.340158e+003,-7.241037e-004
3.342086e+003,-7.970695e-004
3.344015e+003,-7.849315e-004
3.345943e+003,-7.588682e-004
3.347872e+003,-9.355914e-004
3.349800e+003,-9.654461e-004
3.351729e+003,-8.797118e-004
3.353657e+003,-1.021249e-003
3.355586e+003,-1.194098e-003
3.357514e+003,-1.317728e-003
3.359443e+003,-1.242206e-003
3.361371e+003,-1.048089e-003
3.363300e+003,-1.166936e-003
3.365229e+003,-1.462952e-003
3.367157e+003,-1.548076e-003
3.369085e+003,-1.566070e-003
3.371014e+003,-1.610571e-003
3.372942e+003,-1.659954e-003
3.374871e+003,-1.859175e-003
3.376799e+003,-1.947619e-003
3.378728e+003,-1.979218e-003
3.380656e+003,-2.072848e-003
3.382585e+003,-2.296633e-003
3.384513e+003,-2.529197e-003
3.386442e+003,-2.433854e-003
3.388370e+003,-2.208919e-003
3.390299e+003,-2.205260e-003
3.392227e+003,-2.341785e-003
3.394156e+003,-2.425089e-003
3.396084e+003,-2.485581e-003
3.398013e+003,-2.574391e-003
3.399941e+003,-2.600313e-003
3.401870e+003,-2.589345e-003
3.403798e+003,-2.644774e-003
3.405727e+003,-2.753867e-003
3.407655e+003,-2.674149e-003
3.409584e+003,-2.531668e-003
3.411512e+003,-2.607822e-003
3.413441e+003,-2.756929e-003
3.415369e+003,-2.851346e-003
3.417298e+003,-2.862241e-003
3.419226e+003,-2.838311e-003
3.421155e+003,-2.863657e-003
3.423083e+003,-2.867212e-003
3.425012e+003,-2.819448e-003
3.426940e+003,-2.867475e-003
3.428869e+003,-2.872314e-003
3.430797e+003,-2.839463e-003
3.432726e+003,-2.972399e-003
3.434654e+003,-3.164177e-003
3.436583e+003,-3.322958e-003
3.438511e+003,-3.197760e-003
3.440440e+003,-2.995730e-003
3.442368e+003,-2.961605e-003
3.444297e+003,-3.037387e-003
3.446225e+003,-3.150197e-003
3.448154e+003,-3.147368e-003
3.450082e+003,-3.075323e-003
3.452011e+003,-3.224072e-003
3.453939e+003,-3.351235e-003
3.455868e+003,-3.340122e-003
3.457796e+003,-3.261926e-003
3.459725e+003,-3.239694e-003
3.461653e+003,-3.258966e-003
3.463582e+003,-3.367970e-003
3.465510e+003,-3.444931e-003
3.467439e+003,-3.427673e-003
3.469367e+003,-3.374447e-003
3.471296e+003,-3.392990e-003
3.473224e+003,-3.441743e-003
3.475153e+003,-3.556124e-003
3.477081e+003,-3.498082e-003
3.479010e+003,-3.513596e-003
3.480938e+003,-3.446410e-003
3.482867e+003,-3.422873e-003
3.484795e+003,-3.247324e-003
3.486724e+003,-3.177301e-003
3.488652e+003,-3.287116e-003
3.490581e+003,-3.512117e-003
3.492509e+003,-3.664495e-003
3.494438e+003,-3.542255e-003
3.496366e+003,-3.325391e-003
3.498295e+003,-3.446213e-003
3.500223e+003,-3.574922e-003
3.502152e+003,-3.492758e-003
3.504080e+003,-3.502355e-003
3.506009e+003,-3.465147e-003
3.507937e+003,-3.235813e-003
3.509866e+003,-3.293166e-003
3.511794e+003,-3.508765e-003
3.513723e+003,-3.707041e-003
3.515651e+003,-3.813207e-003
3.517580e+003,-3.685752e-003
3.519508e+003,-3.635220e-003
3.521437e+003,-3.705037e-003
3.523365e+003,-3.775205e-003
3.525294e+003,-3.808675e-003
3.527222e+003,-3.732961e-003
3.529151e+003,-3.506036e-003
3.531079e+003,-3.482470e-003
3.533008e+003,-3.676060e-003
3.534936e+003,-3.789493e-003
3.536865e+003,-3.783843e-003
3.538793e+003,-3.531015e-003
3.540722e+003,-3.305234e-003
3.542650e+003,-3.335420e-003
3.544579e+003,-3.435234e-003
3.546507e+003,-3.529208e-003
3.548436e+003,-3.655066e-003
3.550364e+003,-3.764036e-003
3.552293e+003,-3.886871e-003
3.554221e+003,-3.837774e-003
3.556150e+003,-3.690582e-003
3.558078e+003,-3.628714e-003
3.560007e+003,-3.749353e-003
3.561935e+003,-3.737560e-003
3.563864e+003,-3.875607e-003
3.565792e+003,-4.005337e-003
3.567721e+003,-3.817608e-003
3.569649e+003,-3.720346e-003
3.571578e+003,-3.876986e-003
3.573506e+003,-3.901648e-003
3.575435e+003,-3.862110e-003
3.577363e+003,-3.817247e-003
3.579292e+003,-3.595592e-003
3.581220e+003,-3.844145e-003
3.583149e+003,-4.040825e-003
3.585077e+003,-3.987937e-003
3.587006e+003,-4.114286e-003
3.588934e+003,-4.073093e-003
3.590863e+003,-3.914488e-003
3.592791e+003,-3.962623e-003
3.594720e+003,-4.047817e-003
3.596648e+003,-3.944663e-003
3.598577e+003,-3.872422e-003
3.600505e+003,-3.887495e-003
3.602434e+003,-3.987149e-003
3.604362e+003,-3.932744e-003
3.606291e+003,-4.182024e-003
3.608219e+003,-4.415025e-003
3.610148e+003,-4.249589e-003
3.612076e+003,-4.129942e-003
3.614005e+003,-4.171654e-003
3.615933e+003,-4.255658e-003
3.617862e+003,-4.109920e-003
3.619790e+003,-4.005403e-003
3.621719e+003,-4.000380e-003
3.623647e+003,-4.088060e-003
3.625576e+003,-4.196431e-003
3.627504e+003,-4.255035e-003
3.629433e+003,-4.140641e-003
3.631361e+003,-4.055663e-003
3.633290e+003,-4.233642e-003
3.635218e+003,-4.285548e-003
3.637146e+003,-4.236365e-003
3.639075e+003,-4.244470e-003
3.641004e+003,-4.058518e-003
3.642932e+003,-4.055367e-003
3.644861e+003,-4.319307e-003
3.646789e+003,-4.561316e-003
3.648718e+003,-4.754557e-003
3.650646e+003,-4.717948e-003
3.652574e+003,-4.374516e-003
3.654503e+003,-4.449134e-003
3.656432e+003,-4.550890e-003
3.658360e+003,-4.382782e-003
3.660289e+003,-4.471829e-003
3.662217e+003,-4.610331e-003
3.664146e+003,-4.455201e-003
3.666074e+003,-4.419781e-003
3.668002e+003,-4.726240e-003
3.669931e+003,-4.946435e-003
3.671860e+003,-4.959440e-003
3.673788e+003,-5.141732e-003
3.675717e+003,-5.018663e-003
3.677645e+003,-4.558890e-003
3.679573e+003,-4.648654e-003
3.681502e+003,-4.557152e-003
3.683430e+003,-4.456973e-003
3.685359e+003,-4.552988e-003
3.687288e+003,-4.777039e-003
3.689216e+003,-4.755934e-003
3.691145e+003,-4.419584e-003
3.693073e+003,-4.316092e-003
3.695001e+003,-4.464319e-003
3.696930e+003,-4.431424e-003
3.698858e+003,-4.464876e-003
3.700787e+003,-4.493047e-003
3.702716e+003,-4.403643e-003
3.704644e+003,-4.265797e-003
3.706573e+003,-4.181204e-003
3.708501e+003,-4.443001e-003
3.710429e+003,-4.498162e-003
3.712358e+003,-4.410663e-003
3.714286e+003,-4.392819e-003
3.716215e+003,-4.619380e-003
3.718144e+003,-4.656849e-003
3.720072e+003,-4.588857e-003
3.722000e+003,-4.484815e-003
3.723929e+003,-4.391737e-003
3.725857e+003,-4.446215e-003
3.727786e+003,-4.297228e-003
3.729714e+003,-4.495867e-003
3.731643e+003,-4.789460e-003
3.733572e+003,-4.873999e-003
3.735500e+003,-4.667175e-003
3.737428e+003,-4.358279e-003
3.739357e+003,-4.456120e-003
3.741285e+003,-4.401380e-003
3.743214e+003,-4.662717e-003
3.745142e+003,-4.457858e-003
3.747071e+003,-4.264222e-003
3.749000e+003,-4.560726e-003
3.750928e+003,-4.742464e-003
3.752856e+003,-4.452873e-003
3.754785e+003,-4.214216e-003
3.756713e+003,-4.097120e-003
3.758642e+003,-4.033045e-003
3.760570e+003,-4.133158e-003
3.762499e+003,-4.225701e-003
3.764427e+003,-4.243289e-003
3.766356e+003,-4.234528e-003
3.768284e+003,-4.250376e-003
3.770213e+003,-4.285483e-003
3.772141e+003,-4.203059e-003
3.774070e+003,-4.008620e-003
3.775998e+003,-4.112481e-003
3.777927e+003,-4.381437e-003
3.779855e+003,-4.411384e-003
3.781784e+003,-4.288370e-003
3.783712e+003,-4.259858e-003
3.785641e+003,-4.112218e-003
3.787569e+003,-4.124592e-003
3.789498e+003,-4.017484e-003
3.791426e+003,-3.987379e-003
3.793355e+003,-4.071156e-003
3.795283e+003,-4.002383e-003
3.797212e+003,-4.137556e-003
3.799140e+003,-4.565447e-003
3.801069e+003,-4.779595e-003
3.802997e+003,-4.422175e-003
3.804926e+003,-4.562529e-003
3.806854e+003,-4.739252e-003
3.808783e+003,-4.416173e-003
3.810711e+003,-4.114122e-003
3.812640e+003,-4.121769e-003
3.814568e+003,-4.560365e-003
3.816497e+003,-4.632198e-003
3.818425e+003,-4.377764e-003
3.820354e+003,-4.225898e-003
3.822282e+003,-4.159971e-003
3.824211e+003,-4.107984e-003
3.826139e+003,-4.184945e-003
3.828068e+003,-4.132731e-003
3.829996e+003,-4.028416e-003
3.831925e+003,-4.055367e-003
3.833853e+003,-4.107459e-003
3.835782e+003,-4.295948e-003
3.837710e+003,-4.428603e-003
3.839639e+003,-4.441722e-003
3.841567e+003,-4.351292e-003
3.843496e+003,-4.313271e-003
3.845424e+003,-4.137096e-003
3.847353e+003,-4.188391e-003
3.849281e+003,-4.438016e-003
3.851210e+003,-4.607544e-003
3.853138e+003,-4.773434e-003
3.855067e+003,-4.584726e-003
3.856995e+003,-4.391639e-003
3.858924e+003,-4.477535e-003
3.860852e+003,-4.527805e-003
3.862781e+003,-4.282366e-003
3.864709e+003,-4.214840e-003
3.866638e+003,-4.232592e-003
3.868566e+003,-4.643147e-003
3.870495e+003,-4.626297e-003
3.872423e+003,-4.471173e-003
3.874352e+003,-4.408465e-003
3.876280e+003,-4.357360e-003
3.878209e+003,-4.455398e-003
3.880137e+003,-4.432802e-003
3.882066e+003,-4.382815e-003
3.883994e+003,-4.608069e-003
3.885923e+003,-4.606594e-003
3.887851e+003,-4.311532e-003
3.889780e+003,-4.482749e-003
3.891708e+003,-4.870166e-003
3.893637e+003,-4.756655e-003
3.895565e+003,-4.372318e-003
3.897494e+003,-4.509147e-003
3.899422e+003,-4.513804e-003
3.901351e+003,-4.371302e-003
3.903279e+003,-4.385144e-003
3.905208e+003,-4.401282e-003
3.907136e+003,-4.471271e-003
3.909065e+003,-4.519805e-003
3.910993e+003,-4.547315e-003
3.912922e+003,-4.510984e-003
3.914850e+003,-4.567644e-003
3.916779e+003,-4.603512e-003
3.918707e+003,-4.474747e-003
3.920636e+003,-4.553709e-003
3.922564e+003,-4.892740e-003
3.924493e+003,-4.897589e-003
3.926421e+003,-4.506360e-003
3.928350e+003,-4.488586e-003
3.930278e+003,-4.598135e-003
3.932207e+003,-4.529543e-003
3.934135e+003,-4.324031e-003
3.936064e+003,-4.090654e-003
3.937992e+003,-4.188424e-003
3.939921e+003,-4.489734e-003
3.941849e+003,-4.440017e-003
3.943778e+003,-4.304544e-003
3.945706e+003,-4.349520e-003
3.947635e+003,-4.311794e-003
3.949563e+003,-4.246438e-003
3.951492e+003,-4.372679e-003
3.953420e+003,-4.452217e-003
3.955349e+003,-4.403119e-003
3.957277e+003,-4.414894e-003
3.959206e+003,-4.519805e-003
3.961134e+003,-4.559447e-003
3.963063e+003,-4.462941e-003
3.964991e+003,-4.510590e-003
3.966920e+003,-4.461039e-003
3.968848e+003,-4.376156e-003
3.970777e+003,-4.020832e-003
3.972705e+003,-4.025133e-003
3.974634e+003,-4.381339e-003
3.976562e+003,-4.455857e-003
3.978491e+003,-4.448970e-003
3.980419e+003,-4.295653e-003
3.982348e+003,-4.263238e-003
3.984276e+003,-4.322751e-003
3.986205e+003,-4.438672e-003
3.988133e+003,-4.271965e-003
3.990062e+003,-4.184879e-003
3.991990e+003,-4.251688e-003
3.993919e+003,-4.141461e-003
3.995847e+003,-4.246307e-003
3.997776e+003,-4.441132e-003
3.999704e+003,-4.497604e-003
4.001633e+003,0.000000e+000
