3.991989e+002,4.242389e-002
4.011274e+002,4.132691e-002
4.030559e+002,3.232513e-002
4.049844e+002,2.597746e-002
4.069129e+002,2.668258e-002
4.088414e+002,3.053238e-002
4.107699e+002,3.067911e-002
4.126984e+002,2.627755e-002
4.146269e+002,2.188517e-002
4.165554e+002,2.561653e-002
4.184839e+002,3.426276e-002
4.204124e+002,3.091354e-002
4.223409e+002,2.723688e-002
4.242694e+002,2.997365e-002
4.261979e+002,2.713603e-002
4.281264e+002,2.457720e-002
4.300549e+002,2.349146e-002
4.319834e+002,2.110896e-002
4.339119e+002,2.182931e-002
4.358404e+002,2.742481e-002
4.377689e+002,2.814756e-002
4.396974e+002,2.100243e-002
4.416259e+002,1.923570e-002
4.435544e+002,2.175312e-002
4.454829e+002,2.407332e-002
4.474114e+002,2.857568e-002
4.493399e+002,2.554884e-002
4.512684e+002,1.970764e-002
4.531969e+002,1.940191e-002
4.551254e+002,2.210190e-002
4.570539e+002,2.117488e-002
4.589824e+002,1.590849e-002
4.609109e+002,1.416389e-002
4.628394e+002,1.926552e-002
4.647679e+002,2.080109e-002
4.666964e+002,1.984639e-002
4.686249e+002,1.847022e-002
4.705533e+002,1.873365e-002
4.724819e+002,1.960617e-002
4.744103e+002,2.014508e-002
4.763389e+002,2.039744e-002
4.782673e+002,1.984191e-002
4.801959e+002,1.901755e-002
4.821243e+002,2.001141e-002
4.840529e+002,2.236629e-002
4.859813e+002,2.358514e-002
4.879099e+002,2.313070e-002
4.898383e+002,2.023915e-002
4.917668e+002,2.073206e-002
4.936953e+002,2.915061e-002
4.956238e+002,2.776363e-002
4.975523e+002,1.879630e-002
4.994808e+002,1.810510e-002
5.014093e+002,2.603100e-002
5.033378e+002,2.658109e-002
5.052663e+002,2.354253e-002
5.071948e+002,2.098083e-002
5.091233e+002,1.918680e-002
5.110518e+002,1.907890e-002
5.129803e+002,1.890209e-002
5.149088e+002,1.843572e-002
5.168373e+002,1.934332e-002
5.187658e+002,1.987372e-002
5.206943e+002,1.995104e-002
5.226228e+002,1.874925e-002
5.245513e+002,1.806960e-002
5.264798e+002,1.832808e-002
5.284083e+002,1.922759e-002
5.303368e+002,1.925787e-002
5.322653e+002,1.806300e-002
5.341938e+002,1.753094e-002
5.361223e+002,1.775106e-002
5.380508e+002,1.737365e-002
5.399792e+002,1.971388e-002
5.419078e+002,2.053634e-002
5.438363e+002,1.997800e-002
5.457648e+002,1.936646e-002
5.476932e+002,1.889312e-002
5.496218e+002,2.001609e-002
5.515503e+002,2.104072e-002
5.534788e+002,1.953116e-002
5.554072e+002,1.998445e-002
5.573358e+002,2.068164e-002
5.592643e+002,2.126106e-002
5.611927e+002,2.090931e-002
5.631212e+002,2.160388e-002
5.650497e+002,2.193692e-002
5.669783e+002,2.221794e-002
5.689067e+002,2.209482e-002
5.708352e+002,2.188730e-002
5.727637e+002,2.032379e-002
5.746923e+002,1.910629e-002
5.766207e+002,1.960111e-002
5.785492e+002,1.966105e-002
5.804777e+002,1.131049e-002
5.824063e+002,1.044679e-002
5.843347e+002,1.954887e-002
5.862632e+002,2.282638e-002
5.881917e+002,2.217163e-002
5.901202e+002,2.102764e-002
5.920487e+002,1.939796e-002
5.939772e+002,1.974762e-002
5.959057e+002,2.150151e-002
5.978342e+002,2.402398e-002
5.997627e+002,2.555608e-002
6.016912e+002,2.569850e-002
6.036197e+002,2.712481e-002
6.055482e+002,2.981019e-002
6.074767e+002,3.154716e-002
6.094052e+002,3.202409e-002
6.113337e+002,3.257671e-002
6.132622e+002,3.118409e-002
6.151907e+002,2.929578e-002
6.171192e+002,2.888834e-002
6.190477e+002,2.871510e-002
6.209762e+002,2.939667e-002
6.229047e+002,2.783484e-002
6.248332e+002,2.384244e-002
6.267617e+002,2.040387e-002
6.286902e+002,1.820111e-002
6.306187e+002,1.733272e-002
6.325472e+002,1.684923e-002
6.344756e+002,1.702707e-002
6.364042e+002,1.672641e-002
6.383326e+002,1.601134e-002
6.402612e+002,1.556544e-002
6.421896e+002,1.600704e-002
6.441182e+002,1.594145e-002
6.460466e+002,1.521778e-002
6.479752e+002,1.473132e-002
6.499036e+002,1.416057e-002
6.518322e+002,1.356530e-002
6.537606e+002,1.341803e-002
6.556891e+002,1.378001e-002
6.576177e+002,1.411700e-002
6.595461e+002,1.375405e-002
6.614746e+002,1.279310e-002
6.634031e+002,1.210579e-002
6.653317e+002,1.219203e-002
6.672601e+002,1.355584e-002
6.691886e+002,1.347462e-002
6.711171e+002,1.342418e-002
6.730457e+002,1.373302e-002
6.749741e+002,1.360028e-002
6.769026e+002,1.340794e-002
6.788311e+002,1.339291e-002
6.807596e+002,1.389258e-002
6.826881e+002,1.443164e-002
6.846166e+002,1.439735e-002
6.865451e+002,1.434776e-002
6.884736e+002,1.444921e-002
6.904021e+002,1.487284e-002
6.923306e+002,1.511584e-002
6.942591e+002,1.533557e-002
6.961876e+002,1.535517e-002
6.981161e+002,1.541339e-002
7.000446e+002,1.536770e-002
7.019731e+002,1.504823e-002
7.039016e+002,1.503211e-002
7.058301e+002,1.520478e-002
7.077585e+002,1.526243e-002
7.096871e+002,1.549294e-002
7.116156e+002,1.571259e-002
7.135441e+002,1.581580e-002
7.154725e+002,1.600560e-002
7.174011e+002,1.637934e-002
7.193296e+002,1.681853e-002
7.212581e+002,1.759956e-002
7.231865e+002,1.814970e-002
7.251151e+002,1.825747e-002
7.270436e+002,1.844440e-002
7.289720e+002,1.833409e-002
7.309005e+002,1.847205e-002
7.328290e+002,1.895999e-002
7.347576e+002,1.933459e-002
7.366860e+002,1.956284e-002
7.386145e+002,1.959945e-002
7.405430e+002,2.010548e-002
7.424716e+002,2.046909e-002
7.444000e+002,2.007595e-002
7.463285e+002,1.986009e-002
7.482570e+002,1.986543e-002
7.501855e+002,1.960423e-002
7.521140e+002,2.027199e-002
7.540425e+002,2.051747e-002
7.559710e+002,2.047670e-002
7.578995e+002,2.089725e-002
7.598280e+002,2.106124e-002
7.617565e+002,2.112305e-002
7.636850e+002,2.125265e-002
7.656135e+002,2.147975e-002
7.675420e+002,2.167109e-002
7.694705e+002,2.145715e-002
7.713990e+002,2.108180e-002
7.733275e+002,2.072727e-002
7.752560e+002,2.067677e-002
7.771844e+002,2.054995e-002
7.791130e+002,1.997023e-002
7.810415e+002,1.967276e-002
7.829700e+002,1.951065e-002
7.848984e+002,1.917963e-002
7.868270e+002,1.900371e-002
7.887555e+002,1.894545e-002
7.906840e+002,1.882952e-002
7.926124e+002,1.846991e-002
7.945410e+002,1.801737e-002
7.964695e+002,1.756234e-002
7.983979e+002,1.745808e-002
8.003264e+002,1.750462e-002
8.022549e+002,1.782083e-002
8.041835e+002,1.797310e-002
8.061119e+002,1.777882e-002
8.080404e+002,1.782283e-002
8.099689e+002,1.847433e-002
8.118975e+002,1.855314e-002
8.138259e+002,1.846645e-002
8.157545e+002,1.842638e-002
8.176830e+002,1.869760e-002
8.196115e+002,1.863721e-002
8.215399e+002,1.822268e-002
8.234684e+002,1.843361e-002
8.253970e+002,1.910165e-002
8.273254e+002,1.948160e-002
8.292539e+002,1.910328e-002
8.311824e+002,1.879063e-002
8.331110e+002,1.909680e-002
8.350394e+002,1.901735e-002
8.369679e+002,1.914147e-002
8.388964e+002,1.920314e-002
8.408250e+002,1.914431e-002
8.427534e+002,1.904438e-002
8.446819e+002,1.876942e-002
8.466104e+002,1.872510e-002
8.485389e+002,1.869079e-002
8.504674e+002,1.863866e-002
8.523959e+002,1.888195e-002
8.543244e+002,1.911204e-002
8.562529e+002,1.889212e-002
8.581814e+002,1.903936e-002
8.601099e+002,1.934110e-002
8.620384e+002,1.903057e-002
8.639669e+002,1.904802e-002
8.658954e+002,1.912488e-002
8.678239e+002,1.861687e-002
8.697524e+002,1.857942e-002
8.716809e+002,1.873801e-002
8.736094e+002,1.881336e-002
8.755378e+002,1.891745e-002
8.774664e+002,1.907817e-002
8.793949e+002,1.910411e-002
8.813234e+002,1.907890e-002
8.832518e+002,1.926788e-002
8.851804e+002,1.912883e-002
8.871089e+002,1.870798e-002
8.890374e+002,1.848785e-002
8.909658e+002,1.887648e-002
8.928943e+002,1.921291e-002
8.948229e+002,1.900136e-002
8.967513e+002,1.892846e-002
8.986798e+002,1.908531e-002
9.006083e+002,1.893292e-002
9.025369e+002,1.900741e-002
9.044653e+002,1.931575e-002
9.063938e+002,1.897221e-002
9.083223e+002,1.848799e-002
9.102509e+002,1.830834e-002
9.121793e+002,1.834208e-002
9.141078e+002,1.814811e-002
9.160364e+002,1.790403e-002
9.179648e+002,1.773104e-002
9.198933e+002,1.755437e-002
9.218218e+002,1.749931e-002
9.237504e+002,1.708244e-002
9.256788e+002,1.673877e-002
9.276073e+002,1.661826e-002
9.295358e+002,1.641557e-002
9.314644e+002,1.604042e-002
9.333928e+002,1.595867e-002
9.353213e+002,1.594901e-002
9.372498e+002,1.594877e-002
9.391783e+002,1.570194e-002
9.411068e+002,1.569641e-002
9.430353e+002,1.575227e-002
9.449637e+002,1.551035e-002
9.468923e+002,1.561960e-002
9.488208e+002,1.565072e-002
9.507493e+002,1.572437e-002
9.526777e+002,1.578110e-002
9.546063e+002,1.575931e-002
9.565348e+002,1.576945e-002
9.584633e+002,1.563688e-002
9.603917e+002,1.562935e-002
9.623203e+002,1.569328e-002
9.642488e+002,1.581267e-002
9.661772e+002,1.572877e-002
9.681057e+002,1.553130e-002
9.700343e+002,1.543039e-002
9.719628e+002,1.539053e-002
9.738912e+002,1.518086e-002
9.758197e+002,1.481857e-002
9.777483e+002,1.447672e-002
9.796768e+002,1.441006e-002
9.816052e+002,1.420203e-002
9.835337e+002,1.396364e-002
9.854623e+002,1.383378e-002
9.873907e+002,1.369588e-002
9.893192e+002,1.358147e-002
9.912477e+002,1.335703e-002
9.931763e+002,1.318222e-002
9.951047e+002,1.292610e-002
9.970332e+002,1.250303e-002
9.989617e+002,1.237005e-002
1.000890e+003,1.244929e-002
1.002819e+003,1.261988e-002
1.004747e+003,1.266429e-002
1.006676e+003,1.259931e-002
1.008604e+003,1.271110e-002
1.010533e+003,1.302466e-002
1.012461e+003,1.319045e-002
1.014390e+003,1.323783e-002
1.016318e+003,1.331483e-002
1.018247e+003,1.334094e-002
1.020175e+003,1.343815e-002
1.022104e+003,1.365929e-002
1.024032e+003,1.387264e-002
1.025961e+003,1.415629e-002
1.027889e+003,1.439108e-002
1.029818e+003,1.457662e-002
1.031746e+003,1.484483e-002
1.033675e+003,1.530413e-002
1.035603e+003,1.551475e-002
1.037532e+003,1.561074e-002
1.039460e+003,1.594846e-002
1.041389e+003,1.594358e-002
1.043317e+003,1.607092e-002
1.045246e+003,1.646647e-002
1.047174e+003,1.656814e-002
1.049103e+003,1.640429e-002
1.051031e+003,1.614746e-002
1.052960e+003,1.616022e-002
1.054888e+003,1.618240e-002
1.056817e+003,1.610943e-002
1.058745e+003,1.621105e-002
1.060674e+003,1.645525e-002
1.062602e+003,1.636954e-002
1.064531e+003,1.616834e-002
1.066459e+003,1.600927e-002
1.068388e+003,1.602320e-002
1.070316e+003,1.619571e-002
1.072245e+003,1.637638e-002
1.074173e+003,1.626915e-002
1.076102e+003,1.602571e-002
1.078030e+003,1.603124e-002
1.079959e+003,1.589124e-002
1.081887e+003,1.589673e-002
1.083816e+003,1.621570e-002
1.085744e+003,1.631301e-002
1.087673e+003,1.632133e-002
1.089601e+003,1.634287e-002
1.091530e+003,1.651376e-002
1.093458e+003,1.666602e-002
1.095387e+003,1.675826e-002
1.097315e+003,1.694478e-002
1.099244e+003,1.713600e-002
1.101172e+003,1.709647e-002
1.103101e+003,1.689983e-002
1.105029e+003,1.700112e-002
1.106958e+003,1.730182e-002
1.108886e+003,1.749848e-002
1.110815e+003,1.750824e-002
1.112743e+003,1.731593e-002
1.114672e+003,1.726541e-002
1.116600e+003,1.763052e-002
1.118529e+003,1.790607e-002
1.120457e+003,1.781285e-002
1.122386e+003,1.781385e-002
1.124314e+003,1.774896e-002
1.126243e+003,1.747809e-002
1.128171e+003,1.714235e-002
1.130100e+003,1.718378e-002
1.132028e+003,1.730800e-002
1.133957e+003,1.717023e-002
1.135885e+003,1.684037e-002
1.137814e+003,1.632178e-002
1.139742e+003,1.569833e-002
1.141671e+003,1.555098e-002
1.143599e+003,1.540440e-002
1.145528e+003,1.498001e-002
1.147456e+003,1.459242e-002
1.149385e+003,1.432639e-002
1.151313e+003,1.398294e-002
1.153242e+003,1.374529e-002
1.155170e+003,1.370686e-002
1.157099e+003,1.362971e-002
1.159027e+003,1.352288e-002
1.160956e+003,1.335139e-002
1.162884e+003,1.321098e-002
1.164813e+003,1.307625e-002
1.166741e+003,1.309117e-002
1.168670e+003,1.319001e-002
1.170598e+003,1.325231e-002
1.172526e+003,1.325976e-002
1.174455e+003,1.313448e-002
1.176384e+003,1.323387e-002
1.178312e+003,1.325067e-002
1.180240e+003,1.300168e-002
1.182169e+003,1.288193e-002
1.184098e+003,1.278224e-002
1.186026e+003,1.264434e-002
1.187954e+003,1.266150e-002
1.189883e+003,1.256299e-002
1.191812e+003,1.245219e-002
1.193740e+003,1.242767e-002
1.195668e+003,1.219527e-002
1.197597e+003,1.189389e-002
1.199526e+003,1.170694e-002
1.201454e+003,1.164523e-002
1.203382e+003,1.172825e-002
1.205311e+003,1.168362e-002
1.207240e+003,1.172127e-002
1.209168e+003,1.169172e-002
1.211096e+003,1.165279e-002
1.213025e+003,1.178003e-002
1.214953e+003,1.175596e-002
1.216882e+003,1.150238e-002
1.218810e+003,1.137617e-002
1.220739e+003,1.136882e-002
1.222667e+003,1.161657e-002
1.224596e+003,1.171055e-002
1.226524e+003,1.169458e-002
1.228453e+003,1.173894e-002
1.230381e+003,1.169741e-002
1.232310e+003,1.174346e-002
1.234238e+003,1.181976e-002
1.236167e+003,1.190005e-002
1.238095e+003,1.204549e-002
1.240024e+003,1.217401e-002
1.241952e+003,1.219343e-002
1.243881e+003,1.199736e-002
1.245809e+003,1.198605e-002
1.247738e+003,1.212865e-002
1.249666e+003,1.219946e-002
1.251595e+003,1.202120e-002
1.253523e+003,1.182150e-002
1.255452e+003,1.180730e-002
1.257380e+003,1.165142e-002
1.259309e+003,1.155923e-002
1.261237e+003,1.162056e-002
1.263166e+003,1.184254e-002
1.265094e+003,1.190104e-002
1.267023e+003,1.198898e-002
1.268951e+003,1.217792e-002
1.270880e+003,1.219380e-002
1.272808e+003,1.214933e-002
1.274737e+003,1.224560e-002
1.276665e+003,1.224659e-002
1.278594e+003,1.220106e-002
1.280522e+003,1.217346e-002
1.282451e+003,1.202216e-002
1.284379e+003,1.197787e-002
1.286308e+003,1.193789e-002
1.288236e+003,1.205203e-002
1.290165e+003,1.207816e-002
1.292093e+003,1.193350e-002
1.294022e+003,1.200809e-002
1.295950e+003,1.228947e-002
1.297879e+003,1.241400e-002
1.299807e+003,1.213475e-002
1.301736e+003,1.192413e-002
1.303664e+003,1.178765e-002
1.305593e+003,1.158697e-002
1.307521e+003,1.151918e-002
1.309450e+003,1.143753e-002
1.311378e+003,1.123153e-002
1.313307e+003,1.102196e-002
1.315235e+003,1.097367e-002
1.317164e+003,1.117506e-002
1.319092e+003,1.109466e-002
1.321021e+003,1.083399e-002
1.322949e+003,1.074761e-002
1.324878e+003,1.084113e-002
1.326806e+003,1.102237e-002
1.328735e+003,1.115830e-002
1.330663e+003,1.130461e-002
1.332592e+003,1.145492e-002
1.334520e+003,1.135335e-002
1.336449e+003,1.123758e-002
1.338377e+003,1.139171e-002
1.340306e+003,1.135794e-002
1.342234e+003,1.127921e-002
1.344163e+003,1.129767e-002
1.346091e+003,1.121038e-002
1.348020e+003,1.121793e-002
1.349948e+003,1.124568e-002
1.351877e+003,1.122317e-002
1.353805e+003,1.130566e-002
1.355734e+003,1.137831e-002
1.357662e+003,1.134886e-002
1.359591e+003,1.143161e-002
1.361519e+003,1.147033e-002
1.363448e+003,1.129274e-002
1.365376e+003,1.091179e-002
1.367305e+003,1.061931e-002
1.369233e+003,1.042690e-002
1.371162e+003,1.039772e-002
1.373090e+003,1.047602e-002
1.375019e+003,1.035058e-002
1.376947e+003,1.012176e-002
1.378876e+003,1.006882e-002
1.380804e+003,9.988462e-003
1.382733e+003,1.000762e-002
1.384661e+003,1.010728e-002
1.386590e+003,1.013401e-002
1.388518e+003,9.976460e-003
1.390447e+003,9.758987e-003
1.392375e+003,9.764815e-003
1.394304e+003,9.970866e-003
1.396232e+003,9.745703e-003
1.398161e+003,9.614177e-003
1.400089e+003,9.498676e-003
1.402018e+003,9.353650e-003
1.403946e+003,9.273555e-003
1.405875e+003,9.107895e-003
1.407803e+003,8.881556e-003
1.409732e+003,8.838473e-003
1.411660e+003,8.968038e-003
1.413589e+003,9.068681e-003
1.415517e+003,9.328259e-003
1.417446e+003,9.807380e-003
1.419374e+003,1.015052e-002
1.421303e+003,9.957474e-003
1.423231e+003,1.012024e-002
1.425160e+003,1.049187e-002
1.427088e+003,1.072774e-002
1.429017e+003,1.108324e-002
1.430945e+003,1.151347e-002
1.432874e+003,1.196193e-002
1.434802e+003,1.266064e-002
1.436731e+003,1.335949e-002
1.438659e+003,1.329683e-002
1.440588e+003,1.342182e-002
1.442516e+003,1.376318e-002
1.444445e+003,1.407562e-002
1.446373e+003,1.447418e-002
1.448302e+003,1.476056e-002
1.450230e+003,1.485566e-002
1.452159e+003,1.498241e-002
1.454087e+003,1.539262e-002
1.456016e+003,1.636087e-002
1.457944e+003,1.627021e-002
1.459873e+003,1.516254e-002
1.461801e+003,1.459729e-002
1.463730e+003,1.457436e-002
1.465658e+003,1.433930e-002
1.467587e+003,1.363891e-002
1.469515e+003,1.323667e-002
1.471444e+003,1.342073e-002
1.473372e+003,1.324617e-002
1.475301e+003,1.249986e-002
1.477229e+003,1.174020e-002
1.479158e+003,1.109860e-002
1.481086e+003,1.073308e-002
1.483015e+003,1.031024e-002
1.484943e+003,1.000023e-002
1.486872e+003,1.008537e-002
1.488800e+003,1.016799e-002
1.490729e+003,1.004112e-002
1.492657e+003,9.608283e-003
1.494586e+003,9.426716e-003
1.496514e+003,9.466234e-003
1.498443e+003,9.267496e-003
1.500371e+003,8.994356e-003
1.502300e+003,8.925522e-003
1.504228e+003,9.511884e-003
1.506157e+003,1.046288e-002
1.508085e+003,1.002874e-002
1.510014e+003,9.255853e-003
1.511942e+003,9.002812e-003
1.513871e+003,8.975345e-003
1.515799e+003,9.296303e-003
1.517728e+003,9.350603e-003
1.519656e+003,9.416320e-003
1.521585e+003,9.672685e-003
1.523513e+003,9.295185e-003
1.525442e+003,9.314244e-003
1.527370e+003,9.170936e-003
1.529299e+003,8.960664e-003
1.531227e+003,9.023279e-003
1.533156e+003,9.427223e-003
1.535084e+003,9.177671e-003
1.537013e+003,9.260151e-003
1.538941e+003,1.016267e-002
1.540870e+003,1.033660e-002
1.542798e+003,9.820089e-003
1.544727e+003,9.271422e-003
1.546655e+003,8.676358e-003
1.548584e+003,8.602236e-003
1.550512e+003,8.639414e-003
1.552441e+003,8.649622e-003
1.554369e+003,8.838777e-003
1.556298e+003,9.131107e-003
1.558226e+003,1.012858e-002
1.560155e+003,9.868625e-003
1.562083e+003,8.843613e-003
1.564012e+003,8.792892e-003
1.565940e+003,8.825387e-003
1.567869e+003,9.047400e-003
1.569797e+003,9.437755e-003
1.571726e+003,9.139364e-003
1.573654e+003,9.228538e-003
1.575583e+003,9.882759e-003
1.577511e+003,9.729133e-003
1.579440e+003,9.346675e-003
1.581368e+003,9.345592e-003
1.583297e+003,9.305679e-003
1.585225e+003,9.523502e-003
1.587154e+003,9.607572e-003
1.589082e+003,9.561097e-003
1.591010e+003,9.479238e-003
1.592939e+003,9.502606e-003
1.594868e+003,9.666959e-003
1.596796e+003,9.740485e-003
1.598724e+003,9.750820e-003
1.600653e+003,9.781894e-003
1.602582e+003,9.877235e-003
1.604510e+003,9.767085e-003
1.606438e+003,9.681731e-003
1.608367e+003,9.743670e-003
1.610296e+003,9.603439e-003
1.612224e+003,9.375419e-003
1.614152e+003,9.523705e-003
1.616081e+003,1.001518e-002
1.618010e+003,9.777456e-003
1.619938e+003,9.278395e-003
1.621866e+003,9.353176e-003
1.623795e+003,9.229621e-003
1.625724e+003,8.955557e-003
1.627652e+003,8.883484e-003
1.629580e+003,8.626739e-003
1.631509e+003,8.378727e-003
1.633438e+003,8.792859e-003
1.635366e+003,9.374132e-003
1.637294e+003,8.997028e-003
1.639223e+003,8.417339e-003
1.641151e+003,8.040895e-003
1.643080e+003,7.851783e-003
1.645008e+003,8.246095e-003
1.646937e+003,8.491836e-003
1.648865e+003,7.869259e-003
1.650794e+003,8.112120e-003
1.652722e+003,9.294914e-003
1.654651e+003,8.396495e-003
1.656579e+003,7.452367e-003
1.658508e+003,7.325275e-003
1.660436e+003,7.393754e-003
1.662365e+003,7.674085e-003
1.664293e+003,7.640935e-003
1.666222e+003,7.644576e-003
1.668150e+003,8.231676e-003
1.670079e+003,8.612240e-003
1.672007e+003,8.363831e-003
1.673936e+003,8.545461e-003
1.675864e+003,8.605616e-003
1.677793e+003,8.133423e-003
1.679721e+003,8.243461e-003
1.681650e+003,8.582499e-003
1.683578e+003,9.354699e-003
1.685507e+003,9.056433e-003
1.687435e+003,8.406326e-003
1.689364e+003,8.262609e-003
1.691292e+003,8.158372e-003
1.693221e+003,8.334208e-003
1.695149e+003,8.987184e-003
1.697078e+003,9.042325e-003
1.699006e+003,9.417268e-003
1.700935e+003,9.657778e-003
1.702863e+003,8.889571e-003
1.704792e+003,8.913177e-003
1.706720e+003,8.853926e-003
1.708649e+003,8.675311e-003
1.710577e+003,8.592807e-003
1.712506e+003,8.706680e-003
1.714434e+003,9.094766e-003
1.716363e+003,9.625628e-003
1.718291e+003,9.603540e-003
1.720220e+003,9.129653e-003
1.722148e+003,8.959109e-003
1.724077e+003,8.847265e-003
1.726005e+003,8.837594e-003
1.727934e+003,8.986914e-003
1.729862e+003,9.089827e-003
1.731791e+003,9.511343e-003
1.733719e+003,1.003152e-002
1.735648e+003,9.535931e-003
1.737576e+003,9.224781e-003
1.739505e+003,9.437484e-003
1.741433e+003,9.274029e-003
1.743362e+003,9.260422e-003
1.745290e+003,9.347387e-003
1.747219e+003,9.515983e-003
1.749147e+003,9.698164e-003
1.751076e+003,9.822902e-003
1.753004e+003,9.478594e-003
1.754933e+003,9.403860e-003
1.756861e+003,9.607741e-003
1.758790e+003,9.519945e-003
1.760718e+003,9.603947e-003
1.762647e+003,9.560962e-003
1.764575e+003,9.266785e-003
1.766504e+003,9.357035e-003
1.768432e+003,9.579320e-003
1.770361e+003,9.748041e-003
1.772289e+003,9.984936e-003
1.774218e+003,9.751802e-003
1.776146e+003,9.417065e-003
1.778075e+003,9.274605e-003
1.780003e+003,9.310994e-003
1.781932e+003,9.260252e-003
1.783860e+003,9.230907e-003
1.785789e+003,9.212022e-003
1.787717e+003,9.270374e-003
1.789646e+003,9.537930e-003
1.791574e+003,9.844390e-003
1.793503e+003,9.745499e-003
1.795431e+003,9.533493e-003
1.797360e+003,9.504738e-003
1.799288e+003,9.531122e-003
1.801217e+003,9.501962e-003
1.803145e+003,9.330764e-003
1.805074e+003,9.338720e-003
1.807002e+003,9.417776e-003
1.808931e+003,9.479407e-003
1.810859e+003,9.515373e-003
1.812788e+003,9.497085e-003
1.814716e+003,9.429662e-003
1.816645e+003,9.396377e-003
1.818573e+003,9.436163e-003
1.820502e+003,9.498711e-003
1.822430e+003,9.514323e-003
1.824359e+003,9.653306e-003
1.826287e+003,9.646903e-003
1.828216e+003,9.684543e-003
1.830144e+003,9.815107e-003
1.832073e+003,9.551173e-003
1.834001e+003,9.486823e-003
1.835930e+003,9.551173e-003
1.837858e+003,9.466877e-003
1.839787e+003,9.355308e-003
1.841715e+003,9.431998e-003
1.843644e+003,9.818734e-003
1.845572e+003,9.647072e-003
1.847501e+003,9.347928e-003
1.849429e+003,9.357069e-003
1.851358e+003,9.427494e-003
1.853286e+003,9.470703e-003
1.855215e+003,9.491158e-003
1.857143e+003,9.522147e-003
1.859072e+003,9.474699e-003
1.861000e+003,9.412359e-003
1.862929e+003,9.322843e-003
1.864857e+003,9.451672e-003
1.866786e+003,9.659404e-003
1.868714e+003,9.733911e-003
1.870643e+003,9.459528e-003
1.872571e+003,9.264992e-003
1.874500e+003,9.326736e-003
1.876428e+003,9.437755e-003
1.878357e+003,9.515475e-003
1.880285e+003,9.500607e-003
1.882214e+003,9.434368e-003
1.884142e+003,9.407450e-003
1.886071e+003,9.418995e-003
1.887999e+003,9.473548e-003
1.889928e+003,9.506466e-003
1.891856e+003,9.375047e-003
1.893785e+003,9.382055e-003
1.895713e+003,9.420079e-003
1.897642e+003,9.389537e-003
1.899570e+003,9.472329e-003
1.901499e+003,9.503790e-003
1.903427e+003,9.441649e-003
1.905356e+003,9.472464e-003
1.907284e+003,9.415542e-003
1.909213e+003,9.398205e-003
1.911141e+003,9.401355e-003
1.913070e+003,9.363434e-003
1.914998e+003,9.494680e-003
1.916927e+003,9.670754e-003
1.918855e+003,9.693691e-003
1.920784e+003,9.537727e-003
1.922712e+003,9.443816e-003
1.924641e+003,9.382970e-003
1.926569e+003,9.423431e-003
1.928498e+003,9.343967e-003
1.930426e+003,9.310419e-003
1.932355e+003,9.232092e-003
1.934283e+003,9.191276e-003
1.936212e+003,9.311603e-003
1.938140e+003,9.325855e-003
1.940069e+003,9.331339e-003
1.941997e+003,9.514729e-003
1.943926e+003,9.544297e-003
1.945854e+003,9.366447e-003
1.947783e+003,9.271592e-003
1.949711e+003,9.228166e-003
1.951640e+003,9.190091e-003
1.953568e+003,9.235781e-003
1.955497e+003,9.254904e-003
1.957425e+003,9.224646e-003
1.959354e+003,9.344509e-003
1.961282e+003,9.418894e-003
1.963211e+003,9.427223e-003
1.965139e+003,9.376333e-003
1.967068e+003,9.244141e-003
1.968996e+003,9.066380e-003
1.970925e+003,9.115576e-003
1.972853e+003,9.205963e-003
1.974782e+003,9.208536e-003
1.976710e+003,9.163559e-003
1.978639e+003,9.186165e-003
1.980567e+003,9.207892e-003
1.982496e+003,9.123020e-003
1.984424e+003,9.055757e-003
1.986353e+003,9.160886e-003
1.988281e+003,9.165962e-003
1.990210e+003,9.083466e-003
1.992138e+003,9.200481e-003
1.994067e+003,9.195810e-003
1.995995e+003,9.066516e-003
1.997924e+003,9.029233e-003
1.999852e+003,9.123121e-003
2.001781e+003,9.123730e-003
2.003709e+003,9.098895e-003
2.005638e+003,9.078830e-003
2.007566e+003,9.125355e-003
2.009495e+003,9.138653e-003
2.011423e+003,9.120923e-003
2.013352e+003,9.146030e-003
2.015280e+003,9.106982e-003
2.017208e+003,9.103733e-003
2.019137e+003,9.157366e-003
2.021066e+003,9.159870e-003
2.022994e+003,9.068443e-003
2.024922e+003,9.022467e-003
2.026851e+003,9.038198e-003
2.028780e+003,9.095917e-003
2.030708e+003,9.160784e-003
2.032636e+003,9.245901e-003
2.034565e+003,9.179736e-003
2.036494e+003,9.037386e-003
2.038422e+003,9.017223e-003
2.040350e+003,9.018036e-003
2.042279e+003,9.017054e-003
2.044208e+003,9.020979e-003
2.046136e+003,9.017122e-003
2.048064e+003,9.056603e-003
2.049993e+003,9.045438e-003
2.051921e+003,8.927856e-003
2.053850e+003,8.938205e-003
2.055778e+003,8.965062e-003
2.057707e+003,9.034646e-003
2.059635e+003,9.077206e-003
2.061564e+003,8.987117e-003
2.063492e+003,8.850105e-003
2.065421e+003,8.826942e-003
2.067349e+003,8.970575e-003
2.069278e+003,8.990060e-003
2.071206e+003,8.964825e-003
2.073135e+003,8.973924e-003
2.075063e+003,9.039686e-003
2.076992e+003,9.105289e-003
2.078920e+003,9.024429e-003
2.080849e+003,8.975176e-003
2.082777e+003,8.990871e-003
2.084706e+003,8.978626e-003
2.086634e+003,8.841448e-003
2.088563e+003,8.809528e-003
2.090491e+003,8.865830e-003
2.092420e+003,8.917709e-003
2.094348e+003,8.997028e-003
2.096277e+003,8.938442e-003
2.098205e+003,8.879865e-003
2.100134e+003,8.832623e-003
2.102062e+003,8.843951e-003
2.103991e+003,8.852304e-003
2.105919e+003,8.887914e-003
2.107848e+003,9.004842e-003
2.109776e+003,8.996352e-003
2.111705e+003,8.883111e-003
2.113633e+003,8.884058e-003
2.115562e+003,8.948116e-003
2.117490e+003,8.903098e-003
2.119419e+003,8.862516e-003
2.121347e+003,8.839893e-003
2.123276e+003,8.835903e-003
2.125204e+003,8.925015e-003
2.127133e+003,8.984816e-003
2.129061e+003,9.022805e-003
2.130990e+003,9.001357e-003
2.132918e+003,8.902152e-003
2.134847e+003,8.847806e-003
2.136775e+003,8.900596e-003
2.138704e+003,8.941858e-003
2.140632e+003,8.929615e-003
2.142561e+003,8.903809e-003
2.144489e+003,8.797491e-003
2.146418e+003,8.740251e-003
2.148346e+003,8.758372e-003
2.150275e+003,8.814702e-003
2.152203e+003,8.902760e-003
2.154132e+003,8.948995e-003
2.156060e+003,8.958669e-003
2.157989e+003,8.902625e-003
2.159917e+003,8.865796e-003
2.161846e+003,8.820551e-003
2.163774e+003,8.850748e-003
2.165703e+003,8.867825e-003
2.167631e+003,8.905737e-003
2.169560e+003,8.983395e-003
2.171488e+003,8.940133e-003
2.173417e+003,8.915443e-003
2.175345e+003,8.952006e-003
2.177274e+003,8.989315e-003
2.179202e+003,9.000986e-003
2.181131e+003,8.989620e-003
2.183059e+003,8.933977e-003
2.184988e+003,8.915206e-003
2.186916e+003,8.945274e-003
2.188845e+003,8.935162e-003
2.190773e+003,8.872594e-003
2.192702e+003,8.850343e-003
2.194630e+003,8.846352e-003
2.196559e+003,8.878275e-003
2.198487e+003,8.909524e-003
2.200416e+003,8.807262e-003
2.202344e+003,8.804017e-003
2.204273e+003,8.841922e-003
2.206201e+003,8.789173e-003
2.208130e+003,8.828836e-003
2.210058e+003,8.779977e-003
2.211987e+003,8.748906e-003
2.213915e+003,8.750562e-003
2.215844e+003,8.823865e-003
2.217772e+003,8.856733e-003
2.219701e+003,8.869922e-003
2.221629e+003,8.858492e-003
2.223558e+003,8.870869e-003
2.225486e+003,8.888557e-003
2.227415e+003,8.773958e-003
2.229343e+003,8.765168e-003
2.231272e+003,8.880339e-003
2.233200e+003,8.939965e-003
2.235129e+003,8.939322e-003
2.237057e+003,8.971523e-003
2.238986e+003,8.944125e-003
2.240914e+003,8.879087e-003
2.242843e+003,8.939998e-003
2.244771e+003,8.980893e-003
2.246700e+003,8.931272e-003
2.248628e+003,8.935973e-003
2.250557e+003,8.829613e-003
2.252485e+003,8.782343e-003
2.254414e+003,8.827550e-003
2.256342e+003,8.864883e-003
2.258271e+003,8.882063e-003
2.260199e+003,8.885242e-003
2.262128e+003,8.980453e-003
2.264056e+003,8.967903e-003
2.265985e+003,8.887948e-003
2.267913e+003,8.896639e-003
2.269842e+003,8.951397e-003
2.271770e+003,8.889198e-003
2.273699e+003,8.817677e-003
2.275627e+003,8.848888e-003
2.277556e+003,8.882638e-003
2.279484e+003,8.914868e-003
2.281413e+003,8.935162e-003
2.283341e+003,8.890788e-003
2.285270e+003,8.844019e-003
2.287198e+003,8.866169e-003
2.289127e+003,8.918013e-003
2.291055e+003,8.881218e-003
2.292984e+003,8.818421e-003
2.294912e+003,8.761719e-003
2.296841e+003,8.767196e-003
2.298769e+003,8.924474e-003
2.300698e+003,9.032413e-003
2.302626e+003,9.018137e-003
2.304555e+003,8.936413e-003
2.306483e+003,8.954373e-003
2.308412e+003,8.956572e-003
2.310340e+003,8.949840e-003
2.312269e+003,9.102210e-003
2.314197e+003,9.243058e-003
2.316125e+003,9.377248e-003
2.318054e+003,9.472600e-003
2.319983e+003,9.571462e-003
2.321911e+003,9.701755e-003
2.323840e+003,9.859473e-003
2.325768e+003,9.894759e-003
2.327697e+003,9.981172e-003
2.329625e+003,1.020167e-002
2.331553e+003,1.022064e-002
2.333482e+003,1.017952e-002
2.335411e+003,1.015147e-002
2.337339e+003,1.014706e-002
2.339268e+003,1.010518e-002
2.341196e+003,9.973138e-003
2.343125e+003,9.927302e-003
2.345053e+003,9.684543e-003
2.346981e+003,9.373658e-003
2.348910e+003,9.235612e-003
2.350839e+003,9.371323e-003
2.352767e+003,9.806905e-003
2.354696e+003,1.021870e-002
2.356624e+003,1.043098e-002
2.358552e+003,1.043861e-002
2.360481e+003,1.033592e-002
2.362409e+003,1.029002e-002
2.364338e+003,1.039079e-002
2.366267e+003,1.033633e-002
2.368195e+003,1.013072e-002
2.370124e+003,9.942930e-003
2.372052e+003,9.685085e-003
2.373980e+003,9.470467e-003
2.375909e+003,9.259914e-003
2.377838e+003,9.009510e-003
2.379766e+003,8.750765e-003
2.381695e+003,8.681598e-003
2.383623e+003,8.737918e-003
2.385552e+003,8.683390e-003
2.387480e+003,8.583918e-003
2.389408e+003,8.633364e-003
2.391337e+003,8.597674e-003
2.393266e+003,8.481091e-003
2.395194e+003,8.523260e-003
2.397123e+003,8.561682e-003
2.399051e+003,8.579897e-003
2.400979e+003,8.581857e-003
2.402908e+003,8.486497e-003
2.404836e+003,8.464536e-003
2.406765e+003,8.452576e-003
2.408694e+003,8.435650e-003
2.410622e+003,8.454265e-003
2.412551e+003,8.476192e-003
2.414479e+003,8.532215e-003
2.416407e+003,8.550091e-003
2.418336e+003,8.532045e-003
2.420264e+003,8.469773e-003
2.422193e+003,8.453724e-003
2.424122e+003,8.483524e-003
2.426050e+003,8.562763e-003
2.427979e+003,8.547455e-003
2.429907e+003,8.494606e-003
2.431835e+003,8.545833e-003
2.433764e+003,8.613152e-003
2.435692e+003,8.577700e-003
2.437621e+003,8.563203e-003
2.439550e+003,8.487240e-003
2.441478e+003,8.539007e-003
2.443406e+003,8.615079e-003
2.445335e+003,8.602236e-003
2.447263e+003,8.572969e-003
2.449192e+003,8.536844e-003
2.451121e+003,8.450413e-003
2.453049e+003,8.465177e-003
2.454978e+003,8.568339e-003
2.456906e+003,8.582465e-003
2.458834e+003,8.538804e-003
2.460763e+003,8.545664e-003
2.462691e+003,8.497377e-003
2.464620e+003,8.444738e-003
2.466549e+003,8.492579e-003
2.468477e+003,8.572767e-003
2.470406e+003,8.524950e-003
2.472334e+003,8.463961e-003
2.474262e+003,8.491329e-003
2.476191e+003,8.513089e-003
2.478119e+003,8.521233e-003
2.480048e+003,8.426663e-003
2.481977e+003,8.441292e-003
2.483905e+003,8.504135e-003
2.485833e+003,8.476159e-003
2.487762e+003,8.485991e-003
2.489690e+003,8.462711e-003
2.491619e+003,8.480686e-003
2.493547e+003,8.488220e-003
2.495476e+003,8.467070e-003
2.497405e+003,8.521570e-003
2.499333e+003,8.508088e-003
2.501261e+003,8.417913e-003
2.503190e+003,8.432913e-003
2.505118e+003,8.489471e-003
2.507047e+003,8.466597e-003
2.508975e+003,8.420650e-003
2.510904e+003,8.427542e-003
2.512833e+003,8.486937e-003
2.514761e+003,8.464299e-003
2.516689e+003,8.446798e-003
2.518618e+003,8.520793e-003
2.520546e+003,8.619304e-003
2.522475e+003,8.557525e-003
2.524403e+003,8.451968e-003
2.526332e+003,8.483321e-003
2.528260e+003,8.558201e-003
2.530189e+003,8.572124e-003
2.532117e+003,8.482612e-003
2.534046e+003,8.351468e-003
2.535974e+003,8.379369e-003
2.537903e+003,8.441764e-003
2.539831e+003,8.560128e-003
2.541760e+003,8.588076e-003
2.543688e+003,8.624441e-003
2.545617e+003,8.624982e-003
2.547545e+003,8.637859e-003
2.549474e+003,8.676833e-003
2.551402e+003,8.574693e-003
2.553331e+003,8.447406e-003
2.555259e+003,8.422473e-003
2.557188e+003,8.507784e-003
2.559116e+003,8.508020e-003
2.561045e+003,8.510217e-003
2.562973e+003,8.509169e-003
2.564902e+003,8.557052e-003
2.566830e+003,8.584628e-003
2.568759e+003,8.530458e-003
2.570687e+003,8.591354e-003
2.572616e+003,8.643166e-003
2.574544e+003,8.601019e-003
2.576473e+003,8.483625e-003
2.578401e+003,8.496431e-003
2.580330e+003,8.506500e-003
2.582258e+003,8.502986e-003
2.584187e+003,8.562797e-003
2.586115e+003,8.536337e-003
2.588044e+003,8.477239e-003
2.589972e+003,8.492241e-003
2.591901e+003,8.598586e-003
2.593829e+003,8.620555e-003
2.595758e+003,8.502209e-003
2.597686e+003,8.408792e-003
2.599615e+003,8.419602e-003
2.601543e+003,8.493593e-003
2.603472e+003,8.527855e-003
2.605400e+003,8.606021e-003
2.607329e+003,8.685756e-003
2.609257e+003,8.731866e-003
2.611186e+003,8.744308e-003
2.613114e+003,8.713273e-003
2.615043e+003,8.691503e-003
2.616971e+003,8.642220e-003
2.618900e+003,8.702793e-003
2.620828e+003,8.767940e-003
2.622757e+003,8.826368e-003
2.624685e+003,8.862787e-003
2.626614e+003,8.913515e-003
2.628542e+003,8.860724e-003
2.630471e+003,8.844797e-003
2.632399e+003,8.857038e-003
2.634328e+003,8.841482e-003
2.636256e+003,8.806823e-003
2.638185e+003,8.919738e-003
2.640113e+003,9.041040e-003
2.642042e+003,9.036710e-003
2.643970e+003,9.153610e-003
2.645899e+003,9.224747e-003
2.647827e+003,9.232667e-003
2.649756e+003,9.290209e-003
2.651684e+003,9.321928e-003
2.653613e+003,9.328631e-003
2.655541e+003,9.419537e-003
2.657470e+003,9.384121e-003
2.659398e+003,9.318950e-003
2.661327e+003,9.379753e-003
2.663255e+003,9.433522e-003
2.665184e+003,9.464506e-003
2.667112e+003,9.536440e-003
2.669041e+003,9.587586e-003
2.670969e+003,9.627626e-003
2.672898e+003,9.604014e-003
2.674826e+003,9.602592e-003
2.676755e+003,9.637248e-003
2.678683e+003,9.602253e-003
2.680612e+003,9.613805e-003
2.682540e+003,9.651713e-003
2.684469e+003,9.699146e-003
2.686397e+003,9.792807e-003
2.688326e+003,9.825749e-003
2.690254e+003,9.871269e-003
2.692183e+003,9.886759e-003
2.694111e+003,9.895335e-003
2.696040e+003,9.959474e-003
2.697968e+003,1.009548e-002
2.699897e+003,1.024401e-002
2.701825e+003,1.023811e-002
2.703754e+003,1.028170e-002
2.705682e+003,1.036239e-002
2.707611e+003,1.040871e-002
2.709539e+003,1.052972e-002
2.711468e+003,1.056869e-002
2.713396e+003,1.060713e-002
2.715325e+003,1.066237e-002
2.717253e+003,1.064580e-002
2.719182e+003,1.077913e-002
2.721110e+003,1.092178e-002
2.723039e+003,1.098461e-002
2.724967e+003,1.102974e-002
2.726896e+003,1.117098e-002
2.728824e+003,1.123840e-002
2.730753e+003,1.130502e-002
2.732681e+003,1.141794e-002
2.734610e+003,1.146961e-002
2.736538e+003,1.147853e-002
2.738467e+003,1.153079e-002
2.740395e+003,1.163481e-002
2.742324e+003,1.178275e-002
2.744252e+003,1.182531e-002
2.746181e+003,1.185371e-002
2.748109e+003,1.189726e-002
2.750038e+003,1.199719e-002
2.751966e+003,1.212569e-002
2.753895e+003,1.222601e-002
2.755823e+003,1.238216e-002
2.757752e+003,1.252738e-002
2.759680e+003,1.273662e-002
2.761609e+003,1.296338e-002
2.763537e+003,1.320077e-002
2.765466e+003,1.340299e-002
2.767394e+003,1.375295e-002
2.769323e+003,1.416098e-002
2.771251e+003,1.452585e-002
2.773180e+003,1.493724e-002
2.775108e+003,1.540402e-002
2.777037e+003,1.594950e-002
2.778965e+003,1.647435e-002
2.780894e+003,1.717147e-002
2.782822e+003,1.787900e-002
2.784750e+003,1.851441e-002
2.786679e+003,1.925856e-002
2.788608e+003,1.998938e-002
2.790536e+003,2.071344e-002
2.792465e+003,2.154983e-002
2.794393e+003,2.237152e-002
2.796322e+003,2.317914e-002
2.798250e+003,2.394215e-002
2.800178e+003,2.462051e-002
2.802107e+003,2.528051e-002
2.804036e+003,2.582992e-002
2.805964e+003,2.615577e-002
2.807893e+003,2.637845e-002
2.809821e+003,2.660560e-002
2.811750e+003,2.674907e-002
2.813678e+003,2.669344e-002
2.815606e+003,2.653970e-002
2.817535e+003,2.622401e-002
2.819464e+003,2.586892e-002
2.821392e+003,2.547719e-002
2.823321e+003,2.496054e-002
2.825249e+003,2.440960e-002
2.827177e+003,2.385837e-002
2.829106e+003,2.324988e-002
2.831034e+003,2.249088e-002
2.832963e+003,2.182677e-002
2.834892e+003,2.141691e-002
2.836820e+003,2.083693e-002
2.838749e+003,2.010642e-002
2.840677e+003,1.936584e-002
2.842605e+003,1.875330e-002
2.844534e+003,1.813129e-002
2.846462e+003,1.735307e-002
2.848391e+003,1.671839e-002
2.850320e+003,1.634913e-002
2.852248e+003,1.610757e-002
2.854177e+003,1.591447e-002
2.856105e+003,1.586498e-002
2.858033e+003,1.587371e-002
2.859962e+003,1.593038e-002
2.861890e+003,1.586309e-002
2.863819e+003,1.575608e-002
2.865748e+003,1.581883e-002
2.867676e+003,1.588357e-002
2.869604e+003,1.598225e-002
2.871533e+003,1.624480e-002
2.873461e+003,1.643185e-002
2.875390e+003,1.645271e-002
2.877319e+003,1.653999e-002
2.879247e+003,1.676088e-002
2.881176e+003,1.693025e-002
2.883104e+003,1.702090e-002
2.885032e+003,1.704788e-002
2.886961e+003,1.690668e-002
2.888889e+003,1.686269e-002
2.890818e+003,1.681072e-002
2.892747e+003,1.661493e-002
2.894675e+003,1.637349e-002
2.896604e+003,1.631346e-002
2.898532e+003,1.628659e-002
2.900460e+003,1.624084e-002
2.902389e+003,1.620933e-002
2.904317e+003,1.618093e-002
2.906246e+003,1.614224e-002
2.908175e+003,1.606229e-002
2.910103e+003,1.597363e-002
2.912031e+003,1.589567e-002
2.913960e+003,1.578003e-002
2.915888e+003,1.563877e-002
2.917817e+003,1.566048e-002
2.919745e+003,1.604489e-002
2.921674e+003,1.648537e-002
2.923603e+003,1.686004e-002
2.925531e+003,1.706997e-002
2.927459e+003,1.728714e-002
2.929388e+003,1.761685e-002
2.931316e+003,1.787503e-002
2.933245e+003,1.812165e-002
2.935173e+003,1.826656e-002
2.937102e+003,1.821601e-002
2.939031e+003,1.825084e-002
2.940959e+003,1.817613e-002
2.942887e+003,1.800083e-002
2.944816e+003,1.780236e-002
2.946744e+003,1.759353e-002
2.948673e+003,1.728779e-002
2.950601e+003,1.668254e-002
2.952530e+003,1.600632e-002
2.954458e+003,1.549466e-002
2.956387e+003,1.487387e-002
2.958315e+003,1.422428e-002
2.960244e+003,1.349137e-002
2.962172e+003,1.274505e-002
2.964101e+003,1.222754e-002
2.966029e+003,1.171113e-002
2.967958e+003,1.115480e-002
2.969886e+003,1.074507e-002
2.971815e+003,1.033429e-002
2.973743e+003,9.966119e-003
2.975672e+003,9.643616e-003
2.977600e+003,9.420249e-003
2.979529e+003,9.241399e-003
2.981457e+003,9.019828e-003
2.983386e+003,8.853656e-003
2.985314e+003,8.701847e-003
2.987243e+003,8.569184e-003
2.989171e+003,8.484740e-003
2.991100e+003,8.283986e-003
2.993028e+003,8.246670e-003
2.994957e+003,8.260211e-003
2.996885e+003,8.185484e-003
2.998814e+003,8.113403e-003
3.000742e+003,8.109925e-003
3.002671e+003,8.043966e-003
3.004599e+003,8.025166e-003
3.006528e+003,8.134840e-003
3.008456e+003,8.146825e-003
3.010385e+003,8.085351e-003
3.012313e+003,8.013961e-003
3.014242e+003,7.970356e-003
3.016170e+003,7.989998e-003
3.018099e+003,7.993947e-003
3.020027e+003,7.922200e-003
3.021956e+003,7.837815e-003
3.023884e+003,7.771763e-003
3.025813e+003,7.800335e-003
3.027741e+003,7.722786e-003
3.029670e+003,7.760732e-003
3.031598e+003,7.868552e-003
3.033527e+003,7.872735e-003
3.035455e+003,7.976397e-003
3.037384e+003,7.953551e-003
3.039312e+003,7.856878e-003
3.041241e+003,7.860724e-003
3.043169e+003,7.761070e-003
3.045098e+003,7.705247e-003
3.047026e+003,7.740392e-003
3.048955e+003,7.760159e-003
3.050883e+003,7.752873e-003
3.052812e+003,7.683393e-003
3.054740e+003,7.681369e-003
3.056669e+003,7.810657e-003
3.058597e+003,7.785188e-003
3.060526e+003,7.663968e-003
3.062454e+003,7.703595e-003
3.064383e+003,7.782861e-003
3.066311e+003,7.824759e-003
3.068240e+003,7.952504e-003
3.070168e+003,7.958950e-003
3.072097e+003,7.817809e-003
3.074025e+003,7.776283e-003
3.075954e+003,7.738942e-003
3.077882e+003,7.757123e-003
3.079811e+003,7.757663e-003
3.081739e+003,7.715737e-003
3.083668e+003,7.752266e-003
3.085596e+003,7.752873e-003
3.087525e+003,7.693443e-003
3.089453e+003,7.791800e-003
3.091382e+003,7.851715e-003
3.093310e+003,7.957836e-003
3.095239e+003,7.976465e-003
3.097167e+003,7.948792e-003
3.099096e+003,7.949770e-003
3.101024e+003,7.913360e-003
3.102953e+003,7.854044e-003
3.104881e+003,7.806171e-003
3.106810e+003,7.818417e-003
3.108738e+003,7.784783e-003
3.110667e+003,7.987467e-003
3.112595e+003,8.160364e-003
3.114524e+003,8.103714e-003
3.116452e+003,7.921762e-003
3.118381e+003,7.951458e-003
3.120309e+003,8.078396e-003
3.122238e+003,8.122181e-003
3.124166e+003,8.187476e-003
3.126095e+003,8.157123e-003
3.128023e+003,8.064996e-003
3.129952e+003,8.105267e-003
3.131880e+003,8.175895e-003
3.133809e+003,8.175287e-003
3.135737e+003,8.206554e-003
3.137666e+003,8.364540e-003
3.139594e+003,8.438352e-003
3.141523e+003,8.320901e-003
3.143451e+003,8.359406e-003
3.145380e+003,8.422373e-003
3.147308e+003,8.370012e-003
3.149237e+003,8.364337e-003
3.151165e+003,8.460752e-003
3.153094e+003,8.591522e-003
3.155022e+003,8.718851e-003
3.156951e+003,8.678455e-003
3.158879e+003,8.626063e-003
3.160808e+003,8.671120e-003
3.162736e+003,8.714794e-003
3.164665e+003,8.765168e-003
3.166593e+003,8.728655e-003
3.168522e+003,8.627686e-003
3.170450e+003,8.711110e-003
3.172379e+003,8.808210e-003
3.174307e+003,8.796679e-003
3.176236e+003,8.944700e-003
3.178164e+003,9.101060e-003
3.180093e+003,9.004199e-003
3.182021e+003,8.931340e-003
3.183950e+003,8.970304e-003
3.185878e+003,8.967700e-003
3.187807e+003,9.059276e-003
3.189735e+003,9.142139e-003
3.191664e+003,8.971286e-003
3.193592e+003,8.839352e-003
3.195521e+003,8.937969e-003
3.197449e+003,8.988503e-003
3.199378e+003,8.846014e-003
3.201306e+003,8.774939e-003
3.203235e+003,8.867758e-003
3.205163e+003,8.990972e-003
3.207092e+003,8.991243e-003
3.209020e+003,9.146267e-003
3.210948e+003,9.226169e-003
3.212877e+003,9.228268e-003
3.214806e+003,9.175877e-003
3.216734e+003,9.122953e-003
3.218663e+003,9.162037e-003
3.220591e+003,9.232160e-003
3.222520e+003,9.285301e-003
3.224448e+003,9.347387e-003
3.226376e+003,9.259135e-003
3.228305e+003,9.321488e-003
3.230234e+003,9.503723e-003
3.232162e+003,9.540775e-003
3.234091e+003,9.574071e-003
3.236019e+003,9.562655e-003
3.237948e+003,9.580235e-003
3.239876e+003,9.760037e-003
3.241804e+003,9.885166e-003
3.243733e+003,9.850084e-003
3.245662e+003,9.885945e-003
3.247590e+003,9.985682e-003
3.249519e+003,1.009341e-002
3.251447e+003,1.022437e-002
3.253375e+003,1.006235e-002
3.255304e+003,1.010487e-002
3.257232e+003,1.042137e-002
3.259161e+003,1.053712e-002
3.261090e+003,1.054686e-002
3.263018e+003,1.054272e-002
3.264947e+003,1.053322e-002
3.266875e+003,1.036056e-002
3.268803e+003,1.035330e-002
3.270732e+003,1.046872e-002
3.272660e+003,1.059578e-002
3.274589e+003,1.067514e-002
3.276518e+003,1.070190e-002
3.278446e+003,1.078752e-002
3.280375e+003,1.086572e-002
3.282303e+003,1.082017e-002
3.284231e+003,1.080291e-002
3.286160e+003,1.076011e-002
3.288088e+003,1.064088e-002
3.290017e+003,1.055291e-002
3.291946e+003,1.066526e-002
3.293874e+003,1.075773e-002
3.295802e+003,1.071317e-002
3.297731e+003,1.064879e-002
3.299659e+003,1.052534e-002
3.301588e+003,1.035764e-002
3.303516e+003,1.018404e-002
3.305445e+003,1.017966e-002
3.307374e+003,1.026678e-002
3.309302e+003,1.019411e-002
3.311230e+003,9.996430e-003
3.313159e+003,9.858320e-003
3.315087e+003,9.833781e-003
3.317016e+003,9.998396e-003
3.318944e+003,9.891301e-003
3.320873e+003,9.614719e-003
3.322802e+003,9.459461e-003
3.324730e+003,9.376536e-003
3.326658e+003,9.353040e-003
3.328587e+003,9.315564e-003
3.330515e+003,9.341631e-003
3.332444e+003,9.270948e-003
3.334372e+003,9.177975e-003
3.336301e+003,9.281171e-003
3.338229e+003,9.388522e-003
3.340158e+003,9.292477e-003
3.342086e+003,9.233005e-003
3.344015e+003,9.263637e-003
3.345943e+003,9.431558e-003
3.347872e+003,9.452248e-003
3.349800e+003,9.347725e-003
3.351729e+003,9.433590e-003
3.353657e+003,9.518692e-003
3.355586e+003,9.434741e-003
3.357514e+003,9.439549e-003
3.359443e+003,9.376435e-003
3.361371e+003,9.296844e-003
3.363300e+003,9.415610e-003
3.365229e+003,9.353040e-003
3.367157e+003,9.077748e-003
3.369085e+003,8.879493e-003
3.371014e+003,8.810914e-003
3.372942e+003,8.927687e-003
3.374871e+003,8.966956e-003
3.376799e+003,8.933335e-003
3.378728e+003,8.757967e-003
3.380656e+003,8.504641e-003
3.382585e+003,8.358764e-003
3.384513e+003,8.293645e-003
3.386442e+003,8.183323e-003
3.388370e+003,8.135819e-003
3.390299e+003,8.166407e-003
3.392227e+003,8.137811e-003
3.394156e+003,8.037621e-003
3.396084e+003,8.067830e-003
3.398013e+003,7.994217e-003
3.399941e+003,7.863929e-003
3.401870e+003,7.919637e-003
3.403798e+003,8.020036e-003
3.405727e+003,7.941199e-003
3.407655e+003,7.741674e-003
3.409584e+003,7.751287e-003
3.411512e+003,7.875097e-003
3.413441e+003,7.892811e-003
3.415369e+003,7.910357e-003
3.417298e+003,7.869598e-003
3.419226e+003,7.854179e-003
3.421155e+003,7.992631e-003
3.423083e+003,7.923314e-003
3.425012e+003,7.870845e-003
3.426940e+003,7.934113e-003
3.428869e+003,7.935361e-003
3.430797e+003,7.963438e-003
3.432726e+003,8.030836e-003
3.434654e+003,7.992428e-003
3.436583e+003,7.912820e-003
3.438511e+003,7.936373e-003
3.440440e+003,8.049401e-003
3.442368e+003,7.826379e-003
3.444297e+003,7.714759e-003
3.446225e+003,7.963674e-003
3.448154e+003,8.123868e-003
3.450082e+003,8.075155e-003
3.452011e+003,8.116914e-003
3.453939e+003,8.114787e-003
3.455868e+003,7.945215e-003
3.457796e+003,7.877020e-003
3.459725e+003,7.929895e-003
3.461653e+003,8.041840e-003
3.463582e+003,8.146623e-003
3.465510e+003,8.100372e-003
3.467439e+003,8.009370e-003
3.469367e+003,8.046633e-003
3.471296e+003,8.148277e-003
3.473224e+003,8.206924e-003
3.475153e+003,8.253862e-003
3.477081e+003,8.247648e-003
3.479010e+003,8.185687e-003
3.480938e+003,8.235965e-003
3.482867e+003,8.185248e-003
3.484795e+003,8.293509e-003
3.486724e+003,8.387037e-003
3.488652e+003,8.207229e-003
3.490581e+003,8.220905e-003
3.492509e+003,8.373998e-003
3.494438e+003,8.355622e-003
3.496366e+003,8.385956e-003
3.498295e+003,8.420515e-003
3.500223e+003,8.455717e-003
3.502152e+003,8.585101e-003
3.504080e+003,8.631742e-003
3.506009e+003,8.419197e-003
3.507937e+003,8.422440e-003
3.509866e+003,8.478287e-003
3.511794e+003,8.387543e-003
3.513723e+003,8.341268e-003
3.515651e+003,8.379099e-003
3.517580e+003,8.456731e-003
3.519508e+003,8.535627e-003
3.521437e+003,8.500486e-003
3.523365e+003,8.550091e-003
3.525294e+003,8.554484e-003
3.527222e+003,8.418014e-003
3.529151e+003,8.391259e-003
3.531079e+003,8.393185e-003
3.533008e+003,8.484065e-003
3.534936e+003,8.567528e-003
3.536865e+003,8.537453e-003
3.538793e+003,8.360351e-003
3.540722e+003,8.302459e-003
3.542650e+003,8.359035e-003
3.544579e+003,8.602405e-003
3.546507e+003,8.949807e-003
3.548436e+003,8.859134e-003
3.550364e+003,8.800669e-003
3.552293e+003,8.897248e-003
3.554221e+003,8.794346e-003
3.556150e+003,8.594294e-003
3.558078e+003,8.677136e-003
3.560007e+003,8.749750e-003
3.561935e+003,8.582262e-003
3.563864e+003,8.838202e-003
3.565792e+003,9.170259e-003
3.567721e+003,9.042495e-003
3.569649e+003,8.748398e-003
3.571578e+003,8.671288e-003
3.573506e+003,8.735044e-003
3.575435e+003,8.708304e-003
3.577363e+003,8.746843e-003
3.579292e+003,8.786536e-003
3.581220e+003,8.725781e-003
3.583149e+003,8.796003e-003
3.585077e+003,8.953291e-003
3.587006e+003,9.144812e-003
3.588934e+003,9.030924e-003
3.590863e+003,8.819841e-003
3.592791e+003,8.885174e-003
3.594720e+003,8.944598e-003
3.596648e+003,8.790018e-003
3.598577e+003,8.568542e-003
3.600505e+003,8.694309e-003
3.602434e+003,8.939559e-003
3.604362e+003,8.972876e-003
3.606291e+003,8.904147e-003
3.608219e+003,9.198958e-003
3.610148e+003,9.266210e-003
3.612076e+003,9.067463e-003
3.614005e+003,8.860691e-003
3.615933e+003,8.913448e-003
3.617862e+003,9.115238e-003
3.619790e+003,9.000039e-003
3.621719e+003,8.704653e-003
3.623647e+003,8.597336e-003
3.625576e+003,8.850917e-003
3.627504e+003,9.561300e-003
3.629433e+003,9.811108e-003
3.631361e+003,9.185319e-003
3.633290e+003,9.049870e-003
3.635218e+003,9.008090e-003
3.637146e+003,8.929074e-003
3.639075e+003,8.792926e-003
3.641004e+003,8.654050e-003
3.642932e+003,8.632148e-003
3.644861e+003,8.811760e-003
3.646789e+003,9.395362e-003
3.648718e+003,9.856389e-003
3.650646e+003,9.581895e-003
3.652574e+003,8.935229e-003
3.654503e+003,9.066211e-003
3.656432e+003,9.249828e-003
3.658360e+003,8.876753e-003
3.660289e+003,8.678320e-003
3.662217e+003,8.535087e-003
3.664146e+003,8.468286e-003
3.666074e+003,8.643571e-003
3.668002e+003,9.145997e-003
3.669931e+003,9.397224e-003
3.671860e+003,9.108741e-003
3.673788e+003,9.423837e-003
3.675717e+003,9.601034e-003
3.677645e+003,9.073621e-003
3.679573e+003,8.878782e-003
3.681502e+003,8.837053e-003
3.683430e+003,8.906785e-003
3.685359e+003,8.964757e-003
3.687288e+003,9.360590e-003
3.689216e+003,9.470399e-003
3.691145e+003,9.212834e-003
3.693073e+003,8.997366e-003
3.695001e+003,8.848583e-003
3.696930e+003,8.742583e-003
3.698858e+003,8.908273e-003
3.700787e+003,9.193983e-003
3.702716e+003,9.118553e-003
3.704644e+003,8.867758e-003
3.706573e+003,8.910843e-003
3.708501e+003,9.091992e-003
3.710429e+003,9.344136e-003
3.712358e+003,9.286452e-003
3.714286e+003,8.746674e-003
3.716215e+003,8.587264e-003
3.718144e+003,8.912128e-003
3.720072e+003,8.918758e-003
3.722000e+003,8.819030e-003
3.723929e+003,8.804490e-003
3.725857e+003,8.759420e-003
3.727786e+003,8.513934e-003
3.729714e+003,8.639820e-003
3.731643e+003,9.163187e-003
3.733572e+003,9.626441e-003
3.735500e+003,9.795586e-003
3.737428e+003,9.211345e-003
3.739357e+003,8.755464e-003
3.741285e+003,8.916255e-003
3.743214e+003,9.798873e-003
3.745142e+003,9.882623e-003
3.747071e+003,9.340040e-003
3.749000e+003,9.733504e-003
3.750928e+003,9.809074e-003
3.752856e+003,9.389131e-003
3.754785e+003,9.091890e-003
3.756713e+003,9.054301e-003
3.758642e+003,8.976360e-003
3.760570e+003,9.046284e-003
3.762499e+003,8.948014e-003
3.764427e+003,8.963168e-003
3.766356e+003,8.918623e-003
3.768284e+003,8.856598e-003
3.770213e+003,8.991852e-003
3.772141e+003,8.921294e-003
3.774070e+003,8.907292e-003
3.775998e+003,8.975108e-003
3.777927e+003,9.048517e-003
3.779855e+003,9.018374e-003
3.781784e+003,8.786096e-003
3.783712e+003,8.809021e-003
3.785641e+003,8.846217e-003
3.787569e+003,8.832217e-003
3.789498e+003,8.642050e-003
3.791426e+003,8.417744e-003
3.793355e+003,8.407508e-003
3.795283e+003,8.980385e-003
3.797212e+003,9.150633e-003
3.799140e+003,9.085800e-003
3.801069e+003,9.259271e-003
3.802997e+003,8.766791e-003
3.804926e+003,8.893528e-003
3.806854e+003,9.373861e-003
3.808783e+003,8.832657e-003
3.810711e+003,8.463184e-003
3.812640e+003,8.499371e-003
3.814568e+003,8.840942e-003
3.816497e+003,9.203155e-003
3.818425e+003,9.357441e-003
3.820354e+003,9.834155e-003
3.822282e+003,9.598968e-003
3.824211e+003,9.064249e-003
3.826139e+003,8.937732e-003
3.828068e+003,8.881183e-003
3.829996e+003,9.103700e-003
3.831925e+003,8.950822e-003
3.833853e+003,8.858728e-003
3.835782e+003,9.341124e-003
3.837710e+003,9.743602e-003
3.839639e+003,9.510496e-003
3.841567e+003,9.211582e-003
3.843496e+003,9.060797e-003
3.845424e+003,8.771321e-003
3.847353e+003,8.345489e-003
3.849281e+003,8.478861e-003
3.851210e+003,9.500234e-003
3.853138e+003,1.048348e-002
3.855067e+003,9.797077e-003
3.856995e+003,8.985324e-003
3.858924e+003,8.703131e-003
3.860852e+003,8.743868e-003
3.862781e+003,9.016716e-003
3.864709e+003,9.071590e-003
3.866638e+003,8.756445e-003
3.868566e+003,9.167180e-003
3.870495e+003,9.239504e-003
3.872423e+003,9.129483e-003
3.874352e+003,9.190192e-003
3.876280e+003,9.054742e-003
3.878209e+003,9.193577e-003
3.880137e+003,9.144203e-003
3.882066e+003,8.784338e-003
3.883994e+003,8.964081e-003
3.885923e+003,9.109925e-003
3.887851e+003,8.814769e-003
3.889780e+003,9.049295e-003
3.891708e+003,9.000377e-003
3.893637e+003,8.647965e-003
3.895565e+003,8.533971e-003
3.897494e+003,8.593178e-003
3.899422e+003,8.925285e-003
3.901351e+003,8.998381e-003
3.903279e+003,8.968918e-003
3.905208e+003,8.911622e-003
3.907136e+003,8.522854e-003
3.909065e+003,8.430818e-003
3.910993e+003,8.532688e-003
3.912922e+003,8.365587e-003
3.914850e+003,8.494674e-003
3.916779e+003,8.815107e-003
3.918707e+003,8.862076e-003
3.920636e+003,8.592840e-003
3.922564e+003,8.754585e-003
3.924493e+003,8.927078e-003
3.926421e+003,8.662838e-003
3.928350e+003,8.427069e-003
3.930278e+003,8.268113e-003
3.932207e+003,8.379741e-003
3.934135e+003,8.422981e-003
3.936064e+003,8.296854e-003
3.937992e+003,8.415278e-003
3.939921e+003,8.417474e-003
3.941849e+003,8.333026e-003
3.943778e+003,8.272436e-003
3.945706e+003,8.493187e-003
3.947635e+003,8.793501e-003
3.949563e+003,8.852439e-003
3.951492e+003,8.730548e-003
3.953420e+003,8.522719e-003
3.955349e+003,8.350792e-003
3.957277e+003,8.386496e-003
3.959206e+003,8.374573e-003
3.961134e+003,8.275577e-003
3.963063e+003,8.472037e-003
3.964991e+003,8.515015e-003
3.966920e+003,8.481159e-003
3.968848e+003,8.721961e-003
3.970777e+003,8.786096e-003
3.972705e+003,8.655977e-003
3.974634e+003,8.571482e-003
3.976562e+003,8.366904e-003
3.978491e+003,8.259738e-003
3.980419e+003,8.342585e-003
3.982348e+003,8.390415e-003
3.984276e+003,8.343631e-003
3.986205e+003,8.355150e-003
3.988133e+003,8.544413e-003
3.990062e+003,8.632586e-003
3.991990e+003,8.451764e-003
3.993919e+003,8.263723e-003
3.995847e+003,8.320427e-003
3.997776e+003,8.519104e-003
3.999704e+003,8.456360e-003
4.001633e+003,0.000000e+000
