3.991989e+002,6.425738e-003
4.011274e+002,-9.614787e-004
4.030559e+002,-7.648638e-003
4.049844e+002,-9.833992e-003
4.069129e+002,-3.835147e-003
4.088414e+002,1.523821e-003
4.107699e+002,-5.873535e-003
4.126984e+002,-9.688786e-003
4.146269e+002,-1.013811e-003
4.165554e+002,7.212301e-003
4.184839e+002,5.606461e-003
4.204124e+002,5.655535e-003
4.223409e+002,6.591287e-003
4.242694e+002,3.693707e-003
4.261979e+002,-2.869022e-003
4.281264e+002,2.553445e-003
4.300549e+002,7.492481e-003
4.319834e+002,5.257027e-003
4.339119e+002,6.837674e-003
4.358404e+002,8.881962e-003
4.377689e+002,9.831917e-003
4.396974e+002,2.262843e-003
4.416259e+002,-6.150354e-003
4.435544e+002,-1.187126e-003
4.454829e+002,3.239473e-003
4.474114e+002,4.491972e-003
4.493399e+002,5.406898e-003
4.512684e+002,4.678018e-003
4.531969e+002,3.399670e-003
4.551254e+002,3.564102e-003
4.570539e+002,3.954438e-003
4.589824e+002,2.475295e-003
4.609109e+002,1.731786e-003
4.628394e+002,1.552284e-003
4.647679e+002,7.243705e-005
4.666964e+002,-8.381446e-004
4.686249e+002,2.757959e-004
4.705533e+002,7.226911e-004
4.724819e+002,-6.770631e-004
4.744103e+002,1.175063e-003
4.763389e+002,2.460832e-003
4.782673e+002,1.360957e-003
4.801959e+002,-9.725870e-004
4.821243e+002,-2.165765e-003
4.840529e+002,-2.697365e-003
4.859813e+002,-3.894588e-003
4.879099e+002,-4.230131e-003
4.898383e+002,-3.414359e-003
4.917668e+002,-4.203059e-003
4.936953e+002,-4.930809e-003
4.956238e+002,-3.656544e-003
4.975523e+002,-3.937538e-003
4.994808e+002,-5.471634e-003
5.014093e+002,-4.079920e-003
5.033378e+002,-2.928332e-003
5.052663e+002,-3.664495e-003
5.071948e+002,-4.280266e-003
5.091233e+002,-6.613994e-003
5.110518e+002,-6.562267e-003
5.129803e+002,-5.119007e-003
5.149088e+002,-5.270070e-003
5.168373e+002,-5.783990e-003
5.187658e+002,-6.158423e-003
5.206943e+002,-7.025337e-003
5.226228e+002,-6.782121e-003
5.245513e+002,-5.988748e-003
5.264798e+002,-6.004630e-003
5.284083e+002,-6.388342e-003
5.303368e+002,-5.004775e-003
5.322653e+002,-4.414500e-003
5.341938e+002,-3.866609e-003
5.361223e+002,-4.552398e-003
5.380508e+002,-5.018597e-003
5.399792e+002,-4.299623e-003
5.419078e+002,-3.200227e-003
5.438363e+002,-3.022120e-003
5.457648e+002,-3.738250e-003
5.476932e+002,-3.667124e-003
5.496218e+002,-3.953003e-003
5.515503e+002,-2.909540e-003
5.534788e+002,-2.672206e-003
5.554072e+002,-3.291358e-003
5.573358e+002,-3.874064e-003
5.592643e+002,-2.953575e-003
5.611927e+002,-1.682860e-003
5.631212e+002,-5.647337e-004
5.650497e+002,-8.962780e-004
5.669783e+002,-3.281394e-003
5.689067e+002,-2.810527e-003
5.708352e+002,-1.582313e-003
5.727637e+002,-1.715370e-003
5.746923e+002,-2.729469e-003
5.766207e+002,-4.850868e-003
5.785492e+002,-4.810465e-003
5.804777e+002,-6.138300e-003
5.824063e+002,-6.596502e-003
5.843347e+002,-4.550037e-003
5.862632e+002,-3.706548e-003
5.881917e+002,-3.167335e-003
5.901202e+002,-2.856942e-003
5.920487e+002,-2.254179e-003
5.939772e+002,-3.500252e-003
5.959057e+002,-3.401373e-003
5.978342e+002,-1.759427e-003
5.997627e+002,-1.993929e-003
6.016912e+002,-2.791926e-003
6.036197e+002,-2.815234e-003
6.055482e+002,-2.039837e-003
6.074767e+002,-3.746175e-004
6.094052e+002,-6.868884e-004
6.113337e+002,-1.902162e-003
6.132622e+002,-2.133289e-003
6.151907e+002,-1.066335e-003
6.171192e+002,-1.622950e-003
6.190477e+002,-2.365546e-003
6.209762e+002,-2.183832e-003
6.229047e+002,-2.881727e-003
6.248332e+002,-4.465336e-003
6.267617e+002,-5.164423e-003
6.286902e+002,-5.406191e-003
6.306187e+002,-4.958326e-003
6.325472e+002,-4.189572e-003
6.344756e+002,-3.438192e-003
6.364042e+002,-3.098023e-003
6.383326e+002,-3.326838e-003
6.402612e+002,-3.604365e-003
6.421896e+002,-3.209667e-003
6.441182e+002,-3.244200e-003
6.460466e+002,-3.439376e-003
6.479752e+002,-3.218350e-003
6.499036e+002,-2.853453e-003
6.518322e+002,-2.125508e-003
6.537606e+002,-1.731409e-003
6.556891e+002,-2.409800e-003
6.576177e+002,-3.033768e-003
6.595461e+002,-3.357712e-003
6.614746e+002,-3.182499e-003
6.634031e+002,-2.674512e-003
6.653317e+002,-2.131509e-003
6.672601e+002,-2.331404e-003
6.691886e+002,-2.226589e-003
6.711171e+002,-1.791700e-003
6.730457e+002,-1.719759e-003
6.749741e+002,-1.982385e-003
6.769026e+002,-1.950818e-003
6.788311e+002,-1.411071e-003
6.807596e+002,-8.244533e-004
6.826881e+002,-9.321859e-004
6.846166e+002,-1.029975e-003
6.865451e+002,-5.249565e-004
6.884736e+002,1.288443e-004
6.904021e+002,3.234755e-004
6.923306e+002,5.009442e-004
6.942591e+002,7.704198e-004
6.961876e+002,-3.549524e-004
6.981161e+002,-1.701112e-003
7.000446e+002,-2.296831e-003
7.019731e+002,-1.428013e-003
7.039016e+002,-4.046762e-004
7.058301e+002,-8.687334e-004
7.077585e+002,-1.321791e-003
7.096871e+002,-1.437557e-003
7.116156e+002,-1.464901e-003
7.135441e+002,-2.164216e-003
7.154725e+002,-2.871787e-003
7.174011e+002,-3.337294e-003
7.193296e+002,-2.911811e-003
7.212581e+002,-2.837652e-003
7.231865e+002,-3.246765e-003
7.251151e+002,-3.202529e-003
7.270436e+002,-3.478295e-003
7.289720e+002,-3.909857e-003
7.309005e+002,-3.730202e-003
7.328290e+002,-3.623358e-003
7.347576e+002,-3.267779e-003
7.366860e+002,-2.810988e-003
7.386145e+002,-2.856744e-003
7.405430e+002,-3.132697e-003
7.424716e+002,-2.964632e-003
7.444000e+002,-2.546986e-003
7.463285e+002,-2.228534e-003
7.482570e+002,-2.428351e-003
7.501855e+002,-2.490687e-003
7.521140e+002,-1.647510e-003
7.540425e+002,-7.265185e-004
7.559710e+002,-6.420605e-004
7.578995e+002,-5.771426e-004
7.598280e+002,-4.704142e-004
7.617565e+002,-4.067286e-004
7.636850e+002,-2.927731e-004
7.656135e+002,3.040118e-004
7.675420e+002,7.721459e-004
7.694705e+002,1.348526e-003
7.713990e+002,1.390872e-003
7.733275e+002,1.439406e-003
7.752560e+002,1.422053e-003
7.771844e+002,8.698438e-004
7.791130e+002,7.594995e-004
7.810415e+002,1.032822e-003
7.829700e+002,1.071085e-003
7.848984e+002,1.459020e-003
7.868270e+002,1.553880e-003
7.887555e+002,1.044978e-003
7.906840e+002,5.436721e-004
7.926124e+002,1.540012e-004
7.945410e+002,1.725632e-004
7.964695e+002,2.337573e-004
7.983979e+002,2.013691e-004
8.003264e+002,2.314035e-004
8.022549e+002,-9.862884e-005
8.041835e+002,-5.274619e-005
8.061119e+002,1.397156e-004
8.080404e+002,7.159537e-004
8.099689e+002,9.435551e-004
8.118975e+002,4.903955e-004
8.138259e+002,6.308994e-004
8.157545e+002,8.910926e-004
8.176830e+002,4.553346e-004
8.196115e+002,3.618388e-005
8.215399e+002,-4.005714e-004
8.234684e+002,-4.030542e-004
8.253970e+002,-7.089534e-004
8.273254e+002,-1.088645e-003
8.292539e+002,-8.471396e-004
8.311824e+002,-1.046866e-003
8.331110e+002,-1.309733e-003
8.350394e+002,-1.161979e-003
8.369679e+002,-8.666832e-004
8.388964e+002,-1.115019e-003
8.408250e+002,-1.450338e-003
8.427534e+002,-1.183590e-003
8.446819e+002,-8.861929e-004
8.466104e+002,-1.233781e-003
8.485389e+002,-1.326548e-003
8.504674e+002,-1.420681e-003
8.523959e+002,-1.488577e-003
8.543244e+002,-1.662561e-003
8.562529e+002,-1.732366e-003
8.581814e+002,-1.600668e-003
8.601099e+002,-1.309238e-003
8.620384e+002,-1.515983e-003
8.639669e+002,-2.296007e-003
8.658954e+002,-2.283647e-003
8.678239e+002,-1.818097e-003
8.697524e+002,-1.952072e-003
8.716809e+002,-2.402848e-003
8.736094e+002,-2.395697e-003
8.755378e+002,-2.019984e-003
8.774664e+002,-1.808364e-003
8.793949e+002,-1.718307e-003
8.813234e+002,-1.398124e-003
8.832518e+002,-1.151702e-003
8.851804e+002,-1.198526e-003
8.871089e+002,-1.378968e-003
8.890374e+002,-1.151173e-003
8.909658e+002,-9.082807e-004
8.928943e+002,-5.355465e-004
8.948229e+002,-2.936009e-004
8.967513e+002,-2.967465e-004
8.986798e+002,-3.600840e-004
9.006083e+002,-6.072866e-004
9.025369e+002,-5.613584e-004
9.044653e+002,-3.551180e-004
9.063938e+002,-5.785324e-004
9.083223e+002,-6.566838e-004
9.102509e+002,-8.780915e-004
9.121793e+002,-1.193966e-003
9.141078e+002,-1.320767e-003
9.160364e+002,-1.286113e-003
9.179648e+002,-1.347655e-003
9.198933e+002,-1.473321e-003
9.218218e+002,-1.838752e-003
9.237504e+002,-2.309454e-003
9.256788e+002,-2.647771e-003
9.276073e+002,-2.795712e-003
9.295358e+002,-2.419686e-003
9.314644e+002,-2.493454e-003
9.333928e+002,-2.795120e-003
9.353213e+002,-2.686597e-003
9.372498e+002,-2.611313e-003
9.391783e+002,-2.913555e-003
9.411068e+002,-3.003430e-003
9.430353e+002,-2.908618e-003
9.449637e+002,-3.123124e-003
9.468923e+002,-3.438981e-003
9.488208e+002,-3.156283e-003
9.507493e+002,-2.895091e-003
9.526777e+002,-2.890845e-003
9.546063e+002,-2.858522e-003
9.565348e+002,-2.705334e-003
9.584633e+002,-2.645202e-003
9.603917e+002,-2.737536e-003
9.623203e+002,-2.904109e-003
9.642488e+002,-2.858686e-003
9.661772e+002,-2.545437e-003
9.681057e+002,-2.340598e-003
9.700343e+002,-2.510618e-003
9.719628e+002,-2.599193e-003
9.738912e+002,-2.663315e-003
9.758197e+002,-2.750081e-003
9.777483e+002,-2.629954e-003
9.796768e+002,-2.325999e-003
9.816052e+002,-2.149478e-003
9.835337e+002,-2.247455e-003
9.854623e+002,-2.288031e-003
9.873907e+002,-2.161578e-003
9.893192e+002,-1.951181e-003
9.912477e+002,-1.809551e-003
9.931763e+002,-1.844955e-003
9.951047e+002,-1.835981e-003
9.970332e+002,-1.771109e-003
9.989617e+002,-1.778204e-003
1.000890e+003,-1.712334e-003
1.002819e+003,-1.553986e-003
1.004747e+003,-1.538898e-003
1.006676e+003,-1.499309e-003
1.008604e+003,-1.078663e-003
1.010533e+003,-9.771162e-004
1.012461e+003,-1.043726e-003
1.014390e+003,-9.033210e-004
1.016318e+003,-5.915035e-004
1.018247e+003,-2.583686e-004
1.020175e+003,-3.187378e-005
1.022104e+003,2.611747e-004
1.024032e+003,4.043240e-004
1.025961e+003,5.853426e-004
1.027889e+003,8.387029e-004
1.029818e+003,9.246613e-004
1.031746e+003,1.097725e-003
1.033675e+003,1.516805e-003
1.035603e+003,2.019836e-003
1.037532e+003,2.074233e-003
1.039460e+003,2.055356e-003
1.041389e+003,2.258080e-003
1.043317e+003,2.448004e-003
1.045246e+003,2.478460e-003
1.047174e+003,2.491457e-003
1.049103e+003,2.378501e-003
1.051031e+003,2.298550e-003
1.052960e+003,2.362876e-003
1.054888e+003,2.309775e-003
1.056817e+003,2.109424e-003
1.058745e+003,2.092211e-003
1.060674e+003,2.181481e-003
1.062602e+003,2.426645e-003
1.064531e+003,2.496356e-003
1.066459e+003,2.304246e-003
1.068388e+003,2.267007e-003
1.070316e+003,2.317770e-003
1.072245e+003,2.433309e-003
1.074173e+003,2.506653e-003
1.076102e+003,2.468863e-003
1.078030e+003,2.299816e-003
1.079959e+003,2.274501e-003
1.081887e+003,2.418082e-003
1.083816e+003,2.444772e-003
1.085744e+003,2.652045e-003
1.087673e+003,2.884899e-003
1.089601e+003,2.725826e-003
1.091530e+003,2.822897e-003
1.093458e+003,3.140740e-003
1.095387e+003,3.081738e-003
1.097315e+003,3.063318e-003
1.099244e+003,2.929097e-003
1.101172e+003,3.037959e-003
1.103101e+003,3.176953e-003
1.105029e+003,2.918089e-003
1.106958e+003,2.835770e-003
1.108886e+003,3.091682e-003
1.110815e+003,3.438109e-003
1.112743e+003,3.643017e-003
1.114672e+003,3.430260e-003
1.116600e+003,3.383407e-003
1.118529e+003,3.492182e-003
1.120457e+003,3.502136e-003
1.122386e+003,3.462222e-003
1.124314e+003,3.322502e-003
1.126243e+003,3.077533e-003
1.128171e+003,3.022944e-003
1.130100e+003,2.951581e-003
1.132028e+003,2.740830e-003
1.133957e+003,2.552345e-003
1.135885e+003,2.428711e-003
1.137814e+003,2.252385e-003
1.139742e+003,2.082090e-003
1.141671e+003,1.691070e-003
1.143599e+003,1.256336e-003
1.145528e+003,1.032357e-003
1.147456e+003,8.467369e-004
1.149385e+003,3.968288e-004
1.151313e+003,-5.970343e-005
1.153242e+003,-2.370094e-004
1.155170e+003,-2.716804e-004
1.157099e+003,-3.119112e-004
1.159027e+003,-6.213818e-004
1.160956e+003,-8.694278e-004
1.162884e+003,-9.602224e-004
1.164813e+003,-8.737597e-004
1.166741e+003,-8.077190e-004
1.168670e+003,-7.275770e-004
1.170598e+003,-6.193304e-004
1.172526e+003,-6.286277e-004
1.174455e+003,-6.068565e-004
1.176384e+003,-5.015254e-004
1.178312e+003,-4.063645e-004
1.180240e+003,-3.228375e-004
1.182169e+003,-3.985190e-004
1.184098e+003,-4.044445e-004
1.186026e+003,-4.453250e-004
1.187954e+003,-5.316745e-004
1.189883e+003,-7.851960e-004
1.191812e+003,-8.581516e-004
1.193740e+003,-5.662890e-004
1.195668e+003,-4.482709e-004
1.197597e+003,-4.335743e-004
1.199526e+003,-3.828938e-004
1.201454e+003,-4.382416e-004
1.203382e+003,-3.985190e-004
1.205311e+003,-1.683877e-004
1.207240e+003,-4.612013e-005
1.209168e+003,5.189101e-005
1.211096e+003,1.722649e-004
1.213025e+003,2.341883e-004
1.214953e+003,4.014055e-004
1.216882e+003,5.123887e-004
1.218810e+003,5.331225e-004
1.220739e+003,5.532932e-004
1.222667e+003,7.061300e-004
1.224596e+003,8.636686e-004
1.226524e+003,9.342243e-004
1.228453e+003,1.075669e-003
1.230381e+003,1.360625e-003
1.232310e+003,1.545634e-003
1.234238e+003,1.600071e-003
1.236167e+003,1.688010e-003
1.238095e+003,1.718646e-003
1.240024e+003,1.740302e-003
1.241952e+003,1.810235e-003
1.243881e+003,1.735811e-003
1.245809e+003,1.746656e-003
1.247738e+003,1.609350e-003
1.249666e+003,1.301465e-003
1.251595e+003,1.194001e-003
1.253523e+003,1.263315e-003
1.255452e+003,1.275178e-003
1.257380e+003,1.129948e-003
1.259309e+003,9.949612e-004
1.261237e+003,1.180878e-003
1.263166e+003,1.336029e-003
1.265094e+003,1.421953e-003
1.267023e+003,1.649094e-003
1.268951e+003,1.904340e-003
1.270880e+003,2.242360e-003
1.272808e+003,2.573443e-003
1.274737e+003,2.794784e-003
1.276665e+003,3.070959e-003
1.278594e+003,3.286144e-003
1.280522e+003,3.475482e-003
1.282451e+003,3.684050e-003
1.284379e+003,3.888372e-003
1.286308e+003,4.427932e-003
1.288236e+003,4.765042e-003
1.290165e+003,4.845347e-003
1.292093e+003,5.091249e-003
1.294022e+003,5.194081e-003
1.295950e+003,5.485545e-003
1.297879e+003,5.624251e-003
1.299807e+003,5.540277e-003
1.301736e+003,5.478901e-003
1.303664e+003,5.448938e-003
1.305593e+003,5.510343e-003
1.307521e+003,5.442093e-003
1.309450e+003,5.162964e-003
1.311378e+003,4.937766e-003
1.313307e+003,4.817505e-003
1.315235e+003,4.678789e-003
1.317164e+003,4.487419e-003
1.319092e+003,4.109949e-003
1.321021e+003,3.706239e-003
1.322949e+003,3.478955e-003
1.324878e+003,3.297929e-003
1.326806e+003,3.122151e-003
1.328735e+003,3.025346e-003
1.330663e+003,2.956785e-003
1.332592e+003,2.813726e-003
1.334520e+003,2.787514e-003
1.336449e+003,2.796518e-003
1.338377e+003,2.647578e-003
1.340306e+003,2.558278e-003
1.342234e+003,2.576910e-003
1.344163e+003,2.527849e-003
1.346091e+003,2.447104e-003
1.348020e+003,2.400590e-003
1.349948e+003,2.263842e-003
1.351877e+003,2.056088e-003
1.353805e+003,1.958190e-003
1.355734e+003,1.799555e-003
1.357662e+003,1.565852e-003
1.359591e+003,1.395526e-003
1.361519e+003,1.213140e-003
1.363448e+003,1.133137e-003
1.365376e+003,1.071085e-003
1.367305e+003,9.165262e-004
1.369233e+003,8.320633e-004
1.371162e+003,7.014173e-004
1.373090e+003,6.795141e-004
1.375019e+003,7.622876e-004
1.376947e+003,8.227017e-004
1.378876e+003,8.776792e-004
1.380804e+003,9.150652e-004
1.382733e+003,8.346527e-004
1.384661e+003,6.420156e-004
1.386590e+003,4.095641e-004
1.388518e+003,2.445318e-004
1.390447e+003,2.349839e-004
1.392375e+003,1.192326e-004
1.394304e+003,-1.539797e-004
1.396232e+003,-2.322738e-004
1.398161e+003,-2.388639e-004
1.400089e+003,-1.877963e-004
1.402018e+003,-2.452220e-004
1.403946e+003,-2.942300e-004
1.405875e+003,-2.249550e-004
1.407803e+003,-1.603723e-004
1.409732e+003,-1.680233e-004
1.411660e+003,-1.385776e-004
1.413589e+003,2.799917e-005
1.415517e+003,2.678056e-004
1.417446e+003,5.712087e-004
1.419374e+003,1.035014e-003
1.421303e+003,1.659903e-003
1.423231e+003,2.228938e-003
1.425160e+003,2.781412e-003
1.427088e+003,3.211533e-003
1.429017e+003,3.458181e-003
1.430945e+003,3.766295e-003
1.432874e+003,4.072354e-003
1.434802e+003,4.252031e-003
1.436731e+003,4.459532e-003
1.438659e+003,4.953920e-003
1.440588e+003,5.269302e-003
1.442516e+003,5.613140e-003
1.444445e+003,5.940859e-003
1.446373e+003,6.289735e-003
1.448302e+003,6.664260e-003
1.450230e+003,7.099424e-003
1.452159e+003,7.563684e-003
1.454087e+003,7.884207e-003
1.456016e+003,7.664608e-003
1.457944e+003,7.739583e-003
1.459873e+003,8.153712e-003
1.461801e+003,8.278076e-003
1.463730e+003,8.178326e-003
1.465658e+003,8.142876e-003
1.467587e+003,8.103208e-003
1.469515e+003,7.961784e-003
1.471444e+003,7.730544e-003
1.473372e+003,7.504280e-003
1.475301e+003,7.416673e-003
1.477229e+003,7.108619e-003
1.479158e+003,6.842925e-003
1.481086e+003,6.343526e-003
1.483015e+003,5.840268e-003
1.484943e+003,5.404114e-003
1.486872e+003,4.985424e-003
1.488800e+003,4.620113e-003
1.490729e+003,4.204821e-003
1.492657e+003,3.831340e-003
1.494586e+003,3.607567e-003
1.496514e+003,3.248520e-003
1.498443e+003,2.863553e-003
1.500371e+003,2.555345e-003
1.502300e+003,2.444238e-003
1.504228e+003,2.190872e-003
1.506157e+003,1.696758e-003
1.508085e+003,1.573001e-003
1.510014e+003,1.567581e-003
1.511942e+003,1.476042e-003
1.513871e+003,1.401243e-003
1.515799e+003,1.285779e-003
1.517728e+003,1.362021e-003
1.519656e+003,1.388579e-003
1.521585e+003,1.433821e-003
1.523513e+003,1.799422e-003
1.525442e+003,2.024063e-003
1.527370e+003,2.136294e-003
1.529299e+003,2.254283e-003
1.531227e+003,2.433576e-003
1.533156e+003,2.758370e-003
1.535084e+003,3.093951e-003
1.537013e+003,3.195144e-003
1.538941e+003,3.190371e-003
1.540870e+003,3.408186e-003
1.542798e+003,3.802193e-003
1.544727e+003,4.218538e-003
1.546655e+003,4.564760e-003
1.548584e+003,4.765209e-003
1.550512e+003,4.929522e-003
1.552441e+003,5.023836e-003
1.554369e+003,5.114415e-003
1.556298e+003,5.297844e-003
1.558226e+003,5.302338e-003
1.560155e+003,5.675341e-003
1.562083e+003,6.359227e-003
1.564012e+003,6.766523e-003
1.565940e+003,7.032609e-003
1.567869e+003,7.142773e-003
1.569797e+003,7.247103e-003
1.571726e+003,7.459581e-003
1.573654e+003,7.471986e-003
1.575583e+003,7.344685e-003
1.577511e+003,7.358469e-003
1.579440e+003,7.401843e-003
1.581368e+003,7.344180e-003
1.583297e+003,7.197277e-003
1.585225e+003,7.046685e-003
1.587154e+003,6.859452e-003
1.589082e+003,6.495354e-003
1.591010e+003,6.013656e-003
1.592939e+003,5.541418e-003
1.594868e+003,5.123266e-003
1.596796e+003,4.714996e-003
1.598724e+003,4.337128e-003
1.600653e+003,3.760279e-003
1.602582e+003,3.291352e-003
1.604510e+003,2.913385e-003
1.606438e+003,2.493256e-003
1.608367e+003,2.059351e-003
1.610296e+003,1.775367e-003
1.612224e+003,1.324530e-003
1.614152e+003,1.000507e-003
1.616081e+003,6.343835e-004
1.618010e+003,4.712891e-004
1.619938e+003,3.934792e-004
1.621866e+003,5.838610e-005
1.623795e+003,-2.771110e-004
1.625724e+003,-2.583024e-004
1.627652e+003,-4.062652e-004
1.629580e+003,-6.008014e-004
1.631509e+003,-7.130883e-004
1.633438e+003,-8.830515e-004
1.635366e+003,-1.279935e-003
1.637294e+003,-1.560127e-003
1.639223e+003,-1.732927e-003
1.641151e+003,-1.990004e-003
1.643080e+003,-2.445485e-003
1.645008e+003,-2.972037e-003
1.646937e+003,-3.288398e-003
1.648865e+003,-3.379938e-003
1.650794e+003,-3.732928e-003
1.652722e+003,-4.316846e-003
1.654651e+003,-4.579087e-003
1.656579e+003,-4.670552e-003
1.658508e+003,-4.972347e-003
1.660436e+003,-5.201257e-003
1.662365e+003,-5.386982e-003
1.664293e+003,-5.554112e-003
1.666222e+003,-5.694591e-003
1.668150e+003,-5.977212e-003
1.670079e+003,-6.200464e-003
1.672007e+003,-6.180800e-003
1.673936e+003,-6.212191e-003
1.675864e+003,-6.267258e-003
1.677793e+003,-6.179036e-003
1.679721e+003,-6.037308e-003
1.681650e+003,-6.028648e-003
1.683578e+003,-6.125232e-003
1.685507e+003,-5.906026e-003
1.687435e+003,-5.657734e-003
1.689364e+003,-5.462702e-003
1.691292e+003,-5.250265e-003
1.693221e+003,-5.185967e-003
1.695149e+003,-5.246271e-003
1.697078e+003,-5.057179e-003
1.699006e+003,-5.077648e-003
1.700935e+003,-5.179321e-003
1.702863e+003,-4.927697e-003
1.704792e+003,-4.813283e-003
1.706720e+003,-4.723422e-003
1.708649e+003,-4.731550e-003
1.710577e+003,-4.744627e-003
1.712506e+003,-4.792606e-003
1.714434e+003,-4.943782e-003
1.716363e+003,-5.168320e-003
1.718291e+003,-5.231082e-003
1.720220e+003,-5.051414e-003
1.722148e+003,-5.015748e-003
1.724077e+003,-5.090354e-003
1.726005e+003,-5.072277e-003
1.727934e+003,-5.052332e-003
1.729862e+003,-5.031240e-003
1.731791e+003,-5.067233e-003
1.733719e+003,-5.309742e-003
1.735648e+003,-5.363026e-003
1.737576e+003,-5.237072e-003
1.739505e+003,-5.218150e-003
1.741433e+003,-5.172019e-003
1.743362e+003,-5.136100e-003
1.745290e+003,-4.945780e-003
1.747219e+003,-4.795686e-003
1.749147e+003,-4.718341e-003
1.751076e+003,-4.696217e-003
1.753004e+003,-4.603873e-003
1.754933e+003,-4.446576e-003
1.756861e+003,-4.394755e-003
1.758790e+003,-4.393738e-003
1.760718e+003,-4.364052e-003
1.762647e+003,-4.272326e-003
1.764575e+003,-4.190983e-003
1.766504e+003,-4.220024e-003
1.768432e+003,-4.208375e-003
1.770361e+003,-4.205061e-003
1.772289e+003,-4.273737e-003
1.774218e+003,-4.133618e-003
1.776146e+003,-4.051264e-003
1.778075e+003,-4.029466e-003
1.780003e+003,-4.058485e-003
1.781932e+003,-4.106081e-003
1.783860e+003,-4.077360e-003
1.785789e+003,-3.904439e-003
1.787717e+003,-3.825392e-003
1.789646e+003,-3.882930e-003
1.791574e+003,-3.999428e-003
1.793503e+003,-4.031699e-003
1.795431e+003,-3.970766e-003
1.797360e+003,-3.923156e-003
1.799288e+003,-3.876822e-003
1.801217e+003,-3.931267e-003
1.803145e+003,-3.952347e-003
1.805074e+003,-3.843620e-003
1.807002e+003,-3.716141e-003
1.808931e+003,-3.814784e-003
1.810859e+003,-3.777734e-003
1.812788e+003,-3.701621e-003
1.814716e+003,-3.816525e-003
1.816645e+003,-3.869499e-003
1.818573e+003,-3.897905e-003
1.820502e+003,-3.966859e-003
1.822430e+003,-3.999559e-003
1.824359e+003,-4.050837e-003
1.826287e+003,-4.060750e-003
1.828216e+003,-4.113531e-003
1.830144e+003,-4.137786e-003
1.832073e+003,-3.979696e-003
1.834001e+003,-3.912682e-003
1.835930e+003,-4.024280e-003
1.837858e+003,-4.137523e-003
1.839787e+003,-4.169652e-003
1.841715e+003,-4.113662e-003
1.843644e+003,-4.207358e-003
1.845572e+003,-4.253854e-003
1.847501e+003,-4.162137e-003
1.849429e+003,-4.118028e-003
1.851358e+003,-4.123049e-003
1.853286e+003,-4.085041e-003
1.855215e+003,-3.970832e-003
1.857143e+003,-3.963674e-003
1.859072e+003,-4.022999e-003
1.861000e+003,-4.031469e-003
1.862929e+003,-3.952347e-003
1.864857e+003,-3.881584e-003
1.866786e+003,-3.961934e-003
1.868714e+003,-4.010820e-003
1.870643e+003,-3.911466e-003
1.872571e+003,-3.789789e-003
1.874500e+003,-3.725110e-003
1.876428e+003,-3.733749e-003
1.878357e+003,-3.718309e-003
1.880285e+003,-3.702705e-003
1.882214e+003,-3.704347e-003
1.884142e+003,-3.776453e-003
1.886071e+003,-3.809102e-003
1.887999e+003,-3.701982e-003
1.889928e+003,-3.601408e-003
1.891856e+003,-3.562631e-003
1.893785e+003,-3.546626e-003
1.895713e+003,-3.523554e-003
1.897642e+003,-3.438916e-003
1.899570e+003,-3.448613e-003
1.901499e+003,-3.465476e-003
1.903427e+003,-3.400453e-003
1.905356e+003,-3.464556e-003
1.907284e+003,-3.432900e-003
1.909213e+003,-3.348112e-003
1.911141e+003,-3.378721e-003
1.913070e+003,-3.428495e-003
1.914998e+003,-3.481549e-003
1.916927e+003,-3.510506e-003
1.918855e+003,-3.555992e-003
1.920784e+003,-3.473496e-003
1.922712e+003,-3.475468e-003
1.924641e+003,-3.495256e-003
1.926569e+003,-3.489931e-003
1.928498e+003,-3.510243e-003
1.930426e+003,-3.488485e-003
1.932355e+003,-3.501008e-003
1.934283e+003,-3.549847e-003
1.936212e+003,-3.484179e-003
1.938140e+003,-3.442269e-003
1.940069e+003,-3.530949e-003
1.941997e+003,-3.624870e-003
1.943926e+003,-3.610543e-003
1.945854e+003,-3.562532e-003
1.947783e+003,-3.649513e-003
1.949711e+003,-3.687658e-003
1.951640e+003,-3.684570e-003
1.953568e+003,-3.676914e-003
1.955497e+003,-3.693999e-003
1.957425e+003,-3.691075e-003
1.959354e+003,-3.696495e-003
1.961282e+003,-3.663838e-003
1.963211e+003,-3.719065e-003
1.965139e+003,-3.753722e-003
1.967068e+003,-3.757401e-003
1.968996e+003,-3.723467e-003
1.970925e+003,-3.611299e-003
1.972853e+003,-3.604497e-003
1.974782e+003,-3.587705e-003
1.976710e+003,-3.593948e-003
1.978639e+003,-3.620696e-003
1.980567e+003,-3.618298e-003
1.982496e+003,-3.536799e-003
1.984424e+003,-3.480760e-003
1.986353e+003,-3.517869e-003
1.988281e+003,-3.488288e-003
1.990210e+003,-3.397363e-003
1.992138e+003,-3.333611e-003
1.994067e+003,-3.359126e-003
1.995995e+003,-3.373889e-003
1.997924e+003,-3.263669e-003
1.999852e+003,-3.153289e-003
2.001781e+003,-3.239365e-003
2.003709e+003,-3.369581e-003
2.005638e+003,-3.332230e-003
2.007566e+003,-3.302933e-003
2.009495e+003,-3.342127e-003
2.011423e+003,-3.310430e-003
2.013352e+003,-3.147599e-003
2.015280e+003,-3.128782e-003
2.017208e+003,-3.228216e-003
2.019137e+003,-3.269489e-003
2.021066e+003,-3.225486e-003
2.022994e+003,-3.171480e-003
2.024922e+003,-3.130559e-003
2.026851e+003,-3.091213e-003
2.028780e+003,-3.081640e-003
2.030708e+003,-3.048212e-003
2.032636e+003,-2.985858e-003
2.034565e+003,-3.004154e-003
2.036494e+003,-3.123782e-003
2.038422e+003,-3.119670e-003
2.040350e+003,-3.009057e-003
2.042279e+003,-2.976446e-003
2.044208e+003,-3.013630e-003
2.046136e+003,-3.056964e-003
2.048064e+003,-3.024160e-003
2.049993e+003,-2.955517e-003
2.051921e+003,-2.998560e-003
2.053850e+003,-3.029293e-003
2.055778e+003,-2.967034e-003
2.057707e+003,-2.915727e-003
2.059635e+003,-2.855230e-003
2.061564e+003,-2.855296e-003
2.063492e+003,-2.910165e-003
2.065421e+003,-2.917505e-003
2.067349e+003,-2.884459e-003
2.069278e+003,-2.916583e-003
2.071206e+003,-2.934388e-003
2.073135e+003,-2.907697e-003
2.075063e+003,-2.826657e-003
2.076992e+003,-2.825472e-003
2.078920e+003,-2.835908e-003
2.080849e+003,-2.815366e-003
2.082777e+003,-2.735956e-003
2.084706e+003,-2.648726e-003
2.086634e+003,-2.654193e-003
2.088563e+003,-2.650702e-003
2.090491e+003,-2.542110e-003
2.092420e+003,-2.445419e-003
2.094348e+003,-2.477048e-003
2.096277e+003,-2.449900e-003
2.098205e+003,-2.392402e-003
2.100134e+003,-2.417115e-003
2.102062e+003,-2.341587e-003
2.103991e+003,-2.202063e-003
2.105919e+003,-2.138894e-003
2.107848e+003,-2.164611e-003
2.109776e+003,-2.153731e-003
2.111705e+003,-2.063779e-003
2.113633e+003,-1.950126e-003
2.115562e+003,-1.913510e-003
2.117490e+003,-1.923011e-003
2.119419e+003,-1.835981e-003
2.121347e+003,-1.784441e-003
2.123276e+003,-1.799223e-003
2.125204e+003,-1.789786e-003
2.127133e+003,-1.774838e-003
2.129061e+003,-1.677909e-003
2.130990e+003,-1.629619e-003
2.132918e+003,-1.607138e-003
2.134847e+003,-1.549034e-003
2.136775e+003,-1.514894e-003
2.138704e+003,-1.546657e-003
2.140632e+003,-1.517799e-003
2.142561e+003,-1.506474e-003
2.144489e+003,-1.607600e-003
2.146418e+003,-1.591193e-003
2.148346e+003,-1.519384e-003
2.150275e+003,-1.522851e-003
2.152203e+003,-1.597036e-003
2.154132e+003,-1.604761e-003
2.156060e+003,-1.551609e-003
2.157989e+003,-1.634273e-003
2.159917e+003,-1.613872e-003
2.161846e+003,-1.512153e-003
2.163774e+003,-1.526615e-003
2.165703e+003,-1.595584e-003
2.167631e+003,-1.617603e-003
2.169560e+003,-1.498219e-003
2.171488e+003,-1.391981e-003
2.173417e+003,-1.429763e-003
2.175345e+003,-1.517998e-003
2.177274e+003,-1.560358e-003
2.179202e+003,-1.558806e-003
2.181131e+003,-1.511328e-003
2.183059e+003,-1.534705e-003
2.184988e+003,-1.563594e-003
2.186916e+003,-1.558080e-003
2.188845e+003,-1.583468e-003
2.190773e+003,-1.537544e-003
2.192702e+003,-1.414274e-003
2.194630e+003,-1.426626e-003
2.196559e+003,-1.563131e-003
2.198487e+003,-1.610538e-003
2.200416e+003,-1.575215e-003
2.202344e+003,-1.536917e-003
2.204273e+003,-1.504427e-003
2.206201e+003,-1.465066e-003
2.208130e+003,-1.468302e-003
2.210058e+003,-1.494257e-003
2.211987e+003,-1.531667e-003
2.213915e+003,-1.501785e-003
2.215844e+003,-1.567720e-003
2.217772e+003,-1.585614e-003
2.219701e+003,-1.457636e-003
2.221629e+003,-1.438218e-003
2.223558e+003,-1.410410e-003
2.225486e+003,-1.451758e-003
2.227415e+003,-1.480586e-003
2.229343e+003,-1.498186e-003
2.231272e+003,-1.431250e-003
2.233200e+003,-1.378968e-003
2.235129e+003,-1.417643e-003
2.237057e+003,-1.511493e-003
2.238986e+003,-1.568810e-003
2.240914e+003,-1.571385e-003
2.242843e+003,-1.532591e-003
2.244771e+003,-1.507299e-003
2.246700e+003,-1.531205e-003
2.248628e+003,-1.528365e-003
2.250557e+003,-1.501785e-003
2.252485e+003,-1.521597e-003
2.254414e+003,-1.547845e-003
2.256342e+003,-1.543982e-003
2.258271e+003,-1.594197e-003
2.260199e+003,-1.641106e-003
2.262128e+003,-1.683157e-003
2.264056e+003,-1.594858e-003
2.265985e+003,-1.563693e-003
2.267913e+003,-1.689692e-003
2.269842e+003,-1.765763e-003
2.271770e+003,-1.773353e-003
2.273699e+003,-1.791172e-003
2.275627e+003,-1.846044e-003
2.277556e+003,-1.896983e-003
2.279484e+003,-1.927596e-003
2.281413e+003,-1.933468e-003
2.283341e+003,-1.952534e-003
2.285270e+003,-2.025623e-003
2.287198e+003,-1.988816e-003
2.289127e+003,-1.950126e-003
2.291055e+003,-1.932379e-003
2.292984e+003,-1.937987e-003
2.294912e+003,-1.965893e-003
2.296841e+003,-1.934424e-003
2.298769e+003,-1.971203e-003
2.300698e+003,-2.051940e-003
2.302626e+003,-1.942209e-003
2.304555e+003,-1.844031e-003
2.306483e+003,-1.888867e-003
2.308412e+003,-1.869040e-003
2.310340e+003,-1.895465e-003
2.312269e+003,-1.931489e-003
2.314197e+003,-1.852280e-003
2.316125e+003,-1.698043e-003
2.318054e+003,-1.657115e-003
2.319983e+003,-1.693983e-003
2.321911e+003,-1.709363e-003
2.323840e+003,-1.767809e-003
2.325768e+003,-1.668602e-003
2.327697e+003,-1.596673e-003
2.329625e+003,-1.563693e-003
2.331553e+003,-1.615226e-003
2.333482e+003,-1.669295e-003
2.335411e+003,-1.606709e-003
2.337339e+003,-1.533582e-003
2.339268e+003,-1.578351e-003
2.341196e+003,-1.549727e-003
2.343125e+003,-1.533318e-003
2.345053e+003,-1.523809e-003
2.346981e+003,-1.378142e-003
2.348910e+003,-1.349967e-003
2.350839e+003,-1.323244e-003
2.352767e+003,-1.284230e-003
2.354696e+003,-1.316935e-003
2.356624e+003,-1.333319e-003
2.358552e+003,-1.337184e-003
2.360481e+003,-1.393467e-003
2.362409e+003,-1.514332e-003
2.364338e+003,-1.525162e-003
2.366267e+003,-1.401493e-003
2.368195e+003,-1.412062e-003
2.370124e+003,-1.420252e-003
2.372052e+003,-1.401262e-003
2.373980e+003,-1.361132e-003
2.375909e+003,-1.310427e-003
2.377838e+003,-1.175032e-003
2.379766e+003,-1.064682e-003
2.381695e+003,-1.066434e-003
2.383623e+003,-1.036157e-003
2.385552e+003,-8.946909e-004
2.387480e+003,-8.231635e-004
2.389408e+003,-7.776881e-004
2.391337e+003,-7.590335e-004
2.393266e+003,-8.087442e-004
2.395194e+003,-7.445791e-004
2.397123e+003,-6.746811e-004
2.399051e+003,-7.117321e-004
2.400979e+003,-7.676333e-004
2.402908e+003,-7.387243e-004
2.404836e+003,-6.614479e-004
2.406765e+003,-6.423251e-004
2.408694e+003,-6.247897e-004
2.410622e+003,-6.127461e-004
2.412551e+003,-5.887240e-004
2.414479e+003,-5.667523e-004
2.416407e+003,-5.916689e-004
2.418336e+003,-5.556667e-004
2.420264e+003,-4.852419e-004
2.422193e+003,-4.479068e-004
2.424122e+003,-3.864029e-004
2.426050e+003,-3.119112e-004
2.427979e+003,-2.314127e-004
2.429907e+003,-1.443741e-004
2.431835e+003,-5.046021e-005
2.433764e+003,-7.388828e-006
2.435692e+003,-6.348018e-005
2.437621e+003,-6.387773e-005
2.439550e+003,5.010156e-005
2.441478e+003,9.430972e-005
2.443406e+003,8.668730e-005
2.445335e+003,8.287614e-005
2.447263e+003,6.922252e-005
2.449192e+003,3.320158e-005
2.451121e+003,1.016340e-004
2.453049e+003,2.156899e-004
2.454978e+003,2.906165e-004
2.456906e+003,3.049402e-004
2.458834e+003,2.934016e-004
2.460763e+003,3.800812e-004
2.462691e+003,4.644562e-004
2.464620e+003,5.129527e-004
2.466549e+003,5.944005e-004
2.468477e+003,5.815934e-004
2.470406e+003,5.603266e-004
2.472334e+003,5.009110e-004
2.474262e+003,5.725358e-004
2.476191e+003,6.983309e-004
2.478119e+003,7.042715e-004
2.480048e+003,6.269839e-004
2.481977e+003,5.656349e-004
2.483905e+003,5.960595e-004
2.485833e+003,6.220398e-004
2.487762e+003,7.168830e-004
2.489690e+003,8.224694e-004
2.491619e+003,7.785853e-004
2.493547e+003,8.290756e-004
2.495476e+003,8.547711e-004
2.497405e+003,8.625730e-004
2.499333e+003,9.258566e-004
2.501261e+003,1.007083e-003
2.503190e+003,8.746247e-004
2.505118e+003,7.609267e-004
2.507047e+003,7.419745e-004
2.508975e+003,8.881377e-004
2.510904e+003,9.826404e-004
2.512833e+003,1.013792e-003
2.514761e+003,1.003895e-003
2.516689e+003,9.675970e-004
2.518618e+003,1.013958e-003
2.520546e+003,1.028671e-003
2.522475e+003,1.017478e-003
2.524403e+003,1.011367e-003
2.526332e+003,1.099685e-003
2.528260e+003,1.187921e-003
2.530189e+003,1.222044e-003
2.532117e+003,1.276474e-003
2.534046e+003,1.239356e-003
2.535974e+003,1.245803e-003
2.537903e+003,1.311535e-003
2.539831e+003,1.232245e-003
2.541760e+003,1.139416e-003
2.543688e+003,1.168452e-003
2.545617e+003,1.218257e-003
2.547545e+003,1.279897e-003
2.549474e+003,1.371161e-003
2.551402e+003,1.391039e-003
2.553331e+003,1.370197e-003
2.555259e+003,1.351584e-003
2.557188e+003,1.406296e-003
2.559116e+003,1.383493e-003
2.561045e+003,1.413111e-003
2.562973e+003,1.508725e-003
2.564902e+003,1.479633e-003
2.566830e+003,1.400479e-003
2.568759e+003,1.448615e-003
2.570687e+003,1.454067e-003
2.572616e+003,1.477040e-003
2.574544e+003,1.580450e-003
2.576473e+003,1.602465e-003
2.578401e+003,1.586669e-003
2.580330e+003,1.601601e-003
2.582258e+003,1.617631e-003
2.584187e+003,1.630867e-003
2.586115e+003,1.638949e-003
2.588044e+003,1.718812e-003
2.589972e+003,1.750382e-003
2.591901e+003,1.729457e-003
2.593829e+003,1.748320e-003
2.595758e+003,1.712558e-003
2.597686e+003,1.677033e-003
2.599615e+003,1.814993e-003
2.601543e+003,1.928468e-003
2.603472e+003,1.814361e-003
2.605400e+003,1.710163e-003
2.607329e+003,1.748652e-003
2.609257e+003,1.829966e-003
2.611186e+003,1.793666e-003
2.613114e+003,1.792169e-003
2.615043e+003,1.810102e-003
2.616971e+003,1.883840e-003
2.618900e+003,1.898649e-003
2.620828e+003,1.899015e-003
2.622757e+003,1.984951e-003
2.624685e+003,2.053126e-003
2.626614e+003,2.049397e-003
2.628542e+003,1.919782e-003
2.630471e+003,1.854789e-003
2.632399e+003,1.934859e-003
2.634328e+003,1.994770e-003
2.636256e+003,1.917153e-003
2.638185e+003,1.976263e-003
2.640113e+003,2.095074e-003
2.642042e+003,2.074166e-003
2.643970e+003,2.112821e-003
2.645899e+003,2.252851e-003
2.647827e+003,2.328663e-003
2.649756e+003,2.345319e-003
2.651684e+003,2.300548e-003
2.653613e+003,2.293553e-003
2.655541e+003,2.373637e-003
2.657470e+003,2.413684e-003
2.659398e+003,2.488558e-003
2.661327e+003,2.518684e-003
2.663255e+003,2.474028e-003
2.665184e+003,2.513218e-003
2.667112e+003,2.555478e-003
2.669041e+003,2.570910e-003
2.670969e+003,2.510119e-003
2.672898e+003,2.574310e-003
2.674826e+003,2.712722e-003
2.676755e+003,2.812292e-003
2.678683e+003,2.787114e-003
2.680612e+003,2.834636e-003
2.682540e+003,2.875894e-003
2.684469e+003,2.799886e-003
2.686397e+003,2.807256e-003
2.688326e+003,2.791016e-003
2.690254e+003,2.895907e-003
2.692183e+003,2.973666e-003
2.694111e+003,3.001991e-003
2.696040e+003,3.120616e-003
2.697968e+003,3.165304e-003
2.699897e+003,3.105198e-003
2.701825e+003,3.113707e-003
2.703754e+003,3.189236e-003
2.705682e+003,3.276328e-003
2.707611e+003,3.362003e-003
2.709539e+003,3.441615e-003
2.711468e+003,3.400271e-003
2.713396e+003,3.437073e-003
2.715325e+003,3.455943e-003
2.717253e+003,3.415098e-003
2.719182e+003,3.433032e-003
2.721110e+003,3.535005e-003
2.723039e+003,3.541285e-003
2.724967e+003,3.543858e-003
2.726896e+003,3.696347e-003
2.728824e+003,3.688227e-003
2.730753e+003,3.584848e-003
2.732681e+003,3.711285e-003
2.734610e+003,3.863031e-003
2.736538e+003,3.844110e-003
2.738467e+003,3.791296e-003
2.740395e+003,3.964838e-003
2.742324e+003,4.061149e-003
2.744252e+003,4.108176e-003
2.746181e+003,4.102791e-003
2.748109e+003,4.207230e-003
2.750038e+003,4.341913e-003
2.751966e+003,4.385222e-003
2.753895e+003,4.398744e-003
2.755823e+003,4.434660e-003
2.757752e+003,4.529603e-003
2.759680e+003,4.642316e-003
2.761609e+003,4.805377e-003
2.763537e+003,5.014517e-003
2.765466e+003,5.161791e-003
2.767394e+003,5.339034e-003
2.769323e+003,5.570683e-003
2.771251e+003,5.858604e-003
2.773180e+003,6.224119e-003
2.775108e+003,6.554015e-003
2.777037e+003,6.772817e-003
2.778965e+003,7.017691e-003
2.780894e+003,7.414684e-003
2.782822e+003,7.818046e-003
2.784750e+003,8.184133e-003
2.786679e+003,8.602980e-003
2.788608e+003,9.055994e-003
2.790536e+003,9.433014e-003
2.792465e+003,9.719340e-003
2.794393e+003,1.004231e-002
2.796322e+003,1.037091e-002
2.798250e+003,1.071698e-002
2.800178e+003,1.111829e-002
2.802107e+003,1.136658e-002
2.804036e+003,1.158064e-002
2.805964e+003,1.183712e-002
2.807893e+003,1.199603e-002
2.809821e+003,1.194276e-002
2.811750e+003,1.185898e-002
2.813678e+003,1.184836e-002
2.815606e+003,1.179974e-002
2.817535e+003,1.171017e-002
2.819464e+003,1.156607e-002
2.821392e+003,1.139566e-002
2.823321e+003,1.111421e-002
2.825249e+003,1.072085e-002
2.827177e+003,1.046180e-002
2.829106e+003,1.027607e-002
2.831034e+003,9.947947e-003
2.832963e+003,9.605539e-003
2.834892e+003,9.299552e-003
2.836820e+003,8.859472e-003
2.838749e+003,8.515893e-003
2.840677e+003,8.125387e-003
2.842605e+003,7.582801e-003
2.844534e+003,7.000383e-003
2.846462e+003,6.490443e-003
2.848391e+003,6.040063e-003
2.850320e+003,5.791508e-003
2.852248e+003,5.719555e-003
2.854177e+003,5.638886e-003
2.856105e+003,5.419614e-003
2.858033e+003,5.327764e-003
2.859962e+003,5.471318e-003
2.861890e+003,5.463298e-003
2.863819e+003,5.482793e-003
2.865748e+003,5.553298e-003
2.867676e+003,5.602433e-003
2.869604e+003,5.646036e-003
2.871533e+003,5.599446e-003
2.873461e+003,5.709819e-003
2.875390e+003,5.878587e-003
2.877319e+003,5.990945e-003
2.879247e+003,6.081458e-003
2.881176e+003,6.087372e-003
2.883104e+003,6.020409e-003
2.885032e+003,5.998807e-003
2.886961e+003,6.073595e-003
2.888889e+003,5.998807e-003
2.890818e+003,5.804470e-003
2.892747e+003,5.614886e-003
2.894675e+003,5.619451e-003
2.896604e+003,5.616765e-003
2.898532e+003,5.525477e-003
2.900460e+003,5.415622e-003
2.902389e+003,5.409583e-003
2.904317e+003,5.336887e-003
2.906246e+003,5.207897e-003
2.908175e+003,5.155018e-003
2.910103e+003,5.038115e-003
2.912031e+003,4.800117e-003
2.913960e+003,4.479150e-003
2.915888e+003,4.219709e-003
2.917817e+003,4.195687e-003
2.919745e+003,4.239818e-003
2.921674e+003,4.317216e-003
2.923603e+003,4.261567e-003
2.925531e+003,4.270902e-003
2.927459e+003,4.469006e-003
2.929388e+003,4.617769e-003
2.931316e+003,4.766281e-003
2.933245e+003,4.905226e-003
2.935173e+003,5.076867e-003
2.937102e+003,5.148110e-003
2.939031e+003,5.123098e-003
2.940959e+003,5.134598e-003
2.942887e+003,5.037847e-003
2.944816e+003,4.892325e-003
2.946744e+003,4.751709e-003
2.948673e+003,4.539748e-003
2.950601e+003,4.207799e-003
2.952530e+003,3.881986e-003
2.954458e+003,3.541319e-003
2.956387e+003,3.207928e-003
2.958315e+003,2.805656e-003
2.960244e+003,2.410386e-003
2.962172e+003,2.096506e-003
2.964101e+003,1.876985e-003
2.966029e+003,1.640679e-003
2.967958e+003,1.310372e-003
2.969886e+003,1.078492e-003
2.971815e+003,9.272512e-004
2.973743e+003,7.744030e-004
2.975672e+003,6.339853e-004
2.977600e+003,4.927175e-004
2.979529e+003,5.145450e-004
2.981457e+003,3.129975e-004
2.983386e+003,8.867574e-005
2.985314e+003,-8.537803e-005
2.987243e+003,-2.681041e-004
2.989171e+003,-2.597263e-004
2.991100e+003,-2.085949e-004
2.993028e+003,-2.854222e-004
2.994957e+003,-3.606137e-004
2.996885e+003,-3.976252e-004
2.998814e+003,-4.603191e-004
3.000742e+003,-6.343516e-004
3.002671e+003,-6.884433e-004
3.004599e+003,-6.465600e-004
3.006528e+003,-6.005698e-004
3.008456e+003,-6.498685e-004
3.010385e+003,-7.729253e-004
3.012313e+003,-7.170248e-004
3.014242e+003,-6.250544e-004
3.016170e+003,-6.336899e-004
3.018099e+003,-6.150953e-004
3.020027e+003,-5.183046e-004
3.021956e+003,-5.184370e-004
3.023884e+003,-6.394798e-004
3.025813e+003,-7.161978e-004
3.027741e+003,-8.177398e-004
3.029670e+003,-7.100450e-004
3.031598e+003,-5.568249e-004
3.033527e+003,-6.509933e-004
3.035455e+003,-7.584713e-004
3.037384e+003,-7.471921e-004
3.039312e+003,-8.185666e-004
3.041241e+003,-9.195226e-004
3.043169e+003,-9.813809e-004
3.045098e+003,-9.264991e-004
3.047026e+003,-9.026266e-004
3.048955e+003,-1.020356e-003
3.050883e+003,-1.132634e-003
3.052812e+003,-1.133162e-003
3.054740e+003,-1.093768e-003
3.056669e+003,-1.146018e-003
3.058597e+003,-1.221589e-003
3.060526e+003,-1.225224e-003
3.062454e+003,-1.074499e-003
3.064383e+003,-1.059823e-003
3.066311e+003,-1.167795e-003
3.068240e+003,-1.225620e-003
3.070168e+003,-1.347820e-003
3.072097e+003,-1.407207e-003
3.074025e+003,-1.280761e-003
3.075954e+003,-1.146183e-003
3.077882e+003,-1.163631e-003
3.079811e+003,-1.277160e-003
3.081739e+003,-1.389471e-003
3.083668e+003,-1.421903e-003
3.085596e+003,-1.389768e-003
3.087525e+003,-1.441157e-003
3.089453e+003,-1.536884e-003
3.091382e+003,-1.559071e-003
3.093310e+003,-1.493431e-003
3.095239e+003,-1.445912e-003
3.097167e+003,-1.434882e-003
3.099096e+003,-1.553425e-003
3.101024e+003,-1.660152e-003
3.102953e+003,-1.653385e-003
3.104881e+003,-1.629552e-003
3.106810e+003,-1.614863e-003
3.108738e+003,-1.523677e-003
3.110667e+003,-1.545699e-003
3.112595e+003,-1.591556e-003
3.114524e+003,-1.508917e-003
3.116452e+003,-1.449611e-003
3.118381e+003,-1.525691e-003
3.120309e+003,-1.682497e-003
3.122238e+003,-1.839082e-003
3.124166e+003,-1.984693e-003
3.126095e+003,-1.987728e-003
3.128023e+003,-1.808826e-003
3.129952e+003,-1.679890e-003
3.131880e+003,-1.616249e-003
3.133809e+003,-1.598918e-003
3.135737e+003,-1.706558e-003
3.137666e+003,-1.596442e-003
3.139594e+003,-1.551147e-003
3.141523e+003,-1.690980e-003
3.143451e+003,-1.775300e-003
3.145380e+003,-1.649259e-003
3.147308e+003,-1.500597e-003
3.149237e+003,-1.657973e-003
3.151165e+003,-1.787575e-003
3.153094e+003,-1.759064e-003
3.155022e+003,-1.742366e-003
3.156951e+003,-1.717383e-003
3.158879e+003,-1.650051e-003
3.160808e+003,-1.508224e-003
3.162736e+003,-1.473817e-003
3.164665e+003,-1.531799e-003
3.166593e+003,-1.706096e-003
3.168522e+003,-1.722136e-003
3.170450e+003,-1.605587e-003
3.172379e+003,-1.506837e-003
3.174307e+003,-1.455192e-003
3.176236e+003,-1.449149e-003
3.178164e+003,-1.565905e-003
3.180093e+003,-1.581289e-003
3.182021e+003,-1.622257e-003
3.183950e+003,-1.625096e-003
3.185878e+003,-1.685633e-003
3.187807e+003,-1.710386e-003
3.189735e+003,-1.723225e-003
3.191664e+003,-1.811498e-003
3.193592e+003,-1.870425e-003
3.195521e+003,-1.838257e-003
3.197449e+003,-1.658798e-003
3.199378e+003,-1.566730e-003
3.201306e+003,-1.541671e-003
3.203235e+003,-1.585812e-003
3.205163e+003,-1.483063e-003
3.207092e+003,-1.508455e-003
3.209020e+003,-1.555406e-003
3.210948e+003,-1.485704e-003
3.212877e+003,-1.450239e-003
3.214806e+003,-1.414010e-003
3.216734e+003,-1.409122e-003
3.218663e+003,-1.438845e-003
3.220591e+003,-1.319875e-003
3.222520e+003,-1.171364e-003
3.224448e+003,-1.207546e-003
3.226376e+003,-1.164490e-003
3.228305e+003,-1.074796e-003
3.230234e+003,-1.082200e-003
3.232162e+003,-1.040553e-003
3.234091e+003,-9.558584e-004
3.236019e+003,-8.449239e-004
3.237948e+003,-7.526167e-004
3.239876e+003,-7.386251e-004
3.241804e+003,-7.062077e-004
3.243733e+003,-7.183480e-004
3.245662e+003,-5.538797e-004
3.247590e+003,-4.653501e-004
3.249519e+003,-4.110320e-004
3.251447e+003,-4.877242e-004
3.253375e+003,-6.252198e-004
3.255304e+003,-6.385534e-004
3.257232e+003,-4.147395e-004
3.259161e+003,-1.479845e-004
3.261090e+003,-1.111836e-004
3.263018e+003,-1.376832e-004
3.264947e+003,-1.324497e-004
3.266875e+003,-1.103223e-004
3.268803e+003,4.748367e-005
3.270732e+003,9.646390e-005
3.272660e+003,1.373623e-004
3.274589e+003,1.574152e-004
3.276518e+003,1.335176e-004
3.278446e+003,9.739186e-005
3.280375e+003,6.203135e-005
3.282303e+003,1.690828e-004
3.284231e+003,1.803197e-004
3.286160e+003,5.825355e-005
3.288088e+003,2.707135e-005
3.290017e+003,-3.203944e-005
3.291946e+003,-9.266602e-005
3.293874e+003,-2.810845e-004
3.295802e+003,-4.137795e-004
3.297731e+003,-4.171891e-004
3.299659e+003,-4.842159e-004
3.301588e+003,-4.100389e-004
3.303516e+003,-4.397311e-004
3.305445e+003,-5.818745e-004
3.307374e+003,-7.656488e-004
3.309302e+003,-8.976337e-004
3.311230e+003,-9.349632e-004
3.313159e+003,-1.095057e-003
3.315087e+003,-1.209198e-003
3.317016e+003,-1.214386e-003
3.318944e+003,-1.321427e-003
3.320873e+003,-1.360570e-003
3.322802e+003,-1.496997e-003
3.324730e+003,-1.771109e-003
3.326658e+003,-1.828161e-003
3.328587e+003,-1.734808e-003
3.330515e+003,-1.624766e-003
3.332444e+003,-1.706987e-003
3.334372e+003,-1.845219e-003
3.336301e+003,-1.808199e-003
3.338229e+003,-1.786387e-003
3.340158e+003,-1.777874e-003
3.342086e+003,-1.771802e-003
3.344015e+003,-1.749065e-003
3.345943e+003,-1.789258e-003
3.347872e+003,-1.999008e-003
3.349800e+003,-2.098766e-003
3.351729e+003,-2.133817e-003
3.353657e+003,-2.260179e-003
3.355586e+003,-2.321286e-003
3.357514e+003,-2.444496e-003
3.359443e+003,-2.413919e-003
3.361371e+003,-2.287503e-003
3.363300e+003,-2.377672e-003
3.365229e+003,-2.628966e-003
3.367157e+003,-2.682909e-003
3.369085e+003,-2.815695e-003
3.371014e+003,-2.924350e-003
3.372942e+003,-3.021429e-003
3.374871e+003,-3.103550e-003
3.376799e+003,-3.063709e-003
3.378728e+003,-3.183420e-003
3.380656e+003,-3.360836e-003
3.382585e+003,-3.525034e-003
3.384513e+003,-3.616655e-003
3.386442e+003,-3.607520e-003
3.388370e+003,-3.546922e-003
3.390299e+003,-3.567264e-003
3.392227e+003,-3.712035e-003
3.394156e+003,-3.747546e-003
3.396084e+003,-3.656741e-003
3.398013e+003,-3.594639e-003
3.399941e+003,-3.664922e-003
3.401870e+003,-3.780263e-003
3.403798e+003,-3.815670e-003
3.405727e+003,-3.820433e-003
3.407655e+003,-3.756547e-003
3.409584e+003,-3.740254e-003
3.411512e+003,-3.800825e-003
3.413441e+003,-3.973228e-003
3.415369e+003,-3.982815e-003
3.417298e+003,-3.862668e-003
3.419226e+003,-3.898003e-003
3.421155e+003,-4.080642e-003
3.423083e+003,-4.060586e-003
3.425012e+003,-3.960522e-003
3.426940e+003,-4.056122e-003
3.428869e+003,-4.108476e-003
3.430797e+003,-3.988429e-003
3.432726e+003,-4.035966e-003
3.434654e+003,-4.122196e-003
3.436583e+003,-4.211985e-003
3.438511e+003,-4.215562e-003
3.440440e+003,-4.173820e-003
3.442368e+003,-4.116124e-003
3.444297e+003,-4.017615e-003
3.446225e+003,-4.044896e-003
3.448154e+003,-4.168143e-003
3.450082e+003,-4.239285e-003
3.452011e+003,-4.315633e-003
3.453939e+003,-4.391081e-003
3.455868e+003,-4.488193e-003
3.457796e+003,-4.316650e-003
3.459725e+003,-4.171162e-003
3.461653e+003,-4.241714e-003
3.463582e+003,-4.412565e-003
3.465510e+003,-4.643409e-003
3.467439e+003,-4.592955e-003
3.469367e+003,-4.504065e-003
3.471296e+003,-4.570464e-003
3.473224e+003,-4.610954e-003
3.475153e+003,-4.592955e-003
3.477081e+003,-4.448052e-003
3.479010e+003,-4.516985e-003
3.480938e+003,-4.634296e-003
3.482867e+003,-4.560693e-003
3.484795e+003,-4.370580e-003
3.486724e+003,-4.361494e-003
3.488652e+003,-4.501769e-003
3.490581e+003,-4.582005e-003
3.492509e+003,-4.644655e-003
3.494438e+003,-4.509902e-003
3.496366e+003,-4.186061e-003
3.498295e+003,-4.265403e-003
3.500223e+003,-4.530035e-003
3.502152e+003,-4.706870e-003
3.504080e+003,-4.762784e-003
3.506009e+003,-4.566168e-003
3.507937e+003,-4.495735e-003
3.509866e+003,-4.485176e-003
3.511794e+003,-4.473698e-003
3.513723e+003,-4.543053e-003
3.515651e+003,-4.605348e-003
3.517580e+003,-4.581939e-003
3.519508e+003,-4.578660e-003
3.521437e+003,-4.573087e-003
3.523365e+003,-4.711590e-003
3.525294e+003,-4.824916e-003
3.527222e+003,-4.722406e-003
3.529151e+003,-4.520821e-003
3.531079e+003,-4.571906e-003
3.533008e+003,-4.613511e-003
3.534936e+003,-4.647146e-003
3.536865e+003,-4.642032e-003
3.538793e+003,-4.450610e-003
3.540722e+003,-4.283219e-003
3.542650e+003,-4.423454e-003
3.544579e+003,-4.468976e-003
3.546507e+003,-4.385078e-003
3.548436e+003,-4.536364e-003
3.550364e+003,-4.704313e-003
3.552293e+003,-4.636722e-003
3.554221e+003,-4.618790e-003
3.556150e+003,-4.663635e-003
3.558078e+003,-4.568267e-003
3.560007e+003,-4.450873e-003
3.561935e+003,-4.252213e-003
3.563864e+003,-4.398297e-003
3.565792e+003,-4.569906e-003
3.567721e+003,-4.588136e-003
3.569649e+003,-4.634820e-003
3.571578e+003,-4.753869e-003
3.573506e+003,-4.663897e-003
3.575435e+003,-4.344797e-003
3.577363e+003,-4.208343e-003
3.579292e+003,-4.261236e-003
3.581220e+003,-4.424733e-003
3.583149e+003,-4.532363e-003
3.585077e+003,-4.308776e-003
3.587006e+003,-4.282726e-003
3.588934e+003,-4.313566e-003
3.590863e+003,-4.305135e-003
3.592791e+003,-4.406202e-003
3.594720e+003,-4.531314e-003
3.596648e+003,-4.432802e-003
3.598577e+003,-4.248374e-003
3.600505e+003,-4.239876e-003
3.602434e+003,-4.246274e-003
3.604362e+003,-4.114745e-003
3.606291e+003,-4.214085e-003
3.608219e+003,-4.298606e-003
3.610148e+003,-4.346699e-003
3.612076e+003,-4.469599e-003
3.614005e+003,-4.429555e-003
3.615933e+003,-4.334398e-003
3.617862e+003,-4.154129e-003
3.619790e+003,-4.051658e-003
3.621719e+003,-4.201156e-003
3.623647e+003,-4.311171e-003
3.625576e+003,-4.286861e-003
3.627504e+003,-4.291749e-003
3.629433e+003,-4.277116e-003
3.631361e+003,-4.293028e-003
3.633290e+003,-4.192493e-003
3.635218e+003,-4.242993e-003
3.637146e+003,-4.341451e-003
3.639075e+003,-4.292110e-003
3.641004e+003,-4.168996e-003
3.642932e+003,-4.240368e-003
3.644861e+003,-4.278986e-003
3.646789e+003,-4.309924e-003
3.648718e+003,-4.570628e-003
3.650646e+003,-4.484258e-003
3.652574e+003,-4.195709e-003
3.654503e+003,-4.187373e-003
3.656432e+003,-4.230032e-003
3.658360e+003,-4.461138e-003
3.660289e+003,-4.638754e-003
3.662217e+003,-4.646326e-003
3.664146e+003,-4.500031e-003
3.666074e+003,-4.536495e-003
3.668002e+003,-4.737548e-003
3.669931e+003,-4.750035e-003
3.671860e+003,-4.734532e-003
3.673788e+003,-4.819378e-003
3.675717e+003,-4.754361e-003
3.677645e+003,-4.499933e-003
3.679573e+003,-4.636853e-003
3.681502e+003,-4.651670e-003
3.683430e+003,-4.638393e-003
3.685359e+003,-4.646490e-003
3.687288e+003,-4.557775e-003
3.689216e+003,-4.542200e-003
3.691145e+003,-4.482257e-003
3.693073e+003,-4.333512e-003
3.695001e+003,-4.541839e-003
3.696930e+003,-4.663799e-003
3.698858e+003,-4.521477e-003
3.700787e+003,-4.342041e-003
3.702716e+003,-4.265895e-003
3.704644e+003,-4.200533e-003
3.706573e+003,-4.230164e-003
3.708501e+003,-4.423060e-003
3.710429e+003,-4.465434e-003
3.712358e+003,-4.393935e-003
3.714286e+003,-4.283087e-003
3.716215e+003,-4.347618e-003
3.718144e+003,-4.345190e-003
3.720072e+003,-4.109560e-003
3.722000e+003,-3.999297e-003
3.723929e+003,-4.081824e-003
3.725857e+003,-4.027595e-003
3.727786e+003,-3.752211e-003
3.729714e+003,-3.851207e-003
3.731643e+003,-4.295391e-003
3.733572e+003,-4.468976e-003
3.735500e+003,-4.361822e-003
3.737428e+003,-4.312057e-003
3.739357e+003,-4.183961e-003
3.741285e+003,-4.147828e-003
3.743214e+003,-4.468615e-003
3.745142e+003,-4.139886e-003
3.747071e+003,-3.810843e-003
3.749000e+003,-3.886641e-003
3.750928e+003,-3.898726e-003
3.752856e+003,-3.670442e-003
3.754785e+003,-3.653291e-003
3.756713e+003,-3.634760e-003
3.758642e+003,-3.658351e-003
3.760570e+003,-3.790675e-003
3.762499e+003,-3.708191e-003
3.764427e+003,-3.648527e-003
3.766356e+003,-3.618560e-003
3.768284e+003,-3.541006e-003
3.770213e+003,-3.427772e-003
3.772141e+003,-3.337557e-003
3.774070e+003,-3.289779e-003
3.775998e+003,-3.445884e-003
3.777927e+003,-3.676652e-003
3.779855e+003,-3.890122e-003
3.781784e+003,-3.613665e-003
3.783712e+003,-3.254625e-003
3.785641e+003,-3.116644e-003
3.787569e+003,-3.223743e-003
3.789498e+003,-3.355542e-003
3.791426e+003,-3.363203e-003
3.793355e+003,-3.327430e-003
3.795283e+003,-3.339004e-003
3.797212e+003,-3.499200e-003
3.799140e+003,-3.746429e-003
3.801069e+003,-3.620795e-003
3.802997e+003,-3.316513e-003
3.804926e+003,-3.386217e-003
3.806854e+003,-3.483949e-003
3.808783e+003,-3.357844e-003
3.810711e+003,-3.032550e-003
3.812640e+003,-3.064465e-003
3.814568e+003,-3.382634e-003
3.816497e+003,-3.117926e-003
3.818425e+003,-2.742804e-003
3.820354e+003,-2.675500e-003
3.822282e+003,-2.809045e-003
3.824211e+003,-2.978552e-003
3.826139e+003,-3.085193e-003
3.828068e+003,-3.030214e-003
3.829996e+003,-3.132993e-003
3.831925e+003,-3.110952e-003
3.833853e+003,-3.064663e-003
3.835782e+003,-3.244989e-003
3.837710e+003,-3.221375e-003
3.839639e+003,-3.150263e-003
3.841567e+003,-3.126249e-003
3.843496e+003,-3.077264e-003
3.845424e+003,-2.943702e-003
3.847353e+003,-2.927444e-003
3.849281e+003,-3.023271e-003
3.851210e+003,-3.261169e-003
3.853138e+003,-3.225848e-003
3.855067e+003,-2.901575e-003
3.856995e+003,-2.997112e-003
3.858924e+003,-3.111182e-003
3.860852e+003,-3.076704e-003
3.862781e+003,-3.100392e-003
3.864709e+003,-2.966179e-003
3.866638e+003,-2.801342e-003
3.868566e+003,-3.013828e-003
3.870495e+003,-2.961078e-003
3.872423e+003,-3.036334e-003
3.874352e+003,-3.043014e-003
3.876280e+003,-2.783959e-003
3.878209e+003,-2.822279e-003
3.880137e+003,-2.957261e-003
3.882066e+003,-3.083482e-003
3.883994e+003,-3.232393e-003
3.885923e+003,-2.950778e-003
3.887851e+003,-2.945841e-003
3.889780e+003,-2.988688e-003
3.891708e+003,-3.154112e-003
3.893637e+003,-3.199898e-003
3.895565e+003,-3.044922e-003
3.897494e+003,-2.995631e-003
3.899422e+003,-2.902825e-003
3.901351e+003,-2.895552e-003
3.903279e+003,-2.839858e-003
3.905208e+003,-2.812304e-003
3.907136e+003,-2.842030e-003
3.909065e+003,-2.773029e-003
3.910993e+003,-2.822114e-003
3.912922e+003,-2.827118e-003
3.914850e+003,-2.785803e-003
3.916779e+003,-2.880477e-003
3.918707e+003,-2.770560e-003
3.920636e+003,-2.719657e-003
3.922564e+003,-2.923396e-003
3.924493e+003,-2.814872e-003
3.926421e+003,-2.654950e-003
3.928350e+003,-2.786824e-003
3.930278e+003,-2.737767e-003
3.932207e+003,-2.664336e-003
3.934135e+003,-2.432108e-003
3.936064e+003,-2.213337e-003
3.937992e+003,-2.289118e-003
3.939921e+003,-2.540957e-003
3.941849e+003,-2.497935e-003
3.943778e+003,-2.415896e-003
3.945706e+003,-2.474214e-003
3.947635e+003,-2.536082e-003
3.949563e+003,-2.580386e-003
3.951492e+003,-2.573897e-003
3.953420e+003,-2.620140e-003
3.955349e+003,-2.634367e-003
3.957277e+003,-2.607262e-003
3.959206e+003,-2.560162e-003
3.961134e+003,-2.582823e-003
3.963063e+003,-2.535423e-003
3.964991e+003,-2.719888e-003
3.966920e+003,-2.939259e-003
3.968848e+003,-2.704873e-003
3.970777e+003,-2.451514e-003
3.972705e+003,-2.546261e-003
3.974634e+003,-2.575774e-003
3.976562e+003,-2.372004e-003
3.978491e+003,-2.386998e-003
3.980419e+003,-2.366040e-003
3.982348e+003,-2.489798e-003
3.984276e+003,-2.539541e-003
3.986205e+003,-2.468020e-003
3.988133e+003,-2.366205e-003
3.990062e+003,-2.431284e-003
3.991990e+003,-2.616484e-003
3.993919e+003,-2.688606e-003
3.995847e+003,-2.549324e-003
3.997776e+003,-2.507818e-003
3.999704e+003,-2.570208e-003
4.001633e+003,0.000000e+000
