3.991989e+002,4.094776e-002
4.011274e+002,4.311116e-002
4.030559e+002,3.437604e-002
4.049844e+002,2.590768e-002
4.069129e+002,3.453903e-002
4.088414e+002,3.659868e-002
4.107699e+002,2.844534e-002
4.126984e+002,2.584743e-002
4.146269e+002,2.590581e-002
4.165554e+002,2.328697e-002
4.184839e+002,2.943255e-002
4.204124e+002,2.686682e-002
4.223409e+002,2.516912e-002
4.242694e+002,2.617295e-002
4.261979e+002,2.110625e-002
4.281264e+002,1.946788e-002
4.300549e+002,1.875088e-002
4.319834e+002,1.573293e-002
4.339119e+002,1.975608e-002
4.358404e+002,2.629561e-002
4.377689e+002,2.708292e-002
4.396974e+002,2.199080e-002
4.416259e+002,1.687885e-002
4.435544e+002,1.644327e-002
4.454829e+002,1.611737e-002
4.474114e+002,1.840205e-002
4.493399e+002,1.468762e-002
4.512684e+002,9.175471e-003
4.531969e+002,9.030756e-003
4.551254e+002,1.201851e-002
4.570539e+002,1.278665e-002
4.589824e+002,1.051088e-002
4.609109e+002,1.119485e-002
4.628394e+002,1.235032e-002
4.647679e+002,1.063921e-002
4.666964e+002,9.963475e-003
4.686249e+002,9.046081e-003
4.705533e+002,9.216388e-003
4.724819e+002,9.707041e-003
4.744103e+002,1.023821e-002
4.763389e+002,1.043383e-002
4.782673e+002,9.971985e-003
4.801959e+002,9.695182e-003
4.821243e+002,1.131678e-002
4.840529e+002,1.202260e-002
4.859813e+002,1.111513e-002
4.879099e+002,1.000897e-002
4.898383e+002,9.918963e-003
4.917668e+002,9.670855e-003
4.936953e+002,1.060876e-002
4.956238e+002,9.942219e-003
4.975523e+002,8.211585e-003
4.994808e+002,9.720560e-003
5.014093e+002,1.108705e-002
5.033378e+002,1.073837e-002
5.052663e+002,9.750210e-003
5.071948e+002,8.819368e-003
5.091233e+002,8.809866e-003
5.110518e+002,7.895578e-003
5.129803e+002,7.590860e-003
5.149088e+002,7.913495e-003
5.168373e+002,8.623765e-003
5.187658e+002,8.024525e-003
5.206943e+002,7.902022e-003
5.226228e+002,7.505191e-003
5.245513e+002,7.889437e-003
5.264798e+002,8.246467e-003
5.284083e+002,8.918994e-003
5.303368e+002,7.759349e-003
5.322653e+002,6.564106e-003
5.341938e+002,6.523775e-003
5.361223e+002,5.961652e-003
5.380508e+002,5.637811e-003
5.399792e+002,6.625063e-003
5.419078e+002,6.908601e-003
5.438363e+002,7.216142e-003
5.457648e+002,7.107508e-003
5.476932e+002,6.424663e-003
5.496218e+002,6.629807e-003
5.515503e+002,7.428369e-003
5.534788e+002,6.098259e-003
5.554072e+002,6.528988e-003
5.573358e+002,6.615105e-003
5.592643e+002,6.317100e-003
5.611927e+002,6.638689e-003
5.631212e+002,7.049682e-003
5.650497e+002,6.377889e-003
5.669783e+002,6.520950e-003
5.689067e+002,8.106786e-003
5.708352e+002,8.367715e-003
5.727637e+002,6.447295e-003
5.746923e+002,4.993166e-003
5.766207e+002,6.224287e-003
5.785492e+002,7.068642e-003
5.804777e+002,-1.562320e-004
5.824063e+002,-1.906649e-003
5.843347e+002,5.483531e-003
5.862632e+002,8.497985e-003
5.881917e+002,7.237468e-003
5.901202e+002,5.326086e-003
5.920487e+002,4.230148e-003
5.939772e+002,5.064832e-003
5.959057e+002,6.207750e-003
5.978342e+002,6.524919e-003
5.997627e+002,7.402854e-003
6.016912e+002,7.277292e-003
6.036197e+002,6.838751e-003
6.055482e+002,6.859318e-003
6.074767e+002,6.524515e-003
6.094052e+002,6.884498e-003
6.113337e+002,8.454569e-003
6.132622e+002,8.165158e-003
6.151907e+002,7.161872e-003
6.171192e+002,7.567157e-003
6.190477e+002,8.001236e-003
6.209762e+002,8.626773e-003
6.229047e+002,8.641307e-003
6.248332e+002,6.923886e-003
6.267617e+002,5.662115e-003
6.286902e+002,5.245926e-003
6.306187e+002,5.003054e-003
6.325472e+002,4.652430e-003
6.344756e+002,4.462009e-003
6.364042e+002,4.067939e-003
6.383326e+002,4.333881e-003
6.402612e+002,4.285358e-003
6.421896e+002,4.190970e-003
6.441182e+002,4.100149e-003
6.460466e+002,3.915452e-003
6.479752e+002,4.123730e-003
6.499036e+002,4.025097e-003
6.518322e+002,3.941532e-003
6.537606e+002,4.332409e-003
6.556891e+002,4.476036e-003
6.576177e+002,4.578321e-003
6.595461e+002,4.580096e-003
6.614746e+002,3.469537e-003
6.634031e+002,3.363405e-003
6.653317e+002,5.562896e-003
6.672601e+002,1.047055e-002
6.691886e+002,8.581316e-003
6.711171e+002,4.476773e-003
6.730457e+002,4.308916e-003
6.749741e+002,4.230984e-003
6.769026e+002,4.075096e-003
6.788311e+002,3.999915e-003
6.807596e+002,3.520842e-003
6.826881e+002,3.449397e-003
6.846166e+002,3.582042e-003
6.865451e+002,3.329147e-003
6.884736e+002,3.133498e-003
6.904021e+002,3.043030e-003
6.923306e+002,2.675081e-003
6.942591e+002,2.976201e-003
6.961876e+002,4.022890e-003
6.981161e+002,4.017639e-003
7.000446e+002,3.604192e-003
7.019731e+002,3.281002e-003
7.039016e+002,3.291018e-003
7.058301e+002,3.299932e-003
7.077585e+002,2.988946e-003
7.096871e+002,2.542346e-003
7.116156e+002,2.579010e-003
7.135441e+002,2.699186e-003
7.154725e+002,2.650378e-003
7.174011e+002,2.556778e-003
7.193296e+002,2.732628e-003
7.212581e+002,3.135967e-003
7.231865e+002,3.646892e-003
7.251151e+002,3.321233e-003
7.270436e+002,3.198949e-003
7.289720e+002,3.592098e-003
7.309005e+002,3.853704e-003
7.328290e+002,3.235734e-003
7.347576e+002,2.936769e-003
7.366860e+002,2.957619e-003
7.386145e+002,2.636743e-003
7.405430e+002,2.860384e-003
7.424716e+002,3.260237e-003
7.444000e+002,3.054509e-003
7.463285e+002,2.732428e-003
7.482570e+002,2.352615e-003
7.501855e+002,2.176253e-003
7.521140e+002,2.682283e-003
7.540425e+002,3.117612e-003
7.559710e+002,2.696852e-003
7.578995e+002,2.584743e-003
7.598280e+002,2.402056e-003
7.617565e+002,2.336858e-003
7.636850e+002,2.795951e-003
7.656135e+002,2.812692e-003
7.675420e+002,2.385497e-003
7.694705e+002,2.377168e-003
7.713990e+002,2.385731e-003
7.733275e+002,2.577476e-003
7.752560e+002,2.687950e-003
7.771844e+002,2.987745e-003
7.791130e+002,3.005561e-003
7.810415e+002,2.723192e-003
7.829700e+002,2.440173e-003
7.848984e+002,2.564677e-003
7.868270e+002,2.655579e-003
7.887555e+002,2.720824e-003
7.906840e+002,2.776009e-003
7.926124e+002,2.774709e-003
7.945410e+002,2.809057e-003
7.964695e+002,2.734628e-003
7.983979e+002,2.653678e-003
8.003264e+002,2.651045e-003
8.022549e+002,2.696385e-003
8.041835e+002,2.907515e-003
8.061119e+002,2.627576e-003
8.080404e+002,2.123608e-003
8.099689e+002,2.295552e-003
8.118975e+002,2.648378e-003
8.138259e+002,2.742297e-003
8.157545e+002,2.717957e-003
8.176830e+002,2.782746e-003
8.196115e+002,2.360177e-003
8.215399e+002,2.187342e-003
8.234684e+002,2.229171e-003
8.253970e+002,2.304845e-003
8.273254e+002,2.415950e-003
8.292539e+002,2.083055e-003
8.311824e+002,2.090147e-003
8.331110e+002,2.498588e-003
8.350394e+002,2.754635e-003
8.369679e+002,2.551179e-003
8.388964e+002,2.352315e-003
8.408250e+002,2.320602e-003
8.427534e+002,2.450070e-003
8.446819e+002,2.139524e-003
8.466104e+002,1.973634e-003
8.485389e+002,2.174455e-003
8.504674e+002,2.374270e-003
8.523959e+002,2.359245e-003
8.543244e+002,2.344986e-003
8.562529e+002,2.370405e-003
8.581814e+002,2.540780e-003
8.601099e+002,2.495789e-003
8.620384e+002,2.405854e-003
8.639669e+002,2.547746e-003
8.658954e+002,2.458167e-003
8.678239e+002,2.062780e-003
8.697524e+002,2.124907e-003
8.716809e+002,2.462199e-003
8.736094e+002,2.658612e-003
8.755378e+002,2.468030e-003
8.774664e+002,2.770641e-003
8.793949e+002,2.639677e-003
8.813234e+002,2.252851e-003
8.832518e+002,2.319036e-003
8.851804e+002,2.366907e-003
8.871089e+002,2.316005e-003
8.890374e+002,2.092810e-003
8.909658e+002,2.142122e-003
8.928943e+002,2.473629e-003
8.948229e+002,2.261044e-003
8.967513e+002,2.008118e-003
8.986798e+002,2.134030e-003
9.006083e+002,2.078361e-003
9.025369e+002,2.015442e-003
9.044653e+002,1.976995e-003
9.063938e+002,1.777796e-003
9.083223e+002,1.624382e-003
9.102509e+002,1.599073e-003
9.121793e+002,2.107160e-003
9.141078e+002,2.242759e-003
9.160364e+002,2.148415e-003
9.179648e+002,2.238230e-003
9.198933e+002,2.245990e-003
9.218218e+002,2.209955e-003
9.237504e+002,1.907069e-003
9.256788e+002,1.773737e-003
9.276073e+002,1.930765e-003
9.295358e+002,1.869997e-003
9.314644e+002,1.873923e-003
9.333928e+002,2.161135e-003
9.353213e+002,2.419715e-003
9.372498e+002,2.357412e-003
9.391783e+002,1.972069e-003
9.411068e+002,1.791703e-003
9.430353e+002,2.027026e-003
9.449637e+002,2.004756e-003
9.468923e+002,1.832196e-003
9.488208e+002,1.550522e-003
9.507493e+002,1.583476e-003
9.526777e+002,1.710596e-003
9.546063e+002,1.796694e-003
9.565348e+002,1.626743e-003
9.584633e+002,1.441068e-003
9.603917e+002,1.627874e-003
9.623203e+002,1.881544e-003
9.642488e+002,1.741833e-003
9.661772e+002,1.601002e-003
9.681057e+002,1.661367e-003
9.700343e+002,1.488277e-003
9.719628e+002,1.451640e-003
9.738912e+002,1.654182e-003
9.758197e+002,1.598574e-003
9.777483e+002,1.544802e-003
9.796768e+002,1.441002e-003
9.816052e+002,1.436913e-003
9.835337e+002,1.667986e-003
9.854623e+002,1.769944e-003
9.873907e+002,1.745193e-003
9.893192e+002,1.739637e-003
9.912477e+002,1.502741e-003
9.931763e+002,1.448980e-003
9.951047e+002,1.543007e-003
9.970332e+002,1.415604e-003
9.989617e+002,1.358265e-003
1.000890e+003,1.423017e-003
1.002819e+003,1.566517e-003
1.004747e+003,1.412047e-003
1.006676e+003,1.169017e-003
1.008604e+003,1.222443e-003
1.010533e+003,1.436015e-003
1.012461e+003,1.420058e-003
1.014390e+003,1.211943e-003
1.016318e+003,1.375915e-003
1.018247e+003,1.553614e-003
1.020175e+003,1.456062e-003
1.022104e+003,1.369932e-003
1.024032e+003,1.420624e-003
1.025961e+003,1.546332e-003
1.027889e+003,1.437611e-003
1.029818e+003,1.315091e-003
1.031746e+003,1.414308e-003
1.033675e+003,1.657808e-003
1.035603e+003,1.644437e-003
1.037532e+003,1.559334e-003
1.039460e+003,1.583776e-003
1.041389e+003,1.427904e-003
1.043317e+003,1.422884e-003
1.045246e+003,1.685116e-003
1.047174e+003,1.784783e-003
1.049103e+003,1.642907e-003
1.051031e+003,1.310505e-003
1.052960e+003,1.375748e-003
1.054888e+003,1.622187e-003
1.056817e+003,1.634027e-003
1.058745e+003,1.487978e-003
1.060674e+003,1.332107e-003
1.062602e+003,1.293223e-003
1.064531e+003,1.324497e-003
1.066459e+003,1.418895e-003
1.068388e+003,1.493664e-003
1.070316e+003,1.490073e-003
1.072245e+003,1.472219e-003
1.074173e+003,1.282190e-003
1.076102e+003,1.113039e-003
1.078030e+003,1.254675e-003
1.079959e+003,1.309342e-003
1.081887e+003,1.253346e-003
1.083816e+003,1.403637e-003
1.085744e+003,1.472385e-003
1.087673e+003,1.342643e-003
1.089601e+003,1.331044e-003
1.091530e+003,1.440902e-003
1.093458e+003,1.444991e-003
1.095387e+003,1.348161e-003
1.097315e+003,1.287009e-003
1.099244e+003,1.261587e-003
1.101172e+003,1.354808e-003
1.103101e+003,1.319478e-003
1.105029e+003,1.362819e-003
1.106958e+003,1.435982e-003
1.108886e+003,1.533730e-003
1.110815e+003,1.497620e-003
1.112743e+003,1.329980e-003
1.114672e+003,1.186493e-003
1.116600e+003,1.336295e-003
1.118529e+003,1.399149e-003
1.120457e+003,1.220516e-003
1.122386e+003,1.250355e-003
1.124314e+003,1.145894e-003
1.126243e+003,9.521556e-004
1.128171e+003,8.959070e-004
1.130100e+003,1.111677e-003
1.132028e+003,1.181542e-003
1.133957e+003,1.152704e-003
1.135885e+003,1.368037e-003
1.137814e+003,1.058098e-003
1.139742e+003,5.678578e-004
1.141671e+003,9.318668e-004
1.143599e+003,1.389975e-003
1.145528e+003,1.364480e-003
1.147456e+003,1.226829e-003
1.149385e+003,1.215432e-003
1.151313e+003,1.011567e-003
1.153242e+003,8.654614e-004
1.155170e+003,1.081881e-003
1.157099e+003,1.195330e-003
1.159027e+003,1.223540e-003
1.160956e+003,1.087096e-003
1.162884e+003,9.957915e-004
1.164813e+003,1.011367e-003
1.166741e+003,9.753013e-004
1.168670e+003,8.816302e-004
1.170598e+003,8.748571e-004
1.172526e+003,9.366483e-004
1.174455e+003,8.473013e-004
1.176384e+003,1.017345e-003
1.178312e+003,1.204401e-003
1.180240e+003,1.010338e-003
1.182169e+003,9.529194e-004
1.184098e+003,9.183525e-004
1.186026e+003,9.036433e-004
1.187954e+003,9.732756e-004
1.189883e+003,9.221709e-004
1.191812e+003,9.245949e-004
1.193740e+003,1.072680e-003
1.195668e+003,8.980983e-004
1.197597e+003,6.815052e-004
1.199526e+003,7.215295e-004
1.201454e+003,8.728983e-004
1.203382e+003,1.007880e-003
1.205311e+003,8.684494e-004
1.207240e+003,7.794484e-004
1.209168e+003,7.081876e-004
1.211096e+003,7.272380e-004
1.213025e+003,9.369472e-004
1.214953e+003,9.685601e-004
1.216882e+003,7.980040e-004
1.218810e+003,6.693593e-004
1.220739e+003,5.666634e-004
1.222667e+003,5.991120e-004
1.224596e+003,6.965388e-004
1.226524e+003,7.228238e-004
1.228453e+003,7.607608e-004
1.230381e+003,6.425133e-004
1.232310e+003,5.849777e-004
1.234238e+003,6.240307e-004
1.236167e+003,5.827878e-004
1.238095e+003,6.026291e-004
1.240024e+003,6.758636e-004
1.241952e+003,7.348385e-004
1.243881e+003,6.067766e-004
1.245809e+003,5.735311e-004
1.247738e+003,5.181941e-004
1.249666e+003,6.661072e-004
1.251595e+003,7.976720e-004
1.253523e+003,6.904324e-004
1.255452e+003,7.750337e-004
1.257380e+003,6.611294e-004
1.259309e+003,5.749910e-004
1.261237e+003,6.656757e-004
1.263166e+003,7.119379e-004
1.265094e+003,7.120043e-004
1.267023e+003,8.140375e-004
1.268951e+003,8.324617e-004
1.270880e+003,7.087187e-004
1.272808e+003,4.864149e-004
1.274737e+003,4.181872e-004
1.276665e+003,5.065835e-004
1.278594e+003,5.644405e-004
1.280522e+003,5.533927e-004
1.282451e+003,3.919205e-004
1.284379e+003,4.035281e-004
1.286308e+003,4.661146e-004
1.288236e+003,5.547197e-004
1.290165e+003,6.197835e-004
1.292093e+003,5.498097e-004
1.294022e+003,4.810412e-004
1.295950e+003,5.764840e-004
1.297879e+003,6.051508e-004
1.299807e+003,5.220090e-004
1.301736e+003,5.849113e-004
1.303664e+003,4.156666e-004
1.305593e+003,3.565029e-004
1.307521e+003,4.446544e-004
1.309450e+003,4.594808e-004
1.311378e+003,4.502599e-004
1.313307e+003,4.334438e-004
1.315235e+003,5.461935e-004
1.317164e+003,8.428859e-004
1.319092e+003,7.544875e-004
1.321021e+003,6.558863e-004
1.322949e+003,5.712419e-004
1.324878e+003,5.230375e-004
1.326806e+003,4.228304e-004
1.328735e+003,4.599783e-004
1.330663e+003,5.724694e-004
1.332592e+003,5.883951e-004
1.334520e+003,5.374352e-004
1.336449e+003,5.853095e-004
1.338377e+003,7.148917e-004
1.340306e+003,7.595659e-004
1.342234e+003,5.365727e-004
1.344163e+003,3.653239e-004
1.346091e+003,3.142243e-004
1.348020e+003,4.070767e-004
1.349948e+003,4.283029e-004
1.351877e+003,3.871781e-004
1.353805e+003,4.161972e-004
1.355734e+003,5.155070e-004
1.357662e+003,6.083361e-004
1.359591e+003,6.583088e-004
1.361519e+003,8.145686e-004
1.363448e+003,8.723339e-004
1.365376e+003,5.734316e-004
1.367305e+003,4.546049e-004
1.369233e+003,4.676736e-004
1.371162e+003,6.029277e-004
1.373090e+003,8.498244e-004
1.375019e+003,8.176891e-004
1.376947e+003,5.983157e-004
1.378876e+003,6.116541e-004
1.380804e+003,5.373688e-004
1.382733e+003,4.655508e-004
1.384661e+003,5.948650e-004
1.386590e+003,9.705857e-004
1.388518e+003,8.926200e-004
1.390447e+003,5.250279e-004
1.392375e+003,5.659666e-004
1.394304e+003,1.034583e-003
1.396232e+003,8.939813e-004
1.398161e+003,8.624734e-004
1.400089e+003,8.670550e-004
1.402018e+003,6.899678e-004
1.403946e+003,7.378588e-004
1.405875e+003,7.453931e-004
1.407803e+003,4.917887e-004
1.409732e+003,3.883057e-004
1.411660e+003,5.650045e-004
1.413589e+003,6.202149e-004
1.415517e+003,7.296277e-004
1.417446e+003,1.258297e-003
1.419374e+003,1.587833e-003
1.421303e+003,9.869245e-004
1.423231e+003,8.240960e-004
1.425160e+003,7.559811e-004
1.427088e+003,6.071416e-004
1.429017e+003,7.498075e-004
1.430945e+003,6.163326e-004
1.432874e+003,5.816266e-004
1.434802e+003,1.198653e-003
1.436731e+003,1.668052e-003
1.438659e+003,8.734295e-004
1.440588e+003,4.582867e-004
1.442516e+003,5.635779e-004
1.444445e+003,6.517051e-004
1.446373e+003,8.187845e-004
1.448302e+003,9.048386e-004
1.450230e+003,6.262871e-004
1.452159e+003,5.263216e-004
1.454087e+003,9.110476e-004
1.456016e+003,2.212053e-003
1.457944e+003,2.309009e-003
1.459873e+003,1.173901e-003
1.461801e+003,6.963065e-004
1.463730e+003,9.467097e-004
1.465658e+003,1.038502e-003
1.467587e+003,6.252917e-004
1.469515e+003,8.373750e-004
1.471444e+003,1.656610e-003
1.473372e+003,1.821781e-003
1.475301e+003,1.250189e-003
1.477229e+003,7.984023e-004
1.479158e+003,4.938453e-004
1.481086e+003,5.931729e-004
1.483015e+003,5.048585e-004
1.484943e+003,6.170294e-004
1.486872e+003,1.010437e-003
1.488800e+003,1.392767e-003
1.490729e+003,1.415870e-003
1.492657e+003,9.107487e-004
1.494586e+003,1.026711e-003
1.496514e+003,1.450676e-003
1.498443e+003,1.274680e-003
1.500371e+003,8.639342e-004
1.502300e+003,6.388300e-004
1.504228e+003,1.561096e-003
1.506157e+003,3.083206e-003
1.508085e+003,2.448703e-003
1.510014e+003,1.321173e-003
1.511942e+003,1.004293e-003
1.513871e+003,8.725331e-004
1.515799e+003,1.358198e-003
1.517728e+003,1.603696e-003
1.519656e+003,1.887368e-003
1.521585e+003,2.413218e-003
1.523513e+003,1.759198e-003
1.525442e+003,1.541344e-003
1.527370e+003,1.212741e-003
1.529299e+003,8.955417e-004
1.531227e+003,9.273508e-004
1.533156e+003,1.439473e-003
1.535084e+003,1.109916e-003
1.537013e+003,1.217791e-003
1.538941e+003,2.635043e-003
1.540870e+003,2.842007e-003
1.542798e+003,2.020635e-003
1.544727e+003,1.557505e-003
1.546655e+003,9.149324e-004
1.548584e+003,7.689593e-004
1.550512e+003,7.947840e-004
1.552441e+003,9.293099e-004
1.554369e+003,1.404734e-003
1.556298e+003,1.960153e-003
1.558226e+003,3.551741e-003
1.560155e+003,2.925060e-003
1.562083e+003,1.178884e-003
1.564012e+003,8.902958e-004
1.565940e+003,7.790169e-004
1.567869e+003,1.045377e-003
1.569797e+003,1.482193e-003
1.571726e+003,8.100539e-004
1.573654e+003,7.304906e-004
1.575583e+003,1.583177e-003
1.577511e+003,1.274979e-003
1.579440e+003,5.319281e-004
1.581368e+003,5.262222e-004
1.583297e+003,3.947395e-004
1.585225e+003,4.084365e-004
1.587154e+003,4.596798e-004
1.589082e+003,4.073420e-004
1.591010e+003,2.258672e-004
1.592939e+003,2.430399e-004
1.594868e+003,4.449861e-004
1.596796e+003,4.974611e-004
1.598724e+003,4.110897e-004
1.600653e+003,4.147711e-004
1.602582e+003,4.739428e-004
1.604510e+003,4.076737e-004
1.606438e+003,3.894001e-004
1.608367e+003,4.902628e-004
1.610296e+003,3.413816e-004
1.612224e+003,2.226184e-004
1.614152e+003,6.185558e-004
1.616081e+003,1.454898e-003
1.618010e+003,1.146857e-003
1.619938e+003,5.274496e-004
1.621866e+003,8.774468e-004
1.623795e+003,9.571366e-004
1.625724e+003,6.269839e-004
1.627652e+003,7.156550e-004
1.629580e+003,5.741284e-004
1.631509e+003,3.182365e-004
1.633438e+003,9.128738e-004
1.635366e+003,1.889597e-003
1.637294e+003,1.396856e-003
1.639223e+003,7.289971e-004
1.641151e+003,5.301036e-004
1.643080e+003,4.916228e-004
1.645008e+003,1.249956e-003
1.646937e+003,1.884772e-003
1.648865e+003,1.253512e-003
1.650794e+003,1.610248e-003
1.652722e+003,3.356159e-003
1.654651e+003,2.170193e-003
1.656579e+003,6.735406e-004
1.658508e+003,4.686687e-004
1.660436e+003,6.643152e-004
1.662365e+003,9.872898e-004
1.664293e+003,6.599348e-004
1.666222e+003,4.483029e-004
1.668150e+003,1.104037e-003
1.670079e+003,1.466002e-003
1.672007e+003,1.026612e-003
1.673936e+003,1.155595e-003
1.675864e+003,1.188121e-003
1.677793e+003,6.156358e-004
1.679721e+003,6.131141e-004
1.681650e+003,1.082346e-003
1.683578e+003,2.329962e-003
1.685507e+003,1.869065e-003
1.687435e+003,8.806673e-004
1.689364e+003,6.383655e-004
1.691292e+003,4.530460e-004
1.693221e+003,7.403813e-004
1.695149e+003,1.825208e-003
1.697078e+003,1.788675e-003
1.699006e+003,2.239762e-003
1.700935e+003,2.418615e-003
1.702863e+003,1.133403e-003
1.704792e+003,1.166824e-003
1.706720e+003,9.652061e-004
1.708649e+003,5.595635e-004
1.710577e+003,3.216186e-004
1.712506e+003,4.724169e-004
1.714434e+003,1.034217e-003
1.716363e+003,1.739071e-003
1.718291e+003,1.678330e-003
1.720220e+003,7.595327e-004
1.722148e+003,4.014055e-004
1.724077e+003,4.559649e-004
1.726005e+003,4.026990e-004
1.727934e+003,4.738764e-004
1.729862e+003,5.840486e-004
1.731791e+003,9.945959e-004
1.733719e+003,1.823511e-003
1.735648e+003,1.150844e-003
1.737576e+003,6.492164e-004
1.739505e+003,9.365819e-004
1.741433e+003,6.538953e-004
1.743362e+003,6.346158e-004
1.745290e+003,5.973535e-004
1.747219e+003,7.764942e-004
1.749147e+003,1.086265e-003
1.751076e+003,1.277704e-003
1.753004e+003,6.989614e-004
1.754933e+003,4.229963e-004
1.756861e+003,6.640165e-004
1.758790e+003,5.258904e-004
1.760718e+003,6.370381e-004
1.762647e+003,5.401224e-004
1.764575e+003,1.578461e-004
1.766504e+003,4.197792e-004
1.768432e+003,6.861845e-004
1.770361e+003,9.565057e-004
1.772289e+003,1.330811e-003
1.774218e+003,7.951492e-004
1.776146e+003,4.128806e-004
1.778075e+003,3.128649e-004
1.780003e+003,3.453277e-004
1.781932e+003,2.737071e-004
1.783860e+003,2.571963e-004
1.785789e+003,3.014918e-004
1.787717e+003,2.448965e-004
1.789646e+003,4.177560e-004
1.791574e+003,8.662582e-004
1.793503e+003,7.865187e-004
1.795431e+003,3.827011e-004
1.797360e+003,3.596864e-004
1.799288e+003,5.003139e-004
1.801217e+003,4.774588e-004
1.803145e+003,2.178778e-004
1.805074e+003,1.958663e-004
1.807002e+003,2.278894e-004
1.808931e+003,2.916112e-004
1.810859e+003,3.728517e-004
1.812788e+003,3.005303e-004
1.814716e+003,1.565866e-004
1.816645e+003,1.656024e-004
1.818573e+003,1.660996e-004
1.820502e+003,1.699446e-004
1.822430e+003,2.332268e-004
1.824359e+003,4.392149e-004
1.826287e+003,4.332779e-004
1.828216e+003,5.495774e-004
1.830144e+003,6.594039e-004
1.832073e+003,2.041205e-004
1.834001e+003,7.409403e-005
1.835930e+003,2.097228e-004
1.837858e+003,1.625529e-004
1.839787e+003,1.496260e-004
1.841715e+003,3.566687e-004
1.843644e+003,7.943857e-004
1.845572e+003,5.886937e-004
1.847501e+003,1.834025e-004
1.849429e+003,1.267231e-004
1.851358e+003,1.483996e-004
1.853286e+003,1.781983e-004
1.855215e+003,1.932807e-004
1.857143e+003,2.641255e-004
1.859072e+003,2.211266e-004
1.861000e+003,1.994133e-004
1.862929e+003,2.071371e-004
1.864857e+003,2.879971e-004
1.866786e+003,4.415035e-004
1.868714e+003,5.754223e-004
1.870643e+003,3.209555e-004
1.872571e+003,6.468246e-005
1.874500e+003,8.599134e-005
1.876428e+003,1.325564e-004
1.878357e+003,1.698783e-004
1.880285e+003,1.710385e-004
1.882214e+003,1.925515e-004
1.884142e+003,2.106179e-004
1.886071e+003,1.307666e-004
1.887999e+003,1.926509e-004
1.889928e+003,1.864853e-004
1.891856e+003,-2.422031e-005
1.893785e+003,7.131031e-005
1.895713e+003,1.646080e-004
1.897642e+003,9.908208e-005
1.899570e+003,9.735872e-005
1.901499e+003,1.747178e-004
1.903427e+003,1.360365e-004
1.905356e+003,9.377945e-005
1.907284e+003,9.613248e-005
1.909213e+003,1.649063e-004
1.911141e+003,1.200944e-004
1.913070e+003,1.470738e-004
1.914998e+003,2.445981e-004
1.916927e+003,4.667780e-004
1.918855e+003,4.771603e-004
1.920784e+003,3.029508e-004
1.922712e+003,2.654516e-004
1.924641e+003,1.871151e-004
1.926569e+003,1.987172e-004
1.928498e+003,8.582564e-005
1.930426e+003,5.268344e-006
1.932355e+003,5.484030e-005
1.934283e+003,5.623210e-005
1.936212e+003,3.379803e-005
1.938140e+003,2.929148e-005
1.940069e+003,1.530068e-004
1.941997e+003,4.067782e-004
1.943926e+003,3.681758e-004
1.945854e+003,1.839329e-004
1.947783e+003,1.233093e-004
1.949711e+003,9.752443e-005
1.951640e+003,7.031612e-005
1.953568e+003,9.689474e-005
1.955497e+003,7.250333e-005
1.957425e+003,1.010706e-004
1.959354e+003,2.181099e-004
1.961282e+003,1.886399e-004
1.963211e+003,9.987748e-005
1.965139e+003,1.025620e-004
1.967068e+003,1.928166e-004
1.968996e+003,7.817023e-005
1.970925e+003,5.079745e-005
1.972853e+003,1.080967e-004
1.974782e+003,1.141618e-004
1.976710e+003,7.588358e-005
1.978639e+003,9.573479e-005
1.980567e+003,1.304352e-004
1.982496e+003,4.294384e-005
1.984424e+003,1.646793e-005
1.986353e+003,1.353405e-004
1.988281e+003,9.159214e-005
1.990210e+003,4.420306e-005
1.992138e+003,1.314626e-004
1.994067e+003,1.047162e-004
1.995995e+003,1.404906e-005
1.997924e+003,-9.310565e-006
1.999852e+003,2.167020e-005
2.001781e+003,1.047048e-005
2.003709e+003,5.546993e-005
2.005638e+003,3.532232e-005
2.007566e+003,5.500285e-006
2.009495e+003,6.710162e-005
2.011423e+003,7.389519e-005
2.013352e+003,1.081961e-004
2.015280e+003,1.119412e-004
2.017208e+003,8.121913e-005
2.019137e+003,7.734173e-005
2.021066e+003,6.561035e-005
2.022994e+003,-1.921770e-006
2.024922e+003,3.956385e-005
2.026851e+003,8.151738e-005
2.028780e+003,8.234590e-005
2.030708e+003,9.089618e-005
2.032636e+003,1.180395e-004
2.034565e+003,5.782275e-005
2.036494e+003,-4.572473e-006
2.038422e+003,4.658896e-005
2.040350e+003,1.242704e-004
2.042279e+003,1.171446e-004
2.044208e+003,4.665523e-005
2.046136e+003,-2.975335e-005
2.048064e+003,2.657431e-005
2.049993e+003,7.889931e-005
2.051921e+003,3.031870e-005
2.053850e+003,7.469055e-005
2.055778e+003,1.005735e-004
2.057707e+003,1.031254e-004
2.059635e+003,9.023336e-005
2.061564e+003,4.705289e-005
2.063492e+003,-2.127153e-005
2.065421e+003,-6.096620e-006
2.067349e+003,7.734173e-005
2.069278e+003,4.334149e-005
2.071206e+003,6.146800e-005
2.073135e+003,8.860946e-005
2.075063e+003,1.088921e-004
2.076992e+003,1.729941e-004
2.078920e+003,1.965956e-004
2.080849e+003,1.428643e-004
2.082777e+003,1.043516e-004
2.084706e+003,4.619131e-005
2.086634e+003,-3.240388e-005
2.088563e+003,1.388338e-005
2.090491e+003,1.219835e-004
2.092420e+003,6.746614e-005
2.094348e+003,1.052796e-004
2.096277e+003,8.917286e-005
2.098205e+003,5.334613e-006
2.100134e+003,6.958204e-006
2.102062e+003,2.451988e-005
2.103991e+003,-1.269015e-005
2.105919e+003,4.645641e-005
2.107848e+003,1.230110e-004
2.109776e+003,8.503027e-005
2.111705e+003,-2.216611e-005
2.113633e+003,-2.163599e-005
2.115562e+003,4.387169e-005
2.117490e+003,3.449390e-005
2.119419e+003,9.616563e-005
2.121347e+003,5.815413e-005
2.123276e+003,-4.648457e-005
2.125204e+003,-3.021719e-005
2.127133e+003,-2.127153e-005
2.129061e+003,3.638270e-005
2.130990e+003,5.957909e-005
2.132918e+003,2.402284e-005
2.134847e+003,1.557303e-006
2.136775e+003,7.388954e-006
2.138704e+003,2.445361e-005
2.140632e+003,-1.590431e-006
2.142561e+003,-3.379540e-005
2.144489e+003,-7.490960e-005
2.146418e+003,-1.079373e-004
2.148346e+003,3.469273e-005
2.150275e+003,1.674254e-004
2.152203e+003,1.656024e-004
2.154132e+003,6.667081e-005
2.156060e+003,-1.133169e-005
2.157989e+003,-2.395525e-005
2.159917e+003,-3.396106e-005
2.161846e+003,-5.953779e-005
2.163774e+003,-7.345196e-005
2.165703e+003,-4.691527e-005
2.167631e+003,3.575310e-005
2.169560e+003,8.718441e-005
2.171488e+003,5.513854e-005
2.173417e+003,4.377227e-005
2.175345e+003,3.615074e-005
2.177274e+003,6.998473e-005
2.179202e+003,1.122395e-004
2.181131e+003,1.269052e-005
2.183059e+003,-9.575632e-006
2.184988e+003,2.296250e-005
2.186916e+003,3.784072e-005
2.188845e+003,3.794013e-005
2.190773e+003,1.845605e-005
2.192702e+003,-8.449098e-006
2.194630e+003,2.465243e-005
2.196559e+003,8.943798e-005
2.198487e+003,1.030259e-004
2.200416e+003,-1.212689e-005
2.202344e+003,1.722973e-006
2.204273e+003,6.842718e-005
2.206201e+003,-7.985230e-006
2.208130e+003,-6.626303e-005
2.210058e+003,1.070243e-005
2.211987e+003,5.825355e-005
2.213915e+003,1.091241e-004
2.215844e+003,1.721655e-004
2.217772e+003,1.395499e-004
2.219701e+003,6.700220e-005
2.221629e+003,-2.422031e-005
2.223558e+003,-5.513154e-005
2.225486e+003,-8.117764e-006
2.227415e+003,3.074948e-005
2.229343e+003,1.146453e-005
2.231272e+003,2.498378e-005
2.233200e+003,8.297556e-005
2.235129e+003,6.193193e-005
2.237057e+003,-2.226550e-005
2.238986e+003,1.434728e-005
2.240914e+003,7.369636e-005
2.242843e+003,8.764838e-005
2.244771e+003,9.977805e-005
2.246700e+003,9.875066e-005
2.248628e+003,7.585044e-005
2.250557e+003,-3.472309e-005
2.252485e+003,-1.434680e-005
2.254414e+003,6.004303e-005
2.256342e+003,7.687778e-005
2.258271e+003,5.484030e-005
2.260199e+003,7.157542e-005
2.262128e+003,1.107481e-004
2.264056e+003,1.082293e-004
2.265985e+003,1.092567e-004
2.267913e+003,1.665636e-004
2.269842e+003,2.172148e-004
2.271770e+003,2.274916e-004
2.273699e+003,1.991481e-004
2.275627e+003,1.570506e-004
2.277556e+003,9.348118e-005
2.279484e+003,6.004303e-005
2.281413e+003,1.205915e-004
2.283341e+003,6.753243e-005
2.285270e+003,8.158367e-005
2.287198e+003,1.802203e-004
2.289127e+003,3.284825e-004
2.291055e+003,3.755378e-004
2.292984e+003,2.832227e-004
2.294912e+003,2.463552e-004
2.296841e+003,4.332116e-004
2.298769e+003,6.540612e-004
2.300698e+003,8.127096e-004
2.302626e+003,1.091813e-003
2.304555e+003,1.291362e-003
2.306483e+003,1.491536e-003
2.308412e+003,1.792668e-003
2.310340e+003,2.175188e-003
2.312269e+003,2.697719e-003
2.314197e+003,3.304874e-003
2.316125e+003,3.946213e-003
2.318054e+003,4.545976e-003
2.319983e+003,5.190594e-003
2.321911e+003,5.987888e-003
2.323840e+003,6.757201e-003
2.325768e+003,7.288917e-003
2.327697e+003,7.817607e-003
2.329625e+003,8.577666e-003
2.331553e+003,9.037014e-003
2.333482e+003,9.075109e-003
2.335411e+003,9.252061e-003
2.337339e+003,9.581522e-003
2.339268e+003,9.601034e-003
2.341196e+003,9.331339e-003
2.343125e+003,8.762361e-003
2.345053e+003,7.366927e-003
2.346981e+003,5.119109e-003
2.348910e+003,3.865572e-003
2.350839e+003,5.320719e-003
2.352767e+003,8.105705e-003
2.354696e+003,1.039918e-002
2.356624e+003,1.181530e-002
2.358552e+003,1.249795e-002
2.360481e+003,1.275372e-002
2.362409e+003,1.275488e-002
2.364338e+003,1.240643e-002
2.366267e+003,1.163070e-002
2.368195e+003,1.053742e-002
2.370124e+003,9.147824e-003
2.372052e+003,7.484087e-003
2.373980e+003,5.768474e-003
2.375909e+003,4.164006e-003
2.377838e+003,2.741331e-003
2.379766e+003,1.595548e-003
2.381695e+003,7.564790e-004
2.383623e+003,3.983876e-004
2.385552e+003,2.543119e-004
2.387480e+003,1.133001e-004
2.389408e+003,5.981106e-005
2.391337e+003,3.260512e-005
2.393266e+003,8.979418e-006
2.395194e+003,1.829038e-005
2.397123e+003,8.619019e-005
2.399051e+003,6.017559e-005
2.400979e+003,1.766080e-005
2.402908e+003,-2.537993e-005
2.404836e+003,-9.995390e-005
2.406765e+003,-1.897172e-004
2.408694e+003,-2.007128e-004
2.410622e+003,-7.345196e-005
2.412551e+003,5.301450e-007
2.414479e+003,3.595192e-005
2.416407e+003,6.146800e-005
2.418336e+003,2.027850e-005
2.420264e+003,-1.136680e-004
2.422193e+003,-1.687851e-004
2.424122e+003,-7.527402e-005
2.426050e+003,2.577905e-005
2.427979e+003,-4.015660e-005
2.429907e+003,-1.362920e-004
2.431835e+003,-7.189492e-005
2.433764e+003,5.682859e-005
2.435692e+003,8.330696e-005
2.437621e+003,3.628329e-005
2.439550e+003,-6.984094e-005
2.441478e+003,-9.524992e-005
2.443406e+003,-5.175229e-005
2.445335e+003,2.783268e-006
2.447263e+003,2.697195e-005
2.449192e+003,-6.500412e-005
2.451121e+003,-1.238374e-004
2.453049e+003,-1.232411e-004
2.454978e+003,-7.083480e-005
2.456906e+003,-6.361689e-006
2.458834e+003,3.810431e-006
2.460763e+003,-2.561186e-005
2.462691e+003,-1.226449e-004
2.464620e+003,-9.597871e-005
2.466549e+003,3.131280e-005
2.468477e+003,6.063953e-005
2.470406e+003,-1.520826e-005
2.472334e+003,-5.105656e-005
2.474262e+003,1.852232e-005
2.476191e+003,1.862173e-005
2.478119e+003,-1.775948e-005
2.480048e+003,-9.940211e-008
2.481977e+003,8.436746e-005
2.483905e+003,8.917286e-005
2.485833e+003,-1.103349e-005
2.487762e+003,-1.012127e-004
2.489690e+003,-1.759392e-004
2.491619e+003,-1.654730e-004
2.493547e+003,-7.010597e-005
2.495476e+003,-6.229155e-006
2.497405e+003,2.475183e-005
2.499333e+003,-8.428482e-005
2.501261e+003,-1.809073e-004
2.503190e+003,-1.754756e-004
2.505118e+003,-1.104548e-004
2.507047e+003,-1.577556e-004
2.508975e+003,-2.349893e-004
2.510904e+003,-1.967385e-004
2.512833e+003,-1.321185e-004
2.514761e+003,-1.154899e-004
2.516689e+003,-2.172387e-004
2.518618e+003,-1.177755e-004
2.520546e+003,2.624295e-005
2.522475e+003,-8.846699e-006
2.524403e+003,-9.084403e-005
2.526332e+003,-1.553377e-004
2.528260e+003,-1.692157e-004
2.530189e+003,-1.518268e-004
2.532117e+003,-1.310254e-004
2.534046e+003,-1.822652e-004
2.535974e+003,-1.574575e-004
2.537903e+003,-1.133036e-004
2.539831e+003,-7.040413e-005
2.541760e+003,-8.905517e-005
2.543688e+003,-1.491029e-006
2.545617e+003,3.386431e-005
2.547545e+003,-1.086783e-005
2.549474e+003,-6.444092e-005
2.551402e+003,-1.098917e-004
2.553331e+003,-1.149268e-004
2.555259e+003,-9.518366e-005
2.557188e+003,-1.123430e-004
2.559116e+003,-1.630551e-004
2.561045e+003,-9.637623e-005
2.562973e+003,-1.216843e-004
2.564902e+003,-1.613990e-004
2.566830e+003,-1.215518e-004
2.568759e+003,-1.467921e-004
2.570687e+003,-1.362258e-004
2.572616e+003,-7.944816e-005
2.574544e+003,-5.383948e-005
2.576473e+003,-1.382132e-004
2.578401e+003,-1.354308e-004
2.580330e+003,-1.370208e-004
2.582258e+003,-1.704412e-004
2.584187e+003,-1.183718e-004
2.586115e+003,-1.120780e-004
2.588044e+003,-2.273063e-004
2.589972e+003,-2.579713e-004
2.591901e+003,-1.379482e-004
2.593829e+003,-1.018090e-004
2.595758e+003,-9.872822e-005
2.597686e+003,-1.156555e-004
2.599615e+003,-1.904127e-004
2.601543e+003,-1.818015e-004
2.603472e+003,-1.352983e-004
2.605400e+003,-1.466927e-004
2.607329e+003,-1.854116e-004
2.609257e+003,-1.174443e-004
2.611186e+003,-1.203924e-004
2.613114e+003,-1.259573e-004
2.615043e+003,-8.309222e-005
2.616971e+003,-9.700564e-005
2.618900e+003,-8.183336e-005
2.620828e+003,-3.624713e-005
2.622757e+003,-4.360221e-005
2.624685e+003,-1.444735e-004
2.626614e+003,-1.676921e-004
2.628542e+003,-1.575238e-004
2.630471e+003,-1.059497e-004
2.632399e+003,-1.120780e-004
2.634328e+003,-1.235061e-004
2.636256e+003,-1.141318e-004
2.638185e+003,-9.819819e-005
2.640113e+003,-1.015108e-004
2.642042e+003,-1.326153e-004
2.643970e+003,-5.963718e-005
2.645899e+003,-1.921732e-005
2.647827e+003,2.312818e-005
2.649756e+003,4.009237e-006
2.651684e+003,-4.989700e-005
2.653613e+003,-4.545752e-005
2.655541e+003,-9.081091e-005
2.657470e+003,-1.688514e-004
2.659398e+003,-1.745813e-004
2.661327e+003,-1.565301e-004
2.663255e+003,-1.590805e-004
2.665184e+003,-1.851136e-004
2.667112e+003,-9.044651e-005
2.669041e+003,3.303589e-005
2.670969e+003,6.626813e-007
2.672898e+003,-8.574243e-005
2.674826e+003,-1.301310e-004
2.676755e+003,-1.632539e-004
2.678683e+003,-2.037266e-004
2.680612e+003,-1.762042e-004
2.682540e+003,-1.423536e-004
2.684469e+003,-1.619290e-004
2.686397e+003,-1.065460e-004
2.688326e+003,-1.131049e-004
2.690254e+003,-8.915455e-005
2.692183e+003,-1.262555e-004
2.694111e+003,-2.794951e-004
2.696040e+003,-2.850249e-004
2.697968e+003,-1.820996e-004
2.699897e+003,-7.968005e-005
2.701825e+003,-1.001195e-004
2.703754e+003,-8.521239e-005
2.705682e+003,-6.858205e-005
2.707611e+003,-1.318535e-004
2.709539e+003,-1.475208e-004
2.711468e+003,-1.431155e-004
2.713396e+003,-1.250630e-004
2.715325e+003,-1.350996e-004
2.717253e+003,-1.618627e-004
2.719182e+003,-1.073741e-004
2.721110e+003,-9.872822e-005
2.723039e+003,-3.883136e-005
2.724967e+003,-5.334547e-006
2.726896e+003,1.083497e-005
2.728824e+003,-8.918768e-005
2.730753e+003,-1.373851e-004
2.732681e+003,-7.931565e-005
2.734610e+003,-7.961380e-005
2.736538e+003,-1.508000e-004
2.738467e+003,-1.488126e-004
2.740395e+003,-1.123430e-004
2.742324e+003,-1.434467e-004
2.744252e+003,-1.968378e-004
2.746181e+003,-1.914063e-004
2.748109e+003,-2.234316e-004
2.750038e+003,-2.081313e-004
2.751966e+003,-1.228436e-004
2.753895e+003,-1.462290e-004
2.755823e+003,-1.241686e-004
2.757752e+003,-1.405981e-004
2.759680e+003,-1.676921e-004
2.761609e+003,-1.065460e-004
2.763537e+003,-7.985230e-006
2.765466e+003,-3.058164e-005
2.767394e+003,-9.329544e-005
2.769323e+003,-1.450035e-004
2.771251e+003,-1.573582e-004
2.773180e+003,-1.031009e-004
2.775108e+003,-9.389171e-005
2.777037e+003,-1.245992e-004
2.778965e+003,-2.939651e-004
2.780894e+003,-2.902235e-004
2.782822e+003,-1.122436e-004
2.784750e+003,-6.016725e-005
2.786679e+003,-3.015187e-006
2.788608e+003,-2.382272e-005
2.790536e+003,-9.448800e-005
2.792465e+003,-1.414593e-004
2.794393e+003,-1.222143e-004
2.796322e+003,-1.237049e-004
2.798250e+003,-2.246901e-004
2.800178e+003,-3.050242e-004
2.802107e+003,-2.643292e-004
2.804036e+003,-2.160465e-004
2.805964e+003,-2.209478e-004
2.807893e+003,-1.757736e-004
2.809821e+003,-2.071377e-004
2.811750e+003,-2.208485e-004
2.813678e+003,-3.004880e-004
2.815606e+003,-3.936527e-004
2.817535e+003,-4.015645e-004
2.819464e+003,-2.106483e-004
2.821392e+003,-7.590345e-005
2.823321e+003,-1.178087e-004
2.825249e+003,-8.299284e-005
2.827177e+003,-6.828389e-005
2.829106e+003,-1.606041e-004
2.831034e+003,-2.432020e-004
2.832963e+003,-2.338965e-004
2.834892e+003,-7.977944e-005
2.836820e+003,-1.041609e-004
2.838749e+003,-2.272732e-004
2.840677e+003,-2.428046e-004
2.842605e+003,-1.049228e-004
2.844534e+003,-1.051878e-004
2.846462e+003,-2.400891e-004
2.848391e+003,-1.877963e-004
2.850320e+003,-1.390413e-004
2.852248e+003,-1.041941e-004
2.854177e+003,-1.168480e-004
2.856105e+003,-1.108192e-004
2.858033e+003,-4.512622e-005
2.859962e+003,-1.822368e-006
2.861890e+003,-6.089609e-005
2.863819e+003,-1.323503e-004
2.865748e+003,-1.732565e-004
2.867676e+003,-1.875644e-004
2.869604e+003,-1.519924e-004
2.871533e+003,-2.062104e-004
2.873461e+003,-1.814703e-004
2.875390e+003,-1.158543e-004
2.877319e+003,-9.568057e-005
2.879247e+003,-1.921732e-005
2.881176e+003,-1.488789e-004
2.883104e+003,-2.478713e-004
2.885032e+003,-7.944816e-005
2.886961e+003,-4.436421e-005
2.888889e+003,-1.092292e-004
2.890818e+003,-8.623934e-005
2.892747e+003,-6.377835e-005
2.894675e+003,-9.057901e-005
2.896604e+003,-1.516280e-004
2.898532e+003,-2.182322e-004
2.900460e+003,-1.825633e-004
2.902389e+003,-1.211212e-004
2.904317e+003,-9.057901e-005
2.906246e+003,-1.023059e-004
2.908175e+003,-2.366782e-004
2.910103e+003,-1.925324e-004
2.912031e+003,-1.233405e-004
2.913960e+003,-1.130386e-004
2.915888e+003,-1.888230e-004
2.917817e+003,-2.722764e-004
2.919745e+003,-1.969372e-004
2.921674e+003,-9.783380e-005
2.923603e+003,-5.052647e-005
2.925531e+003,-9.965576e-005
2.927459e+003,-1.756743e-004
2.929388e+003,-2.053162e-004
2.931316e+003,-1.538803e-004
2.933245e+003,-1.767673e-004
2.935173e+003,-2.394931e-004
2.937102e+003,-2.358172e-004
2.939031e+003,-1.821327e-004
2.940959e+003,-2.314790e-004
2.942887e+003,-2.724420e-004
2.944816e+003,-1.954468e-004
2.946744e+003,-1.749125e-004
2.948673e+003,-1.769660e-004
2.950601e+003,-2.904552e-004
2.952530e+003,-3.712076e-004
2.954458e+003,-3.012165e-004
2.956387e+003,-1.763036e-004
2.958315e+003,-7.351821e-005
2.960244e+003,-2.058461e-004
2.962172e+003,-2.376055e-004
2.964101e+003,-1.837556e-004
2.966029e+003,-1.615647e-004
2.967958e+003,-1.307935e-004
2.969886e+003,-9.379234e-005
2.971815e+003,-3.893075e-005
2.973743e+003,-1.197962e-004
2.975672e+003,-1.434798e-004
2.977600e+003,4.334149e-005
2.979529e+003,6.633942e-005
2.981457e+003,-5.652299e-005
2.983386e+003,-4.499370e-005
2.985314e+003,-3.810247e-005
2.987243e+003,1.212723e-005
2.989171e+003,-3.028346e-005
2.991100e+003,-1.572919e-004
2.993028e+003,-1.662679e-004
2.994957e+003,-1.387763e-004
2.996885e+003,-2.190270e-004
2.998814e+003,-1.726272e-004
3.000742e+003,-1.471233e-004
3.002671e+003,-1.563314e-004
3.004599e+003,-2.112444e-004
3.006528e+003,-1.433805e-004
3.008456e+003,-7.905062e-005
3.010385e+003,-1.712361e-004
3.012313e+003,-2.209478e-004
3.014242e+003,-1.294023e-004
3.016170e+003,-5.937214e-005
3.018099e+003,-2.200045e-005
3.020027e+003,-1.341721e-004
3.021956e+003,-2.508516e-004
3.023884e+003,-2.713493e-004
3.025813e+003,-2.403541e-004
3.027741e+003,-3.130701e-004
3.029670e+003,-3.208840e-004
3.031598e+003,-2.363139e-004
3.033527e+003,-1.608360e-004
3.035455e+003,-1.584843e-004
3.037384e+003,-1.848817e-004
3.039312e+003,-1.695800e-004
3.041241e+003,-1.912407e-004
3.043169e+003,-2.586667e-004
3.045098e+003,-2.827401e-004
3.047026e+003,-2.353536e-004
3.048955e+003,-1.305948e-004
3.050883e+003,-1.597761e-004
3.052812e+003,-1.702093e-004
3.054740e+003,-1.865377e-004
3.056669e+003,-1.899159e-004
3.058597e+003,-1.895516e-004
3.060526e+003,-2.315783e-004
3.062454e+003,-2.972762e-004
3.064383e+003,-3.032694e-004
3.066311e+003,-2.690313e-004
3.068240e+003,-1.643800e-004
3.070168e+003,-1.626246e-004
3.072097e+003,-2.921108e-004
3.074025e+003,-2.656206e-004
3.075954e+003,-1.470571e-004
3.077882e+003,-1.377495e-004
3.079811e+003,-2.157153e-004
3.081739e+003,-2.326380e-004
3.083668e+003,-2.116087e-004
3.085596e+003,-2.829388e-004
3.087525e+003,-2.760513e-004
3.089453e+003,-2.230342e-004
3.091382e+003,-2.852567e-004
3.093310e+003,-1.968378e-004
3.095239e+003,-2.028986e-004
3.097167e+003,-3.141958e-004
3.099096e+003,-2.726407e-004
3.101024e+003,-1.675928e-004
3.102953e+003,-1.765023e-004
3.104881e+003,-3.430668e-004
3.106810e+003,-3.853767e-004
3.108738e+003,-3.073089e-004
3.110667e+003,-2.495601e-004
3.112595e+003,-1.341059e-004
3.114524e+003,-5.291184e-005
3.116452e+003,-1.580206e-004
3.118381e+003,-1.476202e-004
3.120309e+003,-1.025377e-004
3.122238e+003,-6.467283e-005
3.124166e+003,-4.525874e-005
3.126095e+003,-4.337029e-005
3.128023e+003,-1.145624e-004
3.129952e+003,-2.053825e-004
3.131880e+003,-2.469772e-004
3.133809e+003,-2.022693e-004
3.135737e+003,-1.556358e-004
3.137666e+003,-1.467590e-004
3.139594e+003,-2.620443e-004
3.141523e+003,-2.388639e-004
3.143451e+003,-1.102561e-004
3.145380e+003,-1.138336e-004
3.147308e+003,-3.199900e-004
3.149237e+003,-3.778287e-004
3.151165e+003,-2.253193e-004
3.153094e+003,-1.028690e-004
3.155022e+003,-1.698781e-004
3.156951e+003,-2.514808e-004
3.158879e+003,-1.972022e-004
3.160808e+003,-2.706967e-005
3.162736e+003,-2.422031e-005
3.164665e+003,-1.187030e-004
3.166593e+003,-2.411820e-004
3.168522e+003,-3.931893e-004
3.170450e+003,-3.402527e-004
3.172379e+003,-2.094229e-004
3.174307e+003,-2.302868e-004
3.176236e+003,-1.874319e-004
3.178164e+003,-1.357621e-004
3.180093e+003,-1.992224e-004
3.182021e+003,-2.560837e-004
3.183950e+003,-2.284654e-004
3.185878e+003,-2.000504e-004
3.187807e+003,-1.190674e-004
3.189735e+003,1.646793e-005
3.191664e+003,-6.543480e-005
3.193592e+003,-1.908764e-004
3.195521e+003,-1.003183e-004
3.197449e+003,-1.108192e-004
3.199378e+003,-3.512444e-004
3.201306e+003,-4.697853e-004
3.203235e+003,-3.309492e-004
3.205163e+003,-3.010509e-004
3.207092e+003,-3.316776e-004
3.209020e+003,-2.247894e-004
3.210948e+003,-1.678246e-004
3.212877e+003,-1.757736e-004
3.214806e+003,-1.318866e-004
3.216734e+003,-2.351218e-004
3.218663e+003,-2.754553e-004
3.220591e+003,-2.270745e-004
3.222520e+003,-1.572919e-004
3.224448e+003,-2.025343e-004
3.226376e+003,-3.446560e-004
3.228305e+003,-4.058679e-004
3.230234e+003,-2.498913e-004
3.232162e+003,-2.280017e-004
3.234091e+003,-2.338965e-004
3.236019e+003,-3.074744e-004
3.237948e+003,-4.360238e-004
3.239876e+003,-3.302870e-004
3.241804e+003,-1.480508e-004
3.243733e+003,-1.529529e-004
3.245662e+003,-2.269751e-004
3.247590e+003,-1.104548e-004
3.249519e+003,-8.581632e-006
3.251447e+003,-8.819385e-005
3.253375e+003,-2.248556e-004
3.255304e+003,-1.813047e-004
3.257232e+003,-6.884708e-005
3.259161e+003,-7.517463e-005
3.261090e+003,-1.133036e-004
3.263018e+003,-1.545097e-004
3.264947e+003,-2.102508e-004
3.266875e+003,-3.904416e-004
3.268803e+003,-3.412459e-004
3.270732e+003,-2.213784e-004
3.272660e+003,-2.892632e-004
3.274589e+003,-2.577395e-004
3.276518e+003,-1.887567e-004
3.278446e+003,-2.509179e-004
3.280375e+003,-1.811060e-004
3.282303e+003,-1.581862e-004
3.284231e+003,-1.158543e-004
3.286160e+003,-1.903134e-004
3.288088e+003,-2.784024e-004
3.290017e+003,-3.790536e-004
3.291946e+003,-2.631371e-004
3.293874e+003,-1.307935e-004
3.295802e+003,-1.623265e-004
3.297731e+003,-6.470596e-005
3.299659e+003,4.241178e-006
3.301588e+003,-3.432551e-005
3.303516e+003,-1.875644e-004
3.305445e+003,-2.377710e-004
3.307374e+003,-1.332447e-004
3.309302e+003,-9.458738e-005
3.311230e+003,-1.890217e-004
3.313159e+003,-2.884685e-004
3.315087e+003,-1.928635e-004
3.317016e+003,-8.739880e-005
3.318944e+003,-9.379234e-005
3.320873e+003,-1.113492e-004
3.322802e+003,-1.810729e-004
3.324730e+003,-2.778394e-004
3.326658e+003,-2.585342e-004
3.328587e+003,-1.024384e-004
3.330515e+003,-9.541555e-005
3.332444e+003,-3.276383e-004
3.334372e+003,-3.914348e-004
3.336301e+003,-1.851136e-004
3.338229e+003,2.432107e-005
3.340158e+003,6.229244e-006
3.342086e+003,-4.048791e-005
3.344015e+003,-2.901903e-004
3.345943e+003,-3.849463e-004
3.347872e+003,-3.291944e-004
3.349800e+003,-2.185303e-004
3.351729e+003,-2.298563e-004
3.353657e+003,-3.780936e-004
3.355586e+003,-2.756540e-004
3.357514e+003,-7.050351e-005
3.359443e+003,-2.131983e-004
3.361371e+003,-3.568726e-004
3.363300e+003,-2.929386e-004
3.365229e+003,-1.494751e-004
3.367157e+003,-2.288628e-004
3.369085e+003,-4.210620e-004
3.371014e+003,-4.402607e-004
3.372942e+003,-2.600906e-004
3.374871e+003,-1.936915e-004
3.376799e+003,-1.402338e-004
3.378728e+003,-1.483158e-004
3.380656e+003,-2.719122e-004
3.382585e+003,-3.237645e-004
3.384513e+003,-2.373736e-004
3.386442e+003,-2.710844e-004
3.388370e+003,-3.556808e-004
3.390299e+003,-3.305519e-004
3.392227e+003,-1.214855e-004
3.394156e+003,-1.153905e-004
3.396084e+003,-1.229761e-004
3.398013e+003,-1.952812e-004
3.399941e+003,-3.351540e-004
3.401870e+003,-2.914817e-004
3.403798e+003,-2.112775e-004
3.405727e+003,-2.739983e-004
3.407655e+003,-4.242729e-004
3.409584e+003,-3.103219e-004
3.411512e+003,-1.445729e-004
3.413441e+003,-2.573421e-004
3.415369e+003,-3.901437e-004
3.417298e+003,-3.792853e-004
3.419226e+003,-3.757100e-004
3.421155e+003,-2.514477e-004
3.423083e+003,-1.036972e-004
3.425012e+003,-3.250328e-005
3.426940e+003,-8.998273e-005
3.428869e+003,-1.289054e-004
3.430797e+003,-1.574575e-004
3.432726e+003,-1.704081e-004
3.434654e+003,-4.886996e-005
3.436583e+003,-1.629889e-004
3.438511e+003,-2.607860e-004
3.440440e+003,-1.370870e-004
3.442368e+003,-1.899159e-004
3.444297e+003,-2.925744e-004
3.446225e+003,-1.918700e-004
3.448154e+003,-1.027034e-004
3.450082e+003,-1.297666e-004
3.452011e+003,-2.256173e-004
3.453939e+003,-1.174112e-004
3.455868e+003,-9.081091e-005
3.457796e+003,-1.295679e-004
3.459725e+003,-2.366451e-004
3.461653e+003,-1.669966e-004
3.463582e+003,-4.969821e-005
3.465510e+003,-1.855772e-004
3.467439e+003,-2.349231e-004
3.469367e+003,-1.341059e-004
3.471296e+003,-1.700768e-004
3.473224e+003,-1.312572e-004
3.475153e+003,-1.664666e-004
3.477081e+003,-2.330686e-004
3.479010e+003,-2.086281e-004
3.480938e+003,-2.126685e-004
3.482867e+003,-3.091299e-004
3.484795e+003,-1.291373e-004
3.486724e+003,3.379685e-006
3.488652e+003,-1.848817e-004
3.490581e+003,-2.142250e-004
3.492509e+003,-1.318535e-004
3.494438e+003,-1.130386e-004
3.496366e+003,-4.555691e-005
3.498295e+003,-8.965145e-005
3.500223e+003,-5.264680e-005
3.502152e+003,-2.120573e-006
3.504080e+003,-5.533032e-005
3.506009e+003,-2.485336e-004
3.507937e+003,-2.323400e-004
3.509866e+003,-3.803621e-005
3.511794e+003,1.454165e-004
3.513723e+003,7.620896e-006
3.515651e+003,-2.466129e-004
3.517580e+003,-1.785889e-004
3.519508e+003,-1.437994e-005
3.521437e+003,-2.319377e-006
3.523365e+003,5.003269e-006
3.525294e+003,-1.087654e-004
3.527222e+003,-1.580206e-004
3.529151e+003,-1.528536e-004
3.531079e+003,-2.653888e-004
3.533008e+003,-1.455997e-004
3.534936e+003,7.999294e-005
3.536865e+003,-4.231011e-005
3.538793e+003,-3.759086e-004
3.540722e+003,-4.360238e-004
3.542650e+003,-3.499532e-004
3.544579e+003,-1.129393e-004
3.546507e+003,1.817119e-004
3.548436e+003,7.923072e-005
3.550364e+003,4.599248e-005
3.552293e+003,7.587762e-006
3.554221e+003,-2.056805e-004
3.556150e+003,-2.350886e-004
3.558078e+003,-2.259816e-004
3.560007e+003,-2.530041e-004
3.561935e+003,-1.045253e-004
3.563864e+003,1.933470e-004
3.565792e+003,5.713414e-004
3.567721e+003,4.464787e-004
3.569649e+003,-1.297666e-004
3.571578e+003,-2.347244e-004
3.573506e+003,-4.012347e-005
3.575435e+003,-1.354640e-004
3.577363e+003,-1.211212e-004
3.579292e+003,-7.103357e-005
3.581220e+003,-7.378324e-005
3.583149e+003,-6.341392e-005
3.585077e+003,3.161143e-004
3.587006e+003,7.189739e-004
3.588934e+003,3.420780e-004
3.590863e+003,-8.474860e-005
3.592791e+003,-1.457895e-006
3.594720e+003,1.336501e-004
3.596648e+003,1.109801e-004
3.598577e+003,-2.899132e-005
3.600505e+003,6.985217e-005
3.602434e+003,7.333182e-005
3.604362e+003,7.057608e-006
3.606291e+003,9.533710e-005
3.608219e+003,4.954708e-004
3.610148e+003,4.256828e-004
3.612076e+003,3.302731e-004
3.614005e+003,1.386881e-004
3.615933e+003,2.036564e-004
3.617862e+003,5.265871e-004
3.619790e+003,3.432386e-004
3.621719e+003,-1.209224e-004
3.623647e+003,-2.031967e-004
3.625576e+003,1.425660e-004
3.627504e+003,1.181476e-003
3.629433e+003,1.352880e-003
3.631361e+003,2.992040e-004
3.633290e+003,1.911876e-005
3.635218e+003,-3.770490e-005
3.637146e+003,1.158852e-004
3.639075e+003,7.674521e-005
3.641004e+003,-2.304855e-004
3.642932e+003,-2.344594e-004
3.644861e+003,-9.919199e-005
3.646789e+003,5.722041e-004
3.648718e+003,1.248727e-003
3.650646e+003,7.828341e-004
3.652574e+003,-2.306842e-004
3.654503e+003,-4.824048e-005
3.656432e+003,3.432386e-004
3.658360e+003,-1.392400e-004
3.660289e+003,-3.870981e-004
3.662217e+003,-3.417094e-004
3.664146e+003,-4.479730e-004
3.666074e+003,-3.487945e-004
3.668002e+003,2.155904e-004
3.669931e+003,6.701889e-004
3.671860e+003,4.048878e-004
3.673788e+003,8.010911e-004
3.675717e+003,1.152306e-003
3.677645e+003,4.518188e-004
3.679573e+003,-1.722967e-006
3.681502e+003,-3.038322e-004
3.683430e+003,-3.228375e-004
3.685359e+003,-7.455095e-006
3.687288e+003,7.397175e-004
3.689216e+003,9.587638e-004
3.691145e+003,5.207816e-004
3.693073e+003,-8.206526e-005
3.695001e+003,-3.119774e-004
3.696930e+003,-7.722858e-005
3.698858e+003,-8.283502e-007
3.700787e+003,1.453171e-004
3.702716e+003,1.471401e-004
3.704644e+003,5.964537e-005
3.706573e+003,1.810821e-004
3.708501e+003,3.617755e-004
3.710429e+003,6.848238e-004
3.712358e+003,5.060195e-004
3.714286e+003,-3.670032e-004
3.716215e+003,-4.912324e-004
3.718144e+003,-1.769322e-005
3.720072e+003,1.913249e-004
3.722000e+003,2.506319e-004
3.723929e+003,1.198292e-004
3.725857e+003,-1.355161e-005
3.727786e+003,-1.121111e-004
3.729714e+003,3.048439e-005
3.731643e+003,4.860169e-004
3.733572e+003,7.977052e-004
3.735500e+003,1.017412e-003
3.737428e+003,4.234274e-004
3.739357e+003,-1.086992e-004
3.741285e+003,6.620686e-005
3.743214e+003,1.199018e-003
3.745142e+003,1.261454e-003
3.747071e+003,4.597461e-004
3.749000e+003,9.451490e-004
3.750928e+003,1.122872e-003
3.752856e+003,4.961342e-004
3.754785e+003,-1.407968e-004
3.756713e+003,-1.157880e-004
3.758642e+003,-3.899701e-005
3.760570e+003,3.976103e-006
3.762499e+003,-3.334986e-004
3.764427e+003,-3.481654e-004
3.766356e+003,-2.247232e-004
3.768284e+003,-8.607371e-005
3.770213e+003,-8.650436e-005
3.772141e+003,-4.571085e-004
3.774070e+003,-5.946469e-004
3.775998e+003,-4.091782e-004
3.777927e+003,-2.482355e-004
3.779855e+003,-1.020740e-004
3.781784e+003,-3.491255e-004
3.783712e+003,-3.564091e-004
3.785641e+003,-1.766017e-004
3.787569e+003,-1.567951e-004
3.789498e+003,-4.337399e-004
3.791426e+003,-6.419281e-004
3.793355e+003,-6.207200e-004
3.795283e+003,-3.969631e-004
3.797212e+003,-1.974009e-004
3.799140e+003,1.430301e-004
3.801069e+003,7.106436e-004
3.802997e+003,2.169827e-004
3.804926e+003,1.498580e-004
3.806854e+003,5.562790e-004
3.808783e+003,-8.975084e-005
3.810711e+003,-5.946138e-004
3.812640e+003,-5.212831e-004
3.814568e+003,-7.023849e-005
3.816497e+003,3.672804e-004
3.818425e+003,3.324616e-004
3.820354e+003,8.143030e-004
3.822282e+003,3.549775e-004
3.824211e+003,-3.837876e-004
3.826139e+003,-3.653148e-004
3.828068e+003,-3.741871e-004
3.829996e+003,-1.336090e-004
3.831925e+003,-4.764413e-005
3.833853e+003,-1.594117e-004
3.835782e+003,2.829243e-004
3.837710e+003,9.203779e-004
3.839639e+003,5.269188e-004
3.841567e+003,-8.276095e-005
3.843496e+003,-2.556201e-004
3.845424e+003,-6.289916e-004
3.847353e+003,-9.042468e-004
3.849281e+003,-5.558322e-004
3.851210e+003,6.771578e-004
3.853138e+003,1.932629e-003
3.855067e+003,1.094038e-003
3.856995e+003,-9.872822e-005
3.858924e+003,-4.610473e-004
3.860852e+003,-2.313134e-004
3.862781e+003,2.425758e-004
3.864709e+003,2.826259e-004
3.866638e+003,-2.718128e-004
3.868566e+003,1.830710e-004
3.870495e+003,4.025000e-004
3.872423e+003,1.063402e-004
3.874352e+003,3.051752e-005
3.876280e+003,-3.337965e-004
3.878209e+003,-2.594945e-004
3.880137e+003,-2.915698e-005
3.882066e+003,-2.948922e-004
3.883994e+003,-1.957118e-004
3.885923e+003,6.739987e-005
3.887851e+003,-3.455499e-004
3.889780e+003,-1.006827e-004
3.891708e+003,9.205611e-005
3.893637e+003,-3.669701e-004
3.895565e+003,-5.796575e-004
3.897494e+003,-3.468742e-004
3.899422e+003,-1.795828e-005
3.901351e+003,-5.732151e-006
3.903279e+003,-3.969276e-005
3.905208e+003,-1.434798e-004
3.907136e+003,-4.673360e-004
3.909065e+003,-4.587304e-004
3.910993e+003,-5.035111e-004
3.912922e+003,-6.145990e-004
3.914850e+003,-4.438355e-004
3.916779e+003,-2.590971e-004
3.918707e+003,-4.303304e-004
3.920636e+003,-4.776957e-004
3.922564e+003,-2.626735e-004
3.924493e+003,-2.713493e-004
3.926421e+003,-5.254860e-004
3.928350e+003,-5.389220e-004
3.930278e+003,-5.996102e-004
3.932207e+003,-6.179077e-004
3.934135e+003,-6.576763e-004
3.936064e+003,-7.347881e-004
3.937992e+003,-7.917447e-004
3.939921e+003,-7.230121e-004
3.941849e+003,-4.352294e-004
3.943778e+003,-5.901137e-004
3.945706e+003,-7.754060e-004
3.947635e+003,-7.102104e-004
3.949563e+003,-6.136725e-004
3.951492e+003,-6.892041e-004
3.953420e+003,-6.172128e-004
3.955349e+003,-8.112908e-004
3.957277e+003,-9.609167e-004
3.959206e+003,-1.020257e-003
3.961134e+003,-9.172081e-004
3.963063e+003,-7.985578e-004
3.964991e+003,-8.284549e-004
3.966920e+003,-6.042094e-004
3.968848e+003,-4.311580e-004
3.970777e+003,-6.018602e-004
3.972705e+003,-7.628042e-004
3.974634e+003,-7.197704e-004
3.976562e+003,-6.985661e-004
3.978491e+003,-5.847202e-004
3.980419e+003,-5.578838e-004
3.982348e+003,-6.602238e-004
3.984276e+003,-7.498383e-004
3.986205e+003,-8.593420e-004
3.988133e+003,-7.377982e-004
3.990062e+003,-7.110705e-004
3.991990e+003,-7.344242e-004
3.993919e+003,-8.486938e-004
3.995847e+003,-1.031793e-003
3.997776e+003,-9.274909e-004
3.999704e+003,-9.859100e-004
4.001633e+003,0.000000e+000
