3.991989e+002,1.296157e-002
4.011274e+002,1.976607e-002
4.030559e+002,1.458783e-002
4.049844e+002,5.427498e-003
4.069129e+002,3.025513e-003
4.088414e+002,1.015185e-002
4.107699e+002,1.462717e-002
4.126984e+002,1.432882e-002
4.146269e+002,1.031713e-002
4.165554e+002,1.172546e-002
4.184839e+002,1.645921e-002
4.204124e+002,1.425968e-002
4.223409e+002,1.486211e-002
4.242694e+002,1.486060e-002
4.261979e+002,9.611332e-003
4.281264e+002,8.090346e-003
4.300549e+002,9.061711e-003
4.319834e+002,4.383682e-003
4.339119e+002,3.151720e-003
4.358404e+002,9.371187e-003
4.377689e+002,1.107909e-002
4.396974e+002,8.586825e-003
4.416259e+002,6.632028e-003
4.435544e+002,8.366634e-003
4.454829e+002,1.172107e-002
4.474114e+002,1.484229e-002
4.493399e+002,1.213189e-002
4.512684e+002,7.693038e-003
4.531969e+002,5.607938e-003
4.551254e+002,8.459602e-003
4.570539e+002,9.526516e-003
4.589824e+002,7.745992e-003
4.609109e+002,1.021236e-002
4.628394e+002,1.191599e-002
4.647679e+002,9.889437e-003
4.666964e+002,9.237033e-003
4.686249e+002,7.928309e-003
4.705533e+002,7.888391e-003
4.724819e+002,8.256665e-003
4.744103e+002,9.093718e-003
4.763389e+002,9.705685e-003
4.782673e+002,1.027244e-002
4.801959e+002,9.352363e-003
4.821243e+002,1.003352e-002
4.840529e+002,1.034861e-002
4.859813e+002,9.944320e-003
4.879099e+002,9.161529e-003
4.898383e+002,7.345022e-003
4.917668e+002,7.326488e-003
4.936953e+002,8.551442e-003
4.956238e+002,8.425717e-003
4.975523e+002,7.593187e-003
4.994808e+002,7.711554e-003
5.014093e+002,8.294321e-003
5.033378e+002,6.434617e-003
5.052663e+002,1.270891e-003
5.071948e+002,2.201695e-003
5.091233e+002,5.380999e-003
5.110518e+002,5.719756e-003
5.129803e+002,5.343127e-003
5.149088e+002,4.750737e-003
5.168373e+002,5.432263e-003
5.187658e+002,6.310141e-003
5.206943e+002,6.667961e-003
5.226228e+002,5.641168e-003
5.245513e+002,5.605421e-003
5.264798e+002,5.322900e-003
5.284083e+002,5.971562e-003
5.303368e+002,4.794321e-003
5.322653e+002,3.944608e-003
5.341938e+002,4.250224e-003
5.361223e+002,4.037203e-003
5.380508e+002,3.314122e-003
5.399792e+002,4.730605e-003
5.419078e+002,4.824608e-003
5.438363e+002,4.509749e-003
5.457648e+002,4.402560e-003
5.476932e+002,3.896228e-003
5.496218e+002,3.430895e-003
5.515503e+002,3.745507e-003
5.534788e+002,4.008008e-003
5.554072e+002,4.509415e-003
5.573358e+002,4.786147e-003
5.592643e+002,5.054541e-003
5.611927e+002,3.704735e-003
5.631212e+002,3.140106e-003
5.650497e+002,2.895640e-003
5.669783e+002,3.433533e-003
5.689067e+002,5.134934e-003
5.708352e+002,5.926617e-003
5.727637e+002,4.094161e-003
5.746923e+002,3.132430e-003
5.766207e+002,4.910387e-003
5.785492e+002,8.151147e-003
5.804777e+002,7.680121e-003
5.824063e+002,3.484133e-003
5.843347e+002,5.323268e-003
5.862632e+002,6.930720e-003
5.881917e+002,6.133543e-003
5.901202e+002,5.949257e-003
5.920487e+002,3.652506e-003
5.939772e+002,2.552479e-003
5.959057e+002,3.283706e-003
5.978342e+002,4.195152e-003
5.997627e+002,4.015900e-003
6.016912e+002,2.980272e-003
6.036197e+002,2.399790e-003
6.055482e+002,3.423548e-003
6.074767e+002,3.941064e-003
6.094052e+002,4.106537e-003
6.113337e+002,4.836100e-003
6.132622e+002,4.088107e-003
6.151907e+002,3.280969e-003
6.171192e+002,3.978346e-003
6.190477e+002,3.761883e-003
6.209762e+002,4.125971e-003
6.229047e+002,3.339664e-003
6.248332e+002,1.965512e-003
6.267617e+002,1.560398e-003
6.286902e+002,2.408886e-003
6.306187e+002,3.226921e-003
6.325472e+002,3.802426e-003
6.344756e+002,4.078842e-003
6.364042e+002,3.900642e-003
6.383326e+002,3.667108e-003
6.402612e+002,3.510086e-003
6.421896e+002,3.784143e-003
6.441182e+002,3.702696e-003
6.460466e+002,3.399670e-003
6.479752e+002,3.492116e-003
6.499036e+002,3.534604e-003
6.518322e+002,3.454674e-003
6.537606e+002,3.469269e-003
6.556891e+002,3.601352e-003
6.576177e+002,3.696113e-003
6.595461e+002,3.950259e-003
6.614746e+002,3.418705e-003
6.634031e+002,2.744698e-003
6.653317e+002,3.677032e-003
6.672601e+002,8.346536e-003
6.691886e+002,7.526227e-003
6.711171e+002,4.102089e-003
6.730457e+002,3.781369e-003
6.749741e+002,3.854306e-003
6.769026e+002,4.041216e-003
6.788311e+002,4.601829e-003
6.807596e+002,4.444133e-003
6.826881e+002,4.287198e-003
6.846166e+002,4.058206e-003
6.865451e+002,3.253026e-003
6.884736e+002,3.008897e-003
6.904021e+002,3.578801e-003
6.923306e+002,3.919532e-003
6.942591e+002,4.226936e-003
6.961876e+002,4.413873e-003
6.981161e+002,4.235033e-003
7.000446e+002,3.797379e-003
7.019731e+002,3.582977e-003
7.039016e+002,3.598646e-003
7.058301e+002,3.619227e-003
7.077585e+002,3.633962e-003
7.096871e+002,3.843274e-003
7.116156e+002,3.877908e-003
7.135441e+002,3.592165e-003
7.154725e+002,3.247485e-003
7.174011e+002,3.311584e-003
7.193296e+002,3.645155e-003
7.212581e+002,4.343821e-003
7.231865e+002,4.666765e-003
7.251151e+002,4.328292e-003
7.270436e+002,4.112123e-003
7.289720e+002,4.479384e-003
7.309005e+002,4.994642e-003
7.328290e+002,5.048105e-003
7.347576e+002,4.682908e-003
7.366860e+002,4.626743e-003
7.386145e+002,4.703407e-003
7.405430e+002,4.975604e-003
7.424716e+002,4.870109e-003
7.444000e+002,5.109218e-003
7.463285e+002,5.555580e-003
7.482570e+002,5.430685e-003
7.501855e+002,5.054977e-003
7.521140e+002,5.659597e-003
7.540425e+002,6.391473e-003
7.559710e+002,6.480791e-003
7.578995e+002,6.120605e-003
7.598280e+002,5.751014e-003
7.617565e+002,6.123562e-003
7.636850e+002,6.737548e-003
7.656135e+002,6.888638e-003
7.675420e+002,6.371668e-003
7.694705e+002,5.544908e-003
7.713990e+002,5.434108e-003
7.733275e+002,6.027934e-003
7.752560e+002,6.116304e-003
7.771844e+002,6.032033e-003
7.791130e+002,5.880031e-003
7.810415e+002,5.672353e-003
7.829700e+002,5.662752e-003
7.848984e+002,5.891249e-003
7.868270e+002,5.998000e-003
7.887555e+002,6.001326e-003
7.906840e+002,5.979826e-003
7.926124e+002,5.599278e-003
7.945410e+002,5.149888e-003
7.964695e+002,5.035333e-003
7.983979e+002,5.554372e-003
8.003264e+002,5.824719e-003
8.022549e+002,6.008516e-003
8.041835e+002,6.155286e-003
8.061119e+002,6.191919e-003
8.080404e+002,6.269363e-003
8.099689e+002,6.777562e-003
8.118975e+002,7.397529e-003
8.138259e+002,7.791665e-003
8.157545e+002,7.659010e-003
8.176830e+002,7.577811e-003
8.196115e+002,6.981493e-003
8.215399e+002,6.199650e-003
8.234684e+002,5.835196e-003
8.253970e+002,5.976030e-003
8.273254e+002,5.876740e-003
8.292539e+002,5.276043e-003
8.311824e+002,5.064698e-003
8.331110e+002,5.014149e-003
8.350394e+002,4.749733e-003
8.369679e+002,4.947586e-003
8.388964e+002,4.956668e-003
8.408250e+002,4.894101e-003
8.427534e+002,4.552271e-003
8.446819e+002,3.952767e-003
8.466104e+002,3.843976e-003
8.485389e+002,4.146878e-003
8.504674e+002,4.076669e-003
8.523959e+002,4.013760e-003
8.543244e+002,4.234531e-003
8.562529e+002,4.326786e-003
8.581814e+002,4.138984e-003
8.601099e+002,4.040581e-003
8.620384e+002,4.148718e-003
8.639669e+002,4.494114e-003
8.658954e+002,4.797403e-003
8.678239e+002,4.519057e-003
8.697524e+002,4.435832e-003
8.716809e+002,4.411999e-003
8.736094e+002,4.253369e-003
8.755378e+002,4.088074e-003
8.774664e+002,4.474195e-003
8.793949e+002,4.472957e-003
8.813234e+002,3.956344e-003
8.832518e+002,3.830404e-003
8.851804e+002,3.646592e-003
8.871089e+002,3.647327e-003
8.890374e+002,3.538713e-003
8.909658e+002,3.465362e-003
8.928943e+002,3.848422e-003
8.948229e+002,3.564970e-003
8.967513e+002,3.243178e-003
8.986798e+002,3.411759e-003
9.006083e+002,3.311818e-003
9.025369e+002,3.050037e-003
9.044653e+002,3.092116e-003
9.063938e+002,3.143810e-003
9.083223e+002,3.041729e-003
9.102509e+002,2.675881e-003
9.121793e+002,2.906314e-003
9.141078e+002,3.107600e-003
9.160364e+002,3.276929e-003
9.179648e+002,3.383173e-003
9.198933e+002,3.288013e-003
9.218218e+002,3.319598e-003
9.237504e+002,3.146914e-003
9.256788e+002,2.965426e-003
9.276073e+002,3.047668e-003
9.295358e+002,3.049103e-003
9.314644e+002,3.234833e-003
9.333928e+002,3.554214e-003
9.353213e+002,3.682145e-003
9.372498e+002,3.469436e-003
9.391783e+002,2.982340e-003
9.411068e+002,3.152989e-003
9.430353e+002,3.721244e-003
9.449637e+002,3.909301e-003
9.468923e+002,3.927389e-003
9.488208e+002,3.816867e-003
9.507493e+002,3.720776e-003
9.526777e+002,3.608335e-003
9.546063e+002,3.597243e-003
9.565348e+002,3.579403e-003
9.584633e+002,3.499764e-003
9.603917e+002,3.431596e-003
9.623203e+002,3.512591e-003
9.642488e+002,3.498061e-003
9.661772e+002,3.298630e-003
9.681057e+002,3.206660e-003
9.700343e+002,3.173315e-003
9.719628e+002,3.201553e-003
9.738912e+002,3.072261e-003
9.758197e+002,3.063919e-003
9.777483e+002,2.972899e-003
9.796768e+002,2.876261e-003
9.816052e+002,2.762738e-003
9.835337e+002,2.878762e-003
9.854623e+002,3.055310e-003
9.873907e+002,3.057212e-003
9.893192e+002,2.952982e-003
9.912477e+002,2.756736e-003
9.931763e+002,2.857383e-003
9.951047e+002,3.112306e-003
9.970332e+002,3.186465e-003
9.989617e+002,3.334389e-003
1.000890e+003,3.579269e-003
1.002819e+003,3.893320e-003
1.004747e+003,3.897666e-003
1.006676e+003,4.086535e-003
1.008604e+003,4.346063e-003
1.010533e+003,4.373273e-003
1.012461e+003,4.521936e-003
1.014390e+003,4.876509e-003
1.016318e+003,5.535780e-003
1.018247e+003,5.853399e-003
1.020175e+003,5.860317e-003
1.022104e+003,5.981842e-003
1.024032e+003,6.383403e-003
1.025961e+003,6.745995e-003
1.027889e+003,6.742225e-003
1.029818e+003,6.882781e-003
1.031746e+003,7.152508e-003
1.033675e+003,7.351931e-003
1.035603e+003,7.294443e-003
1.037532e+003,7.439896e-003
1.039460e+003,7.641912e-003
1.041389e+003,7.644846e-003
1.043317e+003,7.828875e-003
1.045246e+003,7.932898e-003
1.047174e+003,7.971065e-003
1.049103e+003,7.976127e-003
1.051031e+003,8.109858e-003
1.052960e+003,8.318705e-003
1.054888e+003,8.212091e-003
1.056817e+003,8.180149e-003
1.058745e+003,8.323907e-003
1.060674e+003,8.519847e-003
1.062602e+003,8.611598e-003
1.064531e+003,8.512447e-003
1.066459e+003,8.306243e-003
1.068388e+003,8.430041e-003
1.070316e+003,8.694714e-003
1.072245e+003,8.846182e-003
1.074173e+003,8.803915e-003
1.076102e+003,8.705363e-003
1.078030e+003,8.731157e-003
1.079959e+003,8.526606e-003
1.081887e+003,8.610381e-003
1.083816e+003,9.180210e-003
1.085744e+003,9.352499e-003
1.087673e+003,9.268275e-003
1.089601e+003,9.341022e-003
1.091530e+003,9.525127e-003
1.093458e+003,9.672176e-003
1.095387e+003,9.539250e-003
1.097315e+003,9.630200e-003
1.099244e+003,9.799856e-003
1.101172e+003,9.834256e-003
1.103101e+003,9.760478e-003
1.105029e+003,9.645446e-003
1.106958e+003,9.577356e-003
1.108886e+003,9.718290e-003
1.110815e+003,9.700908e-003
1.112743e+003,9.509345e-003
1.114672e+003,9.513578e-003
1.116600e+003,9.894013e-003
1.118529e+003,1.010233e-002
1.120457e+003,9.947744e-003
1.122386e+003,1.007259e-002
1.124314e+003,9.960017e-003
1.126243e+003,9.590296e-003
1.128171e+003,9.348402e-003
1.130100e+003,9.537930e-003
1.132028e+003,9.670347e-003
1.133957e+003,9.535830e-003
1.135885e+003,9.373658e-003
1.137814e+003,8.993679e-003
1.139742e+003,8.397881e-003
1.141671e+003,8.199766e-003
1.143599e+003,8.187003e-003
1.145528e+003,7.871116e-003
1.147456e+003,7.616892e-003
1.149385e+003,7.421728e-003
1.151313e+003,6.973883e-003
1.153242e+003,6.668432e-003
1.155170e+003,6.660928e-003
1.157099e+003,6.523304e-003
1.159027e+003,6.210170e-003
1.160956e+003,5.897496e-003
1.162884e+003,5.785397e-003
1.164813e+003,5.767836e-003
1.166741e+003,5.682290e-003
1.168670e+003,5.581893e-003
1.170598e+003,5.425955e-003
1.172526e+003,5.301567e-003
1.174455e+003,5.198843e-003
1.176384e+003,5.280235e-003
1.178312e+003,5.227146e-003
1.180240e+003,5.017970e-003
1.182169e+003,4.822664e-003
1.184098e+003,4.653971e-003
1.186026e+003,4.514236e-003
1.187954e+003,4.623830e-003
1.189883e+003,4.609899e-003
1.191812e+003,4.456720e-003
1.193740e+003,4.512260e-003
1.195668e+003,4.338667e-003
1.197597e+003,4.063491e-003
1.199526e+003,4.062287e-003
1.201454e+003,4.241691e-003
1.203382e+003,4.320228e-003
1.205311e+003,4.236907e-003
1.207240e+003,4.345160e-003
1.209168e+003,4.434526e-003
1.211096e+003,4.386126e-003
1.213025e+003,4.570486e-003
1.214953e+003,4.652665e-003
1.216882e+003,4.397138e-003
1.218810e+003,4.151896e-003
1.220739e+003,4.097239e-003
1.222667e+003,4.312664e-003
1.224596e+003,4.482765e-003
1.226524e+003,4.450460e-003
1.228453e+003,4.375716e-003
1.230381e+003,4.254306e-003
1.232310e+003,4.283116e-003
1.234238e+003,4.341947e-003
1.236167e+003,4.282346e-003
1.238095e+003,4.351284e-003
1.240024e+003,4.527661e-003
1.241952e+003,4.646704e-003
1.243881e+003,4.619343e-003
1.245809e+003,4.741760e-003
1.247738e+003,4.954288e-003
1.249666e+003,5.315118e-003
1.251595e+003,5.475378e-003
1.253523e+003,5.582899e-003
1.255452e+003,5.905557e-003
1.257380e+003,6.199582e-003
1.259309e+003,6.536860e-003
1.261237e+003,6.884464e-003
1.263166e+003,7.079958e-003
1.265094e+003,7.381621e-003
1.267023e+003,7.733714e-003
1.268951e+003,8.075223e-003
1.270880e+003,8.349914e-003
1.272808e+003,8.556275e-003
1.274737e+003,8.922986e-003
1.276665e+003,9.384053e-003
1.278594e+003,9.790740e-003
1.280522e+003,1.006682e-002
1.282451e+003,1.033019e-002
1.284379e+003,1.078039e-002
1.286308e+003,1.119906e-002
1.288236e+003,1.168604e-002
1.290165e+003,1.227587e-002
1.292093e+003,1.259798e-002
1.294022e+003,1.286538e-002
1.295950e+003,1.322738e-002
1.297879e+003,1.343925e-002
1.299807e+003,1.348850e-002
1.301736e+003,1.350227e-002
1.303664e+003,1.339458e-002
1.305593e+003,1.323230e-002
1.307521e+003,1.316221e-002
1.309450e+003,1.298714e-002
1.311378e+003,1.254900e-002
1.313307e+003,1.214852e-002
1.315235e+003,1.183246e-002
1.317164e+003,1.152875e-002
1.319092e+003,1.105248e-002
1.321021e+003,1.059140e-002
1.322949e+003,1.022199e-002
1.324878e+003,9.917607e-003
1.326806e+003,9.704161e-003
1.328735e+003,9.488754e-003
1.330663e+003,9.380769e-003
1.332592e+003,9.318137e-003
1.334520e+003,9.215406e-003
1.336449e+003,9.268749e-003
1.338377e+003,9.292410e-003
1.340306e+003,9.165014e-003
1.342234e+003,9.136826e-003
1.344163e+003,9.081909e-003
1.346091e+003,8.994897e-003
1.348020e+003,9.034375e-003
1.349948e+003,8.938645e-003
1.351877e+003,8.744984e-003
1.353805e+003,8.689171e-003
1.355734e+003,8.652495e-003
1.357662e+003,8.596355e-003
1.359591e+003,8.508257e-003
1.361519e+003,8.385956e-003
1.363448e+003,8.286417e-003
1.365376e+003,8.083325e-003
1.367305e+003,7.905127e-003
1.369233e+003,7.868821e-003
1.371162e+003,7.850569e-003
1.373090e+003,7.952605e-003
1.375019e+003,8.005320e-003
1.376947e+003,7.979739e-003
1.378876e+003,8.050514e-003
1.380804e+003,8.099967e-003
1.382733e+003,8.013556e-003
1.384661e+003,8.019159e-003
1.386590e+003,7.967116e-003
1.388518e+003,7.726294e-003
1.390447e+003,7.328678e-003
1.392375e+003,7.098819e-003
1.394304e+003,7.033315e-003
1.396232e+003,6.849422e-003
1.398161e+003,6.716819e-003
1.400089e+003,6.760129e-003
1.402018e+003,6.681790e-003
1.403946e+003,6.514492e-003
1.405875e+003,6.431556e-003
1.407803e+003,6.289802e-003
1.409732e+003,6.103199e-003
1.411660e+003,6.071344e-003
1.413589e+003,6.152329e-003
1.415517e+003,6.351293e-003
1.417446e+003,6.743572e-003
1.419374e+003,7.367635e-003
1.421303e+003,8.036946e-003
1.423231e+003,8.680550e-003
1.425160e+003,9.387202e-003
1.427088e+003,9.867574e-003
1.429017e+003,1.022115e-002
1.430945e+003,1.054228e-002
1.432874e+003,1.088750e-002
1.434802e+003,1.136280e-002
1.436731e+003,1.170275e-002
1.438659e+003,1.202229e-002
1.440588e+003,1.249638e-002
1.442516e+003,1.302633e-002
1.444445e+003,1.348867e-002
1.446373e+003,1.414140e-002
1.448302e+003,1.486156e-002
1.450230e+003,1.541435e-002
1.452159e+003,1.584855e-002
1.454087e+003,1.648960e-002
1.456016e+003,1.722573e-002
1.457944e+003,1.767472e-002
1.459873e+003,1.778855e-002
1.461801e+003,1.790890e-002
1.463730e+003,1.812614e-002
1.465658e+003,1.825353e-002
1.467587e+003,1.818353e-002
1.469515e+003,1.815817e-002
1.471444e+003,1.797634e-002
1.473372e+003,1.761240e-002
1.475301e+003,1.724480e-002
1.477229e+003,1.678620e-002
1.479158e+003,1.615678e-002
1.481086e+003,1.563344e-002
1.483015e+003,1.511200e-002
1.484943e+003,1.456096e-002
1.486872e+003,1.406316e-002
1.488800e+003,1.363088e-002
1.490729e+003,1.324678e-002
1.492657e+003,1.261572e-002
1.494586e+003,1.206954e-002
1.496514e+003,1.163737e-002
1.498443e+003,1.109636e-002
1.500371e+003,1.057602e-002
1.502300e+003,1.024269e-002
1.504228e+003,9.950524e-003
1.506157e+003,9.811006e-003
1.508085e+003,9.516660e-003
1.510014e+003,9.132292e-003
1.511942e+003,8.844120e-003
1.513871e+003,8.653340e-003
1.515799e+003,8.734301e-003
1.517728e+003,8.787381e-003
1.519656e+003,8.642895e-003
1.521585e+003,8.706444e-003
1.523513e+003,8.829275e-003
1.525442e+003,8.924778e-003
1.527370e+003,9.033564e-003
1.529299e+003,9.219704e-003
1.531227e+003,9.409820e-003
1.533156e+003,9.815581e-003
1.535084e+003,1.011071e-002
1.537013e+003,1.026864e-002
1.538941e+003,1.062987e-002
1.540870e+003,1.105833e-002
1.542798e+003,1.148118e-002
1.544727e+003,1.179024e-002
1.546655e+003,1.190002e-002
1.548584e+003,1.216709e-002
1.550512e+003,1.258059e-002
1.552441e+003,1.289541e-002
1.554369e+003,1.315015e-002
1.556298e+003,1.353960e-002
1.558226e+003,1.426088e-002
1.560155e+003,1.474843e-002
1.562083e+003,1.489136e-002
1.564012e+003,1.526833e-002
1.565940e+003,1.565900e-002
1.567869e+003,1.606494e-002
1.569797e+003,1.656140e-002
1.571726e+003,1.668275e-002
1.573654e+003,1.675799e-002
1.575583e+003,1.701721e-002
1.577511e+003,1.710908e-002
1.579440e+003,1.706225e-002
1.581368e+003,1.699051e-002
1.583297e+003,1.672431e-002
1.585225e+003,1.644906e-002
1.587154e+003,1.615568e-002
1.589082e+003,1.568882e-002
1.591010e+003,1.516731e-002
1.592939e+003,1.471257e-002
1.594868e+003,1.433690e-002
1.596796e+003,1.382656e-002
1.598724e+003,1.317771e-002
1.600653e+003,1.252479e-002
1.602582e+003,1.206446e-002
1.604510e+003,1.153936e-002
1.606438e+003,1.098944e-002
1.608367e+003,1.056482e-002
1.610296e+003,1.007883e-002
1.612224e+003,9.495899e-003
1.614152e+003,9.166368e-003
1.616081e+003,8.994118e-003
1.618010e+003,8.813450e-003
1.619938e+003,8.538804e-003
1.621866e+003,8.345726e-003
1.623795e+003,7.986049e-003
1.625724e+003,7.728216e-003
1.627652e+003,7.594164e-003
1.629580e+003,7.449570e-003
1.631509e+003,7.150622e-003
1.633438e+003,7.038064e-003
1.635366e+003,7.025638e-003
1.637294e+003,6.789678e-003
1.639223e+003,6.387472e-003
1.641151e+003,5.999546e-003
1.643080e+003,5.538666e-003
1.645008e+003,5.323705e-003
1.646937e+003,5.132486e-003
1.648865e+003,4.676009e-003
1.650794e+003,4.432518e-003
1.652722e+003,4.556557e-003
1.654651e+003,4.016770e-003
1.656579e+003,3.473211e-003
1.658508e+003,3.183194e-003
1.660436e+003,2.980805e-003
1.662365e+003,2.832535e-003
1.664293e+003,2.680249e-003
1.666222e+003,2.443472e-003
1.668150e+003,2.342954e-003
1.670079e+003,2.214151e-003
1.672007e+003,1.935557e-003
1.673936e+003,1.702712e-003
1.675864e+003,1.536423e-003
1.677793e+003,1.222044e-003
1.679721e+003,9.615532e-004
1.681650e+003,7.602629e-004
1.683578e+003,8.139710e-004
1.685507e+003,7.411447e-004
1.687435e+003,4.839934e-004
1.689364e+003,3.323622e-004
1.691292e+003,2.860078e-004
1.693221e+003,2.810344e-004
1.695149e+003,4.020357e-004
1.697078e+003,4.312216e-004
1.699006e+003,4.373244e-004
1.700935e+003,5.013422e-004
1.702863e+003,3.807776e-004
1.704792e+003,4.175902e-004
1.706720e+003,4.082707e-004
1.708649e+003,3.039455e-004
1.710577e+003,1.492945e-004
1.712506e+003,1.616579e-004
1.714434e+003,1.546310e-004
1.716363e+003,7.508822e-005
1.718291e+003,1.022968e-004
1.720220e+003,5.400882e-006
1.722148e+003,-8.339037e-005
1.724077e+003,-2.925637e-005
1.726005e+003,7.836907e-005
1.727934e+003,6.087149e-005
1.729862e+003,4.075506e-006
1.731791e+003,7.313299e-005
1.733719e+003,1.757454e-004
1.735648e+003,1.003415e-004
1.737576e+003,1.365144e-005
1.739505e+003,7.909816e-005
1.741433e+003,7.024984e-005
1.743362e+003,8.834434e-005
1.745290e+003,5.706056e-005
1.747219e+003,2.750134e-006
1.749147e+003,2.432107e-005
1.751076e+003,8.698556e-005
1.753004e+003,4.665523e-005
1.754933e+003,-3.965963e-005
1.756861e+003,-4.794231e-005
1.758790e+003,-6.082984e-005
1.760718e+003,-3.449116e-005
1.762647e+003,-6.470596e-005
1.764575e+003,-1.945526e-004
1.766504e+003,-1.152249e-004
1.768432e+003,-9.432236e-005
1.770361e+003,-2.265446e-004
1.772289e+003,-1.313897e-004
1.774218e+003,-2.991901e-005
1.776146e+003,-1.200943e-004
1.778075e+003,-1.817353e-004
1.780003e+003,-1.716335e-004
1.781932e+003,-2.007128e-004
1.783860e+003,-2.516795e-004
1.785789e+003,-2.420761e-004
1.787717e+003,-2.247232e-004
1.789646e+003,-2.167088e-004
1.791574e+003,-2.085287e-004
1.793503e+003,-1.505681e-004
1.795431e+003,-1.612997e-004
1.797360e+003,-1.531517e-004
1.799288e+003,-2.003153e-004
1.801217e+003,-2.782368e-004
1.803145e+003,-3.352533e-004
1.805074e+003,-2.876076e-004
1.807002e+003,-2.344594e-004
1.808931e+003,-2.519113e-004
1.810859e+003,-2.499244e-004
1.812788e+003,-2.797269e-004
1.814716e+003,-3.572368e-004
1.816645e+003,-3.974928e-004
1.818573e+003,-4.425115e-004
1.820502e+003,-3.691882e-004
1.822430e+003,-2.745613e-004
1.824359e+003,-3.131032e-004
1.826287e+003,-2.747268e-004
1.828216e+003,-2.389632e-004
1.830144e+003,-2.539644e-004
1.832073e+003,-3.996445e-004
1.834001e+003,-3.785570e-004
1.835930e+003,-3.384648e-004
1.837858e+003,-4.132499e-004
1.839787e+003,-3.683936e-004
1.841715e+003,-2.877069e-004
1.843644e+003,-2.721771e-004
1.845572e+003,-3.898789e-004
1.847501e+003,-5.030808e-004
1.849429e+003,-4.735585e-004
1.851358e+003,-3.762728e-004
1.853286e+003,-3.157520e-004
1.855215e+003,-3.325715e-004
1.857143e+003,-2.887996e-004
1.859072e+003,-2.376055e-004
1.861000e+003,-2.500900e-004
1.862929e+003,-2.612165e-004
1.864857e+003,-2.312140e-004
1.866786e+003,-3.024416e-004
1.868714e+003,-3.741540e-004
1.870643e+003,-4.119258e-004
1.872571e+003,-4.478075e-004
1.874500e+003,-3.734919e-004
1.876428e+003,-3.463114e-004
1.878357e+003,-2.570772e-004
1.880285e+003,-1.927642e-004
1.882214e+003,-2.807865e-004
1.884142e+003,-2.863494e-004
1.886071e+003,-2.833030e-004
1.887999e+003,-3.634277e-004
1.889928e+003,-3.722008e-004
1.891856e+003,-3.394912e-004
1.893785e+003,-2.809189e-004
1.895713e+003,-2.263790e-004
1.897642e+003,-2.604880e-004
1.899570e+003,-1.869683e-004
1.901499e+003,-1.235061e-004
1.903427e+003,-1.722628e-004
1.905356e+003,-2.081313e-004
1.907284e+003,-2.366782e-004
1.909213e+003,-2.371087e-004
1.911141e+003,-1.912407e-004
1.913070e+003,-1.411612e-004
1.914998e+003,-2.909071e-005
1.916927e+003,2.352580e-005
1.918855e+003,6.942136e-005
1.920784e+003,8.960369e-005
1.922712e+003,4.247991e-005
1.924641e+003,-7.076854e-005
1.926569e+003,-4.187941e-005
1.928498e+003,-4.870431e-005
1.930426e+003,-2.455163e-005
1.932355e+003,-4.870431e-005
1.934283e+003,-8.855826e-005
1.936212e+003,-7.222620e-005
1.938140e+003,-1.329134e-004
1.940069e+003,-1.422543e-004
1.941997e+003,2.929148e-005
1.943926e+003,7.879989e-005
1.945854e+003,-7.159675e-005
1.947783e+003,-1.107861e-004
1.949711e+003,-4.456300e-005
1.951640e+003,-4.075468e-006
1.953568e+003,2.624295e-005
1.955497e+003,-6.844953e-005
1.957425e+003,-1.284748e-004
1.959354e+003,-6.454031e-005
1.961282e+003,-4.605607e-006
1.963211e+003,-9.409965e-006
1.965139e+003,6.262379e-006
1.967068e+003,2.561337e-005
1.968996e+003,-1.254936e-004
1.970925e+003,-1.033659e-004
1.972853e+003,5.146021e-005
1.974782e+003,4.648955e-005
1.976710e+003,-9.774431e-006
1.978639e+003,8.813744e-006
1.980567e+003,6.259471e-005
1.982496e+003,7.439229e-005
1.984424e+003,1.141618e-004
1.986353e+003,1.438255e-004
1.988281e+003,7.826965e-005
1.990210e+003,4.178403e-005
1.992138e+003,1.703092e-004
1.994067e+003,1.521119e-004
1.995995e+003,8.658788e-005
1.997924e+003,7.147600e-005
1.999852e+003,7.899873e-005
2.001781e+003,9.715987e-005
2.003709e+003,1.179401e-004
2.005638e+003,1.637462e-004
2.007566e+003,1.883084e-004
2.009495e+003,1.874466e-004
2.011423e+003,1.836014e-004
2.013352e+003,2.859415e-004
2.015280e+003,3.091512e-004
2.017208e+003,2.695628e-004
2.019137e+003,3.503681e-004
2.021066e+003,3.788873e-004
2.022994e+003,3.228455e-004
2.024922e+003,3.723874e-004
2.026851e+003,4.420010e-004
2.028780e+003,5.326248e-004
2.030708e+003,5.682227e-004
2.032636e+003,5.074459e-004
2.034565e+003,4.207741e-004
2.036494e+003,3.841602e-004
2.038422e+003,4.348368e-004
2.040350e+003,4.642240e-004
2.042279e+003,4.973284e-004
2.044208e+003,5.888928e-004
2.046136e+003,5.262885e-004
2.048064e+003,4.902628e-004
2.049993e+003,6.049849e-004
2.051921e+003,6.545258e-004
2.053850e+003,7.239191e-004
2.055778e+003,7.585369e-004
2.057707e+003,8.235648e-004
2.059635e+003,8.627390e-004
2.061564e+003,8.878389e-004
2.063492e+003,7.550186e-004
2.065421e+003,7.055658e-004
2.067349e+003,8.376074e-004
2.069278e+003,9.222705e-004
2.071206e+003,1.046540e-003
2.073135e+003,1.161907e-003
2.075063e+003,1.193503e-003
2.076992e+003,1.190878e-003
2.078920e+003,1.209186e-003
2.080849e+003,1.223241e-003
2.082777e+003,1.244075e-003
2.084706e+003,1.209352e-003
2.086634e+003,1.141808e-003
2.088563e+003,1.168684e-003
2.090491e+003,1.268133e-003
2.092420e+003,1.415138e-003
2.094348e+003,1.462644e-003
2.096277e+003,1.380236e-003
2.098205e+003,1.411715e-003
2.100134e+003,1.447651e-003
2.102062e+003,1.535292e-003
2.103991e+003,1.569676e-003
2.105919e+003,1.612775e-003
2.107848e+003,1.689506e-003
2.109776e+003,1.686346e-003
2.111705e+003,1.672210e-003
2.113633e+003,1.693565e-003
2.115562e+003,1.755439e-003
2.117490e+003,1.819385e-003
2.119419e+003,1.881411e-003
2.121347e+003,1.916820e-003
2.123276e+003,1.889265e-003
2.125204e+003,1.918517e-003
2.127133e+003,2.024063e-003
2.129061e+003,2.157772e-003
2.130990e+003,2.240295e-003
2.132918e+003,2.167362e-003
2.134847e+003,2.103098e-003
2.136775e+003,2.192304e-003
2.138704e+003,2.238829e-003
2.140632e+003,2.262410e-003
2.142561e+003,2.275400e-003
2.144489e+003,2.213418e-003
2.146418e+003,2.222677e-003
2.148346e+003,2.398891e-003
2.150275e+003,2.497422e-003
2.152203e+003,2.495622e-003
2.154132e+003,2.540347e-003
2.156060e+003,2.559911e-003
2.157989e+003,2.486425e-003
2.159917e+003,2.445638e-003
2.161846e+003,2.435875e-003
2.163774e+003,2.500155e-003
2.165703e+003,2.568677e-003
2.167631e+003,2.667113e-003
2.169560e+003,2.795317e-003
2.171488e+003,2.797685e-003
2.173417e+003,2.645044e-003
2.175345e+003,2.594909e-003
2.177274e+003,2.749100e-003
2.179202e+003,2.796785e-003
2.181131e+003,2.697552e-003
2.183059e+003,2.643977e-003
2.184988e+003,2.731261e-003
2.186916e+003,2.754001e-003
2.188845e+003,2.651411e-003
2.190773e+003,2.527016e-003
2.192702e+003,2.500421e-003
2.194630e+003,2.628276e-003
2.196559e+003,2.753101e-003
2.198487e+003,2.727526e-003
2.200416e+003,2.671414e-003
2.202344e+003,2.654779e-003
2.204273e+003,2.623576e-003
2.206201e+003,2.631176e-003
2.208130e+003,2.695518e-003
2.210058e+003,2.717357e-003
2.211987e+003,2.686583e-003
2.213915e+003,2.707321e-003
2.215844e+003,2.715290e-003
2.217772e+003,2.622843e-003
2.219701e+003,2.544313e-003
2.221629e+003,2.473828e-003
2.223558e+003,2.466431e-003
2.225486e+003,2.470596e-003
2.227415e+003,2.405388e-003
2.229343e+003,2.400423e-003
2.231272e+003,2.387163e-003
2.233200e+003,2.465931e-003
2.235129e+003,2.586643e-003
2.237057e+003,2.502987e-003
2.238986e+003,2.384131e-003
2.240914e+003,2.323400e-003
2.242843e+003,2.351316e-003
2.244771e+003,2.299416e-003
2.246700e+003,2.288557e-003
2.248628e+003,2.283661e-003
2.250557e+003,2.179250e-003
2.252485e+003,2.202362e-003
2.254414e+003,2.232934e-003
2.256342e+003,2.216948e-003
2.258271e+003,2.190673e-003
2.260199e+003,2.187542e-003
2.262128e+003,2.205625e-003
2.264056e+003,2.249521e-003
2.265985e+003,2.245757e-003
2.267913e+003,2.238963e-003
2.269842e+003,2.281695e-003
2.271770e+003,2.388729e-003
2.273699e+003,2.400024e-003
2.275627e+003,2.290223e-003
2.277556e+003,2.211353e-003
2.279484e+003,2.155807e-003
2.281413e+003,2.175121e-003
2.283341e+003,2.190439e-003
2.285270e+003,2.167695e-003
2.287198e+003,2.173423e-003
2.289127e+003,2.256615e-003
2.291055e+003,2.268572e-003
2.292984e+003,2.336725e-003
2.294912e+003,2.410619e-003
2.296841e+003,2.508753e-003
2.298769e+003,2.689417e-003
2.300698e+003,2.878095e-003
2.302626e+003,3.077867e-003
2.304555e+003,3.220312e-003
2.306483e+003,3.371452e-003
2.308412e+003,3.621532e-003
2.310340e+003,3.987910e-003
2.312269e+003,4.436434e-003
2.314197e+003,4.914375e-003
2.316125e+003,5.459507e-003
2.318054e+003,6.003678e-003
2.319983e+003,6.575308e-003
2.321911e+003,7.257481e-003
2.323840e+003,7.836264e-003
2.325768e+003,8.261427e-003
2.327697e+003,8.887000e-003
2.329625e+003,9.641211e-003
2.331553e+003,1.005882e-002
2.333482e+003,1.010810e-002
2.335411e+003,1.016914e-002
2.337339e+003,1.039911e-002
2.339268e+003,1.053505e-002
2.341196e+003,1.043329e-002
2.343125e+003,9.929166e-003
2.345053e+003,8.802800e-003
2.346981e+003,6.998295e-003
2.348910e+003,5.882618e-003
2.350839e+003,7.107037e-003
2.352767e+003,9.439820e-003
2.354696e+003,1.134035e-002
2.356624e+003,1.260767e-002
2.358552e+003,1.327585e-002
2.360481e+003,1.349410e-002
2.362409e+003,1.344355e-002
2.364338e+003,1.317348e-002
2.366267e+003,1.253785e-002
2.368195e+003,1.164414e-002
2.370124e+003,1.059538e-002
2.372052e+003,9.270813e-003
2.373980e+003,7.906983e-003
2.375909e+003,6.572650e-003
2.377838e+003,5.354532e-003
2.379766e+003,4.406577e-003
2.381695e+003,3.795742e-003
2.383623e+003,3.497927e-003
2.385552e+003,3.349848e-003
2.387480e+003,3.343003e-003
2.389408e+003,3.415599e-003
2.391337e+003,3.414965e-003
2.393266e+003,3.471674e-003
2.395194e+003,3.556585e-003
2.397123e+003,3.640009e-003
2.399051e+003,3.746075e-003
2.400979e+003,3.736550e-003
2.402908e+003,3.727928e-003
2.404836e+003,3.802460e-003
2.406765e+003,3.834048e-003
2.408694e+003,3.815463e-003
2.410622e+003,3.868046e-003
2.412551e+003,3.895058e-003
2.414479e+003,3.987509e-003
2.416407e+003,4.116003e-003
2.418336e+003,4.181201e-003
2.420264e+003,4.108410e-003
2.422193e+003,4.058006e-003
2.424122e+003,4.135940e-003
2.426050e+003,4.199000e-003
2.427979e+003,4.165043e-003
2.429907e+003,4.216899e-003
2.431835e+003,4.380971e-003
2.433764e+003,4.470881e-003
2.435692e+003,4.472354e-003
2.437621e+003,4.430041e-003
2.439550e+003,4.446845e-003
2.441478e+003,4.450895e-003
2.443406e+003,4.470713e-003
2.445335e+003,4.517517e-003
2.447263e+003,4.597509e-003
2.449192e+003,4.697344e-003
2.451121e+003,4.709570e-003
2.453049e+003,4.731007e-003
2.454978e+003,4.777068e-003
2.456906e+003,4.839417e-003
2.458834e+003,4.931064e-003
2.460763e+003,4.944201e-003
2.462691e+003,4.856840e-003
2.464620e+003,4.967158e-003
2.466549e+003,5.136879e-003
2.468477e+003,5.158907e-003
2.470406e+003,5.114583e-003
2.472334e+003,5.092992e-003
2.474262e+003,5.157499e-003
2.476191e+003,5.224865e-003
2.478119e+003,5.303378e-003
2.480048e+003,5.372814e-003
2.481977e+003,5.484303e-003
2.483905e+003,5.500712e-003
2.485833e+003,5.463097e-003
2.487762e+003,5.430988e-003
2.489690e+003,5.372646e-003
2.491619e+003,5.461889e-003
2.493547e+003,5.676046e-003
2.495476e+003,5.843592e-003
2.497405e+003,5.860015e-003
2.499333e+003,5.782039e-003
2.501261e+003,5.735066e-003
2.503190e+003,5.742453e-003
2.505118e+003,5.838588e-003
2.507047e+003,5.897295e-003
2.508975e+003,5.902870e-003
2.510904e+003,5.959066e-003
2.512833e+003,6.096444e-003
2.514761e+003,6.100073e-003
2.516689e+003,6.009120e-003
2.518618e+003,6.052427e-003
2.520546e+003,6.208119e-003
2.522475e+003,6.177131e-003
2.524403e+003,6.104677e-003
2.526332e+003,6.098797e-003
2.528260e+003,6.156261e-003
2.530189e+003,6.244253e-003
2.532117e+003,6.234976e-003
2.534046e+003,6.166074e-003
2.535974e+003,6.267985e-003
2.537903e+003,6.314343e-003
2.539831e+003,6.325203e-003
2.541760e+003,6.261026e-003
2.543688e+003,6.347225e-003
2.545617e+003,6.407714e-003
2.547545e+003,6.347796e-003
2.549474e+003,6.334717e-003
2.551402e+003,6.322076e-003
2.553331e+003,6.324665e-003
2.555259e+003,6.396315e-003
2.557188e+003,6.415011e-003
2.559116e+003,6.325102e-003
2.561045e+003,6.384849e-003
2.562973e+003,6.472989e-003
2.564902e+003,6.510052e-003
2.566830e+003,6.605248e-003
2.568759e+003,6.568277e-003
2.570687e+003,6.541569e-003
2.572616e+003,6.602119e-003
2.574544e+003,6.618940e-003
2.576473e+003,6.542645e-003
2.578401e+003,6.616014e-003
2.580330e+003,6.650061e-003
2.582258e+003,6.622944e-003
2.584187e+003,6.620791e-003
2.586115e+003,6.511801e-003
2.588044e+003,6.438147e-003
2.589972e+003,6.582843e-003
2.591901e+003,6.811723e-003
2.593829e+003,6.806944e-003
2.595758e+003,6.685996e-003
2.597686e+003,6.640943e-003
2.599615e+003,6.640943e-003
2.601543e+003,6.813170e-003
2.603472e+003,6.904764e-003
2.605400e+003,6.913718e-003
2.607329e+003,6.905740e-003
2.609257e+003,6.920721e-003
2.611186e+003,7.018263e-003
2.613114e+003,7.122631e-003
2.615043e+003,7.150824e-003
2.616971e+003,7.106936e-003
2.618900e+003,7.185250e-003
2.620828e+003,7.320726e-003
2.622757e+003,7.428436e-003
2.624685e+003,7.396821e-003
2.626614e+003,7.366590e-003
2.628542e+003,7.428503e-003
2.630471e+003,7.453480e-003
2.632399e+003,7.434874e-003
2.634328e+003,7.406494e-003
2.636256e+003,7.435245e-003
2.638185e+003,7.625422e-003
2.640113e+003,7.657391e-003
2.642042e+003,7.535465e-003
2.643970e+003,7.640800e-003
2.645899e+003,7.710104e-003
2.647827e+003,7.713679e-003
2.649756e+003,7.847296e-003
2.651684e+003,7.942009e-003
2.653613e+003,7.915992e-003
2.655541e+003,7.895072e-003
2.657470e+003,7.837545e-003
2.659398e+003,7.894902e-003
2.661327e+003,7.956958e-003
2.663255e+003,7.929152e-003
2.665184e+003,7.941638e-003
2.667112e+003,8.118635e-003
2.669041e+003,8.308236e-003
2.670969e+003,8.363088e-003
2.672898e+003,8.219148e-003
2.674826e+003,8.222728e-003
2.676755e+003,8.347685e-003
2.678683e+003,8.366364e-003
2.680612e+003,8.396732e-003
2.682540e+003,8.437237e-003
2.684469e+003,8.472915e-003
2.686397e+003,8.605007e-003
2.688326e+003,8.675480e-003
2.690254e+003,8.678117e-003
2.692183e+003,8.702828e-003
2.694111e+003,8.752523e-003
2.696040e+003,8.756005e-003
2.697968e+003,8.828091e-003
2.699897e+003,8.891667e-003
2.701825e+003,8.832995e-003
2.703754e+003,8.841381e-003
2.705682e+003,8.978457e-003
2.707611e+003,9.056501e-003
2.709539e+003,9.124949e-003
2.711468e+003,9.145083e-003
2.713396e+003,9.141124e-003
2.715325e+003,9.220077e-003
2.717253e+003,9.300161e-003
2.719182e+003,9.333743e-003
2.721110e+003,9.340277e-003
2.723039e+003,9.521436e-003
2.724967e+003,9.737570e-003
2.726896e+003,9.757597e-003
2.728824e+003,9.700840e-003
2.730753e+003,9.727303e-003
2.732681e+003,9.791723e-003
2.734610e+003,9.876658e-003
2.736538e+003,9.961712e-003
2.738467e+003,1.005028e-002
2.740395e+003,1.014737e-002
2.742324e+003,1.020575e-002
2.744252e+003,1.032819e-002
2.746181e+003,1.044292e-002
2.748109e+003,1.048837e-002
2.750038e+003,1.055386e-002
2.751966e+003,1.072245e-002
2.753895e+003,1.090789e-002
2.755823e+003,1.097075e-002
2.757752e+003,1.105404e-002
2.759680e+003,1.121504e-002
2.761609e+003,1.150105e-002
2.763537e+003,1.182504e-002
2.765466e+003,1.198057e-002
2.767394e+003,1.220362e-002
2.769323e+003,1.240844e-002
2.771251e+003,1.277477e-002
2.773180e+003,1.310569e-002
2.775108e+003,1.344971e-002
2.777037e+003,1.391523e-002
2.778965e+003,1.432392e-002
2.780894e+003,1.480962e-002
2.782822e+003,1.547114e-002
2.784750e+003,1.614984e-002
2.786679e+003,1.683118e-002
2.788608e+003,1.739138e-002
2.790536e+003,1.801347e-002
2.792465e+003,1.869404e-002
2.794393e+003,1.930241e-002
2.796322e+003,1.995770e-002
2.798250e+003,2.061850e-002
2.800178e+003,2.112914e-002
2.802107e+003,2.168224e-002
2.804036e+003,2.217139e-002
2.805964e+003,2.262032e-002
2.807893e+003,2.306008e-002
2.809821e+003,2.334553e-002
2.811750e+003,2.343274e-002
2.813678e+003,2.345509e-002
2.815606e+003,2.353305e-002
2.817535e+003,2.346030e-002
2.819464e+003,2.336480e-002
2.821392e+003,2.323146e-002
2.823321e+003,2.298828e-002
2.825249e+003,2.276308e-002
2.827177e+003,2.246848e-002
2.829106e+003,2.200663e-002
2.831034e+003,2.147553e-002
2.832963e+003,2.102566e-002
2.834892e+003,2.077572e-002
2.836820e+003,2.045259e-002
2.838749e+003,1.990241e-002
2.840677e+003,1.930580e-002
2.842605e+003,1.892188e-002
2.844534e+003,1.835697e-002
2.846462e+003,1.770613e-002
2.848391e+003,1.722425e-002
2.850320e+003,1.689194e-002
2.852248e+003,1.654966e-002
2.854177e+003,1.623984e-002
2.856105e+003,1.612222e-002
2.858033e+003,1.595204e-002
2.859962e+003,1.584749e-002
2.861890e+003,1.576375e-002
2.863819e+003,1.566000e-002
2.865748e+003,1.563097e-002
2.867676e+003,1.556441e-002
2.869604e+003,1.563248e-002
2.871533e+003,1.576320e-002
2.873461e+003,1.589361e-002
2.875390e+003,1.589313e-002
2.877319e+003,1.595778e-002
2.879247e+003,1.613247e-002
2.881176e+003,1.617996e-002
2.883104e+003,1.612246e-002
2.885032e+003,1.620734e-002
2.886961e+003,1.621226e-002
2.888889e+003,1.611548e-002
2.890818e+003,1.607171e-002
2.892747e+003,1.599123e-002
2.894675e+003,1.582893e-002
2.896604e+003,1.583910e-002
2.898532e+003,1.585237e-002
2.900460e+003,1.576990e-002
2.902389e+003,1.572959e-002
2.904317e+003,1.568394e-002
2.906246e+003,1.562317e-002
2.908175e+003,1.553783e-002
2.910103e+003,1.552804e-002
2.912031e+003,1.549198e-002
2.913960e+003,1.544536e-002
2.915888e+003,1.539746e-002
2.917817e+003,1.530063e-002
2.919745e+003,1.544755e-002
2.921674e+003,1.555606e-002
2.923603e+003,1.574492e-002
2.925531e+003,1.595898e-002
2.927459e+003,1.600903e-002
2.929388e+003,1.603551e-002
2.931316e+003,1.619224e-002
2.933245e+003,1.636451e-002
2.935173e+003,1.633389e-002
2.937102e+003,1.629866e-002
2.939031e+003,1.638801e-002
2.940959e+003,1.621281e-002
2.942887e+003,1.601969e-002
2.944816e+003,1.596802e-002
2.946744e+003,1.581910e-002
2.948673e+003,1.551781e-002
2.950601e+003,1.511087e-002
2.952530e+003,1.476433e-002
2.954458e+003,1.436321e-002
2.956387e+003,1.377970e-002
2.958315e+003,1.330298e-002
2.960244e+003,1.284333e-002
2.962172e+003,1.233457e-002
2.964101e+003,1.183879e-002
2.966029e+003,1.133916e-002
2.967958e+003,1.084480e-002
2.969886e+003,1.041401e-002
2.971815e+003,1.005072e-002
2.973743e+003,9.683019e-003
2.975672e+003,9.226135e-003
2.977600e+003,8.707661e-003
2.979529e+003,8.448116e-003
2.981457e+003,8.252478e-003
2.983386e+003,8.052405e-003
2.985314e+003,7.796354e-003
2.987243e+003,7.527171e-003
2.989171e+003,7.334407e-003
2.991100e+003,7.087771e-003
2.993028e+003,6.888032e-003
2.994957e+003,6.820676e-003
2.996885e+003,6.732769e-003
2.998814e+003,6.560069e-003
3.000742e+003,6.518864e-003
3.002671e+003,6.413195e-003
3.004599e+003,6.272590e-003
3.006528e+003,6.232018e-003
3.008456e+003,6.238337e-003
3.010385e+003,6.176190e-003
3.012313e+003,6.180122e-003
3.014242e+003,6.202944e-003
3.016170e+003,6.123730e-003
3.018099e+003,6.050244e-003
3.020027e+003,5.860753e-003
3.021956e+003,5.718246e-003
3.023884e+003,5.686956e-003
3.025813e+003,5.718279e-003
3.027741e+003,5.713109e-003
3.029670e+003,5.626298e-003
3.031598e+003,5.648486e-003
3.033527e+003,5.584074e-003
3.035455e+003,5.546083e-003
3.037384e+003,5.599077e-003
3.039312e+003,5.608475e-003
3.041241e+003,5.455279e-003
3.043169e+003,5.350372e-003
3.045098e+003,5.241466e-003
3.047026e+003,5.163199e-003
3.048955e+003,5.134364e-003
3.050883e+003,5.163702e-003
3.052812e+003,5.130642e-003
3.054740e+003,4.998496e-003
3.056669e+003,4.951071e-003
3.058597e+003,4.873527e-003
3.060526e+003,4.758275e-003
3.062454e+003,4.796934e-003
3.064383e+003,4.762964e-003
3.066311e+003,4.718680e-003
3.068240e+003,4.797437e-003
3.070168e+003,4.760553e-003
3.072097e+003,4.548654e-003
3.074025e+003,4.403531e-003
3.075954e+003,4.357676e-003
3.077882e+003,4.400116e-003
3.079811e+003,4.353125e-003
3.081739e+003,4.233160e-003
3.083668e+003,4.150424e-003
3.085596e+003,4.140757e-003
3.087525e+003,4.114498e-003
3.089453e+003,4.127510e-003
3.091382e+003,4.082656e-003
3.093310e+003,4.083391e-003
3.095239e+003,4.046233e-003
3.097167e+003,3.932404e-003
3.099096e+003,3.896529e-003
3.101024e+003,3.889943e-003
3.102953e+003,3.915386e-003
3.104881e+003,3.854373e-003
3.106810e+003,3.837725e-003
3.108738e+003,3.778327e-003
3.110667e+003,3.629885e-003
3.112595e+003,3.589225e-003
3.114524e+003,3.570917e-003
3.116452e+003,3.458815e-003
3.118381e+003,3.484400e-003
3.120309e+003,3.537978e-003
3.122238e+003,3.538379e-003
3.124166e+003,3.504140e-003
3.126095e+003,3.386279e-003
3.128023e+003,3.289783e-003
3.129952e+003,3.223483e-003
3.131880e+003,3.179189e-003
3.133809e+003,3.208596e-003
3.135737e+003,3.330582e-003
3.137666e+003,3.339297e-003
3.139594e+003,3.273591e-003
3.141523e+003,3.241109e-003
3.143451e+003,3.294958e-003
3.145380e+003,3.242878e-003
3.147308e+003,3.109436e-003
3.149237e+003,3.098590e-003
3.151165e+003,3.142108e-003
3.153094e+003,3.143844e-003
3.155022e+003,3.149851e-003
3.156951e+003,3.159964e-003
3.158879e+003,3.284708e-003
3.160808e+003,3.331284e-003
3.162736e+003,3.341100e-003
3.164665e+003,3.259770e-003
3.166593e+003,3.091682e-003
3.168522e+003,2.939038e-003
3.170450e+003,2.972565e-003
3.172379e+003,3.052807e-003
3.174307e+003,3.005861e-003
3.176236e+003,3.112072e-003
3.178164e+003,3.105331e-003
3.180093e+003,3.037692e-003
3.182021e+003,3.051572e-003
3.183950e+003,3.075231e-003
3.185878e+003,3.107500e-003
3.187807e+003,3.129092e-003
3.189735e+003,3.164937e-003
3.191664e+003,3.129326e-003
3.193592e+003,3.167474e-003
3.195521e+003,3.123853e-003
3.197449e+003,3.076399e-003
3.199378e+003,2.948912e-003
3.201306e+003,2.877962e-003
3.203235e+003,2.951481e-003
3.205163e+003,3.041662e-003
3.207092e+003,3.029116e-003
3.209020e+003,3.111538e-003
3.210948e+003,3.190638e-003
3.212877e+003,3.180725e-003
3.214806e+003,3.103395e-003
3.216734e+003,3.041195e-003
3.218663e+003,3.124220e-003
3.220591e+003,3.238972e-003
3.222520e+003,3.388416e-003
3.224448e+003,3.392223e-003
3.226376e+003,3.304373e-003
3.228305e+003,3.365509e-003
3.230234e+003,3.511756e-003
3.232162e+003,3.593835e-003
3.234091e+003,3.764992e-003
3.236019e+003,3.752826e-003
3.237948e+003,3.682045e-003
3.239876e+003,3.881819e-003
3.241804e+003,4.171901e-003
3.243733e+003,4.222620e-003
3.245662e+003,4.172001e-003
3.247590e+003,4.320127e-003
3.249519e+003,4.414108e-003
3.251447e+003,4.489293e-003
3.253375e+003,4.478011e-003
3.255304e+003,4.487988e-003
3.257232e+003,4.764740e-003
3.259161e+003,4.919267e-003
3.261090e+003,5.052329e-003
3.263018e+003,5.110895e-003
3.264947e+003,4.931902e-003
3.266875e+003,4.778475e-003
3.268803e+003,4.996418e-003
3.270732e+003,5.223994e-003
3.272660e+003,5.317801e-003
3.274589e+003,5.274467e-003
3.276518e+003,5.244987e-003
3.278446e+003,5.382677e-003
3.280375e+003,5.463667e-003
3.282303e+003,5.407972e-003
3.284231e+003,5.443703e-003
3.286160e+003,5.351345e-003
3.288088e+003,5.203404e-003
3.290017e+003,5.095976e-003
3.291946e+003,5.099161e-003
3.293874e+003,5.142411e-003
3.295802e+003,5.007144e-003
3.297731e+003,5.046932e-003
3.299659e+003,5.057524e-003
3.301588e+003,4.895408e-003
3.303516e+003,4.703071e-003
3.305445e+003,4.538911e-003
3.307374e+003,4.598849e-003
3.309302e+003,4.488825e-003
3.311230e+003,4.117475e-003
3.313159e+003,3.943070e-003
3.315087e+003,3.913714e-003
3.317016e+003,3.918629e-003
3.318944e+003,3.850729e-003
3.320873e+003,3.646291e-003
3.322802e+003,3.481327e-003
3.324730e+003,3.219678e-003
3.326658e+003,3.062717e-003
3.328587e+003,3.078101e-003
3.330515e+003,2.940739e-003
3.332444e+003,2.742231e-003
3.334372e+003,2.696519e-003
3.336301e+003,2.780978e-003
3.338229e+003,2.780611e-003
3.340158e+003,2.677782e-003
3.342086e+003,2.624543e-003
3.344015e+003,2.521883e-003
3.345943e+003,2.434542e-003
3.347872e+003,2.355047e-003
3.349800e+003,2.163000e-003
3.351729e+003,2.042705e-003
3.353657e+003,1.995835e-003
3.355586e+003,1.932629e-003
3.357514e+003,1.854357e-003
3.359443e+003,1.747288e-003
3.361371e+003,1.574664e-003
3.363300e+003,1.530438e-003
3.365229e+003,1.497520e-003
3.367157e+003,1.281326e-003
3.369085e+003,1.044347e-003
3.371014e+003,1.025682e-003
3.372942e+003,9.923709e-004
3.374871e+003,9.016510e-004
3.376799e+003,9.460788e-004
3.378728e+003,8.374082e-004
3.380656e+003,4.429629e-004
3.382585e+003,1.530400e-004
3.384513e+003,1.722318e-004
3.386442e+003,2.273259e-004
3.388370e+003,1.569512e-004
3.390299e+003,1.158189e-004
3.392227e+003,1.041528e-004
3.394156e+003,-6.500412e-005
3.396084e+003,-2.165763e-004
3.398013e+003,-2.886341e-004
3.399941e+003,-3.976914e-004
3.401870e+003,-4.576381e-004
3.403798e+003,-3.944141e-004
3.405727e+003,-3.167122e-004
3.407655e+003,-3.814372e-004
3.409584e+003,-4.562810e-004
3.411512e+003,-5.110568e-004
3.413441e+003,-6.933062e-004
3.415369e+003,-7.989877e-004
3.417298e+003,-7.782173e-004
3.419226e+003,-7.595959e-004
3.421155e+003,-6.784194e-004
3.423083e+003,-7.459683e-004
3.425012e+003,-8.161524e-004
3.426940e+003,-8.554730e-004
3.428869e+003,-8.630126e-004
3.430797e+003,-8.638724e-004
3.432726e+003,-8.495867e-004
3.434654e+003,-7.624404e-004
3.436583e+003,-9.225645e-004
3.438511e+003,-1.147571e-003
3.440440e+003,-1.047263e-003
3.442368e+003,-1.091653e-003
3.444297e+003,-1.298171e-003
3.446225e+003,-1.273064e-003
3.448154e+003,-1.074433e-003
3.450082e+003,-1.000753e-003
3.452011e+003,-1.143440e-003
3.453939e+003,-1.238208e-003
3.455868e+003,-1.264276e-003
3.457796e+003,-1.347193e-003
3.459725e+003,-1.497295e-003
3.461653e+003,-1.433264e-003
3.463582e+003,-1.378935e-003
3.465510e+003,-1.456579e-003
3.467439e+003,-1.415661e-003
3.469367e+003,-1.467906e-003
3.471296e+003,-1.573234e-003
3.473224e+003,-1.488874e-003
3.475153e+003,-1.439704e-003
3.477081e+003,-1.375995e-003
3.479010e+003,-1.364699e-003
3.480938e+003,-1.513606e-003
3.482867e+003,-1.725535e-003
3.484795e+003,-1.626879e-003
3.486724e+003,-1.493596e-003
3.488652e+003,-1.492143e-003
3.490581e+003,-1.539492e-003
3.492509e+003,-1.556363e-003
3.494438e+003,-1.577229e-003
3.496366e+003,-1.599611e-003
3.498295e+003,-1.674543e-003
3.500223e+003,-1.594792e-003
3.502152e+003,-1.522686e-003
3.504080e+003,-1.448323e-003
3.506009e+003,-1.554448e-003
3.507937e+003,-1.607039e-003
3.509866e+003,-1.496436e-003
3.511794e+003,-1.469689e-003
3.513723e+003,-1.580992e-003
3.515651e+003,-1.749626e-003
3.517580e+003,-1.736459e-003
3.519508e+003,-1.699099e-003
3.521437e+003,-1.783088e-003
3.523365e+003,-1.720452e-003
3.525294e+003,-1.794373e-003
3.527222e+003,-1.933567e-003
3.529151e+003,-1.966750e-003
3.531079e+003,-2.000921e-003
3.533008e+003,-1.963320e-003
3.534936e+003,-1.930466e-003
3.536865e+003,-1.862177e-003
3.538793e+003,-2.040959e-003
3.540722e+003,-2.208854e-003
3.542650e+003,-2.224380e-003
3.544579e+003,-2.073441e-003
3.546507e+003,-1.750979e-003
3.548436e+003,-1.732696e-003
3.550364e+003,-1.829745e-003
3.552293e+003,-1.749725e-003
3.554221e+003,-1.762760e-003
3.556150e+003,-1.916347e-003
3.558078e+003,-1.975524e-003
3.560007e+003,-1.953754e-003
3.561935e+003,-2.068528e-003
3.563864e+003,-2.120892e-003
3.565792e+003,-2.030504e-003
3.567721e+003,-2.081883e-003
3.569649e+003,-2.060745e-003
3.571578e+003,-1.888306e-003
3.573506e+003,-1.942275e-003
3.575435e+003,-2.013256e-003
3.577363e+003,-2.006198e-003
3.579292e+003,-2.024568e-003
3.581220e+003,-2.061570e-003
3.583149e+003,-2.106878e-003
3.585077e+003,-2.159863e-003
3.587006e+003,-2.208557e-003
3.588934e+003,-2.141697e-003
3.590863e+003,-2.176051e-003
3.592791e+003,-2.175227e-003
3.594720e+003,-2.090061e-003
3.596648e+003,-2.053391e-003
3.598577e+003,-2.141730e-003
3.600505e+003,-2.110307e-003
3.602434e+003,-2.020083e-003
3.604362e+003,-2.180601e-003
3.606291e+003,-2.428154e-003
3.608219e+003,-2.323725e-003
3.610148e+003,-2.310179e-003
3.612076e+003,-2.426440e-003
3.614005e+003,-2.497935e-003
3.615933e+003,-2.590168e-003
3.617862e+003,-2.579101e-003
3.619790e+003,-2.586314e-003
3.621719e+003,-2.620436e-003
3.623647e+003,-2.604792e-003
3.625576e+003,-2.548435e-003
3.627504e+003,-2.415435e-003
3.629433e+003,-2.099294e-003
3.631361e+003,-2.413194e-003
3.633290e+003,-2.608481e-003
3.635218e+003,-2.716924e-003
3.637146e+003,-2.687783e-003
3.639075e+003,-2.615199e-003
3.641004e+003,-2.891865e-003
3.642932e+003,-2.976446e-003
3.644861e+003,-2.827217e-003
3.646789e+003,-2.609370e-003
3.648718e+003,-2.438697e-003
3.650646e+003,-2.564542e-003
3.652574e+003,-2.925338e-003
3.654503e+003,-2.997836e-003
3.656432e+003,-2.818164e-003
3.658360e+003,-2.964468e-003
3.660289e+003,-2.991616e-003
3.662217e+003,-2.999020e-003
3.664146e+003,-3.267483e-003
3.666074e+003,-3.484310e-003
3.668002e+003,-3.469486e-003
3.669931e+003,-3.279092e-003
3.671860e+003,-3.248475e-003
3.673788e+003,-3.349164e-003
3.675717e+003,-3.202266e-003
3.677645e+003,-3.345942e-003
3.679573e+003,-3.308687e-003
3.681502e+003,-3.102037e-003
3.683430e+003,-3.143257e-003
3.685359e+003,-3.336373e-003
3.687288e+003,-3.243739e-003
3.689216e+003,-2.931492e-003
3.691145e+003,-2.927148e-003
3.693073e+003,-3.044264e-003
3.695001e+003,-3.061965e-003
3.696930e+003,-3.002673e-003
3.698858e+003,-2.983554e-003
3.700787e+003,-2.863789e-003
3.702716e+003,-2.641679e-003
3.704644e+003,-2.634268e-003
3.706573e+003,-2.665719e-003
3.708501e+003,-2.785078e-003
3.710429e+003,-2.907762e-003
3.712358e+003,-2.840384e-003
3.714286e+003,-3.080850e-003
3.716215e+003,-3.191412e-003
3.718144e+003,-2.856053e-003
3.720072e+003,-2.829949e-003
3.722000e+003,-2.831793e-003
3.723929e+003,-2.945644e-003
3.725857e+003,-2.999744e-003
3.727786e+003,-2.849568e-003
3.729714e+003,-2.792782e-003
3.731643e+003,-2.655379e-003
3.733572e+003,-2.437248e-003
3.735500e+003,-2.346728e-003
3.737428e+003,-2.501657e-003
3.739357e+003,-2.807696e-003
3.741285e+003,-2.782346e-003
3.743214e+003,-2.372828e-003
3.745142e+003,-1.917931e-003
3.747071e+003,-2.338193e-003
3.749000e+003,-2.071199e-003
3.750928e+003,-1.850663e-003
3.752856e+003,-2.020907e-003
3.754785e+003,-2.150401e-003
3.756713e+003,-2.063680e-003
3.758642e+003,-2.062361e-003
3.760570e+003,-1.907110e-003
3.762499e+003,-1.867951e-003
3.764427e+003,-2.005472e-003
3.766356e+003,-2.095634e-003
3.768284e+003,-2.071100e-003
3.770213e+003,-1.781273e-003
3.772141e+003,-1.809650e-003
3.774070e+003,-2.010617e-003
3.775998e+003,-2.059822e-003
3.777927e+003,-2.119836e-003
3.779855e+003,-2.078487e-003
3.781784e+003,-2.099756e-003
3.783712e+003,-2.117166e-003
3.785641e+003,-1.935480e-003
3.787569e+003,-1.942638e-003
3.789498e+003,-2.102954e-003
3.791426e+003,-2.269705e-003
3.793355e+003,-2.281373e-003
3.795283e+003,-2.139158e-003
3.797212e+003,-1.966849e-003
3.799140e+003,-2.069880e-003
3.801069e+003,-2.211689e-003
3.802997e+003,-2.243796e-003
3.804926e+003,-2.122771e-003
3.806854e+003,-1.797574e-003
3.808783e+003,-1.911663e-003
3.810711e+003,-2.031131e-003
3.812640e+003,-2.095106e-003
3.814568e+003,-2.348442e-003
3.816497e+003,-2.006395e-003
3.818425e+003,-1.929542e-003
3.820354e+003,-1.750715e-003
3.822282e+003,-1.673553e-003
3.824211e+003,-2.065230e-003
3.826139e+003,-2.051017e-003
3.828068e+003,-2.097645e-003
3.829996e+003,-2.171304e-003
3.831925e+003,-2.065692e-003
3.833853e+003,-2.045806e-003
3.835782e+003,-2.125475e-003
3.837710e+003,-2.209744e-003
3.839639e+003,-2.376717e-003
3.841567e+003,-2.257443e-003
3.843496e+003,-2.070243e-003
3.845424e+003,-2.240170e-003
3.847353e+003,-2.436424e-003
3.849281e+003,-2.288888e-003
3.851210e+003,-1.980208e-003
3.853138e+003,-1.634504e-003
3.855067e+003,-1.693818e-003
3.856995e+003,-2.060350e-003
3.858924e+003,-2.267727e-003
3.860852e+003,-2.252861e-003
3.862781e+003,-2.041948e-003
3.864709e+003,-1.960252e-003
3.866638e+003,-2.240895e-003
3.868566e+003,-2.364359e-003
3.870495e+003,-2.224974e-003
3.872423e+003,-2.126200e-003
3.874352e+003,-1.984264e-003
3.876280e+003,-1.997886e-003
3.878209e+003,-2.248180e-003
3.880137e+003,-2.277846e-003
3.882066e+003,-2.362283e-003
3.883994e+003,-2.462749e-003
3.885923e+003,-2.242247e-003
3.887851e+003,-2.237401e-003
3.889780e+003,-2.115022e-003
3.891708e+003,-2.001745e-003
3.893637e+003,-2.004054e-003
3.895565e+003,-2.074925e-003
3.897494e+003,-2.373092e-003
3.899422e+003,-2.393588e-003
3.901351e+003,-2.328668e-003
3.903279e+003,-2.131739e-003
3.905208e+003,-2.040299e-003
3.907136e+003,-2.236412e-003
3.909065e+003,-2.367424e-003
3.910993e+003,-2.459388e-003
3.912922e+003,-2.371906e-003
3.914850e+003,-2.195436e-003
3.916779e+003,-2.304576e-003
3.918707e+003,-2.568495e-003
3.920636e+003,-2.491972e-003
3.922564e+003,-2.269441e-003
3.924493e+003,-2.088215e-003
3.926421e+003,-2.158940e-003
3.928350e+003,-2.285657e-003
3.930278e+003,-2.450592e-003
3.932207e+003,-2.470129e-003
3.934135e+003,-2.515296e-003
3.936064e+003,-2.530746e-003
3.937992e+003,-2.328668e-003
3.939921e+003,-2.287965e-003
3.941849e+003,-2.254542e-003
3.943778e+003,-2.348080e-003
3.945706e+003,-2.367984e-003
3.947635e+003,-2.208557e-003
3.949563e+003,-2.158841e-003
3.951492e+003,-2.321517e-003
3.953420e+003,-2.424332e-003
3.955349e+003,-2.553936e-003
3.957277e+003,-2.612104e-003
3.959206e+003,-2.586874e-003
3.961134e+003,-2.622972e-003
3.963063e+003,-2.474610e-003
3.964991e+003,-2.331239e-003
3.966920e+003,-2.182744e-003
3.968848e+003,-1.991356e-003
3.970777e+003,-2.231270e-003
3.972705e+003,-2.429274e-003
3.974634e+003,-2.343696e-003
3.976562e+003,-2.204041e-003
3.978491e+003,-2.168732e-003
3.980419e+003,-2.259387e-003
3.982348e+003,-2.308927e-003
3.984276e+003,-2.205788e-003
3.986205e+003,-2.301676e-003
3.988133e+003,-2.404858e-003
3.990062e+003,-2.203249e-003
3.991990e+003,-2.246829e-003
3.993919e+003,-2.614738e-003
3.995847e+003,-2.828534e-003
3.997776e+003,-2.581176e-003
3.999704e+003,-2.425452e-003
4.001633e+003,0.000000e+000
