3.991989e+002,-1.151684e-002
4.011274e+002,-7.290835e-003
4.030559e+002,-1.133291e-002
4.049844e+002,-1.231358e-002
4.069129e+002,-4.943979e-003
4.088414e+002,-4.013643e-003
4.107699e+002,-1.044118e-002
4.126984e+002,-1.029974e-002
4.146269e+002,-7.764644e-004
4.165554e+002,4.845984e-003
4.184839e+002,1.560830e-003
4.204124e+002,-3.333330e-004
4.223409e+002,-3.833669e-003
4.242694e+002,-4.542496e-003
4.261979e+002,-4.419856e-005
4.281264e+002,-1.251424e-003
4.300549e+002,-1.340823e-002
4.319834e+002,-7.112214e-003
4.339119e+002,-3.234531e-003
4.358404e+002,-8.019743e-003
4.377689e+002,2.190215e-005
4.396974e+002,1.317949e-003
4.416259e+002,-2.439356e-003
4.435544e+002,-5.959374e-004
4.454829e+002,1.502807e-003
4.474114e+002,3.091782e-003
4.493399e+002,5.014953e-003
4.512684e+002,-5.034449e-004
4.531969e+002,-3.085127e-003
4.551254e+002,-1.376491e-003
4.570539e+002,6.182240e-004
4.589824e+002,1.604315e-004
4.609109e+002,1.598680e-004
4.628394e+002,4.519514e-004
4.647679e+002,9.571034e-004
4.666964e+002,1.303958e-003
4.686249e+002,2.859415e-004
4.705533e+002,2.538809e-004
4.724819e+002,-6.600583e-004
4.744103e+002,-5.172456e-004
4.763389e+002,8.038463e-004
4.782673e+002,4.636269e-004
4.801959e+002,2.357132e-004
4.821243e+002,2.012878e-003
4.840529e+002,1.473416e-003
4.859813e+002,-1.582940e-003
4.879099e+002,-2.949099e-003
4.898383e+002,-3.789263e-003
4.917668e+002,-3.793336e-003
4.936953e+002,-3.680200e-003
4.956238e+002,-6.350596e-003
4.975523e+002,-7.171208e-003
4.994808e+002,-6.070866e-003
5.014093e+002,-6.240117e-003
5.033378e+002,-5.476869e-003
5.052663e+002,-4.505081e-003
5.071948e+002,-4.103159e-003
5.091233e+002,-4.934708e-003
5.110518e+002,-5.072538e-003
5.129803e+002,-6.085209e-003
5.149088e+002,-7.012426e-003
5.168373e+002,-5.993977e-003
5.187658e+002,-4.370416e-003
5.206943e+002,-4.154589e-003
5.226228e+002,-4.906664e-003
5.245513e+002,-5.356480e-003
5.264798e+002,-5.140946e-003
5.284083e+002,-4.617347e-003
5.303368e+002,-4.442575e-003
5.322653e+002,-5.493130e-003
5.341938e+002,-5.595851e-003
5.361223e+002,-5.264505e-003
5.380508e+002,-4.157247e-003
5.399792e+002,-3.418271e-003
5.419078e+002,-3.302768e-003
5.438363e+002,-4.296768e-003
5.457648e+002,-3.834096e-003
5.476932e+002,-4.704313e-003
5.496218e+002,-4.444411e-003
5.515503e+002,-2.608711e-003
5.534788e+002,-1.740914e-003
5.554072e+002,-1.883259e-003
5.573358e+002,-2.437346e-003
5.592643e+002,-2.585689e-003
5.611927e+002,-4.135147e-004
5.631212e+002,-1.686490e-005
5.650497e+002,-1.174140e-003
5.669783e+002,-1.654672e-003
5.689067e+002,-6.008676e-004
5.708352e+002,7.591672e-005
5.727637e+002,-4.959652e-004
5.746923e+002,-2.564509e-003
5.766207e+002,-2.907631e-003
5.785492e+002,-1.133989e-003
5.804777e+002,9.670550e-003
5.824063e+002,7.266510e-003
5.843347e+002,-2.227710e-003
5.862632e+002,-2.815333e-003
5.881917e+002,-2.671910e-003
5.901202e+002,-2.093524e-003
5.920487e+002,-2.906347e-003
5.939772e+002,-5.574687e-003
5.959057e+002,-6.415245e-003
5.978342e+002,-3.882536e-003
5.997627e+002,-3.041072e-003
6.016912e+002,-2.472962e-003
6.036197e+002,-2.319144e-003
6.055482e+002,-7.579090e-004
6.074767e+002,-1.754756e-004
6.094052e+002,4.356660e-004
6.113337e+002,1.216130e-003
6.132622e+002,2.412118e-003
6.151907e+002,8.578918e-004
6.171192e+002,-3.389615e-004
6.190477e+002,-1.111714e-003
6.209762e+002,-1.297180e-003
6.229047e+002,-3.121117e-003
6.248332e+002,-3.891042e-003
6.267617e+002,-4.085468e-003
6.286902e+002,-4.810563e-003
6.306187e+002,-4.772222e-003
6.325472e+002,-3.931168e-003
6.344756e+002,-3.448876e-003
6.364042e+002,-3.611102e-003
6.383326e+002,-3.592930e-003
6.402612e+002,-3.195228e-003
6.421896e+002,-3.047291e-003
6.441182e+002,-2.737240e-003
6.460466e+002,-2.670000e-003
6.479752e+002,-2.188348e-003
6.499036e+002,-1.787509e-003
6.518322e+002,-1.964276e-003
6.537606e+002,-2.328339e-003
6.556891e+002,-2.501657e-003
6.576177e+002,-2.562698e-003
6.595461e+002,-2.259223e-003
6.614746e+002,-2.087390e-003
6.634031e+002,-1.851653e-003
6.653317e+002,-1.959065e-003
6.672601e+002,-1.937591e-003
6.691886e+002,-1.849640e-003
6.711171e+002,-1.563131e-003
6.730457e+002,-1.234772e-003
6.749741e+002,-1.347820e-003
6.769026e+002,-9.089751e-004
6.788311e+002,1.633484e-004
6.807596e+002,-2.919011e-005
6.826881e+002,-7.175210e-004
6.846166e+002,-2.961505e-004
6.865451e+002,6.895741e-005
6.884736e+002,2.772879e-004
6.904021e+002,7.150244e-004
6.923306e+002,7.978380e-004
6.942591e+002,3.219171e-004
6.961876e+002,-1.016765e-004
6.981161e+002,-1.483158e-004
7.000446e+002,-2.142250e-004
7.019731e+002,-1.351848e-005
7.039016e+002,-1.066903e-005
7.058301e+002,-9.547013e-004
7.077585e+002,-1.634933e-003
7.096871e+002,-1.252680e-003
7.116156e+002,-1.393335e-003
7.135441e+002,-1.980307e-003
7.154725e+002,-2.369895e-003
7.174011e+002,-1.826412e-003
7.193296e+002,-1.694148e-003
7.212581e+002,-2.716661e-003
7.231865e+002,-2.821588e-003
7.251151e+002,-2.389008e-003
7.270436e+002,-2.560688e-003
7.289720e+002,-2.724629e-003
7.309005e+002,-2.989412e-003
7.328290e+002,-3.034557e-003
7.347576e+002,-3.081376e-003
7.366860e+002,-2.909606e-003
7.386145e+002,-2.544877e-003
7.405430e+002,-3.002311e-003
7.424716e+002,-3.304281e-003
7.444000e+002,-2.503041e-003
7.463285e+002,-1.857327e-003
7.482570e+002,-1.725139e-003
7.501855e+002,-1.400568e-003
7.521140e+002,-9.992986e-004
7.540425e+002,-3.237645e-004
7.559710e+002,4.438252e-004
7.578995e+002,6.180581e-004
7.598280e+002,5.935378e-004
7.617565e+002,4.277059e-004
7.636850e+002,5.739625e-004
7.656135e+002,1.318049e-003
7.675420e+002,1.380103e-003
7.694705e+002,1.306450e-003
7.713990e+002,1.208687e-003
7.733275e+002,1.657708e-003
7.752560e+002,1.767582e-003
7.771844e+002,1.366043e-003
7.791130e+002,1.548227e-003
7.810415e+002,1.613773e-003
7.829700e+002,1.438808e-003
7.848984e+002,1.290299e-003
7.868270e+002,1.534328e-003
7.887555e+002,1.730089e-003
7.906840e+002,1.589629e-003
7.926124e+002,9.891827e-004
7.945410e+002,8.115809e-004
7.964695e+002,6.971362e-004
7.983979e+002,7.227243e-004
8.003264e+002,8.588546e-004
8.022549e+002,3.543143e-004
8.041835e+002,1.178406e-004
8.061119e+002,8.339556e-004
8.080404e+002,1.043484e-003
8.099689e+002,1.014390e-003
8.118975e+002,1.159116e-003
8.138259e+002,1.392368e-003
8.157545e+002,1.323267e-003
8.176830e+002,1.161641e-003
8.196115e+002,9.345896e-004
8.215399e+002,3.343849e-004
8.234684e+002,3.108084e-005
8.253970e+002,-1.129393e-004
8.273254e+002,-1.249636e-004
8.292539e+002,-6.984094e-005
8.311824e+002,-3.185001e-004
8.331110e+002,-6.165842e-004
8.350394e+002,-6.496700e-004
8.369679e+002,-1.089008e-003
8.388964e+002,-1.435840e-003
8.408250e+002,-1.175561e-003
8.427534e+002,-1.217624e-003
8.446819e+002,-1.436302e-003
8.466104e+002,-1.323409e-003
8.485389e+002,-1.187523e-003
8.504674e+002,-1.344914e-003
8.523959e+002,-1.714512e-003
8.543244e+002,-1.657841e-003
8.562529e+002,-1.461334e-003
8.581814e+002,-1.444162e-003
8.601099e+002,-1.189076e-003
8.620384e+002,-1.376028e-003
8.639669e+002,-1.662891e-003
8.658954e+002,-1.920174e-003
8.678239e+002,-2.083103e-003
8.697524e+002,-1.759889e-003
8.716809e+002,-1.731409e-003
8.736094e+002,-1.828986e-003
8.755378e+002,-1.508488e-003
8.774664e+002,-1.554779e-003
8.793949e+002,-1.505054e-003
8.813234e+002,-1.637772e-003
8.832518e+002,-1.222646e-003
8.851804e+002,-7.161978e-004
8.871089e+002,-7.019403e-004
8.890374e+002,-8.203856e-004
8.909658e+002,-8.726023e-004
8.928943e+002,-6.714390e-004
8.948229e+002,-5.348515e-004
8.967513e+002,-7.383605e-004
8.986798e+002,-5.969962e-004
9.006083e+002,-3.919313e-004
9.025369e+002,-5.459707e-004
9.044653e+002,-7.015103e-004
9.063938e+002,-5.171463e-004
9.083223e+002,-3.728629e-004
9.102509e+002,-8.057015e-004
9.121793e+002,-1.134550e-003
9.141078e+002,-1.017844e-003
9.160364e+002,-9.993978e-004
9.179648e+002,-1.138714e-003
9.198933e+002,-1.133724e-003
9.218218e+002,-1.158807e-003
9.237504e+002,-1.854853e-003
9.256788e+002,-1.848353e-003
9.276073e+002,-1.541011e-003
9.295358e+002,-1.543355e-003
9.314644e+002,-1.889494e-003
9.333928e+002,-2.328668e-003
9.353213e+002,-2.459553e-003
9.372498e+002,-2.430197e-003
9.391783e+002,-2.355791e-003
9.411068e+002,-2.452997e-003
9.430353e+002,-2.742442e-003
9.449637e+002,-2.813490e-003
9.468923e+002,-2.710701e-003
9.488208e+002,-2.692689e-003
9.507493e+002,-2.745998e-003
9.526777e+002,-2.731972e-003
9.546063e+002,-2.922672e-003
9.565348e+002,-2.954233e-003
9.584633e+002,-2.878798e-003
9.603917e+002,-2.670198e-003
9.623203e+002,-2.312190e-003
9.642488e+002,-2.362645e-003
9.661772e+002,-2.537565e-003
9.681057e+002,-2.452502e-003
9.700343e+002,-2.234401e-003
9.719628e+002,-2.234039e-003
9.738912e+002,-1.936700e-003
9.758197e+002,-1.702135e-003
9.777483e+002,-1.741376e-003
9.796768e+002,-1.821496e-003
9.816052e+002,-2.125376e-003
9.835337e+002,-1.937327e-003
9.854623e+002,-1.829712e-003
9.873907e+002,-1.871613e-003
9.893192e+002,-1.637145e-003
9.912477e+002,-1.735040e-003
9.931763e+002,-1.649721e-003
9.951047e+002,-1.482765e-003
9.970332e+002,-1.465627e-003
9.989617e+002,-1.114193e-003
1.000890e+003,-1.063757e-003
1.002819e+003,-1.296255e-003
1.004747e+003,-1.176321e-003
1.006676e+003,-9.188614e-004
1.008604e+003,-7.668395e-004
1.010533e+003,-5.960035e-004
1.012461e+003,-4.873270e-004
1.014390e+003,-4.353287e-004
1.016318e+003,-2.461162e-004
1.018247e+003,-5.317688e-005
1.020175e+003,2.655179e-004
1.022104e+003,5.807640e-004
1.024032e+003,7.895725e-004
1.025961e+003,1.014556e-003
1.027889e+003,1.331410e-003
1.029818e+003,1.541910e-003
1.031746e+003,1.741200e-003
1.033675e+003,2.162534e-003
1.035603e+003,2.274801e-003
1.037532e+003,2.295652e-003
1.039460e+003,2.548546e-003
1.041389e+003,2.602442e-003
1.043317e+003,2.550245e-003
1.045246e+003,2.438774e-003
1.047174e+003,2.290223e-003
1.049103e+003,2.449536e-003
1.051031e+003,2.626509e-003
1.052960e+003,2.733595e-003
1.054888e+003,2.764772e-003
1.056817e+003,2.699386e-003
1.058745e+003,2.503354e-003
1.060674e+003,2.600309e-003
1.062602e+003,2.678282e-003
1.064531e+003,2.688084e-003
1.066459e+003,2.640710e-003
1.068388e+003,2.536781e-003
1.070316e+003,2.545446e-003
1.072245e+003,2.668547e-003
1.074173e+003,2.717924e-003
1.076102e+003,2.721558e-003
1.078030e+003,2.793717e-003
1.079959e+003,3.051739e-003
1.081887e+003,3.085008e-003
1.083816e+003,3.038059e-003
1.085744e+003,3.024745e-003
1.087673e+003,3.276061e-003
1.089601e+003,3.558757e-003
1.091530e+003,3.822917e-003
1.093458e+003,3.721311e-003
1.095387e+003,3.521543e-003
1.097315e+003,3.422078e-003
1.099244e+003,3.458114e-003
1.101172e+003,3.580271e-003
1.103101e+003,3.731905e-003
1.105029e+003,3.713658e-003
1.106958e+003,3.726858e-003
1.108886e+003,3.693373e-003
1.110815e+003,3.532300e-003
1.112743e+003,3.554715e-003
1.114672e+003,3.725789e-003
1.116600e+003,3.792198e-003
1.118529e+003,3.824555e-003
1.120457e+003,3.925349e-003
1.122386e+003,4.036902e-003
1.124314e+003,3.898435e-003
1.126243e+003,3.811217e-003
1.128171e+003,3.691101e-003
1.130100e+003,3.482663e-003
1.132028e+003,3.355157e-003
1.133957e+003,3.055844e-003
1.135885e+003,2.840106e-003
1.137814e+003,2.664246e-003
1.139742e+003,2.309376e-003
1.141671e+003,2.145218e-003
1.143599e+003,1.895521e-003
1.145528e+003,1.573234e-003
1.147456e+003,1.297145e-003
1.149385e+003,9.685268e-004
1.151313e+003,7.201687e-004
1.153242e+003,5.797686e-004
1.155170e+003,3.196291e-004
1.157099e+003,1.124052e-004
1.159027e+003,1.116429e-004
1.160956e+003,-3.339783e-005
1.162884e+003,-1.136680e-004
1.164813e+003,-1.597430e-004
1.166741e+003,-2.346250e-004
1.168670e+003,-1.001195e-004
1.170598e+003,-6.275134e-005
1.172526e+003,-1.641481e-004
1.174455e+003,-2.942631e-004
1.176384e+003,-2.542293e-004
1.178312e+003,1.119945e-005
1.180240e+003,1.039539e-004
1.182169e+003,-7.096731e-005
1.184098e+003,-2.299225e-004
1.186026e+003,-3.640236e-004
1.187954e+003,-3.890844e-004
1.189883e+003,-3.952086e-004
1.191812e+003,-2.402216e-004
1.193740e+003,-1.331453e-004
1.195668e+003,-1.973015e-004
1.197597e+003,-2.295913e-004
1.199526e+003,-1.509325e-004
1.201454e+003,-8.816073e-005
1.203382e+003,1.225961e-006
1.205311e+003,1.369977e-004
1.207240e+003,2.039548e-004
1.209168e+003,2.410839e-004
1.211096e+003,4.503594e-004
1.213025e+003,6.614613e-004
1.214953e+003,8.571282e-004
1.216882e+003,7.949501e-004
1.218810e+003,8.422883e-004
1.220739e+003,1.117922e-003
1.222667e+003,1.231016e-003
1.224596e+003,1.283187e-003
1.226524e+003,1.473948e-003
1.228453e+003,1.597943e-003
1.230381e+003,1.720975e-003
1.232310e+003,1.990077e-003
1.234238e+003,2.240128e-003
1.236167e+003,2.404588e-003
1.238095e+003,2.423213e-003
1.240024e+003,2.377168e-003
1.241952e+003,2.257214e-003
1.243881e+003,2.162700e-003
1.245809e+003,2.059984e-003
1.247738e+003,2.020302e-003
1.249666e+003,1.983220e-003
1.251595e+003,1.837054e-003
1.253523e+003,1.771541e-003
1.255452e+003,1.716550e-003
1.257380e+003,1.606390e-003
1.259309e+003,1.517237e-003
1.261237e+003,1.658639e-003
1.263166e+003,1.864406e-003
1.265094e+003,2.214018e-003
1.267023e+003,2.458700e-003
1.268951e+003,2.665946e-003
1.270880e+003,2.978570e-003
1.272808e+003,3.190571e-003
1.274737e+003,3.341835e-003
1.276665e+003,3.652339e-003
1.278594e+003,3.946347e-003
1.280522e+003,4.126105e-003
1.282451e+003,4.330602e-003
1.284379e+003,4.645565e-003
1.286308e+003,4.935286e-003
1.288236e+003,5.411897e-003
1.290165e+003,5.865153e-003
1.292093e+003,6.157370e-003
1.294022e+003,6.524246e-003
1.295950e+003,6.569757e-003
1.297879e+003,6.562088e-003
1.299807e+003,6.706152e-003
1.301736e+003,6.528047e-003
1.303664e+003,6.491318e-003
1.305593e+003,6.353882e-003
1.307521e+003,6.167788e-003
1.309450e+003,6.037678e-003
1.311378e+003,5.760718e-003
1.313307e+003,5.550882e-003
1.315235e+003,5.385595e-003
1.317164e+003,5.138186e-003
1.319092e+003,4.827322e-003
1.321021e+003,4.508343e-003
1.322949e+003,4.149153e-003
1.324878e+003,3.877507e-003
1.326806e+003,3.791162e-003
1.328735e+003,3.706606e-003
1.330663e+003,3.675161e-003
1.332592e+003,3.497593e-003
1.334520e+003,3.160031e-003
1.336449e+003,3.017705e-003
1.338377e+003,2.979871e-003
1.340306e+003,3.022543e-003
1.342234e+003,3.099024e-003
1.344163e+003,3.029016e-003
1.346091e+003,3.036457e-003
1.348020e+003,3.039126e-003
1.349948e+003,2.796951e-003
1.351877e+003,2.526182e-003
1.353805e+003,2.396692e-003
1.355734e+003,2.375136e-003
1.357662e+003,2.311608e-003
1.359591e+003,2.152544e-003
1.361519e+003,1.922444e-003
1.363448e+003,1.792867e-003
1.365376e+003,1.867867e-003
1.367305e+003,1.678430e-003
1.369233e+003,1.464805e-003
1.371162e+003,1.490339e-003
1.373090e+003,1.468263e-003
1.375019e+003,1.394030e-003
1.376947e+003,1.402440e-003
1.378876e+003,1.424546e-003
1.380804e+003,1.432990e-003
1.382733e+003,1.264577e-003
1.384661e+003,1.150611e-003
1.386590e+003,9.602914e-004
1.388518e+003,7.773572e-004
1.390447e+003,8.591202e-004
1.392375e+003,8.311006e-004
1.394304e+003,5.724694e-004
1.396232e+003,3.638316e-004
1.398161e+003,3.032492e-004
1.400089e+003,3.285820e-004
1.402018e+003,4.168605e-004
1.403946e+003,4.749710e-004
1.405875e+003,5.262222e-004
1.407803e+003,5.842145e-004
1.409732e+003,4.962005e-004
1.411660e+003,5.225398e-004
1.413589e+003,7.156550e-004
1.415517e+003,9.696891e-004
1.417446e+003,1.176426e-003
1.419374e+003,1.526082e-003
1.421303e+003,2.256082e-003
1.423231e+003,2.917322e-003
1.425160e+003,3.443519e-003
1.427088e+003,3.956779e-003
1.429017e+003,4.315576e-003
1.430945e+003,4.649684e-003
1.432874e+003,5.039188e-003
1.434802e+003,5.064497e-003
1.436731e+003,5.066777e-003
1.438659e+003,5.643921e-003
1.440588e+003,6.036199e-003
1.442516e+003,6.439728e-003
1.444445e+003,6.825961e-003
1.446373e+003,7.063186e-003
1.448302e+003,7.412493e-003
1.450230e+003,7.993710e-003
1.452159e+003,8.362986e-003
1.454087e+003,8.459738e-003
1.456016e+003,8.159520e-003
1.457944e+003,8.375755e-003
1.459873e+003,8.995979e-003
1.461801e+003,9.218791e-003
1.463730e+003,9.181326e-003
1.465658e+003,9.118824e-003
1.467587e+003,9.180107e-003
1.469515e+003,8.957925e-003
1.471444e+003,8.211618e-003
1.473372e+003,7.805631e-003
1.475301e+003,7.838456e-003
1.477229e+003,7.678435e-003
1.479158e+003,7.427324e-003
1.481086e+003,7.128256e-003
1.483015e+003,6.798698e-003
1.484943e+003,6.360942e-003
1.486872e+003,5.823544e-003
1.488800e+003,5.244786e-003
1.490729e+003,4.899362e-003
1.492657e+003,4.691884e-003
1.494586e+003,4.254774e-003
1.496514e+003,3.700992e-003
1.498443e+003,3.567944e-003
1.500371e+003,3.482028e-003
1.502300e+003,3.185898e-003
1.504228e+003,2.436908e-003
1.506157e+003,1.613839e-003
1.508085e+003,1.625480e-003
1.510014e+003,1.876452e-003
1.511942e+003,1.885471e-003
1.513871e+003,1.935025e-003
1.515799e+003,1.871161e-003
1.517728e+003,1.838385e-003
1.519656e+003,1.740701e-003
1.521585e+003,1.632564e-003
1.523513e+003,2.107493e-003
1.525442e+003,2.365141e-003
1.527370e+003,2.562111e-003
1.529299e+003,2.821196e-003
1.531227e+003,2.939538e-003
1.533156e+003,3.113140e-003
1.535084e+003,3.514796e-003
1.537013e+003,3.707074e-003
1.538941e+003,3.589191e-003
1.540870e+003,3.761382e-003
1.542798e+003,4.250558e-003
1.544727e+003,4.710072e-003
1.546655e+003,5.178489e-003
1.548584e+003,5.519168e-003
1.550512e+003,5.830965e-003
1.552441e+003,5.931857e-003
1.554369e+003,5.865153e-003
1.556298e+003,5.854943e-003
1.558226e+003,5.403242e-003
1.560155e+003,5.894776e-003
1.562083e+003,6.955163e-003
1.564012e+003,7.489076e-003
1.565940e+003,7.812884e-003
1.567869e+003,8.032017e-003
1.569797e+003,7.992900e-003
1.571726e+003,8.218236e-003
1.573654e+003,8.271525e-003
1.575583e+003,7.959793e-003
1.577511e+003,8.004915e-003
1.579440e+003,8.175354e-003
1.581368e+003,8.097064e-003
1.583297e+003,7.943730e-003
1.585225e+003,7.720121e-003
1.587154e+003,7.504887e-003
1.589082e+003,7.126404e-003
1.591010e+003,6.599731e-003
1.592939e+003,6.073864e-003
1.594868e+003,5.628447e-003
1.596796e+003,5.292545e-003
1.598724e+003,4.888472e-003
1.600653e+003,4.289507e-003
1.602582e+003,3.763087e-003
1.604510e+003,3.370785e-003
1.606438e+003,2.930698e-003
1.608367e+003,2.475228e-003
1.610296e+003,2.073134e-003
1.612224e+003,1.653750e-003
1.614152e+003,1.156558e-003
1.616081e+003,5.446342e-004
1.618010e+003,5.789723e-004
1.619938e+003,6.858194e-004
1.621866e+003,4.193480e-004
1.623795e+003,8.267730e-005
1.625724e+003,-4.297272e-005
1.627652e+003,-1.661023e-004
1.629580e+003,-1.593786e-004
1.631509e+003,-2.999583e-004
1.633438e+003,-7.219867e-004
1.635366e+003,-1.415067e-003
1.637294e+003,-1.488742e-003
1.639223e+003,-1.434354e-003
1.641151e+003,-1.690221e-003
1.643080e+003,-2.055865e-003
1.645008e+003,-2.650702e-003
1.646937e+003,-3.308161e-003
1.648865e+003,-3.408672e-003
1.650794e+003,-3.896263e-003
1.652722e+003,-4.965566e-003
1.654651e+003,-4.900177e-003
1.656579e+003,-4.589972e-003
1.658508e+003,-4.747314e-003
1.660436e+003,-5.140914e-003
1.662365e+003,-5.635167e-003
1.664293e+003,-5.729581e-003
1.666222e+003,-5.863238e-003
1.668150e+003,-6.304161e-003
1.670079e+003,-6.584199e-003
1.672007e+003,-6.484747e-003
1.673936e+003,-6.508511e-003
1.675864e+003,-6.442930e-003
1.677793e+003,-6.153197e-003
1.679721e+003,-6.155255e-003
1.681650e+003,-6.280778e-003
1.683578e+003,-6.610209e-003
1.685507e+003,-6.303606e-003
1.687435e+003,-5.766825e-003
1.689364e+003,-5.448338e-003
1.691292e+003,-5.158333e-003
1.693221e+003,-5.130763e-003
1.695149e+003,-5.381745e-003
1.697078e+003,-5.358182e-003
1.699006e+003,-5.524701e-003
1.700935e+003,-5.644292e-003
1.702863e+003,-5.166486e-003
1.704792e+003,-5.045781e-003
1.706720e+003,-4.923667e-003
1.708649e+003,-4.812464e-003
1.710577e+003,-4.838973e-003
1.712506e+003,-4.987677e-003
1.714434e+003,-5.172412e-003
1.716363e+003,-5.491592e-003
1.718291e+003,-5.521168e-003
1.720220e+003,-5.051906e-003
1.722148e+003,-4.900931e-003
1.724077e+003,-4.943225e-003
1.726005e+003,-4.908040e-003
1.727934e+003,-5.030978e-003
1.729862e+003,-5.165143e-003
1.731791e+003,-5.356709e-003
1.733719e+003,-5.784906e-003
1.735648e+003,-5.535792e-003
1.737576e+003,-5.216972e-003
1.739505e+003,-5.287255e-003
1.741433e+003,-5.122020e-003
1.743362e+003,-4.971430e-003
1.745290e+003,-4.792278e-003
1.747219e+003,-4.880651e-003
1.749147e+003,-4.986367e-003
1.751076e+003,-4.840513e-003
1.753004e+003,-4.454939e-003
1.754933e+003,-4.350439e-003
1.756861e+003,-4.409580e-003
1.758790e+003,-4.302050e-003
1.760718e+003,-4.382060e-003
1.762647e+003,-4.373499e-003
1.764575e+003,-4.149962e-003
1.766504e+003,-4.224979e-003
1.768432e+003,-4.308973e-003
1.770361e+003,-4.337416e-003
1.772289e+003,-4.482192e-003
1.774218e+003,-4.321899e-003
1.776146e+003,-4.078542e-003
1.778075e+003,-4.011640e-003
1.780003e+003,-3.994634e-003
1.781932e+003,-3.979631e-003
1.783860e+003,-3.948965e-003
1.785789e+003,-3.894030e-003
1.787717e+003,-3.955072e-003
1.789646e+003,-4.100140e-003
1.791574e+003,-4.195512e-003
1.793503e+003,-4.005436e-003
1.795431e+003,-3.828808e-003
1.797360e+003,-3.851568e-003
1.799288e+003,-3.953332e-003
1.801217e+003,-4.026053e-003
1.803145e+003,-3.904833e-003
1.805074e+003,-3.812616e-003
1.807002e+003,-3.709407e-003
1.808931e+003,-3.736574e-003
1.810859e+003,-3.907296e-003
1.812788e+003,-3.972013e-003
1.814716e+003,-4.042631e-003
1.816645e+003,-4.091769e-003
1.818573e+003,-4.024214e-003
1.820502e+003,-3.928509e-003
1.822430e+003,-3.878169e-003
1.824359e+003,-4.016565e-003
1.826287e+003,-4.066954e-003
1.828216e+003,-4.181598e-003
1.830144e+003,-4.308645e-003
1.832073e+003,-4.254871e-003
1.834001e+003,-4.185962e-003
1.835930e+003,-4.140706e-003
1.837858e+003,-4.096792e-003
1.839787e+003,-4.009145e-003
1.841715e+003,-4.144579e-003
1.843644e+003,-4.474813e-003
1.845572e+003,-4.376615e-003
1.847501e+003,-4.140083e-003
1.849429e+003,-4.059208e-003
1.851358e+003,-4.030944e-003
1.853286e+003,-4.038265e-003
1.855215e+003,-4.092131e-003
1.857143e+003,-4.039348e-003
1.859072e+003,-4.038724e-003
1.861000e+003,-4.078443e-003
1.862929e+003,-4.038822e-003
1.864857e+003,-4.015711e-003
1.866786e+003,-4.087010e-003
1.868714e+003,-4.124231e-003
1.870643e+003,-4.023492e-003
1.872571e+003,-3.944335e-003
1.874500e+003,-3.845623e-003
1.876428e+003,-3.743440e-003
1.878357e+003,-3.748006e-003
1.880285e+003,-3.683452e-003
1.882214e+003,-3.570124e-003
1.884142e+003,-3.598582e-003
1.886071e+003,-3.703000e-003
1.887999e+003,-3.813765e-003
1.889928e+003,-3.845820e-003
1.891856e+003,-3.687099e-003
1.893785e+003,-3.541565e-003
1.895713e+003,-3.474417e-003
1.897642e+003,-3.500646e-003
1.899570e+003,-3.550373e-003
1.901499e+003,-3.473135e-003
1.903427e+003,-3.386217e-003
1.905356e+003,-3.420013e-003
1.907284e+003,-3.439474e-003
1.909213e+003,-3.430500e-003
1.911141e+003,-3.413636e-003
1.913070e+003,-3.418205e-003
1.914998e+003,-3.407948e-003
1.916927e+003,-3.581691e-003
1.918855e+003,-3.665021e-003
1.920784e+003,-3.488386e-003
1.922712e+003,-3.457817e-003
1.924641e+003,-3.488518e-003
1.926569e+003,-3.493810e-003
1.928498e+003,-3.415542e-003
1.930426e+003,-3.421854e-003
1.932355e+003,-3.564800e-003
1.934283e+003,-3.592305e-003
1.936212e+003,-3.553232e-003
1.938140e+003,-3.568218e-003
1.940069e+003,-3.601145e-003
1.941997e+003,-3.614913e-003
1.943926e+003,-3.635220e-003
1.945854e+003,-3.582546e-003
1.947783e+003,-3.569006e-003
1.949711e+003,-3.599863e-003
1.951640e+003,-3.664035e-003
1.953568e+003,-3.643303e-003
1.955497e+003,-3.548401e-003
1.957425e+003,-3.653718e-003
1.959354e+003,-3.753755e-003
1.961282e+003,-3.741863e-003
1.963211e+003,-3.794190e-003
1.965139e+003,-3.744918e-003
1.967068e+003,-3.687395e-003
1.968996e+003,-3.592042e-003
1.970925e+003,-3.535616e-003
1.972853e+003,-3.547842e-003
1.974782e+003,-3.552509e-003
1.976710e+003,-3.541335e-003
1.978639e+003,-3.557077e-003
1.980567e+003,-3.572588e-003
1.982496e+003,-3.543537e-003
1.984424e+003,-3.452459e-003
1.986353e+003,-3.384672e-003
1.988281e+003,-3.397987e-003
1.990210e+003,-3.373987e-003
1.992138e+003,-3.338379e-003
1.994067e+003,-3.358370e-003
1.995995e+003,-3.419356e-003
1.997924e+003,-3.417449e-003
1.999852e+003,-3.392530e-003
2.001781e+003,-3.323188e-003
2.003709e+003,-3.238050e-003
2.005638e+003,-3.224467e-003
2.007566e+003,-3.187662e-003
2.009495e+003,-3.146875e-003
2.011423e+003,-3.041730e-003
2.013352e+003,-2.996190e-003
2.015280e+003,-2.960979e-003
2.017208e+003,-3.016230e-003
2.019137e+003,-3.064268e-003
2.021066e+003,-3.044790e-003
2.022994e+003,-3.071704e-003
2.024922e+003,-3.042915e-003
2.026851e+003,-2.969042e-003
2.028780e+003,-2.997573e-003
2.030708e+003,-3.063544e-003
2.032636e+003,-3.115459e-003
2.034565e+003,-3.049364e-003
2.036494e+003,-2.945709e-003
2.038422e+003,-3.039164e-003
2.040350e+003,-3.067690e-003
2.042279e+003,-3.047916e-003
2.044208e+003,-2.933401e-003
2.046136e+003,-2.892490e-003
2.048064e+003,-2.909869e-003
2.049993e+003,-2.840878e-003
2.051921e+003,-2.774840e-003
2.053850e+003,-2.780305e-003
2.055778e+003,-2.800091e-003
2.057707e+003,-2.812699e-003
2.059635e+003,-2.859312e-003
2.061564e+003,-2.945808e-003
2.063492e+003,-3.033669e-003
2.065421e+003,-2.998362e-003
2.067349e+003,-2.800091e-003
2.069278e+003,-2.653205e-003
2.071206e+003,-2.689956e-003
2.073135e+003,-2.656861e-003
2.075063e+003,-2.640032e-003
2.076992e+003,-2.611116e-003
2.078920e+003,-2.672042e-003
2.080849e+003,-2.762230e-003
2.082777e+003,-2.747513e-003
2.084706e+003,-2.607690e-003
2.086634e+003,-2.547249e-003
2.088563e+003,-2.526562e-003
2.090491e+003,-2.406209e-003
2.092420e+003,-2.275242e-003
2.094348e+003,-2.255729e-003
2.096277e+003,-2.294062e-003
2.098205e+003,-2.323988e-003
2.100134e+003,-2.227347e-003
2.102062e+003,-2.136454e-003
2.103991e+003,-2.110934e-003
2.105919e+003,-2.051677e-003
2.107848e+003,-2.002009e-003
2.109776e+003,-1.949169e-003
2.111705e+003,-1.867291e-003
2.113633e+003,-1.894146e-003
2.115562e+003,-1.893090e-003
2.117490e+003,-1.887746e-003
2.119419e+003,-1.836047e-003
2.121347e+003,-1.701772e-003
2.123276e+003,-1.557453e-003
2.125204e+003,-1.584888e-003
2.127133e+003,-1.654903e-003
2.129061e+003,-1.666753e-003
2.130990e+003,-1.601922e-003
2.132918e+003,-1.551510e-003
2.134847e+003,-1.489766e-003
2.136775e+003,-1.425008e-003
2.138704e+003,-1.388150e-003
2.140632e+003,-1.384285e-003
2.142561e+003,-1.360868e-003
2.144489e+003,-1.345904e-003
2.146418e+003,-1.361528e-003
2.148346e+003,-1.371800e-003
2.150275e+003,-1.384252e-003
2.152203e+003,-1.380950e-003
2.154132e+003,-1.395647e-003
2.156060e+003,-1.446210e-003
2.157989e+003,-1.431712e-003
2.159917e+003,-1.413416e-003
2.161846e+003,-1.412920e-003
2.163774e+003,-1.371767e-003
2.165703e+003,-1.306298e-003
2.167631e+003,-1.287666e-003
2.169560e+003,-1.311947e-003
2.171488e+003,-1.308181e-003
2.173417e+003,-1.359943e-003
2.175345e+003,-1.387753e-003
2.177274e+003,-1.389867e-003
2.179202e+003,-1.388117e-003
2.181131e+003,-1.371602e-003
2.183059e+003,-1.348646e-003
2.184988e+003,-1.311947e-003
2.186916e+003,-1.398388e-003
2.188845e+003,-1.555901e-003
2.190773e+003,-1.515983e-003
2.192702e+003,-1.350430e-003
2.194630e+003,-1.236821e-003
2.196559e+003,-1.235962e-003
2.198487e+003,-1.229915e-003
2.200416e+003,-1.272073e-003
2.202344e+003,-1.323608e-003
2.204273e+003,-1.362783e-003
2.206201e+003,-1.377448e-003
2.208130e+003,-1.322716e-003
2.210058e+003,-1.303622e-003
2.211987e+003,-1.245147e-003
2.213915e+003,-1.249937e-003
2.215844e+003,-1.292787e-003
2.217772e+003,-1.179823e-003
2.219701e+003,-1.081605e-003
2.221629e+003,-1.180088e-003
2.223558e+003,-1.296387e-003
2.225486e+003,-1.272337e-003
2.227415e+003,-1.248913e-003
2.229343e+003,-1.277557e-003
2.231272e+003,-1.369786e-003
2.233200e+003,-1.436170e-003
2.235129e+003,-1.423687e-003
2.237057e+003,-1.400436e-003
2.238986e+003,-1.366086e-003
2.240914e+003,-1.319148e-003
2.242843e+003,-1.292423e-003
2.244771e+003,-1.259452e-003
2.246700e+003,-1.388414e-003
2.248628e+003,-1.483327e-003
2.250557e+003,-1.502677e-003
2.252485e+003,-1.431679e-003
2.254414e+003,-1.424975e-003
2.256342e+003,-1.528167e-003
2.258271e+003,-1.636286e-003
2.260199e+003,-1.614566e-003
2.262128e+003,-1.555274e-003
2.264056e+003,-1.610439e-003
2.265985e+003,-1.705733e-003
2.267913e+003,-1.688603e-003
2.269842e+003,-1.693521e-003
2.271770e+003,-1.790776e-003
2.273699e+003,-1.782791e-003
2.275627e+003,-1.709594e-003
2.277556e+003,-1.775465e-003
2.279484e+003,-1.837828e-003
2.281413e+003,-1.840633e-003
2.283341e+003,-1.918096e-003
2.285270e+003,-2.033044e-003
2.287198e+003,-2.034462e-003
2.289127e+003,-1.935942e-003
2.291055e+003,-1.791865e-003
2.292984e+003,-1.803249e-003
2.294912e+003,-1.901403e-003
2.296841e+003,-1.871349e-003
2.298769e+003,-1.899655e-003
2.300698e+003,-1.977800e-003
2.302626e+003,-1.941879e-003
2.304555e+003,-1.814336e-003
2.306483e+003,-1.818097e-003
2.308412e+003,-1.859505e-003
2.310340e+003,-1.797112e-003
2.312269e+003,-1.866697e-003
2.314197e+003,-1.979581e-003
2.316125e+003,-1.859868e-003
2.318054e+003,-1.820473e-003
2.319983e+003,-1.824169e-003
2.321911e+003,-1.781009e-003
2.323840e+003,-1.777115e-003
2.325768e+003,-1.748537e-003
2.327697e+003,-1.694346e-003
2.329625e+003,-1.645199e-003
2.331553e+003,-1.619550e-003
2.333482e+003,-1.740188e-003
2.335411e+003,-1.680781e-003
2.337339e+003,-1.499936e-003
2.339268e+003,-1.450767e-003
2.341196e+003,-1.482898e-003
2.343125e+003,-1.480322e-003
2.345053e+003,-1.363510e-003
2.346981e+003,-1.245411e-003
2.348910e+003,-1.272767e-003
2.350839e+003,-1.319016e-003
2.352767e+003,-1.343361e-003
2.354696e+003,-1.431877e-003
2.356624e+003,-1.384649e-003
2.358552e+003,-1.422960e-003
2.360481e+003,-1.420384e-003
2.362409e+003,-1.438779e-003
2.364338e+003,-1.505087e-003
2.366267e+003,-1.461764e-003
2.368195e+003,-1.468830e-003
2.370124e+003,-1.356904e-003
2.372052e+003,-1.207646e-003
2.373980e+003,-1.177709e-003
2.375909e+003,-1.045048e-003
2.377838e+003,-8.897310e-004
2.379766e+003,-7.705770e-004
2.381695e+003,-6.984007e-004
2.383623e+003,-7.057115e-004
2.385552e+003,-7.242030e-004
2.387480e+003,-6.199260e-004
2.389408e+003,-5.497763e-004
2.391337e+003,-6.189995e-004
2.393266e+003,-6.376601e-004
2.395194e+003,-5.851504e-004
2.397123e+003,-5.043715e-004
2.399051e+003,-4.785231e-004
2.400979e+003,-3.958376e-004
2.402908e+003,-2.916804e-004
2.404836e+003,-2.548585e-004
2.406765e+003,-2.530372e-004
2.408694e+003,-3.206191e-004
2.410622e+003,-3.131032e-004
2.412551e+003,-2.441955e-004
2.414479e+003,-3.150567e-004
2.416407e+003,-2.760182e-004
2.418336e+003,-1.524892e-004
2.420264e+003,-1.176099e-004
2.422193e+003,-1.247980e-004
2.424122e+003,-3.140993e-005
2.426050e+003,9.285150e-005
2.427979e+003,1.678895e-004
2.429907e+003,2.002089e-004
2.431835e+003,1.918885e-004
2.433764e+003,1.247013e-004
2.435692e+003,2.204636e-004
2.437621e+003,2.839190e-004
2.439550e+003,2.956562e-004
2.441478e+003,3.277530e-004
2.443406e+003,3.372698e-004
2.445335e+003,3.535847e-004
2.447263e+003,4.291984e-004
2.449192e+003,4.388501e-004
2.451121e+003,3.901297e-004
2.453049e+003,4.324488e-004
2.454978e+003,5.113604e-004
2.456906e+003,5.040955e-004
2.458834e+003,5.612224e-004
2.460763e+003,6.664390e-004
2.462691e+003,6.987955e-004
2.464620e+003,6.602998e-004
2.466549e+003,6.839942e-004
2.468477e+003,7.660052e-004
2.470406e+003,7.672333e-004
2.472334e+003,7.217618e-004
2.474262e+003,7.645779e-004
2.476191e+003,7.855560e-004
2.478119e+003,7.746685e-004
2.480048e+003,8.474009e-004
2.481977e+003,9.076940e-004
2.483905e+003,9.834043e-004
2.485833e+003,1.071550e-003
2.487762e+003,1.110780e-003
2.489690e+003,1.089055e-003
2.491619e+003,1.027110e-003
2.493547e+003,9.449498e-004
2.495476e+003,8.793393e-004
2.497405e+003,9.761315e-004
2.499333e+003,1.110514e-003
2.501261e+003,1.117457e-003
2.503190e+003,1.147954e-003
2.505118e+003,1.108953e-003
2.507047e+003,1.075868e-003
2.508975e+003,1.163601e-003
2.510904e+003,1.197955e-003
2.512833e+003,1.157688e-003
2.514761e+003,1.179914e-003
2.516689e+003,1.203836e-003
2.518618e+003,1.270559e-003
2.520546e+003,1.323732e-003
2.522475e+003,1.374086e-003
2.524403e+003,1.399316e-003
2.526332e+003,1.427571e-003
2.528260e+003,1.420191e-003
2.530189e+003,1.455530e-003
2.532117e+003,1.489208e-003
2.534046e+003,1.440004e-003
2.535974e+003,1.394063e-003
2.537903e+003,1.379770e-003
2.539831e+003,1.387515e-003
2.541760e+003,1.394230e-003
2.543688e+003,1.495226e-003
2.545617e+003,1.512815e-003
2.547545e+003,1.478469e-003
2.549474e+003,1.539682e-003
2.551402e+003,1.585305e-003
2.553331e+003,1.653683e-003
2.555259e+003,1.697623e-003
2.557188e+003,1.692766e-003
2.559116e+003,1.640280e-003
2.561045e+003,1.681856e-003
2.562973e+003,1.761727e-003
2.564902e+003,1.707802e-003
2.566830e+003,1.755572e-003
2.568759e+003,1.813130e-003
2.570687e+003,1.824942e-003
2.572616e+003,1.689573e-003
2.574544e+003,1.580251e-003
2.576473e+003,1.661466e-003
2.578401e+003,1.714521e-003
2.580330e+003,1.736676e-003
2.582258e+003,1.782054e-003
2.584187e+003,1.762093e-003
2.586115e+003,1.847569e-003
2.588044e+003,1.963149e-003
2.589972e+003,1.885770e-003
2.591901e+003,1.893890e-003
2.593829e+003,1.966644e-003
2.595758e+003,1.907934e-003
2.597686e+003,1.901545e-003
2.599615e+003,2.057453e-003
2.601543e+003,2.071969e-003
2.603472e+003,2.002060e-003
2.605400e+003,1.994670e-003
2.607329e+003,1.941948e-003
2.609257e+003,1.935857e-003
2.611186e+003,2.040175e-003
2.613114e+003,2.076596e-003
2.615043e+003,2.004690e-003
2.616971e+003,1.935391e-003
2.618900e+003,1.974299e-003
2.620828e+003,1.988745e-003
2.622757e+003,1.975231e-003
2.624685e+003,1.974599e-003
2.626614e+003,2.114052e-003
2.628542e+003,2.157106e-003
2.630471e+003,2.129202e-003
2.632399e+003,2.220745e-003
2.634328e+003,2.280396e-003
2.636256e+003,2.215649e-003
2.638185e+003,2.186976e-003
2.640113e+003,2.265208e-003
2.642042e+003,2.399057e-003
2.643970e+003,2.473229e-003
2.645899e+003,2.531148e-003
2.647827e+003,2.560678e-003
2.649756e+003,2.558345e-003
2.651684e+003,2.557145e-003
2.653613e+003,2.565211e-003
2.655541e+003,2.597409e-003
2.657470e+003,2.643444e-003
2.659398e+003,2.636310e-003
2.661327e+003,2.567944e-003
2.663255e+003,2.626043e-003
2.665184e+003,2.736762e-003
2.667112e+003,2.818062e-003
2.669041e+003,2.858950e-003
2.670969e+003,2.854047e-003
2.672898e+003,2.858617e-003
2.674826e+003,2.848411e-003
2.676755e+003,2.895940e-003
2.678683e+003,2.882498e-003
2.680612e+003,2.907882e-003
2.682540e+003,2.903011e-003
2.684469e+003,2.896274e-003
2.686397e+003,3.041495e-003
2.688326e+003,3.130694e-003
2.690254e+003,3.203155e-003
2.692183e+003,3.252526e-003
2.694111e+003,3.328713e-003
2.696040e+003,3.420141e-003
2.697968e+003,3.426353e-003
2.699897e+003,3.440513e-003
2.701825e+003,3.386379e-003
2.703754e+003,3.410757e-003
2.705682e+003,3.482797e-003
2.707611e+003,3.437441e-003
2.709539e+003,3.334288e-003
2.711468e+003,3.455342e-003
2.713396e+003,3.605094e-003
2.715325e+003,3.612344e-003
2.717253e+003,3.597544e-003
2.719182e+003,3.542354e-003
2.721110e+003,3.621866e-003
2.723039e+003,3.726156e-003
2.724967e+003,3.831641e-003
2.726896e+003,3.907161e-003
2.728824e+003,3.874130e-003
2.730753e+003,3.913146e-003
2.732681e+003,4.002657e-003
2.734610e+003,3.954037e-003
2.736538e+003,3.911641e-003
2.738467e+003,3.954305e-003
2.740395e+003,3.977143e-003
2.742324e+003,4.006971e-003
2.744252e+003,4.139251e-003
2.746181e+003,4.304030e-003
2.748109e+003,4.449624e-003
2.750038e+003,4.526690e-003
2.751966e+003,4.586392e-003
2.753895e+003,4.581436e-003
2.755823e+003,4.678755e-003
2.757752e+003,4.861967e-003
2.759680e+003,4.906232e-003
2.761609e+003,4.982542e-003
2.763537e+003,5.235396e-003
2.765466e+003,5.469640e-003
2.767394e+003,5.564809e-003
2.769323e+003,5.679101e-003
2.771251e+003,5.991013e-003
2.773180e+003,6.338248e-003
2.775108e+003,6.547825e-003
2.777037e+003,6.862347e-003
2.778965e+003,7.122294e-003
2.780894e+003,7.378352e-003
2.782822e+003,7.927634e-003
2.784750e+003,8.400144e-003
2.786679e+003,8.681159e-003
2.788608e+003,9.020403e-003
2.790536e+003,9.407111e-003
2.792465e+003,9.774541e-003
2.794393e+003,1.009799e-002
2.796322e+003,1.042867e-002
2.798250e+003,1.076765e-002
2.800178e+003,1.116010e-002
2.802107e+003,1.145417e-002
2.804036e+003,1.162845e-002
2.805964e+003,1.174588e-002
2.807893e+003,1.181258e-002
2.809821e+003,1.198888e-002
2.811750e+003,1.197450e-002
2.813678e+003,1.188575e-002
2.815606e+003,1.180365e-002
2.817535e+003,1.161130e-002
2.819464e+003,1.147625e-002
2.821392e+003,1.135372e-002
2.823321e+003,1.119906e-002
2.825249e+003,1.085417e-002
2.827177e+003,1.054771e-002
2.829106e+003,1.024656e-002
2.831034e+003,9.983817e-003
2.832963e+003,9.663469e-003
2.834892e+003,9.379312e-003
2.836820e+003,9.003523e-003
2.838749e+003,8.590137e-003
2.840677e+003,8.154624e-003
2.842605e+003,7.544331e-003
2.844534e+003,6.939844e-003
2.846462e+003,6.477663e-003
2.848391e+003,6.056224e-003
2.850320e+003,5.748227e-003
2.852248e+003,5.668963e-003
2.854177e+003,5.543868e-003
2.856105e+003,5.484169e-003
2.858033e+003,5.557594e-003
2.859962e+003,5.524336e-003
2.861890e+003,5.484303e-003
2.863819e+003,5.419312e-003
2.865748e+003,5.472761e-003
2.867676e+003,5.527122e-003
2.869604e+003,5.620424e-003
2.871533e+003,5.713948e-003
2.873461e+003,5.754607e-003
2.875390e+003,5.851955e-003
2.877319e+003,5.920235e-003
2.879247e+003,6.101283e-003
2.881176e+003,6.107769e-003
2.883104e+003,5.954295e-003
2.885032e+003,5.974216e-003
2.886961e+003,5.950533e-003
2.888889e+003,5.867437e-003
2.890818e+003,5.855178e-003
2.892747e+003,5.902937e-003
2.894675e+003,5.800910e-003
2.896604e+003,5.584242e-003
2.898532e+003,5.435215e-003
2.900460e+003,5.346715e-003
2.902389e+003,5.216985e-003
2.904317e+003,5.084175e-003
2.906246e+003,5.050016e-003
2.908175e+003,5.023367e-003
2.910103e+003,4.865652e-003
2.912031e+003,4.555887e-003
2.913960e+003,4.415079e-003
2.915888e+003,4.383782e-003
2.917817e+003,4.265549e-003
2.919745e+003,4.323239e-003
2.921674e+003,4.405539e-003
2.923603e+003,4.474563e-003
2.925531e+003,4.521869e-003
2.927459e+003,4.627916e-003
2.929388e+003,4.720021e-003
2.931316e+003,4.743435e-003
2.933245e+003,4.772311e-003
2.935173e+003,4.896983e-003
2.937102e+003,5.144758e-003
2.939031e+003,5.235429e-003
2.940959e+003,5.108648e-003
2.942887e+003,5.010797e-003
2.944816e+003,4.945675e-003
2.946744e+003,4.819549e-003
2.948673e+003,4.491101e-003
2.950601e+003,4.258187e-003
2.952530e+003,4.054628e-003
2.954458e+003,3.773080e-003
2.956387e+003,3.429993e-003
2.958315e+003,2.894873e-003
2.960244e+003,2.500688e-003
2.962172e+003,2.294286e-003
2.964101e+003,2.064711e-003
2.966029e+003,1.788110e-003
2.967958e+003,1.520795e-003
2.969886e+003,1.397720e-003
2.971815e+003,1.145030e-003
2.973743e+003,9.932675e-004
2.975672e+003,8.476997e-004
2.977600e+003,6.468935e-004
2.979529e+003,5.037970e-004
2.981457e+003,4.262798e-004
2.983386e+003,2.816644e-004
2.985314e+003,3.684661e-005
2.987243e+003,-1.583850e-004
2.989171e+003,-1.123761e-004
2.991100e+003,-1.489782e-004
2.993028e+003,-2.440961e-004
2.994957e+003,-2.579050e-004
2.996885e+003,-3.063818e-004
2.998814e+003,-3.817020e-004
3.000742e+003,-4.566120e-004
3.002671e+003,-5.554020e-004
3.004599e+003,-6.125476e-004
3.006528e+003,-5.980220e-004
3.008456e+003,-5.302847e-004
3.010385e+003,-5.300199e-004
3.012313e+003,-5.875659e-004
3.014242e+003,-6.024227e-004
3.016170e+003,-6.377263e-004
3.018099e+003,-6.499346e-004
3.020027e+003,-6.982684e-004
3.021956e+003,-7.580413e-004
3.023884e+003,-6.915529e-004
3.025813e+003,-6.327966e-004
3.027741e+003,-7.078286e-004
3.029670e+003,-6.953573e-004
3.031598e+003,-7.368058e-004
3.033527e+003,-7.624404e-004
3.035455e+003,-8.885736e-004
3.037384e+003,-9.723887e-004
3.039312e+003,-1.031198e-003
3.041241e+003,-9.555939e-004
3.043169e+003,-9.721242e-004
3.045098e+003,-1.127049e-003
3.047026e+003,-1.161450e-003
3.048955e+003,-1.075689e-003
3.050883e+003,-1.112805e-003
3.052812e+003,-1.234244e-003
3.054740e+003,-1.278581e-003
3.056669e+003,-1.260741e-003
3.058597e+003,-1.271148e-003
3.060526e+003,-1.369224e-003
3.062454e+003,-1.380157e-003
3.064383e+003,-1.352313e-003
3.066311e+003,-1.459320e-003
3.068240e+003,-1.432405e-003
3.070168e+003,-1.447498e-003
3.072097e+003,-1.444657e-003
3.074025e+003,-1.404168e-003
3.075954e+003,-1.502347e-003
3.077882e+003,-1.567093e-003
3.079811e+003,-1.580728e-003
3.081739e+003,-1.614764e-003
3.083668e+003,-1.591920e-003
3.085596e+003,-1.692531e-003
3.087525e+003,-1.735898e-003
3.089453e+003,-1.672595e-003
3.091382e+003,-1.674015e-003
3.093310e+003,-1.767677e-003
3.095239e+003,-1.921757e-003
3.097167e+003,-1.821595e-003
3.099096e+003,-1.673817e-003
3.101024e+003,-1.833473e-003
3.102953e+003,-1.944089e-003
3.104881e+003,-1.825818e-003
3.106810e+003,-1.808496e-003
3.108738e+003,-1.896158e-003
3.110667e+003,-1.979449e-003
3.112595e+003,-1.984957e-003
3.114524e+003,-1.911597e-003
3.116452e+003,-1.822882e-003
3.118381e+003,-1.807737e-003
3.120309e+003,-1.874351e-003
3.122238e+003,-1.845153e-003
3.124166e+003,-1.859043e-003
3.126095e+003,-1.841920e-003
3.128023e+003,-1.843239e-003
3.129952e+003,-1.932445e-003
3.131880e+003,-2.062592e-003
3.133809e+003,-2.249499e-003
3.135737e+003,-2.230347e-003
3.137666e+003,-2.143247e-003
3.139594e+003,-2.091677e-003
3.141523e+003,-1.982615e-003
3.143451e+003,-1.860429e-003
3.145380e+003,-1.839907e-003
3.147308e+003,-1.961143e-003
3.149237e+003,-2.073903e-003
3.151165e+003,-2.029218e-003
3.153094e+003,-1.911399e-003
3.155022e+003,-1.962891e-003
3.156951e+003,-2.195172e-003
3.158879e+003,-2.150137e-003
3.160808e+003,-2.036836e-003
3.162736e+003,-2.069517e-003
3.164665e+003,-2.083433e-003
3.166593e+003,-2.041124e-003
3.168522e+003,-2.044883e-003
3.170450e+003,-2.032219e-003
3.172379e+003,-1.921823e-003
3.174307e+003,-1.850630e-003
3.176236e+003,-1.830042e-003
3.178164e+003,-1.922021e-003
3.180093e+003,-2.035286e-003
3.182021e+003,-2.154061e-003
3.183950e+003,-2.172853e-003
3.185878e+003,-2.081323e-003
3.187807e+003,-2.018763e-003
3.189735e+003,-2.116078e-003
3.191664e+003,-2.190326e-003
3.193592e+003,-2.212381e-003
3.195521e+003,-2.146379e-003
3.197449e+003,-2.060350e-003
3.199378e+003,-2.161644e-003
3.201306e+003,-2.117792e-003
3.203235e+003,-1.978361e-003
3.205163e+003,-2.002009e-003
3.207092e+003,-2.129365e-003
3.209020e+003,-2.012101e-003
3.210948e+003,-1.896719e-003
3.212877e+003,-1.941978e-003
3.214806e+003,-1.918294e-003
3.216734e+003,-1.868413e-003
3.218663e+003,-1.834793e-003
3.220591e+003,-1.674279e-003
3.222520e+003,-1.689098e-003
3.224448e+003,-1.683817e-003
3.226376e+003,-1.672694e-003
3.228305e+003,-1.560556e-003
3.230234e+003,-1.404333e-003
3.232162e+003,-1.342998e-003
3.234091e+003,-1.398223e-003
3.236019e+003,-1.360306e-003
3.237948e+003,-1.334442e-003
3.239876e+003,-1.314523e-003
3.241804e+003,-1.228825e-003
3.243733e+003,-1.122058e-003
3.245662e+003,-1.123512e-003
3.247590e+003,-1.206126e-003
3.249519e+003,-1.148893e-003
3.251447e+003,-9.791328e-004
3.253375e+003,-9.647848e-004
3.255304e+003,-9.231596e-004
3.257232e+003,-7.465306e-004
3.259161e+003,-6.283630e-004
3.261090e+003,-5.024520e-004
3.263018e+003,-5.393852e-004
3.264947e+003,-6.323002e-004
3.266875e+003,-5.558984e-004
3.268803e+003,-5.405766e-004
3.270732e+003,-5.439520e-004
3.272660e+003,-5.116856e-004
3.274589e+003,-4.053052e-004
3.276518e+003,-3.554159e-004
3.278446e+003,-3.955066e-004
3.280375e+003,-4.563803e-004
3.282303e+003,-4.863341e-004
3.284231e+003,-5.241954e-004
3.286160e+003,-3.245260e-004
3.288088e+003,-4.211282e-004
3.290017e+003,-5.921653e-004
3.291946e+003,-7.715362e-004
3.293874e+003,-8.496198e-004
3.295802e+003,-7.261546e-004
3.297731e+003,-6.425236e-004
3.299659e+003,-8.503473e-004
3.301588e+003,-9.645864e-004
3.303516e+003,-1.093768e-003
3.305445e+003,-1.323409e-003
3.307374e+003,-1.366945e-003
3.309302e+003,-1.373452e-003
3.311230e+003,-1.512979e-003
3.313159e+003,-1.592844e-003
3.315087e+003,-1.639323e-003
3.317016e+003,-1.780877e-003
3.318944e+003,-1.854919e-003
3.320873e+003,-1.853863e-003
3.322802e+003,-1.912949e-003
3.324730e+003,-2.056689e-003
3.326658e+003,-2.184821e-003
3.328587e+003,-2.218018e-003
3.330515e+003,-2.273264e-003
3.332444e+003,-2.351111e-003
3.334372e+003,-2.496979e-003
3.336301e+003,-2.676948e-003
3.338229e+003,-2.730688e-003
3.340158e+003,-2.745208e-003
3.342086e+003,-2.744187e-003
3.344015e+003,-2.821555e-003
3.345943e+003,-2.798675e-003
3.347872e+003,-2.785737e-003
3.349800e+003,-2.886698e-003
3.351729e+003,-2.941596e-003
3.353657e+003,-3.006589e-003
3.355586e+003,-3.012446e-003
3.357514e+003,-3.004516e-003
3.359443e+003,-2.904339e-003
3.361371e+003,-3.000007e-003
3.363300e+003,-3.250021e-003
3.365229e+003,-3.234596e-003
3.367157e+003,-3.154474e-003
3.369085e+003,-3.341831e-003
3.371014e+003,-3.539100e-003
3.372942e+003,-3.669884e-003
3.374871e+003,-3.691797e-003
3.376799e+003,-3.875180e-003
3.378728e+003,-3.997196e-003
3.380656e+003,-4.058781e-003
3.382585e+003,-4.265173e-003
3.384513e+003,-4.352834e-003
3.386442e+003,-4.305233e-003
3.388370e+003,-4.344370e-003
3.390299e+003,-4.487734e-003
3.392227e+003,-4.559447e-003
3.394156e+003,-4.482946e-003
3.396084e+003,-4.642229e-003
3.398013e+003,-4.714507e-003
3.399941e+003,-4.689760e-003
3.401870e+003,-4.718407e-003
3.403798e+003,-4.730731e-003
3.405727e+003,-4.672059e-003
3.407655e+003,-4.716867e-003
3.409584e+003,-4.714146e-003
3.411512e+003,-4.728600e-003
3.413441e+003,-4.698020e-003
3.415369e+003,-4.787428e-003
3.417298e+003,-4.743841e-003
3.419226e+003,-4.848803e-003
3.421155e+003,-5.068510e-003
3.423083e+003,-4.898736e-003
3.425012e+003,-4.733910e-003
3.426940e+003,-4.862630e-003
3.428869e+003,-4.880028e-003
3.430797e+003,-4.773860e-003
3.432726e+003,-4.794834e-003
3.434654e+003,-4.837040e-003
3.436583e+003,-4.889530e-003
3.438511e+003,-4.868888e-003
3.440440e+003,-4.913151e-003
3.442368e+003,-5.080988e-003
3.444297e+003,-5.299333e-003
3.446225e+003,-5.198310e-003
3.448154e+003,-5.125360e-003
3.450082e+003,-5.166126e-003
3.452011e+003,-5.162851e-003
3.453939e+003,-5.158923e-003
3.455868e+003,-5.152472e-003
3.457796e+003,-5.152014e-003
3.459725e+003,-5.205611e-003
3.461653e+003,-5.302476e-003
3.463582e+003,-5.463814e-003
3.465510e+003,-5.575506e-003
3.467439e+003,-5.433646e-003
3.469367e+003,-5.204040e-003
3.471296e+003,-5.340345e-003
3.473224e+003,-5.587281e-003
3.475153e+003,-5.564678e-003
3.477081e+003,-5.456976e-003
3.479010e+003,-5.522150e-003
3.480938e+003,-5.578744e-003
3.482867e+003,-5.493327e-003
3.484795e+003,-5.393461e-003
3.486724e+003,-5.330559e-003
3.488652e+003,-5.258547e-003
3.490581e+003,-5.337203e-003
3.492509e+003,-5.495617e-003
3.494438e+003,-5.594543e-003
3.496366e+003,-5.679711e-003
3.498295e+003,-5.610930e-003
3.500223e+003,-5.529871e-003
3.502152e+003,-5.570664e-003
3.504080e+003,-5.492705e-003
3.506009e+003,-5.297009e-003
3.507937e+003,-5.420360e-003
3.509866e+003,-5.520809e-003
3.511794e+003,-5.488059e-003
3.513723e+003,-5.496435e-003
3.515651e+003,-5.541582e-003
3.517580e+003,-5.352716e-003
3.519508e+003,-5.373891e-003
3.521437e+003,-5.470882e-003
3.523365e+003,-5.462898e-003
3.525294e+003,-5.409365e-003
3.527222e+003,-5.471373e-003
3.529151e+003,-5.525225e-003
3.531079e+003,-5.382465e-003
3.533008e+003,-5.377065e-003
3.534936e+003,-5.424811e-003
3.536865e+003,-5.348429e-003
3.538793e+003,-5.423927e-003
3.540722e+003,-5.593104e-003
3.542650e+003,-5.515083e-003
3.544579e+003,-5.421538e-003
3.546507e+003,-5.653188e-003
3.548436e+003,-5.572202e-003
3.550364e+003,-5.459790e-003
3.552293e+003,-5.469802e-003
3.554221e+003,-5.444182e-003
3.556150e+003,-5.502324e-003
3.558078e+003,-5.544592e-003
3.560007e+003,-5.558855e-003
3.561935e+003,-5.558887e-003
3.563864e+003,-5.600136e-003
3.565792e+003,-5.776961e-003
3.567721e+003,-5.842479e-003
3.569649e+003,-5.762117e-003
3.571578e+003,-5.589931e-003
3.573506e+003,-5.376247e-003
3.575435e+003,-5.304113e-003
3.577363e+003,-5.490251e-003
3.579292e+003,-5.660252e-003
3.581220e+003,-5.463062e-003
3.583149e+003,-5.344796e-003
3.585077e+003,-5.591370e-003
3.587006e+003,-5.889748e-003
3.588934e+003,-5.813743e-003
3.590863e+003,-5.508147e-003
3.592791e+003,-5.415713e-003
3.594720e+003,-5.469180e-003
3.596648e+003,-5.511877e-003
3.598577e+003,-5.510340e-003
3.600505e+003,-5.499412e-003
3.602434e+003,-5.476967e-003
3.604362e+003,-5.545966e-003
3.606291e+003,-5.691125e-003
3.608219e+003,-5.620939e-003
3.610148e+003,-5.375527e-003
3.612076e+003,-5.516032e-003
3.614005e+003,-5.576487e-003
3.615933e+003,-5.581688e-003
3.617862e+003,-5.759566e-003
3.619790e+003,-5.682131e-003
3.621719e+003,-5.331541e-003
3.623647e+003,-5.202534e-003
3.625576e+003,-5.421800e-003
3.627504e+003,-5.920441e-003
3.629433e+003,-5.896939e-003
3.631361e+003,-5.663556e-003
3.633290e+003,-5.683799e-003
3.635218e+003,-5.601216e-003
3.637146e+003,-5.520056e-003
3.639075e+003,-5.568701e-003
3.641004e+003,-5.589735e-003
3.642932e+003,-5.595590e-003
3.644861e+003,-5.651651e-003
3.646789e+003,-6.091286e-003
3.648718e+003,-6.326008e-003
3.650646e+003,-5.925115e-003
3.652574e+003,-5.633106e-003
3.654503e+003,-5.818842e-003
3.656432e+003,-5.641479e-003
3.658360e+003,-5.378473e-003
3.660289e+003,-5.659990e-003
3.662217e+003,-5.772776e-003
3.664146e+003,-5.662803e-003
3.666074e+003,-5.712054e-003
3.668002e+003,-5.882786e-003
3.669931e+003,-6.032864e-003
3.671860e+003,-5.983388e-003
3.673788e+003,-6.417563e-003
3.675717e+003,-6.450732e-003
3.677645e+003,-5.905634e-003
3.679573e+003,-5.832541e-003
3.681502e+003,-5.847089e-003
3.683430e+003,-5.831952e-003
3.685359e+003,-5.783696e-003
3.687288e+003,-5.980349e-003
3.689216e+003,-6.042112e-003
3.691145e+003,-5.906190e-003
3.693073e+003,-5.626205e-003
3.695001e+003,-5.438456e-003
3.696930e+003,-5.547307e-003
3.698858e+003,-5.649002e-003
3.700787e+003,-5.982016e-003
3.702716e+003,-5.967146e-003
3.704644e+003,-5.725298e-003
3.706573e+003,-5.785364e-003
3.708501e+003,-5.939496e-003
3.710429e+003,-6.373257e-003
3.712358e+003,-6.308048e-003
3.714286e+003,-5.686677e-003
3.716215e+003,-5.424745e-003
3.718144e+003,-5.339658e-003
3.720072e+003,-5.321787e-003
3.722000e+003,-5.373924e-003
3.723929e+003,-5.554929e-003
3.725857e+003,-5.739653e-003
3.727786e+003,-5.579202e-003
3.729714e+003,-5.427788e-003
3.731643e+003,-5.648249e-003
3.733572e+003,-5.916486e-003
3.735500e+003,-6.041556e-003
3.737428e+003,-5.731772e-003
3.739357e+003,-5.366527e-003
3.741285e+003,-5.445065e-003
3.743214e+003,-6.023387e-003
3.745142e+003,-5.727848e-003
3.747071e+003,-5.503502e-003
3.749000e+003,-5.953942e-003
3.750928e+003,-5.812468e-003
3.752856e+003,-5.393919e-003
3.754785e+003,-4.977817e-003
3.756713e+003,-4.858960e-003
3.758642e+003,-4.932447e-003
3.760570e+003,-4.934773e-003
3.762499e+003,-4.765241e-003
3.764427e+003,-4.651112e-003
3.766356e+003,-4.711786e-003
3.768284e+003,-4.953511e-003
3.770213e+003,-4.795817e-003
3.772141e+003,-4.489669e-003
3.774070e+003,-4.581939e-003
3.775998e+003,-4.831568e-003
3.777927e+003,-4.950170e-003
3.779855e+003,-4.817838e-003
3.781784e+003,-4.629116e-003
3.783712e+003,-4.849753e-003
3.785641e+003,-4.771501e-003
3.787569e+003,-4.476715e-003
3.789498e+003,-4.401216e-003
3.791426e+003,-4.416763e-003
3.793355e+003,-4.422404e-003
3.795283e+003,-4.505901e-003
3.797212e+003,-4.534134e-003
3.799140e+003,-4.735286e-003
3.801069e+003,-4.961832e-003
3.802997e+003,-4.711032e-003
3.804926e+003,-4.731157e-003
3.806854e+003,-4.931759e-003
3.808783e+003,-4.479109e-003
3.810711e+003,-4.186783e-003
3.812640e+003,-4.244896e-003
3.814568e+003,-4.746757e-003
3.816497e+003,-4.858240e-003
3.818425e+003,-4.816986e-003
3.820354e+003,-5.224403e-003
3.822282e+003,-4.917574e-003
3.824211e+003,-4.561906e-003
3.826139e+003,-4.632755e-003
3.828068e+003,-4.725224e-003
3.829996e+003,-4.748167e-003
3.831925e+003,-4.769600e-003
3.833853e+003,-4.843069e-003
3.835782e+003,-5.004021e-003
3.837710e+003,-5.155779e-003
3.839639e+003,-4.942406e-003
3.841567e+003,-4.859321e-003
3.843496e+003,-4.755115e-003
3.845424e+003,-4.572628e-003
3.847353e+003,-4.479634e-003
3.849281e+003,-4.641278e-003
3.851210e+003,-5.184297e-003
3.853138e+003,-5.574426e-003
3.855067e+003,-4.942963e-003
3.856995e+003,-4.545971e-003
3.858924e+003,-4.516197e-003
3.860852e+003,-4.526264e-003
3.862781e+003,-4.649047e-003
3.864709e+003,-4.863089e-003
3.866638e+003,-4.848410e-003
3.868566e+003,-4.959833e-003
3.870495e+003,-4.809712e-003
3.872423e+003,-4.850310e-003
3.874352e+003,-4.735286e-003
3.876280e+003,-4.516067e-003
3.878209e+003,-4.743119e-003
3.880137e+003,-4.794080e-003
3.882066e+003,-4.692940e-003
3.883994e+003,-4.724995e-003
3.885923e+003,-4.510492e-003
3.887851e+003,-4.423093e-003
3.889780e+003,-4.635640e-003
3.891708e+003,-4.788870e-003
3.893637e+003,-4.742300e-003
3.895565e+003,-4.496949e-003
3.897494e+003,-4.298672e-003
3.899422e+003,-4.545512e-003
3.901351e+003,-4.771796e-003
3.903279e+003,-4.748167e-003
3.905208e+003,-4.353161e-003
3.907136e+003,-4.290732e-003
3.909065e+003,-4.426996e-003
3.910993e+003,-4.369563e-003
3.912922e+003,-4.324950e-003
3.914850e+003,-4.296047e-003
3.916779e+003,-4.426144e-003
3.918707e+003,-4.308907e-003
3.920636e+003,-4.165156e-003
3.922564e+003,-4.311696e-003
3.924493e+003,-4.379961e-003
3.926421e+003,-4.164435e-003
3.928350e+003,-4.127414e-003
3.930278e+003,-4.343321e-003
3.932207e+003,-4.271703e-003
3.934135e+003,-4.095610e-003
3.936064e+003,-4.059306e-003
3.937992e+003,-4.091573e-003
3.939921e+003,-4.148124e-003
3.941849e+003,-4.199154e-003
3.943778e+003,-4.303494e-003
3.945706e+003,-4.314025e-003
3.947635e+003,-4.186487e-003
3.949563e+003,-4.030976e-003
3.951492e+003,-4.095610e-003
3.953420e+003,-4.124854e-003
3.955349e+003,-4.166732e-003
3.957277e+003,-4.344600e-003
3.959206e+003,-4.356737e-003
3.961134e+003,-3.986000e-003
3.963063e+003,-3.957370e-003
3.964991e+003,-4.178021e-003
3.966920e+003,-4.112546e-003
3.968848e+003,-4.093115e-003
3.970777e+003,-4.164861e-003
3.972705e+003,-4.030287e-003
3.974634e+003,-4.131090e-003
3.976562e+003,-4.294800e-003
3.978491e+003,-4.037871e-003
3.980419e+003,-3.895803e-003
3.982348e+003,-4.136539e-003
3.984276e+003,-4.232264e-003
3.986205e+003,-4.051625e-003
3.988133e+003,-4.071911e-003
3.990062e+003,-4.383176e-003
3.991990e+003,-4.399019e-003
3.993919e+003,-4.233314e-003
3.995847e+003,-4.188654e-003
3.997776e+003,-4.127939e-003
3.999704e+003,-4.270718e-003
4.001633e+003,0.000000e+000
