3.991989e+002,-1.647598e-002
4.011274e+002,-1.786745e-002
4.030559e+002,-2.296270e-002
4.049844e+002,-2.960120e-002
4.069129e+002,-2.571866e-002
4.088414e+002,-2.271737e-002
4.107699e+002,-2.585364e-002
4.126984e+002,-2.308695e-002
4.146269e+002,-1.692777e-002
4.165554e+002,-1.288879e-002
4.184839e+002,-1.432054e-002
4.204124e+002,-1.196802e-002
4.223409e+002,-1.199216e-002
4.242694e+002,-1.375317e-002
4.261979e+002,-1.845488e-002
4.281264e+002,-1.069050e-002
4.300549e+002,-4.266125e-003
4.319834e+002,-7.042095e-003
4.339119e+002,-8.686442e-003
4.358404e+002,-7.789386e-003
4.377689e+002,-8.167200e-003
4.396974e+002,-1.385428e-002
4.416259e+002,-2.105583e-002
4.435544e+002,-1.853642e-002
4.454829e+002,-1.464355e-002
4.474114e+002,-1.219205e-002
4.493399e+002,-1.255388e-002
4.512684e+002,-1.262428e-002
4.531969e+002,-1.209307e-002
4.551254e+002,-1.155278e-002
4.570539e+002,-1.314742e-002
4.589824e+002,-1.396502e-002
4.609109e+002,-1.417760e-002
4.628394e+002,-1.295186e-002
4.647679e+002,-1.281403e-002
4.666964e+002,-1.312748e-002
4.686249e+002,-1.463954e-002
4.705533e+002,-1.412603e-002
4.724819e+002,-1.351135e-002
4.744103e+002,-1.216218e-002
4.763389e+002,-1.166734e-002
4.782673e+002,-1.242343e-002
4.801959e+002,-1.324089e-002
4.821243e+002,-1.367426e-002
4.840529e+002,-1.809609e-002
4.859813e+002,-1.647317e-002
4.879099e+002,-1.436786e-002
4.898383e+002,-1.297341e-002
4.917668e+002,-1.016601e-002
4.936953e+002,-1.408635e-002
4.956238e+002,-1.573663e-002
4.975523e+002,-1.495479e-002
4.994808e+002,-1.735647e-002
5.014093e+002,-1.707718e-002
5.033378e+002,-1.414107e-002
5.052663e+002,-1.283539e-002
5.071948e+002,-1.472004e-002
5.091233e+002,-1.708839e-002
5.110518e+002,-1.825398e-002
5.129803e+002,-1.914299e-002
5.149088e+002,-1.814255e-002
5.168373e+002,-1.562803e-002
5.187658e+002,-1.444229e-002
5.206943e+002,-1.619507e-002
5.226228e+002,-1.677313e-002
5.245513e+002,-1.567962e-002
5.264798e+002,-1.574110e-002
5.284083e+002,-1.628702e-002
5.303368e+002,-1.585002e-002
5.322653e+002,-1.564711e-002
5.341938e+002,-1.552120e-002
5.361223e+002,-1.600618e-002
5.380508e+002,-1.664078e-002
5.399792e+002,-1.754388e-002
5.419078e+002,-1.662751e-002
5.438363e+002,-1.508138e-002
5.457648e+002,-1.490100e-002
5.476932e+002,-1.512644e-002
5.496218e+002,-1.556644e-002
5.515503e+002,-1.492293e-002
5.534788e+002,-1.459946e-002
5.554072e+002,-1.510548e-002
5.573358e+002,-1.541284e-002
5.592643e+002,-1.500527e-002
5.611927e+002,-1.408282e-002
5.631212e+002,-1.426953e-002
5.650497e+002,-1.512004e-002
5.669783e+002,-1.568732e-002
5.689067e+002,-1.469912e-002
5.708352e+002,-1.457066e-002
5.727637e+002,-1.513479e-002
5.746923e+002,-1.594885e-002
5.766207e+002,-1.740925e-002
5.785492e+002,-1.713477e-002
5.804777e+002,-1.667898e-002
5.824063e+002,-1.720579e-002
5.843347e+002,-1.706131e-002
5.862632e+002,-1.638588e-002
5.881917e+002,-1.537440e-002
5.901202e+002,-1.479815e-002
5.920487e+002,-1.505501e-002
5.939772e+002,-1.625061e-002
5.959057e+002,-1.529284e-002
5.978342e+002,-1.315542e-002
5.997627e+002,-1.224752e-002
6.016912e+002,-1.099086e-002
6.036197e+002,-9.591631e-003
6.055482e+002,-8.223775e-003
6.074767e+002,-6.876091e-003
6.094052e+002,-6.287768e-003
6.113337e+002,-7.451762e-003
6.132622e+002,-8.741651e-003
6.151907e+002,-8.738923e-003
6.171192e+002,-9.481616e-003
6.190477e+002,-9.992588e-003
6.209762e+002,-9.723262e-003
6.229047e+002,-1.074536e-002
6.248332e+002,-1.368871e-002
6.267617e+002,-1.604370e-002
6.286902e+002,-1.633914e-002
6.306187e+002,-1.563724e-002
6.325472e+002,-1.551027e-002
6.344756e+002,-1.531398e-002
6.364042e+002,-1.501980e-002
6.383326e+002,-1.526616e-002
6.402612e+002,-1.587299e-002
6.421896e+002,-1.528839e-002
6.441182e+002,-1.527575e-002
6.460466e+002,-1.591647e-002
6.479752e+002,-1.572046e-002
6.499036e+002,-1.578683e-002
6.518322e+002,-1.589554e-002
6.537606e+002,-1.600273e-002
6.556891e+002,-1.627515e-002
6.576177e+002,-1.649317e-002
6.595461e+002,-1.690199e-002
6.614746e+002,-1.701903e-002
6.634031e+002,-1.681639e-002
6.653317e+002,-1.620509e-002
6.672601e+002,-1.632426e-002
6.691886e+002,-1.632832e-002
6.711171e+002,-1.593557e-002
6.730457e+002,-1.588056e-002
6.749741e+002,-1.591730e-002
6.769026e+002,-1.562423e-002
6.788311e+002,-1.546349e-002
6.807596e+002,-1.519945e-002
6.826881e+002,-1.490081e-002
6.846166e+002,-1.469486e-002
6.865451e+002,-1.444200e-002
6.884736e+002,-1.399252e-002
6.904021e+002,-1.402559e-002
6.923306e+002,-1.392196e-002
6.942591e+002,-1.392071e-002
6.961876e+002,-1.413199e-002
6.981161e+002,-1.426196e-002
7.000446e+002,-1.379962e-002
7.019731e+002,-1.318371e-002
7.039016e+002,-1.340017e-002
7.058301e+002,-1.409572e-002
7.077585e+002,-1.389930e-002
7.096871e+002,-1.339201e-002
7.116156e+002,-1.289291e-002
7.135441e+002,-1.325747e-002
7.154725e+002,-1.433080e-002
7.174011e+002,-1.474320e-002
7.193296e+002,-1.401366e-002
7.212581e+002,-1.392170e-002
7.231865e+002,-1.415669e-002
7.251151e+002,-1.410925e-002
7.270436e+002,-1.434112e-002
7.289720e+002,-1.429092e-002
7.309005e+002,-1.408369e-002
7.328290e+002,-1.395716e-002
7.347576e+002,-1.353155e-002
7.366860e+002,-1.275885e-002
7.386145e+002,-1.290014e-002
7.405430e+002,-1.383967e-002
7.424716e+002,-1.372717e-002
7.444000e+002,-1.307560e-002
7.463285e+002,-1.297968e-002
7.482570e+002,-1.331496e-002
7.501855e+002,-1.297321e-002
7.521140e+002,-1.187501e-002
7.540425e+002,-1.168766e-002
7.559710e+002,-1.203022e-002
7.578995e+002,-1.195961e-002
7.598280e+002,-1.209442e-002
7.617565e+002,-1.219582e-002
7.636850e+002,-1.218067e-002
7.656135e+002,-1.164418e-002
7.675420e+002,-1.118045e-002
7.694705e+002,-1.082526e-002
7.713990e+002,-1.115982e-002
7.733275e+002,-1.133601e-002
7.752560e+002,-1.120932e-002
7.771844e+002,-1.161731e-002
7.791130e+002,-1.179060e-002
7.810415e+002,-1.213360e-002
7.829700e+002,-1.219743e-002
7.848984e+002,-1.183000e-002
7.868270e+002,-1.196602e-002
7.887555e+002,-1.247717e-002
7.906840e+002,-1.287808e-002
7.926124e+002,-1.297415e-002
7.945410e+002,-1.303971e-002
7.964695e+002,-1.307560e-002
7.983979e+002,-1.303270e-002
8.003264e+002,-1.295405e-002
8.022549e+002,-1.315471e-002
8.041835e+002,-1.336939e-002
8.061119e+002,-1.356046e-002
8.080404e+002,-1.303675e-002
8.099689e+002,-1.287119e-002
8.118975e+002,-1.328874e-002
8.138259e+002,-1.289924e-002
8.157545e+002,-1.222201e-002
8.176830e+002,-1.246606e-002
8.196115e+002,-1.305621e-002
8.215399e+002,-1.308887e-002
8.234684e+002,-1.255559e-002
8.253970e+002,-1.287345e-002
8.273254e+002,-1.335095e-002
8.292539e+002,-1.349754e-002
8.311824e+002,-1.344338e-002
8.331110e+002,-1.305605e-002
8.350394e+002,-1.286987e-002
8.369679e+002,-1.281615e-002
8.388964e+002,-1.277060e-002
8.408250e+002,-1.284314e-002
8.427534e+002,-1.289924e-002
8.446819e+002,-1.278212e-002
8.466104e+002,-1.276503e-002
8.485389e+002,-1.286621e-002
8.504674e+002,-1.320775e-002
8.523959e+002,-1.345041e-002
8.543244e+002,-1.371866e-002
8.562529e+002,-1.379676e-002
8.581814e+002,-1.390617e-002
8.601099e+002,-1.376556e-002
8.620384e+002,-1.377590e-002
8.639669e+002,-1.432673e-002
8.658954e+002,-1.459777e-002
8.678239e+002,-1.443203e-002
8.697524e+002,-1.455890e-002
8.716809e+002,-1.481695e-002
8.736094e+002,-1.488890e-002
8.755378e+002,-1.477638e-002
8.774664e+002,-1.451965e-002
8.793949e+002,-1.402338e-002
8.813234e+002,-1.395911e-002
8.832518e+002,-1.425090e-002
8.851804e+002,-1.461097e-002
8.871089e+002,-1.451414e-002
8.890374e+002,-1.412478e-002
8.909658e+002,-1.427979e-002
8.928943e+002,-1.390187e-002
8.948229e+002,-1.356640e-002
8.967513e+002,-1.351087e-002
8.986798e+002,-1.358666e-002
9.006083e+002,-1.368177e-002
9.025369e+002,-1.361656e-002
9.044653e+002,-1.356116e-002
9.063938e+002,-1.365605e-002
9.083223e+002,-1.352137e-002
9.102509e+002,-1.363383e-002
9.121793e+002,-1.395851e-002
9.141078e+002,-1.414989e-002
9.160364e+002,-1.423881e-002
9.179648e+002,-1.404154e-002
9.198933e+002,-1.405581e-002
9.218218e+002,-1.426616e-002
9.237504e+002,-1.441539e-002
9.256788e+002,-1.456762e-002
9.276073e+002,-1.458944e-002
9.295358e+002,-1.446171e-002
9.314644e+002,-1.449090e-002
9.333928e+002,-1.435032e-002
9.353213e+002,-1.415624e-002
9.372498e+002,-1.417615e-002
9.391783e+002,-1.435138e-002
9.411068e+002,-1.428200e-002
9.430353e+002,-1.399405e-002
9.449637e+002,-1.402986e-002
9.468923e+002,-1.431778e-002
9.488208e+002,-1.425331e-002
9.507493e+002,-1.398247e-002
9.526777e+002,-1.391840e-002
9.546063e+002,-1.396242e-002
9.565348e+002,-1.390566e-002
9.584633e+002,-1.372482e-002
9.603917e+002,-1.382469e-002
9.623203e+002,-1.401658e-002
9.642488e+002,-1.405989e-002
9.661772e+002,-1.389340e-002
9.681057e+002,-1.360175e-002
9.700343e+002,-1.373885e-002
9.719628e+002,-1.398809e-002
9.738912e+002,-1.409071e-002
9.758197e+002,-1.424167e-002
9.777483e+002,-1.409286e-002
9.796768e+002,-1.400554e-002
9.816052e+002,-1.406579e-002
9.835337e+002,-1.420925e-002
9.854623e+002,-1.429242e-002
9.873907e+002,-1.442049e-002
9.893192e+002,-1.449776e-002
9.912477e+002,-1.451734e-002
9.931763e+002,-1.466994e-002
9.951047e+002,-1.457213e-002
9.970332e+002,-1.438270e-002
9.989617e+002,-1.439418e-002
1.000890e+003,-1.426517e-002
1.002819e+003,-1.417253e-002
1.004747e+003,-1.412022e-002
1.006676e+003,-1.384661e-002
1.008604e+003,-1.360140e-002
1.010533e+003,-1.358140e-002
1.012461e+003,-1.322446e-002
1.014390e+003,-1.276278e-002
1.016318e+003,-1.240846e-002
1.018247e+003,-1.218857e-002
1.020175e+003,-1.216608e-002
1.022104e+003,-1.189078e-002
1.024032e+003,-1.125892e-002
1.025961e+003,-1.076983e-002
1.027889e+003,-1.056618e-002
1.029818e+003,-1.033303e-002
1.031746e+003,-9.882060e-003
1.033675e+003,-9.422903e-003
1.035603e+003,-8.835100e-003
1.037532e+003,-8.324552e-003
1.039460e+003,-8.071264e-003
1.041389e+003,-7.744634e-003
1.043317e+003,-7.659446e-003
1.045246e+003,-7.637048e-003
1.047174e+003,-7.406161e-003
1.049103e+003,-7.370622e-003
1.051031e+003,-7.178672e-003
1.052960e+003,-6.867056e-003
1.054888e+003,-6.724476e-003
1.056817e+003,-6.799801e-003
1.058745e+003,-6.938052e-003
1.060674e+003,-7.034889e-003
1.062602e+003,-6.838681e-003
1.064531e+003,-6.669108e-003
1.066459e+003,-6.722519e-003
1.068388e+003,-6.742420e-003
1.070316e+003,-6.639023e-003
1.072245e+003,-6.432613e-003
1.074173e+003,-6.370906e-003
1.076102e+003,-6.696222e-003
1.078030e+003,-6.951160e-003
1.079959e+003,-7.098719e-003
1.081887e+003,-6.934073e-003
1.083816e+003,-6.649824e-003
1.085744e+003,-6.527083e-003
1.087673e+003,-6.393566e-003
1.089601e+003,-6.535504e-003
1.091530e+003,-6.469862e-003
1.093458e+003,-6.099847e-003
1.095387e+003,-6.172274e-003
1.097315e+003,-6.128238e-003
1.099244e+003,-6.224505e-003
1.101172e+003,-6.148655e-003
1.103101e+003,-5.893932e-003
1.105029e+003,-6.282542e-003
1.106958e+003,-6.386415e-003
1.108886e+003,-6.215816e-003
1.110815e+003,-6.045477e-003
1.112743e+003,-6.016329e-003
1.114672e+003,-6.183707e-003
1.116600e+003,-6.388701e-003
1.118529e+003,-6.387264e-003
1.120457e+003,-6.397320e-003
1.122386e+003,-6.318105e-003
1.124314e+003,-6.232866e-003
1.126243e+003,-6.481842e-003
1.128171e+003,-6.447206e-003
1.130100e+003,-6.362384e-003
1.132028e+003,-6.746171e-003
1.133957e+003,-7.104619e-003
1.135885e+003,-7.209240e-003
1.137814e+003,-7.264279e-003
1.139742e+003,-7.617937e-003
1.141671e+003,-8.060726e-003
1.143599e+003,-8.317498e-003
1.145528e+003,-8.430180e-003
1.147456e+003,-8.701251e-003
1.149385e+003,-9.038327e-003
1.151313e+003,-9.363370e-003
1.153242e+003,-9.589038e-003
1.155170e+003,-9.661599e-003
1.157099e+003,-9.755175e-003
1.159027e+003,-1.005773e-002
1.160956e+003,-1.021715e-002
1.162884e+003,-1.028081e-002
1.164813e+003,-1.033533e-002
1.166741e+003,-1.043364e-002
1.168670e+003,-1.036312e-002
1.170598e+003,-1.029051e-002
1.172526e+003,-1.039512e-002
1.174455e+003,-1.045936e-002
1.176384e+003,-1.040168e-002
1.178312e+003,-1.035639e-002
1.180240e+003,-1.034766e-002
1.182169e+003,-1.046512e-002
1.184098e+003,-1.054031e-002
1.186026e+003,-1.052136e-002
1.187954e+003,-1.078825e-002
1.189883e+003,-1.117771e-002
1.191812e+003,-1.120412e-002
1.193740e+003,-1.117551e-002
1.195668e+003,-1.131977e-002
1.197597e+003,-1.140596e-002
1.199526e+003,-1.145833e-002
1.201454e+003,-1.155081e-002
1.203382e+003,-1.155359e-002
1.205311e+003,-1.157401e-002
1.207240e+003,-1.168963e-002
1.209168e+003,-1.155298e-002
1.211096e+003,-1.138017e-002
1.213025e+003,-1.133837e-002
1.214953e+003,-1.126105e-002
1.216882e+003,-1.128965e-002
1.218810e+003,-1.133262e-002
1.220739e+003,-1.131361e-002
1.222667e+003,-1.128168e-002
1.224596e+003,-1.115720e-002
1.226524e+003,-1.106919e-002
1.228453e+003,-1.098472e-002
1.230381e+003,-1.080306e-002
1.232310e+003,-1.070172e-002
1.234238e+003,-1.061944e-002
1.236167e+003,-1.054659e-002
1.238095e+003,-1.064909e-002
1.240024e+003,-1.068633e-002
1.241952e+003,-1.056386e-002
1.243881e+003,-1.066354e-002
1.245809e+003,-1.069768e-002
1.247738e+003,-1.073987e-002
1.249666e+003,-1.093151e-002
1.251595e+003,-1.088941e-002
1.253523e+003,-1.086359e-002
1.255452e+003,-1.091726e-002
1.257380e+003,-1.086747e-002
1.259309e+003,-1.089506e-002
1.261237e+003,-1.093513e-002
1.263166e+003,-1.080800e-002
1.265094e+003,-1.064466e-002
1.267023e+003,-1.039214e-002
1.268951e+003,-1.013018e-002
1.270880e+003,-9.916779e-003
1.272808e+003,-9.683277e-003
1.274737e+003,-9.383767e-003
1.276665e+003,-9.142063e-003
1.278594e+003,-9.002077e-003
1.280522e+003,-8.747496e-003
1.282451e+003,-8.473399e-003
1.284379e+003,-8.406229e-003
1.286308e+003,-8.106682e-003
1.288236e+003,-7.914211e-003
1.290165e+003,-7.704207e-003
1.292093e+003,-7.531064e-003
1.294022e+003,-7.527124e-003
1.295950e+003,-7.367397e-003
1.297879e+003,-7.307256e-003
1.299807e+003,-7.270992e-003
1.301736e+003,-7.397692e-003
1.303664e+003,-7.573461e-003
1.305593e+003,-7.586908e-003
1.307521e+003,-7.603937e-003
1.309450e+003,-7.930217e-003
1.311378e+003,-8.283984e-003
1.313307e+003,-8.441554e-003
1.315235e+003,-8.597118e-003
1.317164e+003,-8.741358e-003
1.319092e+003,-9.038782e-003
1.321021e+003,-9.550501e-003
1.322949e+003,-9.800011e-003
1.324878e+003,-9.908034e-003
1.326806e+003,-1.004715e-002
1.328735e+003,-1.006427e-002
1.330663e+003,-1.012678e-002
1.332592e+003,-1.030899e-002
1.334520e+003,-1.031883e-002
1.336449e+003,-1.029362e-002
1.338377e+003,-1.034406e-002
1.340306e+003,-1.042620e-002
1.342234e+003,-1.054355e-002
1.344163e+003,-1.060757e-002
1.346091e+003,-1.058261e-002
1.348020e+003,-1.057640e-002
1.349948e+003,-1.061081e-002
1.351877e+003,-1.061478e-002
1.353805e+003,-1.060751e-002
1.355734e+003,-1.073557e-002
1.357662e+003,-1.093574e-002
1.359591e+003,-1.099500e-002
1.361519e+003,-1.103350e-002
1.363448e+003,-1.108289e-002
1.365376e+003,-1.124026e-002
1.367305e+003,-1.136254e-002
1.369233e+003,-1.138875e-002
1.371162e+003,-1.158737e-002
1.373090e+003,-1.167324e-002
1.375019e+003,-1.157501e-002
1.376947e+003,-1.144336e-002
1.378876e+003,-1.135412e-002
1.380804e+003,-1.129924e-002
1.382733e+003,-1.133172e-002
1.384661e+003,-1.146676e-002
1.386590e+003,-1.163737e-002
1.388518e+003,-1.172017e-002
1.390447e+003,-1.181972e-002
1.392375e+003,-1.201778e-002
1.394304e+003,-1.212906e-002
1.396232e+003,-1.221479e-002
1.398161e+003,-1.227877e-002
1.400089e+003,-1.220774e-002
1.402018e+003,-1.217111e-002
1.403946e+003,-1.222214e-002
1.405875e+003,-1.225954e-002
1.407803e+003,-1.230399e-002
1.409732e+003,-1.242842e-002
1.411660e+003,-1.257197e-002
1.413589e+003,-1.260786e-002
1.415517e+003,-1.255453e-002
1.417446e+003,-1.246474e-002
1.419374e+003,-1.208420e-002
1.421303e+003,-1.151561e-002
1.423231e+003,-1.113521e-002
1.425160e+003,-1.058740e-002
1.427088e+003,-1.016385e-002
1.429017e+003,-9.823562e-003
1.430945e+003,-9.462035e-003
1.432874e+003,-9.253363e-003
1.434802e+003,-9.056792e-003
1.436731e+003,-8.637722e-003
1.438659e+003,-8.099266e-003
1.440588e+003,-7.771681e-003
1.442516e+003,-7.422383e-003
1.444445e+003,-7.028695e-003
1.446373e+003,-6.550713e-003
1.448302e+003,-6.107818e-003
1.450230e+003,-5.777876e-003
1.452159e+003,-5.334454e-003
1.454087e+003,-4.998191e-003
1.456016e+003,-4.975262e-003
1.457944e+003,-4.396755e-003
1.459873e+003,-3.897708e-003
1.461801e+003,-3.921941e-003
1.463730e+003,-4.135652e-003
1.465658e+003,-4.080215e-003
1.467587e+003,-4.230262e-003
1.469515e+003,-4.590136e-003
1.471444e+003,-4.849229e-003
1.473372e+003,-4.954166e-003
1.475301e+003,-5.174311e-003
1.477229e+003,-5.581328e-003
1.479158e+003,-6.020839e-003
1.481086e+003,-6.511187e-003
1.483015e+003,-7.007079e-003
1.484943e+003,-7.510255e-003
1.486872e+003,-7.926249e-003
1.488800e+003,-8.343404e-003
1.490729e+003,-8.687058e-003
1.492657e+003,-8.966473e-003
1.494586e+003,-9.278597e-003
1.496514e+003,-9.534163e-003
1.498443e+003,-9.711824e-003
1.500371e+003,-9.962020e-003
1.502300e+003,-1.030818e-002
1.504228e+003,-1.074514e-002
1.506157e+003,-1.093290e-002
1.508085e+003,-1.077801e-002
1.510014e+003,-1.094582e-002
1.511942e+003,-1.109549e-002
1.513871e+003,-1.114461e-002
1.515799e+003,-1.136183e-002
1.517728e+003,-1.139618e-002
1.519656e+003,-1.161456e-002
1.521585e+003,-1.169604e-002
1.523513e+003,-1.136955e-002
1.525442e+003,-1.121317e-002
1.527370e+003,-1.115116e-002
1.529299e+003,-1.114106e-002
1.531227e+003,-1.119847e-002
1.533156e+003,-1.111461e-002
1.535084e+003,-1.072487e-002
1.537013e+003,-1.080170e-002
1.538941e+003,-1.092382e-002
1.540870e+003,-1.061197e-002
1.542798e+003,-1.029087e-002
1.544727e+003,-1.009163e-002
1.546655e+003,-9.944468e-003
1.548584e+003,-9.857832e-003
1.550512e+003,-9.672034e-003
1.552441e+003,-9.672390e-003
1.554369e+003,-9.708584e-003
1.556298e+003,-9.783263e-003
1.558226e+003,-9.740077e-003
1.560155e+003,-8.963876e-003
1.562083e+003,-8.404344e-003
1.564012e+003,-8.139559e-003
1.565940e+003,-7.751599e-003
1.567869e+003,-7.582577e-003
1.569797e+003,-7.420493e-003
1.571726e+003,-7.219832e-003
1.573654e+003,-7.297807e-003
1.575583e+003,-7.219017e-003
1.577511e+003,-6.968931e-003
1.579440e+003,-6.993908e-003
1.581368e+003,-6.900256e-003
1.583297e+003,-6.863469e-003
1.585225e+003,-7.003624e-003
1.587154e+003,-7.094285e-003
1.589082e+003,-7.283830e-003
1.591010e+003,-7.611914e-003
1.592939e+003,-7.842268e-003
1.594868e+003,-8.046220e-003
1.596796e+003,-8.389687e-003
1.598724e+003,-8.732655e-003
1.600653e+003,-9.118118e-003
1.602582e+003,-9.508880e-003
1.604510e+003,-9.858221e-003
1.606438e+003,-1.012047e-002
1.608367e+003,-1.045975e-002
1.610296e+003,-1.069167e-002
1.612224e+003,-1.090049e-002
1.614152e+003,-1.121246e-002
1.616081e+003,-1.162879e-002
1.618010e+003,-1.168092e-002
1.619938e+003,-1.182343e-002
1.621866e+003,-1.208878e-002
1.623795e+003,-1.222755e-002
1.625724e+003,-1.221521e-002
1.627652e+003,-1.234650e-002
1.629580e+003,-1.250115e-002
1.631509e+003,-1.268423e-002
1.633438e+003,-1.300405e-002
1.635366e+003,-1.324638e-002
1.637294e+003,-1.327283e-002
1.639223e+003,-1.352176e-002
1.641151e+003,-1.380706e-002
1.643080e+003,-1.432529e-002
1.645008e+003,-1.488387e-002
1.646937e+003,-1.499381e-002
1.648865e+003,-1.514458e-002
1.650794e+003,-1.569895e-002
1.652722e+003,-1.586510e-002
1.654651e+003,-1.563532e-002
1.656579e+003,-1.573244e-002
1.658508e+003,-1.610721e-002
1.660436e+003,-1.637976e-002
1.662365e+003,-1.642647e-002
1.664293e+003,-1.642353e-002
1.666222e+003,-1.646791e-002
1.668150e+003,-1.662149e-002
1.670079e+003,-1.677628e-002
1.672007e+003,-1.672553e-002
1.673936e+003,-1.677533e-002
1.675864e+003,-1.664974e-002
1.677793e+003,-1.663635e-002
1.679721e+003,-1.675123e-002
1.681650e+003,-1.698026e-002
1.683578e+003,-1.708122e-002
1.685507e+003,-1.676567e-002
1.687435e+003,-1.679898e-002
1.689364e+003,-1.684475e-002
1.691292e+003,-1.675139e-002
1.693221e+003,-1.682697e-002
1.695149e+003,-1.684644e-002
1.697078e+003,-1.649879e-002
1.699006e+003,-1.663306e-002
1.700935e+003,-1.642130e-002
1.702863e+003,-1.621432e-002
1.704792e+003,-1.620219e-002
1.706720e+003,-1.593608e-002
1.708649e+003,-1.579756e-002
1.710577e+003,-1.583779e-002
1.712506e+003,-1.593106e-002
1.714434e+003,-1.595553e-002
1.716363e+003,-1.598811e-002
1.718291e+003,-1.576583e-002
1.720220e+003,-1.566613e-002
1.722148e+003,-1.579130e-002
1.724077e+003,-1.577619e-002
1.726005e+003,-1.571359e-002
1.727934e+003,-1.572123e-002
1.729862e+003,-1.572525e-002
1.731791e+003,-1.589411e-002
1.733719e+003,-1.598038e-002
1.735648e+003,-1.571656e-002
1.737576e+003,-1.584667e-002
1.739505e+003,-1.591621e-002
1.741433e+003,-1.578878e-002
1.743362e+003,-1.574005e-002
1.745290e+003,-1.566453e-002
1.747219e+003,-1.556714e-002
1.749147e+003,-1.557759e-002
1.751076e+003,-1.546026e-002
1.753004e+003,-1.533474e-002
1.754933e+003,-1.533838e-002
1.756861e+003,-1.520681e-002
1.758790e+003,-1.521526e-002
1.760718e+003,-1.530809e-002
1.762647e+003,-1.519536e-002
1.764575e+003,-1.513652e-002
1.766504e+003,-1.518496e-002
1.768432e+003,-1.518531e-002
1.770361e+003,-1.529773e-002
1.772289e+003,-1.530777e-002
1.774218e+003,-1.523321e-002
1.776146e+003,-1.523030e-002
1.778075e+003,-1.522956e-002
1.780003e+003,-1.526916e-002
1.781932e+003,-1.524629e-002
1.783860e+003,-1.520726e-002
1.785789e+003,-1.504608e-002
1.787717e+003,-1.498424e-002
1.789646e+003,-1.514048e-002
1.791574e+003,-1.524802e-002
1.793503e+003,-1.521052e-002
1.795431e+003,-1.523292e-002
1.797360e+003,-1.532604e-002
1.799288e+003,-1.527220e-002
1.801217e+003,-1.523225e-002
1.803145e+003,-1.509386e-002
1.805074e+003,-1.506432e-002
1.807002e+003,-1.517747e-002
1.808931e+003,-1.530579e-002
1.810859e+003,-1.517341e-002
1.812788e+003,-1.501145e-002
1.814716e+003,-1.507914e-002
1.816645e+003,-1.516557e-002
1.818573e+003,-1.524405e-002
1.820502e+003,-1.526510e-002
1.822430e+003,-1.524575e-002
1.824359e+003,-1.525131e-002
1.826287e+003,-1.521372e-002
1.828216e+003,-1.528813e-002
1.830144e+003,-1.528046e-002
1.832073e+003,-1.525355e-002
1.834001e+003,-1.527774e-002
1.835930e+003,-1.530704e-002
1.837858e+003,-1.537139e-002
1.839787e+003,-1.540315e-002
1.841715e+003,-1.539435e-002
1.843644e+003,-1.539525e-002
1.845572e+003,-1.535997e-002
1.847501e+003,-1.537951e-002
1.849429e+003,-1.539640e-002
1.851358e+003,-1.539586e-002
1.853286e+003,-1.537571e-002
1.855215e+003,-1.531052e-002
1.857143e+003,-1.531315e-002
1.859072e+003,-1.538204e-002
1.861000e+003,-1.528849e-002
1.862929e+003,-1.520387e-002
1.864857e+003,-1.524220e-002
1.866786e+003,-1.539710e-002
1.868714e+003,-1.543055e-002
1.870643e+003,-1.536567e-002
1.872571e+003,-1.528849e-002
1.874500e+003,-1.518262e-002
1.876428e+003,-1.522812e-002
1.878357e+003,-1.529699e-002
1.880285e+003,-1.529383e-002
1.882214e+003,-1.533247e-002
1.884142e+003,-1.539208e-002
1.886071e+003,-1.536675e-002
1.887999e+003,-1.540404e-002
1.889928e+003,-1.545636e-002
1.891856e+003,-1.544955e-002
1.893785e+003,-1.539944e-002
1.895713e+003,-1.531795e-002
1.897642e+003,-1.525179e-002
1.899570e+003,-1.533647e-002
1.901499e+003,-1.537139e-002
1.903427e+003,-1.527272e-002
1.905356e+003,-1.538994e-002
1.907284e+003,-1.546045e-002
1.909213e+003,-1.538831e-002
1.911141e+003,-1.536231e-002
1.913070e+003,-1.538086e-002
1.914998e+003,-1.543736e-002
1.916927e+003,-1.547673e-002
1.918855e+003,-1.537459e-002
1.920784e+003,-1.537865e-002
1.922712e+003,-1.545470e-002
1.924641e+003,-1.545396e-002
1.926569e+003,-1.550080e-002
1.928498e+003,-1.549597e-002
1.930426e+003,-1.550221e-002
1.932355e+003,-1.546589e-002
1.934283e+003,-1.541578e-002
1.936212e+003,-1.545645e-002
1.938140e+003,-1.547238e-002
1.940069e+003,-1.550096e-002
1.941997e+003,-1.550365e-002
1.943926e+003,-1.546790e-002
1.945854e+003,-1.549962e-002
1.947783e+003,-1.558089e-002
1.949711e+003,-1.560400e-002
1.951640e+003,-1.557331e-002
1.953568e+003,-1.556222e-002
1.955497e+003,-1.560176e-002
1.957425e+003,-1.559712e-002
1.959354e+003,-1.557315e-002
1.961282e+003,-1.552529e-002
1.963211e+003,-1.557980e-002
1.965139e+003,-1.559447e-002
1.967068e+003,-1.558488e-002
1.968996e+003,-1.563414e-002
1.970925e+003,-1.565536e-002
1.972853e+003,-1.559898e-002
1.974782e+003,-1.551001e-002
1.976710e+003,-1.555736e-002
1.978639e+003,-1.565105e-002
1.980567e+003,-1.565900e-002
1.982496e+003,-1.564107e-002
1.984424e+003,-1.568706e-002
1.986353e+003,-1.569426e-002
1.988281e+003,-1.566210e-002
1.990210e+003,-1.562989e-002
1.992138e+003,-1.551803e-002
1.994067e+003,-1.549690e-002
1.995995e+003,-1.555720e-002
1.997924e+003,-1.552795e-002
1.999852e+003,-1.545738e-002
2.001781e+003,-1.550726e-002
2.003709e+003,-1.556180e-002
2.005638e+003,-1.554147e-002
2.007566e+003,-1.554821e-002
2.009495e+003,-1.556586e-002
2.011423e+003,-1.561176e-002
2.013352e+003,-1.550521e-002
2.015280e+003,-1.547928e-002
2.017208e+003,-1.558897e-002
2.019137e+003,-1.564775e-002
2.021066e+003,-1.560272e-002
2.022994e+003,-1.548753e-002
2.024922e+003,-1.553667e-002
2.026851e+003,-1.557456e-002
2.028780e+003,-1.550461e-002
2.030708e+003,-1.547772e-002
2.032636e+003,-1.544360e-002
2.034565e+003,-1.541987e-002
2.036494e+003,-1.548267e-002
2.038422e+003,-1.546058e-002
2.040350e+003,-1.539288e-002
2.042279e+003,-1.542806e-002
2.044208e+003,-1.543890e-002
2.046136e+003,-1.542304e-002
2.048064e+003,-1.540932e-002
2.049993e+003,-1.539125e-002
2.051921e+003,-1.539279e-002
2.053850e+003,-1.541527e-002
2.055778e+003,-1.548437e-002
2.057707e+003,-1.545454e-002
2.059635e+003,-1.530259e-002
2.061564e+003,-1.528714e-002
2.063492e+003,-1.531817e-002
2.065421e+003,-1.534788e-002
2.067349e+003,-1.538124e-002
2.069278e+003,-1.537181e-002
2.071206e+003,-1.536695e-002
2.073135e+003,-1.538396e-002
2.075063e+003,-1.535553e-002
2.076992e+003,-1.537082e-002
2.078920e+003,-1.534782e-002
2.080849e+003,-1.528570e-002
2.082777e+003,-1.530685e-002
2.084706e+003,-1.533602e-002
2.086634e+003,-1.533672e-002
2.088563e+003,-1.531158e-002
2.090491e+003,-1.521855e-002
2.092420e+003,-1.525922e-002
2.094348e+003,-1.536292e-002
2.096277e+003,-1.529175e-002
2.098205e+003,-1.520307e-002
2.100134e+003,-1.526021e-002
2.102062e+003,-1.521158e-002
2.103991e+003,-1.511648e-002
2.105919e+003,-1.511776e-002
2.107848e+003,-1.516759e-002
2.109776e+003,-1.515466e-002
2.111705e+003,-1.513591e-002
2.113633e+003,-1.513597e-002
2.115562e+003,-1.508631e-002
2.117490e+003,-1.496775e-002
2.119419e+003,-1.497329e-002
2.121347e+003,-1.499560e-002
2.123276e+003,-1.494182e-002
2.125204e+003,-1.500840e-002
2.127133e+003,-1.507162e-002
2.129061e+003,-1.493523e-002
2.130990e+003,-1.485535e-002
2.132918e+003,-1.481321e-002
2.134847e+003,-1.482861e-002
2.136775e+003,-1.491327e-002
2.138704e+003,-1.490552e-002
2.140632e+003,-1.479024e-002
2.142561e+003,-1.486405e-002
2.144489e+003,-1.493408e-002
2.146418e+003,-1.480325e-002
2.148346e+003,-1.469602e-002
2.150275e+003,-1.470108e-002
2.152203e+003,-1.472760e-002
2.154132e+003,-1.474605e-002
2.156060e+003,-1.472600e-002
2.157989e+003,-1.479454e-002
2.159917e+003,-1.484513e-002
2.161846e+003,-1.478012e-002
2.163774e+003,-1.474576e-002
2.165703e+003,-1.474307e-002
2.167631e+003,-1.470697e-002
2.169560e+003,-1.464492e-002
2.171488e+003,-1.458120e-002
2.173417e+003,-1.458870e-002
2.175345e+003,-1.463381e-002
2.177274e+003,-1.471203e-002
2.179202e+003,-1.470117e-002
2.181131e+003,-1.460292e-002
2.183059e+003,-1.462679e-002
2.184988e+003,-1.466293e-002
2.186916e+003,-1.465658e-002
2.188845e+003,-1.466552e-002
2.190773e+003,-1.462698e-002
2.192702e+003,-1.455682e-002
2.194630e+003,-1.464041e-002
2.196559e+003,-1.474602e-002
2.198487e+003,-1.476597e-002
2.200416e+003,-1.477452e-002
2.202344e+003,-1.473340e-002
2.204273e+003,-1.470313e-002
2.206201e+003,-1.469192e-002
2.208130e+003,-1.479771e-002
2.210058e+003,-1.484279e-002
2.211987e+003,-1.486008e-002
2.213915e+003,-1.485009e-002
2.215844e+003,-1.483568e-002
2.217772e+003,-1.483258e-002
2.219701e+003,-1.478643e-002
2.221629e+003,-1.486105e-002
2.223558e+003,-1.492703e-002
2.225486e+003,-1.497406e-002
2.227415e+003,-1.494458e-002
2.229343e+003,-1.491282e-002
2.231272e+003,-1.489326e-002
2.233200e+003,-1.498171e-002
2.235129e+003,-1.498465e-002
2.237057e+003,-1.491912e-002
2.238986e+003,-1.495610e-002
2.240914e+003,-1.508372e-002
2.242843e+003,-1.512471e-002
2.244771e+003,-1.513543e-002
2.246700e+003,-1.518346e-002
2.248628e+003,-1.519827e-002
2.250557e+003,-1.516228e-002
2.252485e+003,-1.516912e-002
2.254414e+003,-1.522882e-002
2.256342e+003,-1.520921e-002
2.258271e+003,-1.519648e-002
2.260199e+003,-1.518032e-002
2.262128e+003,-1.523785e-002
2.264056e+003,-1.519446e-002
2.265985e+003,-1.513738e-002
2.267913e+003,-1.519587e-002
2.269842e+003,-1.525051e-002
2.271770e+003,-1.525317e-002
2.273699e+003,-1.527348e-002
2.275627e+003,-1.529783e-002
2.277556e+003,-1.530384e-002
2.279484e+003,-1.535175e-002
2.281413e+003,-1.541412e-002
2.283341e+003,-1.546429e-002
2.285270e+003,-1.542822e-002
2.287198e+003,-1.538454e-002
2.289127e+003,-1.542211e-002
2.291055e+003,-1.542787e-002
2.292984e+003,-1.546825e-002
2.294912e+003,-1.552967e-002
2.296841e+003,-1.547545e-002
2.298769e+003,-1.548846e-002
2.300698e+003,-1.551500e-002
2.302626e+003,-1.550985e-002
2.304555e+003,-1.548331e-002
2.306483e+003,-1.546988e-002
2.308412e+003,-1.542726e-002
2.310340e+003,-1.537500e-002
2.312269e+003,-1.545147e-002
2.314197e+003,-1.553463e-002
2.316125e+003,-1.546109e-002
2.318054e+003,-1.547663e-002
2.319983e+003,-1.554892e-002
2.321911e+003,-1.557599e-002
2.323840e+003,-1.556401e-002
2.325768e+003,-1.550310e-002
2.327697e+003,-1.546470e-002
2.329625e+003,-1.558613e-002
2.331553e+003,-1.570525e-002
2.333482e+003,-1.567962e-002
2.335411e+003,-1.561007e-002
2.337339e+003,-1.567697e-002
2.339268e+003,-1.568882e-002
2.341196e+003,-1.562688e-002
2.343125e+003,-1.563567e-002
2.345053e+003,-1.558523e-002
2.346981e+003,-1.549236e-002
2.348910e+003,-1.557484e-002
2.350839e+003,-1.564600e-002
2.352767e+003,-1.572746e-002
2.354696e+003,-1.586414e-002
2.356624e+003,-1.584951e-002
2.358552e+003,-1.580405e-002
2.360481e+003,-1.589810e-002
2.362409e+003,-1.601215e-002
2.364338e+003,-1.602509e-002
2.366267e+003,-1.579120e-002
2.368195e+003,-1.570924e-002
2.370124e+003,-1.570733e-002
2.372052e+003,-1.568476e-002
2.373980e+003,-1.565514e-002
2.375909e+003,-1.558188e-002
2.377838e+003,-1.538281e-002
2.379766e+003,-1.528410e-002
2.381695e+003,-1.524620e-002
2.383623e+003,-1.526955e-002
2.385552e+003,-1.522291e-002
2.387480e+003,-1.512964e-002
2.389408e+003,-1.500277e-002
2.391337e+003,-1.491634e-002
2.393266e+003,-1.498369e-002
2.395194e+003,-1.499224e-002
2.397123e+003,-1.490238e-002
2.399051e+003,-1.495885e-002
2.400979e+003,-1.498065e-002
2.402908e+003,-1.496481e-002
2.404836e+003,-1.497249e-002
2.406765e+003,-1.496503e-002
2.408694e+003,-1.497454e-002
2.410622e+003,-1.493488e-002
2.412551e+003,-1.485294e-002
2.414479e+003,-1.486735e-002
2.416407e+003,-1.493644e-002
2.418336e+003,-1.494755e-002
2.420264e+003,-1.487219e-002
2.422193e+003,-1.482416e-002
2.424122e+003,-1.481036e-002
2.426050e+003,-1.480197e-002
2.427979e+003,-1.476917e-002
2.429907e+003,-1.465457e-002
2.431835e+003,-1.451734e-002
2.433764e+003,-1.452827e-002
2.435692e+003,-1.459706e-002
2.437621e+003,-1.458453e-002
2.439550e+003,-1.447728e-002
2.441478e+003,-1.448110e-002
2.443406e+003,-1.454163e-002
2.445335e+003,-1.453307e-002
2.447263e+003,-1.459386e-002
2.449192e+003,-1.462724e-002
2.451121e+003,-1.453022e-002
2.453049e+003,-1.447103e-002
2.454978e+003,-1.439286e-002
2.456906e+003,-1.437228e-002
2.458834e+003,-1.445421e-002
2.460763e+003,-1.447094e-002
2.462691e+003,-1.441786e-002
2.464620e+003,-1.432525e-002
2.466549e+003,-1.428768e-002
2.468477e+003,-1.440504e-002
2.470406e+003,-1.437023e-002
2.472334e+003,-1.436946e-002
2.474262e+003,-1.438504e-002
2.476191e+003,-1.433224e-002
2.478119e+003,-1.433532e-002
2.480048e+003,-1.430794e-002
2.481977e+003,-1.424629e-002
2.483905e+003,-1.420976e-002
2.485833e+003,-1.421076e-002
2.487762e+003,-1.418635e-002
2.489690e+003,-1.411490e-002
2.491619e+003,-1.415435e-002
2.493547e+003,-1.409199e-002
2.495476e+003,-1.403987e-002
2.497405e+003,-1.412564e-002
2.499333e+003,-1.410848e-002
2.501261e+003,-1.391403e-002
2.503190e+003,-1.387247e-002
2.505118e+003,-1.401472e-002
2.507047e+003,-1.409046e-002
2.508975e+003,-1.403932e-002
2.510904e+003,-1.397256e-002
2.512833e+003,-1.391573e-002
2.514761e+003,-1.392144e-002
2.516689e+003,-1.396813e-002
2.518618e+003,-1.403040e-002
2.520546e+003,-1.401074e-002
2.522475e+003,-1.397667e-002
2.524403e+003,-1.398141e-002
2.526332e+003,-1.397275e-002
2.528260e+003,-1.390466e-002
2.530189e+003,-1.382886e-002
2.532117e+003,-1.378437e-002
2.534046e+003,-1.386394e-002
2.535974e+003,-1.384295e-002
2.537903e+003,-1.383762e-002
2.539831e+003,-1.385357e-002
2.541760e+003,-1.380488e-002
2.543688e+003,-1.384529e-002
2.545617e+003,-1.391458e-002
2.547545e+003,-1.383621e-002
2.549474e+003,-1.374794e-002
2.551402e+003,-1.380472e-002
2.553331e+003,-1.382427e-002
2.555259e+003,-1.384112e-002
2.557188e+003,-1.376967e-002
2.559116e+003,-1.370180e-002
2.561045e+003,-1.373670e-002
2.562973e+003,-1.376762e-002
2.564902e+003,-1.386323e-002
2.566830e+003,-1.390405e-002
2.568759e+003,-1.380697e-002
2.570687e+003,-1.380828e-002
2.572616e+003,-1.380110e-002
2.574544e+003,-1.374123e-002
2.576473e+003,-1.382347e-002
2.578401e+003,-1.383932e-002
2.580330e+003,-1.381881e-002
2.582258e+003,-1.378973e-002
2.584187e+003,-1.378161e-002
2.586115e+003,-1.379885e-002
2.588044e+003,-1.378447e-002
2.589972e+003,-1.370370e-002
2.591901e+003,-1.367204e-002
2.593829e+003,-1.368071e-002
2.595758e+003,-1.366373e-002
2.597686e+003,-1.365426e-002
2.599615e+003,-1.358024e-002
2.601543e+003,-1.357822e-002
2.603472e+003,-1.375487e-002
2.605400e+003,-1.384584e-002
2.607329e+003,-1.383127e-002
2.609257e+003,-1.370315e-002
2.611186e+003,-1.367346e-002
2.613114e+003,-1.370010e-002
2.615043e+003,-1.367429e-002
2.616971e+003,-1.355378e-002
2.618900e+003,-1.349452e-002
2.620828e+003,-1.355609e-002
2.622757e+003,-1.351556e-002
2.624685e+003,-1.334745e-002
2.626614e+003,-1.339294e-002
2.628542e+003,-1.359630e-002
2.630471e+003,-1.366434e-002
2.632399e+003,-1.355529e-002
2.634328e+003,-1.355124e-002
2.636256e+003,-1.355249e-002
2.638185e+003,-1.349137e-002
2.640113e+003,-1.344874e-002
2.642042e+003,-1.339930e-002
2.643970e+003,-1.332023e-002
2.645899e+003,-1.324478e-002
2.647827e+003,-1.319052e-002
2.649756e+003,-1.318024e-002
2.651684e+003,-1.328369e-002
2.653613e+003,-1.322700e-002
2.655541e+003,-1.309508e-002
2.657470e+003,-1.302962e-002
2.659398e+003,-1.301528e-002
2.661327e+003,-1.301746e-002
2.663255e+003,-1.294533e-002
2.665184e+003,-1.296842e-002
2.667112e+003,-1.294170e-002
2.669041e+003,-1.288998e-002
2.670969e+003,-1.293636e-002
2.672898e+003,-1.294295e-002
2.674826e+003,-1.296035e-002
2.676755e+003,-1.292668e-002
2.678683e+003,-1.285431e-002
2.680612e+003,-1.277977e-002
2.682540e+003,-1.270370e-002
2.684469e+003,-1.272706e-002
2.686397e+003,-1.263989e-002
2.688326e+003,-1.261263e-002
2.690254e+003,-1.261395e-002
2.692183e+003,-1.254558e-002
2.694111e+003,-1.253727e-002
2.696040e+003,-1.251632e-002
2.697968e+003,-1.238167e-002
2.699897e+003,-1.239075e-002
2.701825e+003,-1.242836e-002
2.703754e+003,-1.236740e-002
2.705682e+003,-1.224672e-002
2.707611e+003,-1.214643e-002
2.709539e+003,-1.209619e-002
2.711468e+003,-1.209107e-002
2.713396e+003,-1.204776e-002
2.715325e+003,-1.203744e-002
2.717253e+003,-1.210244e-002
2.719182e+003,-1.209925e-002
2.721110e+003,-1.193253e-002
2.723039e+003,-1.179889e-002
2.724967e+003,-1.173039e-002
2.726896e+003,-1.161005e-002
2.728824e+003,-1.161669e-002
2.730753e+003,-1.165924e-002
2.732681e+003,-1.154678e-002
2.734610e+003,-1.143833e-002
2.736538e+003,-1.136267e-002
2.738467e+003,-1.133327e-002
2.740395e+003,-1.115982e-002
2.742324e+003,-1.101218e-002
2.744252e+003,-1.095471e-002
2.746181e+003,-1.096049e-002
2.748109e+003,-1.094014e-002
2.750038e+003,-1.084510e-002
2.751966e+003,-1.081133e-002
2.753895e+003,-1.075558e-002
2.755823e+003,-1.069926e-002
2.757752e+003,-1.059286e-002
2.759680e+003,-1.044121e-002
2.761609e+003,-1.021858e-002
2.763537e+003,-9.883485e-003
2.765466e+003,-9.687328e-003
2.767394e+003,-9.500484e-003
2.769323e+003,-9.258131e-003
2.771251e+003,-8.933041e-003
2.773180e+003,-8.452993e-003
2.775108e+003,-7.992322e-003
2.777037e+003,-7.534939e-003
2.778965e+003,-6.986147e-003
2.780894e+003,-6.379885e-003
2.782822e+003,-5.828226e-003
2.784750e+003,-5.310822e-003
2.786679e+003,-4.589382e-003
2.788608e+003,-3.817149e-003
2.790536e+003,-3.104932e-003
2.792465e+003,-2.363568e-003
2.794393e+003,-1.630345e-003
2.796322e+003,-1.022835e-003
2.798250e+003,-3.545551e-004
2.800178e+003,3.901628e-004
2.802107e+003,1.098024e-003
2.804036e+003,1.608651e-003
2.805964e+003,2.026893e-003
2.807893e+003,2.275933e-003
2.809821e+003,2.323033e-003
2.811750e+003,2.458467e-003
2.813678e+003,2.599109e-003
2.815606e+003,2.428111e-003
2.817535e+003,2.129935e-003
2.819464e+003,1.883774e-003
2.821392e+003,1.629271e-003
2.823321e+003,1.245803e-003
2.825249e+003,7.232885e-004
2.827177e+003,3.081233e-004
2.829106e+003,-1.428505e-004
2.831034e+003,-7.923731e-004
2.832963e+003,-1.338010e-003
2.834892e+003,-1.934787e-003
2.836820e+003,-2.686004e-003
2.838749e+003,-3.297014e-003
2.840677e+003,-3.882076e-003
2.842605e+003,-4.570168e-003
2.844534e+003,-5.368524e-003
2.846462e+003,-6.124350e-003
2.848391e+003,-6.810598e-003
2.850320e+003,-7.279659e-003
2.852248e+003,-7.488370e-003
2.854177e+003,-7.673184e-003
2.856105e+003,-7.891825e-003
2.858033e+003,-7.998372e-003
2.859962e+003,-7.916293e-003
2.861890e+003,-7.888181e-003
2.863819e+003,-7.852779e-003
2.865748e+003,-7.833580e-003
2.867676e+003,-7.877606e-003
2.869604e+003,-7.864948e-003
2.871533e+003,-7.690763e-003
2.873461e+003,-7.593192e-003
2.875390e+003,-7.525788e-003
2.877319e+003,-7.344136e-003
2.879247e+003,-7.089005e-003
2.881176e+003,-6.992016e-003
2.883104e+003,-7.004830e-003
2.885032e+003,-7.100186e-003
2.886961e+003,-7.096078e-003
2.888889e+003,-7.050603e-003
2.890818e+003,-7.055949e-003
2.892747e+003,-7.205786e-003
2.894675e+003,-7.360849e-003
2.896604e+003,-7.421015e-003
2.898532e+003,-7.540280e-003
2.900460e+003,-7.614519e-003
2.902389e+003,-7.684220e-003
2.904317e+003,-7.875166e-003
2.906246e+003,-7.998438e-003
2.908175e+003,-8.075688e-003
2.910103e+003,-8.217988e-003
2.912031e+003,-8.407107e-003
2.913960e+003,-8.570382e-003
2.915888e+003,-8.729571e-003
2.917817e+003,-8.768084e-003
2.919745e+003,-8.596469e-003
2.921674e+003,-8.394919e-003
2.923603e+003,-8.170386e-003
2.925531e+003,-7.905393e-003
2.927459e+003,-7.658925e-003
2.929388e+003,-7.449547e-003
2.931316e+003,-7.135650e-003
2.933245e+003,-6.804531e-003
2.935173e+003,-6.594446e-003
2.937102e+003,-6.425953e-003
2.939031e+003,-6.339429e-003
2.940959e+003,-6.302136e-003
2.942887e+003,-6.389419e-003
2.944816e+003,-6.529694e-003
2.946744e+003,-6.749401e-003
2.948673e+003,-7.063415e-003
2.950601e+003,-7.424532e-003
2.952530e+003,-7.876891e-003
2.954458e+003,-8.366026e-003
2.956387e+003,-8.949238e-003
2.958315e+003,-9.571471e-003
2.960244e+003,-1.017320e-002
2.962172e+003,-1.073214e-002
2.964101e+003,-1.110976e-002
2.966029e+003,-1.159579e-002
2.967958e+003,-1.218783e-002
2.969886e+003,-1.272018e-002
2.971815e+003,-1.316526e-002
2.973743e+003,-1.351540e-002
2.975672e+003,-1.373510e-002
2.977600e+003,-1.396608e-002
2.979529e+003,-1.426421e-002
2.981457e+003,-1.455595e-002
2.983386e+003,-1.484017e-002
2.985314e+003,-1.518122e-002
2.987243e+003,-1.537919e-002
2.989171e+003,-1.548277e-002
2.991100e+003,-1.553188e-002
2.993028e+003,-1.566862e-002
2.994957e+003,-1.583293e-002
2.996885e+003,-1.585085e-002
2.998814e+003,-1.585862e-002
3.000742e+003,-1.601742e-002
3.002671e+003,-1.617611e-002
3.004599e+003,-1.624933e-002
3.006528e+003,-1.626165e-002
3.008456e+003,-1.629688e-002
3.010385e+003,-1.640458e-002
3.012313e+003,-1.638292e-002
3.014242e+003,-1.644306e-002
3.016170e+003,-1.654207e-002
3.018099e+003,-1.650743e-002
3.020027e+003,-1.643760e-002
3.021956e+003,-1.650507e-002
3.023884e+003,-1.663775e-002
3.025813e+003,-1.675422e-002
3.027741e+003,-1.688421e-002
3.029670e+003,-1.683599e-002
3.031598e+003,-1.667978e-002
3.033527e+003,-1.670101e-002
3.035455e+003,-1.673385e-002
3.037384e+003,-1.683847e-002
3.039312e+003,-1.700371e-002
3.041241e+003,-1.709196e-002
3.043169e+003,-1.705019e-002
3.045098e+003,-1.693705e-002
3.047026e+003,-1.688163e-002
3.048955e+003,-1.701136e-002
3.050883e+003,-1.717248e-002
3.052812e+003,-1.724961e-002
3.054740e+003,-1.732224e-002
3.056669e+003,-1.739626e-002
3.058597e+003,-1.743681e-002
3.060526e+003,-1.740463e-002
3.062454e+003,-1.734628e-002
3.064383e+003,-1.748892e-002
3.066311e+003,-1.754194e-002
3.068240e+003,-1.748220e-002
3.070168e+003,-1.753974e-002
3.072097e+003,-1.763058e-002
3.074025e+003,-1.757917e-002
3.075954e+003,-1.751584e-002
3.077882e+003,-1.759046e-002
3.079811e+003,-1.771746e-002
3.081739e+003,-1.778674e-002
3.083668e+003,-1.777294e-002
3.085596e+003,-1.776060e-002
3.087525e+003,-1.782115e-002
3.089453e+003,-1.783832e-002
3.091382e+003,-1.788583e-002
3.093310e+003,-1.792965e-002
3.095239e+003,-1.785775e-002
3.097167e+003,-1.789458e-002
3.099096e+003,-1.807772e-002
3.101024e+003,-1.815825e-002
3.102953e+003,-1.812981e-002
3.104881e+003,-1.825640e-002
3.106810e+003,-1.829426e-002
3.108738e+003,-1.816857e-002
3.110667e+003,-1.820871e-002
3.112595e+003,-1.826284e-002
3.114524e+003,-1.821608e-002
3.116452e+003,-1.823511e-002
3.118381e+003,-1.832638e-002
3.120309e+003,-1.845590e-002
3.122238e+003,-1.854874e-002
3.124166e+003,-1.857179e-002
3.126095e+003,-1.853972e-002
3.128023e+003,-1.851540e-002
3.129952e+003,-1.845958e-002
3.131880e+003,-1.845580e-002
3.133809e+003,-1.852318e-002
3.135737e+003,-1.859627e-002
3.137666e+003,-1.859766e-002
3.139594e+003,-1.862677e-002
3.141523e+003,-1.860481e-002
3.143451e+003,-1.858192e-002
3.145380e+003,-1.859601e-002
3.147308e+003,-1.851293e-002
3.149237e+003,-1.856922e-002
3.151165e+003,-1.873278e-002
3.153094e+003,-1.874811e-002
3.155022e+003,-1.873234e-002
3.156951e+003,-1.866090e-002
3.158879e+003,-1.859912e-002
3.160808e+003,-1.856433e-002
3.162736e+003,-1.867791e-002
3.164665e+003,-1.880021e-002
3.166593e+003,-1.882569e-002
3.168522e+003,-1.876899e-002
3.170450e+003,-1.883578e-002
3.172379e+003,-1.879323e-002
3.174307e+003,-1.870498e-002
3.176236e+003,-1.870104e-002
3.178164e+003,-1.871510e-002
3.180093e+003,-1.872332e-002
3.182021e+003,-1.877102e-002
3.183950e+003,-1.874062e-002
3.185878e+003,-1.882480e-002
3.187807e+003,-1.888689e-002
3.189735e+003,-1.888128e-002
3.191664e+003,-1.889346e-002
3.193592e+003,-1.891826e-002
3.195521e+003,-1.894240e-002
3.197449e+003,-1.887192e-002
3.199378e+003,-1.879606e-002
3.201306e+003,-1.873970e-002
3.203235e+003,-1.880519e-002
3.205163e+003,-1.882699e-002
3.207092e+003,-1.889143e-002
3.209020e+003,-1.883915e-002
3.210948e+003,-1.875623e-002
3.212877e+003,-1.875046e-002
3.214806e+003,-1.875385e-002
3.216734e+003,-1.885291e-002
3.218663e+003,-1.888648e-002
3.220591e+003,-1.885203e-002
3.222520e+003,-1.871441e-002
3.224448e+003,-1.866797e-002
3.226376e+003,-1.863496e-002
3.228305e+003,-1.857776e-002
3.230234e+003,-1.854938e-002
3.232162e+003,-1.854169e-002
3.234091e+003,-1.849858e-002
3.236019e+003,-1.831850e-002
3.237948e+003,-1.837936e-002
3.239876e+003,-1.839273e-002
3.241804e+003,-1.825878e-002
3.243733e+003,-1.833686e-002
3.245662e+003,-1.827660e-002
3.247590e+003,-1.828578e-002
3.249519e+003,-1.827130e-002
3.251447e+003,-1.822561e-002
3.253375e+003,-1.821843e-002
3.255304e+003,-1.816089e-002
3.257232e+003,-1.797752e-002
3.259161e+003,-1.790898e-002
3.261090e+003,-1.804743e-002
3.263018e+003,-1.809033e-002
3.264947e+003,-1.799755e-002
3.266875e+003,-1.797682e-002
3.268803e+003,-1.796195e-002
3.270732e+003,-1.795594e-002
3.272660e+003,-1.780035e-002
3.274589e+003,-1.769103e-002
3.276518e+003,-1.770993e-002
3.278446e+003,-1.772179e-002
3.280375e+003,-1.775140e-002
3.282303e+003,-1.771253e-002
3.284231e+003,-1.771708e-002
3.286160e+003,-1.780697e-002
3.288088e+003,-1.790396e-002
3.290017e+003,-1.796331e-002
3.291946e+003,-1.804622e-002
3.293874e+003,-1.821563e-002
3.295802e+003,-1.818840e-002
3.297731e+003,-1.809873e-002
3.299659e+003,-1.811541e-002
3.301588e+003,-1.817897e-002
3.303516e+003,-1.835106e-002
3.305445e+003,-1.843418e-002
3.307374e+003,-1.843840e-002
3.309302e+003,-1.871056e-002
3.311230e+003,-1.891306e-002
3.313159e+003,-1.894041e-002
3.315087e+003,-1.895741e-002
3.317016e+003,-1.910884e-002
3.318944e+003,-1.924998e-002
3.320873e+003,-1.920871e-002
3.322802e+003,-1.935470e-002
3.324730e+003,-1.970691e-002
3.326658e+003,-1.969861e-002
3.328587e+003,-1.955524e-002
3.330515e+003,-1.950783e-002
3.332444e+003,-1.958039e-002
3.334372e+003,-1.975675e-002
3.336301e+003,-1.986799e-002
3.338229e+003,-1.990619e-002
3.340158e+003,-1.985675e-002
3.342086e+003,-1.982253e-002
3.344015e+003,-1.983538e-002
3.345943e+003,-1.993949e-002
3.347872e+003,-2.006061e-002
3.349800e+003,-2.007397e-002
3.351729e+003,-2.000970e-002
3.353657e+003,-2.010728e-002
3.355586e+003,-2.024221e-002
3.357514e+003,-2.035317e-002
3.359443e+003,-2.035861e-002
3.361371e+003,-2.027273e-002
3.363300e+003,-2.043053e-002
3.365229e+003,-2.059744e-002
3.367157e+003,-2.057276e-002
3.369085e+003,-2.068388e-002
3.371014e+003,-2.065485e-002
3.372942e+003,-2.064806e-002
3.374871e+003,-2.080032e-002
3.376799e+003,-2.078339e-002
3.378728e+003,-2.083418e-002
3.380656e+003,-2.110554e-002
3.382585e+003,-2.130642e-002
3.384513e+003,-2.132573e-002
3.386442e+003,-2.132229e-002
3.388370e+003,-2.127162e-002
3.390299e+003,-2.135393e-002
3.392227e+003,-2.132500e-002
3.394156e+003,-2.124493e-002
3.396084e+003,-2.141102e-002
3.398013e+003,-2.160842e-002
3.399941e+003,-2.158518e-002
3.401870e+003,-2.160902e-002
3.403798e+003,-2.170478e-002
3.405727e+003,-2.176747e-002
3.407655e+003,-2.172413e-002
3.409584e+003,-2.162011e-002
3.411512e+003,-2.173989e-002
3.413441e+003,-2.190384e-002
3.415369e+003,-2.199837e-002
3.417298e+003,-2.200492e-002
3.419226e+003,-2.204700e-002
3.421155e+003,-2.210473e-002
3.423083e+003,-2.215618e-002
3.425012e+003,-2.215123e-002
3.426940e+003,-2.214094e-002
3.428869e+003,-2.208253e-002
3.430797e+003,-2.201050e-002
3.432726e+003,-2.213640e-002
3.434654e+003,-2.231031e-002
3.436583e+003,-2.240160e-002
3.438511e+003,-2.240271e-002
3.440440e+003,-2.237835e-002
3.442368e+003,-2.238952e-002
3.444297e+003,-2.233448e-002
3.446225e+003,-2.231751e-002
3.448154e+003,-2.244292e-002
3.450082e+003,-2.248297e-002
3.452011e+003,-2.246224e-002
3.453939e+003,-2.248735e-002
3.455868e+003,-2.265309e-002
3.457796e+003,-2.277563e-002
3.459725e+003,-2.267039e-002
3.461653e+003,-2.256335e-002
3.463582e+003,-2.261422e-002
3.465510e+003,-2.273636e-002
3.467439e+003,-2.281352e-002
3.469367e+003,-2.273781e-002
3.471296e+003,-2.271083e-002
3.473224e+003,-2.266988e-002
3.475153e+003,-2.263913e-002
3.477081e+003,-2.270080e-002
3.479010e+003,-2.274177e-002
3.480938e+003,-2.268605e-002
3.482867e+003,-2.277309e-002
3.484795e+003,-2.276639e-002
3.486724e+003,-2.273284e-002
3.488652e+003,-2.270872e-002
3.490581e+003,-2.284857e-002
3.492509e+003,-2.296949e-002
3.494438e+003,-2.292269e-002
3.496366e+003,-2.268727e-002
3.498295e+003,-2.275413e-002
3.500223e+003,-2.283477e-002
3.502152e+003,-2.267256e-002
3.504080e+003,-2.268753e-002
3.506009e+003,-2.281015e-002
3.507937e+003,-2.281179e-002
3.509866e+003,-2.265290e-002
3.511794e+003,-2.258109e-002
3.513723e+003,-2.282131e-002
3.515651e+003,-2.293174e-002
3.517580e+003,-2.279887e-002
3.519508e+003,-2.290547e-002
3.521437e+003,-2.306602e-002
3.523365e+003,-2.304412e-002
3.525294e+003,-2.300858e-002
3.527222e+003,-2.293262e-002
3.529151e+003,-2.270099e-002
3.531079e+003,-2.261922e-002
3.533008e+003,-2.269369e-002
3.534936e+003,-2.277293e-002
3.536865e+003,-2.278604e-002
3.538793e+003,-2.273938e-002
3.540722e+003,-2.261786e-002
3.542650e+003,-2.265755e-002
3.544579e+003,-2.269992e-002
3.546507e+003,-2.270212e-002
3.548436e+003,-2.290034e-002
3.550364e+003,-2.294218e-002
3.552293e+003,-2.279607e-002
3.554221e+003,-2.280195e-002
3.556150e+003,-2.289569e-002
3.558078e+003,-2.282392e-002
3.560007e+003,-2.285143e-002
3.561935e+003,-2.283562e-002
3.563864e+003,-2.297621e-002
3.565792e+003,-2.303136e-002
3.567721e+003,-2.280946e-002
3.569649e+003,-2.277843e-002
3.571578e+003,-2.289151e-002
3.573506e+003,-2.277598e-002
3.575435e+003,-2.266007e-002
3.577363e+003,-2.269117e-002
3.579292e+003,-2.271580e-002
3.581220e+003,-2.285285e-002
3.583149e+003,-2.309885e-002
3.585077e+003,-2.300038e-002
3.587006e+003,-2.294878e-002
3.588934e+003,-2.291430e-002
3.590863e+003,-2.278025e-002
3.592791e+003,-2.282053e-002
3.594720e+003,-2.285112e-002
3.596648e+003,-2.275057e-002
3.598577e+003,-2.268696e-002
3.600505e+003,-2.264145e-002
3.602434e+003,-2.272029e-002
3.604362e+003,-2.278286e-002
3.606291e+003,-2.295148e-002
3.608219e+003,-2.296949e-002
3.610148e+003,-2.290697e-002
3.612076e+003,-2.297898e-002
3.614005e+003,-2.293721e-002
3.615933e+003,-2.298885e-002
3.617862e+003,-2.281905e-002
3.619790e+003,-2.250972e-002
3.621719e+003,-2.264542e-002
3.623647e+003,-2.302055e-002
3.625576e+003,-2.309581e-002
3.627504e+003,-2.308409e-002
3.629433e+003,-2.269014e-002
3.631361e+003,-2.278516e-002
3.633290e+003,-2.311117e-002
3.635218e+003,-2.322589e-002
3.637146e+003,-2.318556e-002
3.639075e+003,-2.303576e-002
3.641004e+003,-2.293429e-002
3.642932e+003,-2.300088e-002
3.644861e+003,-2.324210e-002
3.646789e+003,-2.341421e-002
3.648718e+003,-2.346001e-002
3.650646e+003,-2.331392e-002
3.652574e+003,-2.312870e-002
3.654503e+003,-2.322168e-002
3.656432e+003,-2.325318e-002
3.658360e+003,-2.339584e-002
3.660289e+003,-2.334281e-002
3.662217e+003,-2.336573e-002
3.664146e+003,-2.352276e-002
3.666074e+003,-2.358151e-002
3.668002e+003,-2.376446e-002
3.669931e+003,-2.379147e-002
3.671860e+003,-2.379934e-002
3.673788e+003,-2.423388e-002
3.675717e+003,-2.403573e-002
3.677645e+003,-2.355929e-002
3.679573e+003,-2.357586e-002
3.681502e+003,-2.350788e-002
3.683430e+003,-2.352602e-002
3.685359e+003,-2.379338e-002
3.687288e+003,-2.387164e-002
3.689216e+003,-2.351638e-002
3.691145e+003,-2.338777e-002
3.693073e+003,-2.341474e-002
3.695001e+003,-2.373701e-002
3.696930e+003,-2.375097e-002
3.698858e+003,-2.370319e-002
3.700787e+003,-2.352646e-002
3.702716e+003,-2.348581e-002
3.704644e+003,-2.355204e-002
3.706573e+003,-2.367185e-002
3.708501e+003,-2.383037e-002
3.710429e+003,-2.367976e-002
3.712358e+003,-2.337750e-002
3.714286e+003,-2.338727e-002
3.716215e+003,-2.377704e-002
3.718144e+003,-2.379003e-002
3.720072e+003,-2.367681e-002
3.722000e+003,-2.360718e-002
3.723929e+003,-2.359598e-002
3.725857e+003,-2.347134e-002
3.727786e+003,-2.326568e-002
3.729714e+003,-2.375787e-002
3.731643e+003,-2.422877e-002
3.733572e+003,-2.436888e-002
3.735500e+003,-2.398199e-002
3.737428e+003,-2.373268e-002
3.739357e+003,-2.382598e-002
3.741285e+003,-2.392702e-002
3.743214e+003,-2.415600e-002
3.745142e+003,-2.357733e-002
3.747071e+003,-2.375913e-002
3.749000e+003,-2.382626e-002
3.750928e+003,-2.371038e-002
3.752856e+003,-2.340802e-002
3.754785e+003,-2.350653e-002
3.756713e+003,-2.357737e-002
3.758642e+003,-2.356704e-002
3.760570e+003,-2.353735e-002
3.762499e+003,-2.347545e-002
3.764427e+003,-2.356488e-002
3.766356e+003,-2.354419e-002
3.768284e+003,-2.338761e-002
3.770213e+003,-2.326201e-002
3.772141e+003,-2.333320e-002
3.774070e+003,-2.333753e-002
3.775998e+003,-2.343530e-002
3.777927e+003,-2.357498e-002
3.779855e+003,-2.336658e-002
3.781784e+003,-2.327937e-002
3.783712e+003,-2.332095e-002
3.785641e+003,-2.320384e-002
3.787569e+003,-2.317255e-002
3.789498e+003,-2.329021e-002
3.791426e+003,-2.341640e-002
3.793355e+003,-2.341807e-002
3.795283e+003,-2.321141e-002
3.797212e+003,-2.320283e-002
3.799140e+003,-2.363865e-002
3.801069e+003,-2.353697e-002
3.802997e+003,-2.333474e-002
3.804926e+003,-2.374931e-002
3.806854e+003,-2.357580e-002
3.808783e+003,-2.339703e-002
3.810711e+003,-2.345502e-002
3.812640e+003,-2.354074e-002
3.814568e+003,-2.373221e-002
3.816497e+003,-2.335113e-002
3.818425e+003,-2.333493e-002
3.820354e+003,-2.325111e-002
3.822282e+003,-2.303121e-002
3.824211e+003,-2.311108e-002
3.826139e+003,-2.334488e-002
3.828068e+003,-2.334252e-002
3.829996e+003,-2.326006e-002
3.831925e+003,-2.325328e-002
3.833853e+003,-2.341031e-002
3.835782e+003,-2.361019e-002
3.837710e+003,-2.347140e-002
3.839639e+003,-2.349240e-002
3.841567e+003,-2.355750e-002
3.843496e+003,-2.343766e-002
3.845424e+003,-2.331747e-002
3.847353e+003,-2.359924e-002
3.849281e+003,-2.382008e-002
3.851210e+003,-2.394141e-002
3.853138e+003,-2.364201e-002
3.855067e+003,-2.318330e-002
3.856995e+003,-2.341829e-002
3.858924e+003,-2.372318e-002
3.860852e+003,-2.362513e-002
3.862781e+003,-2.345163e-002
3.864709e+003,-2.336774e-002
3.866638e+003,-2.355875e-002
3.868566e+003,-2.392226e-002
3.870495e+003,-2.349758e-002
3.872423e+003,-2.351824e-002
3.874352e+003,-2.350656e-002
3.876280e+003,-2.352436e-002
3.878209e+003,-2.378285e-002
3.880137e+003,-2.368475e-002
3.882066e+003,-2.356227e-002
3.883994e+003,-2.381882e-002
3.885923e+003,-2.361615e-002
3.887851e+003,-2.370912e-002
3.889780e+003,-2.373912e-002
3.891708e+003,-2.373152e-002
3.893637e+003,-2.387591e-002
3.895565e+003,-2.393847e-002
3.897494e+003,-2.393471e-002
3.899422e+003,-2.358857e-002
3.901351e+003,-2.363018e-002
3.903279e+003,-2.379520e-002
3.905208e+003,-2.371882e-002
3.907136e+003,-2.364788e-002
3.909065e+003,-2.368823e-002
3.910993e+003,-2.384112e-002
3.912922e+003,-2.388883e-002
3.914850e+003,-2.380474e-002
3.916779e+003,-2.375759e-002
3.918707e+003,-2.389475e-002
3.920636e+003,-2.399500e-002
3.922564e+003,-2.414983e-002
3.924493e+003,-2.411914e-002
3.926421e+003,-2.395267e-002
3.928350e+003,-2.383454e-002
3.930278e+003,-2.375395e-002
3.932207e+003,-2.364675e-002
3.934135e+003,-2.348886e-002
3.936064e+003,-2.348842e-002
3.937992e+003,-2.357476e-002
3.939921e+003,-2.385380e-002
3.941849e+003,-2.400271e-002
3.943778e+003,-2.382833e-002
3.945706e+003,-2.398515e-002
3.947635e+003,-2.403974e-002
3.949563e+003,-2.385242e-002
3.951492e+003,-2.378818e-002
3.953420e+003,-2.376785e-002
3.955349e+003,-2.367342e-002
3.957277e+003,-2.378636e-002
3.959206e+003,-2.409190e-002
3.961134e+003,-2.415810e-002
3.963063e+003,-2.386634e-002
3.964991e+003,-2.401033e-002
3.966920e+003,-2.431118e-002
3.968848e+003,-2.422651e-002
3.970777e+003,-2.403811e-002
3.972705e+003,-2.409623e-002
3.974634e+003,-2.418019e-002
3.976562e+003,-2.409385e-002
3.978491e+003,-2.420962e-002
3.980419e+003,-2.423657e-002
3.982348e+003,-2.423808e-002
3.984276e+003,-2.408015e-002
3.986205e+003,-2.395885e-002
3.988133e+003,-2.396474e-002
3.990062e+003,-2.411253e-002
3.991990e+003,-2.424920e-002
3.993919e+003,-2.419796e-002
3.995847e+003,-2.422460e-002
3.997776e+003,-2.429081e-002
3.999704e+003,-2.419489e-002
4.001633e+003,0.000000e+000
