3.991989e+002,-2.967328e-002
4.011274e+002,-2.771017e-002
4.030559e+002,-3.400931e-002
4.049844e+002,-3.873645e-002
4.069129e+002,-2.782840e-002
4.088414e+002,-1.874287e-002
4.107699e+002,-2.021701e-002
4.126984e+002,-2.192643e-002
4.146269e+002,-1.971878e-002
4.165554e+002,-1.329012e-002
4.184839e+002,-1.183204e-002
4.204124e+002,-8.606344e-003
4.223409e+002,-5.693152e-003
4.242694e+002,-6.830983e-003
4.261979e+002,-1.260358e-002
4.281264e+002,-4.248112e-003
4.300549e+002,3.523147e-003
4.319834e+002,3.472841e-004
4.339119e+002,-5.307479e-004
4.358404e+002,6.969039e-004
4.377689e+002,-9.515054e-005
4.396974e+002,-6.243024e-003
4.416259e+002,-1.223141e-002
4.435544e+002,-9.498733e-003
4.454829e+002,-5.984074e-003
4.474114e+002,-1.657049e-003
4.493399e+002,-5.893858e-004
4.512684e+002,-2.347289e-003
4.531969e+002,-2.239775e-003
4.551254e+002,-2.441465e-003
4.570539e+002,-2.916320e-003
4.589824e+002,-2.641481e-003
4.609109e+002,-3.620795e-003
4.628394e+002,-3.003496e-003
4.647679e+002,-3.829202e-003
4.666964e+002,-4.396264e-003
4.686249e+002,-2.489863e-003
4.705533e+002,1.085236e-003
4.724819e+002,3.523246e-004
4.744103e+002,9.547125e-004
4.763389e+002,2.410052e-003
4.782673e+002,2.482059e-003
4.801959e+002,8.518496e-004
4.821243e+002,6.981982e-004
4.840529e+002,-3.047925e-004
4.859813e+002,-1.226545e-003
4.879099e+002,7.443642e-004
4.898383e+002,2.036214e-003
4.917668e+002,9.955259e-004
4.936953e+002,-7.562552e-004
4.956238e+002,-1.836805e-003
4.975523e+002,4.774588e-004
4.994808e+002,1.611607e-004
5.014093e+002,-1.427848e-003
5.033378e+002,2.994361e-004
5.052663e+002,3.332051e-003
5.071948e+002,1.844441e-003
5.091233e+002,-6.231023e-004
5.110518e+002,-1.489205e-003
5.129803e+002,-2.014938e-003
5.149088e+002,-2.274781e-003
5.168373e+002,-1.838257e-003
5.187658e+002,-8.310675e-004
5.206943e+002,-8.906568e-004
5.226228e+002,-1.307817e-003
5.245513e+002,-4.621395e-004
5.264798e+002,-5.476254e-004
5.284083e+002,-1.072417e-003
5.303368e+002,-4.664093e-004
5.322653e+002,-7.318693e-005
5.341938e+002,4.631625e-004
5.361223e+002,-1.467921e-004
5.380508e+002,-1.003332e-003
5.399792e+002,-1.555033e-004
5.419078e+002,1.277372e-003
5.438363e+002,1.729258e-003
5.457648e+002,1.497421e-003
5.476932e+002,1.723769e-003
5.496218e+002,1.013825e-003
5.515503e+002,1.758367e-003
5.534788e+002,2.016807e-003
5.554072e+002,1.976263e-003
5.573358e+002,2.789181e-003
5.592643e+002,3.084174e-003
5.611927e+002,2.612909e-003
5.631212e+002,3.030551e-003
5.650497e+002,3.889709e-003
5.669783e+002,4.476505e-003
5.689067e+002,3.985135e-003
5.708352e+002,3.486838e-003
5.727637e+002,3.417436e-003
5.746923e+002,2.890803e-003
5.766207e+002,8.857471e-004
5.785492e+002,-9.608506e-004
5.804777e+002,-5.043161e-003
5.824063e+002,-2.965389e-003
5.843347e+002,1.112806e-003
5.862632e+002,1.674971e-003
5.881917e+002,2.962990e-003
5.901202e+002,4.690913e-003
5.920487e+002,5.600084e-003
5.939772e+002,4.532181e-003
5.959057e+002,5.136409e-003
5.978342e+002,7.618678e-003
5.997627e+002,8.948590e-003
6.016912e+002,9.407551e-003
6.036197e+002,1.088492e-002
6.055482e+002,1.316012e-002
6.074767e+002,1.398079e-002
6.094052e+002,1.302674e-002
6.113337e+002,1.078233e-002
6.132622e+002,9.551173e-003
6.151907e+002,1.035856e-002
6.171192e+002,9.840289e-003
6.190477e+002,9.611671e-003
6.209762e+002,1.066940e-002
6.229047e+002,9.878048e-003
6.248332e+002,7.513753e-003
6.267617e+002,5.496954e-003
6.286902e+002,3.601620e-003
6.306187e+002,3.208329e-003
6.325472e+002,2.709622e-003
6.344756e+002,2.908248e-003
6.364042e+002,2.861185e-003
6.383326e+002,2.262144e-003
6.402612e+002,2.138459e-003
6.421896e+002,2.363676e-003
6.441182e+002,2.044237e-003
6.460466e+002,1.430563e-003
6.479752e+002,1.129151e-003
6.499036e+002,8.053733e-004
6.518322e+002,7.802118e-004
6.537606e+002,6.929214e-004
6.556891e+002,6.624237e-004
6.576177e+002,5.420466e-004
6.595461e+002,4.562797e-005
6.614746e+002,-4.628015e-004
6.634031e+002,-3.785570e-004
6.653317e+002,3.761348e-004
6.672601e+002,8.821946e-004
6.691886e+002,4.924853e-004
6.711171e+002,4.684365e-004
6.730457e+002,5.490798e-004
6.749741e+002,3.775939e-004
6.769026e+002,7.848258e-004
6.788311e+002,1.221380e-003
6.807596e+002,1.647830e-003
6.826881e+002,1.334933e-003
6.846166e+002,1.245736e-003
6.865451e+002,1.786346e-003
6.884736e+002,2.226307e-003
6.904021e+002,2.271969e-003
6.923306e+002,2.091778e-003
6.942591e+002,2.020069e-003
6.961876e+002,1.772905e-003
6.981161e+002,1.453003e-003
7.000446e+002,1.376579e-003
7.019731e+002,1.707802e-003
7.039016e+002,1.949869e-003
7.058301e+002,1.959022e-003
7.077585e+002,2.026160e-003
7.096871e+002,2.640644e-003
7.116156e+002,3.725288e-003
7.135441e+002,3.929428e-003
7.154725e+002,3.335791e-003
7.174011e+002,3.177854e-003
7.193296e+002,3.615017e-003
7.212581e+002,3.933073e-003
7.231865e+002,4.310188e-003
7.251151e+002,4.473793e-003
7.270436e+002,4.293255e-003
7.289720e+002,4.531378e-003
7.309005e+002,4.627246e-003
7.328290e+002,4.977782e-003
7.347576e+002,5.383146e-003
7.366860e+002,5.988527e-003
7.386145e+002,6.183248e-003
7.405430e+002,5.588907e-003
7.424716e+002,5.494840e-003
7.444000e+002,5.877848e-003
7.463285e+002,5.957420e-003
7.482570e+002,5.811388e-003
7.501855e+002,5.939683e-003
7.521140e+002,6.207178e-003
7.540425e+002,6.505915e-003
7.559710e+002,6.548902e-003
7.578995e+002,6.830606e-003
7.598280e+002,7.085010e-003
7.617565e+002,7.120037e-003
7.636850e+002,7.086593e-003
7.656135e+002,7.349841e-003
7.675420e+002,7.489683e-003
7.694705e+002,7.652940e-003
7.713990e+002,7.492751e-003
7.733275e+002,7.184139e-003
7.752560e+002,6.739567e-003
7.771844e+002,6.327624e-003
7.791130e+002,6.413296e-003
7.810415e+002,6.477865e-003
7.829700e+002,6.427857e-003
7.848984e+002,6.471778e-003
7.868270e+002,6.428732e-003
7.887555e+002,5.931185e-003
7.906840e+002,5.464238e-003
7.926124e+002,5.310019e-003
7.945410e+002,4.901574e-003
7.964695e+002,4.505832e-003
7.983979e+002,4.495721e-003
8.003264e+002,4.267523e-003
8.022549e+002,4.238178e-003
8.041835e+002,4.500944e-003
8.061119e+002,4.754054e-003
8.080404e+002,5.592029e-003
8.099689e+002,5.827003e-003
8.118975e+002,5.468197e-003
8.138259e+002,5.741110e-003
8.157545e+002,6.296156e-003
8.176830e+002,6.513954e-003
8.196115e+002,5.877109e-003
8.215399e+002,5.502725e-003
8.234684e+002,5.907740e-003
8.253970e+002,5.600520e-003
8.273254e+002,5.168597e-003
8.292539e+002,5.180132e-003
8.311824e+002,4.661875e-003
8.331110e+002,4.257819e-003
8.350394e+002,4.494416e-003
8.369679e+002,5.029534e-003
8.388964e+002,4.914609e-003
8.408250e+002,4.808492e-003
8.427534e+002,5.170542e-003
8.446819e+002,5.349399e-003
8.466104e+002,5.214403e-003
8.485389e+002,5.113108e-003
8.504674e+002,4.890047e-003
8.523959e+002,4.889242e-003
8.543244e+002,4.712149e-003
8.562529e+002,4.620582e-003
8.581814e+002,4.621084e-003
8.601099e+002,4.888907e-003
8.620384e+002,5.006071e-003
8.639669e+002,4.582273e-003
8.658954e+002,4.539514e-003
8.678239e+002,4.773014e-003
8.697524e+002,4.514436e-003
8.716809e+002,4.106771e-003
8.736094e+002,3.889308e-003
8.755378e+002,4.015633e-003
8.774664e+002,4.460738e-003
8.793949e+002,4.577953e-003
8.813234e+002,4.257652e-003
8.832518e+002,4.162534e-003
8.851804e+002,4.366579e-003
8.871089e+002,4.314772e-003
8.890374e+002,4.271739e-003
8.909658e+002,4.491804e-003
8.928943e+002,4.858448e-003
8.948229e+002,5.154481e-003
8.967513e+002,5.380060e-003
8.986798e+002,5.192874e-003
9.006083e+002,4.850172e-003
9.025369e+002,4.985022e-003
9.044653e+002,5.184357e-003
9.063938e+002,4.955093e-003
9.083223e+002,4.625505e-003
9.102509e+002,4.523175e-003
9.121793e+002,4.142998e-003
9.141078e+002,3.778160e-003
9.160364e+002,3.857816e-003
9.179648e+002,3.939292e-003
9.198933e+002,3.719005e-003
9.218218e+002,3.129693e-003
9.237504e+002,2.973632e-003
9.256788e+002,2.879629e-003
9.276073e+002,2.658712e-003
9.295358e+002,2.847377e-003
9.314644e+002,2.904946e-003
9.333928e+002,2.767439e-003
9.353213e+002,2.577943e-003
9.372498e+002,2.534015e-003
9.391783e+002,2.484025e-003
9.411068e+002,2.371771e-003
9.430353e+002,2.401690e-003
9.449637e+002,2.488957e-003
9.468923e+002,2.549712e-003
9.488208e+002,2.820996e-003
9.507493e+002,3.045199e-003
9.526777e+002,3.140573e-003
9.546063e+002,3.293555e-003
9.565348e+002,3.483364e-003
9.584633e+002,3.551374e-003
9.603917e+002,3.412694e-003
9.623203e+002,3.281336e-003
9.642488e+002,3.237103e-003
9.661772e+002,3.353054e-003
9.681057e+002,3.512190e-003
9.700343e+002,3.296961e-003
9.719628e+002,3.252292e-003
9.738912e+002,3.289249e-003
9.758197e+002,3.208863e-003
9.777483e+002,3.098623e-003
9.796768e+002,3.055076e-003
9.816052e+002,2.954317e-003
9.835337e+002,2.485392e-003
9.854623e+002,2.165331e-003
9.873907e+002,2.083022e-003
9.893192e+002,1.894390e-003
9.912477e+002,1.882509e-003
9.931763e+002,1.724800e-003
9.951047e+002,1.459054e-003
9.970332e+002,1.414773e-003
9.989617e+002,1.353977e-003
1.000890e+003,1.311535e-003
1.002819e+003,1.374685e-003
1.004747e+003,1.312864e-003
1.006676e+003,1.520596e-003
1.008604e+003,1.789441e-003
1.010533e+003,1.889697e-003
1.012461e+003,1.865138e-003
1.014390e+003,2.011980e-003
1.016318e+003,2.197699e-003
1.018247e+003,2.476494e-003
1.020175e+003,2.553912e-003
1.022104e+003,2.726126e-003
1.024032e+003,3.221247e-003
1.025961e+003,3.516600e-003
1.027889e+003,3.594537e-003
1.029818e+003,3.869617e-003
1.031746e+003,4.192543e-003
1.033675e+003,4.571323e-003
1.035603e+003,5.146333e-003
1.037532e+003,5.410958e-003
1.039460e+003,5.500678e-003
1.041389e+003,5.902333e-003
1.043317e+003,6.190911e-003
1.045246e+003,6.158815e-003
1.047174e+003,6.263985e-003
1.049103e+003,6.289768e-003
1.051031e+003,6.495219e-003
1.052960e+003,6.905235e-003
1.054888e+003,6.816873e-003
1.056817e+003,6.641280e-003
1.058745e+003,6.752186e-003
1.060674e+003,6.790688e-003
1.062602e+003,6.918701e-003
1.064531e+003,6.953749e-003
1.066459e+003,6.784899e-003
1.068388e+003,6.621934e-003
1.070316e+003,6.617628e-003
1.072245e+003,6.820407e-003
1.074173e+003,6.988025e-003
1.076102e+003,6.851778e-003
1.078030e+003,6.546143e-003
1.079959e+003,6.552400e-003
1.081887e+003,6.856255e-003
1.083816e+003,7.122429e-003
1.085744e+003,7.370129e-003
1.087673e+003,7.485166e-003
1.089601e+003,7.426211e-003
1.091530e+003,7.531756e-003
1.093458e+003,7.919603e-003
1.095387e+003,7.956048e-003
1.097315e+003,8.036203e-003
1.099244e+003,8.192912e-003
1.101172e+003,8.384267e-003
1.103101e+003,8.570941e-003
1.105029e+003,8.322657e-003
1.106958e+003,8.224922e-003
1.108886e+003,8.340254e-003
1.110815e+003,8.455887e-003
1.112743e+003,8.552152e-003
1.114672e+003,8.535121e-003
1.116600e+003,8.632688e-003
1.118529e+003,8.693531e-003
1.120457e+003,8.453217e-003
1.122386e+003,8.397610e-003
1.124314e+003,8.385652e-003
1.126243e+003,8.242043e-003
1.128171e+003,8.344814e-003
1.130100e+003,8.413285e-003
1.132028e+003,8.037823e-003
1.133957e+003,7.846284e-003
1.135885e+003,7.754323e-003
1.137814e+003,7.467806e-003
1.139742e+003,7.139775e-003
1.141671e+003,6.850263e-003
1.143599e+003,6.610059e-003
1.145528e+003,6.295752e-003
1.147456e+003,5.879964e-003
1.149385e+003,5.607266e-003
1.151313e+003,5.314682e-003
1.153242e+003,5.068654e-003
1.155170e+003,4.867127e-003
1.157099e+003,4.692889e-003
1.159027e+003,4.558064e-003
1.160956e+003,4.624132e-003
1.162884e+003,4.537304e-003
1.164813e+003,4.400819e-003
1.166741e+003,4.319993e-003
1.168670e+003,4.219341e-003
1.170598e+003,4.214590e-003
1.172526e+003,4.152933e-003
1.174455e+003,4.087037e-003
1.176384e+003,4.042220e-003
1.178312e+003,4.117709e-003
1.180240e+003,4.258957e-003
1.182169e+003,4.209839e-003
1.184098e+003,4.094496e-003
1.186026e+003,3.944408e-003
1.187954e+003,3.675328e-003
1.189883e+003,3.314222e-003
1.191812e+003,3.164403e-003
1.193740e+003,3.199984e-003
1.195668e+003,3.085842e-003
1.197597e+003,2.921825e-003
1.199526e+003,2.870223e-003
1.201454e+003,2.654378e-003
1.203382e+003,2.477327e-003
1.205311e+003,2.397391e-003
1.207240e+003,2.346352e-003
1.209168e+003,2.414184e-003
1.211096e+003,2.513685e-003
1.213025e+003,2.490224e-003
1.214953e+003,2.578810e-003
1.216882e+003,2.588576e-003
1.218810e+003,2.466097e-003
1.220739e+003,2.446071e-003
1.222667e+003,2.682916e-003
1.224596e+003,2.845075e-003
1.226524e+003,2.919090e-003
1.228453e+003,3.095219e-003
1.230381e+003,3.327210e-003
1.232310e+003,3.480091e-003
1.234238e+003,3.579603e-003
1.236167e+003,3.737218e-003
1.238095e+003,3.865137e-003
1.240024e+003,3.978581e-003
1.241952e+003,4.169626e-003
1.243881e+003,4.170228e-003
1.245809e+003,4.250492e-003
1.247738e+003,4.228107e-003
1.249666e+003,4.142095e-003
1.251595e+003,4.334785e-003
1.253523e+003,4.520998e-003
1.255452e+003,4.573131e-003
1.257380e+003,4.548989e-003
1.259309e+003,4.546980e-003
1.261237e+003,4.680731e-003
1.263166e+003,4.776130e-003
1.265094e+003,4.968632e-003
1.267023e+003,5.352452e-003
1.268951e+003,5.782073e-003
1.270880e+003,6.091639e-003
1.272808e+003,6.369247e-003
1.274737e+003,6.602153e-003
1.276665e+003,6.955971e-003
1.278594e+003,7.332487e-003
1.280522e+003,7.452401e-003
1.282451e+003,7.550535e-003
1.284379e+003,7.807048e-003
1.286308e+003,8.283209e-003
1.288236e+003,8.639786e-003
1.290165e+003,8.845946e-003
1.292093e+003,9.061440e-003
1.294022e+003,9.183966e-003
1.295950e+003,9.295964e-003
1.297879e+003,9.323282e-003
1.299807e+003,9.394684e-003
1.301736e+003,9.312348e-003
1.303664e+003,9.289600e-003
1.305593e+003,9.432913e-003
1.307521e+003,9.366278e-003
1.309450e+003,9.016175e-003
1.311378e+003,8.755160e-003
1.313307e+003,8.516806e-003
1.315235e+003,8.327824e-003
1.317164e+003,8.246163e-003
1.319092e+003,7.980312e-003
1.321021e+003,7.477480e-003
1.322949e+003,7.122833e-003
1.324878e+003,7.029813e-003
1.326806e+003,6.957755e-003
1.328735e+003,6.963210e-003
1.330663e+003,6.950685e-003
1.332592e+003,6.950147e-003
1.334520e+003,6.955533e-003
1.336449e+003,6.987150e-003
1.338377e+003,7.051298e-003
1.340306e+003,7.125326e-003
1.342234e+003,7.205395e-003
1.344163e+003,7.324938e-003
1.346091e+003,7.505494e-003
1.348020e+003,7.656042e-003
1.349948e+003,7.563684e-003
1.351877e+003,7.368613e-003
1.353805e+003,7.407741e-003
1.355734e+003,7.286322e-003
1.357662e+003,7.038569e-003
1.359591e+003,6.844877e-003
1.361519e+003,6.580152e-003
1.363448e+003,6.413229e-003
1.365376e+003,6.299181e-003
1.367305e+003,6.154916e-003
1.369233e+003,6.059584e-003
1.371162e+003,5.926449e-003
1.373090e+003,5.909084e-003
1.375019e+003,5.992961e-003
1.376947e+003,6.017082e-003
1.378876e+003,6.220589e-003
1.380804e+003,6.506891e-003
1.382733e+003,6.494379e-003
1.384661e+003,6.318042e-003
1.386590e+003,6.288222e-003
1.388518e+003,6.246841e-003
1.390447e+003,6.079879e-003
1.392375e+003,5.869654e-003
1.394304e+003,5.735838e-003
1.396232e+003,5.620659e-003
1.398161e+003,5.506920e-003
1.400089e+003,5.381637e-003
1.402018e+003,5.325550e-003
1.403946e+003,5.198676e-003
1.405875e+003,5.018238e-003
1.407803e+003,4.911560e-003
1.409732e+003,4.683846e-003
1.411660e+003,4.502685e-003
1.413589e+003,4.297907e-003
1.415517e+003,4.299145e-003
1.417446e+003,4.626342e-003
1.419374e+003,5.070699e-003
1.421303e+003,5.438268e-003
1.423231e+003,5.836775e-003
1.425160e+003,6.448135e-003
1.427088e+003,6.976072e-003
1.429017e+003,7.376094e-003
1.430945e+003,7.708586e-003
1.432874e+003,7.979165e-003
1.434802e+003,8.255517e-003
1.436731e+003,8.694477e-003
1.438659e+003,9.081335e-003
1.440588e+003,9.330222e-003
1.442516e+003,9.746923e-003
1.444445e+003,1.030725e-002
1.446373e+003,1.082903e-002
1.448302e+003,1.127397e-002
1.450230e+003,1.162250e-002
1.452159e+003,1.199824e-002
1.454087e+003,1.243800e-002
1.456016e+003,1.283411e-002
1.457944e+003,1.318868e-002
1.459873e+003,1.329737e-002
1.461801e+003,1.325307e-002
1.463730e+003,1.310596e-002
1.465658e+003,1.294173e-002
1.467587e+003,1.269145e-002
1.469515e+003,1.242627e-002
1.471444e+003,1.221125e-002
1.473372e+003,1.178939e-002
1.475301e+003,1.139770e-002
1.477229e+003,1.098957e-002
1.479158e+003,1.049194e-002
1.481086e+003,9.781691e-003
1.483015e+003,9.095849e-003
1.484943e+003,8.653373e-003
1.486872e+003,8.308708e-003
1.488800e+003,7.966981e-003
1.490729e+003,7.561189e-003
1.492657e+003,7.133780e-003
1.494586e+003,6.876082e-003
1.496514e+003,6.678122e-003
1.498443e+003,6.396147e-003
1.500371e+003,6.135358e-003
1.502300e+003,5.850477e-003
1.504228e+003,5.700486e-003
1.506157e+003,5.716164e-003
1.508085e+003,5.746683e-003
1.510014e+003,5.624754e-003
1.511942e+003,5.456588e-003
1.513871e+003,5.341013e-003
1.515799e+003,5.295966e-003
1.517728e+003,5.359161e-003
1.519656e+003,5.362616e-003
1.521585e+003,5.358255e-003
1.523513e+003,5.414581e-003
1.525442e+003,5.673663e-003
1.527370e+003,6.001326e-003
1.529299e+003,6.105954e-003
1.531227e+003,6.172628e-003
1.533156e+003,6.397828e-003
1.535084e+003,6.601715e-003
1.537013e+003,6.818354e-003
1.538941e+003,7.235480e-003
1.540870e+003,7.576193e-003
1.542798e+003,7.679278e-003
1.544727e+003,7.897804e-003
1.546655e+003,8.095005e-003
1.548584e+003,8.187746e-003
1.550512e+003,8.362006e-003
1.552441e+003,8.607576e-003
1.554369e+003,8.807161e-003
1.556298e+003,8.985763e-003
1.558226e+003,9.411986e-003
1.560155e+003,9.743873e-003
1.562083e+003,9.926489e-003
1.564012e+003,1.027153e-002
1.565940e+003,1.050273e-002
1.567869e+003,1.062831e-002
1.569797e+003,1.070295e-002
1.571726e+003,1.076171e-002
1.573654e+003,1.081303e-002
1.575583e+003,1.085760e-002
1.577511e+003,1.068084e-002
1.579440e+003,1.043950e-002
1.581368e+003,1.042103e-002
1.583297e+003,1.031407e-002
1.585225e+003,1.011054e-002
1.587154e+003,1.000219e-002
1.589082e+003,9.832222e-003
1.591010e+003,9.541012e-003
1.592939e+003,9.270035e-003
1.594868e+003,9.009071e-003
1.596796e+003,8.810543e-003
1.598724e+003,8.659491e-003
1.600653e+003,8.394402e-003
1.602582e+003,8.124915e-003
1.604510e+003,7.857013e-003
1.606438e+003,7.605089e-003
1.608367e+003,7.345022e-003
1.610296e+003,7.110068e-003
1.612224e+003,6.783351e-003
1.614152e+003,6.537129e-003
1.616081e+003,6.385824e-003
1.618010e+003,6.317605e-003
1.619938e+003,6.186475e-003
1.621866e+003,6.000117e-003
1.623795e+003,5.759408e-003
1.625724e+003,5.724624e-003
1.627652e+003,5.775088e-003
1.629580e+003,5.620290e-003
1.631509e+003,5.454910e-003
1.633438e+003,5.462090e-003
1.635366e+003,5.387440e-003
1.637294e+003,5.060173e-003
1.639223e+003,4.743033e-003
1.641151e+003,4.449690e-003
1.643080e+003,4.053992e-003
1.645008e+003,3.832510e-003
1.646937e+003,3.703733e-003
1.648865e+003,3.426520e-003
1.650794e+003,3.247051e-003
1.652722e+003,3.242444e-003
1.654651e+003,3.120949e-003
1.656579e+003,2.946910e-003
1.658508e+003,2.646578e-003
1.660436e+003,2.538214e-003
1.662365e+003,2.517618e-003
1.664293e+003,2.332028e-003
1.666222e+003,2.352315e-003
1.668150e+003,2.437574e-003
1.670079e+003,2.155075e-003
1.672007e+003,1.889032e-003
1.673936e+003,1.698488e-003
1.675864e+003,1.550655e-003
1.677793e+003,1.245404e-003
1.679721e+003,9.662687e-004
1.681650e+003,7.043710e-004
1.683578e+003,6.293398e-004
1.685507e+003,4.595471e-004
1.687435e+003,2.078001e-004
1.689364e+003,-4.141557e-005
1.691292e+003,-2.438312e-004
1.693221e+003,-3.298235e-004
1.695149e+003,-3.716711e-004
1.697078e+003,-3.213475e-004
1.699006e+003,-2.837666e-004
1.700935e+003,-2.854222e-004
1.702863e+003,-3.803447e-004
1.704792e+003,-3.295586e-004
1.706720e+003,-2.790646e-004
1.708649e+003,-4.264576e-004
1.710577e+003,-5.686053e-004
1.712506e+003,-5.585126e-004
1.714434e+003,-4.215254e-004
1.716363e+003,-4.106017e-004
1.718291e+003,-4.703480e-004
1.720220e+003,-5.304832e-004
1.722148e+003,-5.979558e-004
1.724077e+003,-6.621757e-004
1.726005e+003,-6.950926e-004
1.727934e+003,-7.221190e-004
1.729862e+003,-7.216559e-004
1.731791e+003,-6.896673e-004
1.733719e+003,-7.090526e-004
1.735648e+003,-8.957159e-004
1.737576e+003,-9.875299e-004
1.739505e+003,-9.326158e-004
1.741433e+003,-8.195919e-004
1.743362e+003,-7.425944e-004
1.745290e+003,-7.620766e-004
1.747219e+003,-6.856975e-004
1.749147e+003,-6.017279e-004
1.751076e+003,-5.914373e-004
1.753004e+003,-7.164624e-004
1.754933e+003,-6.667412e-004
1.756861e+003,-5.369695e-004
1.758790e+003,-6.508941e-004
1.760718e+003,-7.322080e-004
1.762647e+003,-6.390828e-004
1.764575e+003,-6.231354e-004
1.766504e+003,-6.348809e-004
1.768432e+003,-5.857791e-004
1.770361e+003,-5.951764e-004
1.772289e+003,-6.150953e-004
1.774218e+003,-7.437852e-004
1.776146e+003,-7.895949e-004
1.778075e+003,-7.409405e-004
1.780003e+003,-7.491106e-004
1.781932e+003,-7.704447e-004
1.783860e+003,-8.020966e-004
1.785789e+003,-6.773277e-004
1.787717e+003,-5.881284e-004
1.789646e+003,-6.940671e-004
1.791574e+003,-7.149408e-004
1.793503e+003,-7.896280e-004
1.795431e+003,-8.564320e-004
1.797360e+003,-8.341100e-004
1.799288e+003,-7.461337e-004
1.801217e+003,-6.956550e-004
1.803145e+003,-6.994923e-004
1.805074e+003,-7.109712e-004
1.807002e+003,-7.268823e-004
1.808931e+003,-7.032305e-004
1.810859e+003,-5.983197e-004
1.812788e+003,-4.921591e-004
1.814716e+003,-4.792844e-004
1.816645e+003,-4.185462e-004
1.818573e+003,-5.278026e-004
1.820502e+003,-6.741518e-004
1.822430e+003,-7.118974e-004
1.824359e+003,-6.012315e-004
1.826287e+003,-5.822385e-004
1.828216e+003,-6.570477e-004
1.830144e+003,-6.731263e-004
1.832073e+003,-6.692556e-004
1.834001e+003,-6.542687e-004
1.835930e+003,-7.927699e-004
1.837858e+003,-8.625497e-004
1.839787e+003,-8.064291e-004
1.841715e+003,-7.025358e-004
1.843644e+003,-6.890057e-004
1.845572e+003,-7.566190e-004
1.847501e+003,-7.989877e-004
1.849429e+003,-7.504668e-004
1.851358e+003,-6.948611e-004
1.853286e+003,-6.585696e-004
1.855215e+003,-7.112689e-004
1.857143e+003,-7.855929e-004
1.859072e+003,-7.641604e-004
1.861000e+003,-6.957873e-004
1.862929e+003,-6.264109e-004
1.864857e+003,-6.194296e-004
1.866786e+003,-6.804375e-004
1.868714e+003,-6.887410e-004
1.870643e+003,-6.145990e-004
1.872571e+003,-5.166499e-004
1.874500e+003,-4.768683e-004
1.876428e+003,-4.835539e-004
1.878357e+003,-5.280012e-004
1.880285e+003,-5.662228e-004
1.882214e+003,-6.015955e-004
1.884142e+003,-6.090734e-004
1.886071e+003,-6.520521e-004
1.887999e+003,-6.797097e-004
1.889928e+003,-5.770765e-004
1.891856e+003,-5.453750e-004
1.893785e+003,-5.421320e-004
1.895713e+003,-5.278026e-004
1.897642e+003,-5.318731e-004
1.899570e+003,-5.448787e-004
1.901499e+003,-5.296558e-004
1.903427e+003,-5.159549e-004
1.905356e+003,-5.688039e-004
1.907284e+003,-5.886247e-004
1.909213e+003,-5.294242e-004
1.911141e+003,-5.134728e-004
1.913070e+003,-4.776295e-004
1.914998e+003,-4.954357e-004
1.916927e+003,-5.352487e-004
1.918855e+003,-5.590751e-004
1.920784e+003,-6.196282e-004
1.922712e+003,-6.948611e-004
1.924641e+003,-6.804375e-004
1.926569e+003,-6.366345e-004
1.928498e+003,-6.523167e-004
1.930426e+003,-6.204222e-004
1.932355e+003,-6.105292e-004
1.934283e+003,-6.294879e-004
1.936212e+003,-6.055661e-004
1.938140e+003,-5.966653e-004
1.940069e+003,-6.277013e-004
1.941997e+003,-5.617886e-004
1.943926e+003,-4.614445e-004
1.945854e+003,-4.703480e-004
1.947783e+003,-5.592075e-004
1.949711e+003,-5.990146e-004
1.951640e+003,-6.065587e-004
1.953568e+003,-6.151284e-004
1.955497e+003,-5.725431e-004
1.957425e+003,-6.009006e-004
1.959354e+003,-6.741187e-004
1.961282e+003,-6.231023e-004
1.963211e+003,-6.406047e-004
1.965139e+003,-6.403731e-004
1.967068e+003,-6.191650e-004
1.968996e+003,-6.024558e-004
1.970925e+003,-5.675133e-004
1.972853e+003,-6.018933e-004
1.974782e+003,-6.245250e-004
1.976710e+003,-6.279660e-004
1.978639e+003,-6.853997e-004
1.980567e+003,-6.680315e-004
1.982496e+003,-6.936701e-004
1.984424e+003,-7.406428e-004
1.986353e+003,-6.881125e-004
1.988281e+003,-5.564940e-004
1.990210e+003,-4.931189e-004
1.992138e+003,-4.844145e-004
1.994067e+003,-5.336602e-004
1.995995e+003,-5.983197e-004
1.997924e+003,-5.640057e-004
1.999852e+003,-4.989108e-004
2.001781e+003,-5.123806e-004
2.003709e+003,-5.851504e-004
2.005638e+003,-5.600016e-004
2.007566e+003,-6.023234e-004
2.009495e+003,-7.297932e-004
2.011423e+003,-7.326711e-004
2.013352e+003,-6.246573e-004
2.015280e+003,-5.314760e-004
2.017208e+003,-5.216471e-004
2.019137e+003,-6.201576e-004
2.021066e+003,-5.811796e-004
2.022994e+003,-4.230812e-004
2.024922e+003,-3.963342e-004
2.026851e+003,-4.582008e-004
2.028780e+003,-4.506872e-004
2.030708e+003,-4.440672e-004
2.032636e+003,-4.240081e-004
2.034565e+003,-3.834235e-004
2.036494e+003,-4.132499e-004
2.038422e+003,-4.500914e-004
2.040350e+003,-4.535338e-004
2.042279e+003,-3.717704e-004
2.044208e+003,-3.497215e-004
2.046136e+003,-4.274837e-004
2.048064e+003,-4.426770e-004
2.049993e+003,-3.650499e-004
2.051921e+003,-4.110651e-004
2.053850e+003,-4.949061e-004
2.055778e+003,-4.732606e-004
2.057707e+003,-3.554159e-004
2.059635e+003,-2.272069e-004
2.061564e+003,-2.504874e-004
2.063492e+003,-2.887334e-004
2.065421e+003,-3.523369e-004
2.067349e+003,-4.174870e-004
2.069278e+003,-4.209958e-004
2.071206e+003,-3.869326e-004
2.073135e+003,-3.346905e-004
2.075063e+003,-2.477719e-004
2.076992e+003,-1.771647e-004
2.078920e+003,-1.567289e-004
2.080849e+003,-1.608691e-004
2.082777e+003,-2.024349e-004
2.084706e+003,-1.260898e-004
2.086634e+003,-1.091298e-004
2.088563e+003,-1.227443e-004
2.090491e+003,-9.021462e-005
2.092420e+003,-2.816302e-005
2.094348e+003,-1.759382e-005
2.096277e+003,6.262379e-006
2.098205e+003,4.340776e-005
2.100134e+003,-2.630763e-005
2.102062e+003,8.184184e-006
2.103991e+003,1.038876e-004
2.105919e+003,1.242041e-004
2.107848e+003,1.026945e-004
2.109776e+003,6.508013e-005
2.111705e+003,6.680336e-005
2.113633e+003,9.944664e-005
2.115562e+003,1.160841e-004
2.117490e+003,1.578130e-004
2.119419e+003,2.092256e-004
2.121347e+003,2.062089e-004
2.123276e+003,1.486647e-004
2.125204e+003,1.162829e-004
2.127133e+003,1.143938e-004
2.129061e+003,1.191995e-004
2.130990e+003,1.956343e-004
2.132918e+003,3.186344e-004
2.134847e+003,2.772879e-004
2.136775e+003,1.863195e-004
2.138704e+003,2.147948e-004
2.140632e+003,2.861404e-004
2.142561e+003,2.565664e-004
2.144489e+003,2.095239e-004
2.146418e+003,2.631640e-004
2.148346e+003,3.696018e-004
2.150275e+003,3.993162e-004
2.152203e+003,3.648928e-004
2.154132e+003,3.587579e-004
2.156060e+003,3.772623e-004
2.157989e+003,3.545132e-004
2.159917e+003,3.252661e-004
2.161846e+003,3.979564e-004
2.163774e+003,4.236596e-004
2.165703e+003,4.583530e-004
2.167631e+003,5.039296e-004
2.169560e+003,5.457622e-004
2.171488e+003,5.935710e-004
2.173417e+003,5.681895e-004
2.175345e+003,5.434399e-004
2.177274e+003,5.245302e-004
2.179202e+003,4.718862e-004
2.181131e+003,4.427970e-004
2.183059e+003,4.951722e-004
2.184988e+003,4.837944e-004
2.186916e+003,4.473079e-004
2.188845e+003,4.171259e-004
2.190773e+003,3.910583e-004
2.192702e+003,4.698297e-004
2.194630e+003,5.197201e-004
2.196559e+003,4.237923e-004
2.198487e+003,3.758695e-004
2.200416e+003,3.242050e-004
2.202344e+003,2.803382e-004
2.204273e+003,3.169765e-004
2.206201e+003,3.417464e-004
2.208130e+003,2.794098e-004
2.210058e+003,2.253036e-004
2.211987e+003,2.585556e-004
2.213915e+003,3.042107e-004
2.215844e+003,2.831564e-004
2.217772e+003,2.679714e-004
2.219701e+003,3.693365e-004
2.221629e+003,3.400884e-004
2.223558e+003,2.601138e-004
2.225486e+003,2.480460e-004
2.227415e+003,2.719499e-004
2.229343e+003,3.221823e-004
2.231272e+003,3.682421e-004
2.233200e+003,2.945952e-004
2.235129e+003,3.423101e-004
2.237057e+003,4.604758e-004
2.238986e+003,3.879741e-004
2.240914e+003,2.584561e-004
2.242843e+003,2.958883e-004
2.244771e+003,3.405858e-004
2.246700e+003,3.427744e-004
2.248628e+003,3.354792e-004
2.250557e+003,2.852784e-004
2.252485e+003,2.710216e-004
2.254414e+003,3.356781e-004
2.256342e+003,3.687064e-004
2.258271e+003,3.324948e-004
2.260199e+003,2.689660e-004
2.262128e+003,2.178778e-004
2.264056e+003,2.607106e-004
2.265985e+003,2.733424e-004
2.267913e+003,1.505209e-004
2.269842e+003,1.223150e-004
2.271770e+003,1.861206e-004
2.273699e+003,1.605641e-004
2.275627e+003,1.707733e-004
2.277556e+003,2.022641e-004
2.279484e+003,1.937780e-004
2.281413e+003,2.111151e-004
2.283341e+003,1.526091e-004
2.285270e+003,5.715998e-005
2.287198e+003,8.198135e-005
2.289127e+003,1.074007e-004
2.291055e+003,1.633153e-004
2.292984e+003,1.985846e-004
2.294912e+003,1.216190e-004
2.296841e+003,1.388870e-004
2.298769e+003,2.012034e-004
2.300698e+003,2.062089e-004
2.302626e+003,2.700933e-004
2.304555e+003,3.404200e-004
2.306483e+003,4.588506e-004
2.308412e+003,5.864707e-004
2.310340e+003,5.530277e-004
2.312269e+003,5.764508e-004
2.314197e+003,7.031099e-004
2.316125e+003,8.128424e-004
2.318054e+003,8.501896e-004
2.319983e+003,8.223698e-004
2.321911e+003,9.216397e-004
2.323840e+003,1.034051e-003
2.325768e+003,1.136359e-003
2.327697e+003,1.238924e-003
2.329625e+003,1.299072e-003
2.331553e+003,1.264544e-003
2.333482e+003,1.287341e-003
2.335411e+003,1.421720e-003
2.337339e+003,1.522790e-003
2.339268e+003,1.506863e-003
2.341196e+003,1.473383e-003
2.343125e+003,1.366209e-003
2.345053e+003,1.199783e-003
2.346981e+003,9.394708e-004
2.348910e+003,7.223260e-004
2.350839e+003,9.289779e-004
2.352767e+003,1.230351e-003
2.354696e+003,1.414640e-003
2.356624e+003,1.666855e-003
2.358552e+003,1.794464e-003
2.360481e+003,1.776898e-003
2.362409e+003,1.853625e-003
2.364338e+003,1.929300e-003
2.366267e+003,1.844441e-003
2.368195e+003,1.608984e-003
2.370124e+003,1.428801e-003
2.372052e+003,1.335564e-003
2.373980e+003,1.146558e-003
2.375909e+003,8.761188e-004
2.377838e+003,8.673538e-004
2.379766e+003,8.858800e-004
2.381695e+003,7.123362e-004
2.383623e+003,6.812729e-004
2.385552e+003,7.904688e-004
2.387480e+003,7.483471e-004
2.389408e+003,7.609599e-004
2.391337e+003,8.212742e-004
2.393266e+003,7.991990e-004
2.395194e+003,8.340552e-004
2.397123e+003,8.234985e-004
2.399051e+003,7.628851e-004
2.400979e+003,7.759299e-004
2.402908e+003,8.695450e-004
2.404836e+003,9.439204e-004
2.406765e+003,9.194482e-004
2.408694e+003,8.830247e-004
2.410622e+003,8.888017e-004
2.412551e+003,9.081921e-004
2.414479e+003,8.791069e-004
2.416407e+003,8.287104e-004
2.418336e+003,8.097884e-004
2.420264e+003,8.150997e-004
2.422193e+003,9.317671e-004
2.424122e+003,1.070089e-003
2.426050e+003,1.075038e-003
2.427979e+003,1.097426e-003
2.429907e+003,1.161542e-003
2.431835e+003,1.221147e-003
2.433764e+003,1.289834e-003
2.435692e+003,1.321838e-003
2.437621e+003,1.309076e-003
2.439550e+003,1.421122e-003
2.441478e+003,1.459054e-003
2.443406e+003,1.442232e-003
2.445335e+003,1.379305e-003
2.447263e+003,1.317185e-003
2.449192e+003,1.378009e-003
2.451121e+003,1.434652e-003
2.453049e+003,1.440603e-003
2.454978e+003,1.476874e-003
2.456906e+003,1.528775e-003
2.458834e+003,1.565718e-003
2.460763e+003,1.581282e-003
2.462691e+003,1.605991e-003
2.464620e+003,1.640479e-003
2.466549e+003,1.754840e-003
2.468477e+003,1.733117e-003
2.470406e+003,1.669083e-003
2.472334e+003,1.596280e-003
2.474262e+003,1.666921e-003
2.476191e+003,1.818986e-003
2.478119e+003,1.800753e-003
2.480048e+003,1.767482e-003
2.481977e+003,1.789307e-003
2.483905e+003,1.759298e-003
2.485833e+003,1.730389e-003
2.487762e+003,1.827105e-003
2.489690e+003,1.920614e-003
2.491619e+003,1.918717e-003
2.493547e+003,1.987847e-003
2.495476e+003,1.952798e-003
2.497405e+003,1.931797e-003
2.499333e+003,2.016740e-003
2.501261e+003,2.194935e-003
2.503190e+003,2.211020e-003
2.505118e+003,2.062847e-003
2.507047e+003,1.949503e-003
2.508975e+003,2.027093e-003
2.510904e+003,2.150113e-003
2.512833e+003,2.212319e-003
2.514761e+003,2.183879e-003
2.516689e+003,2.168228e-003
2.518618e+003,2.159470e-003
2.520546e+003,2.142688e-003
2.522475e+003,2.173589e-003
2.524403e+003,2.225374e-003
2.526332e+003,2.293753e-003
2.528260e+003,2.319735e-003
2.530189e+003,2.326564e-003
2.532117e+003,2.346785e-003
2.534046e+003,2.247222e-003
2.535974e+003,2.282695e-003
2.537903e+003,2.319902e-003
2.539831e+003,2.257214e-003
2.541760e+003,2.283860e-003
2.543688e+003,2.261644e-003
2.545617e+003,2.175421e-003
2.547545e+003,2.267606e-003
2.549474e+003,2.407154e-003
2.551402e+003,2.417049e-003
2.553331e+003,2.371971e-003
2.555259e+003,2.311807e-003
2.557188e+003,2.302913e-003
2.559116e+003,2.305445e-003
2.561045e+003,2.373037e-003
2.562973e+003,2.481093e-003
2.564902e+003,2.506953e-003
2.566830e+003,2.447071e-003
2.568759e+003,2.473362e-003
2.570687e+003,2.577410e-003
2.572616e+003,2.607576e-003
2.574544e+003,2.569277e-003
2.576473e+003,2.497455e-003
2.578401e+003,2.418582e-003
2.580330e+003,2.429744e-003
2.582258e+003,2.503021e-003
2.584187e+003,2.599042e-003
2.586115e+003,2.600776e-003
2.588044e+003,2.641410e-003
2.589972e+003,2.725526e-003
2.591901e+003,2.706854e-003
2.593829e+003,2.725459e-003
2.595758e+003,2.784113e-003
2.597686e+003,2.840040e-003
2.599615e+003,2.832168e-003
2.601543e+003,2.723125e-003
2.603472e+003,2.681449e-003
2.605400e+003,2.677248e-003
2.607329e+003,2.681882e-003
2.609257e+003,2.742197e-003
2.611186e+003,2.789982e-003
2.613114e+003,2.734795e-003
2.615043e+003,2.728060e-003
2.616971e+003,2.891704e-003
2.618900e+003,2.944275e-003
2.620828e+003,2.946344e-003
2.622757e+003,3.062984e-003
2.624685e+003,3.159931e-003
2.626614e+003,3.078501e-003
2.628542e+003,2.974300e-003
2.630471e+003,2.945610e-003
2.632399e+003,2.986077e-003
2.634328e+003,2.958887e-003
2.636256e+003,2.869957e-003
2.638185e+003,2.894372e-003
2.640113e+003,3.019707e-003
2.642042e+003,3.068590e-003
2.643970e+003,3.020341e-003
2.645899e+003,3.104497e-003
2.647827e+003,3.256665e-003
2.649756e+003,3.321500e-003
2.651684e+003,3.273958e-003
2.653613e+003,3.382339e-003
2.655541e+003,3.545929e-003
2.657470e+003,3.512457e-003
2.659398e+003,3.478221e-003
2.661327e+003,3.485636e-003
2.663255e+003,3.526988e-003
2.665184e+003,3.628215e-003
2.667112e+003,3.752492e-003
2.669041e+003,3.821413e-003
2.670969e+003,3.783141e-003
2.672898e+003,3.756636e-003
2.674826e+003,3.737185e-003
2.676755e+003,3.793201e-003
2.678683e+003,3.841536e-003
2.680612e+003,3.862530e-003
2.682540e+003,3.889040e-003
2.684469e+003,3.865471e-003
2.686397e+003,4.005767e-003
2.688326e+003,4.029077e-003
2.690254e+003,3.994231e-003
2.692183e+003,4.019311e-003
2.694111e+003,4.078809e-003
2.696040e+003,4.172436e-003
2.697968e+003,4.271572e-003
2.699897e+003,4.310054e-003
2.701825e+003,4.288001e-003
2.703754e+003,4.267222e-003
2.705682e+003,4.361592e-003
2.707611e+003,4.521769e-003
2.709539e+003,4.696975e-003
2.711468e+003,4.714393e-003
2.713396e+003,4.681769e-003
2.715325e+003,4.651124e-003
2.717253e+003,4.713388e-003
2.719182e+003,4.714828e-003
2.721110e+003,4.729935e-003
2.723039e+003,4.859822e-003
2.724967e+003,5.005065e-003
2.726896e+003,5.076934e-003
2.728824e+003,5.089807e-003
2.730753e+003,5.174030e-003
2.732681e+003,5.328870e-003
2.734610e+003,5.373955e-003
2.736538e+003,5.367983e-003
2.738467e+003,5.468633e-003
2.740395e+003,5.661544e-003
2.742324e+003,5.690347e-003
2.744252e+003,5.648587e-003
2.746181e+003,5.697934e-003
2.748109e+003,5.913249e-003
2.750038e+003,6.057803e-003
2.751966e+003,6.031664e-003
2.753895e+003,6.088750e-003
2.755823e+003,6.207010e-003
2.757752e+003,6.265733e-003
2.759680e+003,6.448539e-003
2.761609e+003,6.722337e-003
2.763537e+003,7.004659e-003
2.765466e+003,7.174066e-003
2.767394e+003,7.356009e-003
2.769323e+003,7.646027e-003
2.771251e+003,8.064522e-003
2.773180e+003,8.519340e-003
2.775108e+003,8.834212e-003
2.777037e+003,9.240046e-003
2.778965e+003,9.770813e-003
2.780894e+003,1.036599e-002
2.782822e+003,1.091319e-002
2.784750e+003,1.144481e-002
2.786679e+003,1.222666e-002
2.788608e+003,1.299533e-002
2.790536e+003,1.369783e-002
2.792465e+003,1.445380e-002
2.794393e+003,1.512065e-002
2.796322e+003,1.571681e-002
2.798250e+003,1.635512e-002
2.800178e+003,1.716182e-002
2.802107e+003,1.786626e-002
2.804036e+003,1.842825e-002
2.805964e+003,1.889686e-002
2.807893e+003,1.916391e-002
2.809821e+003,1.926410e-002
2.811750e+003,1.933206e-002
2.813678e+003,1.929891e-002
2.815606e+003,1.918254e-002
2.817535e+003,1.907752e-002
2.819464e+003,1.895553e-002
2.821392e+003,1.869155e-002
2.823321e+003,1.827499e-002
2.825249e+003,1.777388e-002
2.827177e+003,1.739207e-002
2.829106e+003,1.708293e-002
2.831034e+003,1.650250e-002
2.832963e+003,1.587704e-002
2.834892e+003,1.538734e-002
2.836820e+003,1.478120e-002
2.838749e+003,1.419751e-002
2.840677e+003,1.352483e-002
2.842605e+003,1.272847e-002
2.844534e+003,1.199146e-002
2.846462e+003,1.127540e-002
2.848391e+003,1.057019e-002
2.850320e+003,1.014676e-002
2.852248e+003,1.000287e-002
2.854177e+003,9.880963e-003
2.856105e+003,9.716426e-003
2.858033e+003,9.614719e-003
2.859962e+003,9.605506e-003
2.861890e+003,9.596054e-003
2.863819e+003,9.641313e-003
2.865748e+003,9.790536e-003
2.867676e+003,9.866795e-003
2.869604e+003,9.843814e-003
2.871533e+003,9.888488e-003
2.873461e+003,9.984665e-003
2.875390e+003,1.009806e-002
2.877319e+003,1.018431e-002
2.879247e+003,1.041506e-002
2.881176e+003,1.056506e-002
2.883104e+003,1.050389e-002
2.885032e+003,1.042606e-002
2.886961e+003,1.040383e-002
2.888889e+003,1.033976e-002
2.890818e+003,1.018444e-002
2.892747e+003,1.002735e-002
2.894675e+003,9.990395e-003
2.896604e+003,9.918014e-003
2.898532e+003,9.793078e-003
2.900460e+003,9.627219e-003
2.902389e+003,9.561097e-003
2.904317e+003,9.501758e-003
2.906246e+003,9.425971e-003
2.908175e+003,9.436942e-003
2.910103e+003,9.353819e-003
2.912031e+003,9.192189e-003
2.913960e+003,8.922783e-003
2.915888e+003,8.630525e-003
2.917817e+003,8.637791e-003
2.919745e+003,8.872763e-003
2.921674e+003,9.077409e-003
2.923603e+003,9.155945e-003
2.925531e+003,9.335672e-003
2.927459e+003,9.698299e-003
2.929388e+003,1.002627e-002
2.931316e+003,1.033989e-002
2.933245e+003,1.063578e-002
2.935173e+003,1.086599e-002
2.937102e+003,1.105336e-002
2.939031e+003,1.117078e-002
2.940959e+003,1.129247e-002
2.942887e+003,1.131253e-002
2.944816e+003,1.125006e-002
2.946744e+003,1.106506e-002
2.948673e+003,1.073389e-002
2.950601e+003,1.034973e-002
2.952530e+003,1.002366e-002
2.954458e+003,9.593175e-003
2.956387e+003,9.058801e-003
2.958315e+003,8.500654e-003
2.960244e+003,7.913799e-003
2.962172e+003,7.362984e-003
2.964101e+003,6.824480e-003
2.966029e+003,6.278507e-003
2.967958e+003,5.811153e-003
2.969886e+003,5.456521e-003
2.971815e+003,5.037244e-003
2.973743e+003,4.720958e-003
2.975672e+003,4.429037e-003
2.977600e+003,4.168388e-003
2.979529e+003,3.917191e-003
2.981457e+003,3.588156e-003
2.983386e+003,3.313154e-003
2.985314e+003,2.999789e-003
2.987243e+003,2.845009e-003
2.989171e+003,2.776476e-003
2.991100e+003,2.635677e-003
2.993028e+003,2.463432e-003
2.994957e+003,2.341855e-003
2.996885e+003,2.214184e-003
2.998814e+003,2.155574e-003
3.000742e+003,2.057686e-003
3.002671e+003,1.979858e-003
3.004599e+003,1.889298e-003
3.006528e+003,1.842977e-003
3.008456e+003,1.812398e-003
3.010385e+003,1.734181e-003
3.012313e+003,1.731387e-003
3.014242e+003,1.735479e-003
3.016170e+003,1.685947e-003
3.018099e+003,1.679827e-003
3.020027e+003,1.649958e-003
3.021956e+003,1.549092e-003
3.023884e+003,1.519465e-003
3.025813e+003,1.494761e-003
3.027741e+003,1.381266e-003
3.029670e+003,1.408723e-003
3.031598e+003,1.452571e-003
3.033527e+003,1.367937e-003
3.035455e+003,1.367505e-003
3.037384e+003,1.336761e-003
3.039312e+003,1.201377e-003
3.041241e+003,1.067000e-003
3.043169e+003,1.023456e-003
3.045098e+003,1.078758e-003
3.047026e+003,1.097626e-003
3.048955e+003,9.563065e-004
3.050883e+003,8.154649e-004
3.052812e+003,8.029501e-004
3.054740e+003,8.341880e-004
3.056669e+003,8.564643e-004
3.058597e+003,8.608134e-004
3.060526e+003,7.612586e-004
3.062454e+003,7.430366e-004
3.064383e+003,7.914314e-004
3.066311e+003,6.978663e-004
3.068240e+003,5.921443e-004
3.070168e+003,5.753228e-004
3.072097e+003,5.167344e-004
3.074025e+003,4.878081e-004
3.075954e+003,4.814061e-004
3.077882e+003,4.461138e-004
3.079811e+003,4.074415e-004
3.081739e+003,3.361092e-004
3.083668e+003,3.756042e-004
3.085596e+003,3.741450e-004
3.087525e+003,2.391611e-004
3.089453e+003,2.042863e-004
3.091382e+003,1.600669e-004
3.093310e+003,8.814549e-005
3.095239e+003,1.028602e-004
3.097167e+003,9.851867e-005
3.099096e+003,6.620686e-005
3.101024e+003,2.090808e-005
3.102953e+003,-5.427017e-005
3.104881e+003,-1.152249e-004
3.106810e+003,-1.500050e-004
3.108738e+003,-1.113492e-004
3.110667e+003,-1.363914e-004
3.112595e+003,-1.414593e-004
3.114524e+003,-1.041941e-004
3.116452e+003,-7.911688e-005
3.118381e+003,-1.212868e-004
3.120309e+003,-2.936671e-004
3.122238e+003,-3.688902e-004
3.124166e+003,-3.551180e-004
3.126095e+003,-2.650577e-004
3.128023e+003,-2.541631e-004
3.129952e+003,-2.446591e-004
3.131880e+003,-2.686009e-004
3.133809e+003,-3.506154e-004
3.135737e+003,-3.216786e-004
3.137666e+003,-2.539644e-004
3.139594e+003,-3.036998e-004
3.141523e+003,-3.479337e-004
3.143451e+003,-3.675329e-004
3.145380e+003,-4.403600e-004
3.147308e+003,-4.025907e-004
3.149237e+003,-3.812716e-004
3.151165e+003,-4.963623e-004
3.153094e+003,-6.147644e-004
3.155022e+003,-6.519528e-004
3.156951e+003,-5.435219e-004
3.158879e+003,-3.788550e-004
3.160808e+003,-2.879718e-004
3.162736e+003,-2.999583e-004
3.164665e+003,-3.244929e-004
3.166593e+003,-4.386388e-004
3.168522e+003,-5.221766e-004
3.170450e+003,-5.212831e-004
3.172379e+003,-4.344681e-004
3.174307e+003,-4.060004e-004
3.176236e+003,-4.021935e-004
3.178164e+003,-3.819668e-004
3.180093e+003,-2.798924e-004
3.182021e+003,-3.803447e-004
3.183950e+003,-6.698180e-004
3.185878e+003,-7.031643e-004
3.187807e+003,-5.160210e-004
3.189735e+003,-4.359576e-004
3.191664e+003,-4.239088e-004
3.193592e+003,-5.113216e-004
3.195521e+003,-6.054668e-004
3.197449e+003,-4.498597e-004
3.199378e+003,-2.635345e-004
3.201306e+003,-2.153841e-004
3.203235e+003,-3.864691e-004
3.205163e+003,-4.349646e-004
3.207092e+003,-4.052390e-004
3.209020e+003,-3.007529e-004
3.210948e+003,-1.969372e-004
3.212877e+003,-1.446391e-004
3.214806e+003,-1.194318e-004
3.216734e+003,-1.692157e-004
3.218663e+003,-3.243936e-004
3.220591e+003,-2.811507e-004
3.222520e+003,-6.891334e-005
3.224448e+003,-5.937214e-005
3.226376e+003,-1.093948e-004
3.228305e+003,6.882485e-005
3.230234e+003,7.889931e-005
3.232162e+003,9.480683e-005
3.234091e+003,1.951371e-004
3.236019e+003,2.572294e-004
3.237948e+003,2.092919e-004
3.239876e+003,2.848473e-004
3.241804e+003,3.958007e-004
3.243733e+003,4.550693e-004
3.245662e+003,4.780559e-004
3.247590e+003,4.209068e-004
3.249519e+003,5.572743e-004
3.251447e+003,5.984484e-004
3.253375e+003,5.594640e-004
3.255304e+003,6.594702e-004
3.257232e+003,8.032820e-004
3.259161e+003,8.671214e-004
3.261090e+003,9.218389e-004
3.263018e+003,9.503292e-004
3.264947e+003,8.069003e-004
3.266875e+003,7.026453e-004
3.268803e+003,7.589684e-004
3.270732e+003,8.622742e-004
3.272660e+003,1.066568e-003
3.274589e+003,1.105897e-003
3.276518e+003,1.035612e-003
3.278446e+003,1.010803e-003
3.280375e+003,9.575019e-004
3.282303e+003,1.011699e-003
3.284231e+003,1.020799e-003
3.286160e+003,1.023456e-003
3.288088e+003,1.025914e-003
3.290017e+003,1.030796e-003
3.291946e+003,9.440864e-004
3.293874e+003,7.475837e-004
3.295802e+003,6.651448e-004
3.297731e+003,7.408460e-004
3.299659e+003,7.379252e-004
3.301588e+003,6.523025e-004
3.303516e+003,5.509377e-004
3.305445e+003,5.505727e-004
3.307374e+003,4.334438e-004
3.309302e+003,3.328264e-004
3.311230e+003,2.681703e-004
3.313159e+003,2.098886e-004
3.315087e+003,1.301369e-004
3.317016e+003,2.326072e-005
3.318944e+003,-1.383788e-004
3.320873e+003,-2.018719e-004
3.322802e+003,-2.904552e-004
3.324730e+003,-4.757429e-004
3.326658e+003,-5.527877e-004
3.328587e+003,-5.513317e-004
3.330515e+003,-5.751572e-004
3.332444e+003,-6.552943e-004
3.334372e+003,-7.576444e-004
3.336301e+003,-8.747517e-004
3.338229e+003,-8.799102e-004
3.340158e+003,-7.755713e-004
3.342086e+003,-8.423445e-004
3.344015e+003,-8.656912e-004
3.345943e+003,-8.710151e-004
3.347872e+003,-1.012885e-003
3.349800e+003,-9.865381e-004
3.351729e+003,-1.040454e-003
3.353657e+003,-1.321163e-003
3.355586e+003,-1.356474e-003
3.357514e+003,-1.378043e-003
3.359443e+003,-1.501026e-003
3.361371e+003,-1.387357e-003
3.363300e+003,-1.334839e-003
3.365229e+003,-1.556925e-003
3.367157e+003,-1.671044e-003
3.369085e+003,-1.748900e-003
3.371014e+003,-1.810211e-003
3.372942e+003,-1.836509e-003
3.374871e+003,-2.015597e-003
3.376799e+003,-2.026184e-003
3.378728e+003,-2.136224e-003
3.380656e+003,-2.312816e-003
3.382585e+003,-2.467460e-003
3.384513e+003,-2.595899e-003
3.386442e+003,-2.549884e-003
3.388370e+003,-2.457544e-003
3.390299e+003,-2.492598e-003
3.392227e+003,-2.457675e-003
3.394156e+003,-2.463869e-003
3.396084e+003,-2.613092e-003
3.398013e+003,-2.668485e-003
3.399941e+003,-2.631799e-003
3.401870e+003,-2.547875e-003
3.403798e+003,-2.501657e-003
3.405727e+003,-2.706354e-003
3.407655e+003,-2.717945e-003
3.409584e+003,-2.576993e-003
3.411512e+003,-2.662163e-003
3.413441e+003,-2.858127e-003
3.415369e+003,-2.823662e-003
3.417298e+003,-2.723049e-003
3.419226e+003,-2.862702e-003
3.421155e+003,-2.991551e-003
3.423083e+003,-2.910066e-003
3.425012e+003,-2.835118e-003
3.426940e+003,-2.750608e-003
3.428869e+003,-2.798313e-003
3.430797e+003,-2.866488e-003
3.432726e+003,-3.003199e-003
3.434654e+003,-3.228775e-003
3.436583e+003,-3.339990e-003
3.438511e+003,-3.246962e-003
3.440440e+003,-3.063709e-003
3.442368e+003,-3.070782e-003
3.444297e+003,-3.144441e-003
3.446225e+003,-3.108616e-003
3.448154e+003,-3.135000e-003
3.450082e+003,-3.153816e-003
3.452011e+003,-3.239628e-003
3.453939e+003,-3.458014e-003
3.455868e+003,-3.544753e-003
3.457796e+003,-3.396278e-003
3.459725e+003,-3.232294e-003
3.461653e+003,-3.236603e-003
3.463582e+003,-3.269391e-003
3.465510e+003,-3.317467e-003
3.467439e+003,-3.268339e-003
3.469367e+003,-3.275080e-003
3.471296e+003,-3.328581e-003
3.473224e+003,-3.360408e-003
3.475153e+003,-3.375335e-003
3.477081e+003,-3.341865e-003
3.479010e+003,-3.435168e-003
3.480938e+003,-3.507745e-003
3.482867e+003,-3.372080e-003
3.484795e+003,-3.245121e-003
3.486724e+003,-3.427213e-003
3.488652e+003,-3.460841e-003
3.490581e+003,-3.535518e-003
3.492509e+003,-3.658647e-003
3.494438e+003,-3.482371e-003
3.496366e+003,-3.154474e-003
3.498295e+003,-3.244200e-003
3.500223e+003,-3.489570e-003
3.502152e+003,-3.458376e-003
3.504080e+003,-3.473628e-003
3.506009e+003,-3.434511e-003
3.507937e+003,-3.167730e-003
3.509866e+003,-3.123387e-003
3.511794e+003,-3.300368e-003
3.513723e+003,-3.602426e-003
3.515651e+003,-3.662754e-003
3.517580e+003,-3.496143e-003
3.519508e+003,-3.556617e-003
3.521437e+003,-3.547283e-003
3.523365e+003,-3.567462e-003
3.525294e+003,-3.622898e-003
3.527222e+003,-3.544391e-003
3.529151e+003,-3.503111e-003
3.531079e+003,-3.490753e-003
3.533008e+003,-3.595329e-003
3.534936e+003,-3.711312e-003
3.536865e+003,-3.619941e-003
3.538793e+003,-3.433886e-003
3.540722e+003,-3.332165e-003
3.542650e+003,-3.352057e-003
3.544579e+003,-3.345613e-003
3.546507e+003,-3.520367e-003
3.548436e+003,-3.728920e-003
3.550364e+003,-3.639097e-003
3.552293e+003,-3.588822e-003
3.554221e+003,-3.687789e-003
3.556150e+003,-3.814948e-003
3.558078e+003,-3.736870e-003
3.560007e+003,-3.663674e-003
3.561935e+003,-3.607816e-003
3.563864e+003,-3.684044e-003
3.565792e+003,-3.657924e-003
3.567721e+003,-3.548828e-003
3.569649e+003,-3.702935e-003
3.571578e+003,-3.935568e-003
3.573506e+003,-3.762985e-003
3.575435e+003,-3.490391e-003
3.577363e+003,-3.612120e-003
3.579292e+003,-3.774252e-003
3.581220e+003,-3.959931e-003
3.583149e+003,-4.103061e-003
3.585077e+003,-3.973688e-003
3.587006e+003,-3.836756e-003
3.588934e+003,-3.770737e-003
3.590863e+003,-3.844408e-003
3.592791e+003,-4.057862e-003
3.594720e+003,-4.085041e-003
3.596648e+003,-3.910941e-003
3.598577e+003,-3.661670e-003
3.600505e+003,-3.540349e-003
3.602434e+003,-3.697448e-003
3.604362e+003,-3.695608e-003
3.606291e+003,-3.817674e-003
3.608219e+003,-3.923353e-003
3.610148e+003,-3.836493e-003
3.612076e+003,-3.808478e-003
3.614005e+003,-3.902108e-003
3.615933e+003,-3.986657e-003
3.617862e+003,-3.771099e-003
3.619790e+003,-3.567724e-003
3.621719e+003,-3.737856e-003
3.623647e+003,-4.043615e-003
3.625576e+003,-4.013971e-003
3.627504e+003,-3.619579e-003
3.629433e+003,-3.391807e-003
3.631361e+003,-3.726621e-003
3.633290e+003,-3.890319e-003
3.635218e+003,-3.896263e-003
3.637146e+003,-3.976610e-003
3.639075e+003,-4.080183e-003
3.641004e+003,-4.013807e-003
3.642932e+003,-3.999100e-003
3.644861e+003,-4.070598e-003
3.646789e+003,-3.879022e-003
3.648718e+003,-3.755003e-003
3.650646e+003,-3.879581e-003
3.652574e+003,-4.034424e-003
3.654503e+003,-4.118553e-003
3.656432e+003,-3.998377e-003
3.658360e+003,-4.128333e-003
3.660289e+003,-4.241910e-003
3.662217e+003,-4.316748e-003
3.664146e+003,-4.242993e-003
3.666074e+003,-4.217596e-003
3.668002e+003,-4.259957e-003
3.669931e+003,-4.248210e-003
3.671860e+003,-4.374844e-003
3.673788e+003,-4.426603e-003
3.675717e+003,-4.158691e-003
3.677645e+003,-3.996276e-003
3.679573e+003,-4.167979e-003
3.681502e+003,-4.207260e-003
3.683430e+003,-4.289485e-003
3.685359e+003,-4.358836e-003
3.687288e+003,-4.158298e-003
3.689216e+003,-3.784336e-003
3.691145e+003,-3.852389e-003
3.693073e+003,-4.160890e-003
3.695001e+003,-4.389080e-003
3.696930e+003,-4.453562e-003
3.698858e+003,-4.415385e-003
3.700787e+003,-4.224487e-003
3.702716e+003,-4.021719e-003
3.704644e+003,-3.976873e-003
3.706573e+003,-4.097153e-003
3.708501e+003,-4.096792e-003
3.710429e+003,-3.886674e-003
3.712358e+003,-3.833472e-003
3.714286e+003,-4.083991e-003
3.716215e+003,-4.326196e-003
3.718144e+003,-4.195906e-003
3.720072e+003,-4.131517e-003
3.722000e+003,-4.102175e-003
3.723929e+003,-4.027760e-003
3.725857e+003,-3.731483e-003
3.727786e+003,-3.708289e-003
3.729714e+003,-4.043911e-003
3.731643e+003,-4.228589e-003
3.733572e+003,-4.157313e-003
3.735500e+003,-3.909037e-003
3.737428e+003,-3.947389e-003
3.739357e+003,-4.134241e-003
3.741285e+003,-4.000675e-003
3.743214e+003,-3.797080e-003
3.745142e+003,-3.668766e-003
3.747071e+003,-3.799380e-003
3.749000e+003,-3.594277e-003
3.750928e+003,-3.561776e-003
3.752856e+003,-3.735129e-003
3.754785e+003,-3.940690e-003
3.756713e+003,-3.726095e-003
3.758642e+003,-3.716338e-003
3.760570e+003,-3.943383e-003
3.762499e+003,-4.009408e-003
3.764427e+003,-3.846904e-003
3.766356e+003,-3.776354e-003
3.768284e+003,-3.646227e-003
3.770213e+003,-3.613172e-003
3.772141e+003,-3.727278e-003
3.774070e+003,-3.640477e-003
3.775998e+003,-3.744590e-003
3.777927e+003,-3.932383e-003
3.779855e+003,-4.051461e-003
3.781784e+003,-4.051953e-003
3.783712e+003,-3.968107e-003
3.785641e+003,-3.861650e-003
3.787569e+003,-3.789789e-003
3.789498e+003,-3.794453e-003
3.791426e+003,-3.875837e-003
3.793355e+003,-3.924798e-003
3.795283e+003,-3.868809e-003
3.797212e+003,-3.889662e-003
3.799140e+003,-3.921679e-003
3.801069e+003,-3.763675e-003
3.802997e+003,-3.747054e-003
3.804926e+003,-3.967647e-003
3.806854e+003,-4.027004e-003
3.808783e+003,-4.076933e-003
3.810711e+003,-3.986624e-003
3.812640e+003,-4.013610e-003
3.814568e+003,-3.969387e-003
3.816497e+003,-3.709012e-003
3.818425e+003,-3.684307e-003
3.820354e+003,-3.472609e-003
3.822282e+003,-3.535682e-003
3.824211e+003,-3.725274e-003
3.826139e+003,-3.899645e-003
3.828068e+003,-3.930446e-003
3.829996e+003,-3.860468e-003
3.831925e+003,-3.814948e-003
3.833853e+003,-3.880664e-003
3.835782e+003,-3.841682e-003
3.837710e+003,-3.730990e-003
3.839639e+003,-3.785387e-003
3.841567e+003,-3.862208e-003
3.843496e+003,-3.953529e-003
3.845424e+003,-3.973163e-003
3.847353e+003,-4.085271e-003
3.849281e+003,-4.020078e-003
3.851210e+003,-3.818955e-003
3.853138e+003,-3.405417e-003
3.855067e+003,-3.434248e-003
3.856995e+003,-3.784664e-003
3.858924e+003,-3.931891e-003
3.860852e+003,-3.978712e-003
3.862781e+003,-3.969847e-003
3.864709e+003,-3.797967e-003
3.866638e+003,-3.905457e-003
3.868566e+003,-3.982815e-003
3.870495e+003,-3.731286e-003
3.872423e+003,-3.818823e-003
3.874352e+003,-4.145400e-003
3.876280e+003,-4.344600e-003
3.878209e+003,-4.189966e-003
3.880137e+003,-4.125478e-003
3.882066e+003,-4.227965e-003
3.883994e+003,-4.370252e-003
3.885923e+003,-4.174083e-003
3.887851e+003,-4.177201e-003
3.889780e+003,-3.931661e-003
3.891708e+003,-3.970865e-003
3.893637e+003,-4.378125e-003
3.895565e+003,-4.372318e-003
3.897494e+003,-4.166961e-003
3.899422e+003,-3.982881e-003
3.901351e+003,-3.986295e-003
3.903279e+003,-3.997491e-003
3.905208e+003,-4.104472e-003
3.907136e+003,-4.325967e-003
3.909065e+003,-4.486816e-003
3.910993e+003,-4.602955e-003
3.912922e+003,-4.339056e-003
3.914850e+003,-4.029762e-003
3.916779e+003,-4.150651e-003
3.918707e+003,-4.201977e-003
3.920636e+003,-4.327279e-003
3.922564e+003,-4.435163e-003
3.924493e+003,-4.299262e-003
3.926421e+003,-4.217596e-003
3.928350e+003,-4.329739e-003
3.930278e+003,-4.153605e-003
3.932207e+003,-3.892224e-003
3.934135e+003,-3.675994e-003
3.936064e+003,-3.679280e-003
3.937992e+003,-3.972572e-003
3.939921e+003,-4.219204e-003
3.941849e+003,-4.117765e-003
3.943778e+003,-4.045453e-003
3.945706e+003,-4.327509e-003
3.947635e+003,-4.216284e-003
3.949563e+003,-3.897511e-003
3.951492e+003,-3.965316e-003
3.953420e+003,-4.072436e-003
3.955349e+003,-3.986098e-003
3.957277e+003,-3.943219e-003
3.959206e+003,-3.992402e-003
3.961134e+003,-4.091507e-003
3.963063e+003,-4.116485e-003
3.964991e+003,-4.320390e-003
3.966920e+003,-4.414795e-003
3.968848e+003,-4.306906e-003
3.970777e+003,-4.255691e-003
3.972705e+003,-4.253394e-003
3.974634e+003,-4.114384e-003
3.976562e+003,-4.059109e-003
3.978491e+003,-4.091868e-003
3.980419e+003,-4.040070e-003
3.982348e+003,-4.248670e-003
3.984276e+003,-4.164631e-003
3.986205e+003,-4.027300e-003
3.988133e+003,-3.943580e-003
3.990062e+003,-3.924240e-003
3.991990e+003,-3.802007e-003
3.993919e+003,-3.872717e-003
3.995847e+003,-4.117404e-003
3.997776e+003,-4.172015e-003
3.999704e+003,-4.049393e-003
4.001633e+003,0.000000e+000
