3.991989e+002,1.401292e-002
4.011274e+002,2.540903e-002
4.030559e+002,1.617184e-002
4.049844e+002,6.105382e-003
4.069129e+002,3.830070e-003
4.088414e+002,8.711617e-003
4.107699e+002,1.267941e-002
4.126984e+002,9.399391e-003
4.146269e+002,6.774903e-003
4.165554e+002,1.110516e-002
4.184839e+002,8.190988e-003
4.204124e+002,4.001019e-003
4.223409e+002,4.688904e-003
4.242694e+002,6.216388e-003
4.261979e+002,7.082215e-003
4.281264e+002,4.054761e-003
4.300549e+002,-7.738612e-003
4.319834e+002,-5.359767e-004
4.339119e+002,6.312225e-003
4.358404e+002,2.463865e-003
4.377689e+002,5.504034e-003
4.396974e+002,3.448662e-003
4.416259e+002,1.339652e-003
4.435544e+002,4.104631e-003
4.454829e+002,6.063414e-003
4.474114e+002,6.459906e-003
4.493399e+002,6.761206e-003
4.512684e+002,2.580110e-003
4.531969e+002,9.827734e-004
4.551254e+002,4.319993e-003
4.570539e+002,5.201358e-003
4.589824e+002,2.447271e-003
4.609109e+002,-9.737111e-004
4.628394e+002,2.291288e-003
4.647679e+002,5.529102e-003
4.666964e+002,5.411629e-003
4.686249e+002,4.188896e-003
4.705533e+002,1.954728e-003
4.724819e+002,3.694691e-004
4.744103e+002,1.404135e-003
4.763389e+002,2.962523e-003
4.782673e+002,4.985458e-003
4.801959e+002,6.809569e-003
4.821243e+002,7.337575e-003
4.840529e+002,4.212817e-003
4.859813e+002,5.462560e-003
4.879099e+002,7.232111e-003
4.898383e+002,3.338462e-003
4.917668e+002,-7.082256e-004
4.936953e+002,8.324617e-004
4.956238e+002,-3.604481e-004
4.975523e+002,-3.453084e-003
4.994808e+002,-1.451394e-003
5.014093e+002,1.685082e-003
5.033378e+002,6.465285e-004
5.052663e+002,-5.441507e-004
5.071948e+002,7.266406e-004
5.091233e+002,2.299283e-003
5.110518e+002,2.621376e-003
5.129803e+002,9.981826e-004
5.149088e+002,-7.810948e-004
5.168373e+002,7.333118e-004
5.187658e+002,2.080758e-003
5.206943e+002,2.052160e-003
5.226228e+002,1.047868e-003
5.245513e+002,1.111843e-003
5.264798e+002,1.189450e-003
5.284083e+002,1.024652e-003
5.303368e+002,1.252814e-003
5.322653e+002,9.858949e-004
5.341938e+002,1.115065e-003
5.361223e+002,6.800782e-004
5.380508e+002,-5.355465e-004
5.399792e+002,-6.500412e-005
5.419078e+002,4.981245e-004
5.438363e+002,5.742611e-004
5.457648e+002,6.755649e-004
5.476932e+002,3.111407e-004
5.496218e+002,1.367439e-003
5.515503e+002,2.197999e-003
5.534788e+002,2.402256e-003
5.554072e+002,1.846471e-003
5.573358e+002,5.732227e-006
5.592643e+002,-1.548740e-004
5.611927e+002,3.058354e-004
5.631212e+002,-2.176030e-004
5.650497e+002,-1.101436e-003
5.669783e+002,-1.948806e-003
5.689067e+002,-1.247889e-003
5.708352e+002,-1.978057e-005
5.727637e+002,-1.037313e-003
5.746923e+002,-1.634306e-003
5.766207e+002,-4.572740e-004
5.785492e+002,7.139624e-004
5.804777e+002,5.423606e-003
5.824063e+002,3.791329e-003
5.843347e+002,-4.216247e-004
5.862632e+002,2.226407e-003
5.881917e+002,3.483799e-003
5.901202e+002,2.989079e-003
5.920487e+002,9.302397e-004
5.939772e+002,-1.606082e-003
5.959057e+002,-1.930070e-003
5.978342e+002,3.890021e-004
5.997627e+002,9.302397e-004
6.016912e+002,1.158751e-003
6.036197e+002,-3.588259e-004
6.055482e+002,-3.643878e-004
6.074767e+002,4.076737e-004
6.094052e+002,6.149723e-004
6.113337e+002,1.528742e-003
6.132622e+002,2.766439e-003
6.151907e+002,1.723702e-003
6.171192e+002,3.192644e-004
6.190477e+002,-7.821532e-004
6.209762e+002,7.953152e-004
6.229047e+002,4.791505e-004
6.248332e+002,1.607853e-003
6.267617e+002,2.129402e-003
6.286902e+002,6.751004e-004
6.306187e+002,-1.926648e-004
6.325472e+002,-3.515424e-004
6.344756e+002,-3.397891e-004
6.364042e+002,1.058430e-004
6.383326e+002,4.373715e-006
6.402612e+002,-4.198703e-004
6.421896e+002,-4.004721e-004
6.441182e+002,1.056110e-004
6.460466e+002,-2.747268e-004
6.479752e+002,-8.965145e-005
6.499036e+002,2.718505e-004
6.518322e+002,-4.111740e-005
6.537606e+002,-4.938139e-004
6.556891e+002,-5.299206e-004
6.576177e+002,-6.840765e-004
6.595461e+002,-4.922915e-004
6.614746e+002,-2.137282e-004
6.634031e+002,1.235917e-005
6.653317e+002,-7.267831e-004
6.672601e+002,-4.365865e-004
6.691886e+002,7.359694e-005
6.711171e+002,4.562797e-005
6.730457e+002,-6.255256e-005
6.749741e+002,-1.647112e-004
6.769026e+002,-8.938644e-005
6.788311e+002,4.736774e-004
6.807596e+002,1.197298e-004
6.826881e+002,-3.861049e-004
6.846166e+002,-4.635628e-004
6.865451e+002,-4.883530e-004
6.884736e+002,-4.408234e-004
6.904021e+002,4.175090e-005
6.923306e+002,-1.223136e-004
6.942591e+002,-5.511331e-004
6.961876e+002,-6.857306e-004
6.981161e+002,-2.528716e-004
7.000446e+002,-9.958950e-005
7.019731e+002,-1.065791e-004
7.039016e+002,-2.734685e-004
7.058301e+002,-3.787557e-004
7.077585e+002,-2.390626e-004
7.096871e+002,1.711379e-004
7.116156e+002,-1.214524e-004
7.135441e+002,-6.794780e-004
7.154725e+002,-8.192281e-004
7.174011e+002,-5.476712e-005
7.193296e+002,1.405442e-004
7.212581e+002,-4.431404e-004
7.231865e+002,-3.175730e-004
7.251151e+002,5.958936e-004
7.270436e+002,1.143938e-004
7.289720e+002,-4.021935e-004
7.309005e+002,-5.754220e-004
7.328290e+002,-3.713069e-004
7.347576e+002,-9.753566e-005
7.366860e+002,1.244693e-004
7.386145e+002,5.911515e-005
7.405430e+002,-4.209627e-004
7.424716e+002,-1.199550e-003
7.444000e+002,-8.887390e-004
7.463285e+002,-7.126252e-004
7.482570e+002,-8.881107e-004
7.501855e+002,-1.193008e-003
7.521140e+002,-6.970113e-004
7.540425e+002,-6.762131e-005
7.559710e+002,6.859288e-005
7.578995e+002,-4.469138e-004
7.598280e+002,-4.461856e-004
7.617565e+002,-3.721346e-004
7.636850e+002,-1.851136e-004
7.656135e+002,-9.940098e-006
7.675420e+002,-2.279562e-005
7.694705e+002,-5.163851e-004
7.713990e+002,-9.187952e-004
7.733275e+002,-4.464173e-004
7.752560e+002,-3.583293e-004
7.771844e+002,-6.398438e-004
7.791130e+002,-5.570234e-004
7.810415e+002,-7.086887e-004
7.829700e+002,-7.629035e-004
7.848984e+002,-6.242934e-004
7.868270e+002,-1.127074e-004
7.887555e+002,2.965598e-005
7.906840e+002,4.556169e-005
7.926124e+002,-8.418543e-005
7.945410e+002,-2.899255e-004
7.964695e+002,-6.368991e-004
7.983979e+002,-7.197704e-004
8.003264e+002,-6.540702e-004
8.022549e+002,-5.672156e-004
8.041835e+002,-3.064480e-004
8.061119e+002,1.325362e-007
8.080404e+002,-3.877602e-004
8.099689e+002,-4.339053e-004
8.118975e+002,-3.919975e-004
8.138259e+002,-5.960697e-004
8.157545e+002,-9.118848e-004
8.176830e+002,-6.616464e-004
8.196115e+002,-2.540306e-004
8.215399e+002,-2.709850e-004
8.234684e+002,-2.704221e-004
8.253970e+002,-1.225786e-004
8.273254e+002,-1.657380e-004
8.292539e+002,3.048439e-005
8.311824e+002,-4.771331e-004
8.331110e+002,-6.765999e-004
8.350394e+002,-1.398694e-004
8.369679e+002,9.709359e-005
8.388964e+002,-1.324166e-004
8.408250e+002,-6.444092e-005
8.427534e+002,-1.625252e-004
8.446819e+002,-1.050222e-004
8.466104e+002,-2.402151e-005
8.485389e+002,-1.257917e-004
8.504674e+002,-3.992804e-004
8.523959e+002,-4.251666e-004
8.543244e+002,-5.055299e-004
8.562529e+002,-5.046363e-004
8.581814e+002,-5.003008e-004
8.601099e+002,1.138966e-004
8.620384e+002,1.232098e-004
8.639669e+002,-1.125417e-004
8.658954e+002,-6.199921e-004
8.678239e+002,-8.919464e-004
8.697524e+002,-8.353005e-004
8.716809e+002,-4.253652e-004
8.736094e+002,1.462451e-004
8.755378e+002,3.623061e-004
8.774664e+002,-2.219975e-006
8.793949e+002,-3.664470e-005
8.813234e+002,-1.501044e-004
8.832518e+002,-7.056977e-005
8.851804e+002,-6.351331e-005
8.871089e+002,-1.430823e-004
8.890374e+002,-3.701151e-004
8.909658e+002,-4.470131e-004
8.928943e+002,-4.137795e-004
8.948229e+002,-4.551556e-004
8.967513e+002,-6.677007e-004
8.986798e+002,-7.228467e-004
9.006083e+002,-6.701819e-004
9.025369e+002,-4.545930e-004
9.044653e+002,-4.030211e-004
9.063938e+002,-4.709768e-004
9.083223e+002,-3.000245e-004
9.102509e+002,-2.913162e-004
9.121793e+002,-5.785655e-004
9.141078e+002,-7.819217e-004
9.160364e+002,-8.184674e-004
9.179648e+002,-5.540783e-004
9.198933e+002,-4.308932e-004
9.218218e+002,-4.712747e-004
9.237504e+002,-3.453513e-004
9.256788e+002,-4.923439e-005
9.276073e+002,-9.902635e-005
9.295358e+002,-1.589149e-004
9.314644e+002,-1.895847e-004
9.333928e+002,-4.363217e-004
9.353213e+002,-8.001123e-004
9.372498e+002,-5.119835e-004
9.391783e+002,-3.362466e-004
9.411068e+002,-2.379697e-004
9.430353e+002,-2.357178e-004
9.449637e+002,-2.676405e-004
9.468923e+002,-2.960842e-004
9.488208e+002,-3.169771e-004
9.507493e+002,-3.494235e-004
9.526777e+002,-4.994072e-004
9.546063e+002,-7.008487e-004
9.565348e+002,-6.025220e-004
9.584633e+002,-5.872019e-004
9.603917e+002,-6.097020e-004
9.623203e+002,-4.316214e-004
9.642488e+002,-5.015915e-004
9.661772e+002,-4.983812e-004
9.681057e+002,-2.063098e-004
9.700343e+002,-2.643623e-004
9.719628e+002,-3.731609e-004
9.738912e+002,-2.097210e-004
9.758197e+002,-3.584286e-004
9.777483e+002,-2.669452e-004
9.796768e+002,-1.439104e-004
9.816052e+002,-4.564465e-004
9.835337e+002,-2.870778e-004
9.854623e+002,-2.241602e-004
9.873907e+002,-3.627656e-004
9.893192e+002,-2.775083e-004
9.912477e+002,-2.010439e-004
9.931763e+002,-1.323503e-004
9.951047e+002,-1.801455e-004
9.970332e+002,-2.726407e-004
9.989617e+002,-3.439276e-004
1.000890e+003,-3.895147e-004
1.002819e+003,-3.675660e-004
1.004747e+003,-3.901437e-004
1.006676e+003,-4.182814e-004
1.008604e+003,-4.344019e-004
1.010533e+003,-2.240608e-004
1.012461e+003,-3.421729e-004
1.014390e+003,-6.701488e-004
1.016318e+003,-6.309437e-004
1.018247e+003,-5.403780e-004
1.020175e+003,-6.927769e-004
1.022104e+003,-6.241942e-004
1.024032e+003,-5.348846e-004
1.025961e+003,-3.834235e-004
1.027889e+003,-2.639649e-004
1.029818e+003,-3.678970e-004
1.031746e+003,-2.903890e-004
1.033675e+003,-9.100967e-005
1.035603e+003,-2.276374e-004
1.037532e+003,-3.777294e-004
1.039460e+003,-3.065804e-004
1.041389e+003,-2.019713e-004
1.043317e+003,-4.090127e-004
1.045246e+003,-6.867892e-004
1.047174e+003,-6.434500e-004
1.049103e+003,-4.025907e-004
1.051031e+003,-2.983027e-004
1.052960e+003,-3.059182e-004
1.054888e+003,-5.175103e-004
1.056817e+003,-5.195291e-004
1.058745e+003,-5.125130e-004
1.060674e+003,-3.744520e-004
1.062602e+003,-2.822103e-004
1.064531e+003,-1.697125e-004
1.066459e+003,-2.451889e-004
1.068388e+003,-2.654550e-004
1.070316e+003,-4.111975e-004
1.072245e+003,-5.360760e-004
1.074173e+003,-4.686931e-004
1.076102e+003,-4.743859e-004
1.078030e+003,-6.014301e-004
1.079959e+003,-4.018625e-004
1.081887e+003,-3.052560e-004
1.083816e+003,-1.829276e-004
1.085744e+003,-1.698781e-004
1.087673e+003,-1.432811e-004
1.089601e+003,-6.924959e-006
1.091530e+003,-5.327627e-005
1.093458e+003,-3.950100e-004
1.095387e+003,-4.652177e-004
1.097315e+003,-5.093359e-004
1.099244e+003,-5.296558e-004
1.101172e+003,-3.819006e-004
1.103101e+003,-3.185332e-004
1.105029e+003,-3.649837e-004
1.106958e+003,-2.079326e-004
1.108886e+003,-3.161493e-004
1.110815e+003,-4.446630e-004
1.112743e+003,-1.523898e-004
1.114672e+003,-5.533032e-005
1.116600e+003,-3.084346e-004
1.118529e+003,-4.838518e-004
1.120457e+003,-5.507691e-004
1.122386e+003,-5.213824e-004
1.124314e+003,-6.265102e-004
1.126243e+003,-4.992086e-004
1.128171e+003,-3.823641e-004
1.130100e+003,-4.312904e-004
1.132028e+003,-6.317709e-004
1.133957e+003,-7.234752e-004
1.135885e+003,-6.241942e-004
1.137814e+003,-5.012937e-004
1.139742e+003,-6.061285e-004
1.141671e+003,-5.233018e-004
1.143599e+003,-3.379020e-004
1.145528e+003,-2.230673e-004
1.147456e+003,-3.077724e-004
1.149385e+003,-3.830593e-004
1.151313e+003,-3.318431e-004
1.153242e+003,-4.366858e-004
1.155170e+003,-5.540783e-004
1.157099e+003,-5.536481e-004
1.159027e+003,-4.264907e-004
1.160956e+003,-4.699839e-004
1.162884e+003,-4.809062e-004
1.164813e+003,-3.963010e-004
1.166741e+003,-3.528336e-004
1.168670e+003,-2.392281e-004
1.170598e+003,-2.477719e-004
1.172526e+003,-2.876407e-004
1.174455e+003,-4.558176e-004
1.176384e+003,-5.524568e-004
1.178312e+003,-4.148057e-004
1.180240e+003,-3.120106e-004
1.182169e+003,-5.064566e-004
1.184098e+003,-5.699290e-004
1.186026e+003,-6.493061e-004
1.187954e+003,-6.524160e-004
1.189883e+003,-5.691679e-004
1.191812e+003,-3.668708e-004
1.193740e+003,-2.909519e-004
1.195668e+003,-3.097921e-004
1.197597e+003,-2.886341e-004
1.199526e+003,-2.761176e-004
1.201454e+003,-3.979893e-004
1.203382e+003,-4.231805e-004
1.205311e+003,-4.046762e-004
1.207240e+003,-3.347236e-004
1.209168e+003,-3.485958e-004
1.211096e+003,-2.692962e-004
1.213025e+003,-2.263459e-004
1.214953e+003,-2.419105e-004
1.216882e+003,-4.440672e-004
1.218810e+003,-3.740547e-004
1.220739e+003,-1.699444e-004
1.222667e+003,-2.627728e-004
1.224596e+003,-3.410804e-004
1.226524e+003,-3.645202e-004
1.228453e+003,-4.581015e-004
1.230381e+003,-4.769345e-004
1.232310e+003,-3.750148e-004
1.234238e+003,-3.203542e-004
1.236167e+003,-3.180366e-004
1.238095e+003,-3.515424e-004
1.240024e+003,-3.461128e-004
1.241952e+003,-3.185001e-004
1.243881e+003,-2.117411e-004
1.245809e+003,-3.190961e-004
1.247738e+003,-3.258835e-004
1.249666e+003,-1.920687e-004
1.251595e+003,-2.481362e-004
1.253523e+003,-3.141958e-004
1.255452e+003,-4.547253e-004
1.257380e+003,-5.991139e-004
1.259309e+003,-5.573212e-004
1.261237e+003,-4.741873e-004
1.263166e+003,-4.059011e-004
1.265094e+003,-2.410495e-004
1.267023e+003,-1.927642e-004
1.268951e+003,-3.688902e-004
1.270880e+003,-4.568106e-004
1.272808e+003,-5.315422e-004
1.274737e+003,-4.412206e-004
1.276665e+003,-2.824752e-004
1.278594e+003,-1.756743e-004
1.280522e+003,-2.746606e-004
1.282451e+003,-3.727636e-004
1.284379e+003,-3.083353e-004
1.286308e+003,-3.871312e-004
1.288236e+003,-2.382015e-004
1.290165e+003,-1.875644e-004
1.292093e+003,-1.896510e-004
1.294022e+003,-1.110511e-004
1.295950e+003,-3.383986e-004
1.297879e+003,-4.584987e-004
1.299807e+003,-4.664755e-004
1.301736e+003,-5.172456e-004
1.303664e+003,-2.526398e-004
1.305593e+003,-2.221401e-004
1.307521e+003,-3.231023e-004
1.309450e+003,-2.396255e-004
1.311378e+003,-2.369100e-004
1.313307e+003,-2.757533e-004
1.315235e+003,-2.932035e-004
1.317164e+003,-3.829931e-004
1.319092e+003,-4.137795e-004
1.321021e+003,-3.733264e-004
1.322949e+003,-3.517410e-004
1.324878e+003,-3.957052e-004
1.326806e+003,-3.724988e-004
1.328735e+003,-3.923948e-004
1.330663e+003,-3.713401e-004
1.332592e+003,-4.469138e-004
1.334520e+003,-5.150282e-004
1.336449e+003,-4.375464e-004
1.338377e+003,-3.675660e-004
1.340306e+003,-3.844497e-004
1.342234e+003,-4.242729e-004
1.344163e+003,-5.055299e-004
1.346091e+003,-4.665417e-004
1.348020e+003,-4.028555e-004
1.349948e+003,-4.475427e-004
1.351877e+003,-4.509189e-004
1.353805e+003,-4.802442e-004
1.355734e+003,-4.746838e-004
1.357662e+003,-3.718366e-004
1.359591e+003,-3.390939e-004
1.361519e+003,-4.209627e-004
1.363448e+003,-4.448947e-004
1.365376e+003,-2.861507e-004
1.367305e+003,-2.150529e-004
1.369233e+003,-2.485998e-004
1.371162e+003,-3.963010e-004
1.373090e+003,-4.517795e-004
1.375019e+003,-3.943148e-004
1.376947e+003,-3.761735e-004
1.378876e+003,-3.595543e-004
1.380804e+003,-3.474040e-004
1.382733e+003,-3.555152e-004
1.384661e+003,-3.266119e-004
1.386590e+003,-3.799475e-004
1.388518e+003,-5.259825e-004
1.390447e+003,-4.529711e-004
1.392375e+003,-3.012165e-004
1.394304e+003,-2.581037e-004
1.396232e+003,-2.937995e-004
1.398161e+003,-3.738892e-004
1.400089e+003,-5.421651e-004
1.402018e+003,-5.186355e-004
1.403946e+003,-3.995452e-004
1.405875e+003,-3.078718e-004
1.407803e+003,-2.481693e-004
1.409732e+003,-3.235990e-004
1.411660e+003,-3.973273e-004
1.413589e+003,-4.304629e-004
1.415517e+003,-4.535338e-004
1.417446e+003,-3.992473e-004
1.419374e+003,-3.144938e-004
1.421303e+003,-3.086995e-004
1.423231e+003,-3.523369e-004
1.425160e+003,-3.963342e-004
1.427088e+003,-4.373147e-004
1.429017e+003,-4.062652e-004
1.430945e+003,-4.116941e-004
1.432874e+003,-3.032362e-004
1.434802e+003,-2.768461e-004
1.436731e+003,-2.823096e-004
1.438659e+003,-2.495601e-004
1.440588e+003,-3.731278e-004
1.442516e+003,-4.408565e-004
1.444445e+003,-4.610473e-004
1.446373e+003,-5.242284e-004
1.448302e+003,-4.763056e-004
1.450230e+003,-3.822317e-004
1.452159e+003,-3.491255e-004
1.454087e+003,-4.637945e-004
1.456016e+003,-5.273393e-004
1.457944e+003,-4.208965e-004
1.459873e+003,-3.784908e-004
1.461801e+003,-4.654825e-004
1.463730e+003,-4.484695e-004
1.465658e+003,-4.211282e-004
1.467587e+003,-5.059271e-004
1.469515e+003,-5.643035e-004
1.471444e+003,-6.599922e-004
1.473372e+003,-6.894026e-004
1.475301e+003,-6.259477e-004
1.477229e+003,-6.189995e-004
1.479158e+003,-5.137375e-004
1.481086e+003,-3.056533e-004
1.483015e+003,-2.875083e-004
1.484943e+003,-4.518457e-004
1.486872e+003,-4.758422e-004
1.488800e+003,-4.331771e-004
1.490729e+003,-4.029549e-004
1.492657e+003,-4.302642e-004
1.494586e+003,-5.141015e-004
1.496514e+003,-5.613253e-004
1.498443e+003,-3.862043e-004
1.500371e+003,-2.008121e-004
1.502300e+003,-2.892632e-004
1.504228e+003,-5.413378e-004
1.506157e+003,-5.649322e-004
1.508085e+003,-4.413530e-004
1.510014e+003,-4.786886e-004
1.511942e+003,-5.034118e-004
1.513871e+003,-4.359576e-004
1.515799e+003,-3.671687e-004
1.517728e+003,-3.293931e-004
1.519656e+003,-4.357921e-004
1.521585e+003,-5.928932e-004
1.523513e+003,-4.051397e-004
1.525442e+003,-2.569116e-004
1.527370e+003,-3.152885e-004
1.529299e+003,-3.839200e-004
1.531227e+003,-4.830244e-004
1.533156e+003,-5.279019e-004
1.535084e+003,-5.483865e-004
1.537013e+003,-7.178518e-004
1.538941e+003,-6.959858e-004
1.540870e+003,-5.439520e-004
1.542798e+003,-4.802773e-004
1.544727e+003,-4.539972e-004
1.546655e+003,-4.736247e-004
1.548584e+003,-3.803116e-004
1.550512e+003,-2.793626e-004
1.552441e+003,-3.364783e-004
1.554369e+003,-4.392677e-004
1.556298e+003,-4.680311e-004
1.558226e+003,-5.273393e-004
1.560155e+003,-4.640262e-004
1.562083e+003,-3.943148e-004
1.564012e+003,-4.193407e-004
1.565940e+003,-4.659459e-004
1.567869e+003,-3.729622e-004
1.569797e+003,-3.193610e-004
1.571726e+003,-4.386388e-004
1.573654e+003,-4.745845e-004
1.575583e+003,-4.254976e-004
1.577511e+003,-4.179173e-004
1.579440e+003,-4.620733e-004
1.581368e+003,-4.766035e-004
1.583297e+003,-5.610606e-004
1.585225e+003,-5.663221e-004
1.587154e+003,-4.074569e-004
1.589082e+003,-3.258504e-004
1.591010e+003,-4.202345e-004
1.592939e+003,-5.778706e-004
1.594868e+003,-5.558322e-004
1.596796e+003,-3.679302e-004
1.598724e+003,-3.827283e-004
1.600653e+003,-4.474434e-004
1.602582e+003,-4.547916e-004
1.604510e+003,-4.363879e-004
1.606438e+003,-3.814372e-004
1.608367e+003,-3.286316e-004
1.610296e+003,-3.589583e-004
1.612224e+003,-3.999094e-004
1.614152e+003,-5.278688e-004
1.616081e+003,-5.672156e-004
1.618010e+003,-4.224523e-004
1.619938e+003,-4.358914e-004
1.621866e+003,-4.182814e-004
1.623795e+003,-3.528998e-004
1.625724e+003,-3.580645e-004
1.627652e+003,-3.807089e-004
1.629580e+003,-3.904416e-004
1.631509e+003,-4.667403e-004
1.633438e+003,-5.620202e-004
1.635366e+003,-7.465968e-004
1.637294e+003,-5.814112e-004
1.639223e+003,-4.240743e-004
1.641151e+003,-4.737240e-004
1.643080e+003,-4.337729e-004
1.645008e+003,-4.818329e-004
1.646937e+003,-5.210183e-004
1.648865e+003,-5.277033e-004
1.650794e+003,-6.542687e-004
1.652722e+003,-5.598693e-004
1.654651e+003,-3.846484e-004
1.656579e+003,-4.314559e-004
1.658508e+003,-4.790527e-004
1.660436e+003,-4.989438e-004
1.662365e+003,-5.416025e-004
1.664293e+003,-5.024520e-004
1.666222e+003,-4.825610e-004
1.668150e+003,-3.863698e-004
1.670079e+003,-3.483972e-004
1.672007e+003,-5.093359e-004
1.673936e+003,-4.866982e-004
1.675864e+003,-3.708435e-004
1.677793e+003,-4.214261e-004
1.679721e+003,-4.970905e-004
1.681650e+003,-5.589427e-004
1.683578e+003,-6.178084e-004
1.685507e+003,-5.525229e-004
1.687435e+003,-4.846131e-004
1.689364e+003,-4.137795e-004
1.691292e+003,-3.218111e-004
1.693221e+003,-3.658776e-004
1.695149e+003,-5.638071e-004
1.697078e+003,-7.657149e-004
1.699006e+003,-7.910171e-004
1.700935e+003,-6.229369e-004
1.702863e+003,-5.526223e-004
1.704792e+003,-5.003339e-004
1.706720e+003,-4.471786e-004
1.708649e+003,-5.503389e-004
1.710577e+003,-5.932241e-004
1.712506e+003,-5.902130e-004
1.714434e+003,-5.784332e-004
1.716363e+003,-7.063069e-004
1.718291e+003,-6.463946e-004
1.720220e+003,-4.281458e-004
1.722148e+003,-3.530322e-004
1.724077e+003,-2.984683e-004
1.726005e+003,-3.126396e-004
1.727934e+003,-4.295029e-004
1.729862e+003,-5.104942e-004
1.731791e+003,-4.997713e-004
1.733719e+003,-4.710099e-004
1.735648e+003,-3.996114e-004
1.737576e+003,-3.402196e-004
1.739505e+003,-4.113961e-004
1.741433e+003,-4.111975e-004
1.743362e+003,-3.650830e-004
1.745290e+003,-4.037824e-004
1.747219e+003,-4.664093e-004
1.749147e+003,-5.430586e-004
1.751076e+003,-5.317738e-004
1.753004e+003,-3.915672e-004
1.754933e+003,-3.862374e-004
1.756861e+003,-4.002735e-004
1.758790e+003,-4.503893e-004
1.760718e+003,-5.863747e-004
1.762647e+003,-5.479231e-004
1.764575e+003,-4.516802e-004
1.766504e+003,-4.540965e-004
1.768432e+003,-4.859038e-004
1.770361e+003,-4.400952e-004
1.772289e+003,-4.460532e-004
1.774218e+003,-4.951378e-004
1.776146e+003,-4.302642e-004
1.778075e+003,-4.072914e-004
1.780003e+003,-4.462518e-004
1.781932e+003,-4.949061e-004
1.783860e+003,-4.145409e-004
1.785789e+003,-4.317207e-004
1.787717e+003,-6.909244e-004
1.789646e+003,-7.297932e-004
1.791574e+003,-6.270726e-004
1.793503e+003,-5.186355e-004
1.795431e+003,-4.933506e-004
1.797360e+003,-5.056292e-004
1.799288e+003,-5.473606e-004
1.801217e+003,-5.275048e-004
1.803145e+003,-4.487343e-004
1.805074e+003,-4.715064e-004
1.807002e+003,-4.399297e-004
1.808931e+003,-3.877933e-004
1.810859e+003,-4.292381e-004
1.812788e+003,-5.231033e-004
1.814716e+003,-6.031506e-004
1.816645e+003,-5.891873e-004
1.818573e+003,-5.905770e-004
1.820502e+003,-5.990477e-004
1.822430e+003,-4.855067e-004
1.824359e+003,-4.306945e-004
1.826287e+003,-4.643572e-004
1.828216e+003,-4.785231e-004
1.830144e+003,-3.905410e-004
1.832073e+003,-4.208965e-004
1.834001e+003,-4.896438e-004
1.835930e+003,-4.771331e-004
1.837858e+003,-4.435045e-004
1.839787e+003,-3.871312e-004
1.841715e+003,-4.502900e-004
1.843644e+003,-5.605973e-004
1.845572e+003,-5.791942e-004
1.847501e+003,-5.740322e-004
1.849429e+003,-5.131749e-004
1.851358e+003,-4.559169e-004
1.853286e+003,-4.469138e-004
1.855215e+003,-5.039744e-004
1.857143e+003,-5.263134e-004
1.859072e+003,-5.138368e-004
1.861000e+003,-4.657473e-004
1.862929e+003,-4.560162e-004
1.864857e+003,-5.169808e-004
1.866786e+003,-5.940513e-004
1.868714e+003,-5.582147e-004
1.870643e+003,-6.001396e-004
1.872571e+003,-5.656934e-004
1.874500e+003,-5.331968e-004
1.876428e+003,-4.827596e-004
1.878357e+003,-3.755444e-004
1.880285e+003,-3.593556e-004
1.882214e+003,-3.989824e-004
1.884142e+003,-4.742204e-004
1.886071e+003,-5.304501e-004
1.887999e+003,-5.562954e-004
1.889928e+003,-5.822385e-004
1.891856e+003,-4.664093e-004
1.893785e+003,-3.859063e-004
1.895713e+003,-3.881574e-004
1.897642e+003,-4.058018e-004
1.899570e+003,-4.592930e-004
1.901499e+003,-4.705135e-004
1.903427e+003,-4.132499e-004
1.905356e+003,-3.950431e-004
1.907284e+003,-4.849440e-004
1.909213e+003,-4.934168e-004
1.911141e+003,-4.519781e-004
1.913070e+003,-5.432571e-004
1.914998e+003,-5.994778e-004
1.916927e+003,-6.246573e-004
1.918855e+003,-5.891873e-004
1.920784e+003,-4.922253e-004
1.922712e+003,-5.106928e-004
1.924641e+003,-5.511331e-004
1.926569e+003,-5.227392e-004
1.928498e+003,-4.346005e-004
1.930426e+003,-4.784238e-004
1.932355e+003,-5.851834e-004
1.934283e+003,-6.853336e-004
1.936212e+003,-7.301571e-004
1.938140e+003,-6.150291e-004
1.940069e+003,-5.418010e-004
1.941997e+003,-6.082131e-004
1.943926e+003,-6.257823e-004
1.945854e+003,-5.186355e-004
1.947783e+003,-5.276371e-004
1.949711e+003,-5.403119e-004
1.951640e+003,-5.307149e-004
1.953568e+003,-4.991093e-004
1.955497e+003,-4.645227e-004
1.957425e+003,-5.236659e-004
1.959354e+003,-6.393144e-004
1.961282e+003,-6.070219e-004
1.963211e+003,-5.629799e-004
1.965139e+003,-5.061256e-004
1.967068e+003,-5.461693e-004
1.968996e+003,-5.522252e-004
1.970925e+003,-4.500252e-004
1.972853e+003,-4.443320e-004
1.974782e+003,-5.129101e-004
1.976710e+003,-5.240961e-004
1.978639e+003,-5.052983e-004
1.980567e+003,-5.259493e-004
1.982496e+003,-5.138368e-004
1.984424e+003,-5.325681e-004
1.986353e+003,-5.647668e-004
1.988281e+003,-5.761500e-004
1.990210e+003,-5.740322e-004
1.992138e+003,-5.839592e-004
1.994067e+003,-6.270396e-004
1.995995e+003,-6.278337e-004
1.997924e+003,-5.900476e-004
1.999852e+003,-6.687924e-004
2.001781e+003,-6.790149e-004
2.003709e+003,-6.676014e-004
2.005638e+003,-6.062278e-004
2.007566e+003,-5.207205e-004
2.009495e+003,-5.451765e-004
2.011423e+003,-5.154585e-004
2.013352e+003,-4.810055e-004
2.015280e+003,-4.957005e-004
2.017208e+003,-5.526884e-004
2.019137e+003,-4.795492e-004
2.021066e+003,-4.402938e-004
2.022994e+003,-5.594391e-004
2.024922e+003,-6.574778e-004
2.026851e+003,-6.086101e-004
2.028780e+003,-5.802862e-004
2.030708e+003,-5.937205e-004
2.032636e+003,-6.416965e-004
2.034565e+003,-6.686931e-004
2.036494e+003,-6.160217e-004
2.038422e+003,-5.803854e-004
2.040350e+003,-5.850511e-004
2.042279e+003,-5.751242e-004
2.044208e+003,-5.150282e-004
2.046136e+003,-6.001396e-004
2.048064e+003,-6.583380e-004
2.049993e+003,-5.867386e-004
2.051921e+003,-5.145649e-004
2.053850e+003,-5.247911e-004
2.055778e+003,-5.961029e-004
2.057707e+003,-5.841246e-004
2.059635e+003,-5.292918e-004
2.061564e+003,-5.696974e-004
2.063492e+003,-6.714390e-004
2.065421e+003,-6.824224e-004
2.067349e+003,-5.985845e-004
2.069278e+003,-5.265781e-004
2.071206e+003,-5.386241e-004
2.073135e+003,-6.035146e-004
2.075063e+003,-6.317378e-004
2.076992e+003,-4.884523e-004
2.078920e+003,-4.877242e-004
2.080849e+003,-6.415642e-004
2.082777e+003,-6.945303e-004
2.084706e+003,-6.370976e-004
2.086634e+003,-6.242272e-004
2.088563e+003,-6.707443e-004
2.090491e+003,-6.037132e-004
2.092420e+003,-4.936816e-004
2.094348e+003,-5.210183e-004
2.096277e+003,-5.573212e-004
2.098205e+003,-6.155916e-004
2.100134e+003,-5.698959e-004
2.102062e+003,-5.056623e-004
2.103991e+003,-4.770668e-004
2.105919e+003,-4.538648e-004
2.107848e+003,-5.275048e-004
2.109776e+003,-5.489490e-004
2.111705e+003,-5.891873e-004
2.113633e+003,-6.072866e-004
2.115562e+003,-5.768779e-004
2.117490e+003,-6.166835e-004
2.119419e+003,-6.474864e-004
2.121347e+003,-6.172459e-004
2.123276e+003,-6.001396e-004
2.125204e+003,-5.888563e-004
2.127133e+003,-6.450712e-004
2.129061e+003,-6.980368e-004
2.130990e+003,-6.124483e-004
2.132918e+003,-5.816760e-004
2.134847e+003,-5.714842e-004
2.136775e+003,-6.138048e-004
2.138704e+003,-6.682631e-004
2.140632e+003,-6.976729e-004
2.142561e+003,-6.392813e-004
2.144489e+003,-5.945146e-004
2.146418e+003,-6.270726e-004
2.148346e+003,-6.235986e-004
2.150275e+003,-5.767787e-004
2.152203e+003,-5.882938e-004
2.154132e+003,-6.531769e-004
2.156060e+003,-6.448065e-004
2.157989e+003,-6.189003e-004
2.159917e+003,-6.853997e-004
2.161846e+003,-7.166609e-004
2.163774e+003,-6.931408e-004
2.165703e+003,-6.059962e-004
2.167631e+003,-5.283652e-004
2.169560e+003,-5.307149e-004
2.171488e+003,-5.337594e-004
2.173417e+003,-5.877975e-004
2.175345e+003,-6.501331e-004
2.177274e+003,-6.699834e-004
2.179202e+003,-7.057446e-004
2.181131e+003,-7.237399e-004
2.183059e+003,-7.210936e-004
2.184988e+003,-6.889395e-004
2.186916e+003,-6.965482e-004
2.188845e+003,-8.574902e-004
2.190773e+003,-8.143334e-004
2.192702e+003,-6.259808e-004
2.194630e+003,-5.533503e-004
2.196559e+003,-6.162202e-004
2.198487e+003,-6.660465e-004
2.200416e+003,-6.925123e-004
2.202344e+003,-6.346824e-004
2.204273e+003,-5.911064e-004
2.206201e+003,-6.951918e-004
2.208130e+003,-7.303887e-004
2.210058e+003,-7.161316e-004
2.211987e+003,-7.520544e-004
2.213915e+003,-7.114013e-004
2.215844e+003,-7.403782e-004
2.217772e+003,-7.545352e-004
2.219701e+003,-6.706450e-004
2.221629e+003,-6.900312e-004
2.223558e+003,-7.497721e-004
2.225486e+003,-7.175871e-004
2.227415e+003,-7.044214e-004
2.229343e+003,-6.791142e-004
2.231272e+003,-7.537744e-004
2.233200e+003,-8.216092e-004
2.235129e+003,-8.376485e-004
2.237057e+003,-7.606543e-004
2.238986e+003,-7.194396e-004
2.240914e+003,-7.617789e-004
2.242843e+003,-7.467952e-004
2.244771e+003,-6.470893e-004
2.246700e+003,-5.998749e-004
2.248628e+003,-6.534416e-004
2.250557e+003,-7.212589e-004
2.252485e+003,-7.229790e-004
2.254414e+003,-7.064723e-004
2.256342e+003,-6.932401e-004
2.258271e+003,-7.137168e-004
2.260199e+003,-6.768976e-004
2.262128e+003,-6.460968e-004
2.264056e+003,-7.932992e-004
2.265985e+003,-8.756776e-004
2.267913e+003,-8.004430e-004
2.269842e+003,-7.416682e-004
2.271770e+003,-7.381951e-004
2.273699e+003,-6.914868e-004
2.275627e+003,-6.885425e-004
2.277556e+003,-7.698824e-004
2.279484e+003,-8.041472e-004
2.281413e+003,-7.442483e-004
2.283341e+003,-7.473576e-004
2.285270e+003,-7.850968e-004
2.287198e+003,-7.692209e-004
2.289127e+003,-6.740526e-004
2.291055e+003,-5.622850e-004
2.292984e+003,-6.028859e-004
2.294912e+003,-6.667412e-004
2.296841e+003,-6.417627e-004
2.298769e+003,-7.329026e-004
2.300698e+003,-8.891358e-004
2.302626e+003,-9.087767e-004
2.304555e+003,-7.146430e-004
2.306483e+003,-5.465664e-004
2.308412e+003,-5.407421e-004
2.310340e+003,-5.554020e-004
2.312269e+003,-5.664214e-004
2.314197e+003,-5.286299e-004
2.316125e+003,-4.116609e-004
2.318054e+003,-3.867339e-004
2.319983e+003,-3.719691e-004
2.321911e+003,-3.149573e-004
2.323840e+003,-2.724420e-004
2.325768e+003,-2.852235e-004
2.327697e+003,-2.555870e-004
2.329625e+003,-2.133639e-004
2.331553e+003,-2.573421e-004
2.333482e+003,-2.787997e-004
2.335411e+003,-2.035278e-004
2.337339e+003,-1.565301e-004
2.339268e+003,-1.675596e-004
2.341196e+003,-2.256173e-004
2.343125e+003,-2.720778e-004
2.345053e+003,-2.658193e-004
2.346981e+003,-2.894619e-004
2.348910e+003,-3.412459e-004
2.350839e+003,-4.034845e-004
2.352767e+003,-3.598191e-004
2.354696e+003,-2.315121e-004
2.356624e+003,-8.448358e-005
2.358552e+003,-1.021734e-004
2.360481e+003,-1.464278e-004
2.362409e+003,-9.793317e-005
2.364338e+003,1.673301e-005
2.366267e+003,-3.323217e-005
2.368195e+003,-2.269751e-004
2.370124e+003,-1.770322e-004
2.372052e+003,-1.635851e-004
2.373980e+003,-3.582300e-004
2.375909e+003,-5.662890e-004
2.377838e+003,-5.803524e-004
2.379766e+003,-5.803854e-004
2.381695e+003,-5.251220e-004
2.383623e+003,-5.973933e-004
2.385552e+003,-7.676664e-004
2.387480e+003,-8.070906e-004
2.389408e+003,-8.102986e-004
2.391337e+003,-7.968711e-004
2.393266e+003,-8.295793e-004
2.395194e+003,-8.268014e-004
2.397123e+003,-7.575451e-004
2.399051e+003,-7.649211e-004
2.400979e+003,-8.023943e-004
2.402908e+003,-7.890657e-004
2.404836e+003,-7.466960e-004
2.406765e+003,-7.690224e-004
2.408694e+003,-7.759352e-004
2.410622e+003,-7.199027e-004
2.412551e+003,-7.111366e-004
2.414479e+003,-7.149408e-004
2.416407e+003,-6.754751e-004
2.418336e+003,-7.031313e-004
2.420264e+003,-7.478868e-004
2.422193e+003,-7.092180e-004
2.424122e+003,-6.606208e-004
2.426050e+003,-6.668735e-004
2.427979e+003,-7.033297e-004
2.429907e+003,-7.553290e-004
2.431835e+003,-7.985248e-004
2.433764e+003,-8.868873e-004
2.435692e+003,-8.918472e-004
2.437621e+003,-8.518354e-004
2.439550e+003,-7.340272e-004
2.441478e+003,-7.034621e-004
2.443406e+003,-7.300909e-004
2.445335e+003,-7.069355e-004
2.447263e+003,-7.157678e-004
2.449192e+003,-7.243022e-004
2.451121e+003,-7.412713e-004
2.453049e+003,-7.696840e-004
2.454978e+003,-8.260077e-004
2.456906e+003,-8.844073e-004
2.458834e+003,-8.459490e-004
2.460763e+003,-8.488592e-004
2.462691e+003,-8.133082e-004
2.464620e+003,-7.054799e-004
2.466549e+003,-6.899319e-004
2.468477e+003,-7.920754e-004
2.470406e+003,-8.080828e-004
2.472334e+003,-7.707093e-004
2.474262e+003,-8.150610e-004
2.476191e+003,-8.662533e-004
2.478119e+003,-8.230644e-004
2.480048e+003,-7.913478e-004
2.481977e+003,-7.865852e-004
2.483905e+003,-7.307194e-004
2.485833e+003,-6.959196e-004
2.487762e+003,-6.924792e-004
2.489690e+003,-6.936039e-004
2.491619e+003,-7.555606e-004
2.493547e+003,-8.587138e-004
2.495476e+003,-9.234572e-004
2.497405e+003,-9.499735e-004
2.499333e+003,-9.406500e-004
2.501261e+003,-8.913843e-004
2.503190e+003,-8.392028e-004
2.505118e+003,-9.724217e-004
2.507047e+003,-9.542053e-004
2.508975e+003,-8.117538e-004
2.510904e+003,-8.204848e-004
2.512833e+003,-8.563990e-004
2.514761e+003,-8.056685e-004
2.516689e+003,-8.160862e-004
2.518618e+003,-8.156894e-004
2.520546e+003,-8.001784e-004
2.522475e+003,-8.087442e-004
2.524403e+003,-8.028573e-004
2.526332e+003,-7.415029e-004
2.528260e+003,-7.907855e-004
2.530189e+003,-7.589344e-004
2.532117e+003,-8.162516e-004
2.534046e+003,-8.884414e-004
2.535974e+003,-8.454531e-004
2.537903e+003,-8.724039e-004
2.539831e+003,-8.696593e-004
2.541760e+003,-8.790174e-004
2.543688e+003,-8.491568e-004
2.545617e+003,-8.303069e-004
2.547545e+003,-8.011706e-004
2.549474e+003,-7.356150e-004
2.551402e+003,-7.203658e-004
2.553331e+003,-7.405767e-004
2.555259e+003,-7.813263e-004
2.557188e+003,-8.196580e-004
2.559116e+003,-8.542164e-004
2.561045e+003,-8.183682e-004
2.562973e+003,-8.161854e-004
2.564902e+003,-8.679067e-004
2.566830e+003,-8.160532e-004
2.568759e+003,-8.425098e-004
2.570687e+003,-8.880777e-004
2.572616e+003,-9.030895e-004
2.574544e+003,-9.704712e-004
2.576473e+003,-9.978440e-004
2.578401e+003,-9.254741e-004
2.580330e+003,-9.089420e-004
2.582258e+003,-9.429974e-004
2.584187e+003,-9.601233e-004
2.586115e+003,-9.032548e-004
2.588044e+003,-8.595074e-004
2.589972e+003,-8.730983e-004
2.591901e+003,-8.611608e-004
2.593829e+003,-8.826547e-004
2.595758e+003,-9.241846e-004
2.597686e+003,-8.629134e-004
2.599615e+003,-6.707443e-004
2.601543e+003,-6.974745e-004
2.603472e+003,-8.287526e-004
2.605400e+003,-7.792427e-004
2.607329e+003,-7.518560e-004
2.609257e+003,-8.810345e-004
2.611186e+003,-9.630657e-004
2.613114e+003,-8.277604e-004
2.615043e+003,-7.377320e-004
2.616971e+003,-8.051724e-004
2.618900e+003,-8.734621e-004
2.620828e+003,-8.710812e-004
2.622757e+003,-8.500827e-004
2.624685e+003,-9.614787e-004
2.626614e+003,-1.042768e-003
2.628542e+003,-1.019992e-003
2.630471e+003,-9.744053e-004
2.632399e+003,-9.187622e-004
2.634328e+003,-8.074544e-004
2.636256e+003,-8.415178e-004
2.638185e+003,-9.684545e-004
2.640113e+003,-9.879927e-004
2.642042e+003,-9.084791e-004
2.643970e+003,-8.409555e-004
2.645899e+003,-7.796065e-004
2.647827e+003,-8.256439e-004
2.649756e+003,-8.983942e-004
2.651684e+003,-8.876147e-004
2.653613e+003,-8.429728e-004
2.655541e+003,-8.578870e-004
2.657470e+003,-8.455853e-004
2.659398e+003,-8.659557e-004
2.661327e+003,-9.319214e-004
2.663255e+003,-8.473380e-004
2.665184e+003,-7.454060e-004
2.667112e+003,-7.360781e-004
2.669041e+003,-8.224029e-004
2.670969e+003,-9.160178e-004
2.672898e+003,-8.938643e-004
2.674826e+003,-9.247467e-004
2.676755e+003,-9.508000e-004
2.678683e+003,-9.382364e-004
2.680612e+003,-8.922440e-004
2.682540e+003,-9.615779e-004
2.684469e+003,-1.058997e-003
2.686397e+003,-9.314585e-004
2.688326e+003,-8.511741e-004
2.690254e+003,-8.591767e-004
2.692183e+003,-8.212124e-004
2.694111e+003,-7.707755e-004
2.696040e+003,-8.155901e-004
2.697968e+003,-9.235233e-004
2.699897e+003,-8.954514e-004
2.701825e+003,-8.534889e-004
2.703754e+003,-8.414516e-004
2.705682e+003,-8.701553e-004
2.707611e+003,-9.836950e-004
2.709539e+003,-1.032289e-003
2.711468e+003,-9.702728e-004
2.713396e+003,-1.001712e-003
2.715325e+003,-9.224322e-004
2.717253e+003,-8.851347e-004
2.719182e+003,-1.056353e-003
2.721110e+003,-1.022538e-003
2.723039e+003,-9.440223e-004
2.724967e+003,-8.365903e-004
2.726896e+003,-7.875112e-004
2.728824e+003,-9.333762e-004
2.730753e+003,-9.661403e-004
2.732681e+003,-7.872466e-004
2.734610e+003,-7.778866e-004
2.736538e+003,-9.416419e-004
2.738467e+003,-9.843231e-004
2.740395e+003,-1.045676e-003
2.742324e+003,-1.082596e-003
2.744252e+003,-1.030339e-003
2.746181e+003,-9.638922e-004
2.748109e+003,-9.456754e-004
2.750038e+003,-9.180348e-004
2.751966e+003,-8.929384e-004
2.753895e+003,-9.909349e-004
2.755823e+003,-9.674297e-004
2.757752e+003,-8.152263e-004
2.759680e+003,-8.849694e-004
2.761609e+003,-9.033210e-004
2.763537e+003,-8.451223e-004
2.765466e+003,-8.877470e-004
2.767394e+003,-9.588008e-004
2.769323e+003,-9.826702e-004
2.771251e+003,-9.834967e-004
2.773180e+003,-1.080283e-003
2.775108e+003,-1.192942e-003
2.777037e+003,-1.138979e-003
2.778965e+003,-1.048783e-003
2.780894e+003,-9.910341e-004
2.782822e+003,-8.778269e-004
2.784750e+003,-8.188973e-004
2.786679e+003,-9.612804e-004
2.788608e+003,-9.953647e-004
2.790536e+003,-8.935336e-004
2.792465e+003,-9.423031e-004
2.794393e+003,-1.079721e-003
2.796322e+003,-1.122455e-003
2.798250e+003,-1.067921e-003
2.800178e+003,-9.244822e-004
2.802107e+003,-7.897272e-004
2.804036e+003,-8.364580e-004
2.805964e+003,-1.005018e-003
2.807893e+003,-1.055593e-003
2.809821e+003,-9.844223e-004
2.811750e+003,-9.854472e-004
2.813678e+003,-9.870009e-004
2.815606e+003,-1.015497e-003
2.817535e+003,-1.052783e-003
2.819464e+003,-1.016191e-003
2.821392e+003,-1.000985e-003
2.823321e+003,-9.463036e-004
2.825249e+003,-9.490808e-004
2.827177e+003,-9.089420e-004
2.829106e+003,-9.575445e-004
2.831034e+003,-1.025182e-003
2.832963e+003,-9.540400e-004
2.834892e+003,-8.812990e-004
2.836820e+003,-8.848702e-004
2.838749e+003,-9.280531e-004
2.840677e+003,-9.369469e-004
2.842605e+003,-1.013017e-003
2.844534e+003,-1.090000e-003
2.846462e+003,-1.126024e-003
2.848391e+003,-1.129527e-003
2.850320e+003,-1.057510e-003
2.852248e+003,-1.051924e-003
2.854177e+003,-1.081043e-003
2.856105e+003,-1.058799e-003
2.858033e+003,-1.066434e-003
2.859962e+003,-1.059890e-003
2.861890e+003,-9.669668e-004
2.863819e+003,-9.931829e-004
2.865748e+003,-1.002803e-003
2.867676e+003,-9.891167e-004
2.869604e+003,-1.020158e-003
2.871533e+003,-1.091653e-003
2.873461e+003,-1.137293e-003
2.875390e+003,-1.083886e-003
2.877319e+003,-9.971168e-004
2.879247e+003,-9.063630e-004
2.881176e+003,-9.304666e-004
2.883104e+003,-9.376744e-004
2.885032e+003,-9.275240e-004
2.886961e+003,-1.015265e-003
2.888889e+003,-9.674297e-004
2.890818e+003,-9.209113e-004
2.892747e+003,-8.348045e-004
2.894675e+003,-9.331778e-004
2.896604e+003,-1.142614e-003
2.898532e+003,-1.119216e-003
2.900460e+003,-9.833314e-004
2.902389e+003,-9.911663e-004
2.904317e+003,-1.111416e-003
2.906246e+003,-1.056981e-003
2.908175e+003,-1.021877e-003
2.910103e+003,-1.015133e-003
2.912031e+003,-1.027066e-003
2.913960e+003,-1.016125e-003
2.915888e+003,-1.012918e-003
2.917817e+003,-1.030702e-003
2.919745e+003,-9.114880e-004
2.921674e+003,-8.926739e-004
2.923603e+003,-8.881768e-004
2.925531e+003,-1.033744e-003
2.927459e+003,-1.068979e-003
2.929388e+003,-1.004158e-003
2.931316e+003,-1.038041e-003
2.933245e+003,-1.122620e-003
2.935173e+003,-1.192842e-003
2.937102e+003,-1.013976e-003
2.939031e+003,-9.618424e-004
2.940959e+003,-1.138252e-003
2.942887e+003,-1.171430e-003
2.944816e+003,-1.062038e-003
2.946744e+003,-9.574122e-004
2.948673e+003,-1.029446e-003
2.950601e+003,-1.101039e-003
2.952530e+003,-1.036619e-003
2.954458e+003,-9.106945e-004
2.956387e+003,-9.257386e-004
2.958315e+003,-1.088083e-003
2.960244e+003,-1.087158e-003
2.962172e+003,-9.888192e-004
2.964101e+003,-1.017943e-003
2.966029e+003,-1.087918e-003
2.967958e+003,-1.115283e-003
2.969886e+003,-1.037413e-003
2.971815e+003,-1.049345e-003
2.973743e+003,-9.652477e-004
2.975672e+003,-9.155549e-004
2.977600e+003,-9.856124e-004
2.979529e+003,-1.109863e-003
2.981457e+003,-1.033281e-003
2.983386e+003,-9.649501e-004
2.985314e+003,-1.048783e-003
2.987243e+003,-1.021612e-003
2.989171e+003,-8.646661e-004
2.991100e+003,-1.034206e-003
2.993028e+003,-1.120769e-003
2.994957e+003,-9.856124e-004
2.996885e+003,-9.869348e-004
2.998814e+003,-1.021050e-003
3.000742e+003,-9.841579e-004
3.002671e+003,-1.046503e-003
3.004599e+003,-1.142812e-003
3.006528e+003,-1.153123e-003
3.008456e+003,-1.068715e-003
3.010385e+003,-1.138252e-003
3.012313e+003,-1.160360e-003
3.014242e+003,-1.062038e-003
3.016170e+003,-1.053742e-003
3.018099e+003,-1.064947e-003
3.020027e+003,-1.082134e-003
3.021956e+003,-1.089108e-003
3.023884e+003,-1.044850e-003
3.025813e+003,-1.121860e-003
3.027741e+003,-1.265135e-003
3.029670e+003,-1.134550e-003
3.031598e+003,-1.026471e-003
3.033527e+003,-1.033810e-003
3.035455e+003,-1.110954e-003
3.037384e+003,-1.129131e-003
3.039312e+003,-1.009580e-003
3.041241e+003,-9.833644e-004
3.043169e+003,-1.061575e-003
3.045098e+003,-1.102130e-003
3.047026e+003,-1.154478e-003
3.048955e+003,-1.128932e-003
3.050883e+003,-1.033314e-003
3.052812e+003,-1.063591e-003
3.054740e+003,-1.038900e-003
3.056669e+003,-1.091223e-003
3.058597e+003,-1.036024e-003
3.060526e+003,-9.884886e-004
3.062454e+003,-1.085637e-003
3.064383e+003,-1.135674e-003
3.066311e+003,-1.190926e-003
3.068240e+003,-1.076085e-003
3.070168e+003,-1.073606e-003
3.072097e+003,-1.070929e-003
3.074025e+003,-1.010902e-003
3.075954e+003,-1.140334e-003
3.077882e+003,-1.118853e-003
3.079811e+003,-9.282514e-004
3.081739e+003,-8.739250e-004
3.083668e+003,-1.034504e-003
3.085596e+003,-1.179229e-003
3.087525e+003,-1.104344e-003
3.089453e+003,-1.037975e-003
3.091382e+003,-1.061013e-003
3.093310e+003,-1.102262e-003
3.095239e+003,-1.151173e-003
3.097167e+003,-1.122620e-003
3.099096e+003,-1.053014e-003
3.101024e+003,-1.106393e-003
3.102953e+003,-1.180716e-003
3.104881e+003,-1.081109e-003
3.106810e+003,-1.041115e-003
3.108738e+003,-1.020158e-003
3.110667e+003,-1.040156e-003
3.112595e+003,-1.104146e-003
3.114524e+003,-1.112970e-003
3.116452e+003,-1.032752e-003
3.118381e+003,-9.881249e-004
3.120309e+003,-9.420386e-004
3.122238e+003,-9.581065e-004
3.124166e+003,-9.768849e-004
3.126095e+003,-9.525522e-004
3.128023e+003,-9.336738e-004
3.129952e+003,-1.039693e-003
3.131880e+003,-1.185309e-003
3.133809e+003,-1.337184e-003
3.135737e+003,-1.283503e-003
3.137666e+003,-1.122455e-003
3.139594e+003,-1.076184e-003
3.141523e+003,-1.083059e-003
3.143451e+003,-9.315247e-004
3.145380e+003,-9.008741e-004
3.147308e+003,-1.093966e-003
3.149237e+003,-1.202921e-003
3.151165e+003,-1.113796e-003
3.153094e+003,-1.132336e-003
3.155022e+003,-1.206720e-003
3.156951e+003,-1.321626e-003
3.158879e+003,-1.246633e-003
3.160808e+003,-1.186168e-003
3.162736e+003,-1.162376e-003
3.164665e+003,-1.226975e-003
3.166593e+003,-1.193735e-003
3.168522e+003,-1.246832e-003
3.170450e+003,-1.367044e-003
3.172379e+003,-1.192281e-003
3.174307e+003,-1.037710e-003
3.176236e+003,-9.853811e-004
3.178164e+003,-1.035793e-003
3.180093e+003,-1.085505e-003
3.182021e+003,-1.202293e-003
3.183950e+003,-1.235235e-003
3.185878e+003,-1.155601e-003
3.187807e+003,-1.037413e-003
3.189735e+003,-1.100708e-003
3.191664e+003,-1.315349e-003
3.193592e+003,-1.342238e-003
3.195521e+003,-1.229453e-003
3.197449e+003,-1.116109e-003
3.199378e+003,-1.117101e-003
3.201306e+003,-1.166771e-003
3.203235e+003,-1.115118e-003
3.205163e+003,-1.147703e-003
3.207092e+003,-1.290936e-003
3.209020e+003,-1.164821e-003
3.210948e+003,-1.103319e-003
3.212877e+003,-1.170439e-003
3.214806e+003,-1.119877e-003
3.216734e+003,-1.036586e-003
3.218663e+003,-1.035231e-003
3.220591e+003,-9.982408e-004
3.222520e+003,-1.118555e-003
3.224448e+003,-1.197270e-003
3.226376e+003,-1.171529e-003
3.228305e+003,-1.111483e-003
3.230234e+003,-1.047726e-003
3.232162e+003,-1.038503e-003
3.234091e+003,-1.057179e-003
3.236019e+003,-1.014670e-003
3.237948e+003,-1.091124e-003
3.239876e+003,-1.185837e-003
3.241804e+003,-1.189835e-003
3.243733e+003,-1.198162e-003
3.245662e+003,-1.264045e-003
3.247590e+003,-1.332427e-003
3.249519e+003,-1.272700e-003
3.251447e+003,-1.212304e-003
3.253375e+003,-1.326944e-003
3.255304e+003,-1.339199e-003
3.257232e+003,-1.236325e-003
3.259161e+003,-1.222052e-003
3.261090e+003,-1.198262e-003
3.263018e+003,-1.248120e-003
3.264947e+003,-1.312244e-003
3.266875e+003,-1.293348e-003
3.268803e+003,-1.292886e-003
3.270732e+003,-1.201202e-003
3.272660e+003,-1.212040e-003
3.274589e+003,-1.227999e-003
3.276518e+003,-1.121034e-003
3.278446e+003,-1.132997e-003
3.280375e+003,-1.196411e-003
3.282303e+003,-1.222580e-003
3.284231e+003,-1.127941e-003
3.286160e+003,-1.022075e-003
3.288088e+003,-1.145853e-003
3.290017e+003,-1.131411e-003
3.291946e+003,-1.231733e-003
3.293874e+003,-1.234970e-003
3.295802e+003,-1.140796e-003
3.297731e+003,-1.089504e-003
3.299659e+003,-1.123182e-003
3.301588e+003,-1.078201e-003
3.303516e+003,-1.175428e-003
3.305445e+003,-1.246699e-003
3.307374e+003,-1.251688e-003
3.309302e+003,-1.276070e-003
3.311230e+003,-1.320800e-003
3.313159e+003,-1.288261e-003
3.315087e+003,-1.181475e-003
3.317016e+003,-1.169811e-003
3.318944e+003,-1.251391e-003
3.320873e+003,-1.257734e-003
3.322802e+003,-1.216633e-003
3.324730e+003,-1.120241e-003
3.326658e+003,-1.173743e-003
3.328587e+003,-1.234904e-003
3.330515e+003,-1.257999e-003
3.332444e+003,-1.282876e-003
3.334372e+003,-1.282116e-003
3.336301e+003,-1.229750e-003
3.338229e+003,-1.244981e-003
3.340158e+003,-1.323740e-003
3.342086e+003,-1.348943e-003
3.344015e+003,-1.263681e-003
3.345943e+003,-1.165151e-003
3.347872e+003,-1.133724e-003
3.349800e+003,-1.146414e-003
3.351729e+003,-1.031992e-003
3.353657e+003,-1.072152e-003
3.355586e+003,-1.277854e-003
3.357514e+003,-1.359744e-003
3.359443e+003,-1.211776e-003
3.361371e+003,-1.131609e-003
3.363300e+003,-1.141887e-003
3.365229e+003,-1.113366e-003
3.367157e+003,-1.169546e-003
3.369085e+003,-1.246006e-003
3.371014e+003,-1.157584e-003
3.372942e+003,-1.208108e-003
3.374871e+003,-1.315481e-003
3.376799e+003,-1.364435e-003
3.378728e+003,-1.332692e-003
3.380656e+003,-1.374542e-003
3.382585e+003,-1.424380e-003
3.384513e+003,-1.355847e-003
3.386442e+003,-1.253142e-003
3.388370e+003,-1.200112e-003
3.390299e+003,-1.256082e-003
3.392227e+003,-1.362453e-003
3.394156e+003,-1.357664e-003
3.396084e+003,-1.280695e-003
3.398013e+003,-1.232129e-003
3.399941e+003,-1.255818e-003
3.401870e+003,-1.396572e-003
3.403798e+003,-1.441685e-003
3.405727e+003,-1.403243e-003
3.407655e+003,-1.451989e-003
3.409584e+003,-1.317992e-003
3.411512e+003,-1.171199e-003
3.413441e+003,-1.130155e-003
3.415369e+003,-1.239993e-003
3.417298e+003,-1.200376e-003
3.419226e+003,-1.249475e-003
3.421155e+003,-1.387357e-003
3.423083e+003,-1.295991e-003
3.425012e+003,-1.180187e-003
3.426940e+003,-1.203383e-003
3.428869e+003,-1.262954e-003
3.430797e+003,-1.214617e-003
3.432726e+003,-1.171628e-003
3.434654e+003,-1.292522e-003
3.436583e+003,-1.233979e-003
3.438511e+003,-1.136665e-003
3.440440e+003,-1.085439e-003
3.442368e+003,-1.145192e-003
3.444297e+003,-1.376557e-003
3.446225e+003,-1.372263e-003
3.448154e+003,-1.128932e-003
3.450082e+003,-1.237382e-003
3.452011e+003,-1.348679e-003
3.453939e+003,-1.248616e-003
3.455868e+003,-1.145555e-003
3.457796e+003,-1.112970e-003
3.459725e+003,-1.164689e-003
3.461653e+003,-1.266357e-003
3.463582e+003,-1.324103e-003
3.465510e+003,-1.315349e-003
3.467439e+003,-1.161616e-003
3.469367e+003,-1.162904e-003
3.471296e+003,-1.315845e-003
3.473224e+003,-1.391320e-003
3.475153e+003,-1.452913e-003
3.477081e+003,-1.449875e-003
3.479010e+003,-1.418204e-003
3.480938e+003,-1.398686e-003
3.482867e+003,-1.255058e-003
3.484795e+003,-1.093603e-003
3.486724e+003,-1.075821e-003
3.488652e+003,-1.162904e-003
3.490581e+003,-1.290210e-003
3.492509e+003,-1.358919e-003
3.494438e+003,-1.309568e-003
3.496366e+003,-1.276467e-003
3.498295e+003,-1.262492e-003
3.500223e+003,-1.421969e-003
3.502152e+003,-1.359018e-003
3.504080e+003,-1.135277e-003
3.506009e+003,-9.893150e-004
3.507937e+003,-1.158708e-003
3.509866e+003,-1.203846e-003
3.511794e+003,-1.207976e-003
3.513723e+003,-1.243990e-003
3.515651e+003,-1.282810e-003
3.517580e+003,-1.173677e-003
3.519508e+003,-1.187622e-003
3.521437e+003,-1.336391e-003
3.523365e+003,-1.269463e-003
3.525294e+003,-1.078432e-003
3.527222e+003,-1.124636e-003
3.529151e+003,-1.219574e-003
3.531079e+003,-1.215212e-003
3.533008e+003,-1.173479e-003
3.534936e+003,-1.187523e-003
3.536865e+003,-1.079291e-003
3.538793e+003,-1.147406e-003
3.540722e+003,-1.327836e-003
3.542650e+003,-1.241876e-003
3.544579e+003,-1.208901e-003
3.546507e+003,-1.412920e-003
3.548436e+003,-1.366086e-003
3.550364e+003,-1.009877e-003
3.552293e+003,-9.175057e-004
3.554221e+003,-1.073606e-003
3.556150e+003,-1.185474e-003
3.558078e+003,-1.281885e-003
3.560007e+003,-1.176387e-003
3.561935e+003,-1.154445e-003
3.563864e+003,-1.289780e-003
3.565792e+003,-1.438878e-003
3.567721e+003,-1.411170e-003
3.569649e+003,-1.434156e-003
3.571578e+003,-1.304283e-003
3.573506e+003,-1.091884e-003
3.575435e+003,-1.062501e-003
3.577363e+003,-1.352412e-003
3.579292e+003,-1.438944e-003
3.581220e+003,-1.239464e-003
3.583149e+003,-1.212205e-003
3.585077e+003,-1.375797e-003
3.587006e+003,-1.301144e-003
3.588934e+003,-1.248748e-003
3.590863e+003,-1.338406e-003
3.592791e+003,-1.434981e-003
3.594720e+003,-1.472793e-003
3.596648e+003,-1.561217e-003
3.598577e+003,-1.394293e-003
3.600505e+003,-1.188183e-003
3.602434e+003,-1.289681e-003
3.604362e+003,-1.285717e-003
3.606291e+003,-1.130353e-003
3.608219e+003,-9.002128e-004
3.610148e+003,-8.655258e-004
3.612076e+003,-1.011530e-003
3.614005e+003,-1.070665e-003
3.615933e+003,-1.228660e-003
3.617862e+003,-1.366747e-003
3.619790e+003,-1.228990e-003
3.621719e+003,-1.295628e-003
3.623647e+003,-1.528365e-003
3.625576e+003,-1.506804e-003
3.627504e+003,-1.318917e-003
3.629433e+003,-1.079556e-003
3.631361e+003,-1.260840e-003
3.633290e+003,-1.391519e-003
3.635218e+003,-1.227801e-003
3.637146e+003,-1.094991e-003
3.639075e+003,-1.187787e-003
3.641004e+003,-1.264276e-003
3.642932e+003,-1.368497e-003
3.644861e+003,-1.390330e-003
3.646789e+003,-1.454829e-003
3.648718e+003,-1.382403e-003
3.650646e+003,-1.257206e-003
3.652574e+003,-1.291333e-003
3.654503e+003,-1.347655e-003
3.656432e+003,-1.084778e-003
3.658360e+003,-9.359220e-004
3.660289e+003,-1.059460e-003
3.662217e+003,-1.281290e-003
3.664146e+003,-1.165945e-003
3.666074e+003,-1.178171e-003
3.668002e+003,-1.226611e-003
3.669931e+003,-1.238704e-003
3.671860e+003,-1.318917e-003
3.673788e+003,-1.316010e-003
3.675717e+003,-1.067359e-003
3.677645e+003,-9.222008e-004
3.679573e+003,-1.059261e-003
3.681502e+003,-1.268174e-003
3.683430e+003,-1.420120e-003
3.685359e+003,-1.519913e-003
3.687288e+003,-1.390131e-003
3.689216e+003,-1.332956e-003
3.691145e+003,-1.371074e-003
3.693073e+003,-1.334013e-003
3.695001e+003,-1.218351e-003
3.696930e+003,-1.183590e-003
3.698858e+003,-1.203846e-003
3.700787e+003,-1.349109e-003
3.702716e+003,-1.313830e-003
3.704644e+003,-1.286444e-003
3.706573e+003,-1.220829e-003
3.708501e+003,-1.276896e-003
3.710429e+003,-1.459881e-003
3.712358e+003,-1.285353e-003
3.714286e+003,-1.108971e-003
3.716215e+003,-1.145952e-003
3.718144e+003,-1.009414e-003
3.720072e+003,-9.541392e-004
3.722000e+003,-1.090595e-003
3.723929e+003,-1.393533e-003
3.725857e+003,-1.509743e-003
3.727786e+003,-1.417214e-003
3.729714e+003,-1.230114e-003
3.731643e+003,-1.113366e-003
3.733572e+003,-1.122884e-003
3.735500e+003,-1.104608e-003
3.737428e+003,-1.066798e-003
3.739357e+003,-1.140730e-003
3.741285e+003,-1.421903e-003
3.743214e+003,-1.560391e-003
3.745142e+003,-1.110855e-003
3.747071e+003,-1.044519e-003
3.749000e+003,-1.354889e-003
3.750928e+003,-1.458824e-003
3.752856e+003,-1.448125e-003
3.754785e+003,-1.351421e-003
3.756713e+003,-1.366450e-003
3.758642e+003,-1.407867e-003
3.760570e+003,-1.402154e-003
3.762499e+003,-1.389339e-003
3.764427e+003,-1.180815e-003
3.766356e+003,-1.197502e-003
3.768284e+003,-1.323806e-003
3.770213e+003,-1.186630e-003
3.772141e+003,-1.124570e-003
3.774070e+003,-1.321064e-003
3.775998e+003,-1.500431e-003
3.777927e+003,-1.395647e-003
3.779855e+003,-1.318785e-003
3.781784e+003,-1.205300e-003
3.783712e+003,-1.233385e-003
3.785641e+003,-1.145952e-003
3.787569e+003,-1.141623e-003
3.789498e+003,-1.279572e-003
3.791426e+003,-1.225884e-003
3.793355e+003,-1.128337e-003
3.795283e+003,-9.620077e-004
3.797212e+003,-9.041476e-004
3.799140e+003,-1.115283e-003
3.801069e+003,-1.100411e-003
3.802997e+003,-9.973152e-004
3.804926e+003,-1.004158e-003
3.806854e+003,-9.653138e-004
3.808783e+003,-9.078509e-004
3.810711e+003,-9.577759e-004
3.812640e+003,-1.018306e-003
3.814568e+003,-1.347292e-003
3.816497e+003,-1.544676e-003
3.818425e+003,-1.567258e-003
3.820354e+003,-1.476987e-003
3.822282e+003,-1.110888e-003
3.824211e+003,-1.062765e-003
3.826139e+003,-1.084547e-003
3.828068e+003,-1.088281e-003
3.829996e+003,-1.058733e-003
3.831925e+003,-1.090760e-003
3.833853e+003,-1.239728e-003
3.835782e+003,-1.366813e-003
3.837710e+003,-1.199088e-003
3.839639e+003,-1.024290e-003
3.841567e+003,-1.237349e-003
3.843496e+003,-1.371338e-003
3.845424e+003,-1.217525e-003
3.847353e+003,-1.198625e-003
3.849281e+003,-1.451163e-003
3.851210e+003,-1.693224e-003
3.853138e+003,-1.590302e-003
3.855067e+003,-1.263879e-003
3.856995e+003,-1.157617e-003
3.858924e+003,-1.234244e-003
3.860852e+003,-1.212040e-003
3.862781e+003,-1.215245e-003
3.864709e+003,-1.168258e-003
3.866638e+003,-1.280960e-003
3.868566e+003,-1.304283e-003
3.870495e+003,-1.141424e-003
3.872423e+003,-1.176948e-003
3.874352e+003,-1.217921e-003
3.876280e+003,-1.231105e-003
3.878209e+003,-1.130882e-003
3.880137e+003,-1.019728e-003
3.882066e+003,-1.113796e-003
3.883994e+003,-1.279836e-003
3.885923e+003,-1.385012e-003
3.887851e+003,-1.289285e-003
3.889780e+003,-1.026967e-003
3.891708e+003,-1.079820e-003
3.893637e+003,-1.283041e-003
3.895565e+003,-1.221325e-003
3.897494e+003,-1.034967e-003
3.899422e+003,-1.014207e-003
3.901351e+003,-1.054337e-003
3.903279e+003,-1.052386e-003
3.905208e+003,-8.380123e-004
3.907136e+003,-9.132735e-004
3.909065e+003,-1.000885e-003
3.910993e+003,-1.047594e-003
3.912922e+003,-1.235037e-003
3.914850e+003,-1.315151e-003
3.916779e+003,-1.135013e-003
3.918707e+003,-7.993847e-004
3.920636e+003,-8.236927e-004
3.922564e+003,-9.646195e-004
3.924493e+003,-1.024190e-003
3.926421e+003,-9.845215e-004
3.928350e+003,-1.045114e-003
3.930278e+003,-1.298270e-003
3.932207e+003,-1.281389e-003
3.934135e+003,-1.110293e-003
3.936064e+003,-9.679255e-004
3.937992e+003,-1.031892e-003
3.939921e+003,-1.106856e-003
3.941849e+003,-1.188976e-003
3.943778e+003,-1.205167e-003
3.945706e+003,-1.124173e-003
3.947635e+003,-1.176783e-003
3.949563e+003,-1.204936e-003
3.951492e+003,-1.320668e-003
3.953420e+003,-1.191356e-003
3.955349e+003,-1.095751e-003
3.957277e+003,-1.312310e-003
3.959206e+003,-1.144167e-003
3.961134e+003,-7.347881e-004
3.963063e+003,-7.039252e-004
3.964991e+003,-9.517257e-004
3.966920e+003,-1.023199e-003
3.968848e+003,-8.949885e-004
3.970777e+003,-9.444852e-004
3.972705e+003,-9.726532e-004
3.974634e+003,-1.000026e-003
3.976562e+003,-9.815792e-004
3.978491e+003,-9.798271e-004
3.980419e+003,-1.066732e-003
3.982348e+003,-1.256908e-003
3.984276e+003,-1.269760e-003
3.986205e+003,-1.142350e-003
3.988133e+003,-9.023621e-004
3.990062e+003,-1.017778e-003
3.991990e+003,-1.087984e-003
3.993919e+003,-1.154907e-003
3.995847e+003,-1.134352e-003
3.997776e+003,-9.156541e-004
3.999704e+003,-9.563543e-004
4.001633e+003,0.000000e+000
