3.991989e+002,-1.219491e-002
4.011274e+002,-1.777084e-002
4.030559e+002,-2.510974e-002
4.049844e+002,-2.148069e-002
4.069129e+002,-1.322864e-002
4.088414e+002,-5.943255e-003
4.107699e+002,-9.159354e-003
4.126984e+002,-1.409456e-002
4.146269e+002,-1.218158e-002
4.165554e+002,-6.416910e-003
4.184839e+002,-4.330854e-003
4.204124e+002,-1.348778e-003
4.223409e+002,1.442531e-003
4.242694e+002,4.086355e-004
4.261979e+002,-4.786248e-003
4.281264e+002,1.629936e-003
4.300549e+002,7.203846e-003
4.319834e+002,2.315638e-003
4.339119e+002,4.720189e-004
4.358404e+002,5.316895e-003
4.377689e+002,7.488571e-003
4.396974e+002,2.363100e-004
4.416259e+002,-7.951918e-003
4.435544e+002,-5.140848e-003
4.454829e+002,-2.131608e-003
4.474114e+002,-9.773442e-005
4.493399e+002,7.818051e-004
4.512684e+002,7.442646e-004
4.531969e+002,5.852763e-004
4.551254e+002,7.421736e-004
4.570539e+002,5.925093e-004
4.589824e+002,-3.753924e-005
4.609109e+002,-5.740984e-004
4.628394e+002,-9.021637e-004
4.647679e+002,-1.873889e-003
4.666964e+002,-2.526990e-003
4.686249e+002,-2.521884e-003
4.705533e+002,-5.059271e-004
4.724819e+002,-1.089504e-003
4.744103e+002,-1.899919e-003
4.763389e+002,-1.047065e-003
4.782673e+002,-5.535488e-004
4.801959e+002,-2.603606e-003
4.821243e+002,-3.455615e-003
4.840529e+002,-4.622428e-003
4.859813e+002,-5.917728e-003
4.879099e+002,-5.651651e-003
4.898383e+002,-4.378813e-003
4.917668e+002,-5.087276e-003
4.936953e+002,-6.786752e-003
4.956238e+002,-5.108856e-003
4.975523e+002,-3.145625e-003
4.994808e+002,-4.865186e-003
5.014093e+002,-5.263065e-003
5.033378e+002,-4.060422e-003
5.052663e+002,-2.726275e-003
5.071948e+002,-3.059530e-003
5.091233e+002,-5.730268e-003
5.110518e+002,-6.353698e-003
5.129803e+002,-5.257336e-003
5.149088e+002,-5.086817e-003
5.168373e+002,-5.067430e-003
5.187658e+002,-4.945092e-003
5.206943e+002,-5.131745e-003
5.226228e+002,-4.980896e-003
5.245513e+002,-5.067069e-003
5.264798e+002,-6.312130e-003
5.284083e+002,-6.187758e-003
5.303368e+002,-5.038412e-003
5.322653e+002,-4.715687e-003
5.341938e+002,-4.460351e-003
5.361223e+002,-5.859511e-003
5.380508e+002,-6.459318e-003
5.399792e+002,-5.836464e-003
5.419078e+002,-4.028941e-003
5.438363e+002,-2.531767e-003
5.457648e+002,-2.911087e-003
5.476932e+002,-3.797902e-003
5.496218e+002,-3.619744e-003
5.515503e+002,-1.986079e-003
5.534788e+002,-2.412371e-003
5.554072e+002,-3.211673e-003
5.573358e+002,-2.028394e-003
5.592643e+002,-1.295727e-003
5.611927e+002,-2.064934e-003
5.631212e+002,-1.730287e-003
5.650497e+002,-1.029083e-003
5.669783e+002,-1.463778e-003
5.689067e+002,-1.170174e-003
5.708352e+002,-1.737152e-003
5.727637e+002,-1.751738e-003
5.746923e+002,-1.703257e-003
5.766207e+002,-4.301985e-003
5.785492e+002,-2.620634e-003
5.804777e+002,6.541434e-003
5.824063e+002,4.699387e-003
5.843347e+002,-2.376948e-003
5.862632e+002,-3.273797e-003
5.881917e+002,-3.799445e-003
5.901202e+002,-3.279355e-003
5.920487e+002,-2.849930e-003
5.939772e+002,-3.332165e-003
5.959057e+002,-3.281821e-003
5.978342e+002,-2.793046e-003
5.997627e+002,-2.910461e-003
6.016912e+002,-2.998395e-003
6.036197e+002,-3.051930e-003
6.055482e+002,-2.494640e-003
6.074767e+002,-1.554812e-003
6.094052e+002,-1.069111e-003
6.113337e+002,-2.741850e-003
6.132622e+002,-3.365965e-003
6.151907e+002,-2.357043e-003
6.171192e+002,-2.506237e-003
6.190477e+002,-2.524717e-003
6.209762e+002,-1.507663e-003
6.229047e+002,-2.046466e-003
6.248332e+002,-3.672150e-003
6.267617e+002,-4.782348e-003
6.286902e+002,-4.492686e-003
6.306187e+002,-3.876789e-003
6.325472e+002,-3.826279e-003
6.344756e+002,-3.664692e-003
6.364042e+002,-3.078415e-003
6.383326e+002,-2.872413e-003
6.402612e+002,-2.875869e-003
6.421896e+002,-2.659297e-003
6.441182e+002,-2.795317e-003
6.460466e+002,-2.956701e-003
6.479752e+002,-2.433426e-003
6.499036e+002,-2.376552e-003
6.518322e+002,-2.514472e-003
6.537606e+002,-2.019126e-003
6.556891e+002,-2.163589e-003
6.576177e+002,-2.915003e-003
6.595461e+002,-3.216771e-003
6.614746e+002,-2.535357e-003
6.634031e+002,-2.116704e-003
6.653317e+002,-1.650612e-003
6.672601e+002,-1.529818e-003
6.691886e+002,-1.712598e-003
6.711171e+002,-1.368663e-003
6.730457e+002,-1.157749e-003
6.749741e+002,-1.252878e-003
6.769026e+002,-9.950011e-004
6.788311e+002,-4.177518e-004
6.807596e+002,-4.331109e-004
6.826881e+002,-9.580735e-004
6.846166e+002,-9.345665e-004
6.865451e+002,-2.258160e-004
6.884736e+002,3.313405e-007
6.904021e+002,-1.643469e-004
6.923306e+002,-3.969276e-005
6.942591e+002,3.528552e-004
6.961876e+002,-1.149599e-004
6.981161e+002,-6.978383e-004
7.000446e+002,-7.846338e-004
7.019731e+002,-3.659769e-004
7.039016e+002,-1.232569e-005
7.058301e+002,-6.658480e-004
7.077585e+002,-1.491681e-003
7.096871e+002,-1.415628e-003
7.116156e+002,-1.014637e-003
7.135441e+002,-1.230741e-003
7.154725e+002,-1.969191e-003
7.174011e+002,-2.877416e-003
7.193296e+002,-2.786264e-003
7.212581e+002,-2.866257e-003
7.231865e+002,-3.197300e-003
7.251151e+002,-3.007609e-003
7.270436e+002,-2.845256e-003
7.289720e+002,-2.972892e-003
7.309005e+002,-3.231012e-003
7.328290e+002,-3.375171e-003
7.347576e+002,-3.139671e-003
7.366860e+002,-2.574424e-003
7.386145e+002,-2.436061e-003
7.405430e+002,-2.808025e-003
7.424716e+002,-3.112071e-003
7.444000e+002,-2.606439e-003
7.463285e+002,-1.882335e-003
7.482570e+002,-1.783550e-003
7.501855e+002,-1.440298e-003
7.521140e+002,-8.352675e-004
7.540425e+002,-7.512275e-004
7.559710e+002,-7.790442e-004
7.578995e+002,-9.849633e-005
7.598280e+002,3.307042e-004
7.617565e+002,1.524433e-004
7.636850e+002,3.270235e-004
7.656135e+002,9.372460e-004
7.675420e+002,1.363383e-003
7.694705e+002,1.383360e-003
7.713990e+002,1.178386e-003
7.733275e+002,1.418662e-003
7.752560e+002,1.563025e-003
7.771844e+002,1.520961e-003
7.791130e+002,1.651854e-003
7.810415e+002,1.517005e-003
7.829700e+002,1.493132e-003
7.848984e+002,1.599073e-003
7.868270e+002,1.560797e-003
7.887555e+002,1.362586e-003
7.906840e+002,1.193536e-003
7.926124e+002,8.171911e-004
7.945410e+002,8.324617e-004
7.964695e+002,8.250587e-004
7.983979e+002,6.387305e-004
8.003264e+002,3.598522e-004
8.022549e+002,3.379330e-004
8.041835e+002,8.055393e-004
8.061119e+002,1.012563e-003
8.080404e+002,1.375748e-003
8.099689e+002,1.443395e-003
8.118975e+002,8.974011e-004
8.138259e+002,1.044214e-003
8.157545e+002,1.429666e-003
8.176830e+002,1.120314e-003
8.196115e+002,2.704248e-004
8.215399e+002,4.705289e-005
8.234684e+002,1.914575e-004
8.253970e+002,-3.380013e-004
8.273254e+002,-7.198034e-004
8.292539e+002,-7.446783e-004
8.311824e+002,-8.545471e-004
8.331110e+002,-9.627681e-004
8.350394e+002,-9.384017e-004
8.369679e+002,-6.101322e-004
8.388964e+002,-9.610821e-004
8.408250e+002,-8.543156e-004
8.427534e+002,-5.940513e-004
8.446819e+002,-6.619110e-004
8.466104e+002,-1.034669e-003
8.485389e+002,-1.176717e-003
8.504674e+002,-1.304151e-003
8.523959e+002,-1.270090e-003
8.543244e+002,-1.143539e-003
8.562529e+002,-1.252316e-003
8.581814e+002,-1.481213e-003
8.601099e+002,-1.211478e-003
8.620384e+002,-1.342535e-003
8.639669e+002,-1.825818e-003
8.658954e+002,-1.431250e-003
8.678239e+002,-8.101333e-004
8.697524e+002,-1.223571e-003
8.716809e+002,-1.841359e-003
8.736094e+002,-1.802226e-003
8.755378e+002,-1.448191e-003
8.774664e+002,-1.014274e-003
8.793949e+002,-8.591436e-004
8.813234e+002,-9.913316e-004
8.832518e+002,-1.116539e-003
8.851804e+002,-1.279143e-003
8.871089e+002,-1.137029e-003
8.890374e+002,-7.627712e-004
8.909658e+002,-5.546408e-004
8.928943e+002,-5.735124e-005
8.948229e+002,6.908997e-005
8.967513e+002,-1.080698e-004
8.986798e+002,-6.288385e-005
9.006083e+002,-1.903134e-004
9.025369e+002,-4.033190e-004
9.044653e+002,-3.669039e-004
9.063938e+002,-4.486350e-004
9.083223e+002,-5.500742e-004
9.102509e+002,-7.706101e-004
9.121793e+002,-9.337399e-004
9.141078e+002,-1.157749e-003
9.160364e+002,-1.029645e-003
9.179648e+002,-8.074213e-004
9.198933e+002,-1.149223e-003
9.218218e+002,-1.761935e-003
9.237504e+002,-2.025359e-003
9.256788e+002,-2.168007e-003
9.276073e+002,-2.364491e-003
9.295358e+002,-2.184293e-003
9.314644e+002,-2.076145e-003
9.333928e+002,-2.210271e-003
9.353213e+002,-2.322802e-003
9.372498e+002,-2.292414e-003
9.391783e+002,-2.611280e-003
9.411068e+002,-2.897098e-003
9.430353e+002,-2.789753e-003
9.449637e+002,-2.816452e-003
9.468923e+002,-3.000962e-003
9.488208e+002,-2.846507e-003
9.507493e+002,-2.653172e-003
9.526777e+002,-2.648627e-003
9.546063e+002,-2.833274e-003
9.565348e+002,-2.708791e-003
9.584633e+002,-2.505907e-003
9.603917e+002,-2.538026e-003
9.623203e+002,-2.700921e-003
9.642488e+002,-2.438796e-003
9.661772e+002,-2.085577e-003
9.681057e+002,-2.041057e-003
9.700343e+002,-2.059921e-003
9.719628e+002,-2.061174e-003
9.738912e+002,-2.276956e-003
9.758197e+002,-2.448681e-003
9.777483e+002,-2.370060e-003
9.796768e+002,-2.054480e-003
9.816052e+002,-1.865839e-003
9.835337e+002,-1.788235e-003
9.854623e+002,-1.814864e-003
9.873907e+002,-1.837333e-003
9.893192e+002,-1.799883e-003
9.912477e+002,-1.760417e-003
9.931763e+002,-1.672001e-003
9.951047e+002,-1.705007e-003
9.970332e+002,-1.575875e-003
9.989617e+002,-1.459485e-003
1.000890e+003,-1.374377e-003
1.002819e+003,-1.199914e-003
1.004747e+003,-1.029347e-003
1.006676e+003,-8.076198e-004
1.008604e+003,-6.513573e-004
1.010533e+003,-7.013449e-004
1.012461e+003,-5.960035e-004
1.014390e+003,-4.091120e-004
1.016318e+003,-2.286641e-004
1.018247e+003,1.494271e-004
1.020175e+003,3.413153e-004
1.022104e+003,4.897652e-004
1.024032e+003,7.804774e-004
1.025961e+003,9.656710e-004
1.027889e+003,9.881200e-004
1.029818e+003,1.244939e-003
1.031746e+003,1.587134e-003
1.033675e+003,1.784583e-003
1.035603e+003,2.074066e-003
1.037532e+003,2.390495e-003
1.039460e+003,2.571177e-003
1.041389e+003,2.609976e-003
1.043317e+003,2.663980e-003
1.045246e+003,2.675015e-003
1.047174e+003,2.850479e-003
1.049103e+003,2.736696e-003
1.051031e+003,2.530049e-003
1.052960e+003,2.702020e-003
1.054888e+003,2.681049e-003
1.056817e+003,2.633443e-003
1.058745e+003,2.760237e-003
1.060674e+003,2.609942e-003
1.062602e+003,2.547946e-003
1.064531e+003,2.710689e-003
1.066459e+003,2.771474e-003
1.068388e+003,2.648511e-003
1.070316e+003,2.555012e-003
1.072245e+003,2.631743e-003
1.074173e+003,2.877595e-003
1.076102e+003,2.850512e-003
1.078030e+003,2.734395e-003
1.079959e+003,2.813859e-003
1.081887e+003,2.881564e-003
1.083816e+003,2.915554e-003
1.085744e+003,2.994084e-003
1.087673e+003,3.226187e-003
1.089601e+003,3.246984e-003
1.091530e+003,3.375293e-003
1.093458e+003,3.596474e-003
1.095387e+003,3.448829e-003
1.097315e+003,3.467266e-003
1.099244e+003,3.559091e-003
1.101172e+003,3.671953e-003
1.103101e+003,3.857615e-003
1.105029e+003,3.588723e-003
1.106958e+003,3.463892e-003
1.108886e+003,3.735447e-003
1.110815e+003,4.079344e-003
1.112743e+003,4.141058e-003
1.114672e+003,3.944976e-003
1.116600e+003,3.826727e-003
1.118529e+003,3.831240e-003
1.120457e+003,3.697116e-003
1.122386e+003,3.722915e-003
1.124314e+003,3.792800e-003
1.126243e+003,3.612445e-003
1.128171e+003,3.571685e-003
1.130100e+003,3.715329e-003
1.132028e+003,3.503439e-003
1.133957e+003,3.056478e-003
1.135885e+003,2.847310e-003
1.137814e+003,2.637310e-003
1.139742e+003,2.260845e-003
1.141671e+003,1.931098e-003
1.143599e+003,1.583742e-003
1.145528e+003,1.346599e-003
1.147456e+003,1.139881e-003
1.149385e+003,8.904950e-004
1.151313e+003,7.164847e-004
1.153242e+003,5.274496e-004
1.155170e+003,2.074355e-004
1.157099e+003,3.479088e-006
1.159027e+003,-2.176361e-004
1.160956e+003,-1.775953e-004
1.162884e+003,-7.805678e-005
1.164813e+003,-2.672101e-004
1.166741e+003,-3.180366e-004
1.168670e+003,-1.854116e-004
1.170598e+003,-7.693042e-005
1.172526e+003,-9.534930e-005
1.174455e+003,-1.470240e-004
1.176384e+003,2.717076e-005
1.178312e+003,9.991062e-005
1.180240e+003,1.023300e-004
1.182169e+003,2.707135e-005
1.184098e+003,-7.186179e-005
1.186026e+003,-1.040947e-004
1.187954e+003,-6.238691e-005
1.189883e+003,-2.360821e-004
1.191812e+003,-3.550517e-004
1.193740e+003,-1.849480e-004
1.195668e+003,-7.123235e-005
1.197597e+003,-1.138336e-004
1.199526e+003,-1.259905e-004
1.201454e+003,-1.444735e-004
1.203382e+003,-7.040413e-005
1.205311e+003,7.114461e-005
1.207240e+003,1.558574e-004
1.209168e+003,3.406852e-004
1.211096e+003,4.262466e-004
1.213025e+003,5.597958e-004
1.214953e+003,7.997965e-004
1.216882e+003,8.837550e-004
1.218810e+003,8.555679e-004
1.220739e+003,9.541148e-004
1.222667e+003,1.108588e-003
1.224596e+003,1.241250e-003
1.226524e+003,1.293788e-003
1.228453e+003,1.486715e-003
1.230381e+003,1.852726e-003
1.232310e+003,1.990576e-003
1.234238e+003,2.025828e-003
1.236167e+003,2.197200e-003
1.238095e+003,2.251186e-003
1.240024e+003,2.261777e-003
1.241952e+003,2.281629e-003
1.243881e+003,2.096040e-003
1.245809e+003,2.049730e-003
1.247738e+003,1.956992e-003
1.249666e+003,1.869331e-003
1.251595e+003,1.792202e-003
1.253523e+003,1.713590e-003
1.255452e+003,1.613773e-003
1.257380e+003,1.545102e-003
1.259309e+003,1.505201e-003
1.261237e+003,1.673341e-003
1.263166e+003,1.911229e-003
1.265094e+003,2.094808e-003
1.267023e+003,2.328297e-003
1.268951e+003,2.564611e-003
1.270880e+003,2.867322e-003
1.272808e+003,3.178455e-003
1.274737e+003,3.365943e-003
1.276665e+003,3.627146e-003
1.278594e+003,3.981390e-003
1.280522e+003,4.108343e-003
1.282451e+003,4.206393e-003
1.284379e+003,4.453674e-003
1.286308e+003,4.943832e-003
1.288236e+003,5.252567e-003
1.290165e+003,5.544170e-003
1.292093e+003,5.837984e-003
1.294022e+003,5.872374e-003
1.295950e+003,6.072453e-003
1.297879e+003,6.254539e-003
1.299807e+003,6.344467e-003
1.301736e+003,6.256085e-003
1.303664e+003,6.160730e-003
1.305593e+003,6.193062e-003
1.307521e+003,6.182307e-003
1.309450e+003,5.916272e-003
1.311378e+003,5.594882e-003
1.313307e+003,5.498061e-003
1.315235e+003,5.476888e-003
1.317164e+003,5.219031e-003
1.319092e+003,4.815696e-003
1.321021e+003,4.395196e-003
1.322949e+003,4.052487e-003
1.324878e+003,3.790527e-003
1.326806e+003,3.563334e-003
1.328735e+003,3.506846e-003
1.330663e+003,3.471140e-003
1.332592e+003,3.455509e-003
1.334520e+003,3.476083e-003
1.336449e+003,3.344005e-003
1.338377e+003,3.102895e-003
1.340306e+003,3.061649e-003
1.342234e+003,3.146547e-003
1.344163e+003,3.039493e-003
1.346091e+003,2.953649e-003
1.348020e+003,2.962657e-003
1.349948e+003,2.813993e-003
1.351877e+003,2.554512e-003
1.353805e+003,2.437908e-003
1.355734e+003,2.302947e-003
1.357662e+003,2.086717e-003
1.359591e+003,1.967143e-003
1.361519e+003,1.891494e-003
1.363448e+003,1.670514e-003
1.365376e+003,1.564854e-003
1.367305e+003,1.482625e-003
1.369233e+003,1.410983e-003
1.371162e+003,1.242114e-003
1.373090e+003,1.179349e-003
1.375019e+003,1.232378e-003
1.376947e+003,1.358697e-003
1.378876e+003,1.444725e-003
1.380804e+003,1.500812e-003
1.382733e+003,1.431428e-003
1.384661e+003,1.247331e-003
1.386590e+003,9.583653e-004
1.388518e+003,8.981316e-004
1.390447e+003,9.094538e-004
1.392375e+003,6.182903e-004
1.394304e+003,3.386293e-004
1.396232e+003,4.118857e-004
1.398161e+003,3.647601e-004
1.400089e+003,3.732496e-004
1.402018e+003,3.984207e-004
1.403946e+003,2.917438e-004
1.405875e+003,4.093983e-004
1.407803e+003,5.761191e-004
1.409732e+003,4.922531e-004
1.411660e+003,4.296959e-004
1.413589e+003,5.203835e-004
1.415517e+003,8.055061e-004
1.417446e+003,9.889171e-004
1.419374e+003,1.366973e-003
1.421303e+003,2.182247e-003
1.423231e+003,2.677248e-003
1.425160e+003,3.295993e-003
1.427088e+003,3.933842e-003
1.429017e+003,4.140154e-003
1.430945e+003,4.378863e-003
1.432874e+003,4.708933e-003
1.434802e+003,4.813083e-003
1.436731e+003,4.809196e-003
1.438659e+003,5.362683e-003
1.440588e+003,5.845406e-003
1.442516e+003,6.255144e-003
1.444445e+003,6.583785e-003
1.446373e+003,6.876418e-003
1.448302e+003,7.163657e-003
1.450230e+003,7.617936e-003
1.452159e+003,8.016424e-003
1.454087e+003,8.195343e-003
1.456016e+003,7.855865e-003
1.457944e+003,8.134198e-003
1.459873e+003,8.850308e-003
1.461801e+003,9.096594e-003
1.463730e+003,8.805234e-003
1.465658e+003,8.751982e-003
1.467587e+003,8.922309e-003
1.469515e+003,8.720643e-003
1.471444e+003,8.105773e-003
1.473372e+003,7.740426e-003
1.475301e+003,7.919096e-003
1.477229e+003,7.846722e-003
1.479158e+003,7.492852e-003
1.481086e+003,6.980550e-003
1.483015e+003,6.615408e-003
1.484943e+003,6.216589e-003
1.486872e+003,5.647580e-003
1.488800e+003,5.042808e-003
1.490729e+003,4.588267e-003
1.492657e+003,4.425957e-003
1.494586e+003,4.187491e-003
1.496514e+003,3.669748e-003
1.498443e+003,3.265078e-003
1.500371e+003,3.040161e-003
1.502300e+003,2.890903e-003
1.504228e+003,2.390995e-003
1.506157e+003,1.507961e-003
1.508085e+003,1.608718e-003
1.510014e+003,2.021034e-003
1.511942e+003,1.995269e-003
1.513871e+003,1.985317e-003
1.515799e+003,1.705074e-003
1.517728e+003,1.589496e-003
1.519656e+003,1.515675e-003
1.521585e+003,1.385587e-003
1.523513e+003,1.863907e-003
1.525442e+003,2.179650e-003
1.527370e+003,2.498055e-003
1.529299e+003,2.749033e-003
1.531227e+003,2.889502e-003
1.533156e+003,2.989179e-003
1.535084e+003,3.477887e-003
1.537013e+003,3.643250e-003
1.538941e+003,3.286378e-003
1.540870e+003,3.403711e-003
1.542798e+003,4.102222e-003
1.544727e+003,4.700091e-003
1.546655e+003,5.193746e-003
1.548584e+003,5.321592e-003
1.550512e+003,5.471452e-003
1.552441e+003,5.617974e-003
1.554369e+003,5.598238e-003
1.556298e+003,5.536149e-003
1.558226e+003,5.017736e-003
1.560155e+003,5.589713e-003
1.562083e+003,6.801626e-003
1.564012e+003,7.351526e-003
1.565940e+003,7.719751e-003
1.567869e+003,7.771155e-003
1.569797e+003,7.677659e-003
1.571726e+003,8.112694e-003
1.573654e+003,8.303878e-003
1.575583e+003,7.925879e-003
1.577511e+003,7.847195e-003
1.579440e+003,8.078498e-003
1.581368e+003,8.127041e-003
1.583297e+003,7.964214e-003
1.585225e+003,7.652636e-003
1.587154e+003,7.400259e-003
1.589082e+003,7.094575e-003
1.591010e+003,6.666346e-003
1.592939e+003,6.161571e-003
1.594868e+003,5.726538e-003
1.596796e+003,5.326690e-003
1.598724e+003,4.897553e-003
1.600653e+003,4.292452e-003
1.602582e+003,3.745640e-003
1.604510e+003,3.235233e-003
1.606438e+003,2.863386e-003
1.608367e+003,2.491957e-003
1.610296e+003,2.214551e-003
1.612224e+003,1.836621e-003
1.614152e+003,1.429732e-003
1.616081e+003,8.091244e-004
1.618010e+003,7.539564e-004
1.619938e+003,8.262206e-004
1.621866e+003,3.742777e-004
1.623795e+003,-1.027154e-006
1.625724e+003,8.519597e-005
1.627652e+003,-7.779176e-005
1.629580e+003,-2.867136e-004
1.631509e+003,-3.415108e-004
1.633438e+003,-7.068362e-004
1.635366e+003,-1.404366e-003
1.637294e+003,-1.429763e-003
1.639223e+003,-1.306100e-003
1.641151e+003,-1.537082e-003
1.643080e+003,-2.018763e-003
1.645008e+003,-2.793737e-003
1.646937e+003,-3.316908e-003
1.648865e+003,-3.335255e-003
1.650794e+003,-3.855903e-003
1.652722e+003,-4.953085e-003
1.654651e+003,-4.654686e-003
1.656579e+003,-4.169259e-003
1.658508e+003,-4.572431e-003
1.660436e+003,-5.058358e-003
1.662365e+003,-5.352978e-003
1.664293e+003,-5.447258e-003
1.666222e+003,-5.516261e-003
1.668150e+003,-5.941163e-003
1.670079e+003,-6.316309e-003
1.672007e+003,-6.196218e-003
1.673936e+003,-6.301288e-003
1.675864e+003,-6.292535e-003
1.677793e+003,-5.972211e-003
1.679721e+003,-5.930802e-003
1.681650e+003,-6.127421e-003
1.683578e+003,-6.492255e-003
1.685507e+003,-5.992179e-003
1.687435e+003,-5.444902e-003
1.689364e+003,-5.285193e-003
1.691292e+003,-5.067004e-003
1.693221e+003,-5.028226e-003
1.695149e+003,-5.382563e-003
1.697078e+003,-5.235075e-003
1.699006e+003,-5.492345e-003
1.700935e+003,-5.621659e-003
1.702863e+003,-4.912496e-003
1.704792e+003,-4.824129e-003
1.706720e+003,-4.700150e-003
1.708649e+003,-4.530265e-003
1.710577e+003,-4.587414e-003
1.712506e+003,-4.740760e-003
1.714434e+003,-4.996226e-003
1.716363e+003,-5.438358e-003
1.718291e+003,-5.425072e-003
1.720220e+003,-4.933889e-003
1.722148e+003,-4.760031e-003
1.724077e+003,-4.814364e-003
1.726005e+003,-4.834058e-003
1.727934e+003,-4.872427e-003
1.729862e+003,-4.924519e-003
1.731791e+003,-5.182889e-003
1.733719e+003,-5.725134e-003
1.735648e+003,-5.469966e-003
1.737576e+003,-5.119302e-003
1.739505e+003,-5.142584e-003
1.741433e+003,-4.938901e-003
1.743362e+003,-4.836123e-003
1.745290e+003,-4.627805e-003
1.747219e+003,-4.624264e-003
1.749147e+003,-4.734926e-003
1.751076e+003,-4.747642e-003
1.753004e+003,-4.426603e-003
1.754933e+003,-4.211985e-003
1.756861e+003,-4.138737e-003
1.758790e+003,-4.084188e-003
1.760718e+003,-4.273737e-003
1.762647e+003,-4.248637e-003
1.764575e+003,-4.038527e-003
1.766504e+003,-4.057370e-003
1.768432e+003,-4.103159e-003
1.770361e+003,-4.180909e-003
1.772289e+003,-4.327213e-003
1.774218e+003,-4.111004e-003
1.776146e+003,-3.841222e-003
1.778075e+003,-3.775073e-003
1.780003e+003,-3.866773e-003
1.781932e+003,-3.804109e-003
1.783860e+003,-3.744721e-003
1.785789e+003,-3.691962e-003
1.787717e+003,-3.648231e-003
1.789646e+003,-3.679806e-003
1.791574e+003,-3.950770e-003
1.793503e+003,-3.996933e-003
1.795431e+003,-3.753032e-003
1.797360e+003,-3.707041e-003
1.799288e+003,-3.740155e-003
1.801217e+003,-3.778095e-003
1.803145e+003,-3.615143e-003
1.805074e+003,-3.523029e-003
1.807002e+003,-3.471228e-003
1.808931e+003,-3.588461e-003
1.810859e+003,-3.606994e-003
1.812788e+003,-3.485757e-003
1.814716e+003,-3.456995e-003
1.816645e+003,-3.525264e-003
1.818573e+003,-3.652536e-003
1.820502e+003,-3.785190e-003
1.822430e+003,-3.733914e-003
1.824359e+003,-3.767453e-003
1.826287e+003,-3.826279e-003
1.828216e+003,-3.952511e-003
1.830144e+003,-3.972473e-003
1.832073e+003,-3.752014e-003
1.834001e+003,-3.678820e-003
1.835930e+003,-3.777997e-003
1.837858e+003,-3.810218e-003
1.839787e+003,-3.835015e-003
1.841715e+003,-3.945747e-003
1.843644e+003,-4.213133e-003
1.845572e+003,-4.112349e-003
1.847501e+003,-3.864310e-003
1.849429e+003,-3.787391e-003
1.851358e+003,-3.755956e-003
1.853286e+003,-3.741075e-003
1.855215e+003,-3.716503e-003
1.857143e+003,-3.702737e-003
1.859072e+003,-3.778391e-003
1.861000e+003,-3.806113e-003
1.862929e+003,-3.711509e-003
1.864857e+003,-3.605252e-003
1.866786e+003,-3.778653e-003
1.868714e+003,-3.954415e-003
1.870643e+003,-3.801909e-003
1.872571e+003,-3.574856e-003
1.874500e+003,-3.436549e-003
1.876428e+003,-3.454826e-003
1.878357e+003,-3.467317e-003
1.880285e+003,-3.384311e-003
1.882214e+003,-3.378919e-003
1.884142e+003,-3.453774e-003
1.886071e+003,-3.448021e-003
1.887999e+003,-3.439014e-003
1.889928e+003,-3.405384e-003
1.891856e+003,-3.276889e-003
1.893785e+003,-3.274061e-003
1.895713e+003,-3.276067e-003
1.897642e+003,-3.212857e-003
1.899570e+003,-3.183551e-003
1.901499e+003,-3.126348e-003
1.903427e+003,-3.046468e-003
1.905356e+003,-3.125953e-003
1.907284e+003,-3.178157e-003
1.909213e+003,-3.168256e-003
1.911141e+003,-3.083647e-003
1.913070e+003,-3.089930e-003
1.914998e+003,-3.220619e-003
1.916927e+003,-3.356266e-003
1.918855e+003,-3.315362e-003
1.920784e+003,-3.213975e-003
1.922712e+003,-3.305761e-003
1.924641e+003,-3.233215e-003
1.926569e+003,-3.130625e-003
1.928498e+003,-3.150066e-003
1.930426e+003,-3.154770e-003
1.932355e+003,-3.171743e-003
1.934283e+003,-3.201872e-003
1.936212e+003,-3.194701e-003
1.938140e+003,-3.281624e-003
1.940069e+003,-3.371883e-003
1.941997e+003,-3.431322e-003
1.943926e+003,-3.392365e-003
1.945854e+003,-3.332724e-003
1.947783e+003,-3.345218e-003
1.949711e+003,-3.350216e-003
1.951640e+003,-3.278007e-003
1.953568e+003,-3.316020e-003
1.955497e+003,-3.362020e-003
1.957425e+003,-3.391807e-003
1.959354e+003,-3.488058e-003
1.961282e+003,-3.432275e-003
1.963211e+003,-3.392004e-003
1.965139e+003,-3.361592e-003
1.967068e+003,-3.387861e-003
1.968996e+003,-3.433820e-003
1.970925e+003,-3.383587e-003
1.972853e+003,-3.303821e-003
1.974782e+003,-3.281624e-003
1.976710e+003,-3.332526e-003
1.978639e+003,-3.316645e-003
1.980567e+003,-3.285504e-003
1.982496e+003,-3.272811e-003
1.984424e+003,-3.306287e-003
1.986353e+003,-3.294515e-003
1.988281e+003,-3.166381e-003
1.990210e+003,-3.094141e-003
1.992138e+003,-3.079172e-003
1.994067e+003,-3.005536e-003
1.995995e+003,-2.979638e-003
1.997924e+003,-2.926358e-003
1.999852e+003,-2.838574e-003
2.001781e+003,-2.902595e-003
2.003709e+003,-2.990893e-003
2.005638e+003,-2.941135e-003
2.007566e+003,-2.950942e-003
2.009495e+003,-2.990794e-003
2.011423e+003,-3.015210e-003
2.013352e+003,-2.884723e-003
2.015280e+003,-2.789819e-003
2.017208e+003,-2.830641e-003
2.019137e+003,-2.840022e-003
2.021066e+003,-2.815695e-003
2.022994e+003,-2.784321e-003
2.024922e+003,-2.750509e-003
2.026851e+003,-2.724629e-003
2.028780e+003,-2.728910e-003
2.030708e+003,-2.698122e-003
2.032636e+003,-2.648891e-003
2.034565e+003,-2.615858e-003
2.036494e+003,-2.617966e-003
2.038422e+003,-2.572316e-003
2.040350e+003,-2.513813e-003
2.042279e+003,-2.546261e-003
2.044208e+003,-2.628143e-003
2.046136e+003,-2.671778e-003
2.048064e+003,-2.594153e-003
2.049993e+003,-2.522906e-003
2.051921e+003,-2.613849e-003
2.053850e+003,-2.719130e-003
2.055778e+003,-2.668946e-003
2.057707e+003,-2.569483e-003
2.059635e+003,-2.402354e-003
2.061564e+003,-2.398070e-003
2.063492e+003,-2.465714e-003
2.065421e+003,-2.484362e-003
2.067349e+003,-2.509333e-003
2.069278e+003,-2.504853e-003
2.071206e+003,-2.503930e-003
2.073135e+003,-2.485317e-003
2.075063e+003,-2.448681e-003
2.076992e+003,-2.458005e-003
2.078920e+003,-2.380407e-003
2.080849e+003,-2.354967e-003
2.082777e+003,-2.381792e-003
2.084706e+003,-2.288591e-003
2.086634e+003,-2.240137e-003
2.088563e+003,-2.266343e-003
2.090491e+003,-2.177700e-003
2.092420e+003,-2.060350e-003
2.094348e+003,-2.057547e-003
2.096277e+003,-2.002207e-003
2.098205e+003,-1.926342e-003
2.100134e+003,-1.976711e-003
2.102062e+003,-1.902756e-003
2.103991e+003,-1.735238e-003
2.105919e+003,-1.702795e-003
2.107848e+003,-1.727350e-003
2.109776e+003,-1.682431e-003
2.111705e+003,-1.590302e-003
2.113633e+003,-1.542232e-003
2.115562e+003,-1.468500e-003
2.117490e+003,-1.344880e-003
2.119419e+003,-1.329785e-003
2.121347e+003,-1.351256e-003
2.123276e+003,-1.348415e-003
2.125204e+003,-1.368464e-003
2.127133e+003,-1.364170e-003
2.129061e+003,-1.275806e-003
2.130990e+003,-1.246171e-003
2.132918e+003,-1.213329e-003
2.134847e+003,-1.189175e-003
2.136775e+003,-1.191719e-003
2.138704e+003,-1.150909e-003
2.140632e+003,-1.122521e-003
2.142561e+003,-1.155833e-003
2.144489e+003,-1.143539e-003
2.146418e+003,-1.073507e-003
2.148346e+003,-1.011894e-003
2.150275e+003,-1.007662e-003
2.152203e+003,-1.041908e-003
2.154132e+003,-1.127941e-003
2.156060e+003,-1.131246e-003
2.157989e+003,-1.144365e-003
2.159917e+003,-1.206456e-003
2.161846e+003,-1.163400e-003
2.163774e+003,-1.157022e-003
2.165703e+003,-1.205993e-003
2.167631e+003,-1.226149e-003
2.169560e+003,-1.118225e-003
2.171488e+003,-1.030240e-003
2.173417e+003,-1.056154e-003
2.175345e+003,-1.057245e-003
2.177274e+003,-1.127511e-003
2.179202e+003,-1.186895e-003
2.181131e+003,-1.101303e-003
2.183059e+003,-1.039793e-003
2.184988e+003,-1.140135e-003
2.186916e+003,-1.172091e-003
2.188845e+003,-1.122455e-003
2.190773e+003,-1.026306e-003
2.192702e+003,-9.747690e-004
2.194630e+003,-1.050436e-003
2.196559e+003,-1.127941e-003
2.198487e+003,-1.157220e-003
2.200416e+003,-1.113135e-003
2.202344e+003,-1.030736e-003
2.204273e+003,-1.013282e-003
2.206201e+003,-1.029347e-003
2.208130e+003,-1.045379e-003
2.210058e+003,-1.117365e-003
2.211987e+003,-1.103518e-003
2.213915e+003,-9.677933e-004
2.215844e+003,-9.471632e-004
2.217772e+003,-9.487832e-004
2.219701e+003,-8.957490e-004
2.221629e+003,-9.134719e-004
2.223558e+003,-9.669007e-004
2.225486e+003,-1.010704e-003
2.227415e+003,-9.758269e-004
2.229343e+003,-9.723887e-004
2.231272e+003,-9.716614e-004
2.233200e+003,-1.059460e-003
2.235129e+003,-1.037148e-003
2.237057e+003,-9.037178e-004
2.238986e+003,-9.477253e-004
2.240914e+003,-9.985053e-004
2.242843e+003,-9.826702e-004
2.244771e+003,-9.940754e-004
2.246700e+003,-1.034405e-003
2.248628e+003,-1.113234e-003
2.250557e+003,-1.109500e-003
2.252485e+003,-1.155667e-003
2.254414e+003,-1.153718e-003
2.256342e+003,-1.075325e-003
2.258271e+003,-1.074234e-003
2.260199e+003,-1.076614e-003
2.262128e+003,-1.092049e-003
2.264056e+003,-1.116903e-003
2.265985e+003,-1.106823e-003
2.267913e+003,-1.226446e-003
2.269842e+003,-1.291796e-003
2.271770e+003,-1.274418e-003
2.273699e+003,-1.246336e-003
2.275627e+003,-1.222382e-003
2.277556e+003,-1.348415e-003
2.279484e+003,-1.448785e-003
2.281413e+003,-1.416586e-003
2.283341e+003,-1.460971e-003
2.285270e+003,-1.575215e-003
2.287198e+003,-1.558377e-003
2.289127e+003,-1.533582e-003
2.291055e+003,-1.530379e-003
2.292984e+003,-1.539096e-003
2.294912e+003,-1.570659e-003
2.296841e+003,-1.562702e-003
2.298769e+003,-1.534639e-003
2.300698e+003,-1.460112e-003
2.302626e+003,-1.391353e-003
2.304555e+003,-1.452154e-003
2.306483e+003,-1.515719e-003
2.308412e+003,-1.457834e-003
2.310340e+003,-1.432141e-003
2.312269e+003,-1.513243e-003
2.314197e+003,-1.581289e-003
2.316125e+003,-1.538634e-003
2.318054e+003,-1.582940e-003
2.319983e+003,-1.637442e-003
2.321911e+003,-1.717977e-003
2.323840e+003,-1.757117e-003
2.325768e+003,-1.663981e-003
2.327697e+003,-1.660152e-003
2.329625e+003,-1.629156e-003
2.331553e+003,-1.645463e-003
2.333482e+003,-1.665037e-003
2.335411e+003,-1.638300e-003
2.337339e+003,-1.611826e-003
2.339268e+003,-1.562108e-003
2.341196e+003,-1.580629e-003
2.343125e+003,-1.610736e-003
2.345053e+003,-1.493134e-003
2.346981e+003,-1.261501e-003
2.348910e+003,-1.185507e-003
2.350839e+003,-1.260972e-003
2.352767e+003,-1.417280e-003
2.354696e+003,-1.607039e-003
2.356624e+003,-1.610637e-003
2.358552e+003,-1.567456e-003
2.360481e+003,-1.605025e-003
2.362409e+003,-1.654441e-003
2.364338e+003,-1.652890e-003
2.366267e+003,-1.467476e-003
2.368195e+003,-1.373056e-003
2.370124e+003,-1.364831e-003
2.372052e+003,-1.209198e-003
2.373980e+003,-1.080382e-003
2.375909e+003,-1.055626e-003
2.377838e+003,-8.361273e-004
2.379766e+003,-6.095035e-004
2.381695e+003,-5.406428e-004
2.383623e+003,-4.818329e-004
2.385552e+003,-3.335979e-004
2.387480e+003,-2.841308e-004
2.389408e+003,-2.672101e-004
2.391337e+003,-2.460499e-004
2.393266e+003,-2.012427e-004
2.395194e+003,-1.550727e-004
2.397123e+003,-1.362920e-004
2.399051e+003,-2.079326e-004
2.400979e+003,-2.813825e-004
2.402908e+003,-2.400560e-004
2.404836e+003,-1.818347e-004
2.406765e+003,-1.273486e-004
2.408694e+003,-8.680251e-005
2.410622e+003,-4.539126e-005
2.412551e+003,-4.058730e-005
2.414479e+003,-2.597631e-005
2.416407e+003,6.626813e-007
2.418336e+003,3.247257e-005
2.420264e+003,7.339810e-005
2.422193e+003,1.371634e-004
2.424122e+003,2.313372e-004
2.426050e+003,2.908486e-004
2.427979e+003,2.764259e-004
2.429907e+003,2.787136e-004
2.431835e+003,3.778261e-004
2.433764e+003,4.820032e-004
2.435692e+003,5.260563e-004
2.437621e+003,5.805981e-004
2.439550e+003,6.850561e-004
2.441478e+003,6.994925e-004
2.443406e+003,7.080881e-004
2.445335e+003,7.148253e-004
2.447263e+003,6.885075e-004
2.449192e+003,6.981649e-004
2.451121e+003,8.056388e-004
2.453049e+003,8.627390e-004
2.454978e+003,8.922879e-004
2.456906e+003,9.222705e-004
2.458834e+003,1.014589e-003
2.460763e+003,1.047403e-003
2.462691e+003,1.052551e-003
2.464620e+003,1.109916e-003
2.466549e+003,1.206727e-003
2.468477e+003,1.181542e-003
2.470406e+003,1.201876e-003
2.472334e+003,1.162472e-003
2.474262e+003,1.143668e-003
2.476191e+003,1.215698e-003
2.478119e+003,1.273218e-003
2.480048e+003,1.287341e-003
2.481977e+003,1.221081e-003
2.483905e+003,1.207558e-003
2.485833e+003,1.297145e-003
2.487762e+003,1.365311e-003
2.489690e+003,1.476741e-003
2.491619e+003,1.432657e-003
2.493547e+003,1.415305e-003
2.495476e+003,1.448881e-003
2.497405e+003,1.512782e-003
2.499333e+003,1.613706e-003
2.501261e+003,1.754341e-003
2.503190e+003,1.654648e-003
2.505118e+003,1.431627e-003
2.507047e+003,1.458156e-003
2.508975e+003,1.624415e-003
2.510904e+003,1.692367e-003
2.512833e+003,1.720708e-003
2.514761e+003,1.741067e-003
2.516689e+003,1.730023e-003
2.518618e+003,1.677199e-003
2.520546e+003,1.697024e-003
2.522475e+003,1.727528e-003
2.524403e+003,1.725199e-003
2.526332e+003,1.748785e-003
2.528260e+003,1.822779e-003
2.530189e+003,1.823012e-003
2.532117e+003,1.820816e-003
2.534046e+003,1.819319e-003
2.535974e+003,1.910497e-003
2.537903e+003,1.918185e-003
2.539831e+003,1.874156e-003
2.541760e+003,1.890429e-003
2.543688e+003,1.889730e-003
2.545617e+003,1.895521e-003
2.547545e+003,1.993638e-003
2.549474e+003,2.098404e-003
2.551402e+003,2.099036e-003
2.553331e+003,2.072668e-003
2.555259e+003,2.005988e-003
2.557188e+003,2.115950e-003
2.559116e+003,2.127204e-003
2.561045e+003,2.114252e-003
2.562973e+003,2.263143e-003
2.564902e+003,2.185944e-003
2.566830e+003,2.136261e-003
2.568759e+003,2.257248e-003
2.570687e+003,2.297184e-003
2.572616e+003,2.317803e-003
2.574544e+003,2.359078e-003
2.576473e+003,2.286059e-003
2.578401e+003,2.233334e-003
2.580330e+003,2.233068e-003
2.582258e+003,2.312107e-003
2.584187e+003,2.365275e-003
2.586115e+003,2.340522e-003
2.588044e+003,2.340856e-003
2.589972e+003,2.430377e-003
2.591901e+003,2.446704e-003
2.593829e+003,2.407054e-003
2.595758e+003,2.384198e-003
2.597686e+003,2.413218e-003
2.599615e+003,2.477127e-003
2.601543e+003,2.498888e-003
2.603472e+003,2.353248e-003
2.605400e+003,2.277132e-003
2.607329e+003,2.378068e-003
2.609257e+003,2.500688e-003
2.611186e+003,2.548679e-003
2.613114e+003,2.643211e-003
2.615043e+003,2.674281e-003
2.616971e+003,2.702286e-003
2.618900e+003,2.646311e-003
2.620828e+003,2.549412e-003
2.622757e+003,2.630543e-003
2.624685e+003,2.840773e-003
2.626614e+003,2.807156e-003
2.628542e+003,2.626243e-003
2.630471e+003,2.495389e-003
2.632399e+003,2.550846e-003
2.634328e+003,2.560711e-003
2.636256e+003,2.610442e-003
2.638185e+003,2.679482e-003
2.640113e+003,2.749200e-003
2.642042e+003,2.852079e-003
2.643970e+003,2.892104e-003
2.645899e+003,2.950480e-003
2.647827e+003,3.035990e-003
2.649756e+003,3.065320e-003
2.651684e+003,2.977736e-003
2.653613e+003,2.924860e-003
2.655541e+003,3.028249e-003
2.657470e+003,3.103529e-003
2.659398e+003,3.086777e-003
2.661327e+003,3.106900e-003
2.663255e+003,3.123452e-003
2.665184e+003,3.093317e-003
2.667112e+003,3.183228e-003
2.669041e+003,3.327978e-003
2.670969e+003,3.251357e-003
2.672898e+003,3.279066e-003
2.674826e+003,3.373022e-003
2.676755e+003,3.453672e-003
2.678683e+003,3.468000e-003
2.680612e+003,3.473077e-003
2.682540e+003,3.516900e-003
2.684469e+003,3.514128e-003
2.686397e+003,3.476785e-003
2.688326e+003,3.525819e-003
2.690254e+003,3.590227e-003
2.692183e+003,3.607667e-003
2.694111e+003,3.623437e-003
2.696040e+003,3.727025e-003
2.697968e+003,3.762719e-003
2.699897e+003,3.699956e-003
2.701825e+003,3.693006e-003
2.703754e+003,3.785514e-003
2.705682e+003,3.812956e-003
2.707611e+003,3.947751e-003
2.709539e+003,4.075331e-003
2.711468e+003,4.026936e-003
2.713396e+003,4.041986e-003
2.715325e+003,4.101486e-003
2.717253e+003,4.107106e-003
2.719182e+003,4.106035e-003
2.721110e+003,4.125001e-003
2.723039e+003,4.196959e-003
2.724967e+003,4.251662e-003
2.726896e+003,4.301855e-003
2.728824e+003,4.325749e-003
2.730753e+003,4.390945e-003
2.732681e+003,4.470245e-003
2.734610e+003,4.440719e-003
2.736538e+003,4.463349e-003
2.738467e+003,4.595466e-003
2.740395e+003,4.681535e-003
2.742324e+003,4.693492e-003
2.744252e+003,4.710876e-003
2.746181e+003,4.741056e-003
2.748109e+003,4.781524e-003
2.750038e+003,4.881870e-003
2.751966e+003,4.968968e-003
2.753895e+003,5.028763e-003
2.755823e+003,5.091115e-003
2.757752e+003,5.162696e-003
2.759680e+003,5.256323e-003
2.761609e+003,5.489169e-003
2.763537e+003,5.656912e-003
2.765466e+003,5.765183e-003
2.767394e+003,5.986310e-003
2.769323e+003,6.249430e-003
2.771251e+003,6.471778e-003
2.773180e+003,6.790418e-003
2.775108e+003,7.127245e-003
2.777037e+003,7.394158e-003
2.778965e+003,7.645892e-003
2.780894e+003,7.953483e-003
2.782822e+003,8.290943e-003
2.784750e+003,8.655469e-003
2.786679e+003,9.150057e-003
2.788608e+003,9.622714e-003
2.790536e+003,9.965577e-003
2.792465e+003,1.033938e-002
2.794393e+003,1.077261e-002
2.796322e+003,1.106275e-002
2.798250e+003,1.132250e-002
2.800178e+003,1.164322e-002
2.802107e+003,1.200584e-002
2.804036e+003,1.221384e-002
2.805964e+003,1.240882e-002
2.807893e+003,1.252714e-002
2.809821e+003,1.251347e-002
2.811750e+003,1.245809e-002
2.813678e+003,1.232887e-002
2.815606e+003,1.225396e-002
2.817535e+003,1.222015e-002
2.819464e+003,1.206463e-002
2.821392e+003,1.189219e-002
2.823321e+003,1.166735e-002
2.825249e+003,1.134222e-002
2.827177e+003,1.114184e-002
2.829106e+003,1.090367e-002
2.831034e+003,1.054062e-002
2.832963e+003,1.027044e-002
2.834892e+003,1.001135e-002
2.836820e+003,9.573901e-003
2.838749e+003,9.157028e-003
2.840677e+003,8.755228e-003
2.842605e+003,8.313031e-003
2.844534e+003,7.727440e-003
2.846462e+003,7.126909e-003
2.848391e+003,6.638958e-003
2.850320e+003,6.391137e-003
2.852248e+003,6.317605e-003
2.854177e+003,6.266977e-003
2.856105e+003,6.087506e-003
2.858033e+003,6.013857e-003
2.859962e+003,6.173300e-003
2.861890e+003,6.259379e-003
2.863819e+003,6.278238e-003
2.865748e+003,6.303888e-003
2.867676e+003,6.288357e-003
2.869604e+003,6.203011e-003
2.871533e+003,6.228387e-003
2.873461e+003,6.311990e-003
2.875390e+003,6.442250e-003
2.877319e+003,6.612616e-003
2.879247e+003,6.755350e-003
2.881176e+003,6.788029e-003
2.883104e+003,6.773624e-003
2.885032e+003,6.688385e-003
2.886961e+003,6.563501e-003
2.888889e+003,6.505579e-003
2.890818e+003,6.508336e-003
2.892747e+003,6.360203e-003
2.894675e+003,6.205901e-003
2.896604e+003,6.161907e-003
2.898532e+003,6.088447e-003
2.900460e+003,6.006634e-003
2.902389e+003,5.845507e-003
2.904317e+003,5.734831e-003
2.906246e+003,5.674300e-003
2.908175e+003,5.637342e-003
2.910103e+003,5.525209e-003
2.912031e+003,5.242136e-003
2.913960e+003,5.003389e-003
2.915888e+003,4.833286e-003
2.917817e+003,4.862369e-003
2.919745e+003,4.930326e-003
2.921674e+003,4.987569e-003
2.923603e+003,4.966018e-003
2.925531e+003,4.941285e-003
2.927459e+003,5.032685e-003
2.929388e+003,5.159377e-003
2.931316e+003,5.308846e-003
2.933245e+003,5.480713e-003
2.935173e+003,5.760516e-003
2.937102e+003,5.931286e-003
2.939031e+003,5.737819e-003
2.940959e+003,5.623110e-003
2.942887e+003,5.638248e-003
2.944816e+003,5.588001e-003
2.946744e+003,5.442664e-003
2.948673e+003,5.147540e-003
2.950601e+003,4.827322e-003
2.952530e+003,4.498165e-003
2.954458e+003,4.128580e-003
2.956387e+003,3.756603e-003
2.958315e+003,3.366076e-003
2.960244e+003,3.085108e-003
2.962172e+003,2.806089e-003
2.964101e+003,2.578776e-003
2.966029e+003,2.342788e-003
2.967958e+003,1.986415e-003
2.969886e+003,1.770177e-003
2.971815e+003,1.613773e-003
2.973743e+003,1.450909e-003
2.975672e+003,1.288803e-003
2.977600e+003,1.140911e-003
2.979529e+003,1.087992e-003
2.981457e+003,9.031784e-004
2.983386e+003,6.802109e-004
2.985314e+003,4.736442e-004
2.987243e+003,4.483361e-004
2.989171e+003,5.194547e-004
2.991100e+003,4.907272e-004
2.993028e+003,3.439681e-004
2.994957e+003,2.756633e-004
2.996885e+003,2.432720e-004
2.998814e+003,1.647074e-004
3.000742e+003,1.154543e-004
3.002671e+003,8.744953e-005
3.004599e+003,1.037882e-004
3.006528e+003,7.704348e-005
3.008456e+003,-2.209984e-005
3.010385e+003,-1.257917e-004
3.012313e+003,1.308814e-005
3.014242e+003,4.042372e-006
3.016170e+003,-1.138336e-004
3.018099e+003,-7.521362e-006
3.020027e+003,1.168795e-004
3.021956e+003,4.536287e-005
3.023884e+003,-1.100905e-004
3.025813e+003,-2.065747e-004
3.027741e+003,-3.275390e-004
3.029670e+003,-1.627902e-004
3.031598e+003,-4.638518e-005
3.033527e+003,-1.309591e-004
3.035455e+003,-1.218168e-004
3.037384e+003,-1.347352e-004
3.039312e+003,-2.645941e-004
3.041241e+003,-3.870319e-004
3.043169e+003,-4.586642e-004
3.045098e+003,-4.266893e-004
3.047026e+003,-4.507534e-004
3.048955e+003,-5.852496e-004
3.050883e+003,-5.710871e-004
3.052812e+003,-5.013268e-004
3.054740e+003,-5.186355e-004
3.056669e+003,-5.778045e-004
3.058597e+003,-6.087756e-004
3.060526e+003,-6.702480e-004
3.062454e+003,-6.966474e-004
3.064383e+003,-7.139815e-004
3.066311e+003,-7.380628e-004
3.068240e+003,-7.119967e-004
3.070168e+003,-7.735538e-004
3.072097e+003,-8.014021e-004
3.074025e+003,-7.714370e-004
3.075954e+003,-7.440498e-004
3.077882e+003,-7.909840e-004
3.079811e+003,-8.512402e-004
3.081739e+003,-8.550101e-004
3.083668e+003,-8.500827e-004
3.085596e+003,-8.905576e-004
3.087525e+003,-9.956623e-004
3.089453e+003,-1.050073e-003
3.091382e+003,-1.060716e-003
3.093310e+003,-1.040619e-003
3.095239e+003,-9.799263e-004
3.097167e+003,-9.822074e-004
3.099096e+003,-1.044189e-003
3.101024e+003,-1.117729e-003
3.102953e+003,-1.120042e-003
3.104881e+003,-1.118390e-003
3.106810e+003,-1.185110e-003
3.108738e+003,-1.111780e-003
3.110667e+003,-1.130221e-003
3.112595e+003,-1.148298e-003
3.114524e+003,-1.118753e-003
3.116452e+003,-1.106558e-003
3.118381e+003,-1.119381e-003
3.120309e+003,-1.261963e-003
3.122238e+003,-1.260774e-003
3.124166e+003,-1.278019e-003
3.126095e+003,-1.392509e-003
3.128023e+003,-1.322947e-003
3.129952e+003,-1.201566e-003
3.131880e+003,-1.286444e-003
3.133809e+003,-1.372692e-003
3.135737e+003,-1.336391e-003
3.137666e+003,-1.204705e-003
3.139594e+003,-1.137227e-003
3.141523e+003,-1.254959e-003
3.143451e+003,-1.359513e-003
3.145380e+003,-1.362783e-003
3.147308e+003,-1.186069e-003
3.149237e+003,-1.265597e-003
3.151165e+003,-1.468830e-003
3.153094e+003,-1.450139e-003
3.155022e+003,-1.332725e-003
3.156951e+003,-1.246997e-003
3.158879e+003,-1.249904e-003
3.160808e+003,-1.282446e-003
3.162736e+003,-1.306760e-003
3.164665e+003,-1.319578e-003
3.166593e+003,-1.385177e-003
3.168522e+003,-1.310196e-003
3.170450e+003,-1.173578e-003
3.172379e+003,-1.149124e-003
3.174307e+003,-1.175065e-003
3.176236e+003,-1.208736e-003
3.178164e+003,-1.328199e-003
3.180093e+003,-1.334442e-003
3.182021e+003,-1.284825e-003
3.183950e+003,-1.239464e-003
3.185878e+003,-1.304051e-003
3.187807e+003,-1.357630e-003
3.189735e+003,-1.370149e-003
3.191664e+003,-1.433825e-003
3.193592e+003,-1.513903e-003
3.195521e+003,-1.448389e-003
3.197449e+003,-1.335070e-003
3.199378e+003,-1.265597e-003
3.201306e+003,-1.229387e-003
3.203235e+003,-1.331040e-003
3.205163e+003,-1.316935e-003
3.207092e+003,-1.216732e-003
3.209020e+003,-1.165118e-003
3.210948e+003,-1.128238e-003
3.212877e+003,-1.045775e-003
3.214806e+003,-1.013381e-003
3.216734e+003,-1.008158e-003
3.218663e+003,-1.074135e-003
3.220591e+003,-1.136765e-003
3.222520e+003,-1.017513e-003
3.224448e+003,-8.596397e-004
3.226376e+003,-6.801728e-004
3.228305e+003,-6.045403e-004
3.230234e+003,-6.681638e-004
3.232162e+003,-7.188772e-004
3.234091e+003,-6.951588e-004
3.236019e+003,-6.024558e-004
3.237948e+003,-5.566925e-004
3.239876e+003,-3.798812e-004
3.241804e+003,-2.835017e-004
3.243733e+003,-3.737899e-004
3.245662e+003,-2.638987e-004
3.247590e+003,-2.402547e-004
3.249519e+003,-1.148274e-004
3.251447e+003,-2.339200e-005
3.253375e+003,-3.044912e-005
3.255304e+003,-4.655083e-005
3.257232e+003,7.757371e-005
3.259161e+003,2.148280e-004
3.261090e+003,1.368320e-004
3.263018e+003,1.375280e-004
3.264947e+003,1.846290e-004
3.266875e+003,3.081565e-004
3.268803e+003,4.523826e-004
3.270732e+003,4.967644e-004
3.272660e+003,5.438380e-004
3.274589e+003,5.345821e-004
3.276518e+003,4.984231e-004
3.278446e+003,4.532450e-004
3.280375e+003,3.903287e-004
3.282303e+003,4.676073e-004
3.284231e+003,4.791505e-004
3.286160e+003,4.029311e-004
3.288088e+003,4.519514e-004
3.290017e+003,2.957226e-004
3.291946e+003,1.379258e-004
3.293874e+003,9.394516e-005
3.295802e+003,1.497684e-005
3.297731e+003,5.987734e-005
3.299659e+003,-1.766008e-005
3.301588e+003,-2.099859e-004
3.303516e+003,-3.521052e-004
3.305445e+003,-4.119258e-004
3.307374e+003,-5.446470e-004
3.309302e+003,-7.155031e-004
3.311230e+003,-8.422453e-004
3.313159e+003,-8.536542e-004
3.315087e+003,-7.891649e-004
3.317016e+003,-9.077517e-004
3.318944e+003,-1.057047e-003
3.320873e+003,-1.114821e-003
3.322802e+003,-1.266423e-003
3.324730e+003,-1.520738e-003
3.326658e+003,-1.511493e-003
3.328587e+003,-1.404630e-003
3.330515e+003,-1.486002e-003
3.332444e+003,-1.529686e-003
3.334372e+003,-1.575215e-003
3.336301e+003,-1.633679e-003
3.338229e+003,-1.722697e-003
3.340158e+003,-1.818295e-003
3.342086e+003,-1.757216e-003
3.344015e+003,-1.666291e-003
3.345943e+003,-1.744577e-003
3.347872e+003,-1.823707e-003
3.349800e+003,-1.787113e-003
3.351729e+003,-1.861286e-003
3.353657e+003,-2.053853e-003
3.355586e+003,-2.146082e-003
3.357514e+003,-2.271946e-003
3.359443e+003,-2.315749e-003
3.361371e+003,-2.239610e-003
3.363300e+003,-2.228995e-003
3.365229e+003,-2.349266e-003
3.367157e+003,-2.522444e-003
3.369085e+003,-2.678496e-003
3.371014e+003,-2.712742e-003
3.372942e+003,-2.676422e-003
3.374871e+003,-2.840582e-003
3.376799e+003,-2.992966e-003
3.378728e+003,-3.030444e-003
3.380656e+003,-3.088384e-003
3.382585e+003,-3.286590e-003
3.384513e+003,-3.433097e-003
3.386442e+003,-3.457817e-003
3.388370e+003,-3.347421e-003
3.390299e+003,-3.356331e-003
3.392227e+003,-3.411860e-003
3.394156e+003,-3.408869e-003
3.396084e+003,-3.501566e-003
3.398013e+003,-3.582414e-003
3.399941e+003,-3.541203e-003
3.401870e+003,-3.474680e-003
3.403798e+003,-3.600981e-003
3.405727e+003,-3.774548e-003
3.407655e+003,-3.769883e-003
3.409584e+003,-3.682664e-003
3.411512e+003,-3.770705e-003
3.413441e+003,-3.878793e-003
3.415369e+003,-3.856494e-003
3.417298e+003,-3.889958e-003
3.419226e+003,-3.901451e-003
3.421155e+003,-3.952248e-003
3.423083e+003,-3.943744e-003
3.425012e+003,-3.870812e-003
3.426940e+003,-4.011706e-003
3.428869e+003,-3.972047e-003
3.430797e+003,-3.894588e-003
3.432726e+003,-3.957009e-003
3.434654e+003,-4.046176e-003
3.436583e+003,-4.165353e-003
3.438511e+003,-4.143004e-003
3.440440e+003,-4.031469e-003
3.442368e+003,-3.933270e-003
3.444297e+003,-3.980451e-003
3.446225e+003,-4.178546e-003
3.448154e+003,-4.308612e-003
3.450082e+003,-4.248473e-003
3.452011e+003,-4.194527e-003
3.453939e+003,-4.323277e-003
3.455868e+003,-4.496686e-003
3.457796e+003,-4.314648e-003
3.459725e+003,-4.153867e-003
3.461653e+003,-4.217596e-003
3.463582e+003,-4.321308e-003
3.465510e+003,-4.420502e-003
3.467439e+003,-4.541380e-003
3.469367e+003,-4.569742e-003
3.471296e+003,-4.516690e-003
3.473224e+003,-4.352998e-003
3.475153e+003,-4.424602e-003
3.477081e+003,-4.503311e-003
3.479010e+003,-4.431719e-003
3.480938e+003,-4.388522e-003
3.482867e+003,-4.420797e-003
3.484795e+003,-4.358016e-003
3.486724e+003,-4.375336e-003
3.488652e+003,-4.383504e-003
3.490581e+003,-4.441624e-003
3.492509e+003,-4.512066e-003
3.494438e+003,-4.505147e-003
3.496366e+003,-4.355359e-003
3.498295e+003,-4.321899e-003
3.500223e+003,-4.428701e-003
3.502152e+003,-4.462679e-003
3.504080e+003,-4.493407e-003
3.506009e+003,-4.421453e-003
3.507937e+003,-4.265961e-003
3.509866e+003,-4.290601e-003
3.511794e+003,-4.481011e-003
3.513723e+003,-4.587939e-003
3.515651e+003,-4.628624e-003
3.517580e+003,-4.531445e-003
3.519508e+003,-4.458121e-003
3.521437e+003,-4.461039e-003
3.523365e+003,-4.621707e-003
3.525294e+003,-4.734893e-003
3.527222e+003,-4.659767e-003
3.529151e+003,-4.529019e-003
3.531079e+003,-4.503704e-003
3.533008e+003,-4.576529e-003
3.534936e+003,-4.632656e-003
3.536865e+003,-4.555316e-003
3.538793e+003,-4.466254e-003
3.540722e+003,-4.387735e-003
3.542650e+003,-4.333512e-003
3.544579e+003,-4.384619e-003
3.546507e+003,-4.526002e-003
3.548436e+003,-4.615806e-003
3.550364e+003,-4.625379e-003
3.552293e+003,-4.736991e-003
3.554221e+003,-4.719161e-003
3.556150e+003,-4.657800e-003
3.558078e+003,-4.616166e-003
3.560007e+003,-4.601152e-003
3.561935e+003,-4.438672e-003
3.563864e+003,-4.658029e-003
3.565792e+003,-4.821312e-003
3.567721e+003,-4.739613e-003
3.569649e+003,-4.703952e-003
3.571578e+003,-4.664585e-003
3.573506e+003,-4.435064e-003
3.575435e+003,-4.306447e-003
3.577363e+003,-4.327574e-003
3.579292e+003,-4.369235e-003
3.581220e+003,-4.458055e-003
3.583149e+003,-4.535479e-003
3.585077e+003,-4.591512e-003
3.587006e+003,-4.813283e-003
3.588934e+003,-4.704608e-003
3.590863e+003,-4.453103e-003
3.592791e+003,-4.565349e-003
3.594720e+003,-4.657177e-003
3.596648e+003,-4.540397e-003
3.598577e+003,-4.441558e-003
3.600505e+003,-4.366283e-003
3.602434e+003,-4.361756e-003
3.604362e+003,-4.223798e-003
3.606291e+003,-4.346896e-003
3.608219e+003,-4.633902e-003
3.610148e+003,-4.580857e-003
3.612076e+003,-4.527117e-003
3.614005e+003,-4.464811e-003
3.615933e+003,-4.585283e-003
3.617862e+003,-4.530724e-003
3.619790e+003,-4.308186e-003
3.621719e+003,-4.240729e-003
3.623647e+003,-4.311565e-003
3.625576e+003,-4.451463e-003
3.627504e+003,-4.590857e-003
3.629433e+003,-4.562267e-003
3.631361e+003,-4.349160e-003
3.633290e+003,-4.313992e-003
3.635218e+003,-4.345781e-003
3.637146e+003,-4.341877e-003
3.639075e+003,-4.305266e-003
3.641004e+003,-4.225767e-003
3.642932e+003,-4.309727e-003
3.644861e+003,-4.730829e-003
3.646789e+003,-5.135052e-003
3.648718e+003,-5.288368e-003
3.650646e+003,-5.126277e-003
3.652574e+003,-4.667864e-003
3.654503e+003,-4.574431e-003
3.656432e+003,-4.697036e-003
3.658360e+003,-4.563808e-003
3.660289e+003,-4.493768e-003
3.662217e+003,-4.622100e-003
3.664146e+003,-4.690743e-003
3.666074e+003,-4.671469e-003
3.668002e+003,-4.774221e-003
3.669931e+003,-5.043259e-003
3.671860e+003,-5.170415e-003
3.673788e+003,-5.572234e-003
3.675717e+003,-5.721210e-003
3.677645e+003,-5.125131e-003
3.679573e+003,-4.928221e-003
3.681502e+003,-4.660324e-003
3.683430e+003,-4.689170e-003
3.685359e+003,-4.772255e-003
3.687288e+003,-5.001499e-003
3.689216e+003,-5.040443e-003
3.691145e+003,-4.909318e-003
3.693073e+003,-4.716178e-003
3.695001e+003,-4.694382e-003
3.696930e+003,-4.704510e-003
3.698858e+003,-4.675567e-003
3.700787e+003,-4.592037e-003
3.702716e+003,-4.485406e-003
3.704644e+003,-4.475338e-003
3.706573e+003,-4.555807e-003
3.708501e+003,-4.759146e-003
3.710429e+003,-4.908663e-003
3.712358e+003,-4.877341e-003
3.714286e+003,-4.544955e-003
3.716215e+003,-4.481732e-003
3.718144e+003,-4.535872e-003
3.720072e+003,-4.608003e-003
3.722000e+003,-4.629575e-003
3.723929e+003,-4.684450e-003
3.725857e+003,-4.637836e-003
3.727786e+003,-4.314156e-003
3.729714e+003,-4.470091e-003
3.731643e+003,-4.942636e-003
3.733572e+003,-5.236909e-003
3.735500e+003,-5.343553e-003
3.737428e+003,-5.053445e-003
3.739357e+003,-4.794605e-003
3.741285e+003,-4.530953e-003
3.743214e+003,-5.161313e-003
3.745142e+003,-5.012013e-003
3.747071e+003,-4.601446e-003
3.749000e+003,-4.814364e-003
3.750928e+003,-4.675337e-003
3.752856e+003,-4.248834e-003
3.754785e+003,-4.100796e-003
3.756713e+003,-3.992566e-003
3.758642e+003,-3.922959e-003
3.760570e+003,-3.986525e-003
3.762499e+003,-3.786044e-003
3.764427e+003,-3.800628e-003
3.766356e+003,-3.792777e-003
3.768284e+003,-3.815605e-003
3.770213e+003,-3.772610e-003
3.772141e+003,-3.535682e-003
3.774070e+003,-3.608900e-003
3.775998e+003,-3.771821e-003
3.777927e+003,-3.941511e-003
3.779855e+003,-3.975330e-003
3.781784e+003,-3.616458e-003
3.783712e+003,-3.514056e-003
3.785641e+003,-3.604070e-003
3.787569e+003,-3.618331e-003
3.789498e+003,-3.614223e-003
3.791426e+003,-3.693604e-003
3.793355e+003,-3.773694e-003
3.795283e+003,-3.983538e-003
3.797212e+003,-4.086026e-003
3.799140e+003,-4.159151e-003
3.801069e+003,-4.256675e-003
3.802997e+003,-3.838595e-003
3.804926e+003,-3.889925e-003
3.806854e+003,-4.045552e-003
3.808783e+003,-3.798099e-003
3.810711e+003,-3.595920e-003
3.812640e+003,-3.613500e-003
3.814568e+003,-3.928739e-003
3.816497e+003,-3.749846e-003
3.818425e+003,-3.615866e-003
3.820354e+003,-3.838661e-003
3.822282e+003,-3.597924e-003
3.824211e+003,-3.269687e-003
3.826139e+003,-3.400387e-003
3.828068e+003,-3.416266e-003
3.829996e+003,-3.476192e-003
3.831925e+003,-3.556222e-003
3.833853e+003,-3.560133e-003
3.835782e+003,-3.610839e-003
3.837710e+003,-3.749616e-003
3.839639e+003,-3.699419e-003
3.841567e+003,-3.610641e-003
3.843496e+003,-3.624541e-003
3.845424e+003,-3.492791e-003
3.847353e+003,-3.507023e-003
3.849281e+003,-3.713710e-003
3.851210e+003,-4.051165e-003
3.853138e+003,-4.285384e-003
3.855067e+003,-3.746692e-003
3.856995e+003,-3.413373e-003
3.858924e+003,-3.333349e-003
3.860852e+003,-3.514122e-003
3.862781e+003,-3.704085e-003
3.864709e+003,-3.632558e-003
3.866638e+003,-3.415016e-003
3.868566e+003,-3.666039e-003
3.870495e+003,-3.754379e-003
3.872423e+003,-3.580344e-003
3.874352e+003,-3.391609e-003
3.876280e+003,-3.252158e-003
3.878209e+003,-3.380365e-003
3.880137e+003,-3.721266e-003
3.882066e+003,-3.668701e-003
3.883994e+003,-3.647706e-003
3.885923e+003,-3.408409e-003
3.887851e+003,-3.355477e-003
3.889780e+003,-3.605712e-003
3.891708e+003,-3.648593e-003
3.893637e+003,-3.484047e-003
3.895565e+003,-3.290799e-003
3.897494e+003,-3.449763e-003
3.899422e+003,-3.515962e-003
3.901351e+003,-3.601901e-003
3.903279e+003,-3.636008e-003
3.905208e+003,-3.412255e-003
3.907136e+003,-3.192761e-003
3.909065e+003,-3.040217e-003
3.910993e+003,-3.110360e-003
3.912922e+003,-3.183518e-003
3.914850e+003,-3.335880e-003
3.916779e+003,-3.613172e-003
3.918707e+003,-3.696068e-003
3.920636e+003,-3.610116e-003
3.922564e+003,-3.713415e-003
3.924493e+003,-3.635549e-003
3.926421e+003,-3.392497e-003
3.928350e+003,-3.404792e-003
3.930278e+003,-3.581067e-003
3.932207e+003,-3.436253e-003
3.934135e+003,-3.112959e-003
3.936064e+003,-2.940872e-003
3.937992e+003,-3.116446e-003
3.939921e+003,-3.451801e-003
3.941849e+003,-3.473891e-003
3.943778e+003,-3.186347e-003
3.945706e+003,-3.232031e-003
3.947635e+003,-3.232130e-003
3.949563e+003,-3.021692e-003
3.951492e+003,-2.897098e-003
3.953420e+003,-2.855691e-003
3.955349e+003,-2.947026e-003
3.957277e+003,-2.913720e-003
3.959206e+003,-2.934684e-003
3.961134e+003,-3.114110e-003
3.963063e+003,-3.273074e-003
3.964991e+003,-3.370897e-003
3.966920e+003,-3.392793e-003
3.968848e+003,-3.260281e-003
3.970777e+003,-3.160033e-003
3.972705e+003,-3.150789e-003
3.974634e+003,-3.169901e-003
3.976562e+003,-3.200720e-003
3.978491e+003,-3.192037e-003
3.980419e+003,-2.991913e-003
3.982348e+003,-3.127861e-003
3.984276e+003,-3.130526e-003
3.986205e+003,-3.148092e-003
3.988133e+003,-3.129868e-003
3.990062e+003,-3.138552e-003
3.991990e+003,-3.139375e-003
3.993919e+003,-3.155460e-003
3.995847e+003,-3.228742e-003
3.997776e+003,-3.189373e-003
3.999704e+003,-3.110887e-003
4.001633e+003,0.000000e+000
