3.991989e+002,4.078709e-003
4.011274e+002,1.103525e-002
4.030559e+002,1.267818e-002
4.049844e+002,1.509601e-002
4.069129e+002,7.167026e-003
4.088414e+002,8.803171e-003
4.107699e+002,1.030946e-002
4.126984e+002,4.242327e-003
4.146269e+002,7.440065e-003
4.165554e+002,1.712104e-002
4.184839e+002,1.169251e-002
4.204124e+002,7.829145e-003
4.223409e+002,8.571752e-003
4.242694e+002,8.216649e-003
4.261979e+002,1.398767e-002
4.281264e+002,1.057721e-002
4.300549e+002,-8.677445e-003
4.319834e+002,-3.921777e-003
4.339119e+002,5.983454e-003
4.358404e+002,3.417236e-003
4.377689e+002,1.258205e-002
4.396974e+002,1.581807e-002
4.416259e+002,9.347420e-003
4.435544e+002,9.376164e-003
4.454829e+002,1.090568e-002
4.474114e+002,1.207533e-002
4.493399e+002,1.250023e-002
4.512684e+002,4.674401e-003
4.531969e+002,7.777396e-003
4.551254e+002,1.289064e-002
4.570539e+002,1.997666e-003
4.589824e+002,-3.276067e-003
4.609109e+002,2.123142e-003
4.628394e+002,3.927924e-003
4.647679e+002,5.464339e-003
4.666964e+002,5.440047e-003
4.686249e+002,4.956199e-003
4.705533e+002,6.022895e-003
4.724819e+002,5.401229e-003
4.744103e+002,5.026987e-003
4.763389e+002,7.142302e-003
4.782673e+002,7.303136e-003
4.801959e+002,5.920202e-003
4.821243e+002,5.512860e-003
4.840529e+002,4.063056e-003
4.859813e+002,3.223083e-003
4.879099e+002,2.801687e-003
4.898383e+002,2.180649e-003
4.917668e+002,2.126072e-003
4.936953e+002,2.416483e-003
4.956238e+002,-3.571702e-005
4.975523e+002,-7.248645e-004
4.994808e+002,1.424446e-003
5.014093e+002,1.359960e-003
5.033378e+002,6.857531e-004
5.052663e+002,2.866855e-003
5.071948e+002,4.201977e-003
5.091233e+002,3.042863e-003
5.110518e+002,3.542588e-003
5.129803e+002,2.582243e-003
5.149088e+002,1.728526e-003
5.168373e+002,1.977095e-003
5.187658e+002,3.284274e-003
5.206943e+002,4.557695e-003
5.226228e+002,4.394560e-003
5.245513e+002,2.991214e-003
5.264798e+002,3.076232e-003
5.284083e+002,3.584046e-003
5.303368e+002,3.518804e-003
5.322653e+002,2.506786e-003
5.341938e+002,2.073267e-003
5.361223e+002,1.692600e-003
5.380508e+002,1.240453e-003
5.399792e+002,2.188142e-003
5.419078e+002,3.365976e-003
5.438363e+002,3.315424e-003
5.457648e+002,3.488608e-003
5.476932e+002,2.631310e-003
5.496218e+002,2.963758e-003
5.515503e+002,3.698854e-003
5.534788e+002,2.895306e-003
5.554072e+002,2.575943e-003
5.573358e+002,2.892938e-003
5.592643e+002,2.077795e-003
5.611927e+002,3.649332e-003
5.631212e+002,5.271147e-003
5.650497e+002,4.678085e-003
5.669783e+002,3.253661e-003
5.689067e+002,4.383482e-003
5.708352e+002,4.569515e-003
5.727637e+002,5.385763e-003
5.746923e+002,1.856520e-003
5.766207e+002,1.412446e-003
5.785492e+002,4.224226e-003
5.804777e+002,1.489263e-002
5.824063e+002,1.375145e-002
5.843347e+002,3.510186e-003
5.862632e+002,2.769007e-003
5.881917e+002,3.053308e-003
5.901202e+002,3.736283e-003
5.920487e+002,3.612344e-003
5.939772e+002,7.139624e-004
5.959057e+002,-2.058734e-003
5.978342e+002,7.075903e-004
5.997627e+002,2.155541e-003
6.016912e+002,2.685683e-003
6.036197e+002,2.235965e-003
6.055482e+002,3.678469e-003
6.074767e+002,3.895593e-003
6.094052e+002,4.005567e-003
6.113337e+002,4.006503e-003
6.132622e+002,4.784639e-003
6.151907e+002,3.880816e-003
6.171192e+002,3.175184e-003
6.190477e+002,2.257248e-003
6.209762e+002,3.178288e-003
6.229047e+002,2.553545e-003
6.248332e+002,3.501268e-003
6.267617e+002,3.226955e-003
6.286902e+002,1.747189e-003
6.306187e+002,1.023955e-003
6.325472e+002,1.080851e-003
6.344756e+002,1.047636e-003
6.364042e+002,1.310239e-003
6.383326e+002,1.451507e-003
6.402612e+002,1.187157e-003
6.421896e+002,1.178153e-003
6.441182e+002,1.939152e-003
6.460466e+002,1.320675e-003
6.479752e+002,1.379970e-003
6.499036e+002,1.953397e-003
6.518322e+002,1.592588e-003
6.537606e+002,1.129981e-003
6.556891e+002,1.494063e-003
6.576177e+002,1.472186e-003
6.595461e+002,1.294420e-003
6.614746e+002,1.365644e-003
6.634031e+002,1.485950e-003
6.653317e+002,1.252681e-003
6.672601e+002,1.481429e-003
6.691886e+002,2.070204e-003
6.711171e+002,1.703411e-003
6.730457e+002,1.232179e-003
6.749741e+002,1.321206e-003
6.769026e+002,1.521926e-003
6.788311e+002,1.986815e-003
6.807596e+002,1.619227e-003
6.826881e+002,9.400685e-004
6.846166e+002,8.022861e-004
6.865451e+002,8.172243e-004
6.884736e+002,9.628483e-004
6.904021e+002,1.363217e-003
6.923306e+002,1.662032e-003
6.942591e+002,1.660036e-003
6.961876e+002,1.280229e-003
6.981161e+002,1.102110e-003
7.000446e+002,9.884189e-004
7.019731e+002,1.061818e-003
7.039016e+002,1.094968e-003
7.058301e+002,1.112341e-003
7.077585e+002,1.090152e-003
7.096871e+002,9.789543e-004
7.116156e+002,8.490277e-004
7.135441e+002,9.721798e-004
7.154725e+002,1.180844e-003
7.174011e+002,1.502475e-003
7.193296e+002,1.728792e-003
7.212581e+002,1.150013e-003
7.231865e+002,1.321306e-003
7.251151e+002,2.157672e-003
7.270436e+002,1.615502e-003
7.289720e+002,1.214801e-003
7.309005e+002,1.041591e-003
7.328290e+002,1.040295e-003
7.347576e+002,1.061154e-003
7.366860e+002,1.314161e-003
7.386145e+002,1.540214e-003
7.405430e+002,1.142372e-003
7.424716e+002,8.673206e-004
7.444000e+002,1.179017e-003
7.463285e+002,1.482592e-003
7.482570e+002,1.691103e-003
7.501855e+002,1.524419e-003
7.521140e+002,1.657309e-003
7.540425e+002,1.614338e-003
7.559710e+002,1.495193e-003
7.578995e+002,1.368436e-003
7.598280e+002,1.391969e-003
7.617565e+002,9.825409e-004
7.636850e+002,7.519650e-004
7.656135e+002,1.772905e-003
7.675420e+002,2.101067e-003
7.694705e+002,1.246268e-003
7.713990e+002,5.921775e-004
7.733275e+002,1.217559e-003
7.752560e+002,1.628273e-003
7.771844e+002,1.321539e-003
7.791130e+002,9.393712e-004
7.810415e+002,8.562983e-004
7.829700e+002,9.699216e-004
7.848984e+002,1.395094e-003
7.868270e+002,1.735878e-003
7.887555e+002,1.710662e-003
7.906840e+002,1.689706e-003
7.926124e+002,1.490139e-003
7.945410e+002,1.308910e-003
7.964695e+002,1.030763e-003
7.983979e+002,8.843527e-004
8.003264e+002,1.151575e-003
8.022549e+002,1.251950e-003
8.041835e+002,1.038037e-003
8.061119e+002,1.061420e-003
8.080404e+002,1.145263e-003
8.099689e+002,1.291196e-003
8.118975e+002,1.097194e-003
8.138259e+002,1.160944e-003
8.157545e+002,1.028006e-003
8.176830e+002,8.691466e-004
8.196115e+002,1.177223e-003
8.215399e+002,1.531502e-003
8.234684e+002,1.250787e-003
8.253970e+002,9.206103e-004
8.273254e+002,1.251585e-003
8.292539e+002,1.580749e-003
8.311824e+002,1.152738e-003
8.331110e+002,7.746685e-004
8.350394e+002,9.183856e-004
8.369679e+002,1.016880e-003
8.388964e+002,9.119441e-004
8.408250e+002,1.049230e-003
8.427534e+002,1.054179e-003
8.446819e+002,8.094564e-004
8.466104e+002,9.668664e-004
8.485389e+002,1.139715e-003
8.504674e+002,9.599593e-004
8.523959e+002,6.221725e-004
8.543244e+002,7.097475e-004
8.562529e+002,9.247609e-004
8.581814e+002,1.024918e-003
8.601099e+002,1.498219e-003
8.620384e+002,1.572336e-003
8.639669e+002,1.375084e-003
8.658954e+002,1.098190e-003
8.678239e+002,8.557671e-004
8.697524e+002,1.040329e-003
8.716809e+002,1.389244e-003
8.736094e+002,1.621588e-003
8.755378e+002,1.586802e-003
8.774664e+002,1.111212e-003
8.793949e+002,9.779248e-004
8.813234e+002,8.922215e-004
8.832518e+002,9.617857e-004
8.851804e+002,1.256303e-003
8.871089e+002,1.289269e-003
8.890374e+002,7.687602e-004
8.909658e+002,6.001406e-004
8.928943e+002,9.214737e-004
8.948229e+002,9.658038e-004
8.967513e+002,8.323289e-004
8.986798e+002,1.019205e-003
9.006083e+002,1.212674e-003
9.025369e+002,1.223174e-003
9.044653e+002,1.181143e-003
9.063938e+002,1.245869e-003
9.083223e+002,1.351916e-003
9.102509e+002,9.492666e-004
9.121793e+002,6.890054e-004
9.141078e+002,8.534099e-004
9.160364e+002,9.931679e-004
9.179648e+002,1.132871e-003
9.198933e+002,1.437744e-003
9.218218e+002,1.465736e-003
9.237504e+002,1.163269e-003
9.256788e+002,1.081083e-003
9.276073e+002,1.239988e-003
9.295358e+002,1.363517e-003
9.314644e+002,1.048632e-003
9.333928e+002,7.540229e-004
9.353213e+002,4.860500e-004
9.372498e+002,6.619259e-004
9.391783e+002,8.919559e-004
9.411068e+002,1.015253e-003
9.430353e+002,9.262883e-004
9.449637e+002,7.772908e-004
9.468923e+002,8.591534e-004
9.488208e+002,1.021264e-003
9.507493e+002,1.145130e-003
9.526777e+002,1.109385e-003
9.546063e+002,8.197804e-004
9.565348e+002,8.255899e-004
9.584633e+002,9.496319e-004
9.603917e+002,9.152977e-004
9.623203e+002,8.420559e-004
9.642488e+002,6.820362e-004
9.661772e+002,7.027448e-004
9.681057e+002,7.853569e-004
9.700343e+002,7.939210e-004
9.719628e+002,8.147677e-004
9.738912e+002,9.540484e-004
9.758197e+002,7.423395e-004
9.777483e+002,7.989666e-004
9.796768e+002,1.013360e-003
9.816052e+002,8.845187e-004
9.835337e+002,1.000308e-003
9.854623e+002,8.407612e-004
9.873907e+002,7.630179e-004
9.893192e+002,1.047403e-003
9.912477e+002,1.048233e-003
9.931763e+002,9.658038e-004
9.951047e+002,9.442192e-004
9.970332e+002,6.894036e-004
9.989617e+002,7.335441e-004
1.000890e+003,8.796381e-004
1.002819e+003,8.260878e-004
1.004747e+003,8.445790e-004
1.006676e+003,8.560991e-004
1.008604e+003,7.208657e-004
1.010533e+003,7.145266e-004
1.012461e+003,6.453007e-004
1.014390e+003,4.343393e-004
1.016318e+003,6.181576e-004
1.018247e+003,7.742370e-004
1.020175e+003,7.951824e-004
1.022104e+003,7.529607e-004
1.024032e+003,7.822035e-004
1.025961e+003,7.134646e-004
1.027889e+003,6.852885e-004
1.029818e+003,6.893372e-004
1.031746e+003,7.800790e-004
1.033675e+003,8.126100e-004
1.035603e+003,7.272380e-004
1.037532e+003,8.717031e-004
1.039460e+003,9.762644e-004
1.041389e+003,8.751891e-004
1.043317e+003,7.923277e-004
1.045246e+003,5.580042e-004
1.047174e+003,4.365947e-004
1.049103e+003,5.758868e-004
1.051031e+003,6.743039e-004
1.052960e+003,6.769588e-004
1.054888e+003,5.739625e-004
1.056817e+003,4.952053e-004
1.058745e+003,4.431619e-004
1.060674e+003,6.040226e-004
1.062602e+003,5.943010e-004
1.064531e+003,5.998419e-004
1.066459e+003,5.950309e-004
1.068388e+003,5.557814e-004
1.070316e+003,5.992447e-004
1.072245e+003,5.261558e-004
1.074173e+003,6.163326e-004
1.076102e+003,7.077230e-004
1.078030e+003,6.357440e-004
1.079959e+003,8.768824e-004
1.081887e+003,9.055358e-004
1.083816e+003,8.783764e-004
1.085744e+003,7.364316e-004
1.087673e+003,6.945475e-004
1.089601e+003,7.994313e-004
1.091530e+003,8.009583e-004
1.093458e+003,5.153743e-004
1.095387e+003,5.191561e-004
1.097315e+003,8.376738e-004
1.099244e+003,8.149669e-004
1.101172e+003,7.329799e-004
1.103101e+003,7.222265e-004
1.105029e+003,7.034086e-004
1.106958e+003,8.613446e-004
1.108886e+003,9.974852e-004
1.110815e+003,7.805438e-004
1.112743e+003,6.261544e-004
1.114672e+003,7.515667e-004
1.116600e+003,7.479820e-004
1.118529e+003,5.968558e-004
1.120457e+003,6.867487e-004
1.122386e+003,8.840871e-004
1.124314e+003,6.516388e-004
1.126243e+003,4.518519e-004
1.128171e+003,5.805317e-004
1.130100e+003,5.790719e-004
1.132028e+003,4.606417e-004
1.133957e+003,4.462133e-004
1.135885e+003,4.362630e-004
1.137814e+003,4.162636e-004
1.139742e+003,2.999998e-004
1.141671e+003,5.003139e-004
1.143599e+003,6.442720e-004
1.145528e+003,6.659412e-004
1.147456e+003,6.083361e-004
1.149385e+003,4.670434e-004
1.151313e+003,5.459613e-004
1.153242e+003,6.842929e-004
1.155170e+003,6.729101e-004
1.157099e+003,5.788064e-004
1.159027e+003,5.732989e-004
1.160956e+003,6.446370e-004
1.162884e+003,7.414102e-004
1.164813e+003,7.648102e-004
1.166741e+003,7.245165e-004
1.168670e+003,8.274489e-004
1.170598e+003,8.752887e-004
1.172526e+003,7.164847e-004
1.174455e+003,4.077732e-004
1.176384e+003,3.585257e-004
1.178312e+003,5.942346e-004
1.180240e+003,8.014563e-004
1.182169e+003,6.442720e-004
1.184098e+003,4.870452e-004
1.186026e+003,4.529133e-004
1.187954e+003,5.019062e-004
1.189883e+003,4.715213e-004
1.191812e+003,6.076725e-004
1.193740e+003,6.742707e-004
1.195668e+003,5.422456e-004
1.197597e+003,5.480181e-004
1.199526e+003,6.004724e-004
1.201454e+003,5.462599e-004
1.203382e+003,6.540944e-004
1.205311e+003,8.224029e-004
1.207240e+003,6.732420e-004
1.209168e+003,5.621181e-004
1.211096e+003,6.309989e-004
1.213025e+003,7.199032e-004
1.214953e+003,7.653745e-004
1.216882e+003,6.189208e-004
1.218810e+003,6.308330e-004
1.220739e+003,7.056986e-004
1.222667e+003,5.846790e-004
1.224596e+003,5.650045e-004
1.226524e+003,7.273376e-004
1.228453e+003,6.522361e-004
1.230381e+003,5.026359e-004
1.232310e+003,5.649050e-004
1.234238e+003,6.119528e-004
1.236167e+003,5.627153e-004
1.238095e+003,5.236677e-004
1.240024e+003,6.369718e-004
1.241952e+003,6.836291e-004
1.243881e+003,6.844588e-004
1.245809e+003,6.860517e-004
1.247738e+003,7.563794e-004
1.249666e+003,7.841618e-004
1.251595e+003,6.483536e-004
1.253523e+003,5.863380e-004
1.255452e+003,5.995433e-004
1.257380e+003,5.103984e-004
1.259309e+003,4.472084e-004
1.261237e+003,6.212767e-004
1.263166e+003,7.985019e-004
1.265094e+003,8.872412e-004
1.267023e+003,8.771148e-004
1.268951e+003,8.330925e-004
1.270880e+003,7.511020e-004
1.272808e+003,4.824676e-004
1.274737e+003,4.572253e-004
1.276665e+003,7.256118e-004
1.278594e+003,8.838215e-004
1.280522e+003,7.089842e-004
1.282451e+003,5.482172e-004
1.284379e+003,5.500751e-004
1.286308e+003,5.658008e-004
1.288236e+003,7.743034e-004
1.290165e+003,8.935828e-004
1.292093e+003,8.910926e-004
1.294022e+003,9.217061e-004
1.295950e+003,8.424875e-004
1.297879e+003,7.801122e-004
1.299807e+003,7.240187e-004
1.301736e+003,6.073075e-004
1.303664e+003,6.691602e-004
1.305593e+003,6.614613e-004
1.307521e+003,5.311320e-004
1.309450e+003,5.703793e-004
1.311378e+003,6.196176e-004
1.313307e+003,6.624237e-004
1.315235e+003,6.956427e-004
1.317164e+003,6.045203e-004
1.319092e+003,6.751004e-004
1.321021e+003,8.874736e-004
1.322949e+003,7.765937e-004
1.324878e+003,6.082365e-004
1.326806e+003,6.058807e-004
1.328735e+003,6.215421e-004
1.330663e+003,7.284328e-004
1.332592e+003,6.620586e-004
1.334520e+003,4.682375e-004
1.336449e+003,4.258154e-004
1.338377e+003,5.130190e-004
1.340306e+003,6.034586e-004
1.342234e+003,6.851225e-004
1.344163e+003,6.368391e-004
1.346091e+003,6.237985e-004
1.348020e+003,6.122182e-004
1.349948e+003,5.876319e-004
1.351877e+003,6.104597e-004
1.353805e+003,5.416484e-004
1.355734e+003,5.544212e-004
1.357662e+003,6.564505e-004
1.359591e+003,7.269061e-004
1.361519e+003,7.209321e-004
1.363448e+003,7.198700e-004
1.365376e+003,7.898381e-004
1.367305e+003,6.796468e-004
1.369233e+003,6.828659e-004
1.371162e+003,6.421483e-004
1.373090e+003,5.563122e-004
1.375019e+003,5.828542e-004
1.376947e+003,6.728770e-004
1.378876e+003,7.033090e-004
1.380804e+003,6.109573e-004
1.382733e+003,5.202840e-004
1.384661e+003,5.671279e-004
1.386590e+003,4.922531e-004
1.388518e+003,6.157354e-004
1.390447e+003,7.039064e-004
1.392375e+003,6.066439e-004
1.394304e+003,5.166349e-004
1.396232e+003,6.624568e-004
1.398161e+003,6.677664e-004
1.400089e+003,4.731466e-004
1.402018e+003,4.869788e-004
1.403946e+003,5.471224e-004
1.405875e+003,6.273821e-004
1.407803e+003,7.514339e-004
1.409732e+003,7.187416e-004
1.411660e+003,7.251139e-004
1.413589e+003,6.981317e-004
1.415517e+003,5.108627e-004
1.417446e+003,3.588573e-004
1.419374e+003,3.624388e-004
1.421303e+003,5.633125e-004
1.423231e+003,5.427432e-004
1.425160e+003,5.158387e-004
1.427088e+003,6.027950e-004
1.429017e+003,6.509087e-004
1.430945e+003,6.305344e-004
1.432874e+003,6.253248e-004
1.434802e+003,5.631798e-004
1.436731e+003,4.578886e-004
1.438659e+003,7.235872e-004
1.440588e+003,7.190735e-004
1.442516e+003,5.658339e-004
1.444445e+003,5.239332e-004
1.446373e+003,4.686355e-004
1.448302e+003,5.188576e-004
1.450230e+003,6.470926e-004
1.452159e+003,5.950973e-004
1.454087e+003,4.057833e-004
1.456016e+003,-6.868143e-005
1.457944e+003,-1.828960e-005
1.459873e+003,4.108244e-004
1.461801e+003,5.540562e-004
1.463730e+003,5.381319e-004
1.465658e+003,6.201153e-004
1.467587e+003,5.880964e-004
1.469515e+003,3.782240e-004
1.471444e+003,7.144287e-005
1.473372e+003,2.186852e-006
1.475301e+003,2.293481e-004
1.477229e+003,4.796481e-004
1.479158e+003,5.759200e-004
1.481086e+003,5.879969e-004
1.483015e+003,5.783088e-004
1.484943e+003,4.589169e-004
1.486872e+003,3.141580e-004
1.488800e+003,2.888592e-004
1.490729e+003,4.372249e-004
1.492657e+003,5.842145e-004
1.494586e+003,4.201108e-004
1.496514e+003,2.362105e-004
1.498443e+003,4.138093e-004
1.500371e+003,6.185226e-004
1.502300e+003,5.904853e-004
1.504228e+003,1.219172e-004
1.506157e+003,-4.387050e-004
1.508085e+003,-1.574244e-004
1.510014e+003,2.198669e-004
1.511942e+003,3.465546e-004
1.513871e+003,3.660866e-004
1.515799e+003,2.227841e-004
1.517728e+003,1.935128e-004
1.519656e+003,4.042541e-005
1.521585e+003,-2.102508e-004
1.523513e+003,7.754057e-005
1.525442e+003,1.391190e-004
1.527370e+003,1.939437e-004
1.529299e+003,3.637321e-004
1.531227e+003,3.008950e-004
1.533156e+003,8.662102e-005
1.535084e+003,2.108499e-004
1.537013e+003,8.184879e-005
1.538941e+003,-3.948776e-004
1.540870e+003,-3.476688e-004
1.542798e+003,4.910742e-005
1.544727e+003,2.112477e-004
1.546655e+003,3.504676e-004
1.548584e+003,4.742744e-004
1.550512e+003,5.370703e-004
1.552441e+003,3.609133e-004
1.554369e+003,1.876455e-004
1.556298e+003,8.860946e-005
1.558226e+003,-5.816428e-004
1.560155e+003,-3.459141e-004
1.562083e+003,3.489422e-004
1.564012e+003,4.292979e-004
1.565940e+003,4.153681e-004
1.567869e+003,4.042909e-004
1.569797e+003,3.535847e-004
1.571726e+003,5.107301e-004
1.573654e+003,4.383194e-004
1.575583e+003,1.000763e-004
1.577511e+003,2.622357e-004
1.579440e+003,5.986807e-004
1.581368e+003,6.721800e-004
1.583297e+003,5.738961e-004
1.585225e+003,5.747587e-004
1.587154e+003,7.509029e-004
1.589082e+003,7.577071e-004
1.591010e+003,5.939692e-004
1.592939e+003,4.315533e-004
1.594868e+003,4.049542e-004
1.596796e+003,5.558477e-004
1.598724e+003,6.388632e-004
1.600653e+003,5.723368e-004
1.602582e+003,4.240244e-004
1.604510e+003,4.090003e-004
1.606438e+003,5.202508e-004
1.608367e+003,5.897222e-004
1.610296e+003,5.680568e-004
1.612224e+003,4.581540e-004
1.614152e+003,3.065318e-004
1.616081e+003,4.141775e-006
1.618010e+003,2.419790e-004
1.619938e+003,5.441697e-004
1.621866e+003,4.447539e-004
1.623795e+003,3.034150e-004
1.625724e+003,3.289467e-004
1.627652e+003,3.788541e-004
1.629580e+003,4.090998e-004
1.631509e+003,3.578293e-004
1.633438e+003,1.394504e-004
1.635366e+003,-2.721440e-004
1.637294e+003,-2.418778e-006
1.639223e+003,3.572324e-004
1.641151e+003,4.639918e-004
1.643080e+003,4.735115e-004
1.645008e+003,1.247344e-004
1.646937e+003,-1.139993e-004
1.648865e+003,2.300443e-004
1.650794e+003,2.054359e-005
1.652722e+003,-6.958866e-004
1.654651e+003,-1.729915e-004
1.656579e+003,4.115872e-004
1.658508e+003,5.244971e-004
1.660436e+003,3.909919e-004
1.662365e+003,2.181430e-004
1.664293e+003,4.059823e-004
1.666222e+003,4.311884e-004
1.668150e+003,2.489411e-004
1.670079e+003,1.800877e-004
1.672007e+003,2.474161e-004
1.673936e+003,2.151263e-004
1.675864e+003,2.546766e-004
1.677793e+003,4.332779e-004
1.679721e+003,3.709614e-004
1.681650e+003,1.758117e-004
1.683578e+003,-3.579982e-004
1.685507e+003,-2.089592e-004
1.687435e+003,1.548298e-004
1.689364e+003,3.129312e-004
1.691292e+003,5.053561e-004
1.693221e+003,3.873771e-004
1.695149e+003,-1.159676e-005
1.697078e+003,-1.314228e-004
1.699006e+003,-2.947267e-004
1.700935e+003,-3.014814e-004
1.702863e+003,1.472726e-004
1.704792e+003,1.903968e-004
1.706720e+003,3.402873e-004
1.708649e+003,4.011734e-004
1.710577e+003,3.251335e-004
1.712506e+003,2.951589e-004
1.714434e+003,1.062076e-004
1.716363e+003,-2.223388e-004
1.718291e+003,-1.860740e-004
1.720220e+003,3.331912e-004
1.722148e+003,5.191893e-004
1.724077e+003,5.709765e-004
1.726005e+003,6.088338e-004
1.727934e+003,4.460475e-004
1.729862e+003,3.540821e-004
1.731791e+003,3.244040e-004
1.733719e+003,1.838978e-005
1.735648e+003,1.720329e-004
1.737576e+003,3.428406e-004
1.739505e+003,2.393931e-004
1.741433e+003,2.155241e-004
1.743362e+003,1.902310e-004
1.745290e+003,3.252661e-004
1.747219e+003,2.596828e-004
1.749147e+003,1.620888e-004
1.751076e+003,1.751819e-004
1.753004e+003,4.152023e-004
1.754933e+003,4.568604e-004
1.756861e+003,3.520261e-004
1.758790e+003,3.601175e-004
1.760718e+003,2.283204e-004
1.762647e+003,3.224144e-004
1.764575e+003,5.197532e-004
1.766504e+003,4.404753e-004
1.768432e+003,3.178717e-004
1.770361e+003,2.483775e-004
1.772289e+003,1.502557e-004
1.774218e+003,2.961536e-004
1.776146e+003,4.460806e-004
1.778075e+003,5.423119e-004
1.780003e+003,5.154075e-004
1.781932e+003,4.284356e-004
1.783860e+003,4.664795e-004
1.785789e+003,5.870679e-004
1.787717e+003,4.406080e-004
1.789646e+003,2.184414e-004
1.791574e+003,1.850599e-004
1.793503e+003,3.051060e-004
1.795431e+003,4.461138e-004
1.797360e+003,4.857847e-004
1.799288e+003,2.893234e-004
1.801217e+003,2.626335e-004
1.803145e+003,4.494638e-004
1.805074e+003,4.932150e-004
1.807002e+003,5.002143e-004
1.808931e+003,4.725828e-004
1.810859e+003,4.571921e-004
1.812788e+003,3.475826e-004
1.814716e+003,2.829906e-004
1.816645e+003,3.276204e-004
1.818573e+003,3.925175e-004
1.820502e+003,4.086355e-004
1.822430e+003,5.191561e-004
1.824359e+003,4.803115e-004
1.826287e+003,4.562302e-004
1.828216e+003,4.030306e-004
1.830144e+003,3.418459e-004
1.832073e+003,4.244888e-004
1.834001e+003,4.491985e-004
1.835930e+003,4.652522e-004
1.837858e+003,5.462930e-004
1.839787e+003,6.300699e-004
1.841715e+003,5.438712e-004
1.843644e+003,2.073029e-004
1.845572e+003,2.191375e-004
1.847501e+003,4.248536e-004
1.849429e+003,4.966981e-004
1.851358e+003,5.514021e-004
1.853286e+003,5.743606e-004
1.855215e+003,5.071474e-004
1.857143e+003,4.495633e-004
1.859072e+003,4.385847e-004
1.861000e+003,4.199450e-004
1.862929e+003,3.950380e-004
1.864857e+003,4.135440e-004
1.866786e+003,3.467868e-004
1.868714e+003,3.249345e-004
1.870643e+003,3.833311e-004
1.872571e+003,4.181872e-004
1.874500e+003,4.723506e-004
1.876428e+003,4.805437e-004
1.878357e+003,4.595471e-004
1.880285e+003,5.090051e-004
1.882214e+003,5.727349e-004
1.884142e+003,5.022711e-004
1.886071e+003,4.312216e-004
1.887999e+003,3.672804e-004
1.889928e+003,3.273551e-004
1.891856e+003,4.872774e-004
1.893785e+003,6.165649e-004
1.895713e+003,5.808303e-004
1.897642e+003,5.137820e-004
1.899570e+003,4.995841e-004
1.901499e+003,5.352788e-004
1.903427e+003,4.922863e-004
1.905356e+003,3.836296e-004
1.907284e+003,4.390822e-004
1.909213e+003,4.986553e-004
1.911141e+003,5.131185e-004
1.913070e+003,4.824344e-004
1.914998e+003,4.218355e-004
1.916927e+003,2.710216e-004
1.918855e+003,2.823938e-004
1.920784e+003,4.028648e-004
1.922712e+003,4.022678e-004
1.924641e+003,3.974921e-004
1.926569e+003,4.496628e-004
1.928498e+003,4.800793e-004
1.930426e+003,4.700950e-004
1.932355e+003,3.795506e-004
1.934283e+003,3.102122e-004
1.936212e+003,3.420448e-004
1.938140e+003,4.020025e-004
1.940069e+003,3.675457e-004
1.941997e+003,3.196623e-004
1.943926e+003,3.471515e-004
1.945854e+003,4.241902e-004
1.947783e+003,4.992523e-004
1.949711e+003,5.268193e-004
1.951640e+003,5.465252e-004
1.953568e+003,4.623001e-004
1.955497e+003,3.999463e-004
1.957425e+003,4.004438e-004
1.959354e+003,3.036802e-004
1.961282e+003,3.502686e-004
1.963211e+003,3.820378e-004
1.965139e+003,3.860837e-004
1.967068e+003,3.773618e-004
1.968996e+003,4.141078e-004
1.970925e+003,4.801456e-004
1.972853e+003,5.088392e-004
1.974782e+003,5.024037e-004
1.976710e+003,5.504068e-004
1.978639e+003,5.512362e-004
1.980567e+003,5.068489e-004
1.982496e+003,4.115872e-004
1.984424e+003,4.300608e-004
1.986353e+003,5.005461e-004
1.988281e+003,5.095358e-004
1.990210e+003,4.550030e-004
1.992138e+003,3.820378e-004
1.994067e+003,4.167942e-004
1.995995e+003,4.594144e-004
1.997924e+003,4.204756e-004
1.999852e+003,2.633298e-004
2.001781e+003,2.655511e-004
2.003709e+003,2.802387e-004
2.005638e+003,3.296099e-004
2.007566e+003,4.628309e-004
2.009495e+003,4.490326e-004
2.011423e+003,4.287341e-004
2.013352e+003,4.697301e-004
2.015280e+003,5.023374e-004
2.017208e+003,4.973284e-004
2.019137e+003,4.849886e-004
2.021066e+003,4.704267e-004
2.022994e+003,4.820032e-004
2.024922e+003,4.890686e-004
2.026851e+003,4.398783e-004
2.028780e+003,3.364076e-004
2.030708e+003,2.971151e-004
2.032636e+003,3.069960e-004
2.034565e+003,2.922411e-004
2.036494e+003,3.156833e-004
2.038422e+003,3.831653e-004
2.040350e+003,3.435702e-004
2.042279e+003,3.206239e-004
2.044208e+003,4.101942e-004
2.046136e+003,3.807113e-004
2.048064e+003,3.421775e-004
2.049993e+003,4.051200e-004
2.051921e+003,4.503594e-004
2.053850e+003,4.080717e-004
2.055778e+003,3.938772e-004
2.057707e+003,3.659539e-004
2.059635e+003,3.590563e-004
2.061564e+003,3.713262e-004
2.063492e+003,3.676452e-004
2.065421e+003,3.650586e-004
2.067349e+003,3.841271e-004
2.069278e+003,4.328468e-004
2.071206e+003,4.258818e-004
2.073135e+003,3.633341e-004
2.075063e+003,3.584594e-004
2.076992e+003,4.800461e-004
2.078920e+003,4.888364e-004
2.080849e+003,3.747751e-004
2.082777e+003,3.136275e-004
2.084706e+003,3.475494e-004
2.086634e+003,3.376014e-004
2.088563e+003,2.995024e-004
2.090491e+003,3.327601e-004
2.092420e+003,4.218023e-004
2.094348e+003,4.191158e-004
2.096277e+003,3.768975e-004
2.098205e+003,3.529215e-004
2.100134e+003,3.861169e-004
2.102062e+003,4.319513e-004
2.103991e+003,4.870783e-004
2.105919e+003,4.467772e-004
2.107848e+003,3.267251e-004
2.109776e+003,3.397568e-004
2.111705e+003,3.728849e-004
2.113633e+003,3.795837e-004
2.115562e+003,3.716578e-004
2.117490e+003,3.148543e-004
2.119419e+003,2.858088e-004
2.121347e+003,4.275069e-004
2.123276e+003,4.889028e-004
2.125204e+003,3.717905e-004
2.127133e+003,2.806366e-004
2.129061e+003,2.267954e-004
2.130990e+003,2.269281e-004
2.132918e+003,2.176126e-004
2.134847e+003,2.568979e-004
2.136775e+003,3.773618e-004
2.138704e+003,4.223993e-004
2.140632e+003,3.222818e-004
2.142561e+003,3.058023e-004
2.144489e+003,3.623061e-004
2.146418e+003,2.455595e-004
2.148346e+003,2.347187e-004
2.150275e+003,2.897876e-004
2.152203e+003,2.432720e-004
2.154132e+003,2.177121e-004
2.156060e+003,2.889587e-004
2.157989e+003,3.439681e-004
2.159917e+003,2.948605e-004
2.161846e+003,2.159219e-004
2.163774e+003,2.560028e-004
2.165703e+003,3.715584e-004
2.167631e+003,4.149038e-004
2.169560e+003,3.289136e-004
2.171488e+003,2.628656e-004
2.173417e+003,2.540135e-004
2.175345e+003,2.999335e-004
2.177274e+003,2.605780e-004
2.179202e+003,2.388295e-004
2.181131e+003,2.097891e-004
2.183059e+003,2.303426e-004
2.184988e+003,2.463883e-004
2.186916e+003,2.163197e-004
2.188845e+003,2.011039e-004
2.190773e+003,2.291823e-004
2.192702e+003,2.687008e-004
2.194630e+003,4.022346e-004
2.196559e+003,4.762647e-004
2.198487e+003,4.600115e-004
2.200416e+003,3.765327e-004
2.202344e+003,3.216518e-004
2.204273e+003,2.974136e-004
2.206201e+003,2.366083e-004
2.208130e+003,2.072034e-004
2.210058e+003,2.220217e-004
2.211987e+003,2.656174e-004
2.213915e+003,3.706961e-004
2.215844e+003,2.937000e-004
2.217772e+003,1.874797e-004
2.219701e+003,3.089854e-004
2.221629e+003,2.729777e-004
2.223558e+003,1.153881e-004
2.225486e+003,2.305084e-004
2.227415e+003,3.108091e-004
2.229343e+003,2.493389e-004
2.231272e+003,1.550287e-004
2.233200e+003,1.544984e-004
2.235129e+003,1.397819e-004
2.237057e+003,1.250659e-004
2.238986e+003,1.895349e-004
2.240914e+003,2.337241e-004
2.242843e+003,2.579920e-004
2.244771e+003,2.440345e-004
2.246700e+003,2.245080e-004
2.248628e+003,2.481786e-004
2.250557e+003,2.305084e-004
2.252485e+003,2.304753e-004
2.254414e+003,2.421779e-004
2.256342e+003,2.409844e-004
2.258271e+003,1.866842e-004
2.260199e+003,2.012034e-004
2.262128e+003,2.531847e-004
2.264056e+003,2.170490e-004
2.265985e+003,1.463777e-004
2.267913e+003,1.963304e-004
2.269842e+003,2.607106e-004
2.271770e+003,2.320002e-004
2.273699e+003,2.181430e-004
2.275627e+003,2.605780e-004
2.277556e+003,2.628324e-004
2.279484e+003,1.483996e-004
2.281413e+003,1.608624e-004
2.283341e+003,1.715688e-004
2.285270e+003,1.177081e-004
2.287198e+003,1.749498e-004
2.289127e+003,2.677393e-004
2.291055e+003,3.494727e-004
2.292984e+003,2.625672e-004
2.294912e+003,1.464109e-004
2.296841e+003,2.041205e-004
2.298769e+003,2.440676e-004
2.300698e+003,1.572495e-004
2.302626e+003,1.433947e-004
2.304555e+003,2.715521e-004
2.306483e+003,3.279852e-004
2.308412e+003,3.081233e-004
2.310340e+003,2.360779e-004
2.312269e+003,1.521782e-004
2.314197e+003,1.759111e-004
2.316125e+003,2.322323e-004
2.318054e+003,1.932144e-004
2.319983e+003,1.679226e-004
2.321911e+003,2.862067e-004
2.323840e+003,2.531515e-004
2.325768e+003,2.844163e-004
2.327697e+003,3.646606e-004
2.329625e+003,2.963525e-004
2.331553e+003,2.538809e-004
2.333482e+003,2.363763e-004
2.335411e+003,2.667446e-004
2.337339e+003,3.040781e-004
2.339268e+003,2.753317e-004
2.341196e+003,1.702761e-004
2.343125e+003,2.040211e-004
2.345053e+003,3.058354e-004
2.346981e+003,3.458583e-004
2.348910e+003,3.136607e-004
2.350839e+003,2.864056e-004
2.352767e+003,2.753980e-004
2.354696e+003,3.290462e-004
2.356624e+003,3.977243e-004
2.358552e+003,3.426085e-004
2.360481e+003,2.596828e-004
2.362409e+003,2.487422e-004
2.364338e+003,2.932358e-004
2.366267e+003,3.710609e-004
2.368195e+003,3.584925e-004
2.370124e+003,3.027187e-004
2.372052e+003,2.301769e-004
2.373980e+003,2.308068e-004
2.375909e+003,3.014918e-004
2.377838e+003,3.835301e-004
2.379766e+003,3.984539e-004
2.381695e+003,3.803796e-004
2.383623e+003,3.234424e-004
2.385552e+003,2.356138e-004
2.387480e+003,2.666783e-004
2.389408e+003,2.491069e-004
2.391337e+003,9.865124e-005
2.393266e+003,5.401184e-005
2.395194e+003,9.586736e-005
2.397123e+003,2.398241e-004
2.399051e+003,2.577931e-004
2.400979e+003,2.320997e-004
2.402908e+003,2.391611e-004
2.404836e+003,2.541130e-004
2.406765e+003,1.763089e-004
2.408694e+003,1.964299e-004
2.410622e+003,2.311383e-004
2.412551e+003,1.688507e-004
2.414479e+003,1.594371e-004
2.416407e+003,2.995356e-004
2.418336e+003,2.977120e-004
2.420264e+003,2.031592e-004
2.422193e+003,1.766735e-004
2.424122e+003,1.705744e-004
2.426050e+003,1.352411e-004
2.427979e+003,1.685524e-004
2.429907e+003,1.580781e-004
2.431835e+003,1.890377e-004
2.433764e+003,1.402128e-004
2.435692e+003,1.082293e-004
2.437621e+003,7.121089e-005
2.439550e+003,1.062076e-004
2.441478e+003,2.115792e-004
2.443406e+003,2.557044e-004
2.445335e+003,2.126401e-004
2.447263e+003,1.964299e-004
2.449192e+003,1.998442e-004
2.451121e+003,1.450188e-004
2.453049e+003,1.064396e-004
2.454978e+003,1.411077e-004
2.456906e+003,1.349759e-004
2.458834e+003,1.955680e-004
2.460763e+003,2.320665e-004
2.462691e+003,2.225189e-004
2.464620e+003,1.803197e-004
2.466549e+003,1.724969e-004
2.468477e+003,1.808170e-004
2.470406e+003,1.216190e-004
2.472334e+003,4.754995e-005
2.474262e+003,1.046830e-004
2.476191e+003,1.308992e-004
2.478119e+003,7.084636e-005
2.480048e+003,3.724426e-005
2.481977e+003,1.147583e-004
2.483905e+003,1.693148e-004
2.485833e+003,1.869825e-004
2.487762e+003,1.989492e-004
2.489690e+003,2.006067e-004
2.491619e+003,1.126704e-004
2.493547e+003,-2.229864e-005
2.495476e+003,-6.762131e-005
2.497405e+003,-3.117801e-005
2.499333e+003,1.377269e-004
2.501261e+003,1.934796e-004
2.503190e+003,1.038214e-004
2.505118e+003,9.840921e-006
2.507047e+003,-3.975903e-005
2.508975e+003,1.166334e-005
2.510904e+003,7.803767e-005
2.512833e+003,5.520482e-005
2.514761e+003,1.792589e-005
2.516689e+003,-5.732151e-006
2.518618e+003,8.049004e-005
2.520546e+003,1.120075e-004
2.522475e+003,6.080522e-005
2.524403e+003,4.605876e-005
2.526332e+003,5.354791e-005
2.528260e+003,2.634236e-005
2.530189e+003,1.079641e-004
2.532117e+003,1.766735e-004
2.534046e+003,9.437600e-005
2.535974e+003,4.609190e-005
2.537903e+003,-1.537392e-005
2.539831e+003,-5.036345e-006
2.541760e+003,3.114711e-005
2.543688e+003,2.302877e-005
2.545617e+003,6.295472e-007
2.547545e+003,2.054315e-006
2.549474e+003,4.870977e-005
2.551402e+003,1.165481e-004
2.553331e+003,1.684861e-004
2.555259e+003,1.444222e-004
2.557188e+003,9.868438e-005
2.559116e+003,9.629819e-005
2.561045e+003,1.260933e-004
2.562973e+003,7.793825e-005
2.564902e+003,-3.200630e-005
2.566830e+003,4.433561e-005
2.568759e+003,8.463259e-005
2.570687e+003,8.539481e-005
2.572616e+003,8.194821e-005
2.574544e+003,1.789275e-005
2.576473e+003,-6.467283e-005
2.578401e+003,-1.164174e-004
2.580330e+003,-1.547747e-004
2.582258e+003,-8.206526e-005
2.584187e+003,-7.455095e-006
2.586115e+003,-2.683849e-006
2.588044e+003,7.081321e-005
2.589972e+003,3.005361e-005
2.591901e+003,-3.608147e-005
2.593829e+003,-4.134931e-005
2.595758e+003,-2.375646e-005
2.597686e+003,1.248007e-004
2.599615e+003,2.361774e-004
2.601543e+003,2.158225e-004
2.603472e+003,2.023967e-004
2.605400e+003,1.593708e-004
2.607329e+003,8.473200e-005
2.609257e+003,2.157080e-005
2.611186e+003,-4.638763e-007
2.613114e+003,1.012694e-004
2.615043e+003,1.115435e-004
2.616971e+003,8.045690e-005
2.618900e+003,8.217319e-006
2.620828e+003,2.839680e-005
2.622757e+003,1.868800e-005
2.624685e+003,-4.277394e-005
2.626614e+003,-6.550106e-005
2.628542e+003,2.312818e-005
2.630471e+003,1.266899e-004
2.632399e+003,1.171446e-004
2.634328e+003,1.156201e-004
2.636256e+003,8.877517e-005
2.638185e+003,9.608882e-007
2.640113e+003,2.743585e-005
2.642042e+003,1.129023e-004
2.643970e+003,1.416048e-004
2.645899e+003,1.274854e-004
2.647827e+003,8.672044e-005
2.649756e+003,7.734173e-005
2.651684e+003,1.251985e-004
2.653613e+003,2.042200e-004
2.655541e+003,1.711379e-004
2.657470e+003,1.438587e-004
2.659398e+003,9.696102e-005
2.661327e+003,-2.299441e-005
2.663255e+003,2.819798e-005
2.665184e+003,5.815413e-005
2.667112e+003,4.168462e-005
2.669041e+003,4.572521e-006
2.670969e+003,-4.705008e-006
2.672898e+003,5.722626e-005
2.674826e+003,4.287756e-005
2.676755e+003,-4.903810e-006
2.678683e+003,-8.040887e-005
2.680612e+003,-1.134030e-004
2.682540e+003,-6.089609e-005
2.684469e+003,-4.797544e-005
2.686397e+003,1.438041e-005
2.688326e+003,7.618184e-005
2.690254e+003,1.062076e-004
2.692183e+003,1.223812e-004
2.694111e+003,1.368320e-004
2.696040e+003,1.528079e-004
2.697968e+003,1.054785e-004
2.699897e+003,-2.292815e-005
2.701825e+003,-3.495501e-005
2.703754e+003,5.295142e-005
2.705682e+003,1.184372e-004
2.707611e+003,6.484816e-005
2.709539e+003,-4.751161e-005
2.711468e+003,-4.363534e-005
2.713396e+003,1.872114e-005
2.715325e+003,1.027940e-004
2.717253e+003,6.882485e-005
2.719182e+003,-8.242967e-005
2.721110e+003,-4.323777e-005
2.723039e+003,8.135169e-005
2.724967e+003,1.384892e-004
2.726896e+003,1.416711e-004
2.728824e+003,5.599689e-006
2.730753e+003,-4.022286e-005
2.732681e+003,6.063953e-005
2.734610e+003,7.223281e-006
2.736538e+003,-8.180024e-005
2.738467e+003,-3.949398e-005
2.740395e+003,-7.885185e-005
2.742324e+003,-1.425524e-004
2.744252e+003,-1.080698e-004
2.746181e+003,-5.963718e-005
2.748109e+003,1.772707e-005
2.750038e+003,-3.203944e-005
2.751966e+003,-3.674410e-005
2.753895e+003,-1.031009e-004
2.755823e+003,-6.202250e-005
2.757752e+003,-8.647899e-006
2.759680e+003,-1.027034e-004
2.761609e+003,-6.652805e-005
2.763537e+003,1.699809e-005
2.765466e+003,1.746199e-005
2.767394e+003,-4.360221e-005
2.769323e+003,-6.387773e-005
2.771251e+003,-5.271306e-005
2.773180e+003,-1.720972e-004
2.775108e+003,-2.652895e-004
2.777037e+003,-1.822652e-004
2.778965e+003,-6.569983e-005
2.780894e+003,-5.708620e-005
2.782822e+003,2.577905e-005
2.784750e+003,1.226795e-004
2.786679e+003,4.367286e-005
2.788608e+003,1.385025e-005
2.790536e+003,6.388713e-005
2.792465e+003,1.060302e-005
2.794393e+003,-4.194567e-005
2.796322e+003,-2.965395e-005
2.798250e+003,-4.240950e-005
2.800178e+003,-3.114588e-006
2.802107e+003,3.618388e-005
2.804036e+003,4.698661e-005
2.805964e+003,-2.193418e-005
2.807893e+003,-1.480839e-004
2.809821e+003,-1.293029e-004
2.811750e+003,-1.565964e-004
2.813678e+003,-1.666322e-004
2.815606e+003,-3.329843e-005
2.817535e+003,-1.378354e-005
2.819464e+003,-9.312980e-005
2.821392e+003,-1.282098e-004
2.823321e+003,-3.114588e-006
2.825249e+003,1.911876e-005
2.827177e+003,-4.555691e-005
2.829106e+003,-1.063141e-004
2.831034e+003,-8.928706e-005
2.832963e+003,-1.848840e-005
2.834892e+003,5.474088e-005
2.836820e+003,6.348946e-005
2.838749e+003,2.776721e-005
2.840677e+003,-1.775948e-005
2.842605e+003,-2.349140e-005
2.844534e+003,-8.392041e-005
2.846462e+003,-1.278123e-004
2.848391e+003,-1.154237e-004
2.850320e+003,-5.165290e-005
2.852248e+003,-1.356627e-004
2.854177e+003,-1.986925e-004
2.856105e+003,-1.550396e-004
2.858033e+003,-9.780067e-005
2.859962e+003,-1.458316e-004
2.861890e+003,-1.326153e-004
2.863819e+003,-7.977944e-005
2.865748e+003,-1.027034e-004
2.867676e+003,-1.210218e-004
2.869604e+003,-1.156555e-004
2.871533e+003,-1.938571e-004
2.873461e+003,-2.166095e-004
2.875390e+003,-8.411918e-005
2.877319e+003,-9.634310e-005
2.879247e+003,-1.153243e-004
2.881176e+003,-1.180074e-004
2.883104e+003,-4.804409e-006
2.885032e+003,3.247148e-006
2.886961e+003,-1.604054e-004
2.888889e+003,-9.389171e-005
2.890818e+003,-2.186841e-006
2.892747e+003,3.055066e-005
2.894675e+003,-6.726158e-006
2.896604e+003,-6.149242e-005
2.898532e+003,-2.594318e-005
2.900460e+003,-4.585509e-005
2.902389e+003,-7.186179e-005
2.904317e+003,-2.180165e-005
2.906246e+003,-2.147033e-005
2.908175e+003,-1.096723e-005
2.910103e+003,1.146453e-005
2.912031e+003,-1.259905e-004
2.913960e+003,-1.480508e-004
2.915888e+003,-7.968005e-005
2.917817e+003,-1.061816e-004
2.919745e+003,-6.729002e-005
2.921674e+003,-4.903561e-005
2.923603e+003,-5.301123e-005
2.925531e+003,-1.239699e-004
2.927459e+003,-1.198293e-004
2.929388e+003,-8.438420e-005
2.931316e+003,-1.588487e-004
2.933245e+003,-2.357510e-004
2.935173e+003,-2.071046e-004
2.937102e+003,-1.139993e-004
2.939031e+003,-8.060764e-005
2.940959e+003,-1.899490e-004
2.942887e+003,-1.781252e-004
2.944816e+003,-1.276136e-004
2.946744e+003,-7.720163e-006
2.948673e+003,-1.822334e-005
2.950601e+003,-1.286735e-004
2.952530e+003,-7.600283e-005
2.954458e+003,-1.484380e-005
2.956387e+003,-9.985451e-005
2.958315e+003,-2.176030e-004
2.960244e+003,-1.940890e-004
2.962172e+003,-6.119426e-005
2.964101e+003,-4.048791e-005
2.966029e+003,-1.486801e-004
2.967958e+003,-1.872332e-004
2.969886e+003,-2.962082e-005
2.971815e+003,1.136512e-005
2.973743e+003,4.171776e-005
2.975672e+003,-7.179553e-005
2.977600e+003,-1.208562e-004
2.979529e+003,-3.654531e-005
2.981457e+003,2.896012e-005
2.983386e+003,8.283518e-007
2.985314e+003,-2.776544e-005
2.987243e+003,-2.077455e-005
2.989171e+003,2.634236e-005
2.991100e+003,-4.896935e-005
2.993028e+003,-9.866196e-005
2.994957e+003,-7.779176e-005
2.996885e+003,-1.205249e-004
2.998814e+003,-1.976658e-004
3.000742e+003,-2.511166e-004
3.002671e+003,-2.638656e-004
3.004599e+003,-2.728062e-004
3.006528e+003,-2.253524e-004
3.008456e+003,-1.118130e-004
3.010385e+003,-1.827289e-004
3.012313e+003,-2.698923e-004
3.014242e+003,-9.531617e-005
3.016170e+003,-4.340538e-006
3.018099e+003,-3.846691e-005
3.020027e+003,-8.514614e-005
3.021956e+003,-3.770490e-005
3.023884e+003,2.491751e-005
3.025813e+003,-4.005721e-005
3.027741e+003,-1.220155e-004
3.029670e+003,9.045687e-006
3.031598e+003,-1.093410e-005
3.033527e+003,-5.731811e-005
3.035455e+003,-1.863390e-004
3.037384e+003,-2.534015e-004
3.039312e+003,-2.260810e-004
3.041241e+003,-1.155562e-004
3.043169e+003,-1.458647e-004
3.045098e+003,-1.590143e-004
3.047026e+003,-1.176099e-004
3.048955e+003,-4.363534e-005
3.050883e+003,-1.191005e-004
3.052812e+003,-2.093567e-004
3.054740e+003,-2.074027e-004
3.056669e+003,-1.869683e-004
3.058597e+003,-1.690170e-004
3.060526e+003,-2.343601e-004
3.062454e+003,-2.506198e-004
3.064383e+003,-2.301543e-004
3.066311e+003,-2.214777e-004
3.068240e+003,-1.530523e-004
3.070168e+003,-1.283754e-004
3.072097e+003,-1.968117e-005
3.074025e+003,5.285201e-005
3.075954e+003,-7.179553e-005
3.077882e+003,-1.792844e-004
3.079811e+003,-8.375478e-005
3.081739e+003,4.426933e-005
3.083668e+003,-1.280111e-004
3.085596e+003,-3.303863e-004
3.087525e+003,-2.510834e-004
3.089453e+003,-1.723291e-004
3.091382e+003,-1.691495e-004
3.093310e+003,-1.698781e-004
3.095239e+003,-1.778602e-004
3.097167e+003,-1.593124e-004
3.099096e+003,-2.779857e-005
3.101024e+003,-6.838328e-005
3.102953e+003,-2.632364e-004
3.104881e+003,-2.139600e-004
3.106810e+003,-9.177160e-005
3.108738e+003,-5.513154e-005
3.110667e+003,-1.572919e-004
3.112595e+003,-2.490634e-004
3.114524e+003,-1.943539e-004
3.116452e+003,-6.470596e-005
3.118381e+003,-5.622482e-005
3.120309e+003,-5.943840e-005
3.122238e+003,5.897899e-006
3.124166e+003,1.444668e-005
3.126095e+003,-3.313278e-005
3.128023e+003,7.620836e-007
3.129952e+003,-5.238176e-005
3.131880e+003,-2.065085e-004
3.133809e+003,-3.943148e-004
3.135737e+003,-3.305519e-004
3.137666e+003,-1.860740e-004
3.139594e+003,-1.962086e-004
3.141523e+003,-2.181660e-004
3.143451e+003,-1.518268e-004
3.145380e+003,-3.472309e-005
3.147308e+003,-3.734046e-005
3.149237e+003,-1.596767e-004
3.151165e+003,-1.560664e-004
3.153094e+003,-5.486650e-005
3.155022e+003,-7.861996e-005
3.156951e+003,-3.391270e-004
3.158879e+003,-3.086002e-004
3.160808e+003,-1.744488e-004
3.162736e+003,-2.021700e-004
3.164665e+003,-3.184339e-004
3.166593e+003,-1.810729e-004
3.168522e+003,-4.592135e-005
3.170450e+003,-1.313897e-004
3.172379e+003,-1.635188e-004
3.174307e+003,-1.730246e-004
3.176236e+003,-1.137674e-004
3.178164e+003,-1.517605e-004
3.180093e+003,-3.069115e-004
3.182021e+003,-3.969631e-004
3.183950e+003,-3.278370e-004
3.185878e+003,-3.291944e-004
3.187807e+003,-3.350878e-004
3.189735e+003,-2.870447e-004
3.191664e+003,-2.474076e-004
3.193592e+003,-2.634351e-004
3.195521e+003,-3.265457e-004
3.197449e+003,-2.557857e-004
3.199378e+003,-2.744619e-004
3.201306e+003,-2.924751e-004
3.203235e+003,-2.009446e-004
3.205163e+003,-2.098866e-004
3.207092e+003,-3.137323e-004
3.209020e+003,-2.958855e-004
3.210948e+003,-1.886243e-004
3.212877e+003,-1.809404e-004
3.214806e+003,-1.994874e-004
3.216734e+003,-2.334328e-004
3.218663e+003,-2.483349e-004
3.220591e+003,-1.207237e-004
3.222520e+003,-1.073079e-004
3.224448e+003,-1.859084e-004
3.226376e+003,-2.864156e-004
3.228305e+003,-1.777940e-004
3.230234e+003,-7.139798e-005
3.232162e+003,-9.886072e-005
3.234091e+003,-1.773303e-004
3.236019e+003,-1.971690e-004
3.237948e+003,-2.343601e-004
3.239876e+003,-1.839212e-004
3.241804e+003,-1.962748e-004
3.243733e+003,-3.326046e-004
3.245662e+003,-4.608818e-004
3.247590e+003,-5.517288e-004
3.249519e+003,-4.781260e-004
3.251447e+003,-3.421729e-004
3.253375e+003,-3.763721e-004
3.255304e+003,-4.325813e-004
3.257232e+003,-2.909188e-004
3.259161e+003,-1.907439e-004
3.261090e+003,-1.566957e-004
3.263018e+003,-2.041902e-004
3.264947e+003,-2.260810e-004
3.266875e+003,-2.083962e-004
3.268803e+003,-3.184339e-004
3.270732e+003,-3.143614e-004
3.272660e+003,-2.450565e-004
3.274589e+003,-2.704221e-004
3.276518e+003,-1.873657e-004
3.278446e+003,-1.541122e-004
3.280375e+003,-2.987662e-004
3.282303e+003,-4.022266e-004
3.284231e+003,-2.908195e-004
3.286160e+003,-1.534166e-004
3.288088e+003,-2.531365e-004
3.290017e+003,-2.603224e-004
3.291946e+003,-2.603224e-004
3.293874e+003,-3.323398e-004
3.295802e+003,-2.848593e-004
3.297731e+003,-2.220407e-004
3.299659e+003,-2.809189e-004
3.301588e+003,-2.306179e-004
3.303516e+003,-2.293926e-004
3.305445e+003,-2.874089e-004
3.307374e+003,-4.344681e-004
3.309302e+003,-4.226509e-004
3.311230e+003,-4.302642e-004
3.313159e+003,-4.359576e-004
3.315087e+003,-2.542956e-004
3.317016e+003,-2.068728e-004
3.318944e+003,-2.834686e-004
3.320873e+003,-3.654472e-004
3.322802e+003,-3.296248e-004
3.324730e+003,-2.241602e-004
3.326658e+003,-2.425728e-004
3.328587e+003,-2.748593e-004
3.330515e+003,-2.133639e-004
3.332444e+003,-1.432148e-004
3.334372e+003,-2.319426e-004
3.336301e+003,-4.096417e-004
3.338229e+003,-4.406579e-004
3.340158e+003,-4.989438e-004
3.342086e+003,-4.773978e-004
3.344015e+003,-3.915672e-004
3.345943e+003,-2.932366e-004
3.347872e+003,-1.940890e-004
3.349800e+003,-1.562651e-004
3.351729e+003,-1.601404e-004
3.353657e+003,-2.151523e-004
3.355586e+003,-3.246585e-004
3.357514e+003,-3.691882e-004
3.359443e+003,-2.562493e-004
3.361371e+003,-2.663491e-004
3.363300e+003,-2.432020e-004
3.365229e+003,-7.636724e-005
3.367157e+003,4.970109e-007
3.369085e+003,-2.079326e-004
3.371014e+003,-2.918459e-004
3.372942e+003,-3.659769e-004
3.374871e+003,-4.202013e-004
3.376799e+003,-3.480661e-004
3.378728e+003,-2.796937e-004
3.380656e+003,-4.185794e-004
3.382585e+003,-6.823893e-004
3.384513e+003,-6.709097e-004
3.386442e+003,-5.219450e-004
3.388370e+003,-4.269541e-004
3.390299e+003,-4.872608e-004
3.392227e+003,-5.943491e-004
3.394156e+003,-5.067213e-004
3.396084e+003,-3.323067e-004
3.398013e+003,-3.317769e-004
3.399941e+003,-3.993466e-004
3.401870e+003,-5.059933e-004
3.403798e+003,-4.708114e-004
3.405727e+003,-5.065559e-004
3.407655e+003,-5.656934e-004
3.409584e+003,-4.031204e-004
3.411512e+003,-2.668458e-004
3.413441e+003,-3.087988e-004
3.415369e+003,-4.379768e-004
3.417298e+003,-3.823641e-004
3.419226e+003,-4.077217e-004
3.421155e+003,-5.730064e-004
3.423083e+003,-4.919274e-004
3.425012e+003,-4.281127e-004
3.426940e+003,-4.601536e-004
3.428869e+003,-4.310918e-004
3.430797e+003,-2.388639e-004
3.432726e+003,-2.361152e-004
3.434654e+003,-3.847145e-004
3.436583e+003,-2.818129e-004
3.438511e+003,-1.642806e-004
3.440440e+003,-2.054487e-004
3.442368e+003,-3.247909e-004
3.444297e+003,-4.963623e-004
3.446225e+003,-4.989438e-004
3.448154e+003,-4.068279e-004
3.450082e+003,-5.328328e-004
3.452011e+003,-6.826540e-004
3.453939e+003,-5.502065e-004
3.455868e+003,-3.433317e-004
3.457796e+003,-3.780936e-004
3.459725e+003,-3.816358e-004
3.461653e+003,-2.438312e-004
3.463582e+003,-3.420736e-004
3.465510e+003,-4.452588e-004
3.467439e+003,-3.955728e-004
3.469367e+003,-3.434641e-004
3.471296e+003,-4.557183e-004
3.473224e+003,-5.907424e-004
3.475153e+003,-4.676670e-004
3.477081e+003,-4.137795e-004
3.479010e+003,-4.704473e-004
3.480938e+003,-5.489490e-004
3.482867e+003,-4.455236e-004
3.484795e+003,-2.977398e-004
3.486724e+003,-9.607809e-005
3.488652e+003,-8.524552e-005
3.490581e+003,-1.350996e-004
3.492509e+003,-2.080651e-004
3.494438e+003,-2.995940e-004
3.496366e+003,-3.727636e-004
3.498295e+003,-4.340046e-004
3.500223e+003,-5.133735e-004
3.502152e+003,-4.603191e-004
3.504080e+003,-1.654399e-004
3.506009e+003,-1.295017e-004
3.507937e+003,-4.392015e-004
3.509866e+003,-4.253983e-004
3.511794e+003,-2.924088e-004
3.513723e+003,-2.674088e-004
3.515651e+003,-4.038817e-004
3.517580e+003,-2.635013e-004
3.519508e+003,-2.485998e-004
3.521437e+003,-4.289733e-004
3.523365e+003,-3.028720e-004
3.525294e+003,-1.958443e-004
3.527222e+003,-2.481693e-004
3.529151e+003,-3.812716e-004
3.531079e+003,-4.903719e-004
3.533008e+003,-4.434052e-004
3.534936e+003,-2.780712e-004
3.536865e+003,-1.295679e-004
3.538793e+003,-3.029713e-004
3.540722e+003,-5.653293e-004
3.542650e+003,-5.256846e-004
3.544579e+003,-5.146311e-004
3.546507e+003,-7.095157e-004
3.548436e+003,-3.542241e-004
3.550364e+003,6.557722e-005
3.552293e+003,-1.577556e-004
3.554221e+003,-4.361231e-004
3.556150e+003,-4.750148e-004
3.558078e+003,-4.644564e-004
3.560007e+003,-4.746507e-004
3.561935e+003,-5.464671e-004
3.563864e+003,-4.959983e-004
3.565792e+003,-5.900476e-004
3.567721e+003,-5.690024e-004
3.569649e+003,-3.968638e-004
3.571578e+003,-3.710090e-004
3.573506e+003,-2.701241e-004
3.575435e+003,-1.785226e-004
3.577363e+003,-5.173117e-004
3.579292e+003,-7.299256e-004
3.581220e+003,-4.738564e-004
3.583149e+003,-5.120828e-004
3.585077e+003,-7.592320e-004
3.587006e+003,-8.721394e-004
3.588934e+003,-7.324726e-004
3.590863e+003,-5.294573e-004
3.592791e+003,-4.425777e-004
3.594720e+003,-4.701825e-004
3.596648e+003,-5.229047e-004
3.598577e+003,-4.894452e-004
3.600505e+003,-5.203564e-004
3.602434e+003,-5.622519e-004
3.604362e+003,-6.578417e-004
3.606291e+003,-7.761006e-004
3.608219e+003,-6.974413e-004
3.610148e+003,-5.573212e-004
3.612076e+003,-7.296940e-004
3.614005e+003,-7.828147e-004
3.615933e+003,-6.633006e-004
3.617862e+003,-7.585705e-004
3.619790e+003,-6.221097e-004
3.621719e+003,-3.731278e-004
3.623647e+003,-3.133681e-004
3.625576e+003,-4.166263e-004
3.627504e+003,-8.543156e-004
3.629433e+003,-1.003431e-003
3.631361e+003,-7.585044e-004
3.633290e+003,-8.643023e-004
3.635218e+003,-7.700809e-004
3.637146e+003,-5.281667e-004
3.639075e+003,-5.745947e-004
3.641004e+003,-5.291594e-004
3.642932e+003,-4.334750e-004
3.644861e+003,-6.521513e-004
3.646789e+003,-1.010406e-003
3.648718e+003,-1.029446e-003
3.650646e+003,-8.319935e-004
3.652574e+003,-8.245526e-004
3.654503e+003,-1.052915e-003
3.656432e+003,-6.077829e-004
3.658360e+003,-1.430161e-004
3.660289e+003,-4.048749e-004
3.662217e+003,-5.672156e-004
3.664146e+003,-2.586335e-004
3.666074e+003,-2.122710e-004
3.668002e+003,-6.151284e-004
3.669931e+003,-7.908848e-004
3.671860e+003,-6.556251e-004
3.673788e+003,-8.038825e-004
3.675717e+003,-8.092734e-004
3.677645e+003,-5.239306e-004
3.679573e+003,-5.512324e-004
3.681502e+003,-5.285637e-004
3.683430e+003,-6.760706e-004
3.685359e+003,-6.990954e-004
3.687288e+003,-7.866844e-004
3.689216e+003,-9.131743e-004
3.691145e+003,-7.914470e-004
3.693073e+003,-4.658135e-004
3.695001e+003,-3.336972e-004
3.696930e+003,-3.692875e-004
3.698858e+003,-3.676322e-004
3.700787e+003,-7.104088e-004
3.702716e+003,-7.290986e-004
3.704644e+003,-4.864003e-004
3.706573e+003,-5.667523e-004
3.708501e+003,-7.558913e-004
3.710429e+003,-1.033942e-003
3.712358e+003,-9.275901e-004
3.714286e+003,-4.993741e-004
3.716215e+003,-3.442918e-004
3.718144e+003,-2.648921e-004
3.720072e+003,-2.715479e-004
3.722000e+003,-3.875947e-004
3.723929e+003,-5.111561e-004
3.725857e+003,-8.374170e-004
3.727786e+003,-7.321749e-004
3.729714e+003,-5.391205e-004
3.731643e+003,-6.284622e-004
3.733572e+003,-6.899319e-004
3.735500e+003,-8.270329e-004
3.737428e+003,-7.925715e-004
3.739357e+003,-7.301902e-004
3.741285e+003,-8.188973e-004
3.743214e+003,-1.442907e-003
3.745142e+003,-1.446540e-003
3.747071e+003,-9.287143e-004
3.749000e+003,-9.763559e-004
3.750928e+003,-9.497420e-004
3.752856e+003,-9.474938e-004
3.754785e+003,-6.284622e-004
3.756713e+003,-5.311781e-004
3.758642e+003,-6.161541e-004
3.760570e+003,-5.843231e-004
3.762499e+003,-5.019887e-004
3.764427e+003,-7.418336e-004
3.766356e+003,-7.312487e-004
3.768284e+003,-7.355819e-004
3.770213e+003,-5.879960e-004
3.772141e+003,-2.261803e-004
3.774070e+003,-3.619379e-004
3.775998e+003,-6.580402e-004
3.777927e+003,-6.860614e-004
3.779855e+003,-6.495707e-004
3.781784e+003,-5.660243e-004
3.783712e+003,-6.795442e-004
3.785641e+003,-6.114226e-004
3.787569e+003,-5.326674e-004
3.789498e+003,-5.780692e-004
3.791426e+003,-5.372673e-004
3.793355e+003,-4.629008e-004
3.795283e+003,-3.458479e-004
3.797212e+003,-3.978900e-004
3.799140e+003,-7.768282e-004
3.801069e+003,-1.095718e-003
3.802997e+003,-8.608963e-004
3.804926e+003,-7.749429e-004
3.806854e+003,-8.635748e-004
3.808783e+003,-5.831319e-004
3.810711e+003,-4.737240e-004
3.812640e+003,-5.908748e-004
3.814568e+003,-1.148133e-003
3.816497e+003,-1.409320e-003
3.818425e+003,-1.215443e-003
3.820354e+003,-1.364005e-003
3.822282e+003,-8.732968e-004
3.824211e+003,-5.160210e-004
3.826139e+003,-6.385534e-004
3.828068e+003,-7.360450e-004
3.829996e+003,-8.397981e-004
3.831925e+003,-9.084791e-004
3.833853e+003,-9.201508e-004
3.835782e+003,-9.978440e-004
3.837710e+003,-1.045511e-003
3.839639e+003,-1.020587e-003
3.841567e+003,-1.008489e-003
3.843496e+003,-9.172081e-004
3.845424e+003,-6.734902e-004
3.847353e+003,-7.414036e-004
3.849281e+003,-1.114292e-003
3.851210e+003,-1.702960e-003
3.853138e+003,-2.157753e-003
3.855067e+003,-1.331205e-003
3.856995e+003,-7.568505e-004
3.858924e+003,-7.600589e-004
3.860852e+003,-8.631780e-004
3.862781e+003,-9.296070e-004
3.864709e+003,-1.016125e-003
3.866638e+003,-8.678737e-004
3.868566e+003,-9.742400e-004
3.870495e+003,-9.926208e-004
3.872423e+003,-8.368549e-004
3.874352e+003,-7.756375e-004
3.876280e+003,-6.836134e-004
3.878209e+003,-9.611151e-004
3.880137e+003,-1.055064e-003
3.882066e+003,-7.768282e-004
3.883994e+003,-8.833161e-004
3.885923e+003,-9.454770e-004
3.887851e+003,-6.086101e-004
3.889780e+003,-6.664104e-004
3.891708e+003,-7.816571e-004
3.893637e+003,-7.658472e-004
3.895565e+003,-7.248315e-004
3.897494e+003,-7.162971e-004
3.899422e+003,-9.106283e-004
3.901351e+003,-1.124735e-003
3.903279e+003,-1.171199e-003
3.905208e+003,-7.892642e-004
3.907136e+003,-5.143663e-004
3.909065e+003,-5.934226e-004
3.910993e+003,-6.484789e-004
3.912922e+003,-6.975737e-004
3.914850e+003,-7.961435e-004
3.916779e+003,-1.001348e-003
3.918707e+003,-7.978964e-004
3.920636e+003,-5.055630e-004
3.922564e+003,-5.302847e-004
3.924493e+003,-5.432240e-004
3.926421e+003,-2.963491e-004
3.928350e+003,-4.496611e-004
3.930278e+003,-8.456514e-004
3.932207e+003,-7.581075e-004
3.934135e+003,-5.335940e-004
3.936064e+003,-4.610804e-004
3.937992e+003,-4.707782e-004
3.939921e+003,-6.330612e-004
3.941849e+003,-8.126798e-004
3.943778e+003,-7.341265e-004
3.945706e+003,-7.685925e-004
3.947635e+003,-9.299046e-004
3.949563e+003,-8.541172e-004
3.951492e+003,-6.168819e-004
3.953420e+003,-5.691348e-004
3.955349e+003,-8.270990e-004
3.957277e+003,-9.439231e-004
3.959206e+003,-6.682299e-004
3.961134e+003,-3.832580e-004
3.963063e+003,-4.846792e-004
3.964991e+003,-6.197274e-004
3.966920e+003,-6.095035e-004
3.968848e+003,-7.344903e-004
3.970777e+003,-9.794965e-004
3.972705e+003,-8.042463e-004
3.974634e+003,-6.453359e-004
3.976562e+003,-6.629035e-004
3.978491e+003,-3.850787e-004
3.980419e+003,-3.244929e-004
3.982348e+003,-7.268492e-004
3.984276e+003,-9.396911e-004
3.986205e+003,-8.718418e-004
3.988133e+003,-5.805509e-004
3.990062e+003,-5.096006e-004
3.991990e+003,-6.476518e-004
3.993919e+003,-9.068589e-004
3.995847e+003,-9.643220e-004
3.997776e+003,-7.052484e-004
3.999704e+003,-7.262869e-004
4.001633e+003,0.000000e+000
