3.991989e+002,-8.916714e-003
4.011274e+002,-2.081916e-003
4.030559e+002,6.586406e-004
4.049844e+002,-5.928932e-004
4.069129e+002,-2.025920e-003
4.088414e+002,-4.051953e-003
4.107699e+002,-7.448505e-003
4.126984e+002,-6.226236e-003
4.146269e+002,1.395692e-003
4.165554e+002,4.292619e-003
4.184839e+002,2.889069e-003
4.204124e+002,9.564518e-003
4.223409e+002,1.349021e-002
4.242694e+002,1.135746e-002
4.261979e+002,3.067789e-003
4.281264e+002,9.189008e-003
4.300549e+002,1.616421e-002
4.319834e+002,1.325556e-002
4.339119e+002,1.477479e-002
4.358404e+002,1.914247e-002
4.377689e+002,1.657775e-002
4.396974e+002,8.455278e-003
4.416259e+002,2.598142e-003
4.435544e+002,6.103199e-003
4.454829e+002,6.999642e-003
4.474114e+002,1.018678e-002
4.493399e+002,1.284432e-002
4.512684e+002,1.181247e-002
4.531969e+002,1.070655e-002
4.551254e+002,9.704127e-003
4.570539e+002,8.795563e-003
4.589824e+002,7.660426e-003
4.609109e+002,8.604974e-003
4.628394e+002,1.212450e-002
4.647679e+002,1.132634e-002
4.666964e+002,8.229954e-003
4.686249e+002,8.806350e-003
4.705533e+002,1.107002e-002
4.724819e+002,9.730997e-003
4.744103e+002,9.842153e-003
4.763389e+002,1.147458e-002
4.782673e+002,1.080926e-002
4.801959e+002,9.975036e-003
4.821243e+002,1.078698e-002
4.840529e+002,1.090863e-002
4.859813e+002,1.053709e-002
4.879099e+002,1.223671e-002
4.898383e+002,1.313892e-002
4.917668e+002,1.136379e-002
4.936953e+002,9.558862e-003
4.956238e+002,1.093520e-002
4.975523e+002,1.159258e-002
4.994808e+002,1.109364e-002
5.014093e+002,1.259457e-002
5.033378e+002,1.366268e-002
5.052663e+002,1.469098e-002
5.071948e+002,1.403037e-002
5.091233e+002,1.159745e-002
5.110518e+002,1.013662e-002
5.129803e+002,1.072075e-002
5.149088e+002,1.193789e-002
5.168373e+002,1.317406e-002
5.187658e+002,1.339858e-002
5.206943e+002,1.204287e-002
5.226228e+002,1.180427e-002
5.245513e+002,1.312163e-002
5.264798e+002,1.216392e-002
5.284083e+002,1.127189e-002
5.303368e+002,1.178149e-002
5.322653e+002,1.148649e-002
5.341938e+002,1.238379e-002
5.361223e+002,1.266917e-002
5.380508e+002,1.276194e-002
5.399792e+002,1.270012e-002
5.419078e+002,1.309141e-002
5.438363e+002,1.347831e-002
5.457648e+002,1.402267e-002
5.476932e+002,1.383254e-002
5.496218e+002,1.339257e-002
5.515503e+002,1.400820e-002
5.534788e+002,1.436889e-002
5.554072e+002,1.378305e-002
5.573358e+002,1.378339e-002
5.592643e+002,1.389159e-002
5.611927e+002,1.397798e-002
5.631212e+002,1.556554e-002
5.650497e+002,1.629753e-002
5.669783e+002,1.528886e-002
5.689067e+002,1.570136e-002
5.708352e+002,1.552849e-002
5.727637e+002,1.534796e-002
5.746923e+002,1.505825e-002
5.766207e+002,1.317191e-002
5.785492e+002,1.500100e-002
5.804777e+002,2.229927e-002
5.824063e+002,2.071625e-002
5.843347e+002,1.555572e-002
5.862632e+002,1.529504e-002
5.881917e+002,1.523161e-002
5.901202e+002,1.589900e-002
5.920487e+002,1.665675e-002
5.939772e+002,1.682546e-002
5.959057e+002,1.681475e-002
5.978342e+002,1.882627e-002
5.997627e+002,2.033775e-002
6.016912e+002,2.112872e-002
6.036197e+002,2.178510e-002
6.055482e+002,2.349590e-002
6.074767e+002,2.465074e-002
6.094052e+002,2.345299e-002
6.113337e+002,2.187500e-002
6.132622e+002,2.263100e-002
6.151907e+002,2.386733e-002
6.171192e+002,2.296037e-002
6.190477e+002,2.203810e-002
6.209762e+002,2.320902e-002
6.229047e+002,2.180712e-002
6.248332e+002,1.874645e-002
6.267617e+002,1.645484e-002
6.286902e+002,1.487593e-002
6.306187e+002,1.440749e-002
6.325472e+002,1.427564e-002
6.344756e+002,1.355802e-002
6.364042e+002,1.297058e-002
6.383326e+002,1.292101e-002
6.402612e+002,1.309835e-002
6.421896e+002,1.295604e-002
6.441182e+002,1.239545e-002
6.460466e+002,1.131570e-002
6.479752e+002,1.102295e-002
6.499036e+002,1.115051e-002
6.518322e+002,1.139028e-002
6.537606e+002,1.146155e-002
6.556891e+002,1.130379e-002
6.576177e+002,1.101523e-002
6.595461e+002,1.076025e-002
6.614746e+002,1.005882e-002
6.634031e+002,9.770609e-003
6.653317e+002,1.060984e-002
6.672601e+002,1.105014e-002
6.691886e+002,1.034210e-002
6.711171e+002,1.041679e-002
6.730457e+002,1.097747e-002
6.749741e+002,1.104589e-002
6.769026e+002,1.083837e-002
6.788311e+002,1.099379e-002
6.807596e+002,1.153031e-002
6.826881e+002,1.142454e-002
6.846166e+002,1.125210e-002
6.865451e+002,1.176181e-002
6.884736e+002,1.240612e-002
6.904021e+002,1.230812e-002
6.923306e+002,1.249072e-002
6.942591e+002,1.290224e-002
6.961876e+002,1.272144e-002
6.981161e+002,1.208770e-002
7.000446e+002,1.186430e-002
7.019731e+002,1.249645e-002
7.039016e+002,1.295174e-002
7.058301e+002,1.271100e-002
7.077585e+002,1.252782e-002
7.096871e+002,1.289227e-002
7.116156e+002,1.357830e-002
7.135441e+002,1.410341e-002
7.154725e+002,1.419840e-002
7.174011e+002,1.391626e-002
7.193296e+002,1.408636e-002
7.212581e+002,1.422339e-002
7.231865e+002,1.467025e-002
7.251151e+002,1.528151e-002
7.270436e+002,1.537752e-002
7.289720e+002,1.577288e-002
7.309005e+002,1.598617e-002
7.328290e+002,1.605263e-002
7.347576e+002,1.657826e-002
7.366860e+002,1.706645e-002
7.386145e+002,1.714638e-002
7.405430e+002,1.682253e-002
7.424716e+002,1.629199e-002
7.444000e+002,1.617260e-002
7.463285e+002,1.644290e-002
7.482570e+002,1.653888e-002
7.501855e+002,1.695846e-002
7.521140e+002,1.747530e-002
7.540425e+002,1.759967e-002
7.559710e+002,1.733158e-002
7.578995e+002,1.714976e-002
7.598280e+002,1.717461e-002
7.617565e+002,1.719915e-002
7.636850e+002,1.735175e-002
7.656135e+002,1.754967e-002
7.675420e+002,1.801533e-002
7.694705e+002,1.855850e-002
7.713990e+002,1.825208e-002
7.733275e+002,1.757086e-002
7.752560e+002,1.717761e-002
7.771844e+002,1.702744e-002
7.791130e+002,1.695002e-002
7.810415e+002,1.675889e-002
7.829700e+002,1.670010e-002
7.848984e+002,1.693576e-002
7.868270e+002,1.642225e-002
7.887555e+002,1.561520e-002
7.906840e+002,1.552059e-002
7.926124e+002,1.541240e-002
7.945410e+002,1.523309e-002
7.964695e+002,1.508638e-002
7.983979e+002,1.481833e-002
8.003264e+002,1.435793e-002
8.022549e+002,1.443541e-002
8.041835e+002,1.496890e-002
8.061119e+002,1.545497e-002
8.080404e+002,1.589866e-002
8.099689e+002,1.614557e-002
8.118975e+002,1.600927e-002
8.138259e+002,1.616067e-002
8.157545e+002,1.661992e-002
8.176830e+002,1.663087e-002
8.196115e+002,1.639242e-002
8.215399e+002,1.632309e-002
8.234684e+002,1.624098e-002
8.253970e+002,1.573258e-002
8.273254e+002,1.513832e-002
8.292539e+002,1.516443e-002
8.311824e+002,1.531772e-002
8.331110e+002,1.520371e-002
8.350394e+002,1.497846e-002
8.369679e+002,1.521487e-002
8.388964e+002,1.523951e-002
8.408250e+002,1.514336e-002
8.427534e+002,1.499071e-002
8.446819e+002,1.525845e-002
8.466104e+002,1.523226e-002
8.485389e+002,1.495988e-002
8.504674e+002,1.502923e-002
8.523959e+002,1.519490e-002
8.543244e+002,1.513533e-002
8.562529e+002,1.523662e-002
8.581814e+002,1.514415e-002
8.601099e+002,1.528213e-002
8.620384e+002,1.525516e-002
8.639669e+002,1.485347e-002
8.658954e+002,1.474699e-002
8.678239e+002,1.532026e-002
8.697524e+002,1.536516e-002
8.716809e+002,1.489712e-002
8.736094e+002,1.475038e-002
8.755378e+002,1.501578e-002
8.774664e+002,1.536990e-002
8.793949e+002,1.568734e-002
8.813234e+002,1.579948e-002
8.832518e+002,1.579883e-002
8.851804e+002,1.541988e-002
8.871089e+002,1.518371e-002
8.890374e+002,1.550455e-002
8.909658e+002,1.562183e-002
8.928943e+002,1.606917e-002
8.948229e+002,1.628955e-002
8.967513e+002,1.619134e-002
8.986798e+002,1.614416e-002
9.006083e+002,1.579175e-002
9.025369e+002,1.560047e-002
9.044653e+002,1.586666e-002
9.063938e+002,1.583494e-002
9.083223e+002,1.581178e-002
9.102509e+002,1.581879e-002
9.121793e+002,1.532321e-002
9.141078e+002,1.492658e-002
9.160364e+002,1.487264e-002
9.179648e+002,1.493474e-002
9.198933e+002,1.465955e-002
9.218218e+002,1.410779e-002
9.237504e+002,1.388615e-002
9.256788e+002,1.373486e-002
9.276073e+002,1.348549e-002
9.295358e+002,1.377625e-002
9.314644e+002,1.359501e-002
9.333928e+002,1.331401e-002
9.353213e+002,1.349820e-002
9.372498e+002,1.364729e-002
9.391783e+002,1.339055e-002
9.411068e+002,1.318031e-002
9.430353e+002,1.349492e-002
9.449637e+002,1.346488e-002
9.468923e+002,1.313185e-002
9.488208e+002,1.335908e-002
9.507493e+002,1.352487e-002
9.526777e+002,1.350887e-002
9.546063e+002,1.366339e-002
9.565348e+002,1.400399e-002
9.584633e+002,1.429708e-002
9.603917e+002,1.437526e-002
9.623203e+002,1.420826e-002
9.642488e+002,1.406925e-002
9.661772e+002,1.402948e-002
9.681057e+002,1.422884e-002
9.700343e+002,1.417659e-002
9.719628e+002,1.397986e-002
9.738912e+002,1.373031e-002
9.758197e+002,1.336684e-002
9.777483e+002,1.315872e-002
9.796768e+002,1.314247e-002
9.816052e+002,1.312041e-002
9.835337e+002,1.296129e-002
9.854623e+002,1.272523e-002
9.873907e+002,1.237940e-002
9.893192e+002,1.224233e-002
9.912477e+002,1.228995e-002
9.931763e+002,1.224557e-002
9.951047e+002,1.213697e-002
9.970332e+002,1.189508e-002
9.989617e+002,1.174534e-002
1.000890e+003,1.184972e-002
1.002819e+003,1.198217e-002
1.004747e+003,1.200056e-002
1.006676e+003,1.192430e-002
1.008604e+003,1.178132e-002
1.010533e+003,1.173373e-002
1.012461e+003,1.186794e-002
1.014390e+003,1.189471e-002
1.016318e+003,1.205840e-002
1.018247e+003,1.232444e-002
1.020175e+003,1.235628e-002
1.022104e+003,1.267310e-002
1.024032e+003,1.295088e-002
1.025961e+003,1.299758e-002
1.027889e+003,1.300807e-002
1.029818e+003,1.333588e-002
1.031746e+003,1.379150e-002
1.033675e+003,1.398380e-002
1.035603e+003,1.414897e-002
1.037532e+003,1.435718e-002
1.039460e+003,1.453547e-002
1.041389e+003,1.467707e-002
1.043317e+003,1.480304e-002
1.045246e+003,1.494427e-002
1.047174e+003,1.509049e-002
1.049103e+003,1.510322e-002
1.051031e+003,1.514974e-002
1.052960e+003,1.547238e-002
1.054888e+003,1.543749e-002
1.056817e+003,1.510274e-002
1.058745e+003,1.507770e-002
1.060674e+003,1.505197e-002
1.062602e+003,1.499414e-002
1.064531e+003,1.503444e-002
1.066459e+003,1.503996e-002
1.068388e+003,1.507605e-002
1.070316e+003,1.507914e-002
1.072245e+003,1.513976e-002
1.074173e+003,1.501383e-002
1.076102e+003,1.492034e-002
1.078030e+003,1.469883e-002
1.079959e+003,1.470459e-002
1.081887e+003,1.510583e-002
1.083816e+003,1.533327e-002
1.085744e+003,1.545892e-002
1.087673e+003,1.569146e-002
1.089601e+003,1.565649e-002
1.091530e+003,1.569043e-002
1.093458e+003,1.610417e-002
1.095387e+003,1.652697e-002
1.097315e+003,1.681606e-002
1.099244e+003,1.683149e-002
1.101172e+003,1.697690e-002
1.103101e+003,1.728252e-002
1.105029e+003,1.727817e-002
1.106958e+003,1.717582e-002
1.108886e+003,1.715162e-002
1.110815e+003,1.731551e-002
1.112743e+003,1.740745e-002
1.114672e+003,1.733855e-002
1.116600e+003,1.740090e-002
1.118529e+003,1.756323e-002
1.120457e+003,1.750420e-002
1.122386e+003,1.736217e-002
1.124314e+003,1.739952e-002
1.126243e+003,1.720163e-002
1.128171e+003,1.705798e-002
1.130100e+003,1.721701e-002
1.132028e+003,1.710622e-002
1.133957e+003,1.692187e-002
1.135885e+003,1.670269e-002
1.137814e+003,1.649593e-002
1.139742e+003,1.627905e-002
1.141671e+003,1.583625e-002
1.143599e+003,1.553910e-002
1.145528e+003,1.523302e-002
1.147456e+003,1.486040e-002
1.149385e+003,1.465462e-002
1.151313e+003,1.440900e-002
1.153242e+003,1.415431e-002
1.155170e+003,1.405450e-002
1.157099e+003,1.380809e-002
1.159027e+003,1.347992e-002
1.160956e+003,1.350384e-002
1.162884e+003,1.351287e-002
1.164813e+003,1.339981e-002
1.166741e+003,1.324309e-002
1.168670e+003,1.333602e-002
1.170598e+003,1.352986e-002
1.172526e+003,1.349051e-002
1.174455e+003,1.351071e-002
1.176384e+003,1.349697e-002
1.178312e+003,1.343402e-002
1.180240e+003,1.335518e-002
1.182169e+003,1.315247e-002
1.184098e+003,1.320080e-002
1.186026e+003,1.327230e-002
1.187954e+003,1.307355e-002
1.189883e+003,1.257973e-002
1.191812e+003,1.228006e-002
1.193740e+003,1.245758e-002
1.195668e+003,1.260835e-002
1.197597e+003,1.238171e-002
1.199526e+003,1.228988e-002
1.201454e+003,1.221159e-002
1.203382e+003,1.221432e-002
1.205311e+003,1.215836e-002
1.207240e+003,1.205261e-002
1.209168e+003,1.213203e-002
1.211096e+003,1.210651e-002
1.213025e+003,1.205847e-002
1.214953e+003,1.207036e-002
1.216882e+003,1.209407e-002
1.218810e+003,1.208477e-002
1.220739e+003,1.200270e-002
1.222667e+003,1.224370e-002
1.224596e+003,1.258389e-002
1.226524e+003,1.251940e-002
1.228453e+003,1.247752e-002
1.230381e+003,1.262152e-002
1.232310e+003,1.280675e-002
1.234238e+003,1.307943e-002
1.236167e+003,1.309148e-002
1.238095e+003,1.310811e-002
1.240024e+003,1.330257e-002
1.241952e+003,1.343375e-002
1.243881e+003,1.344475e-002
1.245809e+003,1.357043e-002
1.247738e+003,1.360055e-002
1.249666e+003,1.365399e-002
1.251595e+003,1.382550e-002
1.253523e+003,1.389994e-002
1.255452e+003,1.384630e-002
1.257380e+003,1.387777e-002
1.259309e+003,1.394862e-002
1.261237e+003,1.409013e-002
1.263166e+003,1.421620e-002
1.265094e+003,1.442962e-002
1.267023e+003,1.481589e-002
1.268951e+003,1.511595e-002
1.270880e+003,1.537608e-002
1.272808e+003,1.575072e-002
1.274737e+003,1.590687e-002
1.276665e+003,1.609863e-002
1.278594e+003,1.637446e-002
1.280522e+003,1.654921e-002
1.282451e+003,1.679970e-002
1.284379e+003,1.698375e-002
1.286308e+003,1.740662e-002
1.288236e+003,1.773463e-002
1.290165e+003,1.785083e-002
1.292093e+003,1.801948e-002
1.294022e+003,1.809788e-002
1.295950e+003,1.828201e-002
1.297879e+003,1.837367e-002
1.299807e+003,1.841546e-002
1.301736e+003,1.833074e-002
1.303664e+003,1.829393e-002
1.305593e+003,1.827803e-002
1.307521e+003,1.817828e-002
1.309450e+003,1.792651e-002
1.311378e+003,1.759304e-002
1.313307e+003,1.739438e-002
1.315235e+003,1.727321e-002
1.317164e+003,1.706166e-002
1.319092e+003,1.668151e-002
1.321021e+003,1.622550e-002
1.322949e+003,1.594582e-002
1.324878e+003,1.580663e-002
1.326806e+003,1.568641e-002
1.328735e+003,1.568937e-002
1.330663e+003,1.560861e-002
1.332592e+003,1.543646e-002
1.334520e+003,1.546826e-002
1.336449e+003,1.537045e-002
1.338377e+003,1.529075e-002
1.340306e+003,1.524386e-002
1.342234e+003,1.520485e-002
1.344163e+003,1.518814e-002
1.346091e+003,1.515825e-002
1.348020e+003,1.511859e-002
1.349948e+003,1.514964e-002
1.351877e+003,1.504624e-002
1.353805e+003,1.496351e-002
1.355734e+003,1.495573e-002
1.357662e+003,1.481805e-002
1.359591e+003,1.479659e-002
1.361519e+003,1.478425e-002
1.363448e+003,1.465253e-002
1.365376e+003,1.451673e-002
1.367305e+003,1.444335e-002
1.369233e+003,1.444568e-002
1.371162e+003,1.435523e-002
1.373090e+003,1.431755e-002
1.375019e+003,1.443181e-002
1.376947e+003,1.449590e-002
1.378876e+003,1.454949e-002
1.380804e+003,1.463560e-002
1.382733e+003,1.463279e-002
1.384661e+003,1.453493e-002
1.386590e+003,1.444979e-002
1.388518e+003,1.434803e-002
1.390447e+003,1.420857e-002
1.392375e+003,1.405029e-002
1.394304e+003,1.401538e-002
1.396232e+003,1.396412e-002
1.398161e+003,1.387315e-002
1.400089e+003,1.385717e-002
1.402018e+003,1.376554e-002
1.403946e+003,1.374974e-002
1.405875e+003,1.360086e-002
1.407803e+003,1.348347e-002
1.409732e+003,1.340155e-002
1.411660e+003,1.336004e-002
1.413589e+003,1.330824e-002
1.415517e+003,1.346115e-002
1.417446e+003,1.382608e-002
1.419374e+003,1.411381e-002
1.421303e+003,1.433838e-002
1.423231e+003,1.475518e-002
1.425160e+003,1.529836e-002
1.427088e+003,1.577237e-002
1.429017e+003,1.619668e-002
1.430945e+003,1.652763e-002
1.432874e+003,1.678568e-002
1.434802e+003,1.717971e-002
1.436731e+003,1.760833e-002
1.438659e+003,1.792565e-002
1.440588e+003,1.826836e-002
1.442516e+003,1.866568e-002
1.444445e+003,1.906318e-002
1.446373e+003,1.954537e-002
1.448302e+003,2.000162e-002
1.450230e+003,2.031782e-002
1.452159e+003,2.069001e-002
1.454087e+003,2.114403e-002
1.456016e+003,2.143654e-002
1.457944e+003,2.177395e-002
1.459873e+003,2.185071e-002
1.461801e+003,2.174779e-002
1.463730e+003,2.162874e-002
1.465658e+003,2.156031e-002
1.467587e+003,2.129155e-002
1.469515e+003,2.097548e-002
1.471444e+003,2.073835e-002
1.473372e+003,2.046238e-002
1.475301e+003,2.014609e-002
1.477229e+003,1.962520e-002
1.479158e+003,1.900897e-002
1.481086e+003,1.838224e-002
1.483015e+003,1.786585e-002
1.484943e+003,1.744405e-002
1.486872e+003,1.711725e-002
1.488800e+003,1.683603e-002
1.490729e+003,1.641145e-002
1.492657e+003,1.591090e-002
1.494586e+003,1.566635e-002
1.496514e+003,1.550702e-002
1.498443e+003,1.513485e-002
1.500371e+003,1.470435e-002
1.502300e+003,1.450241e-002
1.504228e+003,1.453266e-002
1.506157e+003,1.459468e-002
1.508085e+003,1.435125e-002
1.510014e+003,1.402271e-002
1.511942e+003,1.389227e-002
1.513871e+003,1.383063e-002
1.515799e+003,1.376414e-002
1.517728e+003,1.380433e-002
1.519656e+003,1.384075e-002
1.521585e+003,1.384120e-002
1.523513e+003,1.380484e-002
1.525442e+003,1.392895e-002
1.527370e+003,1.410187e-002
1.529299e+003,1.409557e-002
1.531227e+003,1.407329e-002
1.533156e+003,1.419128e-002
1.535084e+003,1.433338e-002
1.537013e+003,1.448658e-002
1.538941e+003,1.480283e-002
1.540870e+003,1.508521e-002
1.542798e+003,1.506788e-002
1.544727e+003,1.511039e-002
1.546655e+003,1.514490e-002
1.548584e+003,1.516611e-002
1.550512e+003,1.523851e-002
1.552441e+003,1.532455e-002
1.554369e+003,1.543042e-002
1.556298e+003,1.561417e-002
1.558226e+003,1.600195e-002
1.560155e+003,1.619506e-002
1.562083e+003,1.632588e-002
1.564012e+003,1.663527e-002
1.565940e+003,1.690772e-002
1.567869e+003,1.700891e-002
1.569797e+003,1.715138e-002
1.571726e+003,1.722525e-002
1.573654e+003,1.738707e-002
1.575583e+003,1.765522e-002
1.577511e+003,1.755047e-002
1.579440e+003,1.737341e-002
1.581368e+003,1.744446e-002
1.583297e+003,1.733541e-002
1.585225e+003,1.712146e-002
1.587154e+003,1.701893e-002
1.589082e+003,1.693369e-002
1.591010e+003,1.668888e-002
1.592939e+003,1.645501e-002
1.594868e+003,1.622529e-002
1.596796e+003,1.598483e-002
1.598724e+003,1.576436e-002
1.600653e+003,1.539705e-002
1.602582e+003,1.501455e-002
1.604510e+003,1.475285e-002
1.606438e+003,1.460339e-002
1.608367e+003,1.440379e-002
1.610296e+003,1.415058e-002
1.612224e+003,1.380262e-002
1.614152e+003,1.364961e-002
1.616081e+003,1.359812e-002
1.618010e+003,1.343487e-002
1.619938e+003,1.319715e-002
1.621866e+003,1.316788e-002
1.623795e+003,1.306304e-002
1.625724e+003,1.302859e-002
1.627652e+003,1.302312e-002
1.629580e+003,1.275519e-002
1.631509e+003,1.252162e-002
1.633438e+003,1.255327e-002
1.635366e+003,1.262964e-002
1.637294e+003,1.226684e-002
1.639223e+003,1.186358e-002
1.641151e+003,1.162750e-002
1.643080e+003,1.130015e-002
1.645008e+003,1.100867e-002
1.646937e+003,1.084843e-002
1.648865e+003,1.061738e-002
1.650794e+003,1.064947e-002
1.652722e+003,1.077978e-002
1.654651e+003,1.023787e-002
1.656579e+003,9.884014e-003
1.658508e+003,9.652323e-003
1.660436e+003,9.548667e-003
1.662365e+003,9.486586e-003
1.664293e+003,9.347962e-003
1.666222e+003,9.390485e-003
1.668150e+003,9.442834e-003
1.670079e+003,9.329274e-003
1.672007e+003,9.328123e-003
1.673936e+003,9.349079e-003
1.675864e+003,9.173306e-003
1.677793e+003,8.884092e-003
1.679721e+003,8.824000e-003
1.681650e+003,8.829242e-003
1.683578e+003,8.963641e-003
1.685507e+003,8.905940e-003
1.687435e+003,8.665948e-003
1.689364e+003,8.598045e-003
1.691292e+003,8.582161e-003
1.693221e+003,8.616499e-003
1.695149e+003,8.754383e-003
1.697078e+003,8.839893e-003
1.699006e+003,8.860791e-003
1.700935e+003,8.882334e-003
1.702863e+003,8.903741e-003
1.704792e+003,9.092364e-003
1.706720e+003,9.189820e-003
1.708649e+003,9.073418e-003
1.710577e+003,9.019692e-003
1.712506e+003,9.079305e-003
1.714434e+003,9.187959e-003
1.716363e+003,9.350467e-003
1.718291e+003,9.282593e-003
1.720220e+003,9.128603e-003
1.722148e+003,9.063302e-003
1.724077e+003,9.067090e-003
1.726005e+003,9.104647e-003
1.727934e+003,9.142545e-003
1.729862e+003,9.211481e-003
1.731791e+003,9.424921e-003
1.733719e+003,9.577390e-003
1.735648e+003,9.295659e-003
1.737576e+003,9.062150e-003
1.739505e+003,9.161089e-003
1.741433e+003,9.288788e-003
1.743362e+003,9.299823e-003
1.745290e+003,9.328800e-003
1.747219e+003,9.392653e-003
1.749147e+003,9.482150e-003
1.751076e+003,9.461492e-003
1.753004e+003,9.394312e-003
1.754933e+003,9.536440e-003
1.756861e+003,9.639009e-003
1.758790e+003,9.454483e-003
1.760718e+003,9.406772e-003
1.762647e+003,9.421501e-003
1.764575e+003,9.460782e-003
1.766504e+003,9.570920e-003
1.768432e+003,9.632132e-003
1.770361e+003,9.626915e-003
1.772289e+003,9.572953e-003
1.774218e+003,9.492107e-003
1.776146e+003,9.480829e-003
1.778075e+003,9.512291e-003
1.780003e+003,9.521232e-003
1.781932e+003,9.454652e-003
1.783860e+003,9.474428e-003
1.785789e+003,9.606996e-003
1.787717e+003,9.671363e-003
1.789646e+003,9.689015e-003
1.791574e+003,9.697012e-003
1.793503e+003,9.545991e-003
1.795431e+003,9.445238e-003
1.797360e+003,9.500099e-003
1.799288e+003,9.631387e-003
1.801217e+003,9.643989e-003
1.803145e+003,9.560758e-003
1.805074e+003,9.611907e-003
1.807002e+003,9.678241e-003
1.808931e+003,9.640025e-003
1.810859e+003,9.724016e-003
1.812788e+003,9.787926e-003
1.814716e+003,9.768407e-003
1.816645e+003,9.779861e-003
1.818573e+003,9.791079e-003
1.820502e+003,9.805211e-003
1.822430e+003,9.781115e-003
1.824359e+003,9.824834e-003
1.826287e+003,9.728353e-003
1.828216e+003,9.633419e-003
1.830144e+003,9.683188e-003
1.832073e+003,9.757495e-003
1.834001e+003,9.773829e-003
1.835930e+003,9.663334e-003
1.837858e+003,9.637722e-003
1.839787e+003,9.646022e-003
1.841715e+003,9.728556e-003
1.843644e+003,9.867744e-003
1.845572e+003,9.751565e-003
1.847501e+003,9.657947e-003
1.849429e+003,9.617023e-003
1.851358e+003,9.631387e-003
1.853286e+003,9.693217e-003
1.855215e+003,9.699010e-003
1.857143e+003,9.653068e-003
1.859072e+003,9.654627e-003
1.861000e+003,9.700162e-003
1.862929e+003,9.771389e-003
1.864857e+003,9.866625e-003
1.866786e+003,9.868591e-003
1.868714e+003,9.857642e-003
1.870643e+003,9.784369e-003
1.872571e+003,9.783589e-003
1.874500e+003,9.909336e-003
1.876428e+003,9.901098e-003
1.878357e+003,9.863270e-003
1.880285e+003,9.872455e-003
1.882214e+003,9.866998e-003
1.884142e+003,9.883776e-003
1.886071e+003,9.895504e-003
1.887999e+003,9.914014e-003
1.889928e+003,9.858049e-003
1.891856e+003,9.803855e-003
1.893785e+003,9.911776e-003
1.895713e+003,9.990904e-003
1.897642e+003,9.945337e-003
1.899570e+003,9.900759e-003
1.901499e+003,9.877438e-003
1.903427e+003,9.889403e-003
1.905356e+003,9.846932e-003
1.907284e+003,9.862083e-003
1.909213e+003,9.978291e-003
1.911141e+003,1.004210e-002
1.913070e+003,9.976426e-003
1.914998e+003,9.806735e-003
1.916927e+003,9.756682e-003
1.918855e+003,9.792570e-003
1.920784e+003,9.804770e-003
1.922712e+003,9.790401e-003
1.924641e+003,9.843678e-003
1.926569e+003,9.891979e-003
1.928498e+003,9.823580e-003
1.930426e+003,9.758817e-003
1.932355e+003,9.748617e-003
1.934283e+003,9.788096e-003
1.936212e+003,9.802194e-003
1.938140e+003,9.824732e-003
1.940069e+003,9.844119e-003
1.941997e+003,9.909878e-003
1.943926e+003,9.910250e-003
1.945854e+003,9.817140e-003
1.947783e+003,9.729980e-003
1.949711e+003,9.725541e-003
1.951640e+003,9.772575e-003
1.953568e+003,9.777353e-003
1.955497e+003,9.754886e-003
1.957425e+003,9.709514e-003
1.959354e+003,9.689896e-003
1.961282e+003,9.798263e-003
1.963211e+003,9.818021e-003
1.965139e+003,9.827172e-003
1.967068e+003,9.849474e-003
1.968996e+003,9.782810e-003
1.970925e+003,9.726659e-003
1.972853e+003,9.741637e-003
1.974782e+003,9.767052e-003
1.976710e+003,9.767356e-003
1.978639e+003,9.726964e-003
1.980567e+003,9.753327e-003
1.982496e+003,9.804872e-003
1.984424e+003,9.710937e-003
1.986353e+003,9.710192e-003
1.988281e+003,9.820903e-003
1.990210e+003,9.911471e-003
1.992138e+003,9.972425e-003
1.994067e+003,9.915302e-003
1.995995e+003,9.797924e-003
1.997924e+003,9.814124e-003
1.999852e+003,9.876319e-003
2.001781e+003,9.824902e-003
2.003709e+003,9.749736e-003
2.005638e+003,9.793553e-003
2.007566e+003,9.812769e-003
2.009495e+003,9.737367e-003
2.011423e+003,9.747431e-003
2.013352e+003,9.863134e-003
2.015280e+003,9.868387e-003
2.017208e+003,9.756513e-003
2.019137e+003,9.688134e-003
2.021066e+003,9.741738e-003
2.022994e+003,9.864625e-003
2.024922e+003,9.910420e-003
2.026851e+003,9.913607e-003
2.028780e+003,9.922827e-003
2.030708e+003,9.917166e-003
2.032636e+003,9.869913e-003
2.034565e+003,9.818056e-003
2.036494e+003,9.826393e-003
2.038422e+003,9.934251e-003
2.040350e+003,9.976358e-003
2.042279e+003,9.954660e-003
2.044208e+003,9.868693e-003
2.046136e+003,9.811989e-003
2.048064e+003,9.926082e-003
2.049993e+003,9.991886e-003
2.051921e+003,9.934116e-003
2.053850e+003,9.895471e-003
2.055778e+003,9.948897e-003
2.057707e+003,1.000840e-002
2.059635e+003,1.004526e-002
2.061564e+003,1.000820e-002
2.063492e+003,9.943676e-003
2.065421e+003,9.898928e-003
2.067349e+003,9.890962e-003
2.069278e+003,9.884624e-003
2.071206e+003,9.877200e-003
2.073135e+003,9.931810e-003
2.075063e+003,9.981139e-003
2.076992e+003,9.959509e-003
2.078920e+003,9.960661e-003
2.080849e+003,1.005251e-002
2.082777e+003,1.012967e-002
2.084706e+003,1.012675e-002
2.086634e+003,1.002728e-002
2.088563e+003,9.997040e-003
2.090491e+003,1.008110e-002
2.092420e+003,1.021026e-002
2.094348e+003,1.020554e-002
2.096277e+003,1.013384e-002
2.098205e+003,1.007639e-002
2.100134e+003,1.003118e-002
2.102062e+003,1.015330e-002
2.103991e+003,1.027108e-002
2.105919e+003,1.027068e-002
2.107848e+003,1.024720e-002
2.109776e+003,1.021385e-002
2.111705e+003,1.026932e-002
2.113633e+003,1.033090e-002
2.115562e+003,1.029921e-002
2.117490e+003,1.031845e-002
2.119419e+003,1.037084e-002
2.121347e+003,1.032883e-002
2.123276e+003,1.029680e-002
2.125204e+003,1.029473e-002
2.127133e+003,1.025823e-002
2.129061e+003,1.028873e-002
2.130990e+003,1.030505e-002
2.132918e+003,1.032788e-002
2.134847e+003,1.032856e-002
2.136775e+003,1.028048e-002
2.138704e+003,1.035876e-002
2.140632e+003,1.043054e-002
2.142561e+003,1.035299e-002
2.144489e+003,1.027169e-002
2.146418e+003,1.032890e-002
2.148346e+003,1.040661e-002
2.150275e+003,1.049520e-002
2.152203e+003,1.050714e-002
2.154132e+003,1.044679e-002
2.156060e+003,1.046000e-002
2.157989e+003,1.041224e-002
2.159917e+003,1.043023e-002
2.161846e+003,1.048094e-002
2.163774e+003,1.046390e-002
2.165703e+003,1.044924e-002
2.167631e+003,1.046909e-002
2.169560e+003,1.049119e-002
2.171488e+003,1.056024e-002
2.173417e+003,1.057589e-002
2.175345e+003,1.058641e-002
2.177274e+003,1.055745e-002
2.179202e+003,1.057966e-002
2.181131e+003,1.062903e-002
2.183059e+003,1.058329e-002
2.184988e+003,1.059558e-002
2.186916e+003,1.062804e-002
2.188845e+003,1.064695e-002
2.190773e+003,1.065565e-002
2.192702e+003,1.070978e-002
2.194630e+003,1.063738e-002
2.196559e+003,1.055168e-002
2.198487e+003,1.052157e-002
2.200416e+003,1.052758e-002
2.202344e+003,1.053210e-002
2.204273e+003,1.057389e-002
2.206201e+003,1.064981e-002
2.208130e+003,1.060852e-002
2.210058e+003,1.051600e-002
2.211987e+003,1.043929e-002
2.213915e+003,1.043464e-002
2.215844e+003,1.044028e-002
2.217772e+003,1.040715e-002
2.219701e+003,1.042219e-002
2.221629e+003,1.036541e-002
2.223558e+003,1.036528e-002
2.225486e+003,1.042606e-002
2.227415e+003,1.045345e-002
2.229343e+003,1.049122e-002
2.231272e+003,1.051539e-002
2.233200e+003,1.049808e-002
2.235129e+003,1.050107e-002
2.237057e+003,1.049991e-002
2.238986e+003,1.050137e-002
2.240914e+003,1.043559e-002
2.242843e+003,1.037115e-002
2.244771e+003,1.036219e-002
2.246700e+003,1.036110e-002
2.248628e+003,1.040569e-002
2.250557e+003,1.049156e-002
2.252485e+003,1.046509e-002
2.254414e+003,1.038781e-002
2.256342e+003,1.035119e-002
2.258271e+003,1.029035e-002
2.260199e+003,1.024130e-002
2.262128e+003,1.017627e-002
2.264056e+003,1.024900e-002
2.265985e+003,1.027190e-002
2.267913e+003,1.020320e-002
2.269842e+003,1.021294e-002
2.271770e+003,1.029612e-002
2.273699e+003,1.034010e-002
2.275627e+003,1.034115e-002
2.277556e+003,1.033942e-002
2.279484e+003,1.023207e-002
2.281413e+003,1.023404e-002
2.283341e+003,1.019625e-002
2.285270e+003,1.014513e-002
2.287198e+003,1.019601e-002
2.289127e+003,1.024649e-002
2.291055e+003,1.032476e-002
2.292984e+003,1.031516e-002
2.294912e+003,1.030535e-002
2.296841e+003,1.030895e-002
2.298769e+003,1.027722e-002
2.300698e+003,1.030854e-002
2.302626e+003,1.033467e-002
2.304555e+003,1.033504e-002
2.306483e+003,1.041455e-002
2.308412e+003,1.055891e-002
2.310340e+003,1.063246e-002
2.312269e+003,1.062767e-002
2.314197e+003,1.064556e-002
2.316125e+003,1.075661e-002
2.318054e+003,1.068621e-002
2.319983e+003,1.066998e-002
2.321911e+003,1.076344e-002
2.323840e+003,1.073522e-002
2.325768e+003,1.072088e-002
2.327697e+003,1.079809e-002
2.329625e+003,1.082319e-002
2.331553e+003,1.081161e-002
2.333482e+003,1.088417e-002
2.335411e+003,1.096813e-002
2.337339e+003,1.093235e-002
2.339268e+003,1.087075e-002
2.341196e+003,1.093361e-002
2.343125e+003,1.086742e-002
2.345053e+003,1.073545e-002
2.346981e+003,1.057735e-002
2.348910e+003,1.043030e-002
2.350839e+003,1.065582e-002
2.352767e+003,1.093629e-002
2.354696e+003,1.105139e-002
2.356624e+003,1.123153e-002
2.358552e+003,1.135627e-002
2.360481e+003,1.127781e-002
2.362409e+003,1.121678e-002
2.364338e+003,1.113243e-002
2.366267e+003,1.113110e-002
2.368195e+003,1.101299e-002
2.370124e+003,1.093979e-002
2.372052e+003,1.100157e-002
2.373980e+003,1.093473e-002
2.375909e+003,1.081364e-002
2.377838e+003,1.074822e-002
2.379766e+003,1.074884e-002
2.381695e+003,1.079252e-002
2.383623e+003,1.073015e-002
2.385552e+003,1.067443e-002
2.387480e+003,1.060702e-002
2.389408e+003,1.065487e-002
2.391337e+003,1.073100e-002
2.393266e+003,1.064580e-002
2.395194e+003,1.068879e-002
2.397123e+003,1.079652e-002
2.399051e+003,1.075525e-002
2.400979e+003,1.068190e-002
2.402908e+003,1.066631e-002
2.404836e+003,1.065874e-002
2.406765e+003,1.068207e-002
2.408694e+003,1.069786e-002
2.410622e+003,1.071392e-002
2.412551e+003,1.075196e-002
2.414479e+003,1.073311e-002
2.416407e+003,1.069086e-002
2.418336e+003,1.065792e-002
2.420264e+003,1.066787e-002
2.422193e+003,1.074034e-002
2.424122e+003,1.086100e-002
2.426050e+003,1.089260e-002
2.427979e+003,1.090877e-002
2.429907e+003,1.092212e-002
2.431835e+003,1.094506e-002
2.433764e+003,1.100973e-002
2.435692e+003,1.104844e-002
2.437621e+003,1.105177e-002
2.439550e+003,1.107012e-002
2.441478e+003,1.111040e-002
2.443406e+003,1.109381e-002
2.445335e+003,1.112250e-002
2.447263e+003,1.116938e-002
2.449192e+003,1.118101e-002
2.451121e+003,1.116047e-002
2.453049e+003,1.112342e-002
2.454978e+003,1.117740e-002
2.456906e+003,1.120590e-002
2.458834e+003,1.120093e-002
2.460763e+003,1.125085e-002
2.462691e+003,1.127040e-002
2.464620e+003,1.131825e-002
2.466549e+003,1.138001e-002
2.468477e+003,1.130866e-002
2.470406e+003,1.129903e-002
2.472334e+003,1.125534e-002
2.474262e+003,1.133076e-002
2.476191e+003,1.145913e-002
2.478119e+003,1.147250e-002
2.480048e+003,1.136875e-002
2.481977e+003,1.128138e-002
2.483905e+003,1.133736e-002
2.485833e+003,1.135937e-002
2.487762e+003,1.135988e-002
2.489690e+003,1.140328e-002
2.491619e+003,1.145053e-002
2.493547e+003,1.156917e-002
2.495476e+003,1.155869e-002
2.497405e+003,1.152806e-002
2.499333e+003,1.155399e-002
2.501261e+003,1.169686e-002
2.503190e+003,1.169390e-002
2.505118e+003,1.158543e-002
2.507047e+003,1.153327e-002
2.508975e+003,1.162913e-002
2.510904e+003,1.166909e-002
2.512833e+003,1.168396e-002
2.514761e+003,1.172798e-002
2.516689e+003,1.178701e-002
2.518618e+003,1.174782e-002
2.520546e+003,1.172603e-002
2.522475e+003,1.179504e-002
2.524403e+003,1.182405e-002
2.526332e+003,1.179596e-002
2.528260e+003,1.184308e-002
2.530189e+003,1.187274e-002
2.532117e+003,1.193908e-002
2.534046e+003,1.193629e-002
2.535974e+003,1.193227e-002
2.537903e+003,1.188609e-002
2.539831e+003,1.188180e-002
2.541760e+003,1.189372e-002
2.543688e+003,1.184376e-002
2.545617e+003,1.181622e-002
2.547545e+003,1.192314e-002
2.549474e+003,1.203064e-002
2.551402e+003,1.194797e-002
2.553331e+003,1.189634e-002
2.555259e+003,1.192876e-002
2.557188e+003,1.191044e-002
2.559116e+003,1.181707e-002
2.561045e+003,1.187547e-002
2.562973e+003,1.201912e-002
2.564902e+003,1.199821e-002
2.566830e+003,1.194617e-002
2.568759e+003,1.202716e-002
2.570687e+003,1.202853e-002
2.572616e+003,1.204382e-002
2.574544e+003,1.210766e-002
2.576473e+003,1.204396e-002
2.578401e+003,1.204082e-002
2.580330e+003,1.209904e-002
2.582258e+003,1.205288e-002
2.584187e+003,1.204065e-002
2.586115e+003,1.210783e-002
2.588044e+003,1.215738e-002
2.589972e+003,1.217677e-002
2.591901e+003,1.217588e-002
2.593829e+003,1.212269e-002
2.595758e+003,1.209748e-002
2.597686e+003,1.219193e-002
2.599615e+003,1.233787e-002
2.601543e+003,1.230849e-002
2.603472e+003,1.205418e-002
2.605400e+003,1.201418e-002
2.607329e+003,1.213717e-002
2.609257e+003,1.223678e-002
2.611186e+003,1.227461e-002
2.613114e+003,1.233736e-002
2.615043e+003,1.238775e-002
2.616971e+003,1.238304e-002
2.618900e+003,1.228153e-002
2.620828e+003,1.221923e-002
2.622757e+003,1.237565e-002
2.624685e+003,1.257281e-002
2.626614e+003,1.252615e-002
2.628542e+003,1.237929e-002
2.630471e+003,1.228835e-002
2.632399e+003,1.234394e-002
2.634328e+003,1.234210e-002
2.636256e+003,1.231858e-002
2.638185e+003,1.241700e-002
2.640113e+003,1.253359e-002
2.642042e+003,1.256548e-002
2.643970e+003,1.256551e-002
2.645899e+003,1.263700e-002
2.647827e+003,1.271213e-002
2.649756e+003,1.273543e-002
2.651684e+003,1.269725e-002
2.653613e+003,1.275409e-002
2.655541e+003,1.288313e-002
2.657470e+003,1.293576e-002
2.659398e+003,1.294989e-002
2.661327e+003,1.297884e-002
2.663255e+003,1.291937e-002
2.665184e+003,1.286278e-002
2.667112e+003,1.294607e-002
2.669041e+003,1.306365e-002
2.670969e+003,1.306775e-002
2.672898e+003,1.308359e-002
2.674826e+003,1.314284e-002
2.676755e+003,1.319325e-002
2.678683e+003,1.312522e-002
2.680612e+003,1.315302e-002
2.682540e+003,1.323049e-002
2.684469e+003,1.326342e-002
2.686397e+003,1.332259e-002
2.688326e+003,1.333540e-002
2.690254e+003,1.326065e-002
2.692183e+003,1.328012e-002
2.694111e+003,1.342144e-002
2.696040e+003,1.358961e-002
2.697968e+003,1.362264e-002
2.699897e+003,1.364442e-002
2.701825e+003,1.369071e-002
2.703754e+003,1.365912e-002
2.705682e+003,1.369687e-002
2.707611e+003,1.387466e-002
2.709539e+003,1.392262e-002
2.711468e+003,1.382656e-002
2.713396e+003,1.391082e-002
2.715325e+003,1.400159e-002
2.717253e+003,1.403725e-002
2.719182e+003,1.405710e-002
2.721110e+003,1.415246e-002
2.723039e+003,1.427136e-002
2.724967e+003,1.433108e-002
2.726896e+003,1.440794e-002
2.728824e+003,1.439489e-002
2.730753e+003,1.438643e-002
2.732681e+003,1.455956e-002
2.734610e+003,1.464149e-002
2.736538e+003,1.462806e-002
2.738467e+003,1.474072e-002
2.740395e+003,1.497263e-002
2.742324e+003,1.509835e-002
2.744252e+003,1.509029e-002
2.746181e+003,1.508270e-002
2.748109e+003,1.511893e-002
2.750038e+003,1.523693e-002
2.751966e+003,1.525251e-002
2.753895e+003,1.532984e-002
2.755823e+003,1.549978e-002
2.757752e+003,1.554538e-002
2.759680e+003,1.568390e-002
2.761609e+003,1.600704e-002
2.763537e+003,1.623217e-002
2.765466e+003,1.628487e-002
2.767394e+003,1.648836e-002
2.769323e+003,1.682677e-002
2.771251e+003,1.725517e-002
2.773180e+003,1.769277e-002
2.775108e+003,1.805692e-002
2.777037e+003,1.842109e-002
2.778965e+003,1.892313e-002
2.780894e+003,1.958752e-002
2.782822e+003,2.015362e-002
2.784750e+003,2.069057e-002
2.786679e+003,2.131378e-002
2.788608e+003,2.198084e-002
2.790536e+003,2.265034e-002
2.792465e+003,2.339739e-002
2.794393e+003,2.416138e-002
2.796322e+003,2.481984e-002
2.798250e+003,2.537945e-002
2.800178e+003,2.595326e-002
2.802107e+003,2.655724e-002
2.804036e+003,2.711959e-002
2.805964e+003,2.756312e-002
2.807893e+003,2.779888e-002
2.809821e+003,2.788144e-002
2.811750e+003,2.802777e-002
2.813678e+003,2.815746e-002
2.815606e+003,2.803855e-002
2.817535e+003,2.786067e-002
2.819464e+003,2.767985e-002
2.821392e+003,2.734608e-002
2.823321e+003,2.695774e-002
2.825249e+003,2.641450e-002
2.827177e+003,2.589927e-002
2.829106e+003,2.549068e-002
2.831034e+003,2.499890e-002
2.832963e+003,2.446789e-002
2.834892e+003,2.390994e-002
2.836820e+003,2.329784e-002
2.838749e+003,2.281255e-002
2.840677e+003,2.225941e-002
2.842605e+003,2.153768e-002
2.844534e+003,2.084034e-002
2.846462e+003,2.022425e-002
2.848391e+003,1.969485e-002
2.850320e+003,1.923532e-002
2.852248e+003,1.885956e-002
2.854177e+003,1.863316e-002
2.856105e+003,1.848865e-002
2.858033e+003,1.839748e-002
2.859962e+003,1.844243e-002
2.861890e+003,1.846441e-002
2.863819e+003,1.844426e-002
2.865748e+003,1.847458e-002
2.867676e+003,1.854460e-002
2.869604e+003,1.853751e-002
2.871533e+003,1.849325e-002
2.873461e+003,1.860141e-002
2.875390e+003,1.874365e-002
2.877319e+003,1.889544e-002
2.879247e+003,1.919331e-002
2.881176e+003,1.936463e-002
2.883104e+003,1.931537e-002
2.885032e+003,1.918437e-002
2.886961e+003,1.912731e-002
2.888889e+003,1.916027e-002
2.890818e+003,1.917783e-002
2.892747e+003,1.896961e-002
2.894675e+003,1.883308e-002
2.896604e+003,1.895431e-002
2.898532e+003,1.902832e-002
2.900460e+003,1.890756e-002
2.902389e+003,1.872739e-002
2.904317e+003,1.853702e-002
2.906246e+003,1.844301e-002
2.908175e+003,1.845943e-002
2.910103e+003,1.832275e-002
2.912031e+003,1.812673e-002
2.913960e+003,1.808863e-002
2.915888e+003,1.790310e-002
2.917817e+003,1.794630e-002
2.919745e+003,1.817845e-002
2.921674e+003,1.836053e-002
2.923603e+003,1.849712e-002
2.925531e+003,1.861214e-002
2.927459e+003,1.885911e-002
2.929388e+003,1.912024e-002
2.931316e+003,1.946490e-002
2.933245e+003,1.970542e-002
2.935173e+003,1.989734e-002
2.937102e+003,2.007279e-002
2.939031e+003,2.011509e-002
2.940959e+003,2.009594e-002
2.942887e+003,2.000437e-002
2.944816e+003,1.983592e-002
2.946744e+003,1.964458e-002
2.948673e+003,1.943462e-002
2.950601e+003,1.912578e-002
2.952530e+003,1.881122e-002
2.954458e+003,1.833146e-002
2.956387e+003,1.777388e-002
2.958315e+003,1.733913e-002
2.960244e+003,1.678740e-002
2.962172e+003,1.621587e-002
2.964101e+003,1.576904e-002
2.966029e+003,1.519181e-002
2.967958e+003,1.466387e-002
2.969886e+003,1.429489e-002
2.971815e+003,1.398304e-002
2.973743e+003,1.357683e-002
2.975672e+003,1.330971e-002
2.977600e+003,1.316180e-002
2.979529e+003,1.280876e-002
2.981457e+003,1.237520e-002
2.983386e+003,1.217707e-002
2.985314e+003,1.199875e-002
2.987243e+003,1.185333e-002
2.989171e+003,1.186069e-002
2.991100e+003,1.187271e-002
2.993028e+003,1.171313e-002
2.994957e+003,1.155723e-002
2.996885e+003,1.142961e-002
2.998814e+003,1.135202e-002
3.000742e+003,1.122929e-002
3.002671e+003,1.115364e-002
3.004599e+003,1.115021e-002
3.006528e+003,1.116602e-002
3.008456e+003,1.100884e-002
3.010385e+003,1.088668e-002
3.012313e+003,1.098516e-002
3.014242e+003,1.092508e-002
3.016170e+003,1.084503e-002
3.018099e+003,1.087639e-002
3.020027e+003,1.094003e-002
3.021956e+003,1.093418e-002
3.023884e+003,1.091951e-002
3.025813e+003,1.079167e-002
3.027741e+003,1.065035e-002
3.029670e+003,1.074072e-002
3.031598e+003,1.088716e-002
3.033527e+003,1.087129e-002
3.035455e+003,1.080356e-002
3.037384e+003,1.074765e-002
3.039312e+003,1.062454e-002
3.041241e+003,1.053821e-002
3.043169e+003,1.050066e-002
3.045098e+003,1.053142e-002
3.047026e+003,1.057355e-002
3.048955e+003,1.052738e-002
3.050883e+003,1.035201e-002
3.052812e+003,1.023499e-002
3.054740e+003,1.027475e-002
3.056669e+003,1.030189e-002
3.058597e+003,1.028795e-002
3.060526e+003,1.023132e-002
3.062454e+003,1.024058e-002
3.064383e+003,1.026484e-002
3.066311e+003,1.021331e-002
3.068240e+003,1.014344e-002
3.070168e+003,1.015853e-002
3.072097e+003,1.011932e-002
3.074025e+003,1.011701e-002
3.075954e+003,1.018777e-002
3.077882e+003,1.019397e-002
3.079811e+003,1.009002e-002
3.081739e+003,9.996972e-003
3.083668e+003,1.002528e-002
3.085596e+003,1.006557e-002
3.087525e+003,1.001013e-002
3.089453e+003,9.956626e-003
3.091382e+003,9.879844e-003
3.093310e+003,9.783352e-003
3.095239e+003,9.802804e-003
3.097167e+003,9.848796e-003
3.099096e+003,9.763696e-003
3.101024e+003,9.653170e-003
3.102953e+003,9.708159e-003
3.104881e+003,9.723644e-003
3.106810e+003,9.729641e-003
3.108738e+003,9.771084e-003
3.110667e+003,9.663300e-003
3.112595e+003,9.563468e-003
3.114524e+003,9.629083e-003
3.116452e+003,9.584334e-003
3.118381e+003,9.558422e-003
3.120309e+003,9.470974e-003
3.122238e+003,9.387777e-003
3.124166e+003,9.423194e-003
3.126095e+003,9.474902e-003
3.128023e+003,9.552596e-003
3.129952e+003,9.578169e-003
3.131880e+003,9.433488e-003
3.133809e+003,9.367632e-003
3.135737e+003,9.397563e-003
3.137666e+003,9.475715e-003
3.139594e+003,9.483268e-003
3.141523e+003,9.435079e-003
3.143451e+003,9.431626e-003
3.145380e+003,9.432269e-003
3.147308e+003,9.518895e-003
3.149237e+003,9.467520e-003
3.151165e+003,9.454144e-003
3.153094e+003,9.508125e-003
3.155022e+003,9.478120e-003
3.156951e+003,9.480219e-003
3.158879e+003,9.547041e-003
3.160808e+003,9.638365e-003
3.162736e+003,9.588907e-003
3.164665e+003,9.487196e-003
3.166593e+003,9.341259e-003
3.168522e+003,9.390756e-003
3.170450e+003,9.491801e-003
3.172379e+003,9.511139e-003
3.174307e+003,9.564823e-003
3.176236e+003,9.574646e-003
3.178164e+003,9.559506e-003
3.180093e+003,9.501826e-003
3.182021e+003,9.488245e-003
3.183950e+003,9.491463e-003
3.185878e+003,9.428951e-003
3.187807e+003,9.462847e-003
3.189735e+003,9.505077e-003
3.191664e+003,9.434673e-003
3.193592e+003,9.372271e-003
3.195521e+003,9.342004e-003
3.197449e+003,9.423702e-003
3.199378e+003,9.569802e-003
3.201306e+003,9.715884e-003
3.203235e+003,9.656084e-003
3.205163e+003,9.556694e-003
3.207092e+003,9.516795e-003
3.209020e+003,9.616887e-003
3.210948e+003,9.683188e-003
3.212877e+003,9.690777e-003
3.214806e+003,9.739569e-003
3.216734e+003,9.651510e-003
3.218663e+003,9.547786e-003
3.220591e+003,9.743805e-003
3.222520e+003,9.991547e-003
3.224448e+003,9.926014e-003
3.226376e+003,9.918861e-003
3.228305e+003,1.007537e-002
3.230234e+003,1.026403e-002
3.232162e+003,1.029100e-002
3.234091e+003,1.027353e-002
3.236019e+003,1.030393e-002
3.237948e+003,1.035248e-002
3.239876e+003,1.045877e-002
3.241804e+003,1.057735e-002
3.243733e+003,1.055739e-002
3.245662e+003,1.054231e-002
3.247590e+003,1.052948e-002
3.249519e+003,1.059348e-002
3.251447e+003,1.056611e-002
3.253375e+003,1.063565e-002
3.255304e+003,1.074265e-002
3.257232e+003,1.089253e-002
3.259161e+003,1.099222e-002
3.261090e+003,1.096609e-002
3.263018e+003,1.091859e-002
3.264947e+003,1.088526e-002
3.266875e+003,1.099212e-002
3.268803e+003,1.109181e-002
3.270732e+003,1.117305e-002
3.272660e+003,1.135610e-002
3.274589e+003,1.131461e-002
3.276518e+003,1.127785e-002
3.278446e+003,1.130923e-002
3.280375e+003,1.127883e-002
3.282303e+003,1.140151e-002
3.284231e+003,1.131192e-002
3.286160e+003,1.121885e-002
3.288088e+003,1.127669e-002
3.290017e+003,1.125034e-002
3.291946e+003,1.117275e-002
3.293874e+003,1.104674e-002
3.295802e+003,1.106026e-002
3.297731e+003,1.109283e-002
3.299659e+003,1.101418e-002
3.301588e+003,1.098257e-002
3.303516e+003,1.083572e-002
3.305445e+003,1.076388e-002
3.307374e+003,1.076999e-002
3.309302e+003,1.070458e-002
3.311230e+003,1.052303e-002
3.313159e+003,1.039935e-002
3.315087e+003,1.033260e-002
3.317016e+003,1.016351e-002
3.318944e+003,1.002810e-002
3.320873e+003,1.012370e-002
3.322802e+003,1.008768e-002
3.324730e+003,9.906420e-003
3.326658e+003,9.788503e-003
3.328587e+003,9.737062e-003
3.330515e+003,9.817411e-003
3.332444e+003,9.800229e-003
3.334372e+003,9.659844e-003
3.336301e+003,9.611027e-003
3.338229e+003,9.551140e-003
3.340158e+003,9.497627e-003
3.342086e+003,9.528277e-003
3.344015e+003,9.512461e-003
3.345943e+003,9.440328e-003
3.347872e+003,9.299112e-003
3.349800e+003,9.351957e-003
3.351729e+003,9.429628e-003
3.353657e+003,9.288991e-003
3.355586e+003,9.150598e-003
3.357514e+003,8.962085e-003
3.359443e+003,9.002846e-003
3.361371e+003,9.171986e-003
3.363300e+003,9.198484e-003
3.365229e+003,9.085564e-003
3.367157e+003,8.944463e-003
3.369085e+003,8.757189e-003
3.371014e+003,8.732036e-003
3.372942e+003,8.839724e-003
3.374871e+003,8.735788e-003
3.376799e+003,8.609266e-003
3.378728e+003,8.553876e-003
3.380656e+003,8.515319e-003
3.382585e+003,8.396901e-003
3.384513e+003,8.331945e-003
3.386442e+003,8.350556e-003
3.388370e+003,8.366904e-003
3.390299e+003,8.182884e-003
3.392227e+003,8.153139e-003
3.394156e+003,8.183863e-003
3.396084e+003,8.127851e-003
3.398013e+003,8.142841e-003
3.399941e+003,8.191055e-003
3.401870e+003,8.096827e-003
3.403798e+003,8.057637e-003
3.405727e+003,7.990335e-003
3.407655e+003,7.990302e-003
3.409584e+003,8.145508e-003
3.411512e+003,8.059527e-003
3.413441e+003,7.946396e-003
3.415369e+003,8.006400e-003
3.417298e+003,8.073231e-003
3.419226e+003,8.068979e-003
3.421155e+003,7.994115e-003
3.423083e+003,7.943696e-003
3.425012e+003,8.005152e-003
3.426940e+003,7.904216e-003
3.428869e+003,7.862140e-003
3.430797e+003,7.998436e-003
3.432726e+003,7.976870e-003
3.434654e+003,7.749803e-003
3.436583e+003,7.542578e-003
3.438511e+003,7.652400e-003
3.440440e+003,7.838929e-003
3.442368e+003,7.884308e-003
3.444297e+003,7.851918e-003
3.446225e+003,7.878303e-003
3.448154e+003,7.803944e-003
3.450082e+003,7.761171e-003
3.452011e+003,7.675265e-003
3.453939e+003,7.692701e-003
3.455868e+003,7.739111e-003
3.457796e+003,7.861298e-003
3.459725e+003,7.966678e-003
3.461653e+003,7.997322e-003
3.463582e+003,7.884443e-003
3.465510e+003,7.813390e-003
3.467439e+003,7.885759e-003
3.469367e+003,7.875299e-003
3.471296e+003,7.923044e-003
3.473224e+003,7.945688e-003
3.475153e+003,7.784075e-003
3.477081e+003,7.789472e-003
3.479010e+003,7.801516e-003
3.480938e+003,7.883734e-003
3.482867e+003,7.937791e-003
3.484795e+003,8.024727e-003
3.486724e+003,8.067325e-003
3.488652e+003,7.906172e-003
3.490581e+003,7.694286e-003
3.492509e+003,7.659887e-003
3.494438e+003,7.825400e-003
3.496366e+003,8.072152e-003
3.498295e+003,8.001945e-003
3.500223e+003,7.997355e-003
3.502152e+003,8.023513e-003
3.504080e+003,7.763970e-003
3.506009e+003,7.913022e-003
3.507937e+003,8.172045e-003
3.509866e+003,8.101655e-003
3.511794e+003,7.869631e-003
3.513723e+003,7.839873e-003
3.515651e+003,7.817439e-003
3.517580e+003,7.897096e-003
3.519508e+003,7.885792e-003
3.521437e+003,7.899796e-003
3.523365e+003,7.855393e-003
3.525294e+003,7.847195e-003
3.527222e+003,7.956014e-003
3.529151e+003,8.105570e-003
3.531079e+003,8.043359e-003
3.533008e+003,8.033503e-003
3.534936e+003,8.024018e-003
3.536865e+003,8.056962e-003
3.538793e+003,8.180453e-003
3.540722e+003,8.300467e-003
3.542650e+003,8.294456e-003
3.544579e+003,8.249743e-003
3.546507e+003,8.072455e-003
3.548436e+003,7.970762e-003
3.550364e+003,8.025504e-003
3.552293e+003,7.941131e-003
3.554221e+003,7.869665e-003
3.556150e+003,7.926992e-003
3.558078e+003,7.999954e-003
3.560007e+003,8.041570e-003
3.561935e+003,8.155536e-003
3.563864e+003,8.113875e-003
3.565792e+003,8.211483e-003
3.567721e+003,8.321272e-003
3.569649e+003,8.253761e-003
3.571578e+003,8.126501e-003
3.573506e+003,8.278414e-003
3.575435e+003,8.495011e-003
3.577363e+003,8.334343e-003
3.579292e+003,8.218676e-003
3.581220e+003,8.094329e-003
3.583149e+003,7.851176e-003
3.585077e+003,8.088388e-003
3.587006e+003,8.184033e-003
3.588934e+003,8.104051e-003
3.590863e+003,8.192676e-003
3.592791e+003,8.192710e-003
3.594720e+003,8.151012e-003
3.596648e+003,8.195377e-003
3.598577e+003,8.279900e-003
3.600505e+003,8.334647e-003
3.602434e+003,8.310026e-003
3.604362e+003,8.313876e-003
3.606291e+003,8.255686e-003
3.608219e+003,8.259198e-003
3.610148e+003,8.292361e-003
3.612076e+003,8.246433e-003
3.614005e+003,8.110635e-003
3.615933e+003,8.115260e-003
3.617862e+003,8.490754e-003
3.619790e+003,8.691334e-003
3.621719e+003,8.396631e-003
3.623647e+003,8.189299e-003
3.625576e+003,8.478793e-003
3.627504e+003,9.013671e-003
3.629433e+003,8.980216e-003
3.631361e+003,8.529343e-003
3.633290e+003,8.259603e-003
3.635218e+003,8.221816e-003
3.637146e+003,8.329243e-003
3.639075e+003,8.350624e-003
3.641004e+003,8.381294e-003
3.642932e+003,8.217122e-003
3.644861e+003,8.195614e-003
3.646789e+003,8.554011e-003
3.648718e+003,8.641814e-003
3.650646e+003,8.458286e-003
3.652574e+003,8.294894e-003
3.654503e+003,8.294084e-003
3.656432e+003,8.197369e-003
3.658360e+003,8.008999e-003
3.660289e+003,8.116474e-003
3.662217e+003,8.216819e-003
3.664146e+003,8.180622e-003
3.666074e+003,8.081367e-003
3.668002e+003,8.327622e-003
3.669931e+003,8.430582e-003
3.671860e+003,8.183626e-003
3.673788e+003,8.215367e-003
3.675717e+003,8.376971e-003
3.677645e+003,8.420109e-003
3.679573e+003,8.259198e-003
3.681502e+003,8.334782e-003
3.683430e+003,8.344443e-003
3.685359e+003,8.394874e-003
3.687288e+003,8.627010e-003
3.689216e+003,8.651413e-003
3.691145e+003,8.593651e-003
3.693073e+003,8.479368e-003
3.695001e+003,8.190109e-003
3.696930e+003,8.114315e-003
3.698858e+003,8.276117e-003
3.700787e+003,8.500587e-003
3.702716e+003,8.519780e-003
3.704644e+003,8.315463e-003
3.706573e+003,8.274867e-003
3.708501e+003,8.448116e-003
3.710429e+003,8.738323e-003
3.712358e+003,8.605210e-003
3.714286e+003,8.263486e-003
3.716215e+003,8.061958e-003
3.718144e+003,8.240186e-003
3.720072e+003,8.514136e-003
3.722000e+003,8.591455e-003
3.723929e+003,8.537115e-003
3.725857e+003,8.620723e-003
3.727786e+003,8.789613e-003
3.729714e+003,8.735112e-003
3.731643e+003,8.493660e-003
3.733572e+003,8.409671e-003
3.735500e+003,8.474401e-003
3.737428e+003,8.253626e-003
3.739357e+003,8.310363e-003
3.741285e+003,8.689947e-003
3.743214e+003,8.799654e-003
3.745142e+003,8.370282e-003
3.747071e+003,8.350117e-003
3.749000e+003,8.573408e-003
3.750928e+003,8.556916e-003
3.752856e+003,8.524307e-003
3.754785e+003,8.480787e-003
3.756713e+003,8.582735e-003
3.758642e+003,8.522179e-003
3.760570e+003,8.346942e-003
3.762499e+003,8.389301e-003
3.764427e+003,8.433960e-003
3.766356e+003,8.331405e-003
3.768284e+003,8.375653e-003
3.770213e+003,8.501905e-003
3.772141e+003,8.455717e-003
3.774070e+003,8.463995e-003
3.775998e+003,8.563540e-003
3.777927e+003,8.414265e-003
3.779855e+003,8.171337e-003
3.781784e+003,8.354880e-003
3.783712e+003,8.537621e-003
3.785641e+003,8.589935e-003
3.787569e+003,8.613152e-003
3.789498e+003,8.521773e-003
3.791426e+003,8.544075e-003
3.793355e+003,8.590441e-003
3.795283e+003,8.610617e-003
3.797212e+003,8.413048e-003
3.799140e+003,8.229076e-003
3.801069e+003,8.428792e-003
3.802997e+003,8.609604e-003
3.804926e+003,8.519036e-003
3.806854e+003,8.400381e-003
3.808783e+003,8.227252e-003
3.810711e+003,8.278211e-003
3.812640e+003,8.405413e-003
3.814568e+003,8.449365e-003
3.816497e+003,8.402914e-003
3.818425e+003,8.503053e-003
3.820354e+003,8.958906e-003
3.822282e+003,8.968140e-003
3.824211e+003,8.830627e-003
3.826139e+003,8.753774e-003
3.828068e+003,8.667909e-003
3.829996e+003,8.643944e-003
3.831925e+003,8.752218e-003
3.833853e+003,8.814769e-003
3.835782e+003,8.804861e-003
3.837710e+003,8.919130e-003
3.839639e+003,8.891702e-003
3.841567e+003,8.917507e-003
3.843496e+003,8.621298e-003
3.845424e+003,8.413960e-003
3.847353e+003,8.327419e-003
3.849281e+003,8.662939e-003
3.851210e+003,9.162002e-003
3.853138e+003,9.242584e-003
3.855067e+003,8.730412e-003
3.856995e+003,8.540899e-003
3.858924e+003,8.646073e-003
3.860852e+003,8.727268e-003
3.862781e+003,8.748094e-003
3.864709e+003,8.750630e-003
3.866638e+003,8.716113e-003
3.868566e+003,8.881792e-003
3.870495e+003,8.835970e-003
3.872423e+003,8.755667e-003
3.874352e+003,8.722197e-003
3.876280e+003,8.616364e-003
3.878209e+003,8.576416e-003
3.880137e+003,8.568204e-003
3.882066e+003,8.537891e-003
3.883994e+003,8.620993e-003
3.885923e+003,8.763646e-003
3.887851e+003,8.529410e-003
3.889780e+003,8.606494e-003
3.891708e+003,8.504676e-003
3.893637e+003,8.344408e-003
3.895565e+003,8.587535e-003
3.897494e+003,8.771152e-003
3.899422e+003,8.962492e-003
3.901351e+003,8.935838e-003
3.903279e+003,8.966246e-003
3.905208e+003,8.981501e-003
3.907136e+003,8.645633e-003
3.909065e+003,8.528970e-003
3.910993e+003,8.577058e-003
3.912922e+003,8.594632e-003
3.914850e+003,8.629443e-003
3.916779e+003,8.475786e-003
3.918707e+003,8.407678e-003
3.920636e+003,8.439906e-003
3.922564e+003,8.352211e-003
3.924493e+003,8.432372e-003
3.926421e+003,8.459265e-003
3.928350e+003,8.498357e-003
3.930278e+003,8.683187e-003
3.932207e+003,8.875502e-003
3.934135e+003,9.056400e-003
3.936064e+003,9.037860e-003
3.937992e+003,8.744849e-003
3.939921e+003,8.688359e-003
3.941849e+003,8.821532e-003
3.943778e+003,8.865323e-003
3.945706e+003,8.821870e-003
3.947635e+003,8.907665e-003
3.949563e+003,8.929242e-003
3.951492e+003,8.880339e-003
3.953420e+003,8.814228e-003
3.955349e+003,8.913651e-003
3.957277e+003,8.864207e-003
3.959206e+003,8.828565e-003
3.961134e+003,8.834009e-003
3.963063e+003,8.869212e-003
3.964991e+003,8.687108e-003
3.966920e+003,8.525490e-003
3.968848e+003,8.573240e-003
3.970777e+003,8.804185e-003
3.972705e+003,8.906649e-003
3.974634e+003,8.756310e-003
3.976562e+003,8.765810e-003
3.978491e+003,8.859709e-003
3.980419e+003,8.933809e-003
3.982348e+003,8.829445e-003
3.984276e+003,8.746370e-003
3.986205e+003,8.695931e-003
3.988133e+003,8.905399e-003
3.990062e+003,9.032683e-003
3.991990e+003,8.767094e-003
3.993919e+003,8.704585e-003
3.995847e+003,8.761076e-003
3.997776e+003,8.782851e-003
3.999704e+003,8.730987e-003
4.001633e+003,0.000000e+000
