3.991989e+002,2.744698e-003
4.011274e+002,-1.005381e-003
4.030559e+002,-1.415152e-002
4.049844e+002,-1.530694e-002
4.069129e+002,-9.103939e-003
4.088414e+002,-6.586744e-003
4.107699e+002,-7.572353e-003
4.126984e+002,-5.568669e-003
4.146269e+002,-1.057491e-002
4.165554e+002,-1.375009e-002
4.184839e+002,-1.141544e-002
4.204124e+002,-7.867324e-003
4.223409e+002,-3.890483e-003
4.242694e+002,-2.868923e-003
4.261979e+002,-5.673497e-003
4.281264e+002,-7.155466e-003
4.300549e+002,-7.931747e-003
4.319834e+002,-1.604160e-002
4.339119e+002,-1.644354e-002
4.358404e+002,-8.306999e-003
4.377689e+002,-7.219310e-003
4.396974e+002,-1.098618e-002
4.416259e+002,-1.391426e-002
4.435544e+002,-1.325397e-002
4.454829e+002,-9.103647e-003
4.474114e+002,-3.515699e-003
4.493399e+002,-5.664242e-003
4.512684e+002,-1.288853e-002
4.531969e+002,-1.421162e-002
4.551254e+002,-9.067792e-003
4.570539e+002,-8.761037e-003
4.589824e+002,-1.172943e-002
4.609109e+002,-1.072290e-002
4.628394e+002,-9.799266e-003
4.647679e+002,-9.817828e-003
4.666964e+002,-9.595326e-003
4.686249e+002,-1.224565e-002
4.705533e+002,-1.343342e-002
4.724819e+002,-9.492671e-003
4.744103e+002,-8.282261e-003
4.763389e+002,-8.943103e-003
4.782673e+002,-8.806496e-003
4.801959e+002,-9.975976e-003
4.821243e+002,-7.934545e-003
4.840529e+002,-4.767240e-003
4.859813e+002,-6.352425e-003
4.879099e+002,-7.528035e-003
4.898383e+002,-8.255344e-003
4.917668e+002,-9.713866e-003
4.936953e+002,-9.936308e-003
4.956238e+002,-9.454936e-003
4.975523e+002,-1.069454e-002
4.994808e+002,-1.166014e-002
5.014093e+002,-1.101373e-002
5.033378e+002,-1.121559e-002
5.052663e+002,-1.203622e-002
5.071948e+002,-1.239397e-002
5.091233e+002,-1.233371e-002
5.110518e+002,-1.269444e-002
5.129803e+002,-1.385396e-002
5.149088e+002,-1.432590e-002
5.168373e+002,-1.354154e-002
5.187658e+002,-1.353544e-002
5.206943e+002,-1.354539e-002
5.226228e+002,-1.348035e-002
5.245513e+002,-1.348620e-002
5.264798e+002,-1.351568e-002
5.284083e+002,-1.360246e-002
5.303368e+002,-1.447424e-002
5.322653e+002,-1.452445e-002
5.341938e+002,-1.453849e-002
5.361223e+002,-1.526085e-002
5.380508e+002,-1.515943e-002
5.399792e+002,-1.355400e-002
5.419078e+002,-1.344971e-002
5.438363e+002,-1.377102e-002
5.457648e+002,-1.337325e-002
5.476932e+002,-1.348000e-002
5.496218e+002,-1.422204e-002
5.515503e+002,-1.339535e-002
5.534788e+002,-1.331120e-002
5.554072e+002,-1.289673e-002
5.573358e+002,-1.268382e-002
5.592643e+002,-1.195893e-002
5.611927e+002,-1.286122e-002
5.631212e+002,-1.351809e-002
5.650497e+002,-1.310675e-002
5.669783e+002,-1.282178e-002
5.689067e+002,-1.218680e-002
5.708352e+002,-1.224907e-002
5.727637e+002,-1.352503e-002
5.746923e+002,-1.483524e-002
5.766207e+002,-1.332797e-002
5.785492e+002,-1.076466e-002
5.804777e+002,-1.358506e-002
5.824063e+002,-1.662190e-002
5.843347e+002,-1.297762e-002
5.862632e+002,-1.116592e-002
5.881917e+002,-1.246390e-002
5.901202e+002,-1.383515e-002
5.920487e+002,-1.483053e-002
5.939772e+002,-1.485560e-002
5.959057e+002,-1.487174e-002
5.978342e+002,-1.295829e-002
5.997627e+002,-1.170259e-002
6.016912e+002,-1.135909e-002
6.036197e+002,-1.052388e-002
6.055482e+002,-9.036867e-003
6.074767e+002,-6.980963e-003
6.094052e+002,-5.583290e-003
6.113337e+002,-4.652883e-003
6.132622e+002,-5.473794e-003
6.151907e+002,-6.803226e-003
6.171192e+002,-7.506966e-003
6.190477e+002,-7.786164e-003
6.209762e+002,-7.763902e-003
6.229047e+002,-9.340671e-003
6.248332e+002,-1.350647e-002
6.267617e+002,-1.576392e-002
6.286902e+002,-1.589091e-002
6.306187e+002,-1.523471e-002
6.325472e+002,-1.445116e-002
6.344756e+002,-1.342243e-002
6.364042e+002,-1.342253e-002
6.383326e+002,-1.419328e-002
6.402612e+002,-1.439687e-002
6.421896e+002,-1.339731e-002
6.441182e+002,-1.365821e-002
6.460466e+002,-1.390059e-002
6.479752e+002,-1.398392e-002
6.499036e+002,-1.466197e-002
6.518322e+002,-1.494838e-002
6.537606e+002,-1.460808e-002
6.556891e+002,-1.447530e-002
6.576177e+002,-1.465303e-002
6.595461e+002,-1.483812e-002
6.614746e+002,-1.588852e-002
6.634031e+002,-1.640075e-002
6.653317e+002,-1.486726e-002
6.672601e+002,-1.042035e-002
6.691886e+002,-1.147499e-002
6.711171e+002,-1.470370e-002
6.730457e+002,-1.490158e-002
6.749741e+002,-1.477237e-002
6.769026e+002,-1.446828e-002
6.788311e+002,-1.435593e-002
6.807596e+002,-1.428505e-002
6.826881e+002,-1.409440e-002
6.846166e+002,-1.393370e-002
6.865451e+002,-1.408898e-002
6.884736e+002,-1.415829e-002
6.904021e+002,-1.390832e-002
6.923306e+002,-1.365027e-002
6.942591e+002,-1.311221e-002
6.961876e+002,-1.238576e-002
6.981161e+002,-1.212133e-002
7.000446e+002,-1.232131e-002
7.019731e+002,-1.275612e-002
7.039016e+002,-1.287316e-002
7.058301e+002,-1.308524e-002
7.077585e+002,-1.315613e-002
7.096871e+002,-1.280499e-002
7.116156e+002,-1.263438e-002
7.135441e+002,-1.327229e-002
7.154725e+002,-1.393842e-002
7.174011e+002,-1.413869e-002
7.193296e+002,-1.358599e-002
7.212581e+002,-1.308508e-002
7.231865e+002,-1.307193e-002
7.251151e+002,-1.321299e-002
7.270436e+002,-1.277427e-002
7.289720e+002,-1.272420e-002
7.309005e+002,-1.289844e-002
7.328290e+002,-1.277208e-002
7.347576e+002,-1.282905e-002
7.366860e+002,-1.339975e-002
7.386145e+002,-1.361460e-002
7.405430e+002,-1.282294e-002
7.424716e+002,-1.228144e-002
7.444000e+002,-1.238711e-002
7.463285e+002,-1.182133e-002
7.482570e+002,-1.170666e-002
7.501855e+002,-1.198368e-002
7.521140e+002,-1.165250e-002
7.540425e+002,-1.118853e-002
7.559710e+002,-1.084371e-002
7.578995e+002,-1.044280e-002
7.598280e+002,-1.026767e-002
7.617565e+002,-1.023136e-002
7.636850e+002,-1.016589e-002
7.656135e+002,-9.876359e-003
7.675420e+002,-9.756017e-003
7.694705e+002,-9.885655e-003
7.713990e+002,-9.956385e-003
7.733275e+002,-9.795508e-003
7.752560e+002,-1.000405e-002
7.771844e+002,-1.018479e-002
7.791130e+002,-1.052046e-002
7.810415e+002,-1.052117e-002
7.829700e+002,-1.067027e-002
7.848984e+002,-1.079556e-002
7.868270e+002,-1.099577e-002
7.887555e+002,-1.128752e-002
7.906840e+002,-1.191741e-002
7.926124e+002,-1.242958e-002
7.945410e+002,-1.260091e-002
7.964695e+002,-1.236437e-002
7.983979e+002,-1.246786e-002
8.003264e+002,-1.274843e-002
8.022549e+002,-1.258537e-002
8.041835e+002,-1.249710e-002
8.061119e+002,-1.255372e-002
8.080404e+002,-1.247405e-002
8.099689e+002,-1.219569e-002
8.118975e+002,-1.209487e-002
8.138259e+002,-1.207151e-002
8.157545e+002,-1.229542e-002
8.176830e+002,-1.214575e-002
8.196115e+002,-1.214623e-002
8.215399e+002,-1.226666e-002
8.234684e+002,-1.209806e-002
8.253970e+002,-1.164321e-002
8.273254e+002,-1.130295e-002
8.292539e+002,-1.159230e-002
8.311824e+002,-1.182004e-002
8.331110e+002,-1.153262e-002
8.350394e+002,-1.135551e-002
8.369679e+002,-1.125979e-002
8.388964e+002,-1.130144e-002
8.408250e+002,-1.119318e-002
8.427534e+002,-1.137558e-002
8.446819e+002,-1.186118e-002
8.466104e+002,-1.193856e-002
8.485389e+002,-1.204814e-002
8.504674e+002,-1.214820e-002
8.523959e+002,-1.224288e-002
8.543244e+002,-1.220055e-002
8.562529e+002,-1.219991e-002
8.581814e+002,-1.245444e-002
8.601099e+002,-1.263847e-002
8.620384e+002,-1.285916e-002
8.639669e+002,-1.286460e-002
8.658954e+002,-1.259843e-002
8.678239e+002,-1.287766e-002
8.697524e+002,-1.300791e-002
8.716809e+002,-1.283993e-002
8.736094e+002,-1.295894e-002
8.755378e+002,-1.328713e-002
8.774664e+002,-1.293729e-002
8.793949e+002,-1.265707e-002
8.813234e+002,-1.298553e-002
8.832518e+002,-1.321781e-002
8.851804e+002,-1.337643e-002
8.871089e+002,-1.327540e-002
8.890374e+002,-1.319258e-002
8.909658e+002,-1.319576e-002
8.928943e+002,-1.275451e-002
8.948229e+002,-1.245460e-002
8.967513e+002,-1.234846e-002
8.986798e+002,-1.245656e-002
9.006083e+002,-1.258829e-002
9.025369e+002,-1.263899e-002
9.044653e+002,-1.258491e-002
9.063938e+002,-1.263944e-002
9.083223e+002,-1.288039e-002
9.102509e+002,-1.293990e-002
9.121793e+002,-1.267519e-002
9.141078e+002,-1.295038e-002
9.160364e+002,-1.331586e-002
9.179648e+002,-1.310540e-002
9.198933e+002,-1.279836e-002
9.218218e+002,-1.282294e-002
9.237504e+002,-1.314131e-002
9.256788e+002,-1.322768e-002
9.276073e+002,-1.329076e-002
9.295358e+002,-1.354392e-002
9.314644e+002,-1.360265e-002
9.333928e+002,-1.333871e-002
9.353213e+002,-1.308013e-002
9.372498e+002,-1.326656e-002
9.391783e+002,-1.374768e-002
9.411068e+002,-1.371002e-002
9.430353e+002,-1.335834e-002
9.449637e+002,-1.338414e-002
9.468923e+002,-1.348000e-002
9.488208e+002,-1.362433e-002
9.507493e+002,-1.362992e-002
9.526777e+002,-1.365525e-002
9.546063e+002,-1.353618e-002
9.565348e+002,-1.354472e-002
9.584633e+002,-1.371208e-002
9.603917e+002,-1.370351e-002
9.623203e+002,-1.343676e-002
9.642488e+002,-1.327585e-002
9.661772e+002,-1.316899e-002
9.681057e+002,-1.336689e-002
9.700343e+002,-1.370094e-002
9.719628e+002,-1.374614e-002
9.738912e+002,-1.384930e-002
9.758197e+002,-1.401019e-002
9.777483e+002,-1.386901e-002
9.796768e+002,-1.379740e-002
9.816052e+002,-1.403069e-002
9.835337e+002,-1.417741e-002
9.854623e+002,-1.410778e-002
9.873907e+002,-1.404818e-002
9.893192e+002,-1.407730e-002
9.912477e+002,-1.422204e-002
9.931763e+002,-1.418876e-002
9.951047e+002,-1.426196e-002
9.970332e+002,-1.453231e-002
9.989617e+002,-1.438478e-002
1.000890e+003,-1.406617e-002
1.002819e+003,-1.378200e-002
1.004747e+003,-1.378806e-002
1.006676e+003,-1.374152e-002
1.008604e+003,-1.360217e-002
1.010533e+003,-1.328058e-002
1.012461e+003,-1.282223e-002
1.014390e+003,-1.263899e-002
1.016318e+003,-1.238888e-002
1.018247e+003,-1.204250e-002
1.020175e+003,-1.167279e-002
1.022104e+003,-1.139421e-002
1.024032e+003,-1.108625e-002
1.025961e+003,-1.067043e-002
1.027889e+003,-1.034076e-002
1.029818e+003,-9.951981e-003
1.031746e+003,-9.457399e-003
1.033675e+003,-9.026709e-003
1.035603e+003,-8.723627e-003
1.037532e+003,-8.316491e-003
1.039460e+003,-7.917041e-003
1.041389e+003,-7.769663e-003
1.043317e+003,-7.451046e-003
1.045246e+003,-6.962671e-003
1.047174e+003,-6.768518e-003
1.049103e+003,-6.823808e-003
1.051031e+003,-6.868198e-003
1.052960e+003,-6.814055e-003
1.054888e+003,-6.866372e-003
1.056817e+003,-6.797387e-003
1.058745e+003,-6.712274e-003
1.060674e+003,-6.560537e-003
1.062602e+003,-6.452625e-003
1.064531e+003,-6.598069e-003
1.066459e+003,-6.577574e-003
1.068388e+003,-6.421186e-003
1.070316e+003,-6.306055e-003
1.072245e+003,-6.307525e-003
1.074173e+003,-6.491733e-003
1.076102e+003,-6.495911e-003
1.078030e+003,-6.466793e-003
1.079959e+003,-6.734851e-003
1.081887e+003,-6.789493e-003
1.083816e+003,-6.567620e-003
1.085744e+003,-6.529237e-003
1.087673e+003,-6.536777e-003
1.089601e+003,-6.434311e-003
1.091530e+003,-6.418509e-003
1.093458e+003,-6.492973e-003
1.095387e+003,-6.531163e-003
1.097315e+003,-6.494964e-003
1.099244e+003,-6.525777e-003
1.101172e+003,-6.480210e-003
1.103101e+003,-6.504039e-003
1.105029e+003,-6.495911e-003
1.106958e+003,-6.430981e-003
1.108886e+003,-6.277970e-003
1.110815e+003,-6.376065e-003
1.112743e+003,-6.721572e-003
1.114672e+003,-6.745258e-003
1.116600e+003,-6.332931e-003
1.118529e+003,-6.166263e-003
1.120457e+003,-6.381779e-003
1.122386e+003,-6.469568e-003
1.124314e+003,-6.422721e-003
1.126243e+003,-6.650085e-003
1.128171e+003,-6.896115e-003
1.130100e+003,-6.933780e-003
1.132028e+003,-6.960062e-003
1.133957e+003,-7.135813e-003
1.135885e+003,-7.296146e-003
1.137814e+003,-7.572484e-003
1.139742e+003,-8.060238e-003
1.141671e+003,-8.388972e-003
1.143599e+003,-8.663154e-003
1.145528e+003,-9.033005e-003
1.147456e+003,-9.321116e-003
1.149385e+003,-9.402249e-003
1.151313e+003,-9.535299e-003
1.153242e+003,-9.947545e-003
1.155170e+003,-1.017874e-002
1.157099e+003,-1.029236e-002
1.159027e+003,-1.041776e-002
1.160956e+003,-1.070476e-002
1.162884e+003,-1.079759e-002
1.164813e+003,-1.076052e-002
1.166741e+003,-1.072018e-002
1.168670e+003,-1.072005e-002
1.170598e+003,-1.073589e-002
1.172526e+003,-1.065022e-002
1.174455e+003,-1.070324e-002
1.176384e+003,-1.065940e-002
1.178312e+003,-1.066920e-002
1.180240e+003,-1.082720e-002
1.182169e+003,-1.097458e-002
1.184098e+003,-1.119712e-002
1.186026e+003,-1.132081e-002
1.187954e+003,-1.136519e-002
1.189883e+003,-1.130660e-002
1.191812e+003,-1.135189e-002
1.193740e+003,-1.146986e-002
1.195668e+003,-1.175397e-002
1.197597e+003,-1.199316e-002
1.199526e+003,-1.200831e-002
1.201454e+003,-1.198446e-002
1.203382e+003,-1.198655e-002
1.205311e+003,-1.196380e-002
1.207240e+003,-1.193117e-002
1.209168e+003,-1.192466e-002
1.211096e+003,-1.189188e-002
1.213025e+003,-1.165927e-002
1.214953e+003,-1.167276e-002
1.216882e+003,-1.180440e-002
1.218810e+003,-1.184658e-002
1.220739e+003,-1.185793e-002
1.222667e+003,-1.179560e-002
1.224596e+003,-1.162279e-002
1.226524e+003,-1.152268e-002
1.228453e+003,-1.139298e-002
1.230381e+003,-1.149428e-002
1.232310e+003,-1.158459e-002
1.234238e+003,-1.151229e-002
1.236167e+003,-1.141816e-002
1.238095e+003,-1.124116e-002
1.240024e+003,-1.114193e-002
1.241952e+003,-1.123551e-002
1.243881e+003,-1.151990e-002
1.245809e+003,-1.168953e-002
1.247738e+003,-1.172807e-002
1.249666e+003,-1.171836e-002
1.251595e+003,-1.187740e-002
1.253523e+003,-1.209242e-002
1.255452e+003,-1.218828e-002
1.257380e+003,-1.233210e-002
1.259309e+003,-1.243827e-002
1.261237e+003,-1.243557e-002
1.263166e+003,-1.225854e-002
1.265094e+003,-1.200364e-002
1.267023e+003,-1.185828e-002
1.268951e+003,-1.169327e-002
1.270880e+003,-1.145662e-002
1.272808e+003,-1.154239e-002
1.274737e+003,-1.162340e-002
1.276665e+003,-1.149364e-002
1.278594e+003,-1.128097e-002
1.280522e+003,-1.123674e-002
1.282451e+003,-1.122543e-002
1.284379e+003,-1.108383e-002
1.286308e+003,-1.098149e-002
1.288236e+003,-1.080997e-002
1.290165e+003,-1.066525e-002
1.292093e+003,-1.060059e-002
1.294022e+003,-1.054199e-002
1.295950e+003,-1.052191e-002
1.297879e+003,-1.054720e-002
1.299807e+003,-1.059700e-002
1.301736e+003,-1.062565e-002
1.303664e+003,-1.079142e-002
1.305593e+003,-1.096072e-002
1.307521e+003,-1.103363e-002
1.309450e+003,-1.117432e-002
1.311378e+003,-1.150412e-002
1.313307e+003,-1.183868e-002
1.315235e+003,-1.203174e-002
1.317164e+003,-1.201124e-002
1.319092e+003,-1.215777e-002
1.321021e+003,-1.240382e-002
1.322949e+003,-1.255730e-002
1.324878e+003,-1.263570e-002
1.326806e+003,-1.273617e-002
1.328735e+003,-1.268703e-002
1.330663e+003,-1.256972e-002
1.332592e+003,-1.249085e-002
1.334520e+003,-1.248190e-002
1.336449e+003,-1.253763e-002
1.338377e+003,-1.250473e-002
1.340306e+003,-1.256093e-002
1.342234e+003,-1.269666e-002
1.344163e+003,-1.276506e-002
1.346091e+003,-1.275120e-002
1.348020e+003,-1.259106e-002
1.349948e+003,-1.261247e-002
1.351877e+003,-1.268819e-002
1.353805e+003,-1.272848e-002
1.355734e+003,-1.279534e-002
1.357662e+003,-1.287354e-002
1.359591e+003,-1.295768e-002
1.361519e+003,-1.296707e-002
1.363448e+003,-1.299637e-002
1.365376e+003,-1.329517e-002
1.367305e+003,-1.347730e-002
1.369233e+003,-1.358669e-002
1.371162e+003,-1.362118e-002
1.373090e+003,-1.350271e-002
1.375019e+003,-1.363232e-002
1.376947e+003,-1.375343e-002
1.378876e+003,-1.375641e-002
1.380804e+003,-1.383033e-002
1.382733e+003,-1.388377e-002
1.384661e+003,-1.381429e-002
1.386590e+003,-1.365149e-002
1.388518e+003,-1.377333e-002
1.390447e+003,-1.419322e-002
1.392375e+003,-1.428656e-002
1.394304e+003,-1.415685e-002
1.396232e+003,-1.438090e-002
1.398161e+003,-1.451821e-002
1.400089e+003,-1.456332e-002
1.402018e+003,-1.471674e-002
1.403946e+003,-1.482012e-002
1.405875e+003,-1.485669e-002
1.407803e+003,-1.496334e-002
1.409732e+003,-1.497294e-002
1.411660e+003,-1.488416e-002
1.413589e+003,-1.472843e-002
1.415517e+003,-1.446764e-002
1.417446e+003,-1.409716e-002
1.419374e+003,-1.360195e-002
1.421303e+003,-1.358130e-002
1.423231e+003,-1.331560e-002
1.425160e+003,-1.283677e-002
1.427088e+003,-1.266914e-002
1.429017e+003,-1.234821e-002
1.430945e+003,-1.196538e-002
1.432874e+003,-1.153300e-002
1.434802e+003,-1.091610e-002
1.436731e+003,-1.035943e-002
1.438659e+003,-1.032879e-002
1.440588e+003,-1.010438e-002
1.442516e+003,-9.655085e-003
1.444445e+003,-9.350496e-003
1.446373e+003,-8.990978e-003
1.448302e+003,-8.608878e-003
1.450230e+003,-8.467616e-003
1.452159e+003,-8.288340e-003
1.454087e+003,-7.817341e-003
1.456016e+003,-6.850358e-003
1.457944e+003,-6.427063e-003
1.459873e+003,-6.998211e-003
1.461801e+003,-7.412090e-003
1.463730e+003,-7.388799e-003
1.465658e+003,-7.445932e-003
1.467587e+003,-7.953056e-003
1.469515e+003,-8.302643e-003
1.471444e+003,-8.213826e-003
1.473372e+003,-8.333263e-003
1.475301e+003,-8.872792e-003
1.477229e+003,-9.458080e-003
1.479158e+003,-1.003290e-002
1.481086e+003,-1.041139e-002
1.483015e+003,-1.092337e-002
1.484943e+003,-1.124035e-002
1.486872e+003,-1.134553e-002
1.488800e+003,-1.148906e-002
1.490729e+003,-1.162240e-002
1.492657e+003,-1.213054e-002
1.494586e+003,-1.234972e-002
1.496514e+003,-1.231349e-002
1.498443e+003,-1.259805e-002
1.500371e+003,-1.303502e-002
1.502300e+003,-1.332685e-002
1.504228e+003,-1.303733e-002
1.506157e+003,-1.225445e-002
1.508085e+003,-1.258833e-002
1.510014e+003,-1.328289e-002
1.511942e+003,-1.352041e-002
1.513871e+003,-1.363554e-002
1.515799e+003,-1.351870e-002
1.517728e+003,-1.338202e-002
1.519656e+003,-1.326335e-002
1.521585e+003,-1.300872e-002
1.523513e+003,-1.326007e-002
1.525442e+003,-1.328389e-002
1.527370e+003,-1.346693e-002
1.529299e+003,-1.359379e-002
1.531227e+003,-1.354761e-002
1.533156e+003,-1.313584e-002
1.535084e+003,-1.310935e-002
1.537013e+003,-1.315995e-002
1.538941e+003,-1.244166e-002
1.540870e+003,-1.208591e-002
1.542798e+003,-1.249980e-002
1.544727e+003,-1.284675e-002
1.546655e+003,-1.318560e-002
1.548584e+003,-1.310218e-002
1.550512e+003,-1.298733e-002
1.552441e+003,-1.298495e-002
1.554369e+003,-1.277996e-002
1.556298e+003,-1.251046e-002
1.558226e+003,-1.151606e-002
1.560155e+003,-1.128268e-002
1.562083e+003,-1.199055e-002
1.564012e+003,-1.197182e-002
1.565940e+003,-1.174878e-002
1.567869e+003,-1.143671e-002
1.569797e+003,-1.096976e-002
1.571726e+003,-1.121927e-002
1.573654e+003,-1.126457e-002
1.575583e+003,-1.061756e-002
1.577511e+003,-1.049361e-002
1.579440e+003,-1.093532e-002
1.581368e+003,-1.095548e-002
1.583297e+003,-1.092253e-002
1.585225e+003,-1.088873e-002
1.587154e+003,-1.097325e-002
1.589082e+003,-1.108318e-002
1.591010e+003,-1.128339e-002
1.592939e+003,-1.142713e-002
1.594868e+003,-1.140370e-002
1.596796e+003,-1.149370e-002
1.598724e+003,-1.165998e-002
1.600653e+003,-1.183194e-002
1.602582e+003,-1.194649e-002
1.604510e+003,-1.217668e-002
1.606438e+003,-1.241242e-002
1.608367e+003,-1.256312e-002
1.610296e+003,-1.282671e-002
1.612224e+003,-1.305029e-002
1.614152e+003,-1.315111e-002
1.616081e+003,-1.296222e-002
1.618010e+003,-1.313231e-002
1.619938e+003,-1.358891e-002
1.621866e+003,-1.355400e-002
1.623795e+003,-1.370164e-002
1.625724e+003,-1.407807e-002
1.627652e+003,-1.423856e-002
1.629580e+003,-1.441103e-002
1.631509e+003,-1.475992e-002
1.633438e+003,-1.467856e-002
1.635366e+003,-1.420835e-002
1.637294e+003,-1.457249e-002
1.639223e+003,-1.530445e-002
1.641151e+003,-1.565801e-002
1.643080e+003,-1.591116e-002
1.645008e+003,-1.572819e-002
1.646937e+003,-1.550860e-002
1.648865e+003,-1.611606e-002
1.650794e+003,-1.642538e-002
1.652722e+003,-1.549313e-002
1.654651e+003,-1.598367e-002
1.656579e+003,-1.698622e-002
1.658508e+003,-1.724206e-002
1.660436e+003,-1.719235e-002
1.662365e+003,-1.696847e-002
1.664293e+003,-1.711078e-002
1.666222e+003,-1.734558e-002
1.668150e+003,-1.704028e-002
1.670079e+003,-1.672617e-002
1.672007e+003,-1.691079e-002
1.673936e+003,-1.691289e-002
1.675864e+003,-1.678939e-002
1.677793e+003,-1.711754e-002
1.679721e+003,-1.718815e-002
1.681650e+003,-1.706727e-002
1.683578e+003,-1.629787e-002
1.685507e+003,-1.617547e-002
1.687435e+003,-1.675556e-002
1.689364e+003,-1.691582e-002
1.691292e+003,-1.694266e-002
1.693221e+003,-1.683420e-002
1.695149e+003,-1.619555e-002
1.697078e+003,-1.596511e-002
1.699006e+003,-1.578251e-002
1.700935e+003,-1.535885e-002
1.702863e+003,-1.590177e-002
1.704792e+003,-1.590851e-002
1.706720e+003,-1.592615e-002
1.708649e+003,-1.599916e-002
1.710577e+003,-1.606053e-002
1.712506e+003,-1.598660e-002
1.714434e+003,-1.568476e-002
1.716363e+003,-1.527070e-002
1.718291e+003,-1.514519e-002
1.720220e+003,-1.561704e-002
1.722148e+003,-1.585622e-002
1.724077e+003,-1.585820e-002
1.726005e+003,-1.591535e-002
1.727934e+003,-1.581756e-002
1.729862e+003,-1.573803e-002
1.731791e+003,-1.557842e-002
1.733719e+003,-1.517491e-002
1.735648e+003,-1.542588e-002
1.737576e+003,-1.583149e-002
1.739505e+003,-1.563957e-002
1.741433e+003,-1.567182e-002
1.743362e+003,-1.566130e-002
1.745290e+003,-1.558424e-002
1.747219e+003,-1.541926e-002
1.749147e+003,-1.521216e-002
1.751076e+003,-1.500520e-002
1.753004e+003,-1.518733e-002
1.754933e+003,-1.540264e-002
1.756861e+003,-1.527160e-002
1.758790e+003,-1.532047e-002
1.760718e+003,-1.516039e-002
1.762647e+003,-1.503945e-002
1.764575e+003,-1.533272e-002
1.766504e+003,-1.532453e-002
1.768432e+003,-1.513908e-002
1.770361e+003,-1.509092e-002
1.772289e+003,-1.482211e-002
1.774218e+003,-1.492633e-002
1.776146e+003,-1.530982e-002
1.778075e+003,-1.546448e-002
1.780003e+003,-1.540257e-002
1.781932e+003,-1.538178e-002
1.783860e+003,-1.540983e-002
1.785789e+003,-1.533621e-002
1.787717e+003,-1.536247e-002
1.789646e+003,-1.533308e-002
1.791574e+003,-1.511536e-002
1.793503e+003,-1.504441e-002
1.795431e+003,-1.532649e-002
1.797360e+003,-1.537424e-002
1.799288e+003,-1.531289e-002
1.801217e+003,-1.532134e-002
1.803145e+003,-1.546800e-002
1.805074e+003,-1.545342e-002
1.807002e+003,-1.540782e-002
1.808931e+003,-1.538514e-002
1.810859e+003,-1.540190e-002
1.812788e+003,-1.540225e-002
1.814716e+003,-1.546493e-002
1.816645e+003,-1.548152e-002
1.818573e+003,-1.545470e-002
1.820502e+003,-1.544481e-002
1.822430e+003,-1.546848e-002
1.824359e+003,-1.530608e-002
1.826287e+003,-1.529699e-002
1.828216e+003,-1.538559e-002
1.830144e+003,-1.529939e-002
1.832073e+003,-1.551174e-002
1.834001e+003,-1.561358e-002
1.835930e+003,-1.559092e-002
1.837858e+003,-1.570573e-002
1.839787e+003,-1.571746e-002
1.841715e+003,-1.567946e-002
1.843644e+003,-1.536941e-002
1.845572e+003,-1.537996e-002
1.847501e+003,-1.558667e-002
1.849429e+003,-1.562528e-002
1.851358e+003,-1.554371e-002
1.853286e+003,-1.548203e-002
1.855215e+003,-1.550745e-002
1.857143e+003,-1.548497e-002
1.859072e+003,-1.551394e-002
1.861000e+003,-1.558328e-002
1.862929e+003,-1.560790e-002
1.864857e+003,-1.553258e-002
1.866786e+003,-1.549476e-002
1.868714e+003,-1.534376e-002
1.870643e+003,-1.543286e-002
1.872571e+003,-1.568173e-002
1.874500e+003,-1.568230e-002
1.876428e+003,-1.568281e-002
1.878357e+003,-1.563353e-002
1.880285e+003,-1.557935e-002
1.882214e+003,-1.564002e-002
1.884142e+003,-1.575321e-002
1.886071e+003,-1.581140e-002
1.887999e+003,-1.570928e-002
1.889928e+003,-1.564008e-002
1.891856e+003,-1.581862e-002
1.893785e+003,-1.576830e-002
1.895713e+003,-1.571666e-002
1.897642e+003,-1.577513e-002
1.899570e+003,-1.573414e-002
1.901499e+003,-1.568991e-002
1.903427e+003,-1.572832e-002
1.905356e+003,-1.570359e-002
1.907284e+003,-1.570119e-002
1.909213e+003,-1.568115e-002
1.911141e+003,-1.569895e-002
1.913070e+003,-1.569230e-002
1.914998e+003,-1.569480e-002
1.916927e+003,-1.561371e-002
1.918855e+003,-1.546109e-002
1.920784e+003,-1.552590e-002
1.922712e+003,-1.563791e-002
1.924641e+003,-1.571857e-002
1.926569e+003,-1.564916e-002
1.928498e+003,-1.569071e-002
1.930426e+003,-1.571199e-002
1.932355e+003,-1.576216e-002
1.934283e+003,-1.577398e-002
1.936212e+003,-1.575970e-002
1.938140e+003,-1.581587e-002
1.940069e+003,-1.580894e-002
1.941997e+003,-1.564152e-002
1.943926e+003,-1.566405e-002
1.945854e+003,-1.579667e-002
1.947783e+003,-1.584619e-002
1.949711e+003,-1.590302e-002
1.951640e+003,-1.593493e-002
1.953568e+003,-1.588356e-002
1.955497e+003,-1.585555e-002
1.957425e+003,-1.594828e-002
1.959354e+003,-1.595004e-002
1.961282e+003,-1.594489e-002
1.963211e+003,-1.594330e-002
1.965139e+003,-1.594237e-002
1.967068e+003,-1.592924e-002
1.968996e+003,-1.605756e-002
1.970925e+003,-1.600062e-002
1.972853e+003,-1.589842e-002
1.974782e+003,-1.593653e-002
1.976710e+003,-1.596003e-002
1.978639e+003,-1.587174e-002
1.980567e+003,-1.591819e-002
1.982496e+003,-1.605073e-002
1.984424e+003,-1.600085e-002
1.986353e+003,-1.595387e-002
1.988281e+003,-1.601535e-002
1.990210e+003,-1.595812e-002
1.992138e+003,-1.584133e-002
1.994067e+003,-1.582871e-002
1.995995e+003,-1.592413e-002
1.997924e+003,-1.600912e-002
1.999852e+003,-1.602189e-002
2.001781e+003,-1.601052e-002
2.003709e+003,-1.597948e-002
2.005638e+003,-1.598127e-002
2.007566e+003,-1.589759e-002
2.009495e+003,-1.584437e-002
2.011423e+003,-1.595323e-002
2.013352e+003,-1.595109e-002
2.015280e+003,-1.590212e-002
2.017208e+003,-1.587277e-002
2.019137e+003,-1.587219e-002
2.021066e+003,-1.590407e-002
2.022994e+003,-1.595777e-002
2.024922e+003,-1.599331e-002
2.026851e+003,-1.596192e-002
2.028780e+003,-1.590573e-002
2.030708e+003,-1.588012e-002
2.032636e+003,-1.586149e-002
2.034565e+003,-1.589340e-002
2.036494e+003,-1.595479e-002
2.038422e+003,-1.598523e-002
2.040350e+003,-1.594425e-002
2.042279e+003,-1.589110e-002
2.044208e+003,-1.594968e-002
2.046136e+003,-1.598143e-002
2.048064e+003,-1.599813e-002
2.049993e+003,-1.595844e-002
2.051921e+003,-1.600478e-002
2.053850e+003,-1.599839e-002
2.055778e+003,-1.594071e-002
2.057707e+003,-1.589513e-002
2.059635e+003,-1.591682e-002
2.061564e+003,-1.589970e-002
2.063492e+003,-1.596901e-002
2.065421e+003,-1.600896e-002
2.067349e+003,-1.591225e-002
2.069278e+003,-1.594544e-002
2.071206e+003,-1.595182e-002
2.073135e+003,-1.592538e-002
2.075063e+003,-1.590343e-002
2.076992e+003,-1.586775e-002
2.078920e+003,-1.586191e-002
2.080849e+003,-1.595489e-002
2.082777e+003,-1.600973e-002
2.084706e+003,-1.597044e-002
2.086634e+003,-1.604281e-002
2.088563e+003,-1.607669e-002
2.090491e+003,-1.598019e-002
2.092420e+003,-1.592624e-002
2.094348e+003,-1.591305e-002
2.096277e+003,-1.600359e-002
2.098205e+003,-1.603671e-002
2.100134e+003,-1.595639e-002
2.102062e+003,-1.592068e-002
2.103991e+003,-1.599357e-002
2.105919e+003,-1.594585e-002
2.107848e+003,-1.587060e-002
2.109776e+003,-1.592046e-002
2.111705e+003,-1.598172e-002
2.113633e+003,-1.595997e-002
2.115562e+003,-1.582162e-002
2.117490e+003,-1.580031e-002
2.119419e+003,-1.584827e-002
2.121347e+003,-1.586005e-002
2.123276e+003,-1.586718e-002
2.125204e+003,-1.583584e-002
2.127133e+003,-1.582622e-002
2.129061e+003,-1.570803e-002
2.130990e+003,-1.562528e-002
2.132918e+003,-1.574315e-002
2.134847e+003,-1.580204e-002
2.136775e+003,-1.573219e-002
2.138704e+003,-1.574014e-002
2.140632e+003,-1.570579e-002
2.142561e+003,-1.563631e-002
2.144489e+003,-1.565795e-002
2.146418e+003,-1.569675e-002
2.148346e+003,-1.566479e-002
2.150275e+003,-1.561314e-002
2.152203e+003,-1.556110e-002
2.154132e+003,-1.561953e-002
2.156060e+003,-1.571723e-002
2.157989e+003,-1.570614e-002
2.159917e+003,-1.567543e-002
2.161846e+003,-1.570937e-002
2.163774e+003,-1.564488e-002
2.165703e+003,-1.554029e-002
2.167631e+003,-1.550700e-002
2.169560e+003,-1.545559e-002
2.171488e+003,-1.548002e-002
2.173417e+003,-1.553044e-002
2.175345e+003,-1.549850e-002
2.177274e+003,-1.546573e-002
2.179202e+003,-1.544366e-002
2.181131e+003,-1.548872e-002
2.183059e+003,-1.553364e-002
2.184988e+003,-1.544507e-002
2.186916e+003,-1.540168e-002
2.188845e+003,-1.546346e-002
2.190773e+003,-1.555071e-002
2.192702e+003,-1.559645e-002
2.194630e+003,-1.556704e-002
2.196559e+003,-1.551385e-002
2.198487e+003,-1.551180e-002
2.200416e+003,-1.557945e-002
2.202344e+003,-1.559537e-002
2.204273e+003,-1.557651e-002
2.206201e+003,-1.561899e-002
2.208130e+003,-1.560505e-002
2.210058e+003,-1.562039e-002
2.211987e+003,-1.570624e-002
2.213915e+003,-1.566255e-002
2.215844e+003,-1.557120e-002
2.217772e+003,-1.558402e-002
2.219701e+003,-1.560105e-002
2.221629e+003,-1.566763e-002
2.223558e+003,-1.574737e-002
2.225486e+003,-1.573359e-002
2.227415e+003,-1.576206e-002
2.229343e+003,-1.575101e-002
2.231272e+003,-1.571877e-002
2.233200e+003,-1.572238e-002
2.235129e+003,-1.576254e-002
2.237057e+003,-1.585759e-002
2.238986e+003,-1.587133e-002
2.240914e+003,-1.582855e-002
2.242843e+003,-1.578034e-002
2.244771e+003,-1.578542e-002
2.246700e+003,-1.583229e-002
2.248628e+003,-1.589947e-002
2.250557e+003,-1.601056e-002
2.252485e+003,-1.602368e-002
2.254414e+003,-1.592934e-002
2.256342e+003,-1.591136e-002
2.258271e+003,-1.594898e-002
2.260199e+003,-1.584018e-002
2.262128e+003,-1.578433e-002
2.264056e+003,-1.582577e-002
2.265985e+003,-1.588967e-002
2.267913e+003,-1.589954e-002
2.269842e+003,-1.586798e-002
2.271770e+003,-1.591755e-002
2.273699e+003,-1.595572e-002
2.275627e+003,-1.595125e-002
2.277556e+003,-1.598376e-002
2.279484e+003,-1.608157e-002
2.281413e+003,-1.608786e-002
2.283341e+003,-1.605095e-002
2.285270e+003,-1.602732e-002
2.287198e+003,-1.598284e-002
2.289127e+003,-1.586638e-002
2.291055e+003,-1.587881e-002
2.292984e+003,-1.592873e-002
2.294912e+003,-1.592605e-002
2.296841e+003,-1.578986e-002
2.298769e+003,-1.560860e-002
2.300698e+003,-1.552005e-002
2.302626e+003,-1.534091e-002
2.304555e+003,-1.518013e-002
2.306483e+003,-1.492268e-002
2.308412e+003,-1.466873e-002
2.310340e+003,-1.438610e-002
2.312269e+003,-1.392998e-002
2.314197e+003,-1.342671e-002
2.316125e+003,-1.278218e-002
2.318054e+003,-1.216582e-002
2.319983e+003,-1.160353e-002
2.321911e+003,-1.090233e-002
2.323840e+003,-1.035206e-002
2.325768e+003,-9.987116e-003
2.327697e+003,-9.437104e-003
2.329625e+003,-8.741553e-003
2.331553e+003,-8.380880e-003
2.333482e+003,-8.231252e-003
2.335411e+003,-8.113576e-003
2.337339e+003,-8.010278e-003
2.339268e+003,-7.889743e-003
2.341196e+003,-8.072110e-003
2.343125e+003,-8.643049e-003
2.345053e+003,-9.805097e-003
2.346981e+003,-1.171078e-002
2.348910e+003,-1.290648e-002
2.350839e+003,-1.172036e-002
2.352767e+003,-9.422676e-003
2.354696e+003,-7.546890e-003
2.356624e+003,-6.386709e-003
2.358552e+003,-5.733211e-003
2.360481e+003,-5.440288e-003
2.362409e+003,-5.512695e-003
2.364338e+003,-5.932632e-003
2.366267e+003,-6.599537e-003
2.368195e+003,-7.494329e-003
2.370124e+003,-8.687773e-003
2.372052e+003,-1.006706e-002
2.373980e+003,-1.142674e-002
2.375909e+003,-1.282938e-002
2.377838e+003,-1.407339e-002
2.379766e+003,-1.505251e-002
2.381695e+003,-1.575145e-002
2.383623e+003,-1.600672e-002
2.385552e+003,-1.618259e-002
2.387480e+003,-1.630592e-002
2.389408e+003,-1.623775e-002
2.391337e+003,-1.617512e-002
2.393266e+003,-1.622549e-002
2.395194e+003,-1.618824e-002
2.397123e+003,-1.607244e-002
2.399051e+003,-1.603032e-002
2.400979e+003,-1.602403e-002
2.402908e+003,-1.606197e-002
2.404836e+003,-1.607927e-002
2.406765e+003,-1.609655e-002
2.408694e+003,-1.617167e-002
2.410622e+003,-1.611366e-002
2.412551e+003,-1.602339e-002
2.414479e+003,-1.599076e-002
2.416407e+003,-1.593477e-002
2.418336e+003,-1.590701e-002
2.420264e+003,-1.598338e-002
2.422193e+003,-1.603403e-002
2.424122e+003,-1.595713e-002
2.426050e+003,-1.592432e-002
2.427979e+003,-1.594978e-002
2.429907e+003,-1.591669e-002
2.431835e+003,-1.591056e-002
2.433764e+003,-1.590133e-002
2.435692e+003,-1.590688e-002
2.437621e+003,-1.593962e-002
2.439550e+003,-1.600024e-002
2.441478e+003,-1.602039e-002
2.443406e+003,-1.594007e-002
2.445335e+003,-1.588475e-002
2.447263e+003,-1.586095e-002
2.449192e+003,-1.589200e-002
2.451121e+003,-1.591107e-002
2.453049e+003,-1.585680e-002
2.454978e+003,-1.586798e-002
2.456906e+003,-1.582002e-002
2.458834e+003,-1.576635e-002
2.460763e+003,-1.580044e-002
2.462691e+003,-1.598756e-002
2.464620e+003,-1.601851e-002
2.466549e+003,-1.586066e-002
2.468477e+003,-1.580271e-002
2.470406e+003,-1.588880e-002
2.472334e+003,-1.598034e-002
2.474262e+003,-1.595448e-002
2.476191e+003,-1.591570e-002
2.478119e+003,-1.587778e-002
2.480048e+003,-1.583379e-002
2.481977e+003,-1.574807e-002
2.483905e+003,-1.576331e-002
2.485833e+003,-1.585849e-002
2.487762e+003,-1.581462e-002
2.489690e+003,-1.584628e-002
2.491619e+003,-1.584309e-002
2.493547e+003,-1.570589e-002
2.495476e+003,-1.559952e-002
2.497405e+003,-1.564686e-002
2.499333e+003,-1.570519e-002
2.501261e+003,-1.568691e-002
2.503190e+003,-1.569116e-002
2.505118e+003,-1.570991e-002
2.507047e+003,-1.569825e-002
2.508975e+003,-1.568630e-002
2.510904e+003,-1.568630e-002
2.512833e+003,-1.563532e-002
2.514761e+003,-1.564731e-002
2.516689e+003,-1.570394e-002
2.518618e+003,-1.569646e-002
2.520546e+003,-1.567511e-002
2.522475e+003,-1.574692e-002
2.524403e+003,-1.583015e-002
2.526332e+003,-1.578143e-002
2.528260e+003,-1.567962e-002
2.530189e+003,-1.565734e-002
2.532117e+003,-1.571940e-002
2.534046e+003,-1.578890e-002
2.535974e+003,-1.576290e-002
2.537903e+003,-1.577328e-002
2.539831e+003,-1.571311e-002
2.541760e+003,-1.565494e-002
2.543688e+003,-1.563068e-002
2.545617e+003,-1.566683e-002
2.547545e+003,-1.561969e-002
2.549474e+003,-1.555732e-002
2.551402e+003,-1.561825e-002
2.553331e+003,-1.562787e-002
2.555259e+003,-1.557804e-002
2.557188e+003,-1.552619e-002
2.559116e+003,-1.558638e-002
2.561045e+003,-1.563628e-002
2.562973e+003,-1.571177e-002
2.564902e+003,-1.566354e-002
2.566830e+003,-1.559361e-002
2.568759e+003,-1.565491e-002
2.570687e+003,-1.563768e-002
2.572616e+003,-1.556474e-002
2.574544e+003,-1.554003e-002
2.576473e+003,-1.554773e-002
2.578401e+003,-1.561096e-002
2.580330e+003,-1.570298e-002
2.582258e+003,-1.566782e-002
2.584187e+003,-1.552513e-002
2.586115e+003,-1.547919e-002
2.588044e+003,-1.561096e-002
2.589972e+003,-1.563148e-002
2.591901e+003,-1.558984e-002
2.593829e+003,-1.569956e-002
2.595758e+003,-1.575817e-002
2.597686e+003,-1.573276e-002
2.599615e+003,-1.569515e-002
2.601543e+003,-1.556257e-002
2.603472e+003,-1.558907e-002
2.605400e+003,-1.564977e-002
2.607329e+003,-1.560502e-002
2.609257e+003,-1.556295e-002
2.611186e+003,-1.551199e-002
2.613114e+003,-1.548338e-002
2.615043e+003,-1.546020e-002
2.616971e+003,-1.551055e-002
2.618900e+003,-1.547247e-002
2.620828e+003,-1.538450e-002
2.622757e+003,-1.530435e-002
2.624685e+003,-1.525774e-002
2.626614e+003,-1.530598e-002
2.628542e+003,-1.538354e-002
2.630471e+003,-1.537401e-002
2.632399e+003,-1.535322e-002
2.634328e+003,-1.534411e-002
2.636256e+003,-1.532188e-002
2.638185e+003,-1.523042e-002
2.640113e+003,-1.514887e-002
2.642042e+003,-1.518547e-002
2.643970e+003,-1.509146e-002
2.645899e+003,-1.508682e-002
2.647827e+003,-1.505053e-002
2.649756e+003,-1.487619e-002
2.651684e+003,-1.486505e-002
2.653613e+003,-1.499602e-002
2.655541e+003,-1.495424e-002
2.657470e+003,-1.498965e-002
2.659398e+003,-1.501260e-002
2.661327e+003,-1.494377e-002
2.663255e+003,-1.488515e-002
2.665184e+003,-1.488416e-002
2.667112e+003,-1.472558e-002
2.669041e+003,-1.457377e-002
2.670969e+003,-1.454765e-002
2.672898e+003,-1.466142e-002
2.674826e+003,-1.469941e-002
2.676755e+003,-1.465127e-002
2.678683e+003,-1.466818e-002
2.680612e+003,-1.468276e-002
2.682540e+003,-1.460222e-002
2.684469e+003,-1.449577e-002
2.686397e+003,-1.438959e-002
2.688326e+003,-1.433997e-002
2.690254e+003,-1.423497e-002
2.692183e+003,-1.423211e-002
2.694111e+003,-1.432820e-002
2.696040e+003,-1.438090e-002
2.697968e+003,-1.433740e-002
2.699897e+003,-1.421557e-002
2.701825e+003,-1.413975e-002
2.703754e+003,-1.410242e-002
2.705682e+003,-1.400920e-002
2.707611e+003,-1.400326e-002
2.709539e+003,-1.400253e-002
2.711468e+003,-1.399611e-002
2.713396e+003,-1.388791e-002
2.715325e+003,-1.375150e-002
2.717253e+003,-1.374996e-002
2.719182e+003,-1.369333e-002
2.721110e+003,-1.360949e-002
2.723039e+003,-1.348459e-002
2.724967e+003,-1.337424e-002
2.726896e+003,-1.336155e-002
2.728824e+003,-1.336897e-002
2.730753e+003,-1.330847e-002
2.732681e+003,-1.326550e-002
2.734610e+003,-1.319827e-002
2.736538e+003,-1.309003e-002
2.738467e+003,-1.300045e-002
2.740395e+003,-1.289622e-002
2.742324e+003,-1.283549e-002
2.744252e+003,-1.274985e-002
2.746181e+003,-1.266393e-002
2.748109e+003,-1.260809e-002
2.750038e+003,-1.244517e-002
2.751966e+003,-1.232260e-002
2.753895e+003,-1.224897e-002
2.755823e+003,-1.216437e-002
2.757752e+003,-1.203496e-002
2.759680e+003,-1.188121e-002
2.761609e+003,-1.169830e-002
2.763537e+003,-1.139366e-002
2.765466e+003,-1.121907e-002
2.767394e+003,-1.100675e-002
2.769323e+003,-1.061737e-002
2.771251e+003,-1.013792e-002
2.773180e+003,-9.770143e-003
2.775108e+003,-9.341449e-003
2.777037e+003,-8.804353e-003
2.778965e+003,-8.349353e-003
2.780894e+003,-7.797652e-003
2.782822e+003,-7.010144e-003
2.784750e+003,-6.246453e-003
2.786679e+003,-5.541680e-003
2.788608e+003,-4.892937e-003
2.790536e+003,-4.173886e-003
2.792465e+003,-3.372639e-003
2.794393e+003,-2.592638e-003
2.796322e+003,-1.758173e-003
2.798250e+003,-1.074499e-003
2.800178e+003,-4.694212e-004
2.802107e+003,1.831705e-004
2.804036e+003,7.573752e-004
2.805964e+003,1.133104e-003
2.807893e+003,1.419992e-003
2.809821e+003,1.628539e-003
2.811750e+003,1.815459e-003
2.813678e+003,1.801352e-003
2.815606e+003,1.602299e-003
2.817535e+003,1.281359e-003
2.819464e+003,1.010936e-003
2.821392e+003,7.282005e-004
2.823321e+003,2.530190e-004
2.825249e+003,-3.315783e-004
2.827177e+003,-8.888382e-004
2.829106e+003,-1.552335e-003
2.831034e+003,-2.261102e-003
2.832963e+003,-2.839232e-003
2.834892e+003,-3.289582e-003
2.836820e+003,-3.884178e-003
2.838749e+003,-4.621543e-003
2.840677e+003,-5.350425e-003
2.842605e+003,-6.004598e-003
2.844534e+003,-6.706662e-003
2.846462e+003,-7.664622e-003
2.848391e+003,-8.448216e-003
2.850320e+003,-8.898503e-003
2.852248e+003,-9.108449e-003
2.854177e+003,-9.171553e-003
2.856105e+003,-9.176127e-003
2.858033e+003,-9.259948e-003
2.859962e+003,-9.223359e-003
2.861890e+003,-9.233803e-003
2.863819e+003,-9.333536e-003
2.865748e+003,-9.346864e-003
2.867676e+003,-9.224981e-003
2.869604e+003,-9.051307e-003
2.871533e+003,-8.964656e-003
2.873461e+003,-8.812438e-003
2.875390e+003,-8.695633e-003
2.877319e+003,-8.585554e-003
2.879247e+003,-8.372559e-003
2.881176e+003,-8.290843e-003
2.883104e+003,-8.298547e-003
2.885032e+003,-8.194578e-003
2.886961e+003,-8.198285e-003
2.888889e+003,-8.312720e-003
2.890818e+003,-8.431967e-003
2.892747e+003,-8.568889e-003
2.894675e+003,-8.772240e-003
2.896604e+003,-8.851852e-003
2.898532e+003,-8.853768e-003
2.900460e+003,-8.932132e-003
2.902389e+003,-9.030571e-003
2.904317e+003,-9.143133e-003
2.906246e+003,-9.209897e-003
2.908175e+003,-9.239188e-003
2.910103e+003,-9.342713e-003
2.912031e+003,-9.561488e-003
2.913960e+003,-9.824404e-003
2.915888e+003,-1.003183e-002
2.917817e+003,-1.003167e-002
2.919745e+003,-9.723326e-003
2.921674e+003,-9.373326e-003
2.923603e+003,-9.080058e-003
2.925531e+003,-8.775227e-003
2.927459e+003,-8.414419e-003
2.929388e+003,-8.094941e-003
2.931316e+003,-7.844644e-003
2.933245e+003,-7.630504e-003
2.935173e+003,-7.506705e-003
2.937102e+003,-7.481921e-003
2.939031e+003,-7.443196e-003
2.940959e+003,-7.438506e-003
2.942887e+003,-7.524616e-003
2.944816e+003,-7.686987e-003
2.946744e+003,-7.967826e-003
2.948673e+003,-8.322699e-003
2.950601e+003,-8.816724e-003
2.952530e+003,-9.423065e-003
2.954458e+003,-9.966910e-003
2.956387e+003,-1.050458e-002
2.958315e+003,-1.107159e-002
2.960244e+003,-1.176168e-002
2.962172e+003,-1.238289e-002
2.964101e+003,-1.290567e-002
2.966029e+003,-1.350255e-002
2.967958e+003,-1.403737e-002
2.969886e+003,-1.448312e-002
2.971815e+003,-1.487465e-002
2.973743e+003,-1.533726e-002
2.975672e+003,-1.582271e-002
2.977600e+003,-1.614364e-002
2.979529e+003,-1.630308e-002
2.981457e+003,-1.643540e-002
2.983386e+003,-1.659160e-002
2.985314e+003,-1.682295e-002
2.987243e+003,-1.701330e-002
2.989171e+003,-1.702735e-002
2.991100e+003,-1.715796e-002
2.993028e+003,-1.732991e-002
2.994957e+003,-1.739922e-002
2.996885e+003,-1.749181e-002
2.998814e+003,-1.756972e-002
3.000742e+003,-1.760325e-002
3.002671e+003,-1.767461e-002
3.004599e+003,-1.770484e-002
3.006528e+003,-1.768279e-002
3.008456e+003,-1.769917e-002
3.010385e+003,-1.773830e-002
3.012313e+003,-1.782506e-002
3.014242e+003,-1.784169e-002
3.016170e+003,-1.786252e-002
3.018099e+003,-1.786666e-002
3.020027e+003,-1.798801e-002
3.021956e+003,-1.804654e-002
3.023884e+003,-1.806888e-002
3.025813e+003,-1.817986e-002
3.027741e+003,-1.830341e-002
3.029670e+003,-1.830411e-002
3.031598e+003,-1.823880e-002
3.033527e+003,-1.817280e-002
3.035455e+003,-1.811922e-002
3.037384e+003,-1.805327e-002
3.039312e+003,-1.814608e-002
3.041241e+003,-1.834779e-002
3.043169e+003,-1.847203e-002
3.045098e+003,-1.848753e-002
3.047026e+003,-1.837761e-002
3.048955e+003,-1.836272e-002
3.050883e+003,-1.845501e-002
3.052812e+003,-1.853385e-002
3.054740e+003,-1.861261e-002
3.056669e+003,-1.858217e-002
3.058597e+003,-1.862874e-002
3.060526e+003,-1.869774e-002
3.062454e+003,-1.856973e-002
3.064383e+003,-1.856198e-002
3.066311e+003,-1.858065e-002
3.068240e+003,-1.846266e-002
3.070168e+003,-1.859106e-002
3.072097e+003,-1.880475e-002
3.074025e+003,-1.884850e-002
3.075954e+003,-1.880700e-002
3.077882e+003,-1.886319e-002
3.079811e+003,-1.886583e-002
3.081739e+003,-1.880212e-002
3.083668e+003,-1.882109e-002
3.085596e+003,-1.898386e-002
3.087525e+003,-1.901355e-002
3.089453e+003,-1.892439e-002
3.091382e+003,-1.893038e-002
3.093310e+003,-1.885130e-002
3.095239e+003,-1.874687e-002
3.097167e+003,-1.883156e-002
3.099096e+003,-1.888204e-002
3.101024e+003,-1.894818e-002
3.102953e+003,-1.900261e-002
3.104881e+003,-1.909730e-002
3.106810e+003,-1.900143e-002
3.108738e+003,-1.893026e-002
3.110667e+003,-1.899756e-002
3.112595e+003,-1.899940e-002
3.114524e+003,-1.894672e-002
3.116452e+003,-1.899766e-002
3.118381e+003,-1.899994e-002
3.120309e+003,-1.900869e-002
3.122238e+003,-1.895256e-002
3.124166e+003,-1.887696e-002
3.126095e+003,-1.891589e-002
3.128023e+003,-1.902119e-002
3.129952e+003,-1.913633e-002
3.131880e+003,-1.919710e-002
3.133809e+003,-1.909844e-002
3.135737e+003,-1.903803e-002
3.137666e+003,-1.896321e-002
3.139594e+003,-1.887652e-002
3.141523e+003,-1.885923e-002
3.143451e+003,-1.889650e-002
3.145380e+003,-1.898764e-002
3.147308e+003,-1.912168e-002
3.149237e+003,-1.909644e-002
3.151165e+003,-1.898234e-002
3.153094e+003,-1.888921e-002
3.155022e+003,-1.886998e-002
3.156951e+003,-1.894323e-002
3.158879e+003,-1.895113e-002
3.160808e+003,-1.888734e-002
3.162736e+003,-1.883537e-002
3.164665e+003,-1.879780e-002
3.166593e+003,-1.890929e-002
3.168522e+003,-1.910789e-002
3.170450e+003,-1.907440e-002
3.172379e+003,-1.893289e-002
3.174307e+003,-1.895953e-002
3.176236e+003,-1.896480e-002
3.178164e+003,-1.894976e-002
3.180093e+003,-1.889561e-002
3.182021e+003,-1.885951e-002
3.183950e+003,-1.878282e-002
3.185878e+003,-1.875639e-002
3.187807e+003,-1.876369e-002
3.189735e+003,-1.874221e-002
3.191664e+003,-1.883607e-002
3.193592e+003,-1.887617e-002
3.195521e+003,-1.886161e-002
3.197449e+003,-1.893854e-002
3.199378e+003,-1.906276e-002
3.201306e+003,-1.906984e-002
3.203235e+003,-1.891861e-002
3.205163e+003,-1.892721e-002
3.207092e+003,-1.889200e-002
3.209020e+003,-1.873151e-002
3.210948e+003,-1.876033e-002
3.212877e+003,-1.882829e-002
3.214806e+003,-1.886275e-002
3.216734e+003,-1.887185e-002
3.218663e+003,-1.877721e-002
3.220591e+003,-1.878778e-002
3.222520e+003,-1.884286e-002
3.224448e+003,-1.884302e-002
3.226376e+003,-1.884505e-002
3.228305e+003,-1.881218e-002
3.230234e+003,-1.856973e-002
3.232162e+003,-1.855842e-002
3.234091e+003,-1.859801e-002
3.236019e+003,-1.860817e-002
3.237948e+003,-1.858868e-002
3.239876e+003,-1.854379e-002
3.241804e+003,-1.836316e-002
3.243733e+003,-1.828896e-002
3.245662e+003,-1.835770e-002
3.247590e+003,-1.822777e-002
3.249519e+003,-1.810651e-002
3.251447e+003,-1.808979e-002
3.253375e+003,-1.817827e-002
3.255304e+003,-1.812097e-002
3.257232e+003,-1.789880e-002
3.259161e+003,-1.779618e-002
3.261090e+003,-1.786624e-002
3.263018e+003,-1.797819e-002
3.264947e+003,-1.786100e-002
3.266875e+003,-1.790084e-002
3.268803e+003,-1.782974e-002
3.270732e+003,-1.779256e-002
3.272660e+003,-1.788802e-002
3.274589e+003,-1.788348e-002
3.276518e+003,-1.790313e-002
3.278446e+003,-1.792691e-002
3.280375e+003,-1.782223e-002
3.282303e+003,-1.785502e-002
3.284231e+003,-1.785581e-002
3.286160e+003,-1.784796e-002
3.288088e+003,-1.792357e-002
3.290017e+003,-1.802562e-002
3.291946e+003,-1.794926e-002
3.293874e+003,-1.795514e-002
3.295802e+003,-1.812320e-002
3.297731e+003,-1.819123e-002
3.299659e+003,-1.811624e-002
3.301588e+003,-1.823670e-002
3.303516e+003,-1.844704e-002
3.305445e+003,-1.849845e-002
3.307374e+003,-1.847298e-002
3.309302e+003,-1.858290e-002
3.311230e+003,-1.869232e-002
3.313159e+003,-1.881198e-002
3.315087e+003,-1.894288e-002
3.317016e+003,-1.894244e-002
3.318944e+003,-1.907060e-002
3.320873e+003,-1.917865e-002
3.322802e+003,-1.915351e-002
3.324730e+003,-1.922709e-002
3.326658e+003,-1.943062e-002
3.328587e+003,-1.959965e-002
3.330515e+003,-1.960814e-002
3.332444e+003,-1.966125e-002
3.334372e+003,-1.971128e-002
3.336301e+003,-1.973091e-002
3.338229e+003,-1.967841e-002
3.340158e+003,-1.978284e-002
3.342086e+003,-1.984346e-002
3.344015e+003,-1.985096e-002
3.345943e+003,-1.972372e-002
3.347872e+003,-1.969713e-002
3.349800e+003,-1.977919e-002
3.351729e+003,-1.990135e-002
3.353657e+003,-1.998483e-002
3.355586e+003,-1.994958e-002
3.357514e+003,-1.993632e-002
3.359443e+003,-2.013898e-002
3.361371e+003,-2.023800e-002
3.363300e+003,-1.999917e-002
3.365229e+003,-1.999015e-002
3.367157e+003,-2.020673e-002
3.369085e+003,-2.044052e-002
3.371014e+003,-2.056514e-002
3.372942e+003,-2.056479e-002
3.374871e+003,-2.068815e-002
3.376799e+003,-2.076953e-002
3.378728e+003,-2.081656e-002
3.380656e+003,-2.097425e-002
3.382585e+003,-2.106732e-002
3.384513e+003,-2.098344e-002
3.386442e+003,-2.108537e-002
3.388370e+003,-2.127127e-002
3.390299e+003,-2.128986e-002
3.392227e+003,-2.108061e-002
3.394156e+003,-2.119119e-002
3.396084e+003,-2.125253e-002
3.398013e+003,-2.135645e-002
3.399941e+003,-2.148737e-002
3.401870e+003,-2.151269e-002
3.403798e+003,-2.148409e-002
3.405727e+003,-2.141096e-002
3.407655e+003,-2.140547e-002
3.409584e+003,-2.156075e-002
3.411512e+003,-2.163833e-002
3.413441e+003,-2.170995e-002
3.415369e+003,-2.164650e-002
3.417298e+003,-2.155532e-002
3.419226e+003,-2.166487e-002
3.421155e+003,-2.178054e-002
3.423083e+003,-2.188790e-002
3.425012e+003,-2.184426e-002
3.426940e+003,-2.184432e-002
3.428869e+003,-2.195125e-002
3.430797e+003,-2.185125e-002
3.432726e+003,-2.179819e-002
3.434654e+003,-2.187328e-002
3.436583e+003,-2.216134e-002
3.438511e+003,-2.227282e-002
3.440440e+003,-2.209789e-002
3.442368e+003,-2.218225e-002
3.444297e+003,-2.235849e-002
3.446225e+003,-2.226721e-002
3.448154e+003,-2.209011e-002
3.450082e+003,-2.215634e-002
3.452011e+003,-2.226221e-002
3.453939e+003,-2.228818e-002
3.455868e+003,-2.230763e-002
3.457796e+003,-2.224276e-002
3.459725e+003,-2.232799e-002
3.461653e+003,-2.225969e-002
3.463582e+003,-2.210929e-002
3.465510e+003,-2.228610e-002
3.467439e+003,-2.242552e-002
3.469367e+003,-2.240790e-002
3.471296e+003,-2.238798e-002
3.473224e+003,-2.231068e-002
3.475153e+003,-2.242851e-002
3.477081e+003,-2.253271e-002
3.479010e+003,-2.243147e-002
3.480938e+003,-2.246259e-002
3.482867e+003,-2.257235e-002
3.484795e+003,-2.238751e-002
3.486724e+003,-2.239563e-002
3.488652e+003,-2.250377e-002
3.490581e+003,-2.240865e-002
3.492509e+003,-2.240170e-002
3.494438e+003,-2.250484e-002
3.496366e+003,-2.253847e-002
3.498295e+003,-2.252428e-002
3.500223e+003,-2.240079e-002
3.502152e+003,-2.242669e-002
3.504080e+003,-2.250094e-002
3.506009e+003,-2.259770e-002
3.507937e+003,-2.258273e-002
3.509866e+003,-2.259515e-002
3.511794e+003,-2.259349e-002
3.513723e+003,-2.263195e-002
3.515651e+003,-2.265746e-002
3.517580e+003,-2.255200e-002
3.519508e+003,-2.256213e-002
3.521437e+003,-2.262032e-002
3.523365e+003,-2.244566e-002
3.525294e+003,-2.234549e-002
3.527222e+003,-2.240280e-002
3.529151e+003,-2.236567e-002
3.531079e+003,-2.241976e-002
3.533008e+003,-2.247152e-002
3.534936e+003,-2.240264e-002
3.536865e+003,-2.243386e-002
3.538793e+003,-2.254070e-002
3.540722e+003,-2.262183e-002
3.542650e+003,-2.266054e-002
3.544579e+003,-2.253278e-002
3.546507e+003,-2.223101e-002
3.548436e+003,-2.223029e-002
3.550364e+003,-2.226231e-002
3.552293e+003,-2.214409e-002
3.554221e+003,-2.221389e-002
3.556150e+003,-2.231808e-002
3.558078e+003,-2.222698e-002
3.560007e+003,-2.234408e-002
3.561935e+003,-2.251409e-002
3.563864e+003,-2.244846e-002
3.565792e+003,-2.209685e-002
3.567721e+003,-2.206265e-002
3.569649e+003,-2.234575e-002
3.571578e+003,-2.245623e-002
3.573506e+003,-2.241171e-002
3.575435e+003,-2.230593e-002
3.577363e+003,-2.213804e-002
3.579292e+003,-2.224808e-002
3.581220e+003,-2.233489e-002
3.583149e+003,-2.232944e-002
3.585077e+003,-2.228270e-002
3.587006e+003,-2.200174e-002
3.588934e+003,-2.198228e-002
3.590863e+003,-2.217469e-002
3.592791e+003,-2.213115e-002
3.594720e+003,-2.207909e-002
3.596648e+003,-2.211348e-002
3.598577e+003,-2.231581e-002
3.600505e+003,-2.232220e-002
3.602434e+003,-2.223104e-002
3.604362e+003,-2.225466e-002
3.606291e+003,-2.221140e-002
3.608219e+003,-2.190576e-002
3.610148e+003,-2.190097e-002
3.612076e+003,-2.206665e-002
3.614005e+003,-2.236680e-002
3.615933e+003,-2.237152e-002
3.617862e+003,-2.212727e-002
3.619790e+003,-2.216780e-002
3.621719e+003,-2.236721e-002
3.623647e+003,-2.243282e-002
3.625576e+003,-2.236359e-002
3.627504e+003,-2.181700e-002
3.629433e+003,-2.131229e-002
3.631361e+003,-2.208297e-002
3.633290e+003,-2.237885e-002
3.635218e+003,-2.227990e-002
3.637146e+003,-2.224241e-002
3.639075e+003,-2.235034e-002
3.641004e+003,-2.246400e-002
3.642932e+003,-2.258748e-002
3.644861e+003,-2.269058e-002
3.646789e+003,-2.240928e-002
3.648718e+003,-2.185661e-002
3.650646e+003,-2.191093e-002
3.652574e+003,-2.260708e-002
3.654503e+003,-2.272872e-002
3.656432e+003,-2.230637e-002
3.658360e+003,-2.250226e-002
3.660289e+003,-2.283697e-002
3.662217e+003,-2.290660e-002
3.664146e+003,-2.310181e-002
3.666074e+003,-2.327579e-002
3.668002e+003,-2.309920e-002
3.669931e+003,-2.261126e-002
3.671860e+003,-2.292574e-002
3.673788e+003,-2.304544e-002
3.675717e+003,-2.237527e-002
3.677645e+003,-2.275416e-002
3.679573e+003,-2.312703e-002
3.681502e+003,-2.320723e-002
3.683430e+003,-2.312955e-002
3.685359e+003,-2.321348e-002
3.687288e+003,-2.290374e-002
3.689216e+003,-2.236765e-002
3.691145e+003,-2.256590e-002
3.693073e+003,-2.290242e-002
3.695001e+003,-2.297926e-002
3.696930e+003,-2.311001e-002
3.698858e+003,-2.316131e-002
3.700787e+003,-2.285171e-002
3.702716e+003,-2.272155e-002
3.704644e+003,-2.286504e-002
3.706573e+003,-2.299739e-002
3.708501e+003,-2.314240e-002
3.710429e+003,-2.299739e-002
3.712358e+003,-2.275076e-002
3.714286e+003,-2.316011e-002
3.716215e+003,-2.340560e-002
3.718144e+003,-2.307981e-002
3.720072e+003,-2.294296e-002
3.722000e+003,-2.287211e-002
3.723929e+003,-2.291502e-002
3.725857e+003,-2.295531e-002
3.727786e+003,-2.313878e-002
3.729714e+003,-2.332262e-002
3.731643e+003,-2.292297e-002
3.733572e+003,-2.254026e-002
3.735500e+003,-2.238741e-002
3.737428e+003,-2.274743e-002
3.739357e+003,-2.312198e-002
3.741285e+003,-2.326339e-002
3.743214e+003,-2.279205e-002
3.745142e+003,-2.215520e-002
3.747071e+003,-2.273583e-002
3.749000e+003,-2.243505e-002
3.750928e+003,-2.225034e-002
3.752856e+003,-2.240957e-002
3.754785e+003,-2.290085e-002
3.756713e+003,-2.320042e-002
3.758642e+003,-2.306662e-002
3.760570e+003,-2.276368e-002
3.762499e+003,-2.308908e-002
3.764427e+003,-2.333901e-002
3.766356e+003,-2.314648e-002
3.768284e+003,-2.303931e-002
3.770213e+003,-2.268674e-002
3.772141e+003,-2.276831e-002
3.774070e+003,-2.310284e-002
3.775998e+003,-2.316253e-002
3.777927e+003,-2.305047e-002
3.779855e+003,-2.282867e-002
3.781784e+003,-2.299425e-002
3.783712e+003,-2.306470e-002
3.785641e+003,-2.298658e-002
3.787569e+003,-2.308889e-002
3.789498e+003,-2.328600e-002
3.791426e+003,-2.350578e-002
3.793355e+003,-2.334403e-002
3.795283e+003,-2.276699e-002
3.797212e+003,-2.267627e-002
3.799140e+003,-2.287972e-002
3.801069e+003,-2.244487e-002
3.802997e+003,-2.272705e-002
3.804926e+003,-2.298976e-002
3.806854e+003,-2.249049e-002
3.808783e+003,-2.283889e-002
3.810711e+003,-2.320833e-002
3.812640e+003,-2.336940e-002
3.814568e+003,-2.319643e-002
3.816497e+003,-2.254083e-002
3.818425e+003,-2.271825e-002
3.820354e+003,-2.223467e-002
3.822282e+003,-2.207024e-002
3.824211e+003,-2.282307e-002
3.826139e+003,-2.304531e-002
3.828068e+003,-2.312267e-002
3.829996e+003,-2.297524e-002
3.831925e+003,-2.283276e-002
3.833853e+003,-2.305678e-002
3.835782e+003,-2.300761e-002
3.837710e+003,-2.251790e-002
3.839639e+003,-2.267737e-002
3.841567e+003,-2.293620e-002
3.843496e+003,-2.293184e-002
3.845424e+003,-2.309405e-002
3.847353e+003,-2.340042e-002
3.849281e+003,-2.356045e-002
3.851210e+003,-2.311752e-002
3.853138e+003,-2.197050e-002
3.855067e+003,-2.198130e-002
3.856995e+003,-2.275941e-002
3.858924e+003,-2.310592e-002
3.860852e+003,-2.323051e-002
3.862781e+003,-2.303105e-002
3.864709e+003,-2.289632e-002
3.866638e+003,-2.321744e-002
3.868566e+003,-2.312616e-002
3.870495e+003,-2.283889e-002
3.872423e+003,-2.295541e-002
3.874352e+003,-2.282238e-002
3.876280e+003,-2.308113e-002
3.878209e+003,-2.326006e-002
3.880137e+003,-2.304795e-002
3.882066e+003,-2.324081e-002
3.883994e+003,-2.315678e-002
3.885923e+003,-2.273312e-002
3.887851e+003,-2.306838e-002
3.889780e+003,-2.299944e-002
3.891708e+003,-2.276928e-002
3.893637e+003,-2.302580e-002
3.895565e+003,-2.341078e-002
3.897494e+003,-2.342592e-002
3.899422e+003,-2.318107e-002
3.901351e+003,-2.333923e-002
3.903279e+003,-2.341097e-002
3.905208e+003,-2.338746e-002
3.907136e+003,-2.371452e-002
3.909065e+003,-2.373582e-002
3.910993e+003,-2.365500e-002
3.912922e+003,-2.366940e-002
3.914850e+003,-2.363279e-002
3.916779e+003,-2.356262e-002
3.918707e+003,-2.360062e-002
3.920636e+003,-2.365754e-002
3.922564e+003,-2.350351e-002
3.924493e+003,-2.337185e-002
3.926421e+003,-2.350662e-002
3.928350e+003,-2.371464e-002
3.930278e+003,-2.377833e-002
3.932207e+003,-2.368754e-002
3.934135e+003,-2.375339e-002
3.936064e+003,-2.378749e-002
3.937992e+003,-2.363347e-002
3.939921e+003,-2.356516e-002
3.941849e+003,-2.356312e-002
3.943778e+003,-2.374461e-002
3.945706e+003,-2.377513e-002
3.947635e+003,-2.360837e-002
3.949563e+003,-2.366052e-002
3.951492e+003,-2.370288e-002
3.953420e+003,-2.369927e-002
3.955349e+003,-2.402441e-002
3.957277e+003,-2.400362e-002
3.959206e+003,-2.398042e-002
3.961134e+003,-2.411645e-002
3.963063e+003,-2.399622e-002
3.964991e+003,-2.400231e-002
3.966920e+003,-2.388560e-002
3.968848e+003,-2.380882e-002
3.970777e+003,-2.388340e-002
3.972705e+003,-2.389272e-002
3.974634e+003,-2.385596e-002
3.976562e+003,-2.371847e-002
3.978491e+003,-2.368101e-002
3.980419e+003,-2.370661e-002
3.982348e+003,-2.383620e-002
3.984276e+003,-2.396145e-002
3.986205e+003,-2.394411e-002
3.988133e+003,-2.385850e-002
3.990062e+003,-2.379288e-002
3.991990e+003,-2.393991e-002
3.993919e+003,-2.404410e-002
3.995847e+003,-2.414133e-002
3.997776e+003,-2.395358e-002
3.999704e+003,-2.387763e-002
4.001633e+003,0.000000e+000
