3.991989e+002,6.133820e-002
4.011274e+002,5.208902e-002
4.030559e+002,3.746244e-002
4.049844e+002,3.045109e-002
4.069129e+002,3.109410e-002
4.088414e+002,3.656541e-002
4.107699e+002,4.031654e-002
4.126984e+002,3.931674e-002
4.146269e+002,3.188368e-002
4.165554e+002,3.249047e-002
4.184839e+002,3.572822e-002
4.204124e+002,3.388965e-002
4.223409e+002,3.507177e-002
4.242694e+002,3.589302e-002
4.261979e+002,3.158949e-002
4.281264e+002,2.795288e-002
4.300549e+002,2.611031e-002
4.319834e+002,2.272690e-002
4.339119e+002,2.810765e-002
4.358404e+002,3.563106e-002
4.377689e+002,2.453583e-002
4.396974e+002,1.980692e-002
4.416259e+002,2.384878e-002
4.435544e+002,2.543668e-002
4.454829e+002,2.640345e-002
4.474114e+002,3.003344e-002
4.493399e+002,2.674404e-002
4.512684e+002,2.159667e-002
4.531969e+002,1.949023e-002
4.551254e+002,2.130425e-002
4.570539e+002,2.195741e-002
4.589824e+002,1.831363e-002
4.609109e+002,1.931367e-002
4.628394e+002,2.249527e-002
4.647679e+002,2.135290e-002
4.666964e+002,2.155857e-002
4.686249e+002,1.956007e-002
4.705533e+002,1.972526e-002
4.724819e+002,2.182057e-002
4.744103e+002,2.301850e-002
4.763389e+002,2.085070e-002
4.782673e+002,2.138701e-002
4.801959e+002,3.000390e-002
4.821243e+002,2.224909e-002
4.840529e+002,-7.469089e-003
4.859813e+002,1.203903e-003
4.879099e+002,1.633475e-002
4.898383e+002,2.122797e-002
4.917668e+002,2.128208e-002
4.936953e+002,2.264497e-002
4.956238e+002,2.280644e-002
4.975523e+002,2.157341e-002
4.994808e+002,2.210183e-002
5.014093e+002,2.275466e-002
5.033378e+002,2.279080e-002
5.052663e+002,2.163240e-002
5.071948e+002,2.126997e-002
5.091233e+002,2.142332e-002
5.110518e+002,2.149259e-002
5.129803e+002,2.147734e-002
5.149088e+002,2.016507e-002
5.168373e+002,1.955113e-002
5.187658e+002,1.951574e-002
5.206943e+002,2.065766e-002
5.226228e+002,2.007120e-002
5.245513e+002,1.935617e-002
5.264798e+002,1.978414e-002
5.284083e+002,2.047194e-002
5.303368e+002,2.028008e-002
5.322653e+002,1.964337e-002
5.341938e+002,1.848865e-002
5.361223e+002,1.750020e-002
5.380508e+002,1.787044e-002
5.399792e+002,2.002501e-002
5.419078e+002,2.053953e-002
5.438363e+002,2.026105e-002
5.457648e+002,2.031754e-002
5.476932e+002,2.009441e-002
5.496218e+002,1.979347e-002
5.515503e+002,2.044762e-002
5.534788e+002,2.023172e-002
5.554072e+002,2.120599e-002
5.573358e+002,2.227012e-002
5.592643e+002,2.245047e-002
5.611927e+002,2.127867e-002
5.631212e+002,2.152793e-002
5.650497e+002,2.221460e-002
5.669783e+002,2.281776e-002
5.689067e+002,2.291300e-002
5.708352e+002,2.305676e-002
5.727637e+002,2.171710e-002
5.746923e+002,2.006922e-002
5.766207e+002,2.080227e-002
5.785492e+002,2.047406e-002
5.804777e+002,8.966144e-003
5.824063e+002,8.164112e-003
5.843347e+002,1.939605e-002
5.862632e+002,2.242298e-002
5.881917e+002,2.226963e-002
5.901202e+002,2.164616e-002
5.920487e+002,2.122805e-002
5.939772e+002,2.202583e-002
5.959057e+002,2.322035e-002
5.978342e+002,2.407567e-002
5.997627e+002,2.537622e-002
6.016912e+002,2.574708e-002
6.036197e+002,2.776907e-002
6.055482e+002,3.034714e-002
6.074767e+002,3.178819e-002
6.094052e+002,3.283272e-002
6.113337e+002,3.375297e-002
6.132622e+002,3.249257e-002
6.151907e+002,3.114066e-002
6.171192e+002,3.056217e-002
6.190477e+002,3.016142e-002
6.209762e+002,2.953121e-002
6.229047e+002,2.747172e-002
6.248332e+002,2.405655e-002
6.267617e+002,2.110468e-002
6.286902e+002,1.897989e-002
6.306187e+002,1.796094e-002
6.325472e+002,1.729624e-002
6.344756e+002,1.757431e-002
6.364042e+002,1.720060e-002
6.383326e+002,1.616854e-002
6.402612e+002,1.602959e-002
6.421896e+002,1.694930e-002
6.441182e+002,1.657950e-002
6.460466e+002,1.566789e-002
6.479752e+002,1.567693e-002
6.499036e+002,1.544824e-002
6.518322e+002,1.460280e-002
6.537606e+002,1.485885e-002
6.556891e+002,1.483218e-002
6.576177e+002,1.419227e-002
6.595461e+002,1.398058e-002
6.614746e+002,1.363912e-002
6.634031e+002,1.314783e-002
6.653317e+002,1.371722e-002
6.672601e+002,1.542730e-002
6.691886e+002,1.506902e-002
6.711171e+002,1.416218e-002
6.730457e+002,1.446754e-002
6.749741e+002,1.427554e-002
6.769026e+002,1.391242e-002
6.788311e+002,1.416581e-002
6.807596e+002,1.440095e-002
6.826881e+002,1.435293e-002
6.846166e+002,1.455014e-002
6.865451e+002,1.476924e-002
6.884736e+002,1.500412e-002
6.904021e+002,1.500059e-002
6.923306e+002,1.491406e-002
6.942591e+002,1.515605e-002
6.961876e+002,1.531261e-002
6.981161e+002,1.518776e-002
7.000446e+002,1.525090e-002
7.019731e+002,1.530334e-002
7.039016e+002,1.543358e-002
7.058301e+002,1.507564e-002
7.077585e+002,1.539853e-002
7.096871e+002,1.630455e-002
7.116156e+002,1.657620e-002
7.135441e+002,1.646589e-002
7.154725e+002,1.688639e-002
7.174011e+002,1.718991e-002
7.193296e+002,1.749869e-002
7.212581e+002,1.793749e-002
7.231865e+002,1.833285e-002
7.251151e+002,1.820004e-002
7.270436e+002,1.844962e-002
7.289720e+002,1.918732e-002
7.309005e+002,1.968746e-002
7.328290e+002,1.982603e-002
7.347576e+002,1.979405e-002
7.366860e+002,1.937900e-002
7.386145e+002,1.887592e-002
7.405430e+002,1.941708e-002
7.424716e+002,2.007512e-002
7.444000e+002,2.013189e-002
7.463285e+002,2.021755e-002
7.482570e+002,2.001731e-002
7.501855e+002,1.991559e-002
7.521140e+002,2.044491e-002
7.540425e+002,2.049014e-002
7.559710e+002,2.018340e-002
7.578995e+002,2.065860e-002
7.598280e+002,2.088553e-002
7.617565e+002,2.063747e-002
7.636850e+002,2.055002e-002
7.656135e+002,2.104194e-002
7.675420e+002,2.100907e-002
7.694705e+002,2.006366e-002
7.713990e+002,1.984791e-002
7.733275e+002,2.029990e-002
7.752560e+002,2.025258e-002
7.771844e+002,2.028775e-002
7.791130e+002,1.996884e-002
7.810415e+002,1.984008e-002
7.829700e+002,1.968722e-002
7.848984e+002,1.954014e-002
7.868270e+002,1.954357e-002
7.887555e+002,1.952492e-002
7.906840e+002,1.906883e-002
7.926124e+002,1.810082e-002
7.945410e+002,1.811326e-002
7.964695e+002,1.820187e-002
7.983979e+002,1.785839e-002
8.003264e+002,1.748347e-002
8.022549e+002,1.736327e-002
8.041835e+002,1.756437e-002
8.061119e+002,1.766295e-002
8.080404e+002,1.799951e-002
8.099689e+002,1.833375e-002
8.118975e+002,1.876223e-002
8.138259e+002,1.887862e-002
8.157545e+002,1.874544e-002
8.176830e+002,1.902704e-002
8.196115e+002,1.908257e-002
8.215399e+002,1.893282e-002
8.234684e+002,1.884440e-002
8.253970e+002,1.885229e-002
8.273254e+002,1.892462e-002
8.292539e+002,1.868965e-002
8.311824e+002,1.846427e-002
8.331110e+002,1.859336e-002
8.350394e+002,1.884578e-002
8.369679e+002,1.896688e-002
8.388964e+002,1.862002e-002
8.408250e+002,1.865931e-002
8.427534e+002,1.877907e-002
8.446819e+002,1.818978e-002
8.466104e+002,1.816249e-002
8.485389e+002,1.862286e-002
8.504674e+002,1.860020e-002
8.523959e+002,1.844886e-002
8.543244e+002,1.847371e-002
8.562529e+002,1.863932e-002
8.581814e+002,1.862960e-002
8.601099e+002,1.829787e-002
8.620384e+002,1.807236e-002
8.639669e+002,1.860259e-002
8.658954e+002,1.883845e-002
8.678239e+002,1.836910e-002
8.697524e+002,1.848678e-002
8.716809e+002,1.862711e-002
8.736094e+002,1.850227e-002
8.755378e+002,1.828733e-002
8.774664e+002,1.868847e-002
8.793949e+002,1.863652e-002
8.813234e+002,1.844170e-002
8.832518e+002,1.846151e-002
8.851804e+002,1.820965e-002
8.871089e+002,1.821660e-002
8.890374e+002,1.836375e-002
8.909658e+002,1.861203e-002
8.928943e+002,1.908607e-002
8.948229e+002,1.897785e-002
8.967513e+002,1.888146e-002
8.986798e+002,1.911117e-002
9.006083e+002,1.893493e-002
9.025369e+002,1.882409e-002
9.044653e+002,1.895244e-002
9.063938e+002,1.879662e-002
9.083223e+002,1.842943e-002
9.102509e+002,1.806790e-002
9.121793e+002,1.841494e-002
9.141078e+002,1.843316e-002
9.160364e+002,1.784475e-002
9.179648e+002,1.740148e-002
9.198933e+002,1.691357e-002
9.218218e+002,1.693548e-002
9.237504e+002,1.688143e-002
9.256788e+002,1.642084e-002
9.276073e+002,1.623767e-002
9.295358e+002,1.621312e-002
9.314644e+002,1.610977e-002
9.333928e+002,1.605483e-002
9.353213e+002,1.598824e-002
9.372498e+002,1.591619e-002
9.391783e+002,1.557533e-002
9.411068e+002,1.550974e-002
9.430353e+002,1.571843e-002
9.449637e+002,1.573973e-002
9.468923e+002,1.582687e-002
9.488208e+002,1.565137e-002
9.507493e+002,1.555884e-002
9.526777e+002,1.572121e-002
9.546063e+002,1.573066e-002
9.565348e+002,1.562674e-002
9.584633e+002,1.555805e-002
9.603917e+002,1.574413e-002
9.623203e+002,1.594207e-002
9.642488e+002,1.562482e-002
9.661772e+002,1.534494e-002
9.681057e+002,1.561620e-002
9.700343e+002,1.555888e-002
9.719628e+002,1.530310e-002
9.738912e+002,1.487867e-002
9.758197e+002,1.457327e-002
9.777483e+002,1.464324e-002
9.796768e+002,1.495799e-002
9.816052e+002,1.482837e-002
9.835337e+002,1.435546e-002
9.854623e+002,1.418457e-002
9.873907e+002,1.410553e-002
9.893192e+002,1.378062e-002
9.912477e+002,1.332139e-002
9.931763e+002,1.319828e-002
9.951047e+002,1.322543e-002
9.970332e+002,1.300790e-002
9.989617e+002,1.280183e-002
1.000890e+003,1.282780e-002
1.002819e+003,1.302152e-002
1.004747e+003,1.298366e-002
1.006676e+003,1.290900e-002
1.008604e+003,1.281773e-002
1.010533e+003,1.298277e-002
1.012461e+003,1.316559e-002
1.014390e+003,1.307973e-002
1.016318e+003,1.332030e-002
1.018247e+003,1.359747e-002
1.020175e+003,1.345350e-002
1.022104e+003,1.363392e-002
1.024032e+003,1.400635e-002
1.025961e+003,1.424691e-002
1.027889e+003,1.437834e-002
1.029818e+003,1.464303e-002
1.031746e+003,1.509509e-002
1.033675e+003,1.537175e-002
1.035603e+003,1.554885e-002
1.037532e+003,1.564096e-002
1.039460e+003,1.581041e-002
1.041389e+003,1.600494e-002
1.043317e+003,1.633434e-002
1.045246e+003,1.641052e-002
1.047174e+003,1.652285e-002
1.049103e+003,1.668602e-002
1.051031e+003,1.644730e-002
1.052960e+003,1.619767e-002
1.054888e+003,1.621016e-002
1.056817e+003,1.632746e-002
1.058745e+003,1.643760e-002
1.060674e+003,1.641829e-002
1.062602e+003,1.637642e-002
1.064531e+003,1.624029e-002
1.066459e+003,1.621105e-002
1.068388e+003,1.610486e-002
1.070316e+003,1.598236e-002
1.072245e+003,1.615823e-002
1.074173e+003,1.617549e-002
1.076102e+003,1.600126e-002
1.078030e+003,1.591189e-002
1.079959e+003,1.591921e-002
1.081887e+003,1.621171e-002
1.083816e+003,1.645474e-002
1.085744e+003,1.646489e-002
1.087673e+003,1.656873e-002
1.089601e+003,1.650250e-002
1.091530e+003,1.676722e-002
1.093458e+003,1.700856e-002
1.095387e+003,1.702355e-002
1.097315e+003,1.700518e-002
1.099244e+003,1.715879e-002
1.101172e+003,1.731841e-002
1.103101e+003,1.718054e-002
1.105029e+003,1.729913e-002
1.106958e+003,1.761309e-002
1.108886e+003,1.781261e-002
1.110815e+003,1.778582e-002
1.112743e+003,1.768287e-002
1.114672e+003,1.757928e-002
1.116600e+003,1.778772e-002
1.118529e+003,1.800356e-002
1.120457e+003,1.799212e-002
1.122386e+003,1.803585e-002
1.124314e+003,1.798511e-002
1.126243e+003,1.757048e-002
1.128171e+003,1.728876e-002
1.130100e+003,1.753698e-002
1.132028e+003,1.759618e-002
1.133957e+003,1.743742e-002
1.135885e+003,1.723342e-002
1.137814e+003,1.678051e-002
1.139742e+003,1.616982e-002
1.141671e+003,1.598920e-002
1.143599e+003,1.587017e-002
1.145528e+003,1.540577e-002
1.147456e+003,1.495466e-002
1.149385e+003,1.474291e-002
1.151313e+003,1.455452e-002
1.153242e+003,1.427246e-002
1.155170e+003,1.405446e-002
1.157099e+003,1.386213e-002
1.159027e+003,1.368842e-002
1.160956e+003,1.357146e-002
1.162884e+003,1.350795e-002
1.164813e+003,1.354281e-002
1.166741e+003,1.354568e-002
1.168670e+003,1.350942e-002
1.170598e+003,1.350907e-002
1.172526e+003,1.354866e-002
1.174455e+003,1.352107e-002
1.176384e+003,1.358978e-002
1.178312e+003,1.353102e-002
1.180240e+003,1.323107e-002
1.182169e+003,1.322895e-002
1.184098e+003,1.319138e-002
1.186026e+003,1.300407e-002
1.187954e+003,1.306604e-002
1.189883e+003,1.304549e-002
1.191812e+003,1.276273e-002
1.193740e+003,1.263895e-002
1.195668e+003,1.241986e-002
1.197597e+003,1.217980e-002
1.199526e+003,1.217363e-002
1.201454e+003,1.224376e-002
1.203382e+003,1.224465e-002
1.205311e+003,1.210674e-002
1.207240e+003,1.200574e-002
1.209168e+003,1.196228e-002
1.211096e+003,1.207618e-002
1.213025e+003,1.216484e-002
1.214953e+003,1.208310e-002
1.216882e+003,1.192270e-002
1.218810e+003,1.189069e-002
1.220739e+003,1.190458e-002
1.222667e+003,1.200720e-002
1.224596e+003,1.215622e-002
1.226524e+003,1.222516e-002
1.228453e+003,1.229206e-002
1.230381e+003,1.226653e-002
1.232310e+003,1.231142e-002
1.234238e+003,1.232332e-002
1.236167e+003,1.244557e-002
1.238095e+003,1.259351e-002
1.240024e+003,1.277992e-002
1.241952e+003,1.281606e-002
1.243881e+003,1.267797e-002
1.245809e+003,1.255514e-002
1.247738e+003,1.256230e-002
1.249666e+003,1.283627e-002
1.251595e+003,1.289623e-002
1.253523e+003,1.274713e-002
1.255452e+003,1.267282e-002
1.257380e+003,1.253048e-002
1.259309e+003,1.247913e-002
1.261237e+003,1.254378e-002
1.263166e+003,1.264710e-002
1.265094e+003,1.291538e-002
1.267023e+003,1.309753e-002
1.268951e+003,1.318526e-002
1.270880e+003,1.331575e-002
1.272808e+003,1.340644e-002
1.274737e+003,1.342544e-002
1.276665e+003,1.358059e-002
1.278594e+003,1.372197e-002
1.280522e+003,1.372795e-002
1.282451e+003,1.361262e-002
1.284379e+003,1.366794e-002
1.286308e+003,1.391893e-002
1.288236e+003,1.414479e-002
1.290165e+003,1.423829e-002
1.292093e+003,1.425609e-002
1.294022e+003,1.436300e-002
1.295950e+003,1.436858e-002
1.297879e+003,1.437423e-002
1.299807e+003,1.431834e-002
1.301736e+003,1.421377e-002
1.303664e+003,1.413586e-002
1.305593e+003,1.412757e-002
1.307521e+003,1.431321e-002
1.309450e+003,1.391321e-002
1.311378e+003,1.317918e-002
1.313307e+003,1.263717e-002
1.315235e+003,1.263233e-002
1.317164e+003,1.288511e-002
1.319092e+003,1.273737e-002
1.321021e+003,1.246354e-002
1.322949e+003,1.243722e-002
1.324878e+003,1.251763e-002
1.326806e+003,1.246000e-002
1.328735e+003,1.245976e-002
1.330663e+003,1.260948e-002
1.332592e+003,1.276573e-002
1.334520e+003,1.267876e-002
1.336449e+003,1.257376e-002
1.338377e+003,1.270312e-002
1.340306e+003,1.272100e-002
1.342234e+003,1.258055e-002
1.344163e+003,1.254856e-002
1.346091e+003,1.255770e-002
1.348020e+003,1.267787e-002
1.349948e+003,1.261821e-002
1.351877e+003,1.250255e-002
1.353805e+003,1.252387e-002
1.355734e+003,1.269244e-002
1.357662e+003,1.266556e-002
1.359591e+003,1.252533e-002
1.361519e+003,1.252704e-002
1.363448e+003,1.246866e-002
1.365376e+003,1.215376e-002
1.367305e+003,1.190019e-002
1.369233e+003,1.177244e-002
1.371162e+003,1.175718e-002
1.373090e+003,1.186304e-002
1.375019e+003,1.175463e-002
1.376947e+003,1.169298e-002
1.378876e+003,1.163512e-002
1.380804e+003,1.148213e-002
1.382733e+003,1.145988e-002
1.384661e+003,1.148302e-002
1.386590e+003,1.160830e-002
1.388518e+003,1.149744e-002
1.390447e+003,1.117115e-002
1.392375e+003,1.111506e-002
1.394304e+003,1.123680e-002
1.396232e+003,1.104963e-002
1.398161e+003,1.104194e-002
1.400089e+003,1.106118e-002
1.402018e+003,1.081191e-002
1.403946e+003,1.059599e-002
1.405875e+003,1.051594e-002
1.407803e+003,1.040352e-002
1.409732e+003,1.034814e-002
1.411660e+003,1.038357e-002
1.413589e+003,1.043882e-002
1.415517e+003,1.063497e-002
1.417446e+003,1.116319e-002
1.419374e+003,1.161181e-002
1.421303e+003,1.156107e-002
1.423231e+003,1.177662e-002
1.425160e+003,1.215854e-002
1.427088e+003,1.240036e-002
1.429017e+003,1.277399e-002
1.430945e+003,1.320763e-002
1.432874e+003,1.368405e-002
1.434802e+003,1.426489e-002
1.436731e+003,1.478535e-002
1.438659e+003,1.489324e-002
1.440588e+003,1.512905e-002
1.442516e+003,1.559755e-002
1.444445e+003,1.588196e-002
1.446373e+003,1.618763e-002
1.448302e+003,1.667015e-002
1.450230e+003,1.687261e-002
1.452159e+003,1.689948e-002
1.454087e+003,1.731413e-002
1.456016e+003,1.818916e-002
1.457944e+003,1.829773e-002
1.459873e+003,1.760526e-002
1.461801e+003,1.706084e-002
1.463730e+003,1.691853e-002
1.465658e+003,1.672273e-002
1.467587e+003,1.620562e-002
1.469515e+003,1.591832e-002
1.471444e+003,1.591079e-002
1.473372e+003,1.554047e-002
1.475301e+003,1.493405e-002
1.477229e+003,1.430999e-002
1.479158e+003,1.368805e-002
1.481086e+003,1.328258e-002
1.483015e+003,1.274904e-002
1.484943e+003,1.233890e-002
1.486872e+003,1.229220e-002
1.488800e+003,1.231060e-002
1.490729e+003,1.206259e-002
1.492657e+003,1.156281e-002
1.494586e+003,1.140736e-002
1.496514e+003,1.151493e-002
1.498443e+003,1.128795e-002
1.500371e+003,1.082964e-002
1.502300e+003,1.063035e-002
1.504228e+003,1.108756e-002
1.506157e+003,1.183784e-002
1.508085e+003,1.138215e-002
1.510014e+003,1.074639e-002
1.511942e+003,1.048484e-002
1.513871e+003,1.037586e-002
1.515799e+003,1.059582e-002
1.517728e+003,1.080570e-002
1.519656e+003,1.101153e-002
1.521585e+003,1.121684e-002
1.523513e+003,1.081775e-002
1.525442e+003,1.075478e-002
1.527370e+003,1.062824e-002
1.529299e+003,1.047286e-002
1.531227e+003,1.050864e-002
1.533156e+003,1.092362e-002
1.535084e+003,1.081422e-002
1.537013e+003,1.089939e-002
1.538941e+003,1.171596e-002
1.540870e+003,1.198772e-002
1.542798e+003,1.160728e-002
1.544727e+003,1.131087e-002
1.546655e+003,1.091404e-002
1.548584e+003,1.082859e-002
1.550512e+003,1.083206e-002
1.552441e+003,1.072931e-002
1.554369e+003,1.085006e-002
1.556298e+003,1.122249e-002
1.558226e+003,1.212695e-002
1.560155e+003,1.193411e-002
1.562083e+003,1.122157e-002
1.564012e+003,1.131437e-002
1.565940e+003,1.143644e-002
1.567869e+003,1.167072e-002
1.569797e+003,1.207489e-002
1.571726e+003,1.187271e-002
1.573654e+003,1.186539e-002
1.575583e+003,1.240278e-002
1.577511e+003,1.236208e-002
1.579440e+003,1.210286e-002
1.581368e+003,1.215945e-002
1.583297e+003,1.203830e-002
1.585225e+003,1.208876e-002
1.587154e+003,1.213301e-002
1.589082e+003,1.203275e-002
1.591010e+003,1.185296e-002
1.592939e+003,1.180260e-002
1.594868e+003,1.193414e-002
1.596796e+003,1.196050e-002
1.598724e+003,1.180852e-002
1.600653e+003,1.169411e-002
1.602582e+003,1.167920e-002
1.604510e+003,1.158680e-002
1.606438e+003,1.146135e-002
1.608367e+003,1.146584e-002
1.610296e+003,1.127761e-002
1.612224e+003,1.093836e-002
1.614152e+003,1.094812e-002
1.616081e+003,1.123361e-002
1.618010e+003,1.102784e-002
1.619938e+003,1.066767e-002
1.621866e+003,1.067656e-002
1.623795e+003,1.048630e-002
1.625724e+003,1.032384e-002
1.627652e+003,1.031031e-002
1.629580e+003,1.007561e-002
1.631509e+003,9.824664e-003
1.633438e+003,1.008269e-002
1.635366e+003,1.050480e-002
1.637294e+003,1.002542e-002
1.639223e+003,9.474970e-003
1.641151e+003,9.174354e-003
1.643080e+003,8.922850e-003
1.645008e+003,9.185691e-003
1.646937e+003,9.397224e-003
1.648865e+003,8.948352e-003
1.650794e+003,9.046656e-003
1.652722e+003,9.886555e-003
1.654651e+003,9.149448e-003
1.656579e+003,8.320427e-003
1.658508e+003,8.192743e-003
1.660436e+003,8.233905e-003
1.662365e+003,8.437575e-003
1.664293e+003,8.351839e-003
1.666222e+003,8.301008e-003
1.668150e+003,8.744375e-003
1.670079e+003,8.962221e-003
1.672007e+003,8.710298e-003
1.673936e+003,8.856192e-003
1.675864e+003,8.829107e-003
1.677793e+003,8.368289e-003
1.679721e+003,8.454434e-003
1.681650e+003,8.678488e-003
1.683578e+003,9.189245e-003
1.685507e+003,9.008360e-003
1.687435e+003,8.514373e-003
1.689364e+003,8.349847e-003
1.691292e+003,8.343429e-003
1.693221e+003,8.603486e-003
1.695149e+003,9.119839e-003
1.697078e+003,9.117437e-003
1.699006e+003,9.390587e-003
1.700935e+003,9.493020e-003
1.702863e+003,8.956132e-003
1.704792e+003,9.125862e-003
1.706720e+003,9.110568e-003
1.708649e+003,8.916390e-003
1.710577e+003,8.788632e-003
1.712506e+003,8.880677e-003
1.714434e+003,9.216760e-003
1.716363e+003,9.620275e-003
1.718291e+003,9.597782e-003
1.720220e+003,9.179701e-003
1.722148e+003,8.971455e-003
1.724077e+003,8.942197e-003
1.726005e+003,9.002238e-003
1.727934e+003,9.137063e-003
1.729862e+003,9.206302e-003
1.731791e+003,9.512155e-003
1.733719e+003,9.989547e-003
1.735648e+003,9.599713e-003
1.737576e+003,9.358897e-003
1.739505e+003,9.533594e-003
1.741433e+003,9.303547e-003
1.743362e+003,9.204847e-003
1.745290e+003,9.238862e-003
1.747219e+003,9.374335e-003
1.749147e+003,9.630235e-003
1.751076e+003,9.792976e-003
1.753004e+003,9.552698e-003
1.754933e+003,9.470060e-003
1.756861e+003,9.545381e-003
1.758790e+003,9.406061e-003
1.760718e+003,9.548464e-003
1.762647e+003,9.687118e-003
1.764575e+003,9.466437e-003
1.766504e+003,9.490346e-003
1.768432e+003,9.607335e-003
1.770361e+003,9.684171e-003
1.772289e+003,9.793824e-003
1.774218e+003,9.602355e-003
1.776146e+003,9.419707e-003
1.778075e+003,9.308692e-003
1.780003e+003,9.273522e-003
1.781932e+003,9.213714e-003
1.783860e+003,9.206641e-003
1.785789e+003,9.280122e-003
1.787717e+003,9.356460e-003
1.789646e+003,9.479441e-003
1.791574e+003,9.703517e-003
1.793503e+003,9.743365e-003
1.795431e+003,9.536643e-003
1.797360e+003,9.542672e-003
1.799288e+003,9.622307e-003
1.801217e+003,9.545348e-003
1.803145e+003,9.391028e-003
1.805074e+003,9.400813e-003
1.807002e+003,9.484419e-003
1.808931e+003,9.522350e-003
1.810859e+003,9.473074e-003
1.812788e+003,9.429763e-003
1.814716e+003,9.431829e-003
1.816645e+003,9.489939e-003
1.818573e+003,9.541215e-003
1.820502e+003,9.511377e-003
1.822430e+003,9.574917e-003
1.824359e+003,9.737468e-003
1.826287e+003,9.723000e-003
1.828216e+003,9.695080e-003
1.830144e+003,9.745127e-003
1.832073e+003,9.580743e-003
1.834001e+003,9.565941e-003
1.835930e+003,9.578033e-003
1.837858e+003,9.468062e-003
1.839787e+003,9.455939e-003
1.841715e+003,9.556253e-003
1.843644e+003,9.807617e-003
1.845572e+003,9.608994e-003
1.847501e+003,9.343459e-003
1.849429e+003,9.434605e-003
1.851358e+003,9.499895e-003
1.853286e+003,9.505619e-003
1.855215e+003,9.507008e-003
1.857143e+003,9.541452e-003
1.859072e+003,9.611501e-003
1.861000e+003,9.558049e-003
1.862929e+003,9.435859e-003
1.864857e+003,9.478493e-003
1.866786e+003,9.563400e-003
1.868714e+003,9.634503e-003
1.870643e+003,9.526990e-003
1.872571e+003,9.395395e-003
1.874500e+003,9.444865e-003
1.876428e+003,9.486146e-003
1.878357e+003,9.553273e-003
1.880285e+003,9.509616e-003
1.882214e+003,9.469179e-003
1.884142e+003,9.559641e-003
1.886071e+003,9.583115e-003
1.887999e+003,9.570785e-003
1.889928e+003,9.507550e-003
1.891856e+003,9.419978e-003
1.893785e+003,9.481405e-003
1.895713e+003,9.547922e-003
1.897642e+003,9.535898e-003
1.899570e+003,9.580709e-003
1.901499e+003,9.628270e-003
1.903427e+003,9.562452e-003
1.905356e+003,9.518523e-003
1.907284e+003,9.557710e-003
1.909213e+003,9.562994e-003
1.911141e+003,9.553443e-003
1.913070e+003,9.576171e-003
1.914998e+003,9.635893e-003
1.916927e+003,9.701111e-003
1.918855e+003,9.690947e-003
1.920784e+003,9.598120e-003
1.922712e+003,9.565873e-003
1.924641e+003,9.569125e-003
1.926569e+003,9.608758e-003
1.928498e+003,9.485300e-003
1.930426e+003,9.514933e-003
1.932355e+003,9.530919e-003
1.934283e+003,9.471584e-003
1.936212e+003,9.469789e-003
1.938140e+003,9.491395e-003
1.940069e+003,9.498304e-003
1.941997e+003,9.550902e-003
1.943926e+003,9.561842e-003
1.945854e+003,9.487535e-003
1.947783e+003,9.489499e-003
1.949711e+003,9.504738e-003
1.951640e+003,9.527769e-003
1.953568e+003,9.503825e-003
1.955497e+003,9.464879e-003
1.957425e+003,9.483572e-003
1.959354e+003,9.521232e-003
1.961282e+003,9.535355e-003
1.963211e+003,9.489194e-003
1.965139e+003,9.525805e-003
1.967068e+003,9.486823e-003
1.968996e+003,9.261167e-003
1.970925e+003,9.249184e-003
1.972853e+003,9.421535e-003
1.974782e+003,9.408025e-003
1.976710e+003,9.369562e-003
1.978639e+003,9.413578e-003
1.980567e+003,9.379618e-003
1.982496e+003,9.297250e-003
1.984424e+003,9.329613e-003
1.986353e+003,9.359371e-003
1.988281e+003,9.279784e-003
1.990210e+003,9.274096e-003
1.992138e+003,9.357002e-003
1.994067e+003,9.337298e-003
1.995995e+003,9.256969e-003
1.997924e+003,9.241975e-003
1.999852e+003,9.252502e-003
2.001781e+003,9.269832e-003
2.003709e+003,9.283947e-003
2.005638e+003,9.303513e-003
2.007566e+003,9.321014e-003
2.009495e+003,9.337061e-003
2.011423e+003,9.324197e-003
2.013352e+003,9.388759e-003
2.015280e+003,9.393940e-003
2.017208e+003,9.380769e-003
2.019137e+003,9.385712e-003
2.021066e+003,9.327819e-003
2.022994e+003,9.287399e-003
2.024922e+003,9.341360e-003
2.026851e+003,9.345389e-003
2.028780e+003,9.335571e-003
2.030708e+003,9.375283e-003
2.032636e+003,9.355376e-003
2.034565e+003,9.322775e-003
2.036494e+003,9.295321e-003
2.038422e+003,9.312111e-003
2.040350e+003,9.298740e-003
2.042279e+003,9.258188e-003
2.044208e+003,9.240892e-003
2.046136e+003,9.234935e-003
2.048064e+003,9.223867e-003
2.049993e+003,9.261302e-003
2.051921e+003,9.271490e-003
2.053850e+003,9.280020e-003
2.055778e+003,9.307744e-003
2.057707e+003,9.377857e-003
2.059635e+003,9.351280e-003
2.061564e+003,9.355308e-003
2.063492e+003,9.192291e-003
2.065421e+003,9.137774e-003
2.067349e+003,9.292443e-003
2.069278e+003,9.271998e-003
2.071206e+003,9.250335e-003
2.073135e+003,9.344678e-003
2.075063e+003,9.314277e-003
2.076992e+003,9.234156e-003
2.078920e+003,9.226101e-003
2.080849e+003,9.240790e-003
2.082777e+003,9.228674e-003
2.084706e+003,9.226609e-003
2.086634e+003,9.224781e-003
2.088563e+003,9.248135e-003
2.090491e+003,9.295050e-003
2.092420e+003,9.313600e-003
2.094348e+003,9.342173e-003
2.096277e+003,9.328564e-003
2.098205e+003,9.347996e-003
2.100134e+003,9.387744e-003
2.102062e+003,9.415372e-003
2.103991e+003,9.330595e-003
2.105919e+003,9.265093e-003
2.107848e+003,9.390215e-003
2.109776e+003,9.394684e-003
2.111705e+003,9.345558e-003
2.113633e+003,9.371120e-003
2.115562e+003,9.369257e-003
2.117490e+003,9.343764e-003
2.119419e+003,9.346371e-003
2.121347e+003,9.331475e-003
2.123276e+003,9.333777e-003
2.125204e+003,9.400304e-003
2.127133e+003,9.410733e-003
2.129061e+003,9.464235e-003
2.130990e+003,9.536508e-003
2.132918e+003,9.406196e-003
2.134847e+003,9.271355e-003
2.136775e+003,9.327108e-003
2.138704e+003,9.405417e-003
2.140632e+003,9.382326e-003
2.142561e+003,9.363569e-003
2.144489e+003,9.378602e-003
2.146418e+003,9.348605e-003
2.148346e+003,9.340751e-003
2.150275e+003,9.403623e-003
2.152203e+003,9.404571e-003
2.154132e+003,9.357103e-003
2.156060e+003,9.357374e-003
2.157989e+003,9.488551e-003
2.159917e+003,9.560284e-003
2.161846e+003,9.454686e-003
2.163774e+003,9.367971e-003
2.165703e+003,9.413578e-003
2.167631e+003,9.501114e-003
2.169560e+003,9.551241e-003
2.171488e+003,9.545584e-003
2.173417e+003,9.467757e-003
2.175345e+003,9.451029e-003
2.177274e+003,9.498947e-003
2.179202e+003,9.553883e-003
2.181131e+003,9.524924e-003
2.183059e+003,9.468841e-003
2.184988e+003,9.522790e-003
2.186916e+003,9.516830e-003
2.188845e+003,9.475309e-003
2.190773e+003,9.428544e-003
2.192702e+003,9.308184e-003
2.194630e+003,9.288585e-003
2.196559e+003,9.352261e-003
2.198487e+003,9.475106e-003
2.200416e+003,9.472058e-003
2.202344e+003,9.400643e-003
2.204273e+003,9.452722e-003
2.206201e+003,9.472295e-003
2.208130e+003,9.445577e-003
2.210058e+003,9.453975e-003
2.211987e+003,9.483945e-003
2.213915e+003,9.476122e-003
2.215844e+003,9.486112e-003
2.217772e+003,9.510022e-003
2.219701e+003,9.530106e-003
2.221629e+003,9.444256e-003
2.223558e+003,9.394108e-003
2.225486e+003,9.391603e-003
2.227415e+003,9.415406e-003
2.229343e+003,9.476800e-003
2.231272e+003,9.491530e-003
2.233200e+003,9.577423e-003
2.235129e+003,9.618209e-003
2.237057e+003,9.492648e-003
2.238986e+003,9.386119e-003
2.240914e+003,9.400474e-003
2.242843e+003,9.459325e-003
2.244771e+003,9.508736e-003
2.246700e+003,9.496882e-003
2.248628e+003,9.441514e-003
2.250557e+003,9.324162e-003
2.252485e+003,9.371559e-003
2.254414e+003,9.465793e-003
2.256342e+003,9.475953e-003
2.258271e+003,9.466538e-003
2.260199e+003,9.422483e-003
2.262128e+003,9.445610e-003
2.264056e+003,9.436739e-003
2.265985e+003,9.418827e-003
2.267913e+003,9.438432e-003
2.269842e+003,9.485943e-003
2.271770e+003,9.484453e-003
2.273699e+003,9.437246e-003
2.275627e+003,9.397224e-003
2.277556e+003,9.391502e-003
2.279484e+003,9.371085e-003
2.281413e+003,9.432404e-003
2.283341e+003,9.383985e-003
2.285270e+003,9.369832e-003
2.287198e+003,9.380159e-003
2.289127e+003,9.470568e-003
2.291055e+003,9.478526e-003
2.292984e+003,9.405824e-003
2.294912e+003,9.367362e-003
2.296841e+003,9.444629e-003
2.298769e+003,9.618581e-003
2.300698e+003,9.746380e-003
2.302626e+003,9.868896e-003
2.304555e+003,9.914014e-003
2.306483e+003,9.956287e-003
2.308412e+003,9.943778e-003
2.310340e+003,9.988699e-003
2.312269e+003,1.025992e-002
2.314197e+003,1.047527e-002
2.316125e+003,1.064101e-002
2.318054e+003,1.077309e-002
2.319983e+003,1.099844e-002
2.321911e+003,1.131094e-002
2.323840e+003,1.151663e-002
2.325768e+003,1.166708e-002
2.327697e+003,1.187618e-002
2.329625e+003,1.229782e-002
2.331553e+003,1.247896e-002
2.333482e+003,1.236985e-002
2.335411e+003,1.233399e-002
2.337339e+003,1.245843e-002
2.339268e+003,1.245942e-002
2.341196e+003,1.232182e-002
2.343125e+003,1.213884e-002
2.345053e+003,1.171187e-002
2.346981e+003,1.102383e-002
2.348910e+003,1.058947e-002
2.350839e+003,1.095410e-002
2.352767e+003,1.181496e-002
2.354696e+003,1.258512e-002
2.356624e+003,1.317850e-002
2.358552e+003,1.338703e-002
2.360481e+003,1.335877e-002
2.362409e+003,1.336352e-002
2.364338e+003,1.326680e-002
2.366267e+003,1.301469e-002
2.368195e+003,1.264652e-002
2.370124e+003,1.224666e-002
2.372052e+003,1.176668e-002
2.373980e+003,1.129284e-002
2.375909e+003,1.079843e-002
2.377838e+003,1.026698e-002
2.379766e+003,9.745432e-003
2.381695e+003,9.554797e-003
2.383623e+003,9.603337e-003
2.385552e+003,9.510462e-003
2.387480e+003,9.354292e-003
2.389408e+003,9.403995e-003
2.391337e+003,9.417167e-003
2.393266e+003,9.303479e-003
2.395194e+003,9.306458e-003
2.397123e+003,9.410733e-003
2.399051e+003,9.464439e-003
2.400979e+003,9.440023e-003
2.402908e+003,9.401456e-003
2.404836e+003,9.447643e-003
2.406765e+003,9.419775e-003
2.408694e+003,9.267733e-003
2.410622e+003,9.262994e-003
2.412551e+003,9.354733e-003
2.414479e+003,9.414594e-003
2.416407e+003,9.448760e-003
2.418336e+003,9.396886e-003
2.420264e+003,9.344610e-003
2.422193e+003,9.289058e-003
2.424122e+003,9.298807e-003
2.426050e+003,9.417506e-003
2.427979e+003,9.438974e-003
2.429907e+003,9.428442e-003
2.431835e+003,9.483234e-003
2.433764e+003,9.498338e-003
2.435692e+003,9.431558e-003
2.437621e+003,9.402675e-003
2.439550e+003,9.372304e-003
2.441478e+003,9.394278e-003
2.443406e+003,9.459495e-003
2.445335e+003,9.496644e-003
2.447263e+003,9.534712e-003
2.449192e+003,9.547109e-003
2.451121e+003,9.451130e-003
2.453049e+003,9.443172e-003
2.454978e+003,9.527363e-003
2.456906e+003,9.611298e-003
2.458834e+003,9.643515e-003
2.460763e+003,9.585248e-003
2.462691e+003,9.469857e-003
2.464620e+003,9.430847e-003
2.466549e+003,9.498169e-003
2.468477e+003,9.534509e-003
2.470406e+003,9.457124e-003
2.472334e+003,9.398070e-003
2.474262e+003,9.471551e-003
2.476191e+003,9.495290e-003
2.478119e+003,9.416252e-003
2.480048e+003,9.374505e-003
2.481977e+003,9.401863e-003
2.483905e+003,9.403047e-003
2.485833e+003,9.408804e-003
2.487762e+003,9.474734e-003
2.489690e+003,9.440158e-003
2.491619e+003,9.476223e-003
2.493547e+003,9.559980e-003
2.495476e+003,9.626305e-003
2.497405e+003,9.652290e-003
2.499333e+003,9.597443e-003
2.501261e+003,9.559167e-003
2.503190e+003,9.570412e-003
2.505118e+003,9.586841e-003
2.507047e+003,9.520453e-003
2.508975e+003,9.492411e-003
2.510904e+003,9.568718e-003
2.512833e+003,9.652493e-003
2.514761e+003,9.615431e-003
2.516689e+003,9.525296e-003
2.518618e+003,9.655236e-003
2.520546e+003,9.829511e-003
2.522475e+003,9.744618e-003
2.524403e+003,9.599882e-003
2.526332e+003,9.610113e-003
2.528260e+003,9.702127e-003
2.530189e+003,9.660725e-003
2.532117e+003,9.574443e-003
2.534046e+003,9.536406e-003
2.535974e+003,9.608994e-003
2.537903e+003,9.624002e-003
2.539831e+003,9.695758e-003
2.541760e+003,9.726490e-003
2.543688e+003,9.742280e-003
2.545617e+003,9.769661e-003
2.547545e+003,9.810125e-003
2.549474e+003,9.778031e-003
2.551402e+003,9.751667e-003
2.553331e+003,9.772846e-003
2.555259e+003,9.783352e-003
2.557188e+003,9.738723e-003
2.559116e+003,9.702500e-003
2.561045e+003,9.701382e-003
2.562973e+003,9.699248e-003
2.564902e+003,9.739095e-003
2.566830e+003,9.903132e-003
2.568759e+003,9.843170e-003
2.570687e+003,9.728794e-003
2.572616e+003,9.784131e-003
2.574544e+003,9.891742e-003
2.576473e+003,9.931302e-003
2.578401e+003,9.866659e-003
2.580330e+003,9.775388e-003
2.582258e+003,9.742314e-003
2.584187e+003,9.815006e-003
2.586115e+003,9.877709e-003
2.588044e+003,9.834629e-003
2.589972e+003,9.901064e-003
2.591901e+003,9.970323e-003
2.593829e+003,9.875879e-003
2.595758e+003,9.822868e-003
2.597686e+003,9.859507e-003
2.599615e+003,9.840831e-003
2.601543e+003,9.797314e-003
2.603472e+003,9.774913e-003
2.605400e+003,9.816801e-003
2.607329e+003,9.865575e-003
2.609257e+003,9.923403e-003
2.611186e+003,9.965408e-003
2.613114e+003,1.001084e-002
2.615043e+003,1.004163e-002
2.616971e+003,1.006167e-002
2.618900e+003,1.005245e-002
2.620828e+003,1.003715e-002
2.622757e+003,1.009663e-002
2.624685e+003,1.008870e-002
2.626614e+003,1.012312e-002
2.628542e+003,1.023991e-002
2.630471e+003,1.024398e-002
2.632399e+003,1.024957e-002
2.634328e+003,1.025571e-002
2.636256e+003,1.019387e-002
2.638185e+003,1.020269e-002
2.640113e+003,1.023567e-002
2.642042e+003,1.025873e-002
2.643970e+003,1.040854e-002
2.645899e+003,1.045372e-002
2.647827e+003,1.047503e-002
2.649756e+003,1.056129e-002
2.651684e+003,1.060872e-002
2.653613e+003,1.060112e-002
2.655541e+003,1.064149e-002
2.657470e+003,1.059307e-002
2.659398e+003,1.058248e-002
2.661327e+003,1.066563e-002
2.663255e+003,1.070523e-002
2.665184e+003,1.067945e-002
2.667112e+003,1.072421e-002
2.669041e+003,1.084992e-002
2.670969e+003,1.085281e-002
2.672898e+003,1.075984e-002
2.674826e+003,1.074065e-002
2.676755e+003,1.083814e-002
2.678683e+003,1.088933e-002
2.680612e+003,1.087799e-002
2.682540e+003,1.087765e-002
2.684469e+003,1.089637e-002
2.686397e+003,1.102295e-002
2.688326e+003,1.117200e-002
2.690254e+003,1.127040e-002
2.692183e+003,1.128591e-002
2.694111e+003,1.119430e-002
2.696040e+003,1.114769e-002
2.697968e+003,1.126241e-002
2.699897e+003,1.140933e-002
2.701825e+003,1.141127e-002
2.703754e+003,1.155951e-002
2.705682e+003,1.172171e-002
2.707611e+003,1.164693e-002
2.709539e+003,1.161616e-002
2.711468e+003,1.163206e-002
2.713396e+003,1.172110e-002
2.715325e+003,1.182871e-002
2.717253e+003,1.184741e-002
2.719182e+003,1.194129e-002
2.721110e+003,1.203200e-002
2.723039e+003,1.213922e-002
2.724967e+003,1.228405e-002
2.726896e+003,1.234326e-002
2.728824e+003,1.234749e-002
2.730753e+003,1.245243e-002
2.732681e+003,1.255344e-002
2.734610e+003,1.265317e-002
2.736538e+003,1.268231e-002
2.738467e+003,1.264461e-002
2.740395e+003,1.273130e-002
2.742324e+003,1.287749e-002
2.744252e+003,1.298277e-002
2.746181e+003,1.299789e-002
2.748109e+003,1.301831e-002
2.750038e+003,1.320490e-002
2.751966e+003,1.335194e-002
2.753895e+003,1.344926e-002
2.755823e+003,1.359761e-002
2.757752e+003,1.375439e-002
2.759680e+003,1.390846e-002
2.761609e+003,1.410471e-002
2.763537e+003,1.435581e-002
2.765466e+003,1.461510e-002
2.767394e+003,1.493426e-002
2.769323e+003,1.516758e-002
2.771251e+003,1.552419e-002
2.773180e+003,1.592636e-002
2.775108e+003,1.637848e-002
2.777037e+003,1.698141e-002
2.778965e+003,1.754477e-002
2.780894e+003,1.809367e-002
2.782822e+003,1.880952e-002
2.784750e+003,1.960835e-002
2.786679e+003,2.036862e-002
2.788608e+003,2.093932e-002
2.790536e+003,2.151380e-002
2.792465e+003,2.226164e-002
2.794393e+003,2.309303e-002
2.796322e+003,2.389639e-002
2.798250e+003,2.454484e-002
2.800178e+003,2.515332e-002
2.802107e+003,2.580299e-002
2.804036e+003,2.634046e-002
2.805964e+003,2.669157e-002
2.807893e+003,2.706172e-002
2.809821e+003,2.728938e-002
2.811750e+003,2.734873e-002
2.813678e+003,2.731079e-002
2.815606e+003,2.720435e-002
2.817535e+003,2.701560e-002
2.819464e+003,2.679950e-002
2.821392e+003,2.641936e-002
2.823321e+003,2.595622e-002
2.825249e+003,2.541771e-002
2.827177e+003,2.475988e-002
2.829106e+003,2.417062e-002
2.831034e+003,2.357314e-002
2.832963e+003,2.294898e-002
2.834892e+003,2.249527e-002
2.836820e+003,2.193211e-002
2.838749e+003,2.121524e-002
2.840677e+003,2.049469e-002
2.842605e+003,1.993762e-002
2.844534e+003,1.931630e-002
2.846462e+003,1.852987e-002
2.848391e+003,1.779939e-002
2.850320e+003,1.738724e-002
2.852248e+003,1.719929e-002
2.854177e+003,1.706718e-002
2.856105e+003,1.697469e-002
2.858033e+003,1.692115e-002
2.859962e+003,1.694950e-002
2.861890e+003,1.692501e-002
2.863819e+003,1.688209e-002
2.865748e+003,1.693266e-002
2.867676e+003,1.696663e-002
2.869604e+003,1.713711e-002
2.871533e+003,1.718747e-002
2.873461e+003,1.730906e-002
2.875390e+003,1.738762e-002
2.877319e+003,1.758628e-002
2.879247e+003,1.794025e-002
2.881176e+003,1.799299e-002
2.883104e+003,1.792955e-002
2.885032e+003,1.799920e-002
2.886961e+003,1.798940e-002
2.888889e+003,1.788235e-002
2.890818e+003,1.777595e-002
2.892747e+003,1.758214e-002
2.894675e+003,1.739710e-002
2.896604e+003,1.736789e-002
2.898532e+003,1.738338e-002
2.900460e+003,1.733827e-002
2.902389e+003,1.727659e-002
2.904317e+003,1.714497e-002
2.906246e+003,1.709875e-002
2.908175e+003,1.705057e-002
2.910103e+003,1.696553e-002
2.912031e+003,1.689714e-002
2.913960e+003,1.673729e-002
2.915888e+003,1.658143e-002
2.917817e+003,1.662749e-002
2.919745e+003,1.696918e-002
2.921674e+003,1.731407e-002
2.923603e+003,1.759380e-002
2.925531e+003,1.788414e-002
2.927459e+003,1.814331e-002
2.929388e+003,1.829742e-002
2.931316e+003,1.856818e-002
2.933245e+003,1.892991e-002
2.935173e+003,1.906024e-002
2.937102e+003,1.906993e-002
2.939031e+003,1.917990e-002
2.940959e+003,1.908634e-002
2.942887e+003,1.891766e-002
2.944816e+003,1.879523e-002
2.946744e+003,1.856738e-002
2.948673e+003,1.819935e-002
2.950601e+003,1.768676e-002
2.952530e+003,1.715682e-002
2.954458e+003,1.662646e-002
2.956387e+003,1.608708e-002
2.958315e+003,1.548052e-002
2.960244e+003,1.474925e-002
2.962172e+003,1.407589e-002
2.964101e+003,1.355023e-002
2.966029e+003,1.310261e-002
2.967958e+003,1.256050e-002
2.969886e+003,1.212221e-002
2.971815e+003,1.187390e-002
2.973743e+003,1.144614e-002
2.975672e+003,1.099280e-002
2.977600e+003,1.080828e-002
2.979529e+003,1.068275e-002
2.981457e+003,1.052476e-002
2.983386e+003,1.031346e-002
2.985314e+003,1.007123e-002
2.987243e+003,9.815175e-003
2.989171e+003,9.728218e-003
2.991100e+003,9.631387e-003
2.993028e+003,9.567872e-003
2.994957e+003,9.596359e-003
2.996885e+003,9.590092e-003
2.998814e+003,9.484182e-003
3.000742e+003,9.358491e-003
3.002671e+003,9.321861e-003
3.004599e+003,9.365973e-003
3.006528e+003,9.431862e-003
3.008456e+003,9.300602e-003
3.010385e+003,9.170903e-003
3.012313e+003,9.198213e-003
3.014242e+003,9.194558e-003
3.016170e+003,9.151681e-003
3.018099e+003,9.179871e-003
3.020027e+003,9.196216e-003
3.021956e+003,9.156182e-003
3.023884e+003,9.120279e-003
3.025813e+003,9.083263e-003
3.027741e+003,8.950754e-003
3.029670e+003,8.900494e-003
3.031598e+003,8.986812e-003
3.033527e+003,8.947575e-003
3.035455e+003,9.061271e-003
3.037384e+003,9.238794e-003
3.039312e+003,9.194254e-003
3.041241e+003,9.035085e-003
3.043169e+003,9.003894e-003
3.045098e+003,9.021080e-003
3.047026e+003,8.946662e-003
3.048955e+003,8.880507e-003
3.050883e+003,8.941926e-003
3.052812e+003,9.062117e-003
3.054740e+003,8.981535e-003
3.056669e+003,8.880068e-003
3.058597e+003,8.822377e-003
3.060526e+003,8.741873e-003
3.062454e+003,8.761888e-003
3.064383e+003,8.781532e-003
3.066311e+003,8.840231e-003
3.068240e+003,8.994491e-003
3.070168e+003,9.021012e-003
3.072097e+003,8.852744e-003
3.074025e+003,8.813011e-003
3.075954e+003,8.846284e-003
3.077882e+003,8.833908e-003
3.079811e+003,8.847975e-003
3.081739e+003,8.828802e-003
3.083668e+003,8.852202e-003
3.085596e+003,8.849666e-003
3.087525e+003,8.702083e-003
3.089453e+003,8.706545e-003
3.091382e+003,8.770577e-003
3.093310e+003,8.841178e-003
3.095239e+003,8.866439e-003
3.097167e+003,8.817305e-003
3.099096e+003,8.861603e-003
3.101024e+003,8.867014e-003
3.102953e+003,8.819198e-003
3.104881e+003,8.813282e-003
3.106810e+003,8.948860e-003
3.108738e+003,8.947643e-003
3.110667e+003,8.989620e-003
3.112595e+003,9.059512e-003
3.114524e+003,9.014923e-003
3.116452e+003,8.873135e-003
3.118381e+003,8.817271e-003
3.120309e+003,8.818489e-003
3.122238e+003,8.806316e-003
3.124166e+003,8.775953e-003
3.126095e+003,8.906379e-003
3.128023e+003,9.005316e-003
3.129952e+003,8.940066e-003
3.131880e+003,8.970812e-003
3.133809e+003,9.156554e-003
3.135737e+003,9.148433e-003
3.137666e+003,9.018509e-003
3.139594e+003,9.044626e-003
3.141523e+003,9.149211e-003
3.143451e+003,9.237000e-003
3.145380e+003,9.201023e-003
3.147308e+003,9.080320e-003
3.149237e+003,9.044491e-003
3.151165e+003,9.157096e-003
3.153094e+003,9.293493e-003
3.155022e+003,9.270881e-003
3.156951e+003,9.170226e-003
3.158879e+003,9.233513e-003
3.160808e+003,9.378838e-003
3.162736e+003,9.376638e-003
3.164665e+003,9.359540e-003
3.166593e+003,9.332525e-003
3.168522e+003,9.279275e-003
3.170450e+003,9.390994e-003
3.172379e+003,9.481777e-003
3.174307e+003,9.407314e-003
3.176236e+003,9.489634e-003
3.178164e+003,9.516389e-003
3.180093e+003,9.546804e-003
3.182021e+003,9.554018e-003
3.183950e+003,9.484723e-003
3.185878e+003,9.493833e-003
3.187807e+003,9.699451e-003
3.189735e+003,9.792570e-003
3.191664e+003,9.611501e-003
3.193592e+003,9.551207e-003
3.195521e+003,9.573868e-003
3.197449e+003,9.533425e-003
3.199378e+003,9.509582e-003
3.201306e+003,9.562351e-003
3.203235e+003,9.547345e-003
3.205163e+003,9.540369e-003
3.207092e+003,9.538269e-003
3.209020e+003,9.673701e-003
3.210948e+003,9.825139e-003
3.212877e+003,9.822258e-003
3.214806e+003,9.754276e-003
3.216734e+003,9.729167e-003
3.218663e+003,9.788435e-003
3.220591e+003,9.829883e-003
3.222520e+003,9.823376e-003
3.224448e+003,9.844356e-003
3.226376e+003,9.917844e-003
3.228305e+003,1.000633e-002
3.230234e+003,1.010528e-002
3.232162e+003,1.006367e-002
3.234091e+003,1.012051e-002
3.236019e+003,1.010742e-002
3.237948e+003,9.946320e-003
3.239876e+003,1.009748e-002
3.241804e+003,1.052554e-002
3.243733e+003,1.063341e-002
3.245662e+003,1.053250e-002
3.247590e+003,1.071501e-002
3.249519e+003,1.070170e-002
3.251447e+003,1.065487e-002
3.253375e+003,1.064658e-002
3.255304e+003,1.070251e-002
3.257232e+003,1.090048e-002
3.259161e+003,1.109942e-002
3.261090e+003,1.122568e-002
3.263018e+003,1.115354e-002
3.264947e+003,1.094764e-002
3.266875e+003,1.089446e-002
3.268803e+003,1.114558e-002
3.270732e+003,1.123752e-002
3.272660e+003,1.116119e-002
3.274589e+003,1.120542e-002
3.276518e+003,1.124245e-002
3.278446e+003,1.120018e-002
3.280375e+003,1.130764e-002
3.282303e+003,1.140107e-002
3.284231e+003,1.149877e-002
3.286160e+003,1.144927e-002
3.288088e+003,1.130706e-002
3.290017e+003,1.118369e-002
3.291946e+003,1.116863e-002
3.293874e+003,1.115983e-002
3.295802e+003,1.112784e-002
3.297731e+003,1.109164e-002
3.299659e+003,1.105969e-002
3.301588e+003,1.097608e-002
3.303516e+003,1.086956e-002
3.305445e+003,1.076911e-002
3.307374e+003,1.081191e-002
3.309302e+003,1.071643e-002
3.311230e+003,1.054999e-002
3.313159e+003,1.043054e-002
3.315087e+003,1.032747e-002
3.317016e+003,1.035907e-002
3.318944e+003,1.033552e-002
3.320873e+003,1.020266e-002
3.322802e+003,1.008361e-002
3.324730e+003,1.002952e-002
3.326658e+003,1.006550e-002
3.328587e+003,1.005946e-002
3.330515e+003,9.925098e-003
3.332444e+003,9.707617e-003
3.334372e+003,9.721780e-003
3.336301e+003,9.876454e-003
3.338229e+003,9.918556e-003
3.340158e+003,9.741263e-003
3.342086e+003,9.678342e-003
3.344015e+003,9.705821e-003
3.345943e+003,9.836900e-003
3.347872e+003,9.866760e-003
3.349800e+003,9.720899e-003
3.351729e+003,9.614652e-003
3.353657e+003,9.695351e-003
3.355586e+003,9.766645e-003
3.357514e+003,9.772135e-003
3.359443e+003,9.621562e-003
3.361371e+003,9.501386e-003
3.363300e+003,9.514662e-003
3.365229e+003,9.490989e-003
3.367157e+003,9.344204e-003
3.369085e+003,9.103429e-003
3.371014e+003,8.986779e-003
3.372942e+003,9.126506e-003
3.374871e+003,9.040295e-003
3.376799e+003,9.038333e-003
3.378728e+003,8.961747e-003
3.380656e+003,8.747925e-003
3.382585e+003,8.615654e-003
3.384513e+003,8.665306e-003
3.386442e+003,8.624711e-003
3.388370e+003,8.387578e-003
3.390299e+003,8.376869e-003
3.392227e+003,8.491836e-003
3.394156e+003,8.326811e-003
3.396084e+003,8.287971e-003
3.398013e+003,8.310261e-003
3.399941e+003,8.231710e-003
3.401870e+003,8.181702e-003
3.403798e+003,8.194533e-003
3.405727e+003,8.279494e-003
3.407655e+003,8.383558e-003
3.409584e+003,8.383963e-003
3.411512e+003,8.421427e-003
3.413441e+003,8.275577e-003
3.415369e+003,8.164685e-003
3.417298e+003,8.287937e-003
3.419226e+003,8.382780e-003
3.421155e+003,8.393117e-003
3.423083e+003,8.261731e-003
3.425012e+003,8.254335e-003
3.426940e+003,8.331506e-003
3.428869e+003,8.370114e-003
3.430797e+003,8.373356e-003
3.432726e+003,8.403049e-003
3.434654e+003,8.410751e-003
3.436583e+003,8.178697e-003
3.438511e+003,8.149661e-003
3.440440e+003,8.304317e-003
3.442368e+003,8.239916e-003
3.444297e+003,8.124510e-003
3.446225e+003,8.159587e-003
3.448154e+003,8.329581e-003
3.450082e+003,8.334140e-003
3.452011e+003,8.332182e-003
3.453939e+003,8.327824e-003
3.455868e+003,8.154624e-003
3.457796e+003,8.119378e-003
3.459725e+003,8.175996e-003
3.461653e+003,8.410987e-003
3.463582e+003,8.502074e-003
3.465510e+003,8.375518e-003
3.467439e+003,8.320664e-003
3.469367e+003,8.403150e-003
3.471296e+003,8.325190e-003
3.473224e+003,8.360115e-003
3.475153e+003,8.341166e-003
3.477081e+003,8.358595e-003
3.479010e+003,8.386902e-003
3.480938e+003,8.287599e-003
3.482867e+003,8.255112e-003
3.484795e+003,8.506973e-003
3.486724e+003,8.632215e-003
3.488652e+003,8.482814e-003
3.490581e+003,8.379031e-003
3.492509e+003,8.411664e-003
3.494438e+003,8.477949e-003
3.496366e+003,8.510757e-003
3.498295e+003,8.595882e-003
3.500223e+003,8.680685e-003
3.502152e+003,8.586960e-003
3.504080e+003,8.490889e-003
3.506009e+003,8.426967e-003
3.507937e+003,8.388253e-003
3.509866e+003,8.398928e-003
3.511794e+003,8.627754e-003
3.513723e+003,8.626435e-003
3.515651e+003,8.459400e-003
3.517580e+003,8.588819e-003
3.519508e+003,8.613254e-003
3.521437e+003,8.445616e-003
3.523365e+003,8.451258e-003
3.525294e+003,8.552625e-003
3.527222e+003,8.587163e-003
3.529151e+003,8.681531e-003
3.531079e+003,8.547827e-003
3.533008e+003,8.555227e-003
3.534936e+003,8.657903e-003
3.536865e+003,8.697960e-003
3.538793e+003,8.596828e-003
3.540722e+003,8.422508e-003
3.542650e+003,8.357278e-003
3.544579e+003,8.653813e-003
3.546507e+003,9.081165e-003
3.548436e+003,9.058530e-003
3.550364e+003,8.900529e-003
3.552293e+003,8.835261e-003
3.554221e+003,8.720270e-003
3.556150e+003,8.600343e-003
3.558078e+003,8.713611e-003
3.560007e+003,8.749244e-003
3.561935e+003,8.576551e-003
3.563864e+003,8.720879e-003
3.565792e+003,9.058530e-003
3.567721e+003,8.997197e-003
3.569649e+003,8.828869e-003
3.571578e+003,8.782140e-003
3.573506e+003,8.671187e-003
3.575435e+003,8.654523e-003
3.577363e+003,8.745457e-003
3.579292e+003,8.778421e-003
3.581220e+003,8.690015e-003
3.583149e+003,8.717938e-003
3.585077e+003,8.966787e-003
3.587006e+003,9.090436e-003
3.588934e+003,8.820788e-003
3.590863e+003,8.688359e-003
3.592791e+003,8.919976e-003
3.594720e+003,9.061035e-003
3.596648e+003,8.990972e-003
3.598577e+003,8.767704e-003
3.600505e+003,8.791979e-003
3.602434e+003,8.821329e-003
3.604362e+003,8.868333e-003
3.606291e+003,8.925387e-003
3.608219e+003,9.115068e-003
3.610148e+003,9.117911e-003
3.612076e+003,9.057110e-003
3.614005e+003,8.842159e-003
3.615933e+003,8.820315e-003
3.617862e+003,9.086782e-003
3.619790e+003,9.053693e-003
3.621719e+003,8.811151e-003
3.623647e+003,8.634040e-003
3.625576e+003,8.788328e-003
3.627504e+003,9.324433e-003
3.629433e+003,9.544535e-003
3.631361e+003,8.937901e-003
3.633290e+003,8.710028e-003
3.635218e+003,8.716958e-003
3.637146e+003,8.940607e-003
3.639075e+003,8.869855e-003
3.641004e+003,8.705904e-003
3.642932e+003,8.799756e-003
3.644861e+003,8.964927e-003
3.646789e+003,9.216150e-003
3.648718e+003,9.470467e-003
3.650646e+003,9.245800e-003
3.652574e+003,8.749379e-003
3.654503e+003,8.947168e-003
3.656432e+003,9.181935e-003
3.658360e+003,8.803103e-003
3.660289e+003,8.607339e-003
3.662217e+003,8.639752e-003
3.664146e+003,8.527011e-003
3.666074e+003,8.660337e-003
3.668002e+003,9.032142e-003
3.669931e+003,9.123968e-003
3.671860e+003,8.943584e-003
3.673788e+003,9.357103e-003
3.675717e+003,9.493359e-003
3.677645e+003,8.923222e-003
3.679573e+003,8.711110e-003
3.681502e+003,8.778421e-003
3.683430e+003,8.888557e-003
3.685359e+003,8.913550e-003
3.687288e+003,9.242584e-003
3.689216e+003,9.386660e-003
3.691145e+003,9.165861e-003
3.693073e+003,8.872729e-003
3.695001e+003,8.887643e-003
3.696930e+003,8.950281e-003
3.698858e+003,8.897045e-003
3.700787e+003,9.098624e-003
3.702716e+003,9.136556e-003
3.704644e+003,8.929615e-003
3.706573e+003,9.019253e-003
3.708501e+003,9.053524e-003
3.710429e+003,9.238353e-003
3.712358e+003,9.211481e-003
3.714286e+003,8.658342e-003
3.716215e+003,8.619202e-003
3.718144e+003,9.031330e-003
3.720072e+003,9.065669e-003
3.722000e+003,9.028455e-003
3.723929e+003,9.078256e-003
3.725857e+003,8.842429e-003
3.727786e+003,8.612511e-003
3.729714e+003,8.813315e-003
3.731643e+003,9.149075e-003
3.733572e+003,9.361708e-003
3.735500e+003,9.563367e-003
3.737428e+003,9.270915e-003
3.739357e+003,8.910438e-003
3.741285e+003,9.172933e-003
3.743214e+003,1.009263e-002
3.745142e+003,9.941541e-003
3.747071e+003,9.357306e-003
3.749000e+003,9.683358e-003
3.750928e+003,9.723644e-003
3.752856e+003,9.354598e-003
3.754785e+003,8.983260e-003
3.756713e+003,8.909558e-003
3.758642e+003,8.990601e-003
3.760570e+003,9.099944e-003
3.762499e+003,8.963134e-003
3.764427e+003,8.843140e-003
3.766356e+003,8.887237e-003
3.768284e+003,8.876584e-003
3.770213e+003,8.917709e-003
3.772141e+003,8.925184e-003
3.774070e+003,8.830492e-003
3.775998e+003,8.769799e-003
3.777927e+003,8.876010e-003
3.779855e+003,9.172662e-003
3.781784e+003,9.109248e-003
3.783712e+003,8.955219e-003
3.785641e+003,8.947981e-003
3.787569e+003,8.886121e-003
3.789498e+003,8.576686e-003
3.791426e+003,8.490754e-003
3.793355e+003,8.708540e-003
3.795283e+003,8.862178e-003
3.797212e+003,8.908239e-003
3.799140e+003,9.131344e-003
3.801069e+003,9.260185e-003
3.802997e+003,8.844120e-003
3.804926e+003,8.885648e-003
3.806854e+003,9.075075e-003
3.808783e+003,8.735788e-003
3.810711e+003,8.658038e-003
3.812640e+003,8.744611e-003
3.814568e+003,8.852676e-003
3.816497e+003,9.158348e-003
3.818425e+003,9.176960e-003
3.820354e+003,9.315834e-003
3.822282e+003,9.125118e-003
3.824211e+003,8.680246e-003
3.826139e+003,8.540460e-003
3.828068e+003,8.684911e-003
3.829996e+003,8.932726e-003
3.831925e+003,8.808548e-003
3.833853e+003,8.717194e-003
3.835782e+003,8.998516e-003
3.837710e+003,9.318983e-003
3.839639e+003,9.203696e-003
3.841567e+003,9.174118e-003
3.843496e+003,9.245867e-003
3.845424e+003,8.834044e-003
3.847353e+003,8.317929e-003
3.849281e+003,8.384808e-003
3.851210e+003,9.383545e-003
3.853138e+003,1.012166e-002
3.855067e+003,9.415778e-003
3.856995e+003,8.778658e-003
3.858924e+003,8.677136e-003
3.860852e+003,8.767297e-003
3.862781e+003,9.159803e-003
3.864709e+003,9.295862e-003
3.866638e+003,8.852676e-003
3.868566e+003,8.935162e-003
3.870495e+003,9.034070e-003
3.872423e+003,9.124746e-003
3.874352e+003,9.264992e-003
3.876280e+003,9.130126e-003
3.878209e+003,8.989349e-003
3.880137e+003,8.918149e-003
3.882066e+003,8.594396e-003
3.883994e+003,8.709758e-003
3.885923e+003,9.005823e-003
3.887851e+003,8.791709e-003
3.889780e+003,9.032210e-003
3.891708e+003,9.187350e-003
3.893637e+003,8.925623e-003
3.895565e+003,8.696607e-003
3.897494e+003,8.802190e-003
3.899422e+003,8.881724e-003
3.901351e+003,8.813687e-003
3.903279e+003,9.099098e-003
3.905208e+003,9.102481e-003
3.907136e+003,8.762767e-003
3.909065e+003,8.657362e-003
3.910993e+003,8.624069e-003
3.912922e+003,8.618594e-003
3.914850e+003,8.780450e-003
3.916779e+003,8.841448e-003
3.918707e+003,8.766283e-003
3.920636e+003,8.610685e-003
3.922564e+003,8.716958e-003
3.924493e+003,8.946221e-003
3.926421e+003,8.869314e-003
3.928350e+003,8.497377e-003
3.930278e+003,8.454164e-003
3.932207e+003,8.711921e-003
3.934135e+003,8.533093e-003
3.936064e+003,8.404130e-003
3.937992e+003,8.555058e-003
3.939921e+003,8.692720e-003
3.941849e+003,8.715267e-003
3.943778e+003,8.675379e-003
3.945706e+003,8.784541e-003
3.947635e+003,8.753301e-003
3.949563e+003,8.705261e-003
3.951492e+003,8.792521e-003
3.953420e+003,8.619034e-003
3.955349e+003,8.332215e-003
3.957277e+003,8.448825e-003
3.959206e+003,8.473725e-003
3.961134e+003,8.330155e-003
3.963063e+003,8.555734e-003
3.964991e+003,8.790018e-003
3.966920e+003,8.786468e-003
3.968848e+003,8.753977e-003
3.970777e+003,8.666488e-003
3.972705e+003,8.710096e-003
3.974634e+003,8.673722e-003
3.976562e+003,8.565703e-003
3.978491e+003,8.757391e-003
3.980419e+003,8.871783e-003
3.982348e+003,8.765844e-003
3.984276e+003,8.694241e-003
3.986205e+003,8.621433e-003
3.988133e+003,8.855144e-003
3.990062e+003,9.094631e-003
3.991990e+003,8.889875e-003
3.993919e+003,8.533971e-003
3.995847e+003,8.299758e-003
3.997776e+003,8.428622e-003
3.999704e+003,8.529951e-003
4.001633e+003,0.000000e+000
