X,Y
3999.704,-0.0012542653130367398
3997.776,-0.0014626882039010525
3995.847,-0.00165810517501086
3993.919,-0.0018559417221695185
3991.99,-0.001788862282410264
3990.062,-0.0016006678342819214
3988.133,-0.001543255988508463
3986.205,-0.0015586413210257888
3984.276,-0.0016943461960181594
3982.348,-0.0016256903763860464
3980.419,-0.0015296529745683074
3978.491,-0.0016798897413536906
3976.562,-0.0016620660899206996
3974.634,-0.0015222239308059216
3972.705,-0.0015955179696902633
3970.777,-0.0017384716775268316
3968.848,-0.0018966528587043285
3966.92,-0.0019031517440453172
3964.991,-0.0017480750102549791
3963.063,-0.0017333893338218331
3961.134,-0.0017136867390945554
3959.206,-0.001529850997030735
3957.277,-0.0014171806396916509
3955.349,-0.001391419442370534
3953.42,-0.001504790037870407
3951.492,-0.0015235446626320481
3949.563,-0.001287302584387362
3947.635,-0.0015248983399942517
3945.706,-0.0018073737155646086
3943.778,-0.0018929910147562623
3941.849,-0.0019875627476722
3939.921,-0.0018073737155646086
3937.992,-0.0016602176474407315
3936.064,-0.001572111388668418
3934.135,-0.0014676746213808656
3932.207,-0.0015326904831454158
3930.278,-0.0017177461413666606
3928.35,-0.0018512897659093142
3926.421,-0.001787047367542982
3924.493,-0.0018041729927062988
3922.564,-0.0016840155003592372
3920.636,-0.0018367725424468517
3918.707,-0.002120825694873929
3916.779,-0.002110109431669116
3914.85,-0.001833308138884604
3912.922,-0.001837960327975452
3910.993,-0.0020675056148320436
3909.065,-0.0018240695353597403
3907.136,-0.0017909741727635264
3905.208,-0.0020490053575485945
3903.279,-0.00214726896956563
3901.351,-0.002012101234868169
3899.422,-0.0020308669190853834
3897.494,-0.0018566675717011094
3895.565,-0.0018476934637874365
3893.637,-0.0019902014173567295
3891.708,-0.002288426272571087
3889.78,-0.002271945821121335
3887.851,-0.001896982779726386
3885.923,-0.001967310905456543
3883.994,-0.0019753591623157263
3882.066,-0.0019811971578747034
3880.137,-0.002264496637508273
3878.209,-0.002193623222410679
3876.28,-0.002204798860475421
3874.352,-0.0025321291759610176
3872.423,-0.002506071701645851
3870.495,-0.0023015111219137907
3868.566,-0.0023345674853771925
3866.638,-0.002216633642092347
3864.709,-0.0025031398981809616
3862.781,-0.0024470333009958267
3860.852,-0.002388283144682646
3858.924,-0.0023101791739463806
3856.995,-0.0022597501520067453
3855.067,-0.0026116424705833197
3853.138,-0.003265049774199724
3851.21,-0.002776551526039839
3849.281,-0.0021680728532373905
3847.353,-0.00199063029140234
3845.424,-0.0020945456344634295
3843.496,-0.002467196900397539
3841.567,-0.0027752676978707314
3839.639,-0.002797358436509967
3837.71,-0.0030005669686943293
3835.782,-0.002818921348080039
3833.853,-0.0022595853079110384
3831.925,-0.0020635484252125025
3829.996,-0.002058700891211629
3828.068,-0.0021381028927862644
3826.139,-0.002334106247872114
3824.211,-0.0023517704103142023
3822.282,-0.0026552798226475716
3820.354,-0.0027739177457988262
3818.425,-0.0023445861879736185
3816.497,-0.002456291578710079
3814.568,-0.002557855797931552
3812.64,-0.0023961258120834827
3810.711,-0.002216798486188054
3808.783,-0.002169061917811632
3806.854,-0.0026668058708310127
3804.926,-0.002756468253210187
3802.997,-0.0027656210586428642
3801.069,-0.002968647051602602
3799.14,-0.0029629867058247328
3797.212,-0.0028861050959676504
3795.283,-0.002638121834024787
3793.355,-0.002313310280442238
3791.426,-0.002235588151961565
3789.498,-0.002233808161690831
3787.569,-0.002442025113850832
3785.641,-0.0025468538515269756
3783.712,-0.002558876760303974
3781.784,-0.002509563695639372
3779.855,-0.0027443517465144396
3777.927,-0.0026127623859792948
3775.998,-0.002361459191888571
3774.07,-0.00228595407679677
3772.141,-0.0023006871342658997
3770.213,-0.0026814269367605448
3768.284,-0.002872873330488801
3766.356,-0.0026416785549372435
3764.427,-0.002593198325484991
3762.499,-0.0024470333009958267
3760.57,-0.0025980069767683744
3758.642,-0.002608612412586808
3756.713,-0.0027093507815152407
3754.785,-0.0029966512229293585
3752.856,-0.003386973636224866
3750.928,-0.0038157033268362284
3748.999,-0.0037257010117173195
3747.071,-0.0033186175860464573
3745.142,-0.0033928256016224623
3743.214,-0.003449138952419162
3741.285,-0.0030676897149533033
3739.357,-0.0032696868292987347
3737.428,-0.003421459812670946
3735.5,-0.0036603554617613554
3733.571,-0.0038418795447796583
3731.643,-0.0037192620802670717
3729.714,-0.003159210318699479
3727.786,-0.0028769876807928085
3725.857,-0.0030372883193194866
3723.929,-0.0030968061182647943
3722.0,-0.0032571572810411453
3720.072,-0.003223743289709091
3718.143,-0.0031134523451328278
3716.215,-0.003042914904654026
3714.286,-0.00335307652130723
3712.358,-0.004037771839648485
3710.429,-0.0041625965386629105
3708.501,-0.0036552955862134695
3706.572,-0.003169012488797307
3704.644,-0.0030829226598143578
3702.715,-0.0034415454138070345
3700.787,-0.00359877897426486
3698.858,-0.0033778008073568344
3696.93,-0.003265904961153865
3695.001,-0.0032914893236011267
3693.073,-0.003520695259794593
3691.144,-0.003894062479957938
3689.216,-0.003964823205024004
3687.287,-0.0038140611723065376
3685.359,-0.0034657716751098633
3683.43,-0.0034093947615474463
3681.502,-0.0033552793320268393
3679.573,-0.003664692398160696
3677.645,-0.004012822173535824
3675.716,-0.004630165174603462
3673.788,-0.004334594588726759
3671.859,-0.0037539848126471043
3669.931,-0.003864868311211467
3668.002,-0.0036735304165631533
3666.074,-0.0033080296125262976
3664.145,-0.0031024646013975143
3662.217,-0.00323387305252254
3660.288,-0.0034940396435558796
3658.36,-0.003687657881528139
3656.431,-0.00408727303147316
3654.503,-0.00406488636508584
3652.574,-0.0038292021490633488
3650.646,-0.004093345254659653
3648.717,-0.004273999482393265
3646.789,-0.003957829903811216
3644.86,-0.003511065151542425
3642.932,-0.003284090431407094
3641.003,-0.0032287752255797386
3639.075,-0.003265312872827053
3637.146,-0.0033934174571186304
3635.218,-0.0035012047737836838
3633.289,-0.003403871785849333
3631.361,-0.0033297643531113863
3629.432,-0.0039093648083508015
3627.504,-0.004068136215209961
3625.575,-0.0033488678745925426
3623.647,-0.002974965376779437
3621.718,-0.0032577163074165583
3619.79,-0.0037085851654410362
3617.861,-0.0036997150164097548
3615.933,-0.0034264237619936466
3614.004,-0.0034305001609027386
3612.076,-0.003799609374254942
3610.147,-0.00383655889891088
3608.219,-0.0038191848434507847
3606.29,-0.0037260623648762703
3604.362,-0.00343007268384099
3602.433,-0.003345777280628681
3600.505,-0.0035221742000430822
3598.577,-0.003506759414449334
3596.648,-0.0034085731022059917
3594.72,-0.003717520972713828
3592.791,-0.0038392520509660244
3590.863,-0.0036151104141026735
3588.934,-0.0038283809553831816
3587.006,-0.003980780020356178
3585.077,-0.003618494840338826
3583.149,-0.003394337836652994
3581.22,-0.0034141617361456156
3579.292,-0.0033658333122730255
3577.363,-0.003499167039990425
3575.435,-0.0035940140951424837
3573.506,-0.003378557041287422
3571.578,-0.003422182984650135
3569.649,-0.0038471012376248837
3567.721,-0.003996276296675205
3565.792,-0.0037545759696513414
3563.864,-0.0034707679878920317
3561.935,-0.003619612194597721
3560.007,-0.003712691832333803
3558.078,-0.0036639366298913956
3556.15,-0.0038791208062320948
3554.221,-0.004036524333059788
3552.293,-0.003866773098707199
3550.364,-0.003675731597468257
3548.436,-0.003676060354337096
3546.507,-0.003762393957003951
3544.579,-0.0038551802281290293
3542.65,-0.0039048991166055202
3540.722,-0.0039179353043437
3538.793,-0.0037611129228025675
3536.865,-0.0037765514571219683
3534.936,-0.003975986503064632
3533.008,-0.003905194578692317
3531.079,-0.0037965220399200916
3529.151,-0.003872815752401948
3527.222,-0.0038323879707604647
3525.294,-0.003832026617601514
3523.365,-0.003893898334354162
3521.437,-0.003917410038411617
3519.508,-0.0038768220692873
3517.58,-0.003848086576908827
3515.651,-0.0038429631385952234
3513.723,-0.003743965644389391
3511.794,-0.003793861484155059
3509.866,-0.004045453388243914
3507.937,-0.0039043736178427935
3506.009,-0.0038510095328092575
3504.08,-0.0040784431621432304
3502.152,-0.004152488429099321
3500.223,-0.004163088742643595
3498.295,-0.004193083383142948
3496.366,-0.004093968775123358
3494.438,-0.004044731147587299
3492.509,-0.0041116271167993546
3490.581,-0.004160168115049601
3488.652,-0.004144086968153715
3486.724,-0.004038067534565926
3484.795,-0.0038547534495592117
3482.867,-0.0038977733347564936
3480.938,-0.003939048852771521
3479.01,-0.003862569574266672
3477.081,-0.0040090796537697315
3475.153,-0.004170964937657118
3473.224,-0.004263401962816715
3471.296,-0.004266978241503239
3469.367,-0.004162793513387442
3467.439,-0.004192788153886795
3465.51,-0.004180088173598051
3463.582,-0.004161054268479347
3461.653,-0.004320652224123478
3459.725,-0.00435381755232811
3457.796,-0.00418238528072834
3455.868,-0.004054119810461998
3453.939,-0.004026741720736027
3452.011,-0.004032486584037542
3450.082,-0.004083497915416956
3448.154,-0.004174279514700174
3446.225,-0.0041520618833601475
3444.297,-0.004084187559783459
3442.368,-0.0041380152106285095
3440.44,-0.00420647207647562
3438.511,-0.004314911086112261
3436.583,-0.004293783102184534
3434.654,-0.004280462861061096
3432.726,-0.004286663606762886
3430.797,-0.004204831086099148
3428.869,-0.0040831370279192924
3426.94,-0.004146548453718424
3425.012,-0.004265895113348961
3423.083,-0.004298441577702761
3421.155,-0.004336234647780657
3419.226,-0.004361362662166357
3417.298,-0.00432576984167099
3415.369,-0.004205258097499609
3413.441,-0.004251097794622183
3411.512,-0.0041234758682549
3409.584,-0.0040862224996089935
3407.655,-0.00434532156214118
3405.727,-0.00448602857068181
3403.798,-0.004356015473604202
3401.87,-0.00423498684540391
3399.941,-0.004240105859935284
3398.013,-0.004354801960289478
3396.084,-0.004438901785761118
3394.156,-0.004237710498273373
3392.227,-0.00403714831918478
3390.299,-0.004013544414192438
3388.37,-0.003964560572057962
3386.442,-0.0038058499339967966
3384.513,-0.0036308825947344303
3382.585,-0.0035959528759121895
3380.656,-0.003636829787865281
3378.728,-0.003420210676267743
3376.799,-0.0031950632110238075
3374.871,-0.003084370167925954
3372.942,-0.0029546937439590693
3371.014,-0.0027752018067985773
3369.085,-0.0026072619948536158
3367.157,-0.0024946073535829782
3365.228,-0.0025104533415287733
3363.3,-0.0024462754372507334
3361.371,-0.002403374994173646
3359.443,-0.002453556749969721
3357.514,-0.0022953476291149855
3355.586,-0.002184260403737426
3353.657,-0.0022305117454379797
3351.729,-0.0023573399521410465
3349.8,-0.0025240913964807987
3347.872,-0.0023824176751077175
3345.943,-0.0022568823769688606
3344.015,-0.002498132409527898
3342.086,-0.00258400896564126
3340.158,-0.002431547502055764
3338.229,-0.0023005553521215916
3336.301,-0.002252498408779502
3334.372,-0.0023934238124638796
3332.444,-0.0026183612644672394
3330.515,-0.0026504385750740767
3328.587,-0.0025664528366178274
3326.658,-0.0024218603502959013
3324.73,-0.0023404997773468494
3322.801,-0.002396158641204238
3320.873,-0.0025455032009631395
3318.944,-0.0025298562832176685
3317.016,-0.0024561926256865263
3315.087,-0.0022119523491710424
3313.159,-0.002021698746830225
3311.23,-0.002069649053737521
3309.302,-0.0020849169231951237
3307.373,-0.0018945084884762764
3305.445,-0.0017993884393945336
3303.516,-0.0015641219215467572
3301.588,-0.001387092750519514
3299.659,-0.0014687313232570887
3297.731,-0.0016144997207447886
3295.802,-0.0015543493209406734
3293.874,-0.0013220550026744604
3291.945,-0.0012646062532439828
3290.017,-0.0012071499368175864
3288.088,-0.0011498181847855449
3286.16,-0.0011467448202893138
3284.231,-0.001065508578903973
3282.303,-0.0010947923874482512
3280.374,-0.0010147694265469909
3278.446,-0.0009062637691386044
3276.517,-0.0009932490065693855
3274.589,-0.001064847456291318
3272.66,-0.00112694944255054
3270.732,-0.0011995502281934023
3268.803,-0.0011724543292075396
3266.875,-0.001173082273453474
3264.946,-0.0011676958529278636
3263.018,-0.001008025836199522
3261.089,-0.0011135977692902088
3259.161,-0.001371503109112382
3257.232,-0.0014825343387201428
3255.304,-0.0014547297032549977
3253.375,-0.0013971993466839194
3251.447,-0.0014635137049481273
3249.518,-0.0017081750556826591
3247.59,-0.001861154567450285
3245.661,-0.0018257852643728256
3243.733,-0.0018592410488054156
3241.804,-0.001960582099854946
3239.876,-0.0020890389569103718
3237.947,-0.0022785381879657507
3236.019,-0.002291128970682621
3234.09,-0.002208095509558916
3232.162,-0.00225058663636446
3230.233,-0.0022211167961359024
3228.305,-0.0022907662205398083
3226.376,-0.0024313826579600573
3224.448,-0.0024815283250063658
3222.519,-0.0024547099601477385
3220.591,-0.0025130887515842915
3218.662,-0.0025400021113455296
3216.734,-0.0026116755325347185
3214.805,-0.002718866802752018
3212.877,-0.0027602873742580414
3210.948,-0.002766674617305398
3209.02,-0.0027193278074264526
3207.091,-0.0027862638235092163
3205.163,-0.002919972874224186
3203.234,-0.0029008176643401384
3201.306,-0.0029234944377094507
3199.378,-0.002873762045055628
3197.449,-0.0028803779277950525
3195.521,-0.0028954199515283108
3193.592,-0.0028765269089490175
3191.664,-0.0028651710599660873
3189.735,-0.002867837203666568
3187.807,-0.002904800232499838
3185.878,-0.002872741548344493
3183.95,-0.0027539001312106848
3182.021,-0.002860431093722582
3180.093,-0.0029497244395315647
3178.164,-0.002904800232499838
3176.236,-0.0028417669236660004
3174.307,-0.0028711946215480566
3172.379,-0.002964895451441407
3170.45,-0.0029556809458881617
3168.522,-0.00296394107863307
3166.593,-0.0030777903739362955
3164.665,-0.003224565414711833
3162.736,-0.0032778093591332436
3160.808,-0.0034177449997514486
3158.879,-0.00342192011885345
3156.951,-0.003363005816936493
3155.022,-0.0034174490720033646
3153.094,-0.0034276072401553392
3151.165,-0.0034272456541657448
3149.237,-0.0033786557614803314
3147.308,-0.0034079484175890684
3145.38,-0.0035775175783783197
3143.451,-0.0037170611321926117
3141.523,-0.003796324832364917
3139.594,-0.0038800733163952827
3137.666,-0.003875147318467498
3135.737,-0.003926538396626711
3133.809,-0.003958979155868292
3131.88,-0.003908905200660229
3129.952,-0.003944860305637121
3128.023,-0.004047554451972246
3126.095,-0.004000741057097912
3124.166,-0.003886838210746646
3122.238,-0.003958552144467831
3120.309,-0.004077523946762085
3118.381,-0.004104997031390667
3116.452,-0.004157050512731075
3114.524,-0.004274819511920214
3112.595,-0.004260711371898651
3110.667,-0.004250277299433947
3108.738,-0.00426379544660449
3106.81,-0.004195971414446831
3104.881,-0.004296112339943647
3102.953,-0.004488684702664614
3101.024,-0.004496948793530464
3099.096,-0.0045067863538861275
3097.167,-0.004513902124017477
3095.239,-0.004483470693230629
3093.31,-0.004532822407782078
3091.382,-0.0045568570494651794
3089.453,-0.00453219935297966
3087.525,-0.00456970976665616
3085.596,-0.004625477362424135
3083.668,-0.004620363004505634
3081.739,-0.004534855484962463
3079.811,-0.004645965993404388
3077.882,-0.004767830483615398
3075.954,-0.004739251919090748
3074.025,-0.004784412682056427
3072.097,-0.0047317794524133205
3070.168,-0.00476969825103879
3068.24,-0.004867151845246553
3066.311,-0.004878652282059193
3064.383,-0.0049024708569049835
3062.454,-0.00495462492108345
3060.526,-0.004941325169056654
3058.597,-0.00494050607085228
3056.669,-0.00489149522036314
3054.74,-0.004804533906280994
3052.812,-0.004835106898099184
3050.883,-0.004863318521529436
3048.955,-0.0048783570528030396
3047.026,-0.004832747392356396
3045.098,-0.004910563118755817
3043.169,-0.005037855356931686
3041.241,-0.004939719568938017
3039.312,-0.004881076514720917
3037.384,-0.0049036829732358456
3035.455,-0.004933299031108618
3033.527,-0.005000123754143715
3031.598,-0.005002678371965885
3029.67,-0.00497827585786581
3027.741,-0.005013422109186649
3025.813,-0.004959178157150745
3023.884,-0.00500723160803318
3021.956,-0.0050312066450715065
3020.027,-0.005083476658910513
3018.099,-0.005156139377504587
3016.17,-0.005226531066000462
3014.242,-0.005109085235744715
3012.313,-0.0049331351183354855
3010.385,-0.004979454912245274
3008.456,-0.005021872464567423
3006.528,-0.004917672369629145
3004.599,-0.005007133353501558
3002.671,-0.005025671795010567
3000.742,-0.005043226759880781
2998.814,-0.005169793032109737
2996.885,-0.00518802972510457
2994.957,-0.005152603145688772
2993.028,-0.005179255269467831
2991.1,-0.005160494241863489
2989.171,-0.005089797079563141
2987.243,-0.004963731858879328
2985.314,-0.00484241358935833
2983.386,-0.004831928294152021
2981.457,-0.0048940181732177734
2979.529,-0.004763045813888311
2977.6,-0.0043715969659388065
2975.672,-0.004124296363443136
2973.743,-0.004059207625687122
2971.815,-0.004042827524244785
2969.886,-0.003874621819704771
2967.958,-0.00343582546338439
2966.029,-0.003016460221260786
2964.101,-0.0026984515134245157
2962.172,-0.002273198449984193
2960.244,-0.0016891973791643977
2958.315,-0.0011598641285672784
2956.387,-0.0005867055733688176
2954.458,-5.3110616136109456e-05
2952.53,0.0004236927779857069
2950.601,0.0008481644908897579
2948.673,0.001448880648240447
2946.744,0.0018667023396119475
2944.816,0.0021044632885605097
2942.887,0.002375369193032384
2940.959,0.002618442289531231
2939.03,0.0027750423178076744
2937.102,0.0028153934981673956
2935.173,0.002886133501306176
2933.245,0.0028670215979218483
2931.316,0.0026376768946647644
2929.388,0.002469529863446951
2927.459,0.002327597001567483
2925.531,0.002137759467586875
2923.602,0.0019508341792970896
2921.674,0.001813629176467657
2919.745,0.0015697753988206387
2917.817,0.001399348839186132
2915.888,0.0014072601916268468
2913.96,0.0014610151993110776
2912.031,0.0016138392966240644
2910.103,0.001817588577978313
2908.174,0.0019465073710307479
2906.246,0.0018275040201842785
2904.317,0.0018555214628577232
2902.389,0.0020047896541655064
2900.46,0.002110622823238373
2898.532,0.0022658740635961294
2896.603,0.002393326722085476
2894.675,0.0023789340630173683
2892.746,0.0024828591849654913
2890.818,0.002592009026557207
2888.889,0.002670247107744217
2886.961,0.0027740420773625374
2885.032,0.002813992789015174
2883.104,0.002911283867433667
2881.175,0.002928429748862982
2879.247,0.002842407440766692
2877.318,0.0027693400625139475
2875.39,0.0026687802746891975
2873.461,0.0025916423182934523
2871.533,0.0024655309971421957
2869.604,0.002185211284086108
2867.676,0.002050162525847554
2865.747,0.0020208011846989393
2863.819,0.0019581897649914026
2861.89,0.0018604795914143324
2859.962,0.001783618237823248
2858.033,0.0017600966384634376
2856.105,0.001739437342621386
2854.176,0.0018015180248767138
2852.248,0.0019464074866846204
2850.319,0.0021211111452430487
2848.391,0.002344320062547922
2846.462,0.0027056874241679907
2844.534,0.0033226357772946358
2842.605,0.003992424812167883
2840.677,0.0043949950486421585
2838.748,0.0048439400270581245
2836.82,0.005343294236809015
2834.891,0.005670171231031418
2832.963,0.00604130607098341
2831.034,0.006475275382399559
2829.106,0.0069078607484698296
2827.177,0.007420380134135485
2825.249,0.007909310981631279
2823.32,0.00834724586457014
2821.392,0.008754483424127102
2819.463,0.00907913502305746
2817.535,0.00933458935469389
2815.606,0.00947351474314928
2813.678,0.009644836187362671
2811.749,0.009827070869505405
2809.821,0.009968831203877926
2807.892,0.009984935633838177
2805.964,0.009878827258944511
2804.035,0.009612314403057098
2802.107,0.00945201050490141
2800.178,0.009145827032625675
2798.25,0.00877307914197445
2796.322,0.008441155776381493
2794.393,0.007955608889460564
2792.465,0.007332250475883484
2790.536,0.006793716456741095
2788.608,0.006280322093516588
2786.679,0.005766626913100481
2784.751,0.005188246723264456
2782.822,0.004602732602506876
2780.894,0.00417313864454627
2778.965,0.0037533941213041544
2777.037,0.003248419612646103
2775.108,0.002734794979915023
2773.18,0.0023222670424729586
2771.251,0.0020505287684500217
2769.323,0.0017329836264252663
2767.394,0.001304888166487217
2765.466,0.000982042751275003
2763.537,0.0008222037577070296
2761.609,0.0005242316983640194
2759.68,0.0002971151261590421
2757.752,0.00017236433632206172
2755.823,-0.00011207799252588302
2753.895,-0.0001924992393469438
2751.966,-0.00013059475168120116
2750.038,-0.0002728724793996662
2748.109,-0.0005164843751117587
2746.181,-0.0006330281030386686
2744.252,-0.0005479231476783752
2742.324,-0.0005828341236338019
2740.395,-0.000675508170388639
2738.467,-0.0007261215359903872
2736.538,-0.000935227726586163
2734.61,-0.001040453789755702
2732.681,-0.000891483505256474
2730.753,-0.0010507997358217835
2728.824,-0.0012901106383651495
2726.896,-0.0014042011462152004
2724.967,-0.0014415201731026173
2723.039,-0.0014964359579607844
2721.11,-0.001661802059970796
2719.182,-0.0017224656185135245
2717.253,-0.0017633872339501977
2715.325,-0.0018846445018425584
2713.396,-0.001905625918880105
2711.468,-0.0020090669859200716
2709.539,-0.002065790817141533
2707.611,-0.002053391421213746
2705.682,-0.0020677694119513035
2703.754,-0.0020705393981188536
2701.825,-0.0021321021486073732
2699.897,-0.002271187724545598
2697.968,-0.002336907433345914
2696.04,-0.002299961866810918
2694.111,-0.0023401372600346804
2692.183,-0.0024633421562612057
2690.254,-0.002442354569211602
2688.326,-0.002459487412124872
2686.397,-0.0025297573301941156
2684.469,-0.002634071046486497
2682.54,-0.0026726676151156425
2680.612,-0.002735264366492629
2678.683,-0.002724925521761179
2676.755,-0.002729634055867791
2674.826,-0.002784518990665674
2672.898,-0.0028626364655792713
2670.969,-0.0029530483298003674
2669.041,-0.0029856932815164328
2667.112,-0.002957885852083564
2665.184,-0.0030329450964927673
2663.255,-0.0030487384647130966
2661.327,-0.0030845017172396183
2659.398,-0.003112597158178687
2657.47,-0.0031599339563399553
2655.541,-0.0031643416732549667
2653.613,-0.0031646047718822956
2651.684,-0.003165164031088352
2649.756,-0.0033060237765312195
2647.827,-0.0033593892585486174
2645.899,-0.00331911095418036
2643.97,-0.003360638627782464
2642.042,-0.0034930864349007607
2640.113,-0.003578076371923089
2638.185,-0.0035639782436192036
2636.256,-0.0035809024702757597
2634.328,-0.003640969982370734
2632.399,-0.0036375527270138264
2630.471,-0.0036531598307192326
2628.542,-0.0037407136987894773
2626.614,-0.003770605893805623
2624.685,-0.0036550983786582947
2622.757,-0.0037070412654429674
2620.828,-0.003779014805331826
2618.9,-0.003765514586120844
2616.971,-0.003816031850874424
2615.043,-0.003892420558258891
2613.114,-0.0039009256288409233
2611.186,-0.004059240687638521
2609.257,-0.004132731352001429
2607.329,-0.004050279036164284
2605.4,-0.004058944992721081
2603.472,-0.004047193098813295
2601.543,-0.003996867220848799
2599.615,-0.003956155385822058
2597.686,-0.0038883157540112734
2595.758,-0.003940952941775322
2593.829,-0.004043254069983959
2591.901,-0.004053134936839342
2589.972,-0.0040844501927495
2588.044,-0.004177036229521036
2586.115,-0.004131910856813192
2584.187,-0.0040018572472035885
2582.258,-0.003952543716877699
2580.33,-0.003959733992815018
2578.401,-0.004042236600071192
2576.473,-0.004109460860490799
2574.544,-0.004130499437451363
2572.616,-0.004112119786441326
2570.687,-0.004144808743149042
2568.759,-0.004172901157289743
2566.83,-0.0042398106306791306
2564.902,-0.004243912175297737
2562.973,-0.00422488059848547
2561.045,-0.004258939530700445
2559.116,-0.004283907823264599
2557.188,-0.004242107272148132
2555.259,-0.004248472861945629
2553.331,-0.00428410479798913
2551.402,-0.0042107379995286465
2549.474,-0.004192394204437733
2547.545,-0.0042701605707407
2545.617,-0.004329870454967022
2543.688,-0.004331937059760094
2541.76,-0.004353358410298824
2539.831,-0.004457956179976463
2537.903,-0.004541413392871618
2535.974,-0.004522985313087702
2534.046,-0.004487012512981892
2532.117,-0.004408661741763353
2530.189,-0.004406759515404701
2528.26,-0.004493472632020712
2526.332,-0.00459479121491313
2524.403,-0.004628820810467005
2522.475,-0.004631574731320143
2520.546,-0.004675730597227812
2518.618,-0.004548692610114813
2516.689,-0.004518263507634401
2514.761,-0.004550954792648554
2512.832,-0.0044983262196183205
2510.904,-0.004565807990729809
2508.975,-0.004588102921843529
2507.047,-0.004493603948503733
2505.118,-0.004537937697023153
2503.19,-0.004530494567006826
2501.261,-0.0045572505332529545
2499.333,-0.004531084559857845
2497.404,-0.004580037668347359
2495.476,-0.004633017349988222
2493.547,-0.004597577732056379
2491.619,-0.004614920821040869
2489.69,-0.004603774286806583
2487.762,-0.004541839472949505
2485.833,-0.004441033583134413
2483.905,-0.00440121628344059
2481.976,-0.0043993135914206505
2480.048,-0.0044618588872253895
2478.119,-0.004522985313087702
2476.191,-0.0045076715759932995
2474.262,-0.0045037041418254375
2472.334,-0.004502031486481428
2470.405,-0.004433654248714447
2468.477,-0.004418075084686279
2466.548,-0.004460448864847422
2464.62,-0.004464056342840195
2462.691,-0.004426996223628521
2460.763,-0.004432342015206814
2458.834,-0.004492029547691345
2456.906,-0.004526657983660698
2454.977,-0.0045173452235758305
2453.049,-0.00452210009098053
2451.12,-0.004537872038781643
2449.192,-0.004635639954358339
2447.263,-0.004613347351551056
2445.335,-0.004549676086753607
2443.406,-0.00454839738085866
2441.478,-0.004602757748216391
2439.549,-0.004641212522983551
2437.621,-0.004664225038141012
2435.692,-0.004684187471866608
2433.764,-0.004648326430469751
2431.835,-0.004720143973827362
2429.907,-0.004659766796976328
2427.978,-0.004552594386041164
2426.05,-0.004555053543299437
2424.121,-0.004606528207659721
2422.193,-0.004673796705901623
2420.264,-0.004685564432293177
2418.336,-0.004701199475675821
2416.407,-0.004767142236232758
2414.479,-0.004778776317834854
2412.55,-0.004726371727883816
2410.622,-0.004770681727677584
2408.693,-0.004774876404553652
2406.765,-0.004784314427524805
2404.836,-0.004834287334233522
2402.908,-0.004816003143787384
2400.979,-0.004777989815920591
2399.051,-0.004778218921273947
2397.123,-0.0047795954160392284
2395.194,-0.004716342315077782
2393.266,-0.0047079515643417835
2391.337,-0.004741349723190069
2389.409,-0.004732729867100716
2387.48,-0.004758129827678204
2385.552,-0.004841660149395466
2383.623,-0.004957802593708038
2381.695,-0.004851522855460644
2379.766,-0.004718439653515816
2377.838,-0.004657898098230362
2375.909,-0.004618822131305933
2373.981,-0.004501670598983765
2372.052,-0.004353194497525692
2370.124,-0.004218744579702616
2368.195,-0.0040957084856927395
2366.267,-0.004097119905054569
2364.338,-0.004018009174615145
2362.41,-0.0039040124975144863
2360.481,-0.0038218123372644186
2358.553,-0.003842897480353713
2356.624,-0.003907755948603153
2354.696,-0.0039612771943211555
2352.767,-0.004096528980880976
2350.839,-0.004446018487215042
2348.91,-0.00473305769264698
2346.982,-0.0045656440779566765
2345.053,-0.004337120335549116
2343.125,-0.004200138617306948
2341.196,-0.004124132450670004
2339.268,-0.004073913209140301
2337.339,-0.0042081126011908054
2335.411,-0.004238334018737078
2333.482,-0.004154031164944172
2331.554,-0.004104373510926962
2329.625,-0.0041432990692555904
2327.697,-0.004206898622214794
2325.768,-0.0042971293441951275
2323.84,-0.004400822799652815
2321.911,-0.004455398302525282
2319.983,-0.004516984801739454
2318.054,-0.0046829418279230595
2316.126,-0.004832190461456776
2314.197,-0.004888808820396662
2312.269,-0.004853128455579281
2310.34,-0.00483356649056077
2308.412,-0.004999206401407719
2306.483,-0.005065988749265671
2304.555,-0.00495845777913928
2302.626,-0.004942405968904495
2300.698,-0.004964812658727169
2298.769,-0.004954592324793339
2296.841,-0.004980994388461113
2294.912,-0.005005855578929186
2292.984,-0.004962650593370199
2291.055,-0.004967728164047003
2289.127,-0.004992098547518253
2287.198,-0.0049714623019099236
2285.27,-0.004841791000217199
2283.341,-0.004709065891802311
2281.413,-0.004713523201644421
2279.484,-0.004884746391326189
2277.556,-0.004951316397637129
2275.627,-0.0048306831158697605
2273.699,-0.004836745094507933
2271.77,-0.004826456308364868
2269.842,-0.0046873013488948345
2267.913,-0.004625280387699604
2265.985,-0.004722995683550835
2264.056,-0.004732631612569094
2262.128,-0.004536462016403675
2260.199,-0.0044629741460084915
2258.271,-0.004575119353830814
2256.342,-0.004521477036178112
2254.414,-0.004469434730708599
2252.485,-0.004448970314115286
2250.557,-0.004415877629071474
2248.628,-0.004448642488569021
2246.7,-0.004456316586583853
2244.771,-0.004436901304870844
2242.843,-0.004406234715133905
2240.914,-0.004385603126138449
2238.986,-0.004389605019241571
2237.057,-0.004391736816614866
2235.129,-0.004361362662166357
2233.2,-0.004439459182322025
2231.272,-0.004552069585770369
2229.343,-0.004618559964001179
2227.415,-0.004623543005436659
2225.486,-0.004528657998889685
2223.558,-0.0045261988416314125
2221.629,-0.004587545525282621
2219.701,-0.004566332325339317
2217.772,-0.004558234009891748
2215.844,-0.004552069585770369
2213.915,-0.004560529254376888
2211.987,-0.0045990534126758575
2210.058,-0.0046082655899226665
2208.13,-0.004599118605256081
2206.201,-0.004648195113986731
2204.273,-0.004715227987617254
2202.344,-0.004672813229262829
2200.416,-0.004692906513810158
2198.487,-0.0046322960406541824
2196.559,-0.004560234025120735
2194.63,-0.004690906964242458
2192.702,-0.004686580505222082
2190.773,-0.004645605571568012
2188.845,-0.004724798258394003
2186.916,-0.004779628477990627
2184.988,-0.004788542166352272
2183.059,-0.004813643638044596
2181.131,-0.004842348396778107
2179.202,-0.004836843349039555
2177.274,-0.004812398459762335
2175.345,-0.004768747836351395
2173.417,-0.004721619188785553
2171.488,-0.004695463459938765
2169.56,-0.004703428130596876
2167.631,-0.004770845640450716
2165.703,-0.004756949841976166
2163.774,-0.004723421763628721
2161.846,-0.004768747836351395
2159.917,-0.004880192223936319
2157.989,-0.004862499423325062
2156.06,-0.004683761391788721
2154.132,-0.0046132816933095455
2152.203,-0.004664781969040632
2150.275,-0.004625837784260511
2148.346,-0.004577283281832933
2146.418,-0.004601610358804464
2144.489,-0.004555086139589548
2142.561,-0.004465728998184204
2140.632,-0.004413319285959005
2138.704,-0.004565742332488298
2136.775,-0.004671600181609392
2134.847,-0.0045481352135539055
2132.918,-0.004520263522863388
2130.99,-0.004589479882270098
2129.061,-0.004639639053493738
2127.133,-0.004702674224972725
2125.204,-0.004774581640958786
2123.276,-0.0047503625974059105
2121.347,-0.004703788552433252
2119.419,-0.004628820810467005
2117.49,-0.00465652160346508
2115.562,-0.004829044919461012
2113.633,-0.0049243224784731865
2111.705,-0.004891298711299896
2109.776,-0.00481574097648263
2107.848,-0.00474338186904788
2105.919,-0.004689760040491819
2103.991,-0.004764585755765438
2102.062,-0.004938049241900444
2100.134,-0.004987480118870735
2098.205,-0.004985187202692032
2096.277,-0.005033663474023342
2094.348,-0.005056523717939854
2092.42,-0.005034612957388163
2090.491,-0.005070377141237259
2088.563,-0.005013552960008383
2086.634,-0.005005462560802698
2084.706,-0.005093268118798733
2082.777,-0.005060093477368355
2080.849,-0.005030617117881775
2078.92,-0.005114193540066481
2076.992,-0.005135510582476854
2075.063,-0.005126276519149542
2073.135,-0.0051240501925349236
2071.206,-0.0051961494609713554
2069.278,-0.005226989276707172
2067.349,-0.005212879274040461
2065.421,-0.005159053485840559
2063.492,-0.005189208313822746
2061.564,-0.005157023202627897
2059.635,-0.005042866338044405
2057.707,-0.0050195795483887196
2055.778,-0.005065628327429295
2053.85,-0.005072505678981543
2051.921,-0.005060191731899977
2049.993,-0.005043783690780401
2048.064,-0.005037397146224976
2046.136,-0.00509320292621851
2044.207,-0.005014765076339245
2042.279,-0.0049686124548316
2040.35,-0.00501548545435071
2038.422,-0.004966516047716141
2036.493,-0.004961078520864248
2034.565,-0.004937492311000824
2032.636,-0.004887104965746403
2030.708,-0.004924257285892963
2028.779,-0.004897261504083872
2026.851,-0.004919965285807848
2024.922,-0.004989380016922951
2022.994,-0.004987906198948622
2021.065,-0.004835139494389296
2019.137,-0.0048132832162082195
2017.208,-0.004928417503833771
2015.28,-0.004962093662470579
2013.351,-0.004918131045997143
2011.423,-0.004830093123018742
2009.494,-0.004811284132301807
2007.566,-0.004942078609019518
2005.637,-0.0049965535290539265
2003.709,-0.004918687976896763
2001.78,-0.004875178914517164
1999.852,-0.004901946522295475
1997.924,-0.004911316558718681
1995.995,-0.004967269487679005
1994.067,-0.005077352747321129
1992.138,-0.0051234932616353035
1990.21,-0.005062517244368792
1988.281,-0.0050462400540709496
1986.353,-0.00499828951433301
1984.424,-0.0050168284215033054
1982.496,-0.005052331835031509
1980.567,-0.00501083442941308
1978.639,-0.005019841715693474
1976.71,-0.005028226412832737
1974.782,-0.00500667467713356
1972.853,-0.005091172177344561
1970.925,-0.005177290644496679
1968.996,-0.00518288929015398
1967.068,-0.005201355088502169
1965.139,-0.005203777924180031
1963.211,-0.005096543114632368
1961.282,-0.004992950242012739
1959.354,-0.005016140639781952
1957.425,-0.005014208145439625
1955.497,-0.004992851987481117
1953.568,-0.005015059839934111
1951.64,-0.0050113913603127
1949.711,-0.004979946184903383
1947.783,-0.004994358867406845
1945.854,-0.005004676524549723
1943.926,-0.005019219126552343
1941.997,-0.005070868413895369
1940.069,-0.004943618085235357
1938.14,-0.004879995249211788
1936.212,-0.004887760616838932
1934.283,-0.004889922682195902
1932.355,-0.004808793775737286
1930.426,-0.004696184303611517
1928.498,-0.004656226374208927
1926.569,-0.004610724747180939
1924.641,-0.0046234773471951485
1922.712,-0.004702412057667971
1920.784,-0.004640392959117889
1918.855,-0.0046945782378315926
1916.927,-0.004657439421862364
1914.998,-0.004608167335391045
1913.07,-0.00465304683893919
1911.141,-0.00475085387006402
1909.213,-0.004761046729981899
1907.284,-0.004634852986782789
1905.356,-0.004628624301403761
1903.427,-0.004683269653469324
1901.499,-0.004722995683550835
1899.57,-0.004659176804125309
1897.642,-0.004721783101558685
1895.713,-0.0048256367444992065
1893.785,-0.004751673433929682
1891.856,-0.0047442009672522545
1889.928,-0.004908237140625715
1887.999,-0.0048758345656096935
1886.071,-0.00473305769264698
1884.142,-0.00466753588989377
1882.214,-0.004676353186368942
1880.285,-0.004790639504790306
1878.357,-0.00486351503059268
1876.428,-0.004839202389121056
1874.5,-0.004825833719223738
1872.571,-0.0048111858777701855
1870.643,-0.004978570621460676
1868.714,-0.0052191647700965405
1866.786,-0.005075256805866957
1864.857,-0.00495134899392724
1862.929,-0.005042604636400938
1861.0,-0.005017876625061035
1859.072,-0.004970021080225706
1857.143,-0.005029241554439068
1855.215,-0.005030224099755287
1853.286,-0.004975294694304466
1851.358,-0.005008115898817778
1849.429,-0.005124901421368122
1847.501,-0.0052208672277629375
1845.572,-0.005455012433230877
1843.644,-0.005560490768402815
1841.715,-0.005170742515474558
1839.787,-0.00495079206302762
1837.858,-0.005002678371965885
1835.93,-0.005079612135887146
1834.001,-0.005034514702856541
1832.073,-0.005186425521969795
1830.144,-0.005445065442472696
1828.216,-0.005178862251341343
1826.287,-0.005117304623126984
1824.359,-0.005206135101616383
1822.43,-0.004969267640262842
1820.502,-0.004767502658069134
1818.573,-0.004667961969971657
1816.645,-0.004739645402878523
1814.716,-0.0048392354510724545
1812.788,-0.0049511524848639965
1810.859,-0.004893854260444641
1808.931,-0.00477969367057085
1807.002,-0.004701035562902689
1805.074,-0.004604954272508621
1803.145,-0.004560463596135378
1801.217,-0.004749641288071871
1799.288,-0.004763963166624308
1797.36,-0.004767207894474268
1795.431,-0.004887170623987913
1793.503,-0.005236090160906315
1791.574,-0.005311738699674606
1789.646,-0.004872361198067665
1787.717,-0.0048256367444992065
1785.789,-0.004933429881930351
1783.86,-0.004817543085664511
1781.932,-0.004841758403927088
1780.003,-0.005005822982639074
1778.075,-0.004950890317559242
1776.146,-0.00499619310721755
1774.218,-0.0053206090815365314
1772.289,-0.005752078257501125
1770.361,-0.0054853432811796665
1768.432,-0.005246173124760389
1766.504,-0.0050482377409935
1764.575,-0.004865972325205803
1762.647,-0.005213337484747171
1760.718,-0.005376182030886412
1758.79,-0.005326827522367239
1756.861,-0.005416564177721739
1754.933,-0.005268465727567673
1753.004,-0.005362633150070906
1751.076,-0.005845159757882357
1749.147,-0.005955870263278484
1747.219,-0.005932076368480921
1745.29,-0.005943810101598501
1743.362,-0.006051064468920231
1741.433,-0.006106446031481028
1739.505,-0.0063008954748511314
1737.576,-0.006064003799110651
1735.648,-0.006558546330779791
1733.719,-0.0071460469625890255
1731.791,-0.006400193553417921
1729.862,-0.006020838860422373
1727.934,-0.0058262962847948074
1726.005,-0.00573363620787859
1724.077,-0.005936815869063139
1722.148,-0.005925931967794895
1720.22,-0.006123140919953585
1718.291,-0.006933779921382666
1716.363,-0.006920573301613331
1714.434,-0.0062509276904165745
1712.506,-0.005780001636594534
1710.577,-0.0055740331299602985
1708.649,-0.005654070992022753
1706.72,-0.006091221235692501
1704.792,-0.006373452953994274
1702.863,-0.00626526540145278
1700.935,-0.0071433414705097675
1699.006,-0.006951747462153435
1697.078,-0.0066202920861542225
1695.149,-0.0068682958371937275
1693.221,-0.006258994806557894
1691.292,-0.006323852576315403
1689.364,-0.006732045207172632
1687.435,-0.007069478277117014
1685.507,-0.008033893071115017
1683.578,-0.008605954237282276
1681.65,-0.007783852983266115
1679.721,-0.007566655054688454
1677.793,-0.0077644228003919125
1675.864,-0.008515541441738605
1673.936,-0.00868319347500801
1672.007,-0.008716222830116749
1670.079,-0.00922335870563984
1668.15,-0.008987115696072578
1666.222,-0.008500920608639717
1664.293,-0.008656756021082401
1662.365,-0.008880876004695892
1660.436,-0.008624793961644173
1658.508,-0.008438076823949814
1656.579,-0.008533963933587074
1654.651,-0.009588033892214298
1652.722,-0.010458809323608875
1650.794,-0.008928139694035053
1648.865,-0.008315125480294228
1646.937,-0.00860387459397316
1645.008,-0.00810326635837555
1643.08,-0.007351238280534744
1641.151,-0.006985984276980162
1639.223,-0.006972289644181728
1637.294,-0.007441665045917034
1635.366,-0.007769239600747824
1633.437,-0.006972191855311394
1631.509,-0.0063258446753025055
1629.58,-0.00626226095482707
1627.652,-0.006310594733804464
1625.723,-0.006180114112794399
1623.795,-0.00618811696767807
1621.866,-0.005919394548982382
1619.938,-0.005527809727936983
1618.009,-0.005806517321616411
1616.081,-0.0058000762946903706
1614.152,-0.004927074536681175
1612.224,-0.004475927911698818
1610.295,-0.004370612557977438
1608.367,-0.004255756735801697
1606.438,-0.0040205372497439384
1604.51,-0.003852750174701214
1602.581,-0.0037357532419264317
1600.653,-0.0035736069548875093
1598.725,-0.0034755999222397804
1596.796,-0.0034770790953189135
1594.868,-0.0033957187552005053
1592.939,-0.003216310404241085
1591.011,-0.0030674594454467297
1589.082,-0.0031275979708880186
1587.154,-0.003111873287707567
1585.225,-0.003162433858960867
1583.297,-0.003285767510533333
1581.368,-0.003361131763085723
1579.44,-0.0033915434032678604
1577.511,-0.004050902556627989
1575.583,-0.004548233468085527
1573.654,-0.004040529485791922
1571.726,-0.003901976626366377
1569.797,-0.004410301800817251
1567.869,-0.004455037415027618
1565.94,-0.004563807975500822
1564.012,-0.004757310263812542
1562.083,-0.005177290644496679
1560.155,-0.00669674389064312
1558.226,-0.007422675844281912
1556.298,-0.006226595025509596
1554.369,-0.005609393119812012
1552.441,-0.005230262875556946
1550.512,-0.005273899994790554
1548.584,-0.005353272892534733
1546.655,-0.00540406396612525
1544.727,-0.0058549996465444565
1542.798,-0.00636368989944458
1540.87,-0.007156834937632084
1538.941,-0.007087049074470997
1537.013,-0.0060063619166612625
1535.084,-0.005849899724125862
1533.156,-0.0063249957747757435
1531.227,-0.006146466825157404
1529.299,-0.0061650872230529785
1527.37,-0.006445018574595451
1525.442,-0.006701735779643059
1523.513,-0.006884243804961443
1521.585,-0.007336447946727276
1519.656,-0.0069474754855036736
1517.728,-0.006771192420274019
1515.799,-0.0066160825081169605
1513.871,-0.006426704116165638
1511.942,-0.006686988286674023
1510.014,-0.006987418979406357
1508.085,-0.007761265616863966
1506.157,-0.008123104460537434
1504.228,-0.006794809829443693
1502.3,-0.006024857982993126
1500.371,-0.00618266174569726
1498.443,-0.006504789460450411
1496.514,-0.006596600171178579
1494.586,-0.006231918931007385
1492.657,-0.00603773258626461
1490.729,-0.0062189847230911255
1488.8,-0.006153653841465712
1486.872,-0.005806157365441322
1484.943,-0.005368000362068415
1483.015,-0.005078793503344059
1481.086,-0.004884025547653437
1479.158,-0.0045507908798754215
1477.229,-0.004453758709132671
1475.301,-0.004390621557831764
1473.372,-0.004488094709813595
1471.444,-0.003932087682187557
1469.515,-0.0029448207933455706
1467.587,-0.002616418059915304
1465.658,-0.0028224107809364796
1463.73,-0.0024498666170984507
1461.801,-0.0018785741413012147
1459.873,-0.0021233975421637297
1457.944,-0.0027952513191848993
1456.016,-0.002672140719369054
1454.087,-0.0016110335709527135
1452.159,-0.0012751452159136534
1450.23,-0.0013997755013406277
1448.302,-0.0016779423458501697
1446.373,-0.0017184722237288952
1444.445,-0.0017969136824831367
1442.516,-0.0019760187715291977
1440.588,-0.00230543315410614
1438.659,-0.0028424912597984076
1436.731,-0.0035975631326436996
1434.802,-0.0036405755672603846
1432.874,-0.003627366852015257
1430.945,-0.004127118736505508
1429.017,-0.004732729867100716
1427.088,-0.005121462978422642
1425.16,-0.0055305249989032745
1423.231,-0.0058278655633330345
1421.303,-0.006150092929601669
1419.374,-0.0068354192189872265
1417.446,-0.006967594381421804
1415.517,-0.006864512339234352
1413.589,-0.006906159222126007
1411.66,-0.006999091245234013
1409.732,-0.0071146260015666485
1407.803,-0.007232052274048328
1405.875,-0.007437235675752163
1403.946,-0.007534450385719538
1402.018,-0.0075101242400705814
1400.089,-0.007552457973361015
1398.161,-0.00740824593231082
1396.232,-0.007309276144951582
1394.304,-0.0074087344110012054
1392.375,-0.007064555771648884
1390.447,-0.006811934988945723
1388.518,-0.006939616985619068
1386.59,-0.006864218972623348
1384.661,-0.006616539321839809
1382.733,-0.00665778573602438
1380.804,-0.0065986234694719315
1378.876,-0.006315950304269791
1376.947,-0.0061341505497694016
1375.019,-0.006240116897970438
1373.09,-0.006152183748781681
1371.162,-0.00582646019756794
1369.233,-0.005619402043521404
1367.305,-0.005409365054219961
1365.376,-0.005298907868564129
1363.448,-0.005198081023991108
1361.519,-0.0048768175765872
1359.591,-0.004617707338184118
1357.662,-0.004495210479944944
1355.734,-0.004335611127316952
1353.805,-0.004191442858427763
1351.877,-0.003992172423750162
1349.948,-0.003914684522897005
1348.02,-0.003912090323865414
1346.091,-0.0038360334001481533
1344.163,-0.003808839013800025
1342.234,-0.003980911336839199
1340.306,-0.004032782278954983
1338.377,-0.003973294049501419
1336.449,-0.003930281847715378
1334.52,-0.0038368545938283205
1332.592,-0.0038603690918534994
1330.663,-0.004042630549520254
1328.735,-0.004141067620366812
1326.806,-0.004327770788222551
1324.878,-0.004637639503926039
1322.949,-0.004709294997155666
1321.021,-0.004808662924915552
1319.092,-0.0048345825634896755
1317.164,-0.0047704195603728294
1315.235,-0.004908204078674316
1313.307,-0.0049148546531796455
1311.378,-0.0047934576869010925
1309.45,-0.004803616087883711
1307.521,-0.004640655592083931
1305.593,-0.004464056342840195
1303.664,-0.0045079998672008514
1301.736,-0.004544298630207777
1299.807,-0.0044187637977302074
1297.879,-0.004392885137349367
1295.95,-0.004443755839020014
1294.022,-0.0044914064928889275
1292.093,-0.004479273222386837
1290.165,-0.004373073112219572
1288.236,-0.0041464827954769135
1286.308,-0.004121769219636917
1284.379,-0.004314746707677841
1282.451,-0.0044210925698280334
1280.522,-0.0042837439104914665
1278.594,-0.00409990968182683
1276.665,-0.004041087348014116
1274.737,-0.004026676062494516
1272.808,-0.003941511269658804
1270.88,-0.0038622082211077213
1268.951,-0.003820991376414895
1267.023,-0.0038207941688597202
1265.094,-0.003949785605072975
1263.166,-0.004017352592200041
1261.237,-0.0038974119815975428
1259.309,-0.0036102142184972763
1257.38,-0.0032142053823918104
1255.452,-0.0030509100761264563
1253.523,-0.003040085081011057
1251.595,-0.0030619651079177856
1249.666,-0.0030050750356167555
1247.738,-0.002673754235729575
1245.809,-0.0023245816119015217
1243.881,-0.002015003701671958
1241.952,-0.0018510257359594107
1240.024,-0.0017582721775397658
1238.095,-0.00156019302085042
1236.167,-0.0015313037438318133
1234.238,-0.0016136744525283575
1232.31,-0.0016190882306545973
1230.381,-0.0016721662832424045
1228.453,-0.0017109144246205688
1226.524,-0.0017988604959100485
1224.596,-0.0019714010413736105
1222.667,-0.0019279918633401394
1220.739,-0.00195995531976223
1218.81,-0.0021363224368542433
1216.882,-0.0022341706790030003
1214.953,-0.0022977208718657494
1213.025,-0.0022966661490499973
1211.096,-0.0022299843840301037
1209.168,-0.0023402031511068344
1207.239,-0.0024960238952189684
1205.311,-0.0026016628835350275
1203.382,-0.002700756536796689
1201.454,-0.0028786335606127977
1199.525,-0.002995532238855958
1197.597,-0.0029482105746865273
1195.669,-0.002952883718535304
1193.74,-0.002871392061933875
1191.812,-0.002728086430579424
1189.883,-0.0026369031984359026
1187.955,-0.002720941323786974
1186.026,-0.0028087489772588015
1184.098,-0.002822048729285598
1182.169,-0.00281131686642766
1180.241,-0.00297078606672585
1178.312,-0.0030026729218661785
1176.384,-0.002991155721247196
1174.455,-0.0029615387320518494
1172.527,-0.0028891332913190126
1170.598,-0.003143848618492484
1168.67,-0.003413241123780608
1166.741,-0.003433590056374669
1164.813,-0.0033676745370030403
1162.884,-0.00340495677664876
1160.956,-0.0034230377059429884
1159.027,-0.0032615310046821833
1157.099,-0.003086311277002096
1155.17,-0.002879193052649498
1153.242,-0.002844630740582943
1151.313,-0.0026457952335476875
1149.385,-0.0020915779750794172
1147.456,-0.0018108383519575
1145.528,-0.0015736630884930491
1143.599,-0.001145654241554439
1141.671,-0.0008557706023566425
1139.742,-0.0004833222774323076
1137.814,5.848551882081665e-05
1135.885,0.0004409727989695966
1133.957,0.0006255570915527642
1132.028,0.0009005221654661
1130.1,0.0013327057240530849
1128.171,0.001380634494125843
1126.243,0.0012192201102152467
1124.314,0.0012810271000489593
1122.386,0.0013004681095480919
1120.457,0.0013609238667413592
1118.529,0.0013642809353768826
1116.6,0.0010524848476052284
1114.672,0.0009759322856552899
1112.743,0.0010685608722269535
1110.815,0.0009961568284779787
1108.886,0.0008748571272008121
1106.958,0.0009078268194571137
1105.029,0.0010740082943812013
1103.101,0.0010696902172639966
1101.172,0.0009495986741967499
1099.244,0.0009494658443145454
1097.315,0.001161873689852655
1095.387,0.001284117577597499
1093.458,0.001182007254101336
1091.53,0.0011269579408690333
1089.601,0.001100083696655929
1087.673,0.0009888174245133996
1085.744,0.0010850693797692657
1083.816,0.0011168591445311904
1081.887,0.0013931991998106241
1079.959,0.001559433527290821
1078.03,0.0014418993378058076
1076.102,0.0012554059503600001
1074.173,0.0011401798110455275
1072.245,0.0012454703683033586
1070.316,0.0012178909964859486
1068.388,0.0009514914709143341
1066.459,0.0010715835960581899
1064.531,0.001016847207210958
1062.602,0.0008606474148109555
1060.674,0.0010991203598678112
1058.745,0.0013431751867756248
1056.817,0.0012818578397855163
1054.888,0.001196293975226581
1052.96,0.0013810999225825071
1051.031,0.001648860750719905
1049.103,0.0013479612534865737
1047.174,0.001305120880715549
1045.246,0.0013853878481313586
1043.317,0.0013907061656937003
1041.389,0.0013634500792250037
1039.46,0.0013156561180949211
1037.532,0.0010351140517741442
1035.603,0.000596358091570437
1033.675,0.00022931494459044188
1031.746,-5.632750344375381e-06
1029.818,-0.00010657912935130298
1027.889,-0.00018034425738733262
1025.961,-0.0004644564469344914
1024.032,-0.0008173760143108666
1022.104,-0.0010581046808511019
1020.175,-0.0015173702267929912
1018.247,-0.0015583442291244864
1016.318,-0.0014150668866932392
1014.39,-0.0017085711006075144
1012.461,-0.002052105264738202
1010.533,-0.0022119195200502872
1008.604,-0.0023817915935069323
1006.676,-0.0025822960305958986
1004.747,-0.0027128083165735006
1002.819,-0.002658046083524823
1000.89,-0.002872840268537402
998.962,-0.003150164382532239
997.033,-0.0031539471819996834
995.105,-0.003265378763899207
993.176,-0.0033861517440527678
991.248,-0.0033475197851657867
989.319,-0.003541433485224843
987.391,-0.003494598437100649
985.462,-0.0035349589306861162
983.534,-0.00383806973695755
981.605,-0.003685555187985301
979.677,-0.0034394743852317333
977.748,-0.003543010912835598
975.82,-0.003649085760116577
973.891,-0.0034302370622754097
971.963,-0.0034959129989147186
970.034,-0.003736673155799508
968.106,-0.00359693868085742
966.177,-0.0032085482962429523
964.249,-0.0031936815939843655
962.32,-0.003533578710630536
960.392,-0.003629995509982109
958.463,-0.003318354720249772
956.535,-0.0033347951248288155
954.606,-0.0034780651330947876
952.678,-0.003650268539786339
950.749,-0.0035744942724704742
948.821,-0.0033486047759652138
946.892,-0.0033256872557103634
944.964,-0.003327692858874798
943.035,-0.0030310368165373802
941.107,-0.0028403843753039837
939.178,-0.003029391635209322
937.25,-0.0028891991823911667
935.321,-0.0024925977922976017
933.393,-0.0020388150587677956
931.464,-0.0017710761167109013
929.536,-0.001725897891446948
927.607,-0.0015904339961707592
925.679,-0.0015357941156253219
923.75,-0.0014171145157888532
921.822,-0.0011130690108984709
919.893,-0.0008556052925996482
917.965,-0.0005489489994943142
916.036,-0.00045224290806800127
914.108,-0.000473260588478297
912.179,-0.00013152221799828112
910.251,4.503149466472678e-05
908.322,0.00011429434380261227
906.394,0.00011369777348591015
904.465,0.000529075157828629
902.537,0.0005273168790154159
900.608,0.0002672088157851249
898.68,0.00045307917753234506
896.751,0.0003518934827297926
894.823,0.0002608100476209074
892.894,0.0002650537935551256
890.966,1.2193497241241857e-05
889.037,-0.00013327779015526175
887.109,8.168308704625815e-05
885.18,0.0002714857691898942
883.252,-0.00014536782691720873
881.323,-0.000562913715839386
879.395,-0.0007004847866483033
877.466,-0.001076415879651904
875.538,-0.001127213821746409
873.609,-0.0008646660717204213
871.681,-0.0010589971207082272
869.752,-0.0011403337121009827
867.824,-0.0008270990219898522
865.895,-0.0005593067617155612
863.967,-0.0005343882367014885
862.038,-1.020516447169939e-05
860.11,0.00041191885247826576
858.181,0.00039371137972921133
856.253,0.0003533857234288007
854.324,0.00034565929672680795
852.396,0.00024880850105546415
850.467,0.00040734204230830073
848.539,0.00033484911546111107
846.61,0.0005975857493467629
844.682,0.0006181576172821224
842.753,0.0003938108857255429
840.825,0.0007387549849227071
838.896,0.0008616102277301252
836.968,0.000764411932323128
835.039,0.0009850315982475877
833.111,0.0007220936822704971
831.182,0.00032466923585161567
829.254,0.00024254262098111212
827.325,7.488938717870042e-05
825.397,-9.140719339484349e-05
823.468,-0.00019561244698707014
821.54,-0.00012476487609092146
819.611,2.2962496586842462e-05
817.683,-0.0004145408747717738
815.754,-0.0004610472824424505
813.826,-0.000173985114088282
811.897,0.00010392077820142731
809.969,0.000337435572873801
808.04,0.00021582248155027628
806.112,0.00020637469424400479
804.183,0.0004456494643818587
802.255,0.00035424792440608144
800.326,0.0006158349569886923
798.398,0.0006468603387475014
796.47,0.00042860143003053963
794.541,0.0001985182607313618
792.613,0.00034333806252107024
790.684,0.0009983154013752937
788.756,0.0012924257898703218
786.827,0.001302661607041955
784.899,0.00146623479668051
782.97,0.0014797993935644627
781.042,0.0020112141501158476
779.113,0.002393126953393221
777.185,0.0022296705283224583
775.256,0.0022443581838160753
773.328,0.002049962757155299
771.399,0.001543040038086474
769.471,0.0013104715617373586
767.542,0.001547795138321817
765.614,0.0015087586361914873
763.685,0.0008676194120198488
761.757,0.000470095023047179
759.828,0.0004261139256414026
757.9,0.0003589899861253798
755.971,0.00030407810118049383
754.043,8.049004100030288e-05
752.114,-9.840698112384416e-06
750.186,-0.0006163856596685946
748.257,-0.001309667364694178
746.329,-0.001861913362517953
744.4,-0.002635684795677662
742.472,-0.003110425779595971
740.543,-0.003523455932736397
738.615,-0.0032211451325565577
736.686,-0.0031282231211662292
734.758,-0.0032492971513420343
732.829,-0.0031358550768345594
730.901,-0.0029914190527051687
728.972,-0.0032461071386933327
727.044,-0.003364189527928829
725.115,-0.0037311213091015816
723.187,-0.004019125364720821
721.258,-0.004051198251545429
719.33,-0.003667616518214345
717.401,-0.00267800223082304
715.473,-0.0018582511693239212
713.544,-0.0020461692474782467
711.616,-0.0024186642840504646
709.687,-0.0031708215828984976
707.759,-0.003509421832859516
705.83,-0.0017740130424499512
703.902,-0.0008916488150134683
701.973,-0.001286113285459578
700.045,-0.0010790269589051604
698.116,-0.0013309408677741885
696.188,-0.0017710101092234254
694.259,-0.0017456000205129385
692.331,-0.0015765022253617644
690.402,-0.001417543855495751
688.474,-0.0014375902246683836
686.545,-0.001366020180284977
684.617,-0.0014520877739414573
682.688,-0.0020836309995502234
680.76,-0.0023149580229073763
678.831,-0.0018327472498640418
676.903,-0.0017785668605938554
674.974,-0.002313310280442238
673.046,-0.0028967035468667746
671.117,-0.002905886387452483
669.189,-0.00311460392549634
667.26,-0.0035296676214784384
665.332,-0.0035142204724252224
663.403,-0.0034940396435558796
661.475,-0.0037155826576054096
659.546,-0.003920956514775753
657.618,-0.004268159158527851
655.689,-0.004547872580587864
653.761,-0.0042566098272800446
651.832,-0.004252738319337368
649.904,-0.005109674762934446
647.975,-0.005399253219366074
646.047,-0.0047646514140069485
644.118,-0.004247947596013546
642.19,-0.004161776043474674
640.261,-0.00431382842361927
638.333,-0.004711688030511141
636.404,-0.004999763332307339
634.476,-0.005698221269994974
632.547,-0.006733121816068888
630.619,-0.007680020295083523
628.69,-0.008523046970367432
626.762,-0.008702388033270836
624.833,-0.007340324576944113
622.905,-0.005707246717065573
620.976,-0.004687170498073101
619.048,-0.0035285830963402987
617.119,-0.0034689600579440594
615.191,-0.0031463156919926405
613.262,-0.0019778988789767027
611.334,-0.0009125130018219352
609.405,-0.002273560967296362
607.477,-0.004641376435756683
605.548,-0.005511418916285038
603.62,-0.004985122010111809
601.691,-0.004848213400691748
599.763,-0.005123460665345192
597.834,-0.004311925731599331
595.906,-0.0024203776847571135
593.977,-0.003818265162408352
592.049,-0.0062608239240944386
590.12,-0.006925823166966438
588.192,-0.0067545878700912
586.263,-0.007247921545058489
584.335,-0.006535504013299942
582.406,-0.004564725793898106
580.478,-0.003722185967490077
578.549,-0.00498931435868144
576.621,-0.00508380401879549
574.692,-0.0049266815185546875
572.764,-0.004835925996303558
570.835,-0.004538003355264664
568.907,-0.004285318311303854
566.978,-0.004841954912990332
565.05,-0.004650883376598358
563.121,-0.004299262072890997
561.193,-0.004084187559783459
559.264,-0.0033303233794867992
557.336,-0.0038607304450124502
555.407,-0.0036546383053064346
553.479,-0.0029655536636710167
551.55,-0.0027948564384132624
549.622,-0.00414996175095439
547.693,-0.005016500595957041
545.765,-0.0036528969649225473
543.836,-0.00456807017326355
541.908,-0.006773280445486307
539.979,-0.00799157377332449
538.051,-0.007419027853757143
536.122,-0.007082061376422644
534.194,-0.006870382931083441
532.265,-0.006813011132180691
530.337,-0.007106770295649767
528.408,-0.0073844012804329395
526.48,-0.0069474102929234505
524.551,-0.006895005702972412
522.623,-0.007295950315892696
520.694,-0.008080403320491314
518.766,-0.007546856999397278
516.837,-0.006917833816260099
514.909,-0.006235511973500252
512.98,-0.00571630522608757
511.052,-0.005305192433297634
509.123,-0.0043122535571455956
507.195,-0.004649211186915636
505.266,-0.005689522251486778
503.338,-0.00591648556292057
501.409,-0.006482396740466356
499.481,-0.004069219343364239
497.552,-0.0035758744925260544
495.624,-0.0035319682210683823
493.695,-0.003951164428144693
491.767,-0.004530199337750673
489.838,-0.005407107062637806
487.91,-0.0046217069029808044
485.981,-0.003113189246505499
484.053,-0.002927180612459779
482.124,-0.004255395848304033
480.196,-0.004712704103440046
478.267,-0.0018658724147826433
476.339,-0.0006039778236299753
474.41,-0.002243433613330126
472.482,-0.0035901693627238274
470.553,-0.0038555744104087353
468.625,-0.002599752740934491
466.696,-0.00042327982373535633
464.768,-0.002157357754185796
462.839,-0.003956187982112169
460.911,-0.0036822697147727013
458.982,-0.0007114343461580575
457.054,-0.0012166328961029649
455.125,-0.00347158988006413
453.197,-0.0014293340500444174
451.268,0.002219912363216281
449.34,0.0007891409914009273
447.411,-0.0009758268715813756
445.483,-0.0006729938904754817
443.554,-0.002657222794368863
441.626,-0.0046415734104812145
439.697,-0.004593315999954939
437.769,-0.005095757078379393
435.84,-0.0051342337392270565
433.912,-0.002758904593065381
431.983,-0.0045228214003145695
430.055,-0.00973103754222393
428.126,-0.007185091730207205
426.198,-0.00345088099129498
424.269,-0.008212655782699585
422.341,-0.009869168512523174
420.412,-0.008235316723585129
418.484,-0.009894270449876785
416.555,-0.01172668393701315
414.627,-0.013204085640609264
412.698,-0.004803911317139864
410.77,0.002111588604748249
408.841,-0.010100271552801132
406.913,-0.024775991216301918
404.984,-0.024875346571207047
403.056,-0.01830916292965412
401.127,-0.01921127550303936
399.199,-0.03096630796790123
