3.991989e+002,1.969956e-002
4.011274e+002,1.682026e-002
4.030559e+002,7.126268e-003
4.049844e+002,1.037472e-003
4.069129e+002,9.295093e-005
4.088414e+002,-2.963382e-003
4.107699e+002,-4.592660e-003
4.126984e+002,-5.665206e-004
4.146269e+002,3.560895e-003
4.165554e+002,9.890081e-003
4.184839e+002,1.119549e-002
4.204124e+002,1.330817e-002
4.223409e+002,1.245996e-002
4.242694e+002,9.899200e-003
4.261979e+002,8.409907e-003
4.281264e+002,1.604410e-002
4.300549e+002,1.744356e-002
4.319834e+002,1.417361e-002
4.339119e+002,1.294661e-002
4.358404e+002,1.501160e-002
4.377689e+002,1.799965e-002
4.396974e+002,1.171164e-002
4.416259e+002,4.185383e-003
4.435544e+002,8.527585e-003
4.454829e+002,1.296338e-002
4.474114e+002,1.314527e-002
4.493399e+002,1.069514e-002
4.512684e+002,9.076665e-003
4.531969e+002,1.050490e-002
4.551254e+002,1.146539e-002
4.570539e+002,1.005072e-002
4.589824e+002,8.400076e-003
4.609109e+002,8.268958e-003
4.628394e+002,1.024340e-002
4.647679e+002,9.759800e-003
4.666964e+002,9.133138e-003
4.686249e+002,1.040434e-002
4.705533e+002,1.327056e-002
4.724819e+002,1.315046e-002
4.744103e+002,1.358493e-002
4.763389e+002,1.466394e-002
4.782673e+002,1.342667e-002
4.801959e+002,1.094757e-002
4.821243e+002,1.010494e-002
4.840529e+002,1.084045e-002
4.859813e+002,1.022644e-002
4.879099e+002,1.087126e-002
4.898383e+002,1.186430e-002
4.917668e+002,1.194640e-002
4.936953e+002,1.172042e-002
4.956238e+002,1.303678e-002
4.975523e+002,1.381616e-002
4.994808e+002,1.200550e-002
5.014093e+002,1.261534e-002
5.033378e+002,1.406993e-002
5.052663e+002,1.589072e-002
5.071948e+002,1.506833e-002
5.091233e+002,1.136362e-002
5.110518e+002,1.169581e-002
5.129803e+002,1.156206e-002
5.149088e+002,1.066882e-002
5.168373e+002,1.082536e-002
5.187658e+002,1.176440e-002
5.206943e+002,1.102098e-002
5.226228e+002,1.238280e-002
5.245513e+002,1.419970e-002
5.264798e+002,1.238148e-002
5.284083e+002,1.073121e-002
5.303368e+002,1.207509e-002
5.322653e+002,1.302865e-002
5.341938e+002,1.405611e-002
5.361223e+002,1.336451e-002
5.380508e+002,1.139566e-002
5.399792e+002,1.108630e-002
5.419078e+002,1.302374e-002
5.438363e+002,1.361365e-002
5.457648e+002,1.316979e-002
5.476932e+002,1.409615e-002
5.496218e+002,1.498062e-002
5.515503e+002,1.546668e-002
5.534788e+002,1.524489e-002
5.554072e+002,1.455750e-002
5.573358e+002,1.517860e-002
5.592643e+002,1.576965e-002
5.611927e+002,1.546139e-002
5.631212e+002,1.585360e-002
5.650497e+002,1.675021e-002
5.669783e+002,1.641671e-002
5.689067e+002,1.671908e-002
5.708352e+002,1.571750e-002
5.727637e+002,1.600649e-002
5.746923e+002,1.585319e-002
5.766207e+002,1.350285e-002
5.785492e+002,1.492514e-002
5.804777e+002,2.504822e-002
5.824063e+002,2.310337e-002
5.843347e+002,1.570465e-002
5.862632e+002,1.498405e-002
5.881917e+002,1.548985e-002
5.901202e+002,1.680979e-002
5.920487e+002,1.734969e-002
5.939772e+002,1.571929e-002
5.959057e+002,1.549294e-002
5.978342e+002,1.842836e-002
5.997627e+002,2.081969e-002
6.016912e+002,2.259467e-002
6.036197e+002,2.299719e-002
6.055482e+002,2.366973e-002
6.074767e+002,2.494693e-002
6.094052e+002,2.531050e-002
6.113337e+002,2.339788e-002
6.132622e+002,2.275456e-002
6.151907e+002,2.358097e-002
6.171192e+002,2.341302e-002
6.190477e+002,2.256294e-002
6.209762e+002,2.358416e-002
6.229047e+002,2.272757e-002
6.248332e+002,2.050869e-002
6.267617e+002,1.751224e-002
6.286902e+002,1.457316e-002
6.306187e+002,1.360975e-002
6.325472e+002,1.374523e-002
6.344756e+002,1.369030e-002
6.364042e+002,1.367365e-002
6.383326e+002,1.293224e-002
6.402612e+002,1.207997e-002
6.421896e+002,1.230992e-002
6.441182e+002,1.252312e-002
6.460466e+002,1.180495e-002
6.479752e+002,1.175579e-002
6.499036e+002,1.188606e-002
6.518322e+002,1.181414e-002
6.537606e+002,1.188929e-002
6.556891e+002,1.206600e-002
6.576177e+002,1.119981e-002
6.595461e+002,1.033345e-002
6.614746e+002,1.057820e-002
6.634031e+002,1.048909e-002
6.653317e+002,1.060903e-002
6.672601e+002,1.022322e-002
6.691886e+002,1.023740e-002
6.711171e+002,1.115823e-002
6.730457e+002,1.136426e-002
6.749741e+002,1.101469e-002
6.769026e+002,1.098169e-002
6.788311e+002,1.088329e-002
6.807596e+002,1.089708e-002
6.826881e+002,1.124809e-002
6.846166e+002,1.152160e-002
6.865451e+002,1.208784e-002
6.884736e+002,1.241458e-002
6.904021e+002,1.221895e-002
6.923306e+002,1.239266e-002
6.942591e+002,1.288405e-002
6.961876e+002,1.252888e-002
6.981161e+002,1.214143e-002
7.000446e+002,1.213182e-002
7.019731e+002,1.266358e-002
7.039016e+002,1.312802e-002
7.058301e+002,1.307314e-002
7.077585e+002,1.293726e-002
7.096871e+002,1.313543e-002
7.116156e+002,1.392751e-002
7.135441e+002,1.440163e-002
7.154725e+002,1.415852e-002
7.174011e+002,1.417851e-002
7.193296e+002,1.484702e-002
7.212581e+002,1.511749e-002
7.231865e+002,1.534906e-002
7.251151e+002,1.594788e-002
7.270436e+002,1.587838e-002
7.289720e+002,1.556231e-002
7.309005e+002,1.566346e-002
7.328290e+002,1.567336e-002
7.347576e+002,1.605548e-002
7.366860e+002,1.671081e-002
7.386145e+002,1.689029e-002
7.405430e+002,1.696243e-002
7.424716e+002,1.709754e-002
7.444000e+002,1.696098e-002
7.463285e+002,1.708479e-002
7.482570e+002,1.708231e-002
7.501855e+002,1.701180e-002
7.521140e+002,1.713276e-002
7.540425e+002,1.736596e-002
7.559710e+002,1.721739e-002
7.578995e+002,1.703568e-002
7.598280e+002,1.742414e-002
7.617565e+002,1.749141e-002
7.636850e+002,1.727462e-002
7.656135e+002,1.784133e-002
7.675420e+002,1.808061e-002
7.694705e+002,1.784993e-002
7.713990e+002,1.759359e-002
7.733275e+002,1.734462e-002
7.752560e+002,1.717564e-002
7.771844e+002,1.713600e-002
7.791130e+002,1.696649e-002
7.810415e+002,1.685046e-002
7.829700e+002,1.682732e-002
7.848984e+002,1.694747e-002
7.868270e+002,1.673216e-002
7.887555e+002,1.614805e-002
7.906840e+002,1.570582e-002
7.926124e+002,1.571482e-002
7.945410e+002,1.565100e-002
7.964695e+002,1.540316e-002
7.983979e+002,1.506466e-002
8.003264e+002,1.474839e-002
8.022549e+002,1.489163e-002
8.041835e+002,1.502446e-002
8.061119e+002,1.529473e-002
8.080404e+002,1.613745e-002
8.099689e+002,1.629997e-002
8.118975e+002,1.602609e-002
8.138259e+002,1.668299e-002
8.157545e+002,1.715303e-002
8.176830e+002,1.669404e-002
8.196115e+002,1.627420e-002
8.215399e+002,1.616861e-002
8.234684e+002,1.647263e-002
8.253970e+002,1.623124e-002
8.273254e+002,1.554961e-002
8.292539e+002,1.524067e-002
8.311824e+002,1.503386e-002
8.331110e+002,1.509756e-002
8.350394e+002,1.522787e-002
8.369679e+002,1.558440e-002
8.388964e+002,1.524462e-002
8.408250e+002,1.507406e-002
8.427534e+002,1.531038e-002
8.446819e+002,1.538637e-002
8.466104e+002,1.523494e-002
8.485389e+002,1.522015e-002
8.504674e+002,1.535744e-002
8.523959e+002,1.569744e-002
8.543244e+002,1.565230e-002
8.562529e+002,1.540941e-002
8.581814e+002,1.517431e-002
8.601099e+002,1.533269e-002
8.620384e+002,1.543942e-002
8.639669e+002,1.508010e-002
8.658954e+002,1.508240e-002
8.678239e+002,1.522221e-002
8.697524e+002,1.519575e-002
8.716809e+002,1.511965e-002
8.736094e+002,1.480413e-002
8.755378e+002,1.465530e-002
8.774664e+002,1.512226e-002
8.793949e+002,1.558766e-002
8.813234e+002,1.543468e-002
8.832518e+002,1.554002e-002
8.851804e+002,1.559765e-002
8.871089e+002,1.542448e-002
8.890374e+002,1.570805e-002
8.909658e+002,1.581367e-002
8.928943e+002,1.595977e-002
8.948229e+002,1.636465e-002
8.967513e+002,1.660615e-002
8.986798e+002,1.625783e-002
9.006083e+002,1.576704e-002
9.025369e+002,1.580577e-002
9.044653e+002,1.609853e-002
9.063938e+002,1.598184e-002
9.083223e+002,1.582401e-002
9.102509e+002,1.572777e-002
9.121793e+002,1.542455e-002
9.141078e+002,1.520667e-002
9.160364e+002,1.508167e-002
9.179648e+002,1.474774e-002
9.198933e+002,1.459890e-002
9.218218e+002,1.442260e-002
9.237504e+002,1.403715e-002
9.256788e+002,1.381575e-002
9.276073e+002,1.357621e-002
9.295358e+002,1.367133e-002
9.314644e+002,1.383829e-002
9.333928e+002,1.383087e-002
9.353213e+002,1.377248e-002
9.372498e+002,1.375518e-002
9.391783e+002,1.328907e-002
9.411068e+002,1.302281e-002
9.430353e+002,1.324917e-002
9.449637e+002,1.329427e-002
9.468923e+002,1.336889e-002
9.488208e+002,1.364384e-002
9.507493e+002,1.374827e-002
9.526777e+002,1.375336e-002
9.546063e+002,1.393815e-002
9.565348e+002,1.408113e-002
9.584633e+002,1.398760e-002
9.603917e+002,1.377259e-002
9.623203e+002,1.391506e-002
9.642488e+002,1.412501e-002
9.661772e+002,1.416423e-002
9.681057e+002,1.407562e-002
9.700343e+002,1.387688e-002
9.719628e+002,1.378076e-002
9.738912e+002,1.365734e-002
9.758197e+002,1.339199e-002
9.777483e+002,1.331921e-002
9.796768e+002,1.334685e-002
9.816052e+002,1.332112e-002
9.835337e+002,1.307021e-002
9.854623e+002,1.287367e-002
9.873907e+002,1.269995e-002
9.893192e+002,1.246375e-002
9.912477e+002,1.226749e-002
9.931763e+002,1.209189e-002
9.951047e+002,1.209513e-002
9.970332e+002,1.196984e-002
9.989617e+002,1.161120e-002
1.000890e+003,1.152306e-002
1.002819e+003,1.178588e-002
1.004747e+003,1.181976e-002
1.006676e+003,1.163087e-002
1.008604e+003,1.172736e-002
1.010533e+003,1.173649e-002
1.012461e+003,1.191902e-002
1.014390e+003,1.205445e-002
1.016318e+003,1.215308e-002
1.018247e+003,1.233283e-002
1.020175e+003,1.239958e-002
1.022104e+003,1.254859e-002
1.024032e+003,1.276211e-002
1.025961e+003,1.282142e-002
1.027889e+003,1.293730e-002
1.029818e+003,1.326803e-002
1.031746e+003,1.366989e-002
1.033675e+003,1.402171e-002
1.035603e+003,1.448086e-002
1.037532e+003,1.465174e-002
1.039460e+003,1.456895e-002
1.041389e+003,1.480365e-002
1.043317e+003,1.502765e-002
1.045246e+003,1.504240e-002
1.047174e+003,1.528951e-002
1.049103e+003,1.531014e-002
1.051031e+003,1.512957e-002
1.052960e+003,1.532541e-002
1.054888e+003,1.545404e-002
1.056817e+003,1.530530e-002
1.058745e+003,1.518402e-002
1.060674e+003,1.504590e-002
1.062602e+003,1.513423e-002
1.064531e+003,1.537803e-002
1.066459e+003,1.532466e-002
1.068388e+003,1.511035e-002
1.070316e+003,1.498721e-002
1.072245e+003,1.503238e-002
1.074173e+003,1.523477e-002
1.076102e+003,1.503708e-002
1.078030e+003,1.482409e-002
1.079959e+003,1.486204e-002
1.081887e+003,1.498748e-002
1.083816e+003,1.507173e-002
1.085744e+003,1.545305e-002
1.087673e+003,1.592382e-002
1.089601e+003,1.590120e-002
1.091530e+003,1.590859e-002
1.093458e+003,1.628442e-002
1.095387e+003,1.646702e-002
1.097315e+003,1.664219e-002
1.099244e+003,1.693180e-002
1.101172e+003,1.718223e-002
1.103101e+003,1.716358e-002
1.105029e+003,1.696852e-002
1.106958e+003,1.701731e-002
1.108886e+003,1.708120e-002
1.110815e+003,1.722839e-002
1.112743e+003,1.742766e-002
1.114672e+003,1.746257e-002
1.116600e+003,1.752187e-002
1.118529e+003,1.756596e-002
1.120457e+003,1.753011e-002
1.122386e+003,1.746905e-002
1.124314e+003,1.747861e-002
1.126243e+003,1.729800e-002
1.128171e+003,1.719791e-002
1.130100e+003,1.714955e-002
1.132028e+003,1.695075e-002
1.133957e+003,1.684902e-002
1.135885e+003,1.683410e-002
1.137814e+003,1.661155e-002
1.139742e+003,1.620043e-002
1.141671e+003,1.579463e-002
1.143599e+003,1.553316e-002
1.145528e+003,1.527928e-002
1.147456e+003,1.497778e-002
1.149385e+003,1.464303e-002
1.151313e+003,1.438410e-002
1.153242e+003,1.420638e-002
1.155170e+003,1.391828e-002
1.157099e+003,1.363054e-002
1.159027e+003,1.342828e-002
1.160956e+003,1.336725e-002
1.162884e+003,1.330045e-002
1.164813e+003,1.339776e-002
1.166741e+003,1.357399e-002
1.168670e+003,1.354879e-002
1.170598e+003,1.350015e-002
1.172526e+003,1.343170e-002
1.174455e+003,1.353037e-002
1.176384e+003,1.352992e-002
1.178312e+003,1.334343e-002
1.180240e+003,1.325863e-002
1.182169e+003,1.327623e-002
1.184098e+003,1.327496e-002
1.186026e+003,1.314182e-002
1.187954e+003,1.301715e-002
1.189883e+003,1.270349e-002
1.191812e+003,1.245205e-002
1.193740e+003,1.240895e-002
1.195668e+003,1.238806e-002
1.197597e+003,1.232305e-002
1.199526e+003,1.222229e-002
1.201454e+003,1.212657e-002
1.203382e+003,1.203534e-002
1.205311e+003,1.188715e-002
1.207240e+003,1.184758e-002
1.209168e+003,1.202519e-002
1.211096e+003,1.209721e-002
1.213025e+003,1.198445e-002
1.214953e+003,1.202720e-002
1.216882e+003,1.205367e-002
1.218810e+003,1.210722e-002
1.220739e+003,1.213843e-002
1.222667e+003,1.217925e-002
1.224596e+003,1.225229e-002
1.226524e+003,1.237026e-002
1.228453e+003,1.256070e-002
1.230381e+003,1.268828e-002
1.232310e+003,1.272942e-002
1.234238e+003,1.282736e-002
1.236167e+003,1.303265e-002
1.238095e+003,1.305477e-002
1.240024e+003,1.313775e-002
1.241952e+003,1.326598e-002
1.243881e+003,1.323462e-002
1.245809e+003,1.325279e-002
1.247738e+003,1.331828e-002
1.249666e+003,1.333434e-002
1.251595e+003,1.347035e-002
1.253523e+003,1.366083e-002
1.255452e+003,1.372399e-002
1.257380e+003,1.366685e-002
1.259309e+003,1.363826e-002
1.261237e+003,1.380128e-002
1.263166e+003,1.424181e-002
1.265094e+003,1.458337e-002
1.267023e+003,1.478332e-002
1.268951e+003,1.502593e-002
1.270880e+003,1.520502e-002
1.272808e+003,1.537378e-002
1.274737e+003,1.558622e-002
1.276665e+003,1.593475e-002
1.278594e+003,1.623884e-002
1.280522e+003,1.646034e-002
1.282451e+003,1.659475e-002
1.284379e+003,1.666653e-002
1.286308e+003,1.705904e-002
1.288236e+003,1.737327e-002
1.290165e+003,1.755302e-002
1.292093e+003,1.778082e-002
1.294022e+003,1.776377e-002
1.295950e+003,1.793449e-002
1.297879e+003,1.805996e-002
1.299807e+003,1.806507e-002
1.301736e+003,1.790528e-002
1.303664e+003,1.782052e-002
1.305593e+003,1.786478e-002
1.307521e+003,1.777333e-002
1.309450e+003,1.759114e-002
1.311378e+003,1.736110e-002
1.313307e+003,1.718185e-002
1.315235e+003,1.704939e-002
1.317164e+003,1.684144e-002
1.319092e+003,1.639369e-002
1.321021e+003,1.595688e-002
1.322949e+003,1.568813e-002
1.324878e+003,1.546039e-002
1.326806e+003,1.544055e-002
1.328735e+003,1.550393e-002
1.330663e+003,1.538006e-002
1.332592e+003,1.515509e-002
1.334520e+003,1.501890e-002
1.336449e+003,1.494118e-002
1.338377e+003,1.478219e-002
1.340306e+003,1.473475e-002
1.342234e+003,1.489417e-002
1.344163e+003,1.481120e-002
1.346091e+003,1.474473e-002
1.348020e+003,1.483242e-002
1.349948e+003,1.482357e-002
1.351877e+003,1.475220e-002
1.353805e+003,1.476128e-002
1.355734e+003,1.471110e-002
1.357662e+003,1.466199e-002
1.359591e+003,1.470037e-002
1.361519e+003,1.453242e-002
1.363448e+003,1.434170e-002
1.365376e+003,1.426876e-002
1.367305e+003,1.421915e-002
1.369233e+003,1.423137e-002
1.371162e+003,1.409242e-002
1.373090e+003,1.397641e-002
1.375019e+003,1.402185e-002
1.376947e+003,1.409560e-002
1.378876e+003,1.415629e-002
1.380804e+003,1.430447e-002
1.382733e+003,1.431269e-002
1.384661e+003,1.411576e-002
1.386590e+003,1.390917e-002
1.388518e+003,1.385208e-002
1.390447e+003,1.387452e-002
1.392375e+003,1.368907e-002
1.394304e+003,1.343675e-002
1.396232e+003,1.336472e-002
1.398161e+003,1.331077e-002
1.400089e+003,1.340606e-002
1.402018e+003,1.343945e-002
1.403946e+003,1.337138e-002
1.405875e+003,1.340538e-002
1.407803e+003,1.341078e-002
1.409732e+003,1.322939e-002
1.411660e+003,1.305727e-002
1.413589e+003,1.296290e-002
1.415517e+003,1.298680e-002
1.417446e+003,1.311156e-002
1.419374e+003,1.342448e-002
1.421303e+003,1.394089e-002
1.423231e+003,1.434139e-002
1.425160e+003,1.495096e-002
1.427088e+003,1.548354e-002
1.429017e+003,1.580165e-002
1.430945e+003,1.611651e-002
1.432874e+003,1.644052e-002
1.434802e+003,1.668248e-002
1.436731e+003,1.691374e-002
1.438659e+003,1.746360e-002
1.440588e+003,1.791018e-002
1.442516e+003,1.834906e-002
1.444445e+003,1.881942e-002
1.446373e+003,1.917627e-002
1.448302e+003,1.949457e-002
1.450230e+003,1.996242e-002
1.452159e+003,2.035101e-002
1.454087e+003,2.063831e-002
1.456016e+003,2.050445e-002
1.457944e+003,2.060367e-002
1.459873e+003,2.100114e-002
1.461801e+003,2.112127e-002
1.463730e+003,2.103279e-002
1.465658e+003,2.102121e-002
1.467587e+003,2.091220e-002
1.469515e+003,2.051351e-002
1.471444e+003,2.005721e-002
1.473372e+003,1.967925e-002
1.475301e+003,1.945849e-002
1.477229e+003,1.912163e-002
1.479158e+003,1.865672e-002
1.481086e+003,1.803146e-002
1.483015e+003,1.749879e-002
1.484943e+003,1.697390e-002
1.486872e+003,1.649569e-002
1.488800e+003,1.609557e-002
1.490729e+003,1.569789e-002
1.492657e+003,1.542637e-002
1.494586e+003,1.509420e-002
1.496514e+003,1.463978e-002
1.498443e+003,1.435245e-002
1.500371e+003,1.419737e-002
1.502300e+003,1.417464e-002
1.504228e+003,1.382098e-002
1.506157e+003,1.308957e-002
1.508085e+003,1.300936e-002
1.510014e+003,1.320934e-002
1.511942e+003,1.326413e-002
1.513871e+003,1.329259e-002
1.515799e+003,1.310053e-002
1.517728e+003,1.302920e-002
1.519656e+003,1.283831e-002
1.521585e+003,1.255306e-002
1.523513e+003,1.292432e-002
1.525442e+003,1.320080e-002
1.527370e+003,1.336291e-002
1.529299e+003,1.349048e-002
1.531227e+003,1.350846e-002
1.533156e+003,1.358366e-002
1.535084e+003,1.387045e-002
1.537013e+003,1.391899e-002
1.538941e+003,1.357785e-002
1.540870e+003,1.361566e-002
1.542798e+003,1.402024e-002
1.544727e+003,1.431386e-002
1.546655e+003,1.453493e-002
1.548584e+003,1.464156e-002
1.550512e+003,1.476817e-002
1.552441e+003,1.479604e-002
1.554369e+003,1.463560e-002
1.556298e+003,1.452485e-002
1.558226e+003,1.417786e-002
1.560155e+003,1.460301e-002
1.562083e+003,1.543207e-002
1.564012e+003,1.591657e-002
1.565940e+003,1.631848e-002
1.567869e+003,1.641244e-002
1.569797e+003,1.650113e-002
1.571726e+003,1.684977e-002
1.573654e+003,1.683675e-002
1.575583e+003,1.663896e-002
1.577511e+003,1.682050e-002
1.579440e+003,1.698375e-002
1.581368e+003,1.701452e-002
1.583297e+003,1.694744e-002
1.585225e+003,1.684203e-002
1.587154e+003,1.688105e-002
1.589082e+003,1.674470e-002
1.591010e+003,1.637638e-002
1.592939e+003,1.603905e-002
1.594868e+003,1.582975e-002
1.596796e+003,1.565354e-002
1.598724e+003,1.544477e-002
1.600653e+003,1.512830e-002
1.602582e+003,1.485038e-002
1.604510e+003,1.460023e-002
1.606438e+003,1.436225e-002
1.608367e+003,1.408465e-002
1.610296e+003,1.389628e-002
1.612224e+003,1.363505e-002
1.614152e+003,1.329215e-002
1.616081e+003,1.284708e-002
1.618010e+003,1.287261e-002
1.619938e+003,1.296860e-002
1.621866e+003,1.271311e-002
1.623795e+003,1.244165e-002
1.625724e+003,1.253495e-002
1.627652e+003,1.247459e-002
1.629580e+003,1.243497e-002
1.631509e+003,1.230979e-002
1.633438e+003,1.199916e-002
1.635366e+003,1.162906e-002
1.637294e+003,1.156927e-002
1.639223e+003,1.149472e-002
1.641151e+003,1.126883e-002
1.643080e+003,1.083172e-002
1.645008e+003,1.029358e-002
1.646937e+003,1.006211e-002
1.648865e+003,1.009219e-002
1.650794e+003,9.694199e-003
1.652722e+003,8.964588e-003
1.654651e+003,9.178652e-003
1.656579e+003,9.529022e-003
1.658508e+003,9.407822e-003
1.660436e+003,9.230975e-003
1.662365e+003,9.041648e-003
1.664293e+003,9.069019e-003
1.666222e+003,9.213950e-003
1.668150e+003,8.916458e-003
1.670079e+003,8.584223e-003
1.672007e+003,8.729027e-003
1.673936e+003,8.596728e-003
1.675864e+003,8.521638e-003
1.677793e+003,8.706816e-003
1.679721e+003,8.696945e-003
1.681650e+003,8.517549e-003
1.683578e+003,8.064996e-003
1.685507e+003,8.043122e-003
1.687435e+003,8.195410e-003
1.689364e+003,8.249607e-003
1.691292e+003,8.334816e-003
1.693221e+003,8.317118e-003
1.695149e+003,8.084742e-003
1.697078e+003,8.154321e-003
1.699006e+003,7.947240e-003
1.700935e+003,7.872870e-003
1.702863e+003,8.406157e-003
1.704792e+003,8.510792e-003
1.706720e+003,8.670511e-003
1.708649e+003,8.885783e-003
1.710577e+003,8.908172e-003
1.712506e+003,8.827449e-003
1.714434e+003,8.739540e-003
1.716363e+003,8.468388e-003
1.718291e+003,8.407339e-003
1.720220e+003,8.749920e-003
1.722148e+003,8.865594e-003
1.724077e+003,8.883382e-003
1.726005e+003,8.993036e-003
1.727934e+003,9.027406e-003
1.729862e+003,9.018001e-003
1.731791e+003,8.851999e-003
1.733719e+003,8.505013e-003
1.735648e+003,8.611700e-003
1.737576e+003,8.810678e-003
1.739505e+003,8.834652e-003
1.741433e+003,9.053219e-003
1.743362e+003,9.114764e-003
1.745290e+003,9.110365e-003
1.747219e+003,9.131243e-003
1.749147e+003,9.102989e-003
1.751076e+003,9.011574e-003
1.753004e+003,9.143357e-003
1.754933e+003,9.270475e-003
1.756861e+003,9.319965e-003
1.758790e+003,9.313432e-003
1.760718e+003,9.182510e-003
1.762647e+003,9.216929e-003
1.764575e+003,9.399153e-003
1.766504e+003,9.383444e-003
1.768432e+003,9.297216e-003
1.770361e+003,9.204677e-003
1.772289e+003,9.056264e-003
1.774218e+003,9.196013e-003
1.776146e+003,9.315192e-003
1.778075e+003,9.358457e-003
1.780003e+003,9.290447e-003
1.781932e+003,9.305104e-003
1.783860e+003,9.357069e-003
1.785789e+003,9.331407e-003
1.787717e+003,9.392856e-003
1.789646e+003,9.425598e-003
1.791574e+003,9.174354e-003
1.793503e+003,9.125220e-003
1.795431e+003,9.292646e-003
1.797360e+003,9.353683e-003
1.799288e+003,9.354462e-003
1.801217e+003,9.332660e-003
1.803145e+003,9.410023e-003
1.805074e+003,9.555272e-003
1.807002e+003,9.615905e-003
1.808931e+003,9.476020e-003
1.810859e+003,9.578677e-003
1.812788e+003,9.709921e-003
1.814716e+003,9.678716e-003
1.816645e+003,9.628168e-003
1.818573e+003,9.544704e-003
1.820502e+003,9.564789e-003
1.822430e+003,9.518895e-003
1.824359e+003,9.456582e-003
1.826287e+003,9.528175e-003
1.828216e+003,9.469688e-003
1.830144e+003,9.365669e-003
1.832073e+003,9.496035e-003
1.834001e+003,9.594259e-003
1.835930e+003,9.509616e-003
1.837858e+003,9.450114e-003
1.839787e+003,9.488212e-003
1.841715e+003,9.527363e-003
1.843644e+003,9.392686e-003
1.845572e+003,9.332051e-003
1.847501e+003,9.429492e-003
1.849429e+003,9.485265e-003
1.851358e+003,9.541215e-003
1.853286e+003,9.627118e-003
1.855215e+003,9.699993e-003
1.857143e+003,9.656930e-003
1.859072e+003,9.582403e-003
1.861000e+003,9.542875e-003
1.862929e+003,9.623866e-003
1.864857e+003,9.677970e-003
1.866786e+003,9.549818e-003
1.868714e+003,9.388590e-003
1.870643e+003,9.524450e-003
1.872571e+003,9.686745e-003
1.874500e+003,9.704500e-003
1.876428e+003,9.703856e-003
1.878357e+003,9.717511e-003
1.880285e+003,9.723067e-003
1.882214e+003,9.636638e-003
1.884142e+003,9.620546e-003
1.886071e+003,9.669296e-003
1.887999e+003,9.688982e-003
1.889928e+003,9.698062e-003
1.891856e+003,9.689862e-003
1.893785e+003,9.684984e-003
1.895713e+003,9.738349e-003
1.897642e+003,9.835883e-003
1.899570e+003,9.834968e-003
1.901499e+003,9.779150e-003
1.903427e+003,9.766204e-003
1.905356e+003,9.674412e-003
1.907284e+003,9.657540e-003
1.909213e+003,9.772982e-003
1.911141e+003,9.850321e-003
1.913070e+003,9.826901e-003
1.914998e+003,9.691590e-003
1.916927e+003,9.606048e-003
1.918855e+003,9.675564e-003
1.920784e+003,9.671533e-003
1.922712e+003,9.585451e-003
1.924641e+003,9.661403e-003
1.926569e+003,9.696977e-003
1.928498e+003,9.665841e-003
1.930426e+003,9.650697e-003
1.932355e+003,9.709311e-003
1.934283e+003,9.705008e-003
1.936212e+003,9.654932e-003
1.938140e+003,9.675260e-003
1.940069e+003,9.631556e-003
1.941997e+003,9.587280e-003
1.943926e+003,9.621562e-003
1.945854e+003,9.614550e-003
1.947783e+003,9.540808e-003
1.949711e+003,9.540876e-003
1.951640e+003,9.635045e-003
1.953568e+003,9.691793e-003
1.955497e+003,9.683730e-003
1.957425e+003,9.688914e-003
1.959354e+003,9.654119e-003
1.961282e+003,9.646597e-003
1.963211e+003,9.641584e-003
1.965139e+003,9.659573e-003
1.967068e+003,9.596088e-003
1.968996e+003,9.604929e-003
1.970925e+003,9.707854e-003
1.972853e+003,9.733741e-003
1.974782e+003,9.692471e-003
1.976710e+003,9.642735e-003
1.978639e+003,9.599679e-003
1.980567e+003,9.603778e-003
1.982496e+003,9.644836e-003
1.984424e+003,9.605742e-003
1.986353e+003,9.536067e-003
1.988281e+003,9.541486e-003
1.990210e+003,9.572817e-003
1.992138e+003,9.639416e-003
1.994067e+003,9.665028e-003
1.995995e+003,9.628541e-003
1.997924e+003,9.706092e-003
1.999852e+003,9.810125e-003
2.001781e+003,9.725541e-003
2.003709e+003,9.646293e-003
2.005638e+003,9.726422e-003
2.007566e+003,9.649375e-003
2.009495e+003,9.589483e-003
2.011423e+003,9.581353e-003
2.013352e+003,9.665536e-003
2.015280e+003,9.686542e-003
2.017208e+003,9.645683e-003
2.019137e+003,9.561470e-003
2.021066e+003,9.635994e-003
2.022994e+003,9.724931e-003
2.024922e+003,9.744890e-003
2.026851e+003,9.787825e-003
2.028780e+003,9.734114e-003
2.030708e+003,9.671804e-003
2.032636e+003,9.754716e-003
2.034565e+003,9.812328e-003
2.036494e+003,9.783656e-003
2.038422e+003,9.756106e-003
2.040350e+003,9.752276e-003
2.042279e+003,9.808159e-003
2.044208e+003,9.766577e-003
2.046136e+003,9.702026e-003
2.048064e+003,9.729641e-003
2.049993e+003,9.721543e-003
2.051921e+003,9.696096e-003
2.053850e+003,9.695419e-003
2.055778e+003,9.710835e-003
2.057707e+003,9.741263e-003
2.059635e+003,9.871879e-003
2.061564e+003,9.938523e-003
2.063492e+003,9.878794e-003
2.065421e+003,9.763595e-003
2.067349e+003,9.767797e-003
2.069278e+003,9.805109e-003
2.071206e+003,9.804669e-003
2.073135e+003,9.893369e-003
2.075063e+003,9.933777e-003
2.076992e+003,9.833578e-003
2.078920e+003,9.844491e-003
2.080849e+003,9.890691e-003
2.082777e+003,9.916827e-003
2.084706e+003,9.981003e-003
2.086634e+003,9.948389e-003
2.088563e+003,9.873065e-003
2.090491e+003,9.926421e-003
2.092420e+003,9.928862e-003
2.094348e+003,9.841238e-003
2.096277e+003,9.940218e-003
2.098205e+003,1.003610e-002
2.100134e+003,1.002200e-002
2.102062e+003,1.009531e-002
2.103991e+003,1.009368e-002
2.105919e+003,1.009985e-002
2.107848e+003,1.011552e-002
2.109776e+003,1.009772e-002
2.111705e+003,1.008815e-002
2.113633e+003,1.015246e-002
2.115562e+003,1.021144e-002
2.117490e+003,1.019302e-002
2.119419e+003,1.022403e-002
2.121347e+003,1.025222e-002
2.123276e+003,1.024913e-002
2.125204e+003,1.021060e-002
2.127133e+003,1.019068e-002
2.129061e+003,1.028815e-002
2.130990e+003,1.028740e-002
2.132918e+003,1.027665e-002
2.134847e+003,1.028415e-002
2.136775e+003,1.024903e-002
2.138704e+003,1.027373e-002
2.140632e+003,1.031305e-002
2.142561e+003,1.022586e-002
2.144489e+003,1.011495e-002
2.146418e+003,1.015215e-002
2.148346e+003,1.026046e-002
2.150275e+003,1.034529e-002
2.152203e+003,1.037705e-002
2.154132e+003,1.038350e-002
2.156060e+003,1.037043e-002
2.157989e+003,1.024313e-002
2.159917e+003,1.023122e-002
2.161846e+003,1.035818e-002
2.163774e+003,1.039684e-002
2.165703e+003,1.037939e-002
2.167631e+003,1.039714e-002
2.169560e+003,1.046509e-002
2.171488e+003,1.049540e-002
2.173417e+003,1.044011e-002
2.175345e+003,1.038126e-002
2.177274e+003,1.036982e-002
2.179202e+003,1.042534e-002
2.181131e+003,1.051560e-002
2.183059e+003,1.050100e-002
2.184988e+003,1.036714e-002
2.186916e+003,1.026281e-002
2.188845e+003,1.031316e-002
2.190773e+003,1.046933e-002
2.192702e+003,1.049465e-002
2.194630e+003,1.037501e-002
2.196559e+003,1.031777e-002
2.198487e+003,1.036097e-002
2.200416e+003,1.036450e-002
2.202344e+003,1.036256e-002
2.204273e+003,1.039405e-002
2.206201e+003,1.044639e-002
2.208130e+003,1.040702e-002
2.210058e+003,1.037763e-002
2.211987e+003,1.036097e-002
2.213915e+003,1.036341e-002
2.215844e+003,1.033582e-002
2.217772e+003,1.030583e-002
2.219701e+003,1.037328e-002
2.221629e+003,1.034230e-002
2.223558e+003,1.030566e-002
2.225486e+003,1.031685e-002
2.227415e+003,1.030403e-002
2.229343e+003,1.030773e-002
2.231272e+003,1.044496e-002
2.233200e+003,1.044347e-002
2.235129e+003,1.035757e-002
2.237057e+003,1.034597e-002
2.238986e+003,1.034390e-002
2.240914e+003,1.026922e-002
2.242843e+003,1.030365e-002
2.244771e+003,1.033670e-002
2.246700e+003,1.028496e-002
2.248628e+003,1.025538e-002
2.250557e+003,1.030857e-002
2.252485e+003,1.029368e-002
2.254414e+003,1.025945e-002
2.256342e+003,1.023818e-002
2.258271e+003,1.019699e-002
2.260199e+003,1.021473e-002
2.262128e+003,1.012485e-002
2.264056e+003,1.017891e-002
2.265985e+003,1.030057e-002
2.267913e+003,1.021993e-002
2.269842e+003,1.019686e-002
2.271770e+003,1.023339e-002
2.273699e+003,1.020181e-002
2.275627e+003,1.021144e-002
2.277556e+003,1.022488e-002
2.279484e+003,1.018502e-002
2.281413e+003,1.019618e-002
2.283341e+003,1.015310e-002
2.285270e+003,1.013458e-002
2.287198e+003,1.014652e-002
2.289127e+003,1.017501e-002
2.291055e+003,1.020252e-002
2.292984e+003,1.023831e-002
2.294912e+003,1.020337e-002
2.296841e+003,1.017135e-002
2.298769e+003,1.017817e-002
2.300698e+003,1.025721e-002
2.302626e+003,1.017715e-002
2.304555e+003,1.012919e-002
2.306483e+003,1.012495e-002
2.308412e+003,1.013730e-002
2.310340e+003,1.013160e-002
2.312269e+003,1.007784e-002
2.314197e+003,1.008982e-002
2.316125e+003,1.008826e-002
2.318054e+003,9.905403e-003
2.319983e+003,9.789146e-003
2.321911e+003,9.725778e-003
2.323840e+003,9.702127e-003
2.325768e+003,9.680646e-003
2.327697e+003,9.629726e-003
2.329625e+003,9.639619e-003
2.331553e+003,9.550598e-003
2.333482e+003,9.503283e-003
2.335411e+003,9.530207e-003
2.337339e+003,9.521842e-003
2.339268e+003,9.442021e-003
2.341196e+003,9.415982e-003
2.343125e+003,9.453840e-003
2.345053e+003,9.589517e-003
2.346981e+003,9.764984e-003
2.348910e+003,9.810667e-003
2.350839e+003,9.743772e-003
2.352767e+003,9.578406e-003
2.354696e+003,9.386119e-003
2.356624e+003,9.335469e-003
2.358552e+003,9.236762e-003
2.360481e+003,9.092364e-003
2.362409e+003,9.135067e-003
2.364338e+003,9.165826e-003
2.366267e+003,9.330831e-003
2.368195e+003,9.484961e-003
2.370124e+003,9.604353e-003
2.372052e+003,9.800093e-003
2.373980e+003,9.964119e-003
2.375909e+003,1.006147e-002
2.377838e+003,1.022417e-002
2.379766e+003,1.034475e-002
2.381695e+003,1.039684e-002
2.383623e+003,1.046546e-002
2.385552e+003,1.060383e-002
2.387480e+003,1.064223e-002
2.389408e+003,1.066906e-002
2.391337e+003,1.068054e-002
2.393266e+003,1.062451e-002
2.395194e+003,1.061113e-002
2.397123e+003,1.062465e-002
2.399051e+003,1.063313e-002
2.400979e+003,1.062692e-002
2.402908e+003,1.061045e-002
2.404836e+003,1.061093e-002
2.406765e+003,1.054286e-002
2.408694e+003,1.047680e-002
2.410622e+003,1.054673e-002
2.412551e+003,1.061534e-002
2.414479e+003,1.061422e-002
2.416407e+003,1.065483e-002
2.418336e+003,1.064488e-002
2.420264e+003,1.063021e-002
2.422193e+003,1.070112e-002
2.424122e+003,1.076181e-002
2.426050e+003,1.079143e-002
2.427979e+003,1.081847e-002
2.429907e+003,1.081415e-002
2.431835e+003,1.086712e-002
2.433764e+003,1.095097e-002
2.435692e+003,1.098978e-002
2.437621e+003,1.103586e-002
2.439550e+003,1.109334e-002
2.441478e+003,1.103056e-002
2.443406e+003,1.100881e-002
2.445335e+003,1.103702e-002
2.447263e+003,1.100830e-002
2.449192e+003,1.093833e-002
2.451121e+003,1.103168e-002
2.453049e+003,1.103926e-002
2.454978e+003,1.101877e-002
2.456906e+003,1.105802e-002
2.458834e+003,1.110843e-002
2.460763e+003,1.111043e-002
2.462691e+003,1.116143e-002
2.464620e+003,1.128121e-002
2.466549e+003,1.128570e-002
2.468477e+003,1.121647e-002
2.470406e+003,1.126945e-002
2.472334e+003,1.130383e-002
2.474262e+003,1.130379e-002
2.476191e+003,1.137954e-002
2.478119e+003,1.134001e-002
2.480048e+003,1.128097e-002
2.481977e+003,1.133324e-002
2.483905e+003,1.139634e-002
2.485833e+003,1.138137e-002
2.487762e+003,1.135372e-002
2.489690e+003,1.142076e-002
2.491619e+003,1.144627e-002
2.493547e+003,1.146107e-002
2.495476e+003,1.147468e-002
2.497405e+003,1.145934e-002
2.499333e+003,1.152048e-002
2.501261e+003,1.170663e-002
2.503190e+003,1.165796e-002
2.505118e+003,1.157645e-002
2.507047e+003,1.158312e-002
2.508975e+003,1.160820e-002
2.510904e+003,1.166374e-002
2.512833e+003,1.170874e-002
2.514761e+003,1.179082e-002
2.516689e+003,1.184884e-002
2.518618e+003,1.174884e-002
2.520546e+003,1.165493e-002
2.522475e+003,1.158465e-002
2.524403e+003,1.160187e-002
2.526332e+003,1.176011e-002
2.528260e+003,1.186947e-002
2.530189e+003,1.180267e-002
2.532117e+003,1.176586e-002
2.534046e+003,1.176049e-002
2.535974e+003,1.189947e-002
2.537903e+003,1.191354e-002
2.539831e+003,1.180331e-002
2.541760e+003,1.178125e-002
2.543688e+003,1.178830e-002
2.545617e+003,1.175061e-002
2.547545e+003,1.182657e-002
2.549474e+003,1.196367e-002
2.551402e+003,1.197062e-002
2.553331e+003,1.189178e-002
2.555259e+003,1.186242e-002
2.557188e+003,1.186917e-002
2.559116e+003,1.184462e-002
2.561045e+003,1.194116e-002
2.562973e+003,1.201653e-002
2.564902e+003,1.195478e-002
2.566830e+003,1.190989e-002
2.568759e+003,1.198097e-002
2.570687e+003,1.205005e-002
2.572616e+003,1.204072e-002
2.574544e+003,1.208405e-002
2.576473e+003,1.203207e-002
2.578401e+003,1.194576e-002
2.580330e+003,1.200819e-002
2.582258e+003,1.215250e-002
2.584187e+003,1.218113e-002
2.586115e+003,1.209342e-002
2.588044e+003,1.200012e-002
2.589972e+003,1.202451e-002
2.591901e+003,1.208446e-002
2.593829e+003,1.217015e-002
2.595758e+003,1.226169e-002
2.597686e+003,1.223988e-002
2.599615e+003,1.220699e-002
2.601543e+003,1.219837e-002
2.603472e+003,1.210058e-002
2.605400e+003,1.210214e-002
2.607329e+003,1.219227e-002
2.609257e+003,1.231391e-002
2.611186e+003,1.230467e-002
2.613114e+003,1.224782e-002
2.615043e+003,1.219571e-002
2.616971e+003,1.227921e-002
2.618900e+003,1.224901e-002
2.620828e+003,1.227243e-002
2.622757e+003,1.242798e-002
2.624685e+003,1.251660e-002
2.626614e+003,1.247834e-002
2.628542e+003,1.231340e-002
2.630471e+003,1.220822e-002
2.632399e+003,1.230464e-002
2.634328e+003,1.233736e-002
2.636256e+003,1.230120e-002
2.638185e+003,1.243633e-002
2.640113e+003,1.258771e-002
2.642042e+003,1.263786e-002
2.643970e+003,1.265689e-002
2.645899e+003,1.268364e-002
2.647827e+003,1.266685e-002
2.649756e+003,1.259549e-002
2.651684e+003,1.254467e-002
2.653613e+003,1.265276e-002
2.655541e+003,1.279443e-002
2.657470e+003,1.284623e-002
2.659398e+003,1.285855e-002
2.661327e+003,1.285801e-002
2.663255e+003,1.285657e-002
2.665184e+003,1.284743e-002
2.667112e+003,1.284562e-002
2.669041e+003,1.292535e-002
2.670969e+003,1.298383e-002
2.672898e+003,1.299680e-002
2.674826e+003,1.302934e-002
2.676755e+003,1.305751e-002
2.678683e+003,1.311733e-002
2.680612e+003,1.313683e-002
2.682540e+003,1.317918e-002
2.684469e+003,1.325375e-002
2.686397e+003,1.331842e-002
2.688326e+003,1.336520e-002
2.690254e+003,1.338922e-002
2.692183e+003,1.336957e-002
2.694111e+003,1.337760e-002
2.696040e+003,1.343105e-002
2.697968e+003,1.348559e-002
2.699897e+003,1.350911e-002
2.701825e+003,1.356814e-002
2.703754e+003,1.363105e-002
2.705682e+003,1.371298e-002
2.707611e+003,1.374864e-002
2.709539e+003,1.385095e-002
2.711468e+003,1.389884e-002
2.713396e+003,1.388714e-002
2.715325e+003,1.383306e-002
2.717253e+003,1.386142e-002
2.719182e+003,1.393511e-002
2.721110e+003,1.408345e-002
2.723039e+003,1.426263e-002
2.724967e+003,1.436375e-002
2.726896e+003,1.441825e-002
2.728824e+003,1.442602e-002
2.730753e+003,1.442828e-002
2.732681e+003,1.455754e-002
2.734610e+003,1.462419e-002
2.736538e+003,1.469602e-002
2.738467e+003,1.479073e-002
2.740395e+003,1.493824e-002
2.742324e+003,1.502024e-002
2.744252e+003,1.498032e-002
2.746181e+003,1.502813e-002
2.748109e+003,1.519044e-002
2.750038e+003,1.524596e-002
2.751966e+003,1.521953e-002
2.753895e+003,1.526655e-002
2.755823e+003,1.531316e-002
2.757752e+003,1.544848e-002
2.759680e+003,1.566862e-002
2.761609e+003,1.592351e-002
2.763537e+003,1.618540e-002
2.765466e+003,1.639317e-002
2.767394e+003,1.664904e-002
2.769323e+003,1.702296e-002
2.771251e+003,1.733196e-002
2.773180e+003,1.770526e-002
2.775108e+003,1.816563e-002
2.777037e+003,1.852329e-002
2.778965e+003,1.895092e-002
2.780894e+003,1.953924e-002
2.782822e+003,2.010305e-002
2.784750e+003,2.070527e-002
2.786679e+003,2.144608e-002
2.788608e+003,2.209416e-002
2.790536e+003,2.270728e-002
2.792465e+003,2.340050e-002
2.794393e+003,2.407465e-002
2.796322e+003,2.472909e-002
2.798250e+003,2.537598e-002
2.800178e+003,2.602224e-002
2.802107e+003,2.670101e-002
2.804036e+003,2.719850e-002
2.805964e+003,2.765817e-002
2.807893e+003,2.801102e-002
2.809821e+003,2.805566e-002
2.811750e+003,2.816185e-002
2.813678e+003,2.822573e-002
2.815606e+003,2.808231e-002
2.817535e+003,2.790433e-002
2.819464e+003,2.766569e-002
2.821392e+003,2.731524e-002
2.823321e+003,2.693077e-002
2.825249e+003,2.647986e-002
2.827177e+003,2.607787e-002
2.829106e+003,2.566837e-002
2.831034e+003,2.512941e-002
2.832963e+003,2.458993e-002
2.834892e+003,2.409843e-002
2.836820e+003,2.340564e-002
2.838749e+003,2.279213e-002
2.840677e+003,2.230133e-002
2.842605e+003,2.164542e-002
2.844534e+003,2.089686e-002
2.846462e+003,2.025925e-002
2.848391e+003,1.973344e-002
2.850320e+003,1.932538e-002
2.852248e+003,1.909968e-002
2.854177e+003,1.895736e-002
2.856105e+003,1.869034e-002
2.858033e+003,1.842466e-002
2.859962e+003,1.845712e-002
2.861890e+003,1.857309e-002
2.863819e+003,1.857776e-002
2.865748e+003,1.860781e-002
2.867676e+003,1.869421e-002
2.869604e+003,1.866979e-002
2.871533e+003,1.866436e-002
2.873461e+003,1.887229e-002
2.875390e+003,1.910985e-002
2.877319e+003,1.916027e-002
2.879247e+003,1.931363e-002
2.881176e+003,1.943624e-002
2.883104e+003,1.936331e-002
2.885032e+003,1.929188e-002
2.886961e+003,1.933605e-002
2.888889e+003,1.936248e-002
2.890818e+003,1.928568e-002
2.892747e+003,1.898896e-002
2.894675e+003,1.889295e-002
2.896604e+003,1.895348e-002
2.898532e+003,1.890043e-002
2.900460e+003,1.879644e-002
2.902389e+003,1.873704e-002
2.904317e+003,1.870286e-002
2.906246e+003,1.864762e-002
2.908175e+003,1.860919e-002
2.910103e+003,1.844637e-002
2.912031e+003,1.827997e-002
2.913960e+003,1.817866e-002
2.915888e+003,1.801937e-002
2.917817e+003,1.810649e-002
2.919745e+003,1.823874e-002
2.921674e+003,1.836886e-002
2.923603e+003,1.849159e-002
2.925531e+003,1.863935e-002
2.927459e+003,1.894705e-002
2.929388e+003,1.920775e-002
2.931316e+003,1.946130e-002
2.933245e+003,1.977238e-002
2.935173e+003,2.001821e-002
2.937102e+003,2.010066e-002
2.939031e+003,2.019173e-002
2.940959e+003,2.023373e-002
2.942887e+003,2.006609e-002
2.944816e+003,1.993925e-002
2.946744e+003,1.979884e-002
2.948673e+003,1.944608e-002
2.950601e+003,1.911245e-002
2.952530e+003,1.883506e-002
2.954458e+003,1.833492e-002
2.956387e+003,1.777381e-002
2.958315e+003,1.718168e-002
2.960244e+003,1.665407e-002
2.962172e+003,1.625831e-002
2.964101e+003,1.577852e-002
2.966029e+003,1.525262e-002
2.967958e+003,1.476365e-002
2.969886e+003,1.436218e-002
2.971815e+003,1.391756e-002
2.973743e+003,1.358954e-002
2.975672e+003,1.331757e-002
2.977600e+003,1.308479e-002
2.979529e+003,1.295105e-002
2.981457e+003,1.265382e-002
2.983386e+003,1.237868e-002
2.985314e+003,1.210773e-002
2.987243e+003,1.195260e-002
2.989171e+003,1.192025e-002
2.991100e+003,1.178990e-002
2.993028e+003,1.158166e-002
2.994957e+003,1.150622e-002
2.996885e+003,1.143206e-002
2.998814e+003,1.133294e-002
3.000742e+003,1.120103e-002
3.002671e+003,1.112209e-002
3.004599e+003,1.114813e-002
3.006528e+003,1.118091e-002
3.008456e+003,1.109772e-002
3.010385e+003,1.102349e-002
3.012313e+003,1.101411e-002
3.014242e+003,1.100823e-002
3.016170e+003,1.098288e-002
3.018099e+003,1.102526e-002
3.020027e+003,1.110731e-002
3.021956e+003,1.096575e-002
3.023884e+003,1.085716e-002
3.025813e+003,1.092973e-002
3.027741e+003,1.082268e-002
3.029670e+003,1.076667e-002
3.031598e+003,1.091189e-002
3.033527e+003,1.090221e-002
3.035455e+003,1.085064e-002
3.037384e+003,1.081116e-002
3.039312e+003,1.068590e-002
3.041241e+003,1.063629e-002
3.043169e+003,1.054948e-002
3.045098e+003,1.055976e-002
3.047026e+003,1.056631e-002
3.048955e+003,1.044255e-002
3.050883e+003,1.036334e-002
3.052812e+003,1.034400e-002
3.054740e+003,1.040169e-002
3.056669e+003,1.043220e-002
3.058597e+003,1.044109e-002
3.060526e+003,1.045056e-002
3.062454e+003,1.040230e-002
3.064383e+003,1.028072e-002
3.066311e+003,1.029711e-002
3.068240e+003,1.030070e-002
3.070168e+003,1.023180e-002
3.072097e+003,1.016253e-002
3.074025e+003,1.020395e-002
3.075954e+003,1.024934e-002
3.077882e+003,1.020971e-002
3.079811e+003,1.008368e-002
3.081739e+003,9.933608e-003
3.083668e+003,9.984563e-003
3.085596e+003,1.005855e-002
3.087525e+003,1.001423e-002
3.089453e+003,9.997278e-003
3.091382e+003,9.871269e-003
3.093310e+003,9.779387e-003
3.095239e+003,9.877336e-003
3.097167e+003,9.950321e-003
3.099096e+003,9.878523e-003
3.101024e+003,9.793044e-003
3.102953e+003,9.859642e-003
3.104881e+003,9.808565e-003
3.106810e+003,9.703076e-003
3.108738e+003,9.753531e-003
3.110667e+003,9.776913e-003
3.112595e+003,9.722390e-003
3.114524e+003,9.700603e-003
3.116452e+003,9.768169e-003
3.118381e+003,9.699045e-003
3.120309e+003,9.606691e-003
3.122238e+003,9.570378e-003
3.124166e+003,9.551173e-003
3.126095e+003,9.529971e-003
3.128023e+003,9.580168e-003
3.129952e+003,9.652290e-003
3.131880e+003,9.641482e-003
3.133809e+003,9.627897e-003
3.135737e+003,9.590702e-003
3.137666e+003,9.660725e-003
3.139594e+003,9.655101e-003
3.141523e+003,9.696435e-003
3.143451e+003,9.747397e-003
3.145380e+003,9.701416e-003
3.147308e+003,9.720865e-003
3.149237e+003,9.635757e-003
3.151165e+003,9.535593e-003
3.153094e+003,9.543112e-003
3.155022e+003,9.549276e-003
3.156951e+003,9.562045e-003
3.158879e+003,9.570615e-003
3.160808e+003,9.656626e-003
3.162736e+003,9.675361e-003
3.164665e+003,9.598324e-003
3.166593e+003,9.553985e-003
3.168522e+003,9.534780e-003
3.170450e+003,9.532917e-003
3.172379e+003,9.577627e-003
3.174307e+003,9.691150e-003
3.176236e+003,9.822021e-003
3.178164e+003,9.873946e-003
3.180093e+003,9.832290e-003
3.182021e+003,9.717613e-003
3.183950e+003,9.679393e-003
3.185878e+003,9.736926e-003
3.187807e+003,9.813412e-003
3.189735e+003,9.712936e-003
3.191664e+003,9.554527e-003
3.193592e+003,9.551173e-003
3.195521e+003,9.496205e-003
3.197449e+003,9.603405e-003
3.199378e+003,9.801076e-003
3.201306e+003,9.807109e-003
3.203235e+003,9.635757e-003
3.205163e+003,9.654627e-003
3.207092e+003,9.650290e-003
3.209020e+003,9.763934e-003
3.210948e+003,9.783860e-003
3.212877e+003,9.688033e-003
3.214806e+003,9.729235e-003
3.216734e+003,9.858490e-003
3.218663e+003,9.823682e-003
3.220591e+003,9.816903e-003
3.222520e+003,1.002810e-002
3.224448e+003,1.009789e-002
3.226376e+003,1.015629e-002
3.228305e+003,1.026718e-002
3.230234e+003,1.035706e-002
3.232162e+003,1.042494e-002
3.234091e+003,1.050419e-002
3.236019e+003,1.045504e-002
3.237948e+003,1.042823e-002
3.239876e+003,1.050562e-002
3.241804e+003,1.054377e-002
3.243733e+003,1.049581e-002
3.245662e+003,1.056957e-002
3.247590e+003,1.056116e-002
3.249519e+003,1.058207e-002
3.251447e+003,1.061714e-002
3.253375e+003,1.068261e-002
3.255304e+003,1.076402e-002
3.257232e+003,1.095814e-002
3.259161e+003,1.108742e-002
3.261090e+003,1.106879e-002
3.263018e+003,1.114956e-002
3.264947e+003,1.118913e-002
3.266875e+003,1.109949e-002
3.268803e+003,1.118890e-002
3.270732e+003,1.127944e-002
3.272660e+003,1.140593e-002
3.274589e+003,1.142297e-002
3.276518e+003,1.144648e-002
3.278446e+003,1.148411e-002
3.280375e+003,1.141059e-002
3.282303e+003,1.140375e-002
3.284231e+003,1.144781e-002
3.286160e+003,1.148193e-002
3.288088e+003,1.141869e-002
3.290017e+003,1.122432e-002
3.291946e+003,1.116000e-002
3.293874e+003,1.112978e-002
3.295802e+003,1.111679e-002
3.297731e+003,1.109374e-002
3.299659e+003,1.110999e-002
3.301588e+003,1.109289e-002
3.303516e+003,1.107940e-002
3.305445e+003,1.104293e-002
3.307374e+003,1.093388e-002
3.309302e+003,1.075930e-002
3.311230e+003,1.061914e-002
3.313159e+003,1.047249e-002
3.315087e+003,1.029890e-002
3.317016e+003,1.023478e-002
3.318944e+003,1.020151e-002
3.320873e+003,1.023773e-002
3.322802e+003,1.017420e-002
3.324730e+003,9.795180e-003
3.326658e+003,9.715714e-003
3.328587e+003,9.874488e-003
3.330515e+003,9.934354e-003
3.332444e+003,9.718697e-003
3.334372e+003,9.543146e-003
3.336301e+003,9.549988e-003
3.338229e+003,9.580337e-003
3.340158e+003,9.622680e-003
3.342086e+003,9.650324e-003
3.344015e+003,9.719272e-003
3.345943e+003,9.749871e-003
3.347872e+003,9.577187e-003
3.349800e+003,9.518591e-003
3.351729e+003,9.598019e-003
3.353657e+003,9.472160e-003
3.355586e+003,9.256868e-003
3.357514e+003,9.076327e-003
3.359443e+003,9.003962e-003
3.361371e+003,9.134457e-003
3.363300e+003,9.220551e-003
3.365229e+003,9.057448e-003
3.367157e+003,9.037048e-003
3.369085e+003,8.883281e-003
3.371014e+003,8.764390e-003
3.372942e+003,8.815175e-003
3.374871e+003,8.762226e-003
3.376799e+003,8.785893e-003
3.378728e+003,8.682849e-003
3.380656e+003,8.476159e-003
3.382585e+003,8.259232e-003
3.384513e+003,8.182851e-003
3.386442e+003,8.262204e-003
3.388370e+003,8.427034e-003
3.390299e+003,8.464468e-003
3.392227e+003,8.374268e-003
3.394156e+003,8.294591e-003
3.396084e+003,8.169210e-003
3.398013e+003,8.167792e-003
3.399941e+003,8.242111e-003
3.401870e+003,8.230798e-003
3.403798e+003,8.204527e-003
3.405727e+003,8.114820e-003
3.407655e+003,8.169413e-003
3.409584e+003,8.220668e-003
3.411512e+003,8.093553e-003
3.413441e+003,8.018922e-003
3.415369e+003,8.028237e-003
3.417298e+003,8.093823e-003
3.419226e+003,8.070700e-003
3.421155e+003,7.980818e-003
3.423083e+003,7.883836e-003
3.425012e+003,7.946801e-003
3.426940e+003,7.995668e-003
3.428869e+003,7.961244e-003
3.430797e+003,7.914608e-003
3.432726e+003,7.943831e-003
3.434654e+003,7.879314e-003
3.436583e+003,7.805226e-003
3.438511e+003,7.922842e-003
3.440440e+003,8.120931e-003
3.442368e+003,8.151080e-003
3.444297e+003,7.928950e-003
3.446225e+003,7.919164e-003
3.448154e+003,7.885827e-003
3.450082e+003,7.869800e-003
3.452011e+003,7.976532e-003
3.453939e+003,7.894430e-003
3.455868e+003,7.761306e-003
3.457796e+003,7.832384e-003
3.459725e+003,7.928174e-003
3.461653e+003,7.927836e-003
3.463582e+003,7.902259e-003
3.465510e+003,7.832687e-003
3.467439e+003,7.763026e-003
3.469367e+003,7.970660e-003
3.471296e+003,8.135279e-003
3.473224e+003,8.063442e-003
3.475153e+003,7.885590e-003
3.477081e+003,7.883600e-003
3.479010e+003,7.857923e-003
3.480938e+003,7.890179e-003
3.482867e+003,7.875401e-003
3.484795e+003,7.967656e-003
3.486724e+003,7.999920e-003
3.488652e+003,7.944439e-003
3.490581e+003,7.799188e-003
3.492509e+003,7.733377e-003
3.494438e+003,7.941131e-003
3.496366e+003,8.233196e-003
3.498295e+003,8.111782e-003
3.500223e+003,7.939040e-003
3.502152e+003,7.997861e-003
3.504080e+003,8.043663e-003
3.506009e+003,8.086869e-003
3.507937e+003,8.087645e-003
3.509866e+003,8.202535e-003
3.511794e+003,8.229177e-003
3.513723e+003,7.947139e-003
3.515651e+003,7.666868e-003
3.517580e+003,7.854887e-003
3.519508e+003,7.997861e-003
3.521437e+003,7.965125e-003
3.523365e+003,7.875806e-003
3.525294e+003,7.859374e-003
3.527222e+003,7.974777e-003
3.529151e+003,8.031512e-003
3.531079e+003,7.949163e-003
3.533008e+003,7.901921e-003
3.534936e+003,8.022804e-003
3.536865e+003,7.981932e-003
3.538793e+003,8.051730e-003
3.540722e+003,8.262474e-003
3.542650e+003,8.304588e-003
3.544579e+003,8.253085e-003
3.546507e+003,8.029891e-003
3.548436e+003,7.915654e-003
3.550364e+003,8.075899e-003
3.552293e+003,8.058076e-003
3.554221e+003,7.952639e-003
3.556150e+003,7.951559e-003
3.558078e+003,7.939951e-003
3.560007e+003,7.970694e-003
3.561935e+003,8.139972e-003
3.563864e+003,8.075730e-003
3.565792e+003,8.014770e-003
3.567721e+003,8.030634e-003
3.569649e+003,7.924664e-003
3.571578e+003,7.804484e-003
3.573506e+003,7.950108e-003
3.575435e+003,8.234243e-003
3.577363e+003,8.331235e-003
3.579292e+003,8.263858e-003
3.581220e+003,8.008932e-003
3.583149e+003,7.873342e-003
3.585077e+003,7.987635e-003
3.587006e+003,7.851176e-003
3.588934e+003,7.714624e-003
3.590863e+003,7.868382e-003
3.592791e+003,7.961683e-003
3.594720e+003,7.945046e-003
3.596648e+003,8.037216e-003
3.598577e+003,8.294624e-003
3.600505e+003,8.332350e-003
3.602434e+003,8.148919e-003
3.604362e+003,8.205439e-003
3.606291e+003,8.053519e-003
3.608219e+003,7.808903e-003
3.610148e+003,7.835623e-003
3.612076e+003,7.950851e-003
3.614005e+003,7.971639e-003
3.615933e+003,7.949298e-003
3.617862e+003,7.998301e-003
3.619790e+003,8.042447e-003
3.621719e+003,7.973360e-003
3.623647e+003,8.011295e-003
3.625576e+003,8.097908e-003
3.627504e+003,7.974170e-003
3.629433e+003,7.916127e-003
3.631361e+003,8.112491e-003
3.633290e+003,7.999110e-003
3.635218e+003,7.977916e-003
3.637146e+003,8.191798e-003
3.639075e+003,8.315429e-003
3.641004e+003,8.395178e-003
3.642932e+003,8.201725e-003
3.644861e+003,7.963371e-003
3.646789e+003,7.884915e-003
3.648718e+003,7.758742e-003
3.650646e+003,7.832620e-003
3.652574e+003,8.203954e-003
3.654503e+003,8.280642e-003
3.656432e+003,8.246906e-003
3.658360e+003,8.242786e-003
3.660289e+003,8.139060e-003
3.662217e+003,8.110195e-003
3.664146e+003,8.152227e-003
3.666074e+003,8.040017e-003
3.668002e+003,7.864671e-003
3.669931e+003,7.822600e-003
3.671860e+003,7.700458e-003
3.673788e+003,7.471379e-003
3.675717e+003,7.306472e-003
3.677645e+003,7.765050e-003
3.679573e+003,7.941233e-003
3.681502e+003,8.068607e-003
3.683430e+003,8.176503e-003
3.685359e+003,8.279089e-003
3.687288e+003,8.128662e-003
3.689216e+003,8.002182e-003
3.691145e+003,8.076877e-003
3.693073e+003,8.187577e-003
3.695001e+003,8.131194e-003
3.696930e+003,8.131802e-003
3.698858e+003,8.136731e-003
3.700787e+003,8.181601e-003
3.702716e+003,8.298879e-003
3.704644e+003,8.397374e-003
3.706573e+003,8.319212e-003
3.708501e+003,8.098886e-003
3.710429e+003,8.038904e-003
3.712358e+003,8.109115e-003
3.714286e+003,8.233095e-003
3.716215e+003,8.229751e-003
3.718144e+003,8.344308e-003
3.720072e+003,8.423926e-003
3.722000e+003,8.306039e-003
3.723929e+003,8.154152e-003
3.725857e+003,8.064624e-003
3.727786e+003,8.271862e-003
3.729714e+003,8.230258e-003
3.731643e+003,7.824017e-003
3.733572e+003,7.616824e-003
3.735500e+003,7.717221e-003
3.737428e+003,7.791395e-003
3.739357e+003,7.877796e-003
3.741285e+003,8.043224e-003
3.743214e+003,7.750748e-003
3.745142e+003,7.635809e-003
3.747071e+003,7.978321e-003
3.749000e+003,7.875333e-003
3.750928e+003,7.715028e-003
3.752856e+003,7.958072e-003
3.754785e+003,8.287802e-003
3.756713e+003,8.444366e-003
3.758642e+003,8.348496e-003
3.760570e+003,8.280237e-003
3.762499e+003,8.448724e-003
3.764427e+003,8.285709e-003
3.766356e+003,8.226206e-003
3.768284e+003,8.395280e-003
3.770213e+003,8.400583e-003
3.772141e+003,8.349881e-003
3.774070e+003,8.366466e-003
3.775998e+003,8.266661e-003
3.777927e+003,8.069958e-003
3.779855e+003,8.041536e-003
3.781784e+003,8.224517e-003
3.783712e+003,8.382072e-003
3.785641e+003,8.529005e-003
3.787569e+003,8.385787e-003
3.789498e+003,8.339207e-003
3.791426e+003,8.349272e-003
3.793355e+003,8.195647e-003
3.795283e+003,8.157765e-003
3.797212e+003,8.269532e-003
3.799140e+003,8.158305e-003
3.801069e+003,7.902698e-003
3.802997e+003,8.096524e-003
3.804926e+003,7.998098e-003
3.806854e+003,7.742315e-003
3.808783e+003,7.887919e-003
3.810711e+003,8.236066e-003
3.812640e+003,8.347549e-003
3.814568e+003,8.080219e-003
3.816497e+003,8.089839e-003
3.818425e+003,8.393759e-003
3.820354e+003,8.300197e-003
3.822282e+003,8.203920e-003
3.824211e+003,8.480652e-003
3.826139e+003,8.327014e-003
3.828068e+003,8.360081e-003
3.829996e+003,8.482172e-003
3.831925e+003,8.484571e-003
3.833853e+003,8.579357e-003
3.835782e+003,8.521671e-003
3.837710e+003,8.343463e-003
3.839639e+003,8.248392e-003
3.841567e+003,8.256699e-003
3.843496e+003,8.232689e-003
3.845424e+003,8.293104e-003
3.847353e+003,8.291484e-003
3.849281e+003,8.288883e-003
3.851210e+003,8.142031e-003
3.853138e+003,7.890010e-003
3.855067e+003,8.020036e-003
3.856995e+003,8.239747e-003
3.858924e+003,8.174983e-003
3.860852e+003,8.158440e-003
3.862781e+003,8.276522e-003
3.864709e+003,8.498019e-003
3.866638e+003,8.539750e-003
3.868566e+003,8.248290e-003
3.870495e+003,8.048085e-003
3.872423e+003,8.155266e-003
3.874352e+003,8.198517e-003
3.876280e+003,8.202265e-003
3.878209e+003,8.180149e-003
3.880137e+003,8.124138e-003
3.882066e+003,8.124037e-003
3.883994e+003,7.943494e-003
3.885923e+003,7.975553e-003
3.887851e+003,8.177955e-003
3.889780e+003,8.141862e-003
3.891708e+003,7.979907e-003
3.893637e+003,8.117825e-003
3.895565e+003,8.354575e-003
3.897494e+003,8.342111e-003
3.899422e+003,8.350286e-003
3.901351e+003,8.308303e-003
3.903279e+003,8.176469e-003
3.905208e+003,8.209795e-003
3.907136e+003,8.217933e-003
3.909065e+003,8.221478e-003
3.910993e+003,8.273112e-003
3.912922e+003,8.265411e-003
3.914850e+003,8.252883e-003
3.916779e+003,8.180994e-003
3.918707e+003,8.109115e-003
3.920636e+003,8.017775e-003
3.922564e+003,8.025031e-003
3.924493e+003,8.198449e-003
3.926421e+003,8.333229e-003
3.928350e+003,8.329344e-003
3.930278e+003,8.224315e-003
3.932207e+003,8.262778e-003
3.934135e+003,8.561512e-003
3.936064e+003,8.621974e-003
3.937992e+003,8.491599e-003
3.939921e+003,8.413285e-003
3.941849e+003,8.407948e-003
3.943778e+003,8.542284e-003
3.945706e+003,8.531707e-003
3.947635e+003,8.440784e-003
3.949563e+003,8.490416e-003
3.951492e+003,8.530796e-003
3.953420e+003,8.501330e-003
3.955349e+003,8.529748e-003
3.957277e+003,8.566142e-003
3.959206e+003,8.524780e-003
3.961134e+003,8.295671e-003
3.963063e+003,8.353157e-003
3.964991e+003,8.412102e-003
3.966920e+003,8.472408e-003
3.968848e+003,8.430008e-003
3.970777e+003,8.400516e-003
3.972705e+003,8.420210e-003
3.974634e+003,8.413048e-003
3.976562e+003,8.472678e-003
3.978491e+003,8.500181e-003
3.980419e+003,8.546272e-003
3.982348e+003,8.494573e-003
3.984276e+003,8.630795e-003
3.986205e+003,8.678522e-003
3.988133e+003,8.684877e-003
3.990062e+003,8.635156e-003
3.991990e+003,8.542217e-003
3.993919e+003,8.548367e-003
3.995847e+003,8.555970e-003
3.997776e+003,8.386395e-003
3.999704e+003,8.360554e-003
4.001633e+003,0.000000e+000
