3.991989e+002,6.056946e-002
4.011274e+002,6.104195e-002
4.030559e+002,5.158635e-002
4.049844e+002,4.161129e-002
4.069129e+002,3.846760e-002
4.088414e+002,4.156137e-002
4.107699e+002,4.382174e-002
4.126984e+002,4.261683e-002
4.146269e+002,3.746295e-002
4.165554e+002,3.774632e-002
4.184839e+002,4.293048e-002
4.204124e+002,3.977116e-002
4.223409e+002,3.862305e-002
4.242694e+002,3.970050e-002
4.261979e+002,3.519040e-002
4.281264e+002,2.874954e-002
4.300549e+002,2.661952e-002
4.319834e+002,2.279953e-002
4.339119e+002,2.491854e-002
4.358404e+002,3.020685e-002
4.377689e+002,3.227134e-002
4.396974e+002,2.869881e-002
4.416259e+002,2.721144e-002
4.435544e+002,2.837130e-002
4.454829e+002,3.000833e-002
4.474114e+002,3.265497e-002
4.493399e+002,2.989985e-002
4.512684e+002,2.733066e-002
4.531969e+002,3.005840e-002
4.551254e+002,2.473070e-002
4.570539e+002,2.160057e-002
4.589824e+002,2.243086e-002
4.609109e+002,2.373034e-002
4.628394e+002,2.540671e-002
4.647679e+002,2.384213e-002
4.666964e+002,2.329529e-002
4.686249e+002,2.403242e-002
4.705533e+002,2.489660e-002
4.724819e+002,2.522218e-002
4.744103e+002,2.567952e-002
4.763389e+002,2.321521e-002
4.782673e+002,2.279548e-002
4.801959e+002,2.443094e-002
4.821243e+002,2.598291e-002
4.840529e+002,2.686273e-002
4.859813e+002,2.628625e-002
4.879099e+002,2.727791e-002
4.898383e+002,2.462142e-002
4.917668e+002,2.122331e-002
4.936953e+002,2.445029e-002
4.956238e+002,2.582032e-002
4.975523e+002,2.383782e-002
4.994808e+002,2.443669e-002
5.014093e+002,2.642341e-002
5.033378e+002,2.677885e-002
5.052663e+002,2.641359e-002
5.071948e+002,2.533765e-002
5.091233e+002,2.411034e-002
5.110518e+002,2.320105e-002
5.129803e+002,2.289267e-002
5.149088e+002,2.315464e-002
5.168373e+002,2.325803e-002
5.187658e+002,2.352973e-002
5.206943e+002,2.357247e-002
5.226228e+002,2.143679e-002
5.245513e+002,2.054575e-002
5.264798e+002,2.160475e-002
5.284083e+002,2.271695e-002
5.303368e+002,2.213861e-002
5.322653e+002,2.111995e-002
5.341938e+002,2.162864e-002
5.361223e+002,2.196480e-002
5.380508e+002,2.195602e-002
5.399792e+002,2.335714e-002
5.419078e+002,2.386838e-002
5.438363e+002,2.372411e-002
5.457648e+002,2.355537e-002
5.476932e+002,2.387584e-002
5.496218e+002,2.402811e-002
5.515503e+002,2.462188e-002
5.534788e+002,2.465579e-002
5.554072e+002,2.497237e-002
5.573358e+002,2.492749e-002
5.592643e+002,2.487769e-002
5.611927e+002,2.442667e-002
5.631212e+002,2.428761e-002
5.650497e+002,2.447833e-002
5.669783e+002,2.557611e-002
5.689067e+002,2.669833e-002
5.708352e+002,2.623281e-002
5.727637e+002,2.445019e-002
5.746923e+002,2.256270e-002
5.766207e+002,2.308852e-002
5.785492e+002,2.319602e-002
5.804777e+002,1.493525e-002
5.824063e+002,1.398284e-002
5.843347e+002,2.238976e-002
5.862632e+002,2.528103e-002
5.881917e+002,2.510105e-002
5.901202e+002,2.420853e-002
5.920487e+002,2.430173e-002
5.939772e+002,2.382480e-002
5.959057e+002,2.474154e-002
5.978342e+002,2.728673e-002
5.997627e+002,2.933211e-002
6.016912e+002,2.918804e-002
6.036197e+002,2.946556e-002
6.055482e+002,3.191773e-002
6.074767e+002,3.453839e-002
6.094052e+002,3.655434e-002
6.113337e+002,3.763118e-002
6.132622e+002,3.587959e-002
6.151907e+002,3.512630e-002
6.171192e+002,3.521950e-002
6.190477e+002,3.511229e-002
6.209762e+002,3.482410e-002
6.229047e+002,3.255496e-002
6.248332e+002,2.798564e-002
6.267617e+002,2.427159e-002
6.286902e+002,2.179117e-002
6.306187e+002,2.069116e-002
6.325472e+002,1.954347e-002
6.344756e+002,1.928318e-002
6.364042e+002,1.925097e-002
6.383326e+002,1.884561e-002
6.402612e+002,1.852876e-002
6.421896e+002,1.852112e-002
6.441182e+002,1.814957e-002
6.460466e+002,1.785425e-002
6.479752e+002,1.755347e-002
6.499036e+002,1.729083e-002
6.518322e+002,1.692777e-002
6.537606e+002,1.735717e-002
6.556891e+002,1.760684e-002
6.576177e+002,1.723938e-002
6.595461e+002,1.678888e-002
6.614746e+002,1.564818e-002
6.634031e+002,1.486211e-002
6.653317e+002,1.649906e-002
6.672601e+002,2.181322e-002
6.691886e+002,2.108666e-002
6.711171e+002,1.724959e-002
6.730457e+002,1.666939e-002
6.749741e+002,1.627125e-002
6.769026e+002,1.614829e-002
6.788311e+002,1.638347e-002
6.807596e+002,1.639655e-002
6.826881e+002,1.651772e-002
6.846166e+002,1.689542e-002
6.865451e+002,1.708110e-002
6.884736e+002,1.719374e-002
6.904021e+002,1.697049e-002
6.923306e+002,1.702700e-002
6.942591e+002,1.705970e-002
6.961876e+002,1.725666e-002
6.981161e+002,1.713728e-002
7.000446e+002,1.688119e-002
7.019731e+002,1.683462e-002
7.039016e+002,1.712311e-002
7.058301e+002,1.750417e-002
7.077585e+002,1.770509e-002
7.096871e+002,1.772683e-002
7.116156e+002,1.816262e-002
7.135441e+002,1.801053e-002
7.154725e+002,1.793204e-002
7.174011e+002,1.827876e-002
7.193296e+002,1.893909e-002
7.212581e+002,1.966278e-002
7.231865e+002,1.984219e-002
7.251151e+002,1.984042e-002
7.270436e+002,2.066635e-002
7.289720e+002,2.136801e-002
7.309005e+002,2.138162e-002
7.328290e+002,2.103915e-002
7.347576e+002,2.118779e-002
7.366860e+002,2.116399e-002
7.386145e+002,2.120411e-002
7.405430e+002,2.177901e-002
7.424716e+002,2.216564e-002
7.444000e+002,2.201778e-002
7.463285e+002,2.180078e-002
7.482570e+002,2.134364e-002
7.501855e+002,2.122408e-002
7.521140e+002,2.174873e-002
7.540425e+002,2.214210e-002
7.559710e+002,2.165814e-002
7.578995e+002,2.199084e-002
7.598280e+002,2.200663e-002
7.617565e+002,2.177726e-002
7.636850e+002,2.179047e-002
7.656135e+002,2.220267e-002
7.675420e+002,2.240096e-002
7.694705e+002,2.212456e-002
7.713990e+002,2.170895e-002
7.733275e+002,2.183008e-002
7.752560e+002,2.151529e-002
7.771844e+002,2.096870e-002
7.791130e+002,2.117881e-002
7.810415e+002,2.157435e-002
7.829700e+002,2.103314e-002
7.848984e+002,2.059762e-002
7.868270e+002,2.066836e-002
7.887555e+002,2.073724e-002
7.906840e+002,2.029296e-002
7.926124e+002,1.964916e-002
7.945410e+002,1.898789e-002
7.964695e+002,1.868823e-002
7.983979e+002,1.880689e-002
8.003264e+002,1.876357e-002
8.022549e+002,1.880603e-002
8.041835e+002,1.924751e-002
8.061119e+002,1.885617e-002
8.080404e+002,1.907738e-002
8.099689e+002,1.974672e-002
8.118975e+002,2.059797e-002
8.138259e+002,2.091167e-002
8.157545e+002,2.066319e-002
8.176830e+002,2.047128e-002
8.196115e+002,2.013106e-002
8.215399e+002,1.984174e-002
8.234684e+002,2.008768e-002
8.253970e+002,2.029313e-002
8.273254e+002,2.012026e-002
8.292539e+002,1.947031e-002
8.311824e+002,1.920442e-002
8.331110e+002,1.931464e-002
8.350394e+002,1.920193e-002
8.369679e+002,1.945475e-002
8.388964e+002,1.946182e-002
8.408250e+002,1.925232e-002
8.427534e+002,1.897619e-002
8.446819e+002,1.872552e-002
8.466104e+002,1.906346e-002
8.485389e+002,1.914677e-002
8.504674e+002,1.879295e-002
8.523959e+002,1.871812e-002
8.543244e+002,1.911941e-002
8.562529e+002,1.908870e-002
8.581814e+002,1.882693e-002
8.601099e+002,1.868906e-002
8.620384e+002,1.879260e-002
8.639669e+002,1.891472e-002
8.658954e+002,1.914680e-002
8.678239e+002,1.892188e-002
8.697524e+002,1.882502e-002
8.716809e+002,1.904539e-002
8.736094e+002,1.908233e-002
8.755378e+002,1.886201e-002
8.774664e+002,1.908115e-002
8.793949e+002,1.924221e-002
8.813234e+002,1.927927e-002
8.832518e+002,1.934990e-002
8.851804e+002,1.925277e-002
8.871089e+002,1.940516e-002
8.890374e+002,1.921911e-002
8.909658e+002,1.897363e-002
8.928943e+002,1.944155e-002
8.948229e+002,1.947412e-002
8.967513e+002,1.933674e-002
8.986798e+002,1.920003e-002
9.006083e+002,1.924436e-002
9.025369e+002,1.970854e-002
9.044653e+002,1.983619e-002
9.063938e+002,1.939643e-002
9.083223e+002,1.904750e-002
9.102509e+002,1.884267e-002
9.121793e+002,1.916266e-002
9.141078e+002,1.899914e-002
9.160364e+002,1.845912e-002
9.179648e+002,1.833095e-002
9.198933e+002,1.813367e-002
9.218218e+002,1.778116e-002
9.237504e+002,1.744974e-002
9.256788e+002,1.696201e-002
9.276073e+002,1.664188e-002
9.295358e+002,1.667228e-002
9.314644e+002,1.653159e-002
9.333928e+002,1.632250e-002
9.353213e+002,1.648237e-002
9.372498e+002,1.645325e-002
9.391783e+002,1.595393e-002
9.411068e+002,1.602516e-002
9.430353e+002,1.632257e-002
9.449637e+002,1.628470e-002
9.468923e+002,1.646661e-002
9.488208e+002,1.642807e-002
9.507493e+002,1.632295e-002
9.526777e+002,1.637473e-002
9.546063e+002,1.672617e-002
9.565348e+002,1.685370e-002
9.584633e+002,1.674604e-002
9.603917e+002,1.660184e-002
9.623203e+002,1.655799e-002
9.642488e+002,1.641330e-002
9.661772e+002,1.656002e-002
9.681057e+002,1.678964e-002
9.700343e+002,1.660119e-002
9.719628e+002,1.650230e-002
9.738912e+002,1.635099e-002
9.758197e+002,1.592103e-002
9.777483e+002,1.570757e-002
9.796768e+002,1.555043e-002
9.816052e+002,1.547588e-002
9.835337e+002,1.536077e-002
9.854623e+002,1.498515e-002
9.873907e+002,1.466168e-002
9.893192e+002,1.448268e-002
9.912477e+002,1.415020e-002
9.931763e+002,1.410375e-002
9.951047e+002,1.409136e-002
9.970332e+002,1.382085e-002
9.989617e+002,1.372002e-002
1.000890e+003,1.396826e-002
1.002819e+003,1.406610e-002
1.004747e+003,1.385652e-002
1.006676e+003,1.377498e-002
1.008604e+003,1.393008e-002
1.010533e+003,1.401377e-002
1.012461e+003,1.398493e-002
1.014390e+003,1.394804e-002
1.016318e+003,1.427376e-002
1.018247e+003,1.452869e-002
1.020175e+003,1.460976e-002
1.022104e+003,1.482837e-002
1.024032e+003,1.509526e-002
1.025961e+003,1.536059e-002
1.027889e+003,1.549246e-002
1.029818e+003,1.567215e-002
1.031746e+003,1.593320e-002
1.033675e+003,1.616411e-002
1.035603e+003,1.641451e-002
1.037532e+003,1.654012e-002
1.039460e+003,1.677559e-002
1.041389e+003,1.694499e-002
1.043317e+003,1.703465e-002
1.045246e+003,1.720219e-002
1.047174e+003,1.725586e-002
1.049103e+003,1.743066e-002
1.051031e+003,1.746546e-002
1.052960e+003,1.728424e-002
1.054888e+003,1.712463e-002
1.056817e+003,1.715500e-002
1.058745e+003,1.709023e-002
1.060674e+003,1.702362e-002
1.062602e+003,1.712839e-002
1.064531e+003,1.713507e-002
1.066459e+003,1.718168e-002
1.068388e+003,1.714407e-002
1.070316e+003,1.726445e-002
1.072245e+003,1.729576e-002
1.074173e+003,1.715875e-002
1.076102e+003,1.708110e-002
1.078030e+003,1.716223e-002
1.079959e+003,1.708975e-002
1.081887e+003,1.700381e-002
1.083816e+003,1.726217e-002
1.085744e+003,1.735738e-002
1.087673e+003,1.740280e-002
1.089601e+003,1.742870e-002
1.091530e+003,1.764021e-002
1.093458e+003,1.794602e-002
1.095387e+003,1.816757e-002
1.097315e+003,1.846611e-002
1.099244e+003,1.870148e-002
1.101172e+003,1.889427e-002
1.103101e+003,1.879886e-002
1.105029e+003,1.892005e-002
1.106958e+003,1.902088e-002
1.108886e+003,1.918915e-002
1.110815e+003,1.911179e-002
1.112743e+003,1.890281e-002
1.114672e+003,1.874510e-002
1.116600e+003,1.912599e-002
1.118529e+003,1.947110e-002
1.120457e+003,1.934589e-002
1.122386e+003,1.930421e-002
1.124314e+003,1.929091e-002
1.126243e+003,1.897366e-002
1.128171e+003,1.870995e-002
1.130100e+003,1.884232e-002
1.132028e+003,1.866886e-002
1.133957e+003,1.837585e-002
1.135885e+003,1.829096e-002
1.137814e+003,1.801955e-002
1.139742e+003,1.741225e-002
1.141671e+003,1.721960e-002
1.143599e+003,1.704047e-002
1.145528e+003,1.659169e-002
1.147456e+003,1.611882e-002
1.149385e+003,1.581656e-002
1.151313e+003,1.558258e-002
1.153242e+003,1.540145e-002
1.155170e+003,1.542331e-002
1.157099e+003,1.532781e-002
1.159027e+003,1.527434e-002
1.160956e+003,1.507780e-002
1.162884e+003,1.495048e-002
1.164813e+003,1.485189e-002
1.166741e+003,1.466531e-002
1.168670e+003,1.464523e-002
1.170598e+003,1.480602e-002
1.172526e+003,1.479971e-002
1.174455e+003,1.454575e-002
1.176384e+003,1.454767e-002
1.178312e+003,1.465544e-002
1.180240e+003,1.455901e-002
1.182169e+003,1.438252e-002
1.184098e+003,1.419292e-002
1.186026e+003,1.409201e-002
1.187954e+003,1.409875e-002
1.189883e+003,1.403147e-002
1.191812e+003,1.390469e-002
1.193740e+003,1.378466e-002
1.195668e+003,1.341003e-002
1.197597e+003,1.300312e-002
1.199526e+003,1.293047e-002
1.201454e+003,1.308103e-002
1.203382e+003,1.317566e-002
1.205311e+003,1.307960e-002
1.207240e+003,1.307430e-002
1.209168e+003,1.311358e-002
1.211096e+003,1.314943e-002
1.213025e+003,1.327353e-002
1.214953e+003,1.329638e-002
1.216882e+003,1.319315e-002
1.218810e+003,1.305757e-002
1.220739e+003,1.295471e-002
1.222667e+003,1.306942e-002
1.224596e+003,1.329512e-002
1.226524e+003,1.338542e-002
1.228453e+003,1.344458e-002
1.230381e+003,1.343655e-002
1.232310e+003,1.358790e-002
1.234238e+003,1.378958e-002
1.236167e+003,1.384763e-002
1.238095e+003,1.393627e-002
1.240024e+003,1.404670e-002
1.241952e+003,1.409834e-002
1.243881e+003,1.401258e-002
1.245809e+003,1.386727e-002
1.247738e+003,1.385704e-002
1.249666e+003,1.409577e-002
1.251595e+003,1.430307e-002
1.253523e+003,1.426944e-002
1.255452e+003,1.420045e-002
1.257380e+003,1.414578e-002
1.259309e+003,1.414520e-002
1.261237e+003,1.433964e-002
1.263166e+003,1.465075e-002
1.265094e+003,1.498848e-002
1.267023e+003,1.528021e-002
1.268951e+003,1.550586e-002
1.270880e+003,1.572637e-002
1.272808e+003,1.573739e-002
1.274737e+003,1.588770e-002
1.276665e+003,1.618368e-002
1.278594e+003,1.629577e-002
1.280522e+003,1.628191e-002
1.282451e+003,1.651438e-002
1.284379e+003,1.686287e-002
1.286308e+003,1.702934e-002
1.288236e+003,1.726721e-002
1.290165e+003,1.755336e-002
1.292093e+003,1.776031e-002
1.294022e+003,1.797289e-002
1.295950e+003,1.807339e-002
1.297879e+003,1.806922e-002
1.299807e+003,1.800905e-002
1.301736e+003,1.797576e-002
1.303664e+003,1.778765e-002
1.305593e+003,1.756192e-002
1.307521e+003,1.761199e-002
1.309450e+003,1.746740e-002
1.311378e+003,1.714317e-002
1.313307e+003,1.679815e-002
1.315235e+003,1.655733e-002
1.317164e+003,1.651335e-002
1.319092e+003,1.621583e-002
1.321021e+003,1.586206e-002
1.322949e+003,1.567040e-002
1.324878e+003,1.561757e-002
1.326806e+003,1.542397e-002
1.328735e+003,1.536087e-002
1.330663e+003,1.536931e-002
1.332592e+003,1.535459e-002
1.334520e+003,1.525790e-002
1.336449e+003,1.522955e-002
1.338377e+003,1.526693e-002
1.340306e+003,1.522135e-002
1.342234e+003,1.513190e-002
1.344163e+003,1.508270e-002
1.346091e+003,1.492493e-002
1.348020e+003,1.495274e-002
1.349948e+003,1.496567e-002
1.351877e+003,1.486475e-002
1.353805e+003,1.485333e-002
1.355734e+003,1.482964e-002
1.357662e+003,1.482004e-002
1.359591e+003,1.497157e-002
1.361519e+003,1.506397e-002
1.363448e+003,1.484425e-002
1.365376e+003,1.450567e-002
1.367305e+003,1.441071e-002
1.369233e+003,1.437646e-002
1.371162e+003,1.440156e-002
1.373090e+003,1.462909e-002
1.375019e+003,1.463289e-002
1.376947e+003,1.444051e-002
1.378876e+003,1.432218e-002
1.380804e+003,1.422528e-002
1.382733e+003,1.428451e-002
1.384661e+003,1.431002e-002
1.386590e+003,1.443061e-002
1.388518e+003,1.427711e-002
1.390447e+003,1.383949e-002
1.392375e+003,1.376445e-002
1.394304e+003,1.403349e-002
1.396232e+003,1.380922e-002
1.398161e+003,1.373004e-002
1.400089e+003,1.369882e-002
1.402018e+003,1.345353e-002
1.403946e+003,1.348344e-002
1.405875e+003,1.339609e-002
1.407803e+003,1.314028e-002
1.409732e+003,1.310415e-002
1.411660e+003,1.313847e-002
1.413589e+003,1.322314e-002
1.415517e+003,1.350053e-002
1.417446e+003,1.418405e-002
1.419374e+003,1.476522e-002
1.421303e+003,1.461034e-002
1.423231e+003,1.480743e-002
1.425160e+003,1.523546e-002
1.427088e+003,1.550441e-002
1.429017e+003,1.591619e-002
1.430945e+003,1.622536e-002
1.432874e+003,1.668072e-002
1.434802e+003,1.756692e-002
1.436731e+003,1.832455e-002
1.438659e+003,1.811858e-002
1.440588e+003,1.819293e-002
1.442516e+003,1.866609e-002
1.444445e+003,1.902704e-002
1.446373e+003,1.947960e-002
1.448302e+003,1.993640e-002
1.450230e+003,2.004538e-002
1.452159e+003,2.030202e-002
1.454087e+003,2.092426e-002
1.456016e+003,2.214583e-002
1.457944e+003,2.237030e-002
1.459873e+003,2.157720e-002
1.461801e+003,2.124955e-002
1.463730e+003,2.144796e-002
1.465658e+003,2.129405e-002
1.467587e+003,2.065495e-002
1.469515e+003,2.040946e-002
1.471444e+003,2.069807e-002
1.473372e+003,2.047888e-002
1.475301e+003,1.973684e-002
1.477229e+003,1.890929e-002
1.479158e+003,1.810925e-002
1.481086e+003,1.774147e-002
1.483015e+003,1.720026e-002
1.484943e+003,1.671126e-002
1.486872e+003,1.660312e-002
1.488800e+003,1.652057e-002
1.490729e+003,1.617762e-002
1.492657e+003,1.547179e-002
1.494586e+003,1.530327e-002
1.496514e+003,1.535091e-002
1.498443e+003,1.495168e-002
1.500371e+003,1.444119e-002
1.502300e+003,1.421531e-002
1.504228e+003,1.469033e-002
1.506157e+003,1.569108e-002
1.508085e+003,1.513406e-002
1.510014e+003,1.409239e-002
1.511942e+003,1.369475e-002
1.513871e+003,1.354401e-002
1.515799e+003,1.383846e-002
1.517728e+003,1.404834e-002
1.519656e+003,1.424702e-002
1.521585e+003,1.456336e-002
1.523513e+003,1.409451e-002
1.525442e+003,1.406104e-002
1.527370e+003,1.383385e-002
1.529299e+003,1.366678e-002
1.531227e+003,1.385324e-002
1.533156e+003,1.439752e-002
1.535084e+003,1.423075e-002
1.537013e+003,1.442657e-002
1.538941e+003,1.568043e-002
1.540870e+003,1.602330e-002
1.542798e+003,1.554957e-002
1.544727e+003,1.519318e-002
1.546655e+003,1.466785e-002
1.548584e+003,1.466761e-002
1.550512e+003,1.481679e-002
1.552441e+003,1.488001e-002
1.554369e+003,1.516899e-002
1.556298e+003,1.568950e-002
1.558226e+003,1.708679e-002
1.560155e+003,1.687327e-002
1.562083e+003,1.582944e-002
1.564012e+003,1.582281e-002
1.565940e+003,1.594369e-002
1.567869e+003,1.634352e-002
1.569797e+003,1.691292e-002
1.571726e+003,1.665362e-002
1.573654e+003,1.661210e-002
1.575583e+003,1.727303e-002
1.577511e+003,1.710943e-002
1.579440e+003,1.662598e-002
1.581368e+003,1.662150e-002
1.583297e+003,1.656422e-002
1.585225e+003,1.653210e-002
1.587154e+003,1.633991e-002
1.589082e+003,1.610156e-002
1.591010e+003,1.584817e-002
1.592939e+003,1.568531e-002
1.594868e+003,1.554583e-002
1.596796e+003,1.533997e-002
1.598724e+003,1.510092e-002
1.600653e+003,1.491841e-002
1.602582e+003,1.481870e-002
1.604510e+003,1.457453e-002
1.606438e+003,1.429341e-002
1.608367e+003,1.415841e-002
1.610296e+003,1.389720e-002
1.612224e+003,1.366469e-002
1.614152e+003,1.380850e-002
1.616081e+003,1.412086e-002
1.618010e+003,1.363252e-002
1.619938e+003,1.317314e-002
1.621866e+003,1.345767e-002
1.623795e+003,1.334575e-002
1.625724e+003,1.294887e-002
1.627652e+003,1.285295e-002
1.629580e+003,1.261985e-002
1.631509e+003,1.236365e-002
1.633438e+003,1.276552e-002
1.635366e+003,1.328713e-002
1.637294e+003,1.268115e-002
1.639223e+003,1.191136e-002
1.641151e+003,1.150176e-002
1.643080e+003,1.126897e-002
1.645008e+003,1.156668e-002
1.646937e+003,1.176726e-002
1.648865e+003,1.102889e-002
1.650794e+003,1.118159e-002
1.652722e+003,1.248772e-002
1.654651e+003,1.141032e-002
1.656579e+003,1.011284e-002
1.658508e+003,9.834087e-003
1.660436e+003,9.825512e-003
1.662365e+003,1.002301e-002
1.664293e+003,9.821343e-003
1.666222e+003,9.589246e-003
1.668150e+003,9.966764e-003
1.670079e+003,1.022108e-002
1.672007e+003,9.900013e-003
1.673936e+003,1.001264e-002
1.675864e+003,1.009958e-002
1.677793e+003,9.535694e-003
1.679721e+003,9.371424e-003
1.681650e+003,9.582912e-003
1.683578e+003,1.042545e-002
1.685507e+003,1.013611e-002
1.687435e+003,9.415304e-003
1.689364e+003,9.184913e-003
1.691292e+003,9.054369e-003
1.693221e+003,9.323621e-003
1.695149e+003,1.012872e-002
1.697078e+003,1.018902e-002
1.699006e+003,1.058258e-002
1.700935e+003,1.072425e-002
1.702863e+003,9.842967e-003
1.704792e+003,9.884928e-003
1.706720e+003,9.764137e-003
1.708649e+003,9.560623e-003
1.710577e+003,9.489330e-003
1.712506e+003,9.724219e-003
1.714434e+003,1.017861e-002
1.716363e+003,1.066875e-002
1.718291e+003,1.061055e-002
1.720220e+003,1.003586e-002
1.722148e+003,9.761799e-003
1.724077e+003,9.617531e-003
1.726005e+003,9.623731e-003
1.727934e+003,9.784030e-003
1.729862e+003,9.893030e-003
1.731791e+003,1.030067e-002
1.733719e+003,1.091033e-002
1.735648e+003,1.041455e-002
1.737576e+003,1.001901e-002
1.739505e+003,1.023349e-002
1.741433e+003,9.999515e-003
1.743362e+003,9.840289e-003
1.745290e+003,9.879776e-003
1.747219e+003,1.010579e-002
1.749147e+003,1.038231e-002
1.751076e+003,1.058557e-002
1.753004e+003,1.026118e-002
1.754933e+003,1.014771e-002
1.756861e+003,1.026477e-002
1.758790e+003,1.009005e-002
1.760718e+003,1.026148e-002
1.762647e+003,1.024387e-002
1.764575e+003,9.964017e-003
1.766504e+003,1.009195e-002
1.768432e+003,1.024893e-002
1.770361e+003,1.039599e-002
1.772289e+003,1.066176e-002
1.774218e+003,1.039626e-002
1.776146e+003,1.005526e-002
1.778075e+003,9.910928e-003
1.780003e+003,9.947643e-003
1.781932e+003,9.929946e-003
1.783860e+003,9.847915e-003
1.785789e+003,9.775897e-003
1.787717e+003,9.803584e-003
1.789646e+003,1.007191e-002
1.791574e+003,1.051594e-002
1.793503e+003,1.047636e-002
1.795431e+003,1.018363e-002
1.797360e+003,1.019855e-002
1.799288e+003,1.027580e-002
1.801217e+003,1.019143e-002
1.803145e+003,9.984530e-003
1.805074e+003,1.000935e-002
1.807002e+003,1.009141e-002
1.808931e+003,1.009009e-002
1.810859e+003,1.012773e-002
1.812788e+003,1.012655e-002
1.814716e+003,1.001535e-002
1.816645e+003,9.966832e-003
1.818573e+003,1.004875e-002
1.820502e+003,1.016331e-002
1.822430e+003,1.013156e-002
1.824359e+003,1.026996e-002
1.826287e+003,1.039700e-002
1.828216e+003,1.051373e-002
1.830144e+003,1.048718e-002
1.832073e+003,1.009935e-002
1.834001e+003,1.004353e-002
1.835930e+003,1.008151e-002
1.837858e+003,1.000758e-002
1.839787e+003,9.975714e-003
1.841715e+003,1.013126e-002
1.843644e+003,1.054231e-002
1.845572e+003,1.032812e-002
1.847501e+003,9.952490e-003
1.849429e+003,9.923777e-003
1.851358e+003,1.001047e-002
1.853286e+003,1.006859e-002
1.855215e+003,1.005780e-002
1.857143e+003,1.006676e-002
1.859072e+003,1.012359e-002
1.861000e+003,1.016860e-002
1.862929e+003,1.009412e-002
1.864857e+003,1.013041e-002
1.866786e+003,1.027885e-002
1.868714e+003,1.044401e-002
1.870643e+003,1.031054e-002
1.872571e+003,1.010433e-002
1.874500e+003,1.009775e-002
1.876428e+003,1.011596e-002
1.878357e+003,1.022247e-002
1.880285e+003,1.021748e-002
1.882214e+003,1.012407e-002
1.884142e+003,1.009110e-002
1.886071e+003,1.008676e-002
1.887999e+003,1.024622e-002
1.889928e+003,1.030569e-002
1.891856e+003,1.011505e-002
1.893785e+003,1.012912e-002
1.895713e+003,1.015419e-002
1.897642e+003,1.006299e-002
1.899570e+003,1.013028e-002
1.901499e+003,1.018817e-002
1.903427e+003,1.015141e-002
1.905356e+003,1.017003e-002
1.907284e+003,1.016674e-002
1.909213e+003,1.017596e-002
1.911141e+003,1.017366e-002
1.913070e+003,1.011857e-002
1.914998e+003,1.018176e-002
1.916927e+003,1.035007e-002
1.918855e+003,1.032907e-002
1.920784e+003,1.024296e-002
1.922712e+003,1.020948e-002
1.924641e+003,1.013377e-002
1.926569e+003,1.020296e-002
1.928498e+003,1.018828e-002
1.930426e+003,1.019971e-002
1.932355e+003,1.014991e-002
1.934283e+003,1.005258e-002
1.936212e+003,1.003708e-002
1.938140e+003,1.009032e-002
1.940069e+003,1.021016e-002
1.941997e+003,1.032367e-002
1.943926e+003,1.027794e-002
1.945854e+003,1.015768e-002
1.947783e+003,1.012610e-002
1.949711e+003,1.015727e-002
1.951640e+003,1.014354e-002
1.953568e+003,1.011668e-002
1.955497e+003,1.011708e-002
1.957425e+003,1.011600e-002
1.959354e+003,1.014940e-002
1.961282e+003,1.020283e-002
1.963211e+003,1.015931e-002
1.965139e+003,1.006930e-002
1.967068e+003,1.013580e-002
1.968996e+003,1.007652e-002
1.970925e+003,1.004872e-002
1.972853e+003,1.010847e-002
1.974782e+003,1.016246e-002
1.976710e+003,1.014537e-002
1.978639e+003,1.011790e-002
1.980567e+003,1.011800e-002
1.982496e+003,1.008585e-002
1.984424e+003,1.000775e-002
1.986353e+003,1.002467e-002
1.988281e+003,9.994159e-003
1.990210e+003,1.006265e-002
1.992138e+003,1.022179e-002
1.994067e+003,1.016467e-002
1.995995e+003,1.000558e-002
1.997924e+003,1.000043e-002
1.999852e+003,1.004719e-002
2.001781e+003,1.000202e-002
2.003709e+003,9.987310e-003
2.005638e+003,1.002074e-002
2.007566e+003,1.006777e-002
2.009495e+003,1.005024e-002
2.011423e+003,1.001989e-002
2.013352e+003,1.011291e-002
2.015280e+003,1.017162e-002
2.017208e+003,1.022043e-002
2.019137e+003,1.015002e-002
2.021066e+003,1.002945e-002
2.022994e+003,9.990429e-003
2.024922e+003,1.004956e-002
2.026851e+003,1.010860e-002
2.028780e+003,1.015724e-002
2.030708e+003,1.016748e-002
2.032636e+003,1.020222e-002
2.034565e+003,1.021830e-002
2.036494e+003,1.011651e-002
2.038422e+003,1.010647e-002
2.040350e+003,1.018054e-002
2.042279e+003,1.015972e-002
2.044208e+003,1.015371e-002
2.046136e+003,1.017847e-002
2.048064e+003,1.018729e-002
2.049993e+003,1.024788e-002
2.051921e+003,1.018234e-002
2.053850e+003,1.013889e-002
2.055778e+003,1.021555e-002
2.057707e+003,1.025222e-002
2.059635e+003,1.025979e-002
2.061564e+003,1.024364e-002
2.063492e+003,1.013808e-002
2.065421e+003,1.008493e-002
2.067349e+003,1.019292e-002
2.069278e+003,1.017484e-002
2.071206e+003,1.019153e-002
2.073135e+003,1.026620e-002
2.075063e+003,1.028645e-002
2.076992e+003,1.030172e-002
2.078920e+003,1.031122e-002
2.080849e+003,1.032354e-002
2.082777e+003,1.031770e-002
2.084706e+003,1.027885e-002
2.086634e+003,1.028683e-002
2.088563e+003,1.035092e-002
2.090491e+003,1.036494e-002
2.092420e+003,1.031007e-002
2.094348e+003,1.028628e-002
2.096277e+003,1.021677e-002
2.098205e+003,1.019984e-002
2.100134e+003,1.028890e-002
2.102062e+003,1.039768e-002
2.103991e+003,1.036680e-002
2.105919e+003,1.034933e-002
2.107848e+003,1.048909e-002
2.109776e+003,1.054014e-002
2.111705e+003,1.043882e-002
2.113633e+003,1.040474e-002
2.115562e+003,1.046947e-002
2.117490e+003,1.046757e-002
2.119419e+003,1.048617e-002
2.121347e+003,1.058122e-002
2.123276e+003,1.054523e-002
2.125204e+003,1.049903e-002
2.127133e+003,1.050616e-002
2.129061e+003,1.060118e-002
2.130990e+003,1.058757e-002
2.132918e+003,1.051308e-002
2.134847e+003,1.056217e-002
2.136775e+003,1.062369e-002
2.138704e+003,1.072166e-002
2.140632e+003,1.070720e-002
2.142561e+003,1.053138e-002
2.144489e+003,1.049055e-002
2.146418e+003,1.054496e-002
2.148346e+003,1.061568e-002
2.150275e+003,1.071501e-002
2.152203e+003,1.077774e-002
2.154132e+003,1.069011e-002
2.156060e+003,1.060960e-002
2.157989e+003,1.063582e-002
2.159917e+003,1.062852e-002
2.161846e+003,1.060777e-002
2.163774e+003,1.058628e-002
2.165703e+003,1.065802e-002
2.167631e+003,1.081510e-002
2.169560e+003,1.088533e-002
2.171488e+003,1.085767e-002
2.173417e+003,1.073036e-002
2.175345e+003,1.066736e-002
2.177274e+003,1.078314e-002
2.179202e+003,1.087004e-002
2.181131e+003,1.079323e-002
2.183059e+003,1.075454e-002
2.184988e+003,1.082913e-002
2.186916e+003,1.089256e-002
2.188845e+003,1.087534e-002
2.190773e+003,1.081901e-002
2.192702e+003,1.071521e-002
2.194630e+003,1.071487e-002
2.196559e+003,1.081966e-002
2.198487e+003,1.086300e-002
2.200416e+003,1.078171e-002
2.202344e+003,1.074839e-002
2.204273e+003,1.070835e-002
2.206201e+003,1.067079e-002
2.208130e+003,1.072625e-002
2.210058e+003,1.075227e-002
2.211987e+003,1.070533e-002
2.213915e+003,1.064566e-002
2.215844e+003,1.070676e-002
2.217772e+003,1.076534e-002
2.219701e+003,1.076626e-002
2.221629e+003,1.076307e-002
2.223558e+003,1.071154e-002
2.225486e+003,1.070645e-002
2.227415e+003,1.061388e-002
2.229343e+003,1.062441e-002
2.231272e+003,1.074873e-002
2.233200e+003,1.076232e-002
2.235129e+003,1.070299e-002
2.237057e+003,1.057433e-002
2.238986e+003,1.058125e-002
2.240914e+003,1.067134e-002
2.242843e+003,1.070723e-002
2.244771e+003,1.071477e-002
2.246700e+003,1.069124e-002
2.248628e+003,1.072374e-002
2.250557e+003,1.065673e-002
2.252485e+003,1.059480e-002
2.254414e+003,1.063663e-002
2.256342e+003,1.076256e-002
2.258271e+003,1.076582e-002
2.260199e+003,1.070940e-002
2.262128e+003,1.072907e-002
2.264056e+003,1.071460e-002
2.265985e+003,1.071209e-002
2.267913e+003,1.081483e-002
2.269842e+003,1.082061e-002
2.271770e+003,1.075322e-002
2.273699e+003,1.072265e-002
2.275627e+003,1.070040e-002
2.277556e+003,1.068336e-002
2.279484e+003,1.063911e-002
2.281413e+003,1.064953e-002
2.283341e+003,1.060563e-002
2.285270e+003,1.065565e-002
2.287198e+003,1.073702e-002
2.289127e+003,1.085998e-002
2.291055e+003,1.091747e-002
2.292984e+003,1.092012e-002
2.294912e+003,1.095532e-002
2.296841e+003,1.112148e-002
2.298769e+003,1.146512e-002
2.300698e+003,1.166279e-002
2.302626e+003,1.179062e-002
2.304555e+003,1.189280e-002
2.306483e+003,1.212439e-002
2.308412e+003,1.237698e-002
2.310340e+003,1.272362e-002
2.312269e+003,1.330902e-002
2.314197e+003,1.393815e-002
2.316125e+003,1.455168e-002
2.318054e+003,1.520989e-002
2.319983e+003,1.594070e-002
2.321911e+003,1.670696e-002
2.323840e+003,1.736362e-002
2.325768e+003,1.780692e-002
2.327697e+003,1.841664e-002
2.329625e+003,1.915248e-002
2.331553e+003,1.952811e-002
2.333482e+003,1.967595e-002
2.335411e+003,1.989547e-002
2.337339e+003,2.009018e-002
2.339268e+003,2.013231e-002
2.341196e+003,1.988045e-002
2.343125e+003,1.924460e-002
2.345053e+003,1.792800e-002
2.346981e+003,1.579876e-002
2.348910e+003,1.442725e-002
2.350839e+003,1.578354e-002
2.352767e+003,1.856718e-002
2.354696e+003,2.072101e-002
2.356624e+003,2.208259e-002
2.358552e+003,2.288233e-002
2.360481e+003,2.317169e-002
2.362409e+003,2.310515e-002
2.364338e+003,2.269614e-002
2.366267e+003,2.190667e-002
2.368195e+003,2.082226e-002
2.370124e+003,1.948178e-002
2.372052e+003,1.796550e-002
2.373980e+003,1.646544e-002
2.375909e+003,1.492939e-002
2.377838e+003,1.341922e-002
2.379766e+003,1.224063e-002
2.381695e+003,1.155488e-002
2.383623e+003,1.125125e-002
2.385552e+003,1.103783e-002
2.387480e+003,1.083036e-002
2.389408e+003,1.084605e-002
2.391337e+003,1.089079e-002
2.393266e+003,1.083888e-002
2.395194e+003,1.083172e-002
2.397123e+003,1.083759e-002
2.399051e+003,1.091339e-002
2.400979e+003,1.093503e-002
2.402908e+003,1.085624e-002
2.404836e+003,1.087792e-002
2.406765e+003,1.092793e-002
2.408694e+003,1.085682e-002
2.410622e+003,1.083270e-002
2.412551e+003,1.087068e-002
2.414479e+003,1.098791e-002
2.416407e+003,1.102784e-002
2.418336e+003,1.102053e-002
2.420264e+003,1.097693e-002
2.422193e+003,1.097829e-002
2.424122e+003,1.098458e-002
2.426050e+003,1.096864e-002
2.427979e+003,1.101391e-002
2.429907e+003,1.104663e-002
2.431835e+003,1.110636e-002
2.433764e+003,1.117384e-002
2.435692e+003,1.123660e-002
2.437621e+003,1.125557e-002
2.439550e+003,1.119655e-002
2.441478e+003,1.121858e-002
2.443406e+003,1.126251e-002
2.445335e+003,1.128366e-002
2.447263e+003,1.135692e-002
2.449192e+003,1.139488e-002
2.451121e+003,1.134508e-002
2.453049e+003,1.134022e-002
2.454978e+003,1.135831e-002
2.456906e+003,1.139212e-002
2.458834e+003,1.144304e-002
2.460763e+003,1.146345e-002
2.462691e+003,1.138249e-002
2.464620e+003,1.135957e-002
2.466549e+003,1.143842e-002
2.468477e+003,1.140263e-002
2.470406e+003,1.137110e-002
2.472334e+003,1.140460e-002
2.474262e+003,1.144542e-002
2.476191e+003,1.138882e-002
2.478119e+003,1.132774e-002
2.480048e+003,1.139923e-002
2.481977e+003,1.153800e-002
2.483905e+003,1.157349e-002
2.485833e+003,1.150853e-002
2.487762e+003,1.145951e-002
2.489690e+003,1.142722e-002
2.491619e+003,1.152286e-002
2.493547e+003,1.164976e-002
2.495476e+003,1.167161e-002
2.497405e+003,1.161787e-002
2.499333e+003,1.159085e-002
2.501261e+003,1.152160e-002
2.503190e+003,1.155906e-002
2.505118e+003,1.169434e-002
2.507047e+003,1.168229e-002
2.508975e+003,1.162335e-002
2.510904e+003,1.163243e-002
2.512833e+003,1.169986e-002
2.514761e+003,1.164812e-002
2.516689e+003,1.159952e-002
2.518618e+003,1.171814e-002
2.520546e+003,1.182851e-002
2.522475e+003,1.177039e-002
2.524403e+003,1.175878e-002
2.526332e+003,1.176617e-002
2.528260e+003,1.179347e-002
2.530189e+003,1.183147e-002
2.532117e+003,1.177489e-002
2.534046e+003,1.182708e-002
2.535974e+003,1.190605e-002
2.537903e+003,1.187822e-002
2.539831e+003,1.196214e-002
2.541760e+003,1.200512e-002
2.543688e+003,1.196095e-002
2.545617e+003,1.193203e-002
2.547545e+003,1.187441e-002
2.549474e+003,1.180386e-002
2.551402e+003,1.176300e-002
2.553331e+003,1.188776e-002
2.555259e+003,1.202079e-002
2.557188e+003,1.193990e-002
2.559116e+003,1.186001e-002
2.561045e+003,1.193772e-002
2.562973e+003,1.196732e-002
2.564902e+003,1.200625e-002
2.566830e+003,1.201262e-002
2.568759e+003,1.187015e-002
2.570687e+003,1.187632e-002
2.572616e+003,1.201446e-002
2.574544e+003,1.210122e-002
2.576473e+003,1.205159e-002
2.578401e+003,1.200144e-002
2.580330e+003,1.193254e-002
2.582258e+003,1.188643e-002
2.584187e+003,1.198945e-002
2.586115e+003,1.202665e-002
2.588044e+003,1.202648e-002
2.589972e+003,1.209714e-002
2.591901e+003,1.210562e-002
2.593829e+003,1.205786e-002
2.595758e+003,1.197624e-002
2.597686e+003,1.199978e-002
2.599615e+003,1.204903e-002
2.601543e+003,1.206259e-002
2.603472e+003,1.204058e-002
2.605400e+003,1.207397e-002
2.607329e+003,1.215714e-002
2.609257e+003,1.217441e-002
2.611186e+003,1.214579e-002
2.613114e+003,1.222413e-002
2.615043e+003,1.231258e-002
2.616971e+003,1.227573e-002
2.618900e+003,1.226725e-002
2.620828e+003,1.233375e-002
2.622757e+003,1.249389e-002
2.624685e+003,1.249130e-002
2.626614e+003,1.244772e-002
2.628542e+003,1.244704e-002
2.630471e+003,1.239460e-002
2.632399e+003,1.237490e-002
2.634328e+003,1.246085e-002
2.636256e+003,1.247016e-002
2.638185e+003,1.255613e-002
2.640113e+003,1.262636e-002
2.642042e+003,1.252615e-002
2.643970e+003,1.258898e-002
2.645899e+003,1.266921e-002
2.647827e+003,1.269790e-002
2.649756e+003,1.272731e-002
2.651684e+003,1.276286e-002
2.653613e+003,1.275433e-002
2.655541e+003,1.277747e-002
2.657470e+003,1.271673e-002
2.659398e+003,1.276365e-002
2.661327e+003,1.288497e-002
2.663255e+003,1.285756e-002
2.665184e+003,1.282135e-002
2.667112e+003,1.295160e-002
2.669041e+003,1.303162e-002
2.670969e+003,1.302961e-002
2.672898e+003,1.305430e-002
2.674826e+003,1.311200e-002
2.676755e+003,1.317068e-002
2.678683e+003,1.315862e-002
2.680612e+003,1.317956e-002
2.682540e+003,1.323684e-002
2.684469e+003,1.324002e-002
2.686397e+003,1.329662e-002
2.688326e+003,1.333233e-002
2.690254e+003,1.344998e-002
2.692183e+003,1.346327e-002
2.694111e+003,1.347982e-002
2.696040e+003,1.342226e-002
2.697968e+003,1.342530e-002
2.699897e+003,1.364486e-002
2.701825e+003,1.370002e-002
2.703754e+003,1.364278e-002
2.705682e+003,1.376636e-002
2.707611e+003,1.381791e-002
2.709539e+003,1.389227e-002
2.711468e+003,1.394876e-002
2.713396e+003,1.401244e-002
2.715325e+003,1.408869e-002
2.717253e+003,1.410129e-002
2.719182e+003,1.419309e-002
2.721110e+003,1.423654e-002
2.723039e+003,1.431416e-002
2.724967e+003,1.446045e-002
2.726896e+003,1.451063e-002
2.728824e+003,1.439293e-002
2.730753e+003,1.441030e-002
2.732681e+003,1.457083e-002
2.734610e+003,1.472971e-002
2.736538e+003,1.484500e-002
2.738467e+003,1.484932e-002
2.740395e+003,1.489119e-002
2.742324e+003,1.496749e-002
2.744252e+003,1.505506e-002
2.746181e+003,1.511694e-002
2.748109e+003,1.519726e-002
2.750038e+003,1.533121e-002
2.751966e+003,1.542582e-002
2.753895e+003,1.551733e-002
2.755823e+003,1.567222e-002
2.757752e+003,1.577227e-002
2.759680e+003,1.585322e-002
2.761609e+003,1.607144e-002
2.763537e+003,1.643598e-002
2.765466e+003,1.666918e-002
2.767394e+003,1.685625e-002
2.769323e+003,1.713369e-002
2.771251e+003,1.753335e-002
2.773180e+003,1.796198e-002
2.775108e+003,1.834439e-002
2.777037e+003,1.876271e-002
2.778965e+003,1.921838e-002
2.780894e+003,1.978903e-002
2.782822e+003,2.041053e-002
2.784750e+003,2.104340e-002
2.786679e+003,2.175647e-002
2.788608e+003,2.237787e-002
2.790536e+003,2.303481e-002
2.792465e+003,2.374350e-002
2.794393e+003,2.446880e-002
2.796322e+003,2.515817e-002
2.798250e+003,2.579592e-002
2.800178e+003,2.641095e-002
2.802107e+003,2.698831e-002
2.804036e+003,2.747892e-002
2.805964e+003,2.792582e-002
2.807893e+003,2.835343e-002
2.809821e+003,2.848276e-002
2.811750e+003,2.851517e-002
2.813678e+003,2.847070e-002
2.815606e+003,2.835014e-002
2.817535e+003,2.818461e-002
2.819464e+003,2.797564e-002
2.821392e+003,2.764690e-002
2.823321e+003,2.730134e-002
2.825249e+003,2.688773e-002
2.827177e+003,2.639299e-002
2.829106e+003,2.587641e-002
2.831034e+003,2.523370e-002
2.832963e+003,2.465098e-002
2.834892e+003,2.422184e-002
2.836820e+003,2.357989e-002
2.838749e+003,2.282946e-002
2.840677e+003,2.223291e-002
2.842605e+003,2.183109e-002
2.844534e+003,2.125842e-002
2.846462e+003,2.044453e-002
2.848391e+003,1.976725e-002
2.850320e+003,1.938344e-002
2.852248e+003,1.924595e-002
2.854177e+003,1.904096e-002
2.856105e+003,1.901257e-002
2.858033e+003,1.895857e-002
2.859962e+003,1.885835e-002
2.861890e+003,1.875126e-002
2.863819e+003,1.870500e-002
2.865748e+003,1.874576e-002
2.867676e+003,1.880329e-002
2.869604e+003,1.896778e-002
2.871533e+003,1.900689e-002
2.873461e+003,1.905193e-002
2.875390e+003,1.912433e-002
2.877319e+003,1.928308e-002
2.879247e+003,1.948871e-002
2.881176e+003,1.948691e-002
2.883104e+003,1.956042e-002
2.885032e+003,1.970633e-002
2.886961e+003,1.966285e-002
2.888889e+003,1.953071e-002
2.890818e+003,1.946993e-002
2.892747e+003,1.937807e-002
2.894675e+003,1.919469e-002
2.896604e+003,1.921225e-002
2.898532e+003,1.922694e-002
2.900460e+003,1.914590e-002
2.902389e+003,1.900544e-002
2.904317e+003,1.881956e-002
2.906246e+003,1.875825e-002
2.908175e+003,1.879662e-002
2.910103e+003,1.876973e-002
2.912031e+003,1.859367e-002
2.913960e+003,1.835670e-002
2.915888e+003,1.825616e-002
2.917817e+003,1.831602e-002
2.919745e+003,1.865032e-002
2.921674e+003,1.891558e-002
2.923603e+003,1.915837e-002
2.925531e+003,1.939418e-002
2.927459e+003,1.967963e-002
2.929388e+003,1.986231e-002
2.931316e+003,1.998761e-002
2.933245e+003,2.021422e-002
2.935173e+003,2.040762e-002
2.937102e+003,2.046909e-002
2.939031e+003,2.055656e-002
2.940959e+003,2.045707e-002
2.942887e+003,2.021995e-002
2.944816e+003,2.019051e-002
2.946744e+003,2.016289e-002
2.948673e+003,1.989876e-002
2.950601e+003,1.939470e-002
2.952530e+003,1.889804e-002
2.954458e+003,1.846389e-002
2.956387e+003,1.793739e-002
2.958315e+003,1.748823e-002
2.960244e+003,1.689535e-002
2.962172e+003,1.626812e-002
2.964101e+003,1.576684e-002
2.966029e+003,1.527678e-002
2.967958e+003,1.490381e-002
2.969886e+003,1.455007e-002
2.971815e+003,1.412839e-002
2.973743e+003,1.370662e-002
2.975672e+003,1.339404e-002
2.977600e+003,1.321190e-002
2.979529e+003,1.293764e-002
2.981457e+003,1.263755e-002
2.983386e+003,1.239508e-002
2.985314e+003,1.219183e-002
2.987243e+003,1.201783e-002
2.989171e+003,1.195274e-002
2.991100e+003,1.184553e-002
2.993028e+003,1.175793e-002
2.994957e+003,1.171627e-002
2.996885e+003,1.164417e-002
2.998814e+003,1.160425e-002
3.000742e+003,1.163890e-002
3.002671e+003,1.152800e-002
3.004599e+003,1.140484e-002
3.006528e+003,1.144600e-002
3.008456e+003,1.134304e-002
3.010385e+003,1.122293e-002
3.012313e+003,1.123725e-002
3.014242e+003,1.122021e-002
3.016170e+003,1.128883e-002
3.018099e+003,1.129951e-002
3.020027e+003,1.117751e-002
3.021956e+003,1.109164e-002
3.023884e+003,1.111774e-002
3.025813e+003,1.114773e-002
3.027741e+003,1.097615e-002
3.029670e+003,1.082774e-002
3.031598e+003,1.086630e-002
3.033527e+003,1.091142e-002
3.035455e+003,1.093058e-002
3.037384e+003,1.099987e-002
3.039312e+003,1.096748e-002
3.041241e+003,1.092851e-002
3.043169e+003,1.084476e-002
3.045098e+003,1.073410e-002
3.047026e+003,1.071966e-002
3.048955e+003,1.071637e-002
3.050883e+003,1.072802e-002
3.052812e+003,1.074405e-002
3.054740e+003,1.069582e-002
3.056669e+003,1.074439e-002
3.058597e+003,1.065802e-002
3.060526e+003,1.050585e-002
3.062454e+003,1.058095e-002
3.064383e+003,1.057368e-002
3.066311e+003,1.055735e-002
3.068240e+003,1.069555e-002
3.070168e+003,1.063100e-002
3.072097e+003,1.047327e-002
3.074025e+003,1.041089e-002
3.075954e+003,1.034502e-002
3.077882e+003,1.031299e-002
3.079811e+003,1.043142e-002
3.081739e+003,1.044371e-002
3.083668e+003,1.039456e-002
3.085596e+003,1.028421e-002
3.087525e+003,1.016650e-002
3.089453e+003,1.018393e-002
3.091382e+003,1.020035e-002
3.093310e+003,1.026416e-002
3.095239e+003,1.031482e-002
3.097167e+003,1.028856e-002
3.099096e+003,1.027631e-002
3.101024e+003,1.033582e-002
3.102953e+003,1.028499e-002
3.104881e+003,1.013994e-002
3.106810e+003,1.012943e-002
3.108738e+003,1.024829e-002
3.110667e+003,1.032910e-002
3.112595e+003,1.028123e-002
3.114524e+003,1.024269e-002
3.116452e+003,1.005143e-002
3.118381e+003,1.008266e-002
3.120309e+003,1.011128e-002
3.122238e+003,1.010694e-002
3.124166e+003,1.007394e-002
3.126095e+003,1.009043e-002
3.128023e+003,1.012356e-002
3.129952e+003,1.003966e-002
3.131880e+003,9.928997e-003
3.133809e+003,1.002423e-002
3.135737e+003,1.007293e-002
3.137666e+003,1.005299e-002
3.139594e+003,1.007652e-002
3.141523e+003,1.009456e-002
3.143451e+003,1.008619e-002
3.145380e+003,1.009941e-002
3.147308e+003,1.005946e-002
3.149237e+003,1.001494e-002
3.151165e+003,1.008158e-002
3.153094e+003,1.022596e-002
3.155022e+003,1.036741e-002
3.156951e+003,1.025823e-002
3.158879e+003,1.010508e-002
3.160808e+003,1.012471e-002
3.162736e+003,1.021660e-002
3.164665e+003,1.033402e-002
3.166593e+003,1.025093e-002
3.168522e+003,1.012309e-002
3.170450e+003,1.019296e-002
3.172379e+003,1.025470e-002
3.174307e+003,1.016792e-002
3.176236e+003,1.025256e-002
3.178164e+003,1.032473e-002
3.180093e+003,1.036035e-002
3.182021e+003,1.031509e-002
3.183950e+003,1.030111e-002
3.185878e+003,1.034631e-002
3.187807e+003,1.031702e-002
3.189735e+003,1.029283e-002
3.191664e+003,1.022345e-002
3.193592e+003,1.025524e-002
3.195521e+003,1.036850e-002
3.197449e+003,1.038611e-002
3.199378e+003,1.032259e-002
3.201306e+003,1.024706e-002
3.203235e+003,1.024659e-002
3.205163e+003,1.026705e-002
3.207092e+003,1.026868e-002
3.209020e+003,1.045711e-002
3.210948e+003,1.050568e-002
3.212877e+003,1.043033e-002
3.214806e+003,1.046468e-002
3.216734e+003,1.046994e-002
3.218663e+003,1.058360e-002
3.220591e+003,1.060186e-002
3.222520e+003,1.059989e-002
3.224448e+003,1.058465e-002
3.226376e+003,1.055297e-002
3.228305e+003,1.067592e-002
3.230234e+003,1.085037e-002
3.232162e+003,1.081938e-002
3.234091e+003,1.088563e-002
3.236019e+003,1.080593e-002
3.237948e+003,1.068095e-002
3.239876e+003,1.088125e-002
3.241804e+003,1.128210e-002
3.243733e+003,1.134025e-002
3.245662e+003,1.129505e-002
3.247590e+003,1.144617e-002
3.249519e+003,1.151340e-002
3.251447e+003,1.153395e-002
3.253375e+003,1.154096e-002
3.255304e+003,1.171558e-002
3.257232e+003,1.187284e-002
3.259161e+003,1.189113e-002
3.261090e+003,1.196871e-002
3.263018e+003,1.198465e-002
3.264947e+003,1.189324e-002
3.266875e+003,1.183011e-002
3.268803e+003,1.191773e-002
3.270732e+003,1.197508e-002
3.272660e+003,1.187805e-002
3.274589e+003,1.191674e-002
3.276518e+003,1.200764e-002
3.278446e+003,1.203057e-002
3.280375e+003,1.205687e-002
3.282303e+003,1.202590e-002
3.284231e+003,1.207056e-002
3.286160e+003,1.200894e-002
3.288088e+003,1.192849e-002
3.290017e+003,1.184019e-002
3.291946e+003,1.201337e-002
3.293874e+003,1.214378e-002
3.295802e+003,1.205554e-002
3.297731e+003,1.188377e-002
3.299659e+003,1.187890e-002
3.301588e+003,1.192767e-002
3.303516e+003,1.172862e-002
3.305445e+003,1.159792e-002
3.307374e+003,1.159806e-002
3.309302e+003,1.147740e-002
3.311230e+003,1.136409e-002
3.313159e+003,1.124721e-002
3.315087e+003,1.103236e-002
3.317016e+003,1.102733e-002
3.318944e+003,1.109694e-002
3.320873e+003,1.104093e-002
3.322802e+003,1.086786e-002
3.324730e+003,1.062678e-002
3.326658e+003,1.054425e-002
3.328587e+003,1.053491e-002
3.330515e+003,1.056482e-002
3.332444e+003,1.045793e-002
3.334372e+003,1.031784e-002
3.336301e+003,1.030365e-002
3.338229e+003,1.036402e-002
3.340158e+003,1.028333e-002
3.342086e+003,1.024255e-002
3.344015e+003,1.013770e-002
3.345943e+003,1.016613e-002
3.347872e+003,1.021463e-002
3.349800e+003,1.014890e-002
3.351729e+003,1.012970e-002
3.353657e+003,1.007686e-002
3.355586e+003,1.001243e-002
3.357514e+003,1.001169e-002
3.359443e+003,9.880861e-003
3.361371e+003,9.808498e-003
3.363300e+003,9.885539e-003
3.365229e+003,9.807786e-003
3.367157e+003,9.558455e-003
3.369085e+003,9.425056e-003
3.371014e+003,9.373523e-003
3.372942e+003,9.444256e-003
3.374871e+003,9.389808e-003
3.376799e+003,9.349654e-003
3.378728e+003,9.218283e-003
3.380656e+003,9.086342e-003
3.382585e+003,9.138383e-003
3.384513e+003,9.222378e-003
3.386442e+003,9.075989e-003
3.388370e+003,8.875164e-003
3.390299e+003,8.899412e-003
3.392227e+003,9.126912e-003
3.394156e+003,9.070677e-003
3.396084e+003,9.074466e-003
3.398013e+003,8.936041e-003
3.399941e+003,8.714693e-003
3.401870e+003,8.808277e-003
3.403798e+003,8.855786e-003
3.405727e+003,8.773687e-003
3.407655e+003,8.770307e-003
3.409584e+003,8.666286e-003
3.411512e+003,8.638198e-003
3.413441e+003,8.572225e-003
3.415369e+003,8.552050e-003
3.417298e+003,8.608421e-003
3.419226e+003,8.729669e-003
3.421155e+003,8.819165e-003
3.423083e+003,8.713915e-003
3.425012e+003,8.663785e-003
3.426940e+003,8.588312e-003
3.428869e+003,8.575402e-003
3.430797e+003,8.660709e-003
3.432726e+003,8.731055e-003
3.434654e+003,8.761111e-003
3.436583e+003,8.540122e-003
3.438511e+003,8.525524e-003
3.440440e+003,8.804625e-003
3.442368e+003,8.635493e-003
3.444297e+003,8.364844e-003
3.446225e+003,8.458353e-003
3.448154e+003,8.698061e-003
3.450082e+003,8.799789e-003
3.452011e+003,8.803171e-003
3.453939e+003,8.714896e-003
3.455868e+003,8.469773e-003
3.457796e+003,8.401969e-003
3.459725e+003,8.479537e-003
3.461653e+003,8.682308e-003
3.463582e+003,8.873744e-003
3.465510e+003,8.706816e-003
3.467439e+003,8.346436e-003
3.469367e+003,8.349104e-003
3.471296e+003,8.470584e-003
3.473224e+003,8.582229e-003
3.475153e+003,8.506804e-003
3.477081e+003,8.569995e-003
3.479010e+003,8.709453e-003
3.480938e+003,8.667909e-003
3.482867e+003,8.543434e-003
3.484795e+003,8.561749e-003
3.486724e+003,8.613795e-003
3.488652e+003,8.639921e-003
3.490581e+003,8.736396e-003
3.492509e+003,8.738662e-003
3.494438e+003,8.631573e-003
3.496366e+003,8.658309e-003
3.498295e+003,8.798572e-003
3.500223e+003,8.852541e-003
3.502152e+003,8.816798e-003
3.504080e+003,8.827585e-003
3.506009e+003,8.651751e-003
3.507937e+003,8.655368e-003
3.509866e+003,8.694612e-003
3.511794e+003,8.743970e-003
3.513723e+003,8.643606e-003
3.515651e+003,8.642558e-003
3.517580e+003,8.720744e-003
3.519508e+003,8.689542e-003
3.521437e+003,8.621095e-003
3.523365e+003,8.637150e-003
3.525294e+003,8.586690e-003
3.527222e+003,8.679165e-003
3.529151e+003,8.693531e-003
3.531079e+003,8.566548e-003
3.533008e+003,8.582229e-003
3.534936e+003,8.804017e-003
3.536865e+003,8.847840e-003
3.538793e+003,8.565973e-003
3.540722e+003,8.332755e-003
3.542650e+003,8.357683e-003
3.544579e+003,8.653205e-003
3.546507e+003,9.029469e-003
3.548436e+003,8.967261e-003
3.550364e+003,8.995167e-003
3.552293e+003,9.046487e-003
3.554221e+003,8.822005e-003
3.556150e+003,8.677069e-003
3.558078e+003,8.672303e-003
3.560007e+003,8.660302e-003
3.561935e+003,8.563980e-003
3.563864e+003,8.761178e-003
3.565792e+003,9.221329e-003
3.567721e+003,9.138552e-003
3.569649e+003,8.830932e-003
3.571578e+003,8.927213e-003
3.573506e+003,9.012386e-003
3.575435e+003,8.888421e-003
3.577363e+003,8.820315e-003
3.579292e+003,8.900393e-003
3.581220e+003,8.996723e-003
3.583149e+003,9.047400e-003
3.585077e+003,9.216862e-003
3.587006e+003,9.517473e-003
3.588934e+003,9.293594e-003
3.590863e+003,8.966584e-003
3.592791e+003,9.157536e-003
3.594720e+003,9.202850e-003
3.596648e+003,9.130532e-003
3.598577e+003,8.995201e-003
3.600505e+003,9.000512e-003
3.602434e+003,8.937157e-003
3.604362e+003,8.892885e-003
3.606291e+003,9.049227e-003
3.608219e+003,9.457564e-003
3.610148e+003,9.308997e-003
3.612076e+003,9.253821e-003
3.614005e+003,9.197435e-003
3.615933e+003,9.149651e-003
3.617862e+003,9.279648e-003
3.619790e+003,9.152290e-003
3.621719e+003,8.862719e-003
3.623647e+003,8.714388e-003
3.625576e+003,9.005857e-003
3.627504e+003,1.004400e-002
3.629433e+003,1.034254e-002
3.631361e+003,9.394312e-003
3.633290e+003,9.084481e-003
3.635218e+003,8.942805e-003
3.637146e+003,8.977341e-003
3.639075e+003,9.041716e-003
3.641004e+003,8.777847e-003
3.642932e+003,8.733016e-003
3.644861e+003,8.922546e-003
3.646789e+003,9.532071e-003
3.648718e+003,9.989445e-003
3.650646e+003,9.728387e-003
3.652574e+003,9.099368e-003
3.654503e+003,9.306390e-003
3.656432e+003,9.589212e-003
3.658360e+003,9.120042e-003
3.660289e+003,8.742684e-003
3.662217e+003,8.592266e-003
3.664146e+003,8.511365e-003
3.666074e+003,8.605042e-003
3.668002e+003,9.005992e-003
3.669931e+003,9.348741e-003
3.671860e+003,9.167180e-003
3.673788e+003,9.753192e-003
3.675717e+003,1.010447e-002
3.677645e+003,9.195675e-003
3.679573e+003,8.726525e-003
3.681502e+003,8.730649e-003
3.683430e+003,8.834550e-003
3.685359e+003,8.886189e-003
3.687288e+003,9.346710e-003
3.689216e+003,9.590804e-003
3.691145e+003,9.359371e-003
3.693073e+003,8.983057e-003
3.695001e+003,8.780585e-003
3.696930e+003,8.804422e-003
3.698858e+003,9.064452e-003
3.700787e+003,9.536473e-003
3.702716e+003,9.364484e-003
3.704644e+003,8.947981e-003
3.706573e+003,9.025681e-003
3.708501e+003,9.183255e-003
3.710429e+003,9.448862e-003
3.712358e+003,9.495358e-003
3.714286e+003,8.905602e-003
3.716215e+003,8.597403e-003
3.718144e+003,8.752625e-003
3.720072e+003,8.774431e-003
3.722000e+003,8.745491e-003
3.723929e+003,8.917845e-003
3.725857e+003,9.119839e-003
3.727786e+003,8.843511e-003
3.729714e+003,8.887373e-003
3.731643e+003,9.389402e-003
3.733572e+003,9.780471e-003
3.735500e+003,9.939439e-003
3.737428e+003,9.152425e-003
3.739357e+003,8.762192e-003
3.741285e+003,9.060594e-003
3.743214e+003,9.977782e-003
3.745142e+003,9.930963e-003
3.747071e+003,9.326261e-003
3.749000e+003,9.810159e-003
3.750928e+003,9.734928e-003
3.752856e+003,9.125761e-003
3.754785e+003,8.649250e-003
3.756713e+003,8.713915e-003
3.758642e+003,8.951769e-003
3.760570e+003,9.161596e-003
3.762499e+003,8.847975e-003
3.764427e+003,8.692077e-003
3.766356e+003,8.790492e-003
3.768284e+003,8.926266e-003
3.770213e+003,8.956910e-003
3.772141e+003,8.697587e-003
3.774070e+003,8.539311e-003
3.775998e+003,8.618864e-003
3.777927e+003,8.979336e-003
3.779855e+003,8.985459e-003
3.781784e+003,8.542622e-003
3.783712e+003,8.528565e-003
3.785641e+003,8.720981e-003
3.787569e+003,8.597065e-003
3.789498e+003,8.249810e-003
3.791426e+003,8.139735e-003
3.793355e+003,8.292294e-003
3.795283e+003,8.655199e-003
3.797212e+003,8.890923e-003
3.799140e+003,9.186876e-003
3.801069e+003,9.500505e-003
3.802997e+003,8.831811e-003
3.804926e+003,8.897721e-003
3.806854e+003,9.358830e-003
3.808783e+003,8.747756e-003
3.810711e+003,8.402880e-003
3.812640e+003,8.442744e-003
3.814568e+003,8.854603e-003
3.816497e+003,9.119839e-003
3.818425e+003,8.989451e-003
3.820354e+003,9.463118e-003
3.822282e+003,9.116421e-003
3.824211e+003,8.334140e-003
3.826139e+003,8.415583e-003
3.828068e+003,8.492207e-003
3.829996e+003,8.658883e-003
3.831925e+003,8.839927e-003
3.833853e+003,8.815073e-003
3.835782e+003,9.040127e-003
3.837710e+003,9.542570e-003
3.839639e+003,9.302159e-003
3.841567e+003,8.955455e-003
3.843496e+003,9.015126e-003
3.845424e+003,8.738662e-003
3.847353e+003,8.254977e-003
3.849281e+003,8.508933e-003
3.851210e+003,9.562045e-003
3.853138e+003,1.039073e-002
3.855067e+003,9.527701e-003
3.856995e+003,8.652359e-003
3.858924e+003,8.347482e-003
3.860852e+003,8.474706e-003
3.862781e+003,8.913820e-003
3.864709e+003,9.052847e-003
3.866638e+003,8.795800e-003
3.868566e+003,9.133442e-003
3.870495e+003,9.082417e-003
3.872423e+003,8.766959e-003
3.874352e+003,8.658512e-003
3.876280e+003,8.402542e-003
3.878209e+003,8.652427e-003
3.880137e+003,8.884328e-003
3.882066e+003,8.427507e-003
3.883994e+003,8.413150e-003
3.885923e+003,8.728621e-003
3.887851e+003,8.447271e-003
3.889780e+003,8.630525e-003
3.891708e+003,8.753402e-003
3.893637e+003,8.621231e-003
3.895565e+003,8.502006e-003
3.897494e+003,8.364979e-003
3.899422e+003,8.393590e-003
3.901351e+003,8.567021e-003
3.903279e+003,8.728892e-003
3.905208e+003,8.599701e-003
3.907136e+003,8.231811e-003
3.909065e+003,8.142841e-003
3.910993e+003,8.054261e-003
3.912922e+003,7.996444e-003
3.914850e+003,8.178461e-003
3.916779e+003,8.508020e-003
3.918707e+003,8.589935e-003
3.920636e+003,8.305702e-003
3.922564e+003,8.378727e-003
3.924493e+003,8.477408e-003
3.926421e+003,8.210234e-003
3.928350e+003,8.231778e-003
3.930278e+003,8.235120e-003
3.932207e+003,8.353157e-003
3.934135e+003,8.314382e-003
3.936064e+003,8.092102e-003
3.937992e+003,8.205844e-003
3.939921e+003,8.393422e-003
3.941849e+003,8.480989e-003
3.943778e+003,8.365418e-003
3.945706e+003,8.307121e-003
3.947635e+003,8.370181e-003
3.949563e+003,8.372410e-003
3.951492e+003,8.267945e-003
3.953420e+003,8.213003e-003
3.955349e+003,8.049671e-003
3.957277e+003,8.048928e-003
3.959206e+003,8.013151e-003
3.961134e+003,7.922572e-003
3.963063e+003,8.044675e-003
3.964991e+003,8.149763e-003
3.966920e+003,8.202840e-003
3.968848e+003,8.338328e-003
3.970777e+003,8.301581e-003
3.972705e+003,8.304588e-003
3.974634e+003,8.346165e-003
3.976562e+003,8.241739e-003
3.978491e+003,8.278887e-003
3.980419e+003,8.227894e-003
3.982348e+003,8.223707e-003
3.984276e+003,8.363594e-003
3.986205e+003,8.262508e-003
3.988133e+003,8.230663e-003
3.990062e+003,8.246602e-003
3.991990e+003,8.158575e-003
3.993919e+003,7.986286e-003
3.995847e+003,7.885962e-003
3.997776e+003,8.058717e-003
3.999704e+003,7.991686e-003
4.001633e+003,0.000000e+000
