3.991989e+002,3.109044e-002
4.011274e+002,3.286177e-002
4.030559e+002,1.934994e-002
4.049844e+002,1.200710e-002
4.069129e+002,1.264076e-002
4.088414e+002,1.659703e-002
4.107699e+002,1.750762e-002
4.126984e+002,1.542228e-002
4.146269e+002,8.633195e-003
4.165554e+002,8.687852e-003
4.184839e+002,1.305126e-002
4.204124e+002,1.485405e-002
4.223409e+002,1.797313e-002
4.242694e+002,1.850601e-002
4.261979e+002,1.518539e-002
4.281264e+002,1.494640e-002
4.300549e+002,1.474713e-002
4.319834e+002,7.673579e-003
4.339119e+002,6.611909e-003
4.358404e+002,1.657379e-002
4.377689e+002,2.146164e-002
4.396974e+002,1.480845e-002
4.416259e+002,9.130566e-003
4.435544e+002,1.255719e-002
4.454829e+002,1.587594e-002
4.474114e+002,1.821352e-002
4.493399e+002,1.530252e-002
4.512684e+002,1.024415e-002
4.531969e+002,9.702704e-003
4.551254e+002,1.344485e-002
4.570539e+002,1.399369e-002
4.589824e+002,1.112532e-002
4.609109e+002,1.156886e-002
4.628394e+002,1.177730e-002
4.647679e+002,1.098288e-002
4.666964e+002,1.115599e-002
4.686249e+002,9.790774e-003
4.705533e+002,9.759630e-003
4.724819e+002,1.018163e-002
4.744103e+002,1.101299e-002
4.763389e+002,1.309070e-002
4.782673e+002,1.330455e-002
4.801959e+002,1.139413e-002
4.821243e+002,1.269363e-002
4.840529e+002,1.444455e-002
4.859813e+002,1.392378e-002
4.879099e+002,1.257346e-002
4.898383e+002,1.169336e-002
4.917668e+002,1.177383e-002
4.936953e+002,1.308800e-002
4.956238e+002,1.288971e-002
4.975523e+002,1.078868e-002
4.994808e+002,1.084666e-002
5.014093e+002,1.173499e-002
5.033378e+002,1.163495e-002
5.052663e+002,1.357194e-002
5.071948e+002,1.182027e-002
5.091233e+002,9.234563e-003
5.110518e+002,8.494674e-003
5.129803e+002,8.419569e-003
5.149088e+002,7.892102e-003
5.168373e+002,8.242111e-003
5.187658e+002,9.567093e-003
5.206943e+002,1.037851e-002
5.226228e+002,8.964892e-003
5.245513e+002,7.062681e-003
5.264798e+002,7.940322e-003
5.284083e+002,9.508261e-003
5.303368e+002,8.686601e-003
5.322653e+002,8.373356e-003
5.341938e+002,7.915824e-003
5.361223e+002,7.351863e-003
5.380508e+002,7.924462e-003
5.399792e+002,9.125524e-003
5.419078e+002,8.400482e-003
5.438363e+002,8.238261e-003
5.457648e+002,8.823493e-003
5.476932e+002,8.271085e-003
5.496218e+002,7.812412e-003
5.515503e+002,9.172291e-003
5.534788e+002,9.839578e-003
5.554072e+002,1.045321e-002
5.573358e+002,1.076741e-002
5.592643e+002,1.108497e-002
5.611927e+002,1.046913e-002
5.631212e+002,1.076589e-002
5.650497e+002,1.121695e-002
5.669783e+002,1.190918e-002
5.689067e+002,1.262104e-002
5.708352e+002,1.171654e-002
5.727637e+002,9.667772e-003
5.746923e+002,8.615146e-003
5.766207e+002,1.019085e-002
5.785492e+002,1.208681e-002
5.804777e+002,8.291314e-003
5.824063e+002,5.336149e-003
5.843347e+002,9.504773e-003
5.862632e+002,1.265167e-002
5.881917e+002,1.223586e-002
5.901202e+002,1.058743e-002
5.920487e+002,9.310181e-003
5.939772e+002,1.135831e-002
5.959057e+002,1.369673e-002
5.978342e+002,1.406477e-002
5.997627e+002,1.466641e-002
6.016912e+002,1.538754e-002
6.036197e+002,1.745991e-002
6.055482e+002,1.942945e-002
6.074767e+002,1.950087e-002
6.094052e+002,2.070801e-002
6.113337e+002,2.259516e-002
6.132622e+002,2.178009e-002
6.151907e+002,2.033823e-002
6.171192e+002,2.014230e-002
6.190477e+002,1.979194e-002
6.209762e+002,2.037240e-002
6.229047e+002,1.806193e-002
6.248332e+002,1.414849e-002
6.267617e+002,1.111458e-002
6.286902e+002,8.862922e-003
6.306187e+002,7.582902e-003
6.325472e+002,7.219039e-003
6.344756e+002,7.219713e-003
6.364042e+002,6.850667e-003
6.383326e+002,6.367701e-003
6.402612e+002,6.336835e-003
6.421896e+002,7.048099e-003
6.441182e+002,6.591489e-003
6.460466e+002,5.977071e-003
6.479752e+002,5.927188e-003
6.499036e+002,5.221546e-003
6.518322e+002,4.894068e-003
6.537606e+002,5.114818e-003
6.556891e+002,4.842533e-003
6.576177e+002,4.400016e-003
6.595461e+002,4.255042e-003
6.614746e+002,3.614349e-003
6.634031e+002,3.473945e-003
6.653317e+002,5.057491e-003
6.672601e+002,9.257207e-003
6.691886e+002,8.074515e-003
6.711171e+002,4.849234e-003
6.730457e+002,4.643522e-003
6.749741e+002,4.670248e-003
6.769026e+002,4.665726e-003
6.788311e+002,4.631131e-003
6.807596e+002,4.612779e-003
6.826881e+002,5.043177e-003
6.846166e+002,5.199313e-003
6.865451e+002,5.036775e-003
6.884736e+002,4.972990e-003
6.904021e+002,4.840858e-003
6.923306e+002,5.070766e-003
6.942591e+002,5.690716e-003
6.961876e+002,5.813100e-003
6.981161e+002,5.251594e-003
7.000446e+002,4.911091e-003
7.019731e+002,5.031445e-003
7.039016e+002,5.545713e-003
7.058301e+002,5.428740e-003
7.077585e+002,5.361039e-003
7.096871e+002,5.814108e-003
7.116156e+002,6.368743e-003
7.135441e+002,6.354588e-003
7.154725e+002,6.369785e-003
7.174011e+002,6.551962e-003
7.193296e+002,6.960449e-003
7.212581e+002,7.325713e-003
7.231865e+002,7.407977e-003
7.251151e+002,7.750242e-003
7.270436e+002,8.282534e-003
7.289720e+002,8.487477e-003
7.309005e+002,8.666961e-003
7.328290e+002,8.822275e-003
7.347576e+002,8.660404e-003
7.366860e+002,8.670106e-003
7.386145e+002,8.820483e-003
7.405430e+002,9.048178e-003
7.424716e+002,9.021926e-003
7.444000e+002,8.893730e-003
7.463285e+002,9.064316e-003
7.482570e+002,8.907157e-003
7.501855e+002,8.999193e-003
7.521140e+002,9.664926e-003
7.540425e+002,1.000820e-002
7.559710e+002,1.030542e-002
7.578995e+002,1.054479e-002
7.598280e+002,1.054255e-002
7.617565e+002,1.036884e-002
7.636850e+002,1.069151e-002
7.656135e+002,1.111458e-002
7.675420e+002,1.115656e-002
7.694705e+002,1.082502e-002
7.713990e+002,1.058604e-002
7.733275e+002,1.058105e-002
7.752560e+002,1.066937e-002
7.771844e+002,1.037162e-002
7.791130e+002,9.921200e-003
7.810415e+002,9.733538e-003
7.829700e+002,9.203764e-003
7.848984e+002,8.955219e-003
7.868270e+002,9.005722e-003
7.887555e+002,8.917912e-003
7.906840e+002,8.757425e-003
7.926124e+002,8.360656e-003
7.945410e+002,7.694826e-003
7.964695e+002,7.244610e-003
7.983979e+002,7.240096e-003
8.003264e+002,7.454693e-003
8.022549e+002,7.644374e-003
8.041835e+002,7.775001e-003
8.061119e+002,7.443030e-003
8.080404e+002,7.395170e-003
8.099689e+002,7.979367e-003
8.118975e+002,8.536134e-003
8.138259e+002,8.804388e-003
8.157545e+002,8.938611e-003
8.176830e+002,9.301786e-003
8.196115e+002,8.725206e-003
8.215399e+002,8.175389e-003
8.234684e+002,7.994588e-003
8.253970e+002,8.028980e-003
8.273254e+002,8.345286e-003
8.292539e+002,8.157224e-003
8.311824e+002,7.917240e-003
8.331110e+002,8.071982e-003
8.350394e+002,8.173937e-003
8.369679e+002,8.306411e-003
8.388964e+002,8.024592e-003
8.408250e+002,8.170865e-003
8.427534e+002,7.977713e-003
8.446819e+002,7.409527e-003
8.466104e+002,7.674152e-003
8.485389e+002,8.152767e-003
8.504674e+002,8.029385e-003
8.523959e+002,7.647308e-003
8.543244e+002,7.589545e-003
8.562529e+002,7.525047e-003
8.581814e+002,7.690948e-003
8.601099e+002,7.704337e-003
8.620384e+002,7.448559e-003
8.639669e+002,7.636787e-003
8.658954e+002,7.719751e-003
8.678239e+002,7.542612e-003
8.697524e+002,7.528486e-003
8.716809e+002,7.760327e-003
8.736094e+002,7.877829e-003
8.755378e+002,7.631088e-003
8.774664e+002,7.483480e-003
8.793949e+002,7.530306e-003
8.813234e+002,7.583173e-003
8.832518e+002,7.826312e-003
8.851804e+002,7.772370e-003
8.871089e+002,7.566617e-003
8.890374e+002,7.551850e-003
8.909658e+002,7.660831e-003
8.928943e+002,7.843585e-003
8.948229e+002,7.941199e-003
8.967513e+002,7.807250e-003
8.986798e+002,7.693173e-003
9.006083e+002,7.700829e-003
9.025369e+002,7.797434e-003
9.044653e+002,7.745081e-003
9.063938e+002,7.641541e-003
9.083223e+002,7.538904e-003
9.102509e+002,6.985264e-003
9.121793e+002,6.995062e-003
9.141078e+002,7.023213e-003
9.160364e+002,6.618907e-003
9.179648e+002,6.399846e-003
9.198933e+002,6.436971e-003
9.218218e+002,6.518326e-003
9.237504e+002,6.160932e-003
9.256788e+002,5.666210e-003
9.276073e+002,5.511148e-003
9.295358e+002,5.318069e-003
9.314644e+002,4.880094e-003
9.333928e+002,4.774421e-003
9.353213e+002,4.835296e-003
9.372498e+002,4.848363e-003
9.391783e+002,4.671453e-003
9.411068e+002,4.769631e-003
9.430353e+002,5.110928e-003
9.449637e+002,5.219768e-003
9.468923e+002,5.148446e-003
9.488208e+002,4.978721e-003
9.507493e+002,5.104022e-003
9.526777e+002,5.314950e-003
9.546063e+002,5.396801e-003
9.565348e+002,5.541082e-003
9.584633e+002,5.474941e-003
9.603917e+002,5.314045e-003
9.623203e+002,5.422768e-003
9.642488e+002,5.552459e-003
9.661772e+002,5.442026e-003
9.681057e+002,5.250722e-003
9.700343e+002,5.053233e-003
9.719628e+002,5.061681e-003
9.738912e+002,4.992563e-003
9.758197e+002,4.772110e-003
9.777483e+002,4.729935e-003
9.796768e+002,4.777570e-003
9.816052e+002,4.399213e-003
9.835337e+002,4.131357e-003
9.854623e+002,4.014027e-003
9.873907e+002,3.780333e-003
9.893192e+002,3.532867e-003
9.912477e+002,3.304807e-003
9.931763e+002,3.344306e-003
9.951047e+002,3.287346e-003
9.970332e+002,2.856215e-003
9.989617e+002,2.847177e-003
1.000890e+003,2.943942e-003
1.002819e+003,2.980472e-003
1.004747e+003,3.011500e-003
1.006676e+003,3.015303e-003
1.008604e+003,3.100893e-003
1.010533e+003,3.227823e-003
1.012461e+003,3.363739e-003
1.014390e+003,3.755032e-003
1.016318e+003,4.015232e-003
1.018247e+003,3.984466e-003
1.020175e+003,4.125838e-003
1.022104e+003,4.470044e-003
1.024032e+003,4.854997e-003
1.025961e+003,5.220238e-003
1.027889e+003,5.398142e-003
1.029818e+003,5.547828e-003
1.031746e+003,5.935317e-003
1.033675e+003,6.267716e-003
1.035603e+003,6.412556e-003
1.037532e+003,6.873254e-003
1.039460e+003,7.390990e-003
1.041389e+003,7.590557e-003
1.043317e+003,7.769132e-003
1.045246e+003,7.972516e-003
1.047174e+003,8.019361e-003
1.049103e+003,7.979165e-003
1.051031e+003,7.923011e-003
1.052960e+003,7.830731e-003
1.054888e+003,7.882351e-003
1.056817e+003,8.025706e-003
1.058745e+003,8.052810e-003
1.060674e+003,8.081063e-003
1.062602e+003,8.043426e-003
1.064531e+003,7.989154e-003
1.066459e+003,8.011835e-003
1.068388e+003,8.063003e-003
1.070316e+003,8.254302e-003
1.072245e+003,8.335965e-003
1.074173e+003,8.143618e-003
1.076102e+003,8.014838e-003
1.078030e+003,7.948893e-003
1.079959e+003,7.825670e-003
1.081887e+003,7.891023e-003
1.083816e+003,8.320394e-003
1.085744e+003,8.715808e-003
1.087673e+003,8.750698e-003
1.089601e+003,8.658680e-003
1.091530e+003,8.796510e-003
1.093458e+003,8.936514e-003
1.095387e+003,9.037386e-003
1.097315e+003,9.146030e-003
1.099244e+003,9.274063e-003
1.101172e+003,9.291530e-003
1.103101e+003,9.249489e-003
1.105029e+003,9.478458e-003
1.106958e+003,9.652967e-003
1.108886e+003,9.737672e-003
1.110815e+003,9.600661e-003
1.112743e+003,9.361301e-003
1.114672e+003,9.383071e-003
1.116600e+003,9.748787e-003
1.118529e+003,9.842322e-003
1.120457e+003,9.711716e-003
1.122386e+003,9.695893e-003
1.124314e+003,9.753734e-003
1.126243e+003,9.482590e-003
1.128171e+003,9.203561e-003
1.130100e+003,9.406162e-003
1.132028e+003,9.347996e-003
1.133957e+003,9.018306e-003
1.135885e+003,8.826604e-003
1.137814e+003,8.473861e-003
1.139742e+003,7.794668e-003
1.141671e+003,7.570899e-003
1.143599e+003,7.409123e-003
1.145528e+003,7.019846e-003
1.147456e+003,6.682193e-003
1.149385e+003,6.584761e-003
1.151313e+003,6.231614e-003
1.153242e+003,5.757259e-003
1.155170e+003,5.658086e-003
1.157099e+003,5.602199e-003
1.159027e+003,5.368688e-003
1.160956e+003,5.112739e-003
1.162884e+003,5.142981e-003
1.164813e+003,5.158304e-003
1.166741e+003,4.996686e-003
1.168670e+003,4.912063e-003
1.170598e+003,4.865652e-003
1.172526e+003,4.879457e-003
1.174455e+003,4.822330e-003
1.176384e+003,4.954523e-003
1.178312e+003,5.036976e-003
1.180240e+003,4.866088e-003
1.182169e+003,4.846822e-003
1.184098e+003,4.782730e-003
1.186026e+003,4.435798e-003
1.187954e+003,4.280539e-003
1.189883e+003,4.253770e-003
1.191812e+003,4.061350e-003
1.193740e+003,3.951530e-003
1.195668e+003,3.657986e-003
1.197597e+003,3.198515e-003
1.199526e+003,3.070659e-003
1.201454e+003,3.076265e-003
1.203382e+003,3.091549e-003
1.205311e+003,3.075531e-003
1.207240e+003,2.994751e-003
1.209168e+003,2.919823e-003
1.211096e+003,2.973199e-003
1.213025e+003,3.138637e-003
1.214953e+003,3.154557e-003
1.216882e+003,2.978537e-003
1.218810e+003,2.877928e-003
1.220739e+003,2.832469e-003
1.222667e+003,2.982874e-003
1.224596e+003,3.211333e-003
1.226524e+003,3.372154e-003
1.228453e+003,3.537544e-003
1.230381e+003,3.534872e-003
1.232310e+003,3.645422e-003
1.234238e+003,3.874665e-003
1.236167e+003,3.896763e-003
1.238095e+003,4.039611e-003
1.240024e+003,4.202144e-003
1.241952e+003,4.277963e-003
1.243881e+003,4.119750e-003
1.245809e+003,4.082254e-003
1.247738e+003,4.065631e-003
1.249666e+003,4.269965e-003
1.251595e+003,4.364504e-003
1.253523e+003,4.357509e-003
1.255452e+003,4.379231e-003
1.257380e+003,4.336392e-003
1.259309e+003,4.357509e-003
1.261237e+003,4.392184e-003
1.263166e+003,4.507272e-003
1.265094e+003,4.827623e-003
1.267023e+003,5.130340e-003
1.268951e+003,5.382442e-003
1.270880e+003,5.669735e-003
1.272808e+003,5.724188e-003
1.274737e+003,5.666344e-003
1.276665e+003,5.802925e-003
1.278594e+003,6.095167e-003
1.280522e+003,6.341912e-003
1.282451e+003,6.469962e-003
1.284379e+003,6.647942e-003
1.286308e+003,6.836193e-003
1.288236e+003,7.126404e-003
1.290165e+003,7.354795e-003
1.292093e+003,7.437604e-003
1.294022e+003,7.635202e-003
1.295950e+003,7.885489e-003
1.297879e+003,8.024525e-003
1.299807e+003,8.052607e-003
1.301736e+003,8.008088e-003
1.303664e+003,7.816258e-003
1.305593e+003,7.643126e-003
1.307521e+003,7.648016e-003
1.309450e+003,7.531588e-003
1.311378e+003,7.239557e-003
1.313307e+003,6.913550e-003
1.315235e+003,6.769619e-003
1.317164e+003,6.684751e-003
1.319092e+003,6.374593e-003
1.321021e+003,6.039324e-003
1.322949e+003,5.922855e-003
1.324878e+003,5.943009e-003
1.326806e+003,5.870359e-003
1.328735e+003,5.874826e-003
1.330663e+003,5.940759e-003
1.332592e+003,5.960678e-003
1.334520e+003,6.007541e-003
1.336449e+003,6.035427e-003
1.338377e+003,6.163285e-003
1.340306e+003,6.315318e-003
1.342234e+003,6.303888e-003
1.344163e+003,6.392986e-003
1.346091e+003,6.519806e-003
1.348020e+003,6.626880e-003
1.349948e+003,6.669172e-003
1.351877e+003,6.658607e-003
1.353805e+003,6.633811e-003
1.355734e+003,6.508068e-003
1.357662e+003,6.379805e-003
1.359591e+003,6.232488e-003
1.361519e+003,5.984798e-003
1.363448e+003,5.742687e-003
1.365376e+003,5.360133e-003
1.367305e+003,5.147473e-003
1.369233e+003,5.157163e-003
1.371162e+003,5.186537e-003
1.373090e+003,5.321558e-003
1.375019e+003,5.217454e-003
1.376947e+003,5.195792e-003
1.378876e+003,5.233484e-003
1.380804e+003,5.226810e-003
1.382733e+003,5.256122e-003
1.384661e+003,5.268162e-003
1.386590e+003,5.339067e-003
1.388518e+003,5.238850e-003
1.390447e+003,4.944536e-003
1.392375e+003,4.805980e-003
1.394304e+003,4.758141e-003
1.396232e+003,4.494416e-003
1.398161e+003,4.447347e-003
1.400089e+003,4.461976e-003
1.402018e+003,4.160460e-003
1.403946e+003,3.840433e-003
1.405875e+003,3.741864e-003
1.407803e+003,3.564503e-003
1.409732e+003,3.365041e-003
1.411660e+003,3.384710e-003
1.413589e+003,3.365909e-003
1.415517e+003,3.442584e-003
1.417446e+003,3.846818e-003
1.419374e+003,4.255343e-003
1.421303e+003,4.435497e-003
1.423231e+003,4.834760e-003
1.425160e+003,5.435383e-003
1.427088e+003,5.839428e-003
1.429017e+003,6.128872e-003
1.430945e+003,6.496060e-003
1.432874e+003,6.970415e-003
1.434802e+003,7.461570e-003
1.436731e+003,7.838760e-003
1.438659e+003,8.037890e-003
1.440588e+003,8.345624e-003
1.442516e+003,8.804253e-003
1.444445e+003,9.217436e-003
1.446373e+003,9.668450e-003
1.448302e+003,1.011746e-002
1.450230e+003,1.040162e-002
1.452159e+003,1.059796e-002
1.454087e+003,1.097833e-002
1.456016e+003,1.161334e-002
1.457944e+003,1.182344e-002
1.459873e+003,1.146342e-002
1.461801e+003,1.124816e-002
1.463730e+003,1.114494e-002
1.465658e+003,1.097112e-002
1.467587e+003,1.060991e-002
1.469515e+003,1.030688e-002
1.471444e+003,1.009334e-002
1.473372e+003,9.658388e-003
1.475301e+003,9.202207e-003
1.477229e+003,8.682950e-003
1.479158e+003,8.006164e-003
1.481086e+003,7.527474e-003
1.483015e+003,7.052679e-003
1.484943e+003,6.540694e-003
1.486872e+003,6.174409e-003
1.488800e+003,5.910125e-003
1.490729e+003,5.676852e-003
1.492657e+003,5.295832e-003
1.494586e+003,5.070330e-003
1.496514e+003,5.011166e-003
1.498443e+003,4.828863e-003
1.500371e+003,4.538710e-003
1.502300e+003,4.355836e-003
1.504228e+003,4.430443e-003
1.506157e+003,4.655545e-003
1.508085e+003,4.406476e-003
1.510014e+003,4.040313e-003
1.511942e+003,3.880248e-003
1.513871e+003,3.849124e-003
1.515799e+003,4.011185e-003
1.517728e+003,4.140757e-003
1.519656e+003,4.193680e-003
1.521585e+003,4.331773e-003
1.523513e+003,4.331104e-003
1.525442e+003,4.395129e-003
1.527370e+003,4.422744e-003
1.529299e+003,4.516412e-003
1.531227e+003,4.748794e-003
1.533156e+003,5.109520e-003
1.535084e+003,5.284898e-003
1.537013e+003,5.413642e-003
1.538941e+003,5.807190e-003
1.540870e+003,6.079509e-003
1.542798e+003,6.096075e-003
1.544727e+003,6.127797e-003
1.546655e+003,6.128838e-003
1.548584e+003,6.356504e-003
1.550512e+003,6.588326e-003
1.552441e+003,6.657026e-003
1.554369e+003,6.803915e-003
1.556298e+003,7.066116e-003
1.558226e+003,7.533509e-003
1.560155e+003,7.790315e-003
1.562083e+003,7.660966e-003
1.564012e+003,7.826986e-003
1.565940e+003,8.001574e-003
1.567869e+003,8.316544e-003
1.569797e+003,8.729669e-003
1.571726e+003,8.694748e-003
1.573654e+003,8.532383e-003
1.575583e+003,8.612679e-003
1.577511e+003,8.641847e-003
1.579440e+003,8.414130e-003
1.581368e+003,8.260819e-003
1.583297e+003,8.095511e-003
1.585225e+003,7.940963e-003
1.587154e+003,7.782456e-003
1.589082e+003,7.613890e-003
1.591010e+003,7.544837e-003
1.592939e+003,7.446806e-003
1.594868e+003,7.345865e-003
1.596796e+003,7.240096e-003
1.598724e+003,7.062951e-003
1.600653e+003,7.007083e-003
1.602582e+003,6.939036e-003
1.604510e+003,6.660390e-003
1.606438e+003,6.481565e-003
1.608367e+003,6.409934e-003
1.610296e+003,6.165671e-003
1.612224e+003,5.755110e-003
1.614152e+003,5.667049e-003
1.616081e+003,5.729795e-003
1.618010e+003,5.518028e-003
1.619938e+003,5.229326e-003
1.621866e+003,5.170576e-003
1.623795e+003,4.983916e-003
1.625724e+003,4.888672e-003
1.627652e+003,4.859118e-003
1.629580e+003,4.788190e-003
1.631509e+003,4.597643e-003
1.633438e+003,4.555418e-003
1.635366e+003,4.675875e-003
1.637294e+003,4.488055e-003
1.639223e+003,4.045063e-003
1.641151e+003,3.732373e-003
1.643080e+003,3.496057e-003
1.645008e+003,3.437908e-003
1.646937e+003,3.403009e-003
1.648865e+003,3.002525e-003
1.650794e+003,2.869256e-003
1.652722e+003,3.145312e-003
1.654651e+003,2.874493e-003
1.656579e+003,2.482926e-003
1.658508e+003,2.305745e-003
1.660436e+003,2.240828e-003
1.662365e+003,2.303879e-003
1.664293e+003,2.273568e-003
1.666222e+003,2.188475e-003
1.668150e+003,2.233334e-003
1.670079e+003,2.214551e-003
1.672007e+003,1.995835e-003
1.673936e+003,1.831264e-003
1.675864e+003,1.738905e-003
1.677793e+003,1.460051e-003
1.679721e+003,1.207591e-003
1.681650e+003,9.786886e-004
1.683578e+003,9.936993e-004
1.685507e+003,8.128424e-004
1.687435e+003,4.764305e-004
1.689364e+003,2.261324e-004
1.691292e+003,7.856791e-005
1.693221e+003,9.069734e-005
1.695149e+003,2.536489e-004
1.697078e+003,1.872477e-004
1.699006e+003,1.555922e-004
1.700935e+003,1.961647e-004
1.702863e+003,2.243232e-005
1.704792e+003,5.875063e-005
1.706720e+003,4.960449e-005
1.708649e+003,-1.243011e-004
1.710577e+003,-2.528385e-004
1.712506e+003,-1.775290e-004
1.714434e+003,4.466698e-005
1.716363e+003,1.769387e-004
1.718291e+003,1.299049e-004
1.720220e+003,-8.640498e-005
1.722148e+003,-3.160500e-004
1.724077e+003,-4.396980e-004
1.726005e+003,-4.188442e-004
1.727934e+003,-3.859394e-004
1.729862e+003,-4.084500e-004
1.731791e+003,-3.839200e-004
1.733719e+003,-2.749255e-004
1.735648e+003,-3.805764e-004
1.737576e+003,-5.146642e-004
1.739505e+003,-3.937520e-004
1.741433e+003,-4.620733e-004
1.743362e+003,-5.557329e-004
1.745290e+003,-4.958328e-004
1.747219e+003,-3.330350e-004
1.749147e+003,-1.641481e-004
1.751076e+003,-9.293103e-005
1.753004e+003,-1.638832e-004
1.754933e+003,-2.707863e-004
1.756861e+003,-2.662829e-004
1.758790e+003,-3.504498e-004
1.760718e+003,-3.365445e-004
1.762647e+003,-3.275059e-004
1.764575e+003,-4.259280e-004
1.766504e+003,-3.693868e-004
1.768432e+003,-3.130038e-004
1.770361e+003,-3.436297e-004
1.772289e+003,-2.679055e-004
1.774218e+003,-2.239615e-004
1.776146e+003,-3.538599e-004
1.778075e+003,-4.965609e-004
1.780003e+003,-5.325019e-004
1.781932e+003,-5.791942e-004
1.783860e+003,-6.002389e-004
1.785789e+003,-4.583994e-004
1.787717e+003,-3.678308e-004
1.789646e+003,-4.458215e-004
1.791574e+003,-3.729953e-004
1.793503e+003,-3.713069e-004
1.795431e+003,-5.065890e-004
1.797360e+003,-4.375464e-004
1.799288e+003,-3.365445e-004
1.801217e+003,-3.688902e-004
1.803145e+003,-4.419157e-004
1.805074e+003,-3.542903e-004
1.807002e+003,-3.099577e-004
1.808931e+003,-3.975921e-004
1.810859e+003,-4.587304e-004
1.812788e+003,-4.327468e-004
1.814716e+003,-3.743196e-004
1.816645e+003,-3.044613e-004
1.818573e+003,-3.234996e-004
1.820502e+003,-3.755444e-004
1.822430e+003,-3.378358e-004
1.824359e+003,-2.489972e-004
1.826287e+003,-2.152516e-004
1.828216e+003,-2.871440e-004
1.830144e+003,-3.436297e-004
1.832073e+003,-5.018894e-004
1.834001e+003,-5.449118e-004
1.835930e+003,-4.820977e-004
1.837858e+003,-4.531697e-004
1.839787e+003,-4.779936e-004
1.841715e+003,-5.707231e-004
1.843644e+003,-4.749155e-004
1.845572e+003,-5.156570e-004
1.847501e+003,-6.820916e-004
1.849429e+003,-6.516220e-004
1.851358e+003,-4.236109e-004
1.853286e+003,-3.999094e-004
1.855215e+003,-4.723008e-004
1.857143e+003,-4.012004e-004
1.859072e+003,-3.796164e-004
1.861000e+003,-4.251004e-004
1.862929e+003,-4.444975e-004
1.864857e+003,-3.706779e-004
1.866786e+003,-4.100389e-004
1.868714e+003,-3.761735e-004
1.870643e+003,-3.759748e-004
1.872571e+003,-4.957005e-004
1.874500e+003,-4.977193e-004
1.876428e+003,-4.659459e-004
1.878357e+003,-3.733595e-004
1.880285e+003,-3.242281e-004
1.882214e+003,-2.953558e-004
1.884142e+003,-2.672763e-004
1.886071e+003,-3.781267e-004
1.887999e+003,-4.303636e-004
1.889928e+003,-4.531366e-004
1.891856e+003,-5.087071e-004
1.893785e+003,-4.360569e-004
1.895713e+003,-3.328695e-004
1.897642e+003,-3.860387e-004
1.899570e+003,-3.734919e-004
1.901499e+003,-3.898789e-004
1.903427e+003,-4.038487e-004
1.905356e+003,-3.682943e-004
1.907284e+003,-3.955066e-004
1.909213e+003,-4.000087e-004
1.911141e+003,-4.193407e-004
1.913070e+003,-4.858045e-004
1.914998e+003,-4.432397e-004
1.916927e+003,-3.487945e-004
1.918855e+003,-2.775083e-004
1.920784e+003,-2.928393e-004
1.922712e+003,-3.495890e-004
1.924641e+003,-3.836552e-004
1.926569e+003,-3.025409e-004
1.928498e+003,-3.841187e-004
1.930426e+003,-3.921961e-004
1.932355e+003,-3.979562e-004
1.934283e+003,-4.926556e-004
1.936212e+003,-5.003008e-004
1.938140e+003,-4.503893e-004
1.940069e+003,-4.121575e-004
1.941997e+003,-3.606137e-004
1.943926e+003,-3.747830e-004
1.945854e+003,-4.064307e-004
1.947783e+003,-4.353287e-004
1.949711e+003,-4.724663e-004
1.951640e+003,-4.876249e-004
1.953568e+003,-4.472779e-004
1.955497e+003,-4.348322e-004
1.957425e+003,-4.290395e-004
1.959354e+003,-3.205198e-004
1.961282e+003,-2.742632e-004
1.963211e+003,-3.319756e-004
1.965139e+003,-3.346905e-004
1.967068e+003,-3.175730e-004
1.968996e+003,-5.035442e-004
1.970925e+003,-5.401133e-004
1.972853e+003,-4.036500e-004
1.974782e+003,-4.423129e-004
1.976710e+003,-4.703480e-004
1.978639e+003,-4.221543e-004
1.980567e+003,-4.818329e-004
1.982496e+003,-5.678111e-004
1.984424e+003,-5.653955e-004
1.986353e+003,-4.903057e-004
1.988281e+003,-5.296558e-004
1.990210e+003,-5.926285e-004
1.992138e+003,-4.934830e-004
1.994067e+003,-4.442327e-004
1.995995e+003,-5.226730e-004
1.997924e+003,-6.577756e-004
1.999852e+003,-6.399099e-004
2.001781e+003,-5.461031e-004
2.003709e+003,-4.928872e-004
2.005638e+003,-5.120166e-004
2.007566e+003,-4.303636e-004
2.009495e+003,-3.930900e-004
2.011423e+003,-4.761070e-004
2.013352e+003,-4.490322e-004
2.015280e+003,-4.237432e-004
2.017208e+003,-3.634277e-004
2.019137e+003,-3.144938e-004
2.021066e+003,-4.360569e-004
2.022994e+003,-5.269091e-004
2.024922e+003,-5.017901e-004
2.026851e+003,-4.935161e-004
2.028780e+003,-4.115616e-004
2.030708e+003,-3.242943e-004
2.032636e+003,-2.590309e-004
2.034565e+003,-3.097591e-004
2.036494e+003,-3.505161e-004
2.038422e+003,-3.392925e-004
2.040350e+003,-3.743526e-004
2.042279e+003,-4.187780e-004
2.044208e+003,-4.299994e-004
2.046136e+003,-4.669389e-004
2.048064e+003,-4.675015e-004
2.049993e+003,-3.465101e-004
2.051921e+003,-3.040640e-004
2.053850e+003,-2.887003e-004
2.055778e+003,-2.952564e-004
2.057707e+003,-3.280025e-004
2.059635e+003,-3.366439e-004
2.061564e+003,-3.547538e-004
2.063492e+003,-5.058278e-004
2.065421e+003,-4.739556e-004
2.067349e+003,-2.267433e-004
2.069278e+003,-2.462155e-004
2.071206e+003,-2.827401e-004
2.073135e+003,-2.335322e-004
2.075063e+003,-2.162121e-004
2.076992e+003,-2.010771e-004
2.078920e+003,-1.446722e-004
2.080849e+003,-1.692157e-004
2.082777e+003,-1.855772e-004
2.084706e+003,-1.921349e-004
2.086634e+003,-2.177023e-004
2.088563e+003,-2.123704e-004
2.090491e+003,-2.461493e-004
2.092420e+003,-2.594945e-004
2.094348e+003,-1.529198e-004
2.096277e+003,-1.387763e-004
2.098205e+003,-1.087986e-004
2.100134e+003,-4.774353e-005
2.102062e+003,2.004656e-005
2.103991e+003,-1.269015e-005
2.105919e+003,2.942402e-005
2.107848e+003,8.788036e-005
2.109776e+003,-2.289502e-005
2.111705e+003,-1.108855e-004
2.113633e+003,-7.278939e-005
2.115562e+003,-7.554495e-006
2.117490e+003,-8.382831e-006
2.119419e+003,2.952343e-005
2.121347e+003,3.638270e-005
2.123276e+003,-2.972022e-005
2.125204e+003,-2.796423e-005
2.127133e+003,4.847781e-005
2.129061e+003,1.328547e-004
2.130990e+003,2.044852e-004
2.132918e+003,9.788898e-005
2.134847e+003,-6.328556e-006
2.136775e+003,4.605876e-005
2.138704e+003,1.653040e-004
2.140632e+003,1.287448e-004
2.142561e+003,7.866733e-005
2.144489e+003,8.585878e-005
2.146418e+003,8.963683e-005
2.148346e+003,1.460463e-004
2.150275e+003,1.689502e-004
2.152203e+003,1.798557e-004
2.154132e+003,2.200326e-004
2.156060e+003,2.650206e-004
2.157989e+003,3.178386e-004
2.159917e+003,2.956894e-004
2.161846e+003,1.613596e-004
2.163774e+003,2.009713e-004
2.165703e+003,3.446645e-004
2.167631e+003,3.732828e-004
2.169560e+003,4.196465e-004
2.171488e+003,4.443559e-004
2.173417e+003,3.537837e-004
2.175345e+003,2.802387e-004
2.177274e+003,3.387620e-004
2.179202e+003,4.144394e-004
2.181131e+003,3.943415e-004
2.183059e+003,3.290131e-004
2.184988e+003,3.509650e-004
2.186916e+003,4.239581e-004
2.188845e+003,3.688059e-004
2.190773e+003,2.095902e-004
2.192702e+003,1.158521e-004
2.194630e+003,1.709722e-004
2.196559e+003,2.196017e-004
2.198487e+003,2.096234e-004
2.200416e+003,1.483664e-004
2.202344e+003,1.802203e-004
2.204273e+003,2.162866e-004
2.206201e+003,2.368073e-004
2.208130e+003,2.542456e-004
2.210058e+003,2.687671e-004
2.211987e+003,2.480460e-004
2.213915e+003,1.884742e-004
2.215844e+003,1.821760e-004
2.217772e+003,2.639928e-004
2.219701e+003,3.389941e-004
2.221629e+003,2.845158e-004
2.223558e+003,1.929824e-004
2.225486e+003,1.983194e-004
2.227415e+003,1.664973e-004
2.229343e+003,1.272865e-004
2.231272e+003,1.421020e-004
2.233200e+003,2.127726e-004
2.235129e+003,2.791777e-004
2.237057e+003,2.546435e-004
2.238986e+003,1.530731e-004
2.240914e+003,9.739186e-005
2.242843e+003,1.587079e-004
2.244771e+003,2.247069e-004
2.246700e+003,2.428078e-004
2.248628e+003,2.106510e-004
2.250557e+003,8.476515e-005
2.252485e+003,1.189528e-005
2.254414e+003,7.147600e-005
2.256342e+003,1.031254e-004
2.258271e+003,8.135169e-005
2.260199e+003,2.195685e-004
2.262128e+003,2.589203e-004
2.264056e+003,1.182052e-004
2.265985e+003,6.587547e-005
2.267913e+003,9.338176e-005
2.269842e+003,1.695468e-004
2.271770e+003,1.995127e-004
2.273699e+003,1.353074e-004
2.275627e+003,4.085619e-005
2.277556e+003,-1.636791e-005
2.279484e+003,6.162975e-006
2.281413e+003,4.874291e-005
2.283341e+003,-3.545198e-005
2.285270e+003,4.406850e-006
2.287198e+003,1.185698e-004
2.289127e+003,2.450954e-004
2.291055e+003,2.858752e-004
2.292984e+003,2.977783e-004
2.294912e+003,2.455595e-004
2.296841e+003,4.043240e-004
2.298769e+003,6.817043e-004
2.300698e+003,8.439150e-004
2.302626e+003,1.017080e-003
2.304555e+003,1.170047e-003
2.306483e+003,1.407094e-003
2.308412e+003,1.660069e-003
2.310340e+003,1.891561e-003
2.312269e+003,2.364442e-003
2.314197e+003,2.906347e-003
2.316125e+003,3.505777e-003
2.318054e+003,4.031819e-003
2.319983e+003,4.567272e-003
2.321911e+003,5.321189e-003
2.323840e+003,6.049336e-003
2.325768e+003,6.432868e-003
2.327697e+003,6.867195e-003
2.329625e+003,7.567865e-003
2.331553e+003,7.973158e-003
2.333482e+003,8.202265e-003
2.335411e+003,8.316239e-003
2.337339e+003,8.478320e-003
2.339268e+003,8.602506e-003
2.341196e+003,8.461090e-003
2.343125e+003,7.882891e-003
2.345053e+003,6.644005e-003
2.346981e+003,4.674166e-003
2.348910e+003,3.543023e-003
2.350839e+003,4.821358e-003
2.352767e+003,7.224059e-003
2.354696e+003,9.194254e-003
2.356624e+003,1.042249e-002
2.358552e+003,1.106489e-002
2.360481e+003,1.125013e-002
2.362409e+003,1.123486e-002
2.364338e+003,1.099967e-002
2.366267e+003,1.042371e-002
2.368195e+003,9.435757e-003
2.370124e+003,8.228704e-003
2.372052e+003,6.833130e-003
2.373980e+003,5.472157e-003
2.375909e+003,4.125603e-003
2.377838e+003,2.813826e-003
2.379766e+003,1.739903e-003
2.381695e+003,1.136891e-003
2.383623e+003,8.315654e-004
2.385552e+003,6.075397e-004
2.387480e+003,4.983235e-004
2.389408e+003,4.812402e-004
2.391337e+003,4.586847e-004
2.393266e+003,4.220344e-004
2.395194e+003,4.531787e-004
2.397123e+003,4.788520e-004
2.399051e+003,5.983157e-004
2.400979e+003,6.406551e-004
2.402908e+003,5.078440e-004
2.404836e+003,4.783876e-004
2.406765e+003,4.943429e-004
2.408694e+003,4.916560e-004
2.410622e+003,5.530941e-004
2.412551e+003,5.284448e-004
2.414479e+003,5.937369e-004
2.416407e+003,6.323594e-004
2.418336e+003,5.600280e-004
2.420264e+003,4.916560e-004
2.422193e+003,5.391603e-004
2.424122e+003,6.914943e-004
2.426050e+003,7.303911e-004
2.427979e+003,6.475240e-004
2.429907e+003,6.792818e-004
2.431835e+003,7.442315e-004
2.433764e+003,7.555829e-004
2.435692e+003,7.726437e-004
2.437621e+003,8.176891e-004
2.439550e+003,7.475173e-004
2.441478e+003,7.740047e-004
2.443406e+003,8.885029e-004
2.445335e+003,9.667668e-004
2.447263e+003,9.701208e-004
2.449192e+003,9.384082e-004
2.451121e+003,9.022819e-004
2.453049e+003,8.892334e-004
2.454978e+003,9.440200e-004
2.456906e+003,1.026711e-003
2.458834e+003,1.054278e-003
2.460763e+003,1.076466e-003
2.462691e+003,9.444517e-004
2.464620e+003,9.261555e-004
2.466549e+003,1.002002e-003
2.468477e+003,1.008544e-003
2.470406e+003,9.774599e-004
2.472334e+003,9.408323e-004
2.474262e+003,9.615200e-004
2.476191e+003,9.718144e-004
2.478119e+003,1.016283e-003
2.480048e+003,1.078592e-003
2.481977e+003,1.148485e-003
2.483905e+003,1.168020e-003
2.485833e+003,1.163601e-003
2.487762e+003,1.158917e-003
2.489690e+003,1.090750e-003
2.491619e+003,1.135296e-003
2.493547e+003,1.254908e-003
2.495476e+003,1.282689e-003
2.497405e+003,1.266771e-003
2.499333e+003,1.267003e-003
2.501261e+003,1.325194e-003
2.503190e+003,1.340250e-003
2.505118e+003,1.315091e-003
2.507047e+003,1.285081e-003
2.508975e+003,1.227394e-003
2.510904e+003,1.205066e-003
2.512833e+003,1.289834e-003
2.514761e+003,1.319079e-003
2.516689e+003,1.320675e-003
2.518618e+003,1.373820e-003
2.520546e+003,1.487247e-003
2.522475e+003,1.491602e-003
2.524403e+003,1.451175e-003
2.526332e+003,1.389908e-003
2.528260e+003,1.428070e-003
2.530189e+003,1.538618e-003
2.532117e+003,1.477938e-003
2.534046e+003,1.331077e-003
2.535974e+003,1.393498e-003
2.537903e+003,1.349224e-003
2.539831e+003,1.451707e-003
2.541760e+003,1.520496e-003
2.543688e+003,1.515375e-003
2.545617e+003,1.507894e-003
2.547545e+003,1.494063e-003
2.549474e+003,1.509191e-003
2.551402e+003,1.566184e-003
2.553331e+003,1.470025e-003
2.555259e+003,1.445855e-003
2.557188e+003,1.516506e-003
2.559116e+003,1.444725e-003
2.561045e+003,1.396889e-003
2.562973e+003,1.450310e-003
2.564902e+003,1.577890e-003
2.566830e+003,1.632896e-003
2.568759e+003,1.551386e-003
2.570687e+003,1.591657e-003
2.572616e+003,1.671811e-003
2.574544e+003,1.690770e-003
2.576473e+003,1.664260e-003
2.578401e+003,1.626111e-003
2.580330e+003,1.608950e-003
2.582258e+003,1.610680e-003
2.584187e+003,1.639614e-003
2.586115e+003,1.635125e-003
2.588044e+003,1.620325e-003
2.589972e+003,1.748486e-003
2.591901e+003,1.839716e-003
2.593829e+003,1.775700e-003
2.595758e+003,1.691303e-003
2.597686e+003,1.705074e-003
2.599615e+003,1.692101e-003
2.601543e+003,1.742498e-003
2.603472e+003,1.777164e-003
2.605400e+003,1.806309e-003
2.607329e+003,1.855488e-003
2.609257e+003,1.917419e-003
2.611186e+003,1.922411e-003
2.613114e+003,1.965080e-003
2.615043e+003,1.944610e-003
2.616971e+003,1.858283e-003
2.618900e+003,1.897451e-003
2.620828e+003,1.968808e-003
2.622757e+003,2.022465e-003
2.624685e+003,1.992041e-003
2.626614e+003,1.996168e-003
2.628542e+003,2.027193e-003
2.630471e+003,2.079925e-003
2.632399e+003,2.070071e-003
2.634328e+003,2.070404e-003
2.636256e+003,2.150779e-003
2.638185e+003,2.274734e-003
2.640113e+003,2.336292e-003
2.642042e+003,2.303846e-003
2.643970e+003,2.416516e-003
2.645899e+003,2.481893e-003
2.647827e+003,2.484425e-003
2.649756e+003,2.564911e-003
2.651684e+003,2.642344e-003
2.653613e+003,2.616342e-003
2.655541e+003,2.601042e-003
2.657470e+003,2.541380e-003
2.659398e+003,2.558845e-003
2.661327e+003,2.655779e-003
2.663255e+003,2.644977e-003
2.665184e+003,2.626610e-003
2.667112e+003,2.834903e-003
2.669041e+003,2.982106e-003
2.670969e+003,2.982173e-003
2.672898e+003,2.892871e-003
2.674826e+003,2.821296e-003
2.676755e+003,2.887635e-003
2.678683e+003,2.916888e-003
2.680612e+003,2.884733e-003
2.682540e+003,2.924660e-003
2.684469e+003,3.055944e-003
2.686397e+003,3.200217e-003
2.688326e+003,3.243946e-003
2.690254e+003,3.283940e-003
2.692183e+003,3.309481e-003
2.694111e+003,3.304573e-003
2.696040e+003,3.239373e-003
2.697968e+003,3.313554e-003
2.699897e+003,3.484634e-003
2.701825e+003,3.501602e-003
2.703754e+003,3.491013e-003
2.705682e+003,3.604092e-003
2.707611e+003,3.657451e-003
2.709539e+003,3.665504e-003
2.711468e+003,3.733108e-003
2.713396e+003,3.824421e-003
2.715325e+003,3.914082e-003
2.717253e+003,3.907963e-003
2.719182e+003,3.918997e-003
2.721110e+003,3.965974e-003
2.723039e+003,4.124901e-003
2.724967e+003,4.277461e-003
2.726896e+003,4.343587e-003
2.728824e+003,4.380067e-003
2.730753e+003,4.452435e-003
2.732681e+003,4.460168e-003
2.734610e+003,4.518722e-003
2.736538e+003,4.569716e-003
2.738467e+003,4.659363e-003
2.740395e+003,4.825948e-003
2.742324e+003,4.900903e-003
2.744252e+003,4.934013e-003
2.746181e+003,5.015590e-003
2.748109e+003,5.074922e-003
2.750038e+003,5.113879e-003
2.751966e+003,5.210647e-003
2.753895e+003,5.352519e-003
2.755823e+003,5.530746e-003
2.757752e+003,5.631904e-003
2.759680e+003,5.758871e-003
2.761609e+003,6.011270e-003
2.763537e+003,6.336735e-003
2.765466e+003,6.486542e-003
2.767394e+003,6.727452e-003
2.769323e+003,7.063624e-003
2.771251e+003,7.467334e-003
2.773180e+003,7.889066e-003
2.775108e+003,8.249270e-003
2.777037e+003,8.747621e-003
2.778965e+003,9.248745e-003
2.780894e+003,9.808668e-003
2.782822e+003,1.060152e-002
2.784750e+003,1.138406e-002
2.786679e+003,1.209162e-002
2.788608e+003,1.279371e-002
2.790536e+003,1.348980e-002
2.792465e+003,1.416269e-002
2.794393e+003,1.486238e-002
2.796322e+003,1.559824e-002
2.798250e+003,1.628277e-002
2.800178e+003,1.685229e-002
2.802107e+003,1.751624e-002
2.804036e+003,1.809336e-002
2.805964e+003,1.846815e-002
2.807893e+003,1.889866e-002
2.809821e+003,1.916204e-002
2.811750e+003,1.926732e-002
2.813678e+003,1.917378e-002
2.815606e+003,1.914753e-002
2.817535e+003,1.898519e-002
2.819464e+003,1.860639e-002
2.821392e+003,1.825056e-002
2.823321e+003,1.792627e-002
2.825249e+003,1.760322e-002
2.827177e+003,1.705477e-002
2.829106e+003,1.642129e-002
2.831034e+003,1.581374e-002
2.832963e+003,1.524846e-002
2.834892e+003,1.480609e-002
2.836820e+003,1.423305e-002
2.838749e+003,1.352466e-002
2.840677e+003,1.282767e-002
2.842605e+003,1.226118e-002
2.844534e+003,1.154858e-002
2.846462e+003,1.069463e-002
2.848391e+003,9.930454e-003
2.850320e+003,9.415711e-003
2.852248e+003,9.215406e-003
2.854177e+003,9.149448e-003
2.856105e+003,9.058903e-003
2.858033e+003,9.009003e-003
2.859962e+003,9.110839e-003
2.861890e+003,9.043950e-003
2.863819e+003,8.933065e-003
2.865748e+003,9.024564e-003
2.867676e+003,9.126438e-003
2.869604e+003,9.239200e-003
2.871533e+003,9.316579e-003
2.873461e+003,9.429933e-003
2.875390e+003,9.538844e-003
2.877319e+003,9.750718e-003
2.879247e+003,9.994701e-003
2.881176e+003,1.005058e-002
2.883104e+003,9.993310e-003
2.885032e+003,9.985208e-003
2.886961e+003,9.863574e-003
2.888889e+003,9.739942e-003
2.890818e+003,9.679494e-003
2.892747e+003,9.556830e-003
2.894675e+003,9.428713e-003
2.896604e+003,9.381987e-003
2.898532e+003,9.323655e-003
2.900460e+003,9.266752e-003
2.902389e+003,9.255277e-003
2.904317e+003,9.024497e-003
2.906246e+003,8.828667e-003
2.908175e+003,8.915376e-003
2.910103e+003,8.933741e-003
2.912031e+003,8.691773e-003
2.913960e+003,8.292328e-003
2.915888e+003,8.051763e-003
2.917817e+003,8.069147e-003
2.919745e+003,8.385821e-003
2.921674e+003,8.730548e-003
2.923603e+003,9.122208e-003
2.925531e+003,9.417844e-003
2.927459e+003,9.655813e-003
2.929388e+003,9.926590e-003
2.931316e+003,1.021989e-002
2.933245e+003,1.048359e-002
2.935173e+003,1.065904e-002
2.937102e+003,1.079061e-002
2.939031e+003,1.091257e-002
2.940959e+003,1.091638e-002
2.942887e+003,1.082064e-002
2.944816e+003,1.075108e-002
2.946744e+003,1.061079e-002
2.948673e+003,1.028903e-002
2.950601e+003,9.806261e-003
2.952530e+003,9.246341e-003
2.954458e+003,8.796307e-003
2.956387e+003,8.365925e-003
2.958315e+003,7.865717e-003
2.960244e+003,7.206440e-003
2.962172e+003,6.539685e-003
2.964101e+003,5.987149e-003
2.966029e+003,5.480210e-003
2.967958e+003,4.979190e-003
2.969886e+003,4.590209e-003
2.971815e+003,4.235803e-003
2.973743e+003,3.848188e-003
2.975672e+003,3.531832e-003
2.977600e+003,3.255931e-003
2.979529e+003,2.993617e-003
2.981457e+003,2.661279e-003
2.983386e+003,2.363842e-003
2.985314e+003,2.116783e-003
2.987243e+003,1.995569e-003
2.989171e+003,1.943745e-003
2.991100e+003,1.774236e-003
2.993028e+003,1.680559e-003
2.994957e+003,1.649127e-003
2.996885e+003,1.544403e-003
2.998814e+003,1.460550e-003
3.000742e+003,1.382297e-003
3.002671e+003,1.314825e-003
3.004599e+003,1.222476e-003
3.006528e+003,1.259095e-003
3.008456e+003,1.203903e-003
3.010385e+003,1.057965e-003
3.012313e+003,1.030132e-003
3.014242e+003,1.122374e-003
3.016170e+003,1.093938e-003
3.018099e+003,1.067033e-003
3.020027e+003,9.231007e-004
3.021956e+003,7.955807e-004
3.023884e+003,7.724446e-004
3.025813e+003,7.249811e-004
3.027741e+003,5.761854e-004
3.029670e+003,6.041554e-004
3.031598e+003,7.451276e-004
3.033527e+003,7.662376e-004
3.035455e+003,7.897717e-004
3.037384e+003,7.874813e-004
3.039312e+003,6.854876e-004
3.041241e+003,5.378664e-004
3.043169e+003,3.240061e-004
3.045098e+003,3.385298e-004
3.047026e+003,4.286346e-004
3.048955e+003,3.780582e-004
3.050883e+003,3.892674e-004
3.052812e+003,4.371254e-004
3.054740e+003,3.409837e-004
3.056669e+003,2.490406e-004
3.058597e+003,2.508640e-004
3.060526e+003,1.931481e-004
3.062454e+003,2.256020e-004
3.064383e+003,2.333595e-004
3.066311e+003,1.676243e-004
3.068240e+003,1.456485e-004
3.070168e+003,5.215611e-005
3.072097e+003,-1.199436e-005
3.074025e+003,9.261951e-005
3.075954e+003,1.651715e-004
3.077882e+003,2.087450e-006
3.079811e+003,-1.535823e-004
3.081739e+003,-1.919362e-004
3.083668e+003,-2.248888e-004
3.085596e+003,-2.360159e-004
3.087525e+003,-1.820334e-004
3.089453e+003,-1.008483e-004
3.091382e+003,-1.512637e-004
3.093310e+003,-8.484798e-005
3.095239e+003,-8.040887e-005
3.097167e+003,-2.015076e-004
3.099096e+003,-2.721440e-004
3.101024e+003,-2.870447e-004
3.102953e+003,-2.753228e-004
3.104881e+003,-3.340614e-004
3.106810e+003,-2.940644e-004
3.108738e+003,-2.210141e-004
3.110667e+003,-2.594614e-004
3.112595e+003,-3.131032e-004
3.114524e+003,-2.585342e-004
3.116452e+003,-3.339952e-004
3.118381e+003,-3.810399e-004
3.120309e+003,-3.809406e-004
3.122238e+003,-3.896140e-004
3.124166e+003,-3.420736e-004
3.126095e+003,-3.825296e-004
3.128023e+003,-4.296022e-004
3.129952e+003,-3.938514e-004
3.131880e+003,-4.535338e-004
3.133809e+003,-4.556521e-004
3.135737e+003,-3.867670e-004
3.137666e+003,-3.984528e-004
3.139594e+003,-4.010349e-004
3.141523e+003,-3.657783e-004
3.143451e+003,-3.876609e-004
3.145380e+003,-4.047093e-004
3.147308e+003,-4.873270e-004
3.149237e+003,-4.374471e-004
3.151165e+003,-3.331675e-004
3.153094e+003,-2.733360e-004
3.155022e+003,-2.375061e-004
3.156951e+003,-2.944286e-004
3.158879e+003,-3.607130e-004
3.160808e+003,-3.443580e-004
3.162736e+003,-2.530372e-004
3.164665e+003,-3.179703e-004
3.166593e+003,-4.801118e-004
3.168522e+003,-5.558984e-004
3.170450e+003,-4.779605e-004
3.172379e+003,-3.943148e-004
3.174307e+003,-3.917989e-004
3.176236e+003,-3.216455e-004
3.178164e+003,-3.451195e-004
3.180093e+003,-4.412868e-004
3.182021e+003,-3.849132e-004
3.183950e+003,-3.009516e-004
3.185878e+003,-2.262797e-004
3.187807e+003,-7.159675e-005
3.189735e+003,-2.408778e-005
3.191664e+003,-2.767798e-004
3.193592e+003,-3.397891e-004
3.195521e+003,-2.549578e-004
3.197449e+003,-2.875414e-004
3.199378e+003,-3.060176e-004
3.201306e+003,-2.302205e-004
3.203235e+003,-1.442748e-004
3.205163e+003,-1.141318e-004
3.207092e+003,-1.078379e-004
3.209020e+003,2.538142e-005
3.210948e+003,1.010600e-005
3.212877e+003,5.831630e-006
3.214806e+003,1.958266e-005
3.216734e+003,-5.420391e-005
3.218663e+003,1.653420e-005
3.220591e+003,1.003415e-004
3.222520e+003,7.840221e-005
3.224448e+003,7.164171e-005
3.226376e+003,4.831211e-005
3.228305e+003,1.891703e-004
3.230234e+003,3.499370e-004
3.232162e+003,3.454603e-004
3.234091e+003,3.921527e-004
3.236019e+003,3.478479e-004
3.237948e+003,1.541669e-004
3.239876e+003,2.557375e-004
3.241804e+003,6.137114e-004
3.243733e+003,7.559148e-004
3.245662e+003,7.099134e-004
3.247590e+003,7.456918e-004
3.249519e+003,7.216622e-004
3.251447e+003,8.135395e-004
3.253375e+003,6.983309e-004
3.255304e+003,6.856535e-004
3.257232e+003,9.467429e-004
3.259161e+003,1.097194e-003
3.261090e+003,1.210880e-003
3.263018e+003,1.150445e-003
3.264947e+003,9.908432e-004
3.266875e+003,9.357849e-004
3.268803e+003,1.075536e-003
3.270732e+003,1.194300e-003
3.272660e+003,1.197357e-003
3.274589e+003,1.208189e-003
3.276518e+003,1.138286e-003
3.278446e+003,1.169415e-003
3.280375e+003,1.201411e-003
3.282303e+003,1.192905e-003
3.284231e+003,1.271888e-003
3.286160e+003,1.231979e-003
3.288088e+003,1.125762e-003
3.290017e+003,1.103871e-003
3.291946e+003,1.272952e-003
3.293874e+003,1.229886e-003
3.295802e+003,1.006020e-003
3.297731e+003,9.432895e-004
3.299659e+003,9.643759e-004
3.301588e+003,7.947840e-004
3.303516e+003,5.780102e-004
3.305445e+003,5.763845e-004
3.307374e+003,6.795473e-004
3.309302e+003,5.587341e-004
3.311230e+003,4.070436e-004
3.313159e+003,3.580615e-004
3.315087e+003,2.830237e-004
3.317016e+003,2.862399e-004
3.318944e+003,1.774027e-004
3.320873e+003,6.295472e-007
3.322802e+003,-2.670521e-005
3.324730e+003,-1.636791e-005
3.326658e+003,-1.120780e-004
3.328587e+003,-2.502555e-004
3.330515e+003,-4.079865e-004
3.332444e+003,-5.046033e-004
3.334372e+003,-4.283444e-004
3.336301e+003,-4.214923e-004
3.338229e+003,-6.031506e-004
3.340158e+003,-7.915793e-004
3.342086e+003,-7.613158e-004
3.344015e+003,-7.564536e-004
3.345943e+003,-8.025927e-004
3.347872e+003,-7.968711e-004
3.349800e+003,-7.931338e-004
3.351729e+003,-8.795465e-004
3.353657e+003,-1.026207e-003
3.355586e+003,-1.094363e-003
3.357514e+003,-9.628673e-004
3.359443e+003,-9.517588e-004
3.361371e+003,-1.004456e-003
3.363300e+003,-1.010241e-003
3.365229e+003,-1.041346e-003
3.367157e+003,-1.249210e-003
3.369085e+003,-1.574786e-003
3.371014e+003,-1.672727e-003
3.372942e+003,-1.684907e-003
3.374871e+003,-1.735535e-003
3.376799e+003,-1.744610e-003
3.378728e+003,-1.763651e-003
3.380656e+003,-1.884446e-003
3.382585e+003,-2.000162e-003
3.384513e+003,-2.041750e-003
3.386442e+003,-2.108922e-003
3.388370e+003,-2.264892e-003
3.390299e+003,-2.345608e-003
3.392227e+003,-2.171568e-003
3.394156e+003,-2.178326e-003
3.396084e+003,-2.300391e-003
3.398013e+003,-2.469898e-003
3.399941e+003,-2.637364e-003
3.401870e+003,-2.583844e-003
3.403798e+003,-2.480705e-003
3.405727e+003,-2.463672e-003
3.407655e+003,-2.496189e-003
3.409584e+003,-2.573864e-003
3.411512e+003,-2.613915e-003
3.413441e+003,-2.753143e-003
3.415369e+003,-2.785144e-003
3.417298e+003,-2.688375e-003
3.419226e+003,-2.586150e-003
3.421155e+003,-2.615693e-003
3.423083e+003,-2.744846e-003
3.425012e+003,-2.640954e-003
3.426940e+003,-2.572316e-003
3.428869e+003,-2.762329e-003
3.430797e+003,-2.823365e-003
3.432726e+003,-2.857929e-003
3.434654e+003,-2.793309e-003
3.436583e+003,-2.860233e-003
3.438511e+003,-2.984278e-003
3.440440e+003,-2.924449e-003
3.442368e+003,-2.963349e-003
3.444297e+003,-2.967331e-003
3.446225e+003,-2.873894e-003
3.448154e+003,-2.820008e-003
3.450082e+003,-2.868101e-003
3.452011e+003,-2.932446e-003
3.453939e+003,-2.893544e-003
3.455868e+003,-2.852663e-003
3.457796e+003,-2.931130e-003
3.459725e+003,-3.064992e-003
3.461653e+003,-2.998494e-003
3.463582e+003,-2.886368e-003
3.465510e+003,-3.158158e-003
3.467439e+003,-3.367214e-003
3.469367e+003,-3.314047e-003
3.471296e+003,-3.154671e-003
3.473224e+003,-3.071835e-003
3.475153e+003,-3.153651e-003
3.477081e+003,-3.120229e-003
3.479010e+003,-3.065486e-003
3.480938e+003,-3.254592e-003
3.482867e+003,-3.408080e-003
3.484795e+003,-3.108057e-003
3.486724e+003,-2.933927e-003
3.488652e+003,-3.229861e-003
3.490581e+003,-3.320656e-003
3.492509e+003,-3.342095e-003
3.494438e+003,-3.380135e-003
3.496366e+003,-3.295008e-003
3.498295e+003,-3.221441e-003
3.500223e+003,-3.189077e-003
3.502152e+003,-3.118091e-003
3.504080e+003,-3.189373e-003
3.506009e+003,-3.412880e-003
3.507937e+003,-3.532658e-003
3.509866e+003,-3.531935e-003
3.511794e+003,-3.382404e-003
3.513723e+003,-3.378721e-003
3.515651e+003,-3.402688e-003
3.517580e+003,-3.286096e-003
3.519508e+003,-3.260347e-003
3.521437e+003,-3.308161e-003
3.523365e+003,-3.368496e-003
3.525294e+003,-3.461203e-003
3.527222e+003,-3.448975e-003
3.529151e+003,-3.446148e-003
3.531079e+003,-3.667584e-003
3.533008e+003,-3.538048e-003
3.534936e+003,-3.322662e-003
3.536865e+003,-3.412551e-003
3.538793e+003,-3.583268e-003
3.540722e+003,-3.684832e-003
3.542650e+003,-3.767814e-003
3.544579e+003,-3.620565e-003
3.546507e+003,-3.362480e-003
3.548436e+003,-3.351696e-003
3.550364e+003,-3.329764e-003
3.552293e+003,-3.246107e-003
3.554221e+003,-3.422019e-003
3.556150e+003,-3.633807e-003
3.558078e+003,-3.666072e-003
3.560007e+003,-3.649874e-003
3.561935e+003,-3.698434e-003
3.563864e+003,-3.544556e-003
3.565792e+003,-3.391083e-003
3.567721e+003,-3.561053e-003
3.569649e+003,-3.668405e-003
3.571578e+003,-3.546922e-003
3.573506e+003,-3.417613e-003
3.575435e+003,-3.487499e-003
3.577363e+003,-3.556978e-003
3.579292e+003,-3.515995e-003
3.581220e+003,-3.499463e-003
3.583149e+003,-3.583696e-003
3.585077e+003,-3.648494e-003
3.587006e+003,-3.667715e-003
3.588934e+003,-3.662951e-003
3.590863e+003,-3.757664e-003
3.592791e+003,-3.753131e-003
3.594720e+003,-3.688611e-003
3.596648e+003,-3.718769e-003
3.598577e+003,-3.865591e-003
3.600505e+003,-3.847725e-003
3.602434e+003,-3.730858e-003
3.604362e+003,-3.786110e-003
3.606291e+003,-3.732107e-003
3.608219e+003,-3.640411e-003
3.610148e+003,-3.740320e-003
3.612076e+003,-3.836329e-003
3.614005e+003,-3.818627e-003
3.615933e+003,-3.733421e-003
3.617862e+003,-3.555204e-003
3.619790e+003,-3.691140e-003
3.621719e+003,-3.857184e-003
3.623647e+003,-3.854097e-003
3.625576e+003,-3.779573e-003
3.627504e+003,-3.463405e-003
3.629433e+003,-3.208384e-003
3.631361e+003,-3.646523e-003
3.633290e+003,-3.850747e-003
3.635218e+003,-4.039249e-003
3.637146e+003,-4.065510e-003
3.639075e+003,-3.868448e-003
3.641004e+003,-3.959077e-003
3.642932e+003,-4.161809e-003
3.644861e+003,-4.179826e-003
3.646789e+003,-4.013906e-003
3.648718e+003,-3.822469e-003
3.650646e+003,-3.930019e-003
3.652574e+003,-4.215660e-003
3.654503e+003,-4.149371e-003
3.656432e+003,-3.920890e-003
3.658360e+003,-4.062129e-003
3.660289e+003,-4.273146e-003
3.662217e+003,-4.403545e-003
3.664146e+003,-4.553611e-003
3.666074e+003,-4.652326e-003
3.668002e+003,-4.615413e-003
3.669931e+003,-4.319536e-003
3.671860e+003,-4.230131e-003
3.673788e+003,-4.372384e-003
3.675717e+003,-4.337055e-003
3.677645e+003,-4.374582e-003
3.679573e+003,-4.429456e-003
3.681502e+003,-4.394099e-003
3.683430e+003,-4.350898e-003
3.685359e+003,-4.361395e-003
3.687288e+003,-4.178677e-003
3.689216e+003,-4.012067e-003
3.691145e+003,-4.275115e-003
3.693073e+003,-4.461892e-003
3.695001e+003,-4.443034e-003
3.696930e+003,-4.429882e-003
3.698858e+003,-4.313795e-003
3.700787e+003,-4.021719e-003
3.702716e+003,-4.007077e-003
3.704644e+003,-4.112743e-003
3.706573e+003,-3.962985e-003
3.708501e+003,-3.983800e-003
3.710429e+003,-4.011411e-003
3.712358e+003,-4.059044e-003
3.714286e+003,-4.429555e-003
3.716215e+003,-4.523084e-003
3.718144e+003,-4.294669e-003
3.720072e+003,-4.263074e-003
3.722000e+003,-4.264353e-003
3.723929e+003,-4.136013e-003
3.725857e+003,-4.125609e-003
3.727786e+003,-4.404463e-003
3.729714e+003,-4.530199e-003
3.731643e+003,-4.428898e-003
3.733572e+003,-4.305791e-003
3.735500e+003,-4.036984e-003
3.737428e+003,-3.968304e-003
3.739357e+003,-4.109264e-003
3.741285e+003,-4.136079e-003
3.743214e+003,-3.831008e-003
3.745142e+003,-3.580541e-003
3.747071e+003,-4.024411e-003
3.749000e+003,-4.175888e-003
3.750928e+003,-3.971784e-003
3.752856e+003,-3.876789e-003
3.754785e+003,-4.033767e-003
3.756713e+003,-4.195906e-003
3.758642e+003,-4.237382e-003
3.760570e+003,-3.997327e-003
3.762499e+003,-4.029663e-003
3.764427e+003,-4.262516e-003
3.766356e+003,-4.188424e-003
3.768284e+003,-4.313533e-003
3.770213e+003,-4.355655e-003
3.772141e+003,-4.344797e-003
3.774070e+003,-4.277838e-003
3.775998e+003,-4.099614e-003
3.777927e+003,-4.117502e-003
3.779855e+003,-4.053923e-003
3.781784e+003,-4.210639e-003
3.783712e+003,-4.318651e-003
3.785641e+003,-4.174345e-003
3.787569e+003,-4.195249e-003
3.789498e+003,-4.516362e-003
3.791426e+003,-4.620461e-003
3.793355e+003,-4.556168e-003
3.795283e+003,-4.416140e-003
3.797212e+003,-4.166239e-003
3.799140e+003,-4.191049e-003
3.801069e+003,-4.220779e-003
3.802997e+003,-4.416435e-003
3.804926e+003,-4.517706e-003
3.806854e+003,-4.308087e-003
3.808783e+003,-4.406595e-003
3.810711e+003,-4.594136e-003
3.812640e+003,-4.614363e-003
3.814568e+003,-4.505147e-003
3.816497e+003,-4.240565e-003
3.818425e+003,-4.319274e-003
3.820354e+003,-4.238235e-003
3.822282e+003,-4.276296e-003
3.824211e+003,-4.553807e-003
3.826139e+003,-4.578267e-003
3.828068e+003,-4.434179e-003
3.829996e+003,-4.370514e-003
3.831925e+003,-4.334693e-003
3.833853e+003,-4.390982e-003
3.835782e+003,-4.484717e-003
3.837710e+003,-4.331117e-003
3.839639e+003,-4.400560e-003
3.841567e+003,-4.489767e-003
3.843496e+003,-4.315206e-003
3.845424e+003,-4.406399e-003
3.847353e+003,-4.634919e-003
3.849281e+003,-4.735811e-003
3.851210e+003,-4.359558e-003
3.853138e+003,-3.784040e-003
3.855067e+003,-3.896328e-003
3.856995e+003,-4.342140e-003
3.858924e+003,-4.496227e-003
3.860852e+003,-4.375434e-003
3.862781e+003,-4.201057e-003
3.864709e+003,-4.089144e-003
3.866638e+003,-4.567546e-003
3.868566e+003,-4.836942e-003
3.870495e+003,-4.584103e-003
3.872423e+003,-4.433884e-003
3.874352e+003,-4.429555e-003
3.876280e+003,-4.606266e-003
3.878209e+003,-4.703232e-003
3.880137e+003,-4.605086e-003
3.882066e+003,-4.724700e-003
3.883994e+003,-4.877276e-003
3.885923e+003,-4.664979e-003
3.887851e+003,-4.644393e-003
3.889780e+003,-4.620429e-003
3.891708e+003,-4.581677e-003
3.893637e+003,-4.709885e-003
3.895565e+003,-4.833698e-003
3.897494e+003,-4.889464e-003
3.899422e+003,-4.757933e-003
3.901351e+003,-4.710574e-003
3.903279e+003,-4.700576e-003
3.905208e+003,-4.685007e-003
3.907136e+003,-4.848574e-003
3.909065e+003,-4.842021e-003
3.910993e+003,-4.730534e-003
3.912922e+003,-4.765504e-003
3.914850e+003,-4.767863e-003
3.916779e+003,-4.806172e-003
3.918707e+003,-4.950792e-003
3.920636e+003,-5.014012e-003
3.922564e+003,-4.856307e-003
3.924493e+003,-4.663438e-003
3.926421e+003,-4.581579e-003
3.928350e+003,-4.873377e-003
3.930278e+003,-5.294554e-003
3.932207e+003,-5.196411e-003
3.934135e+003,-4.998191e-003
3.936064e+003,-4.998912e-003
3.937992e+003,-4.976933e-003
3.939921e+003,-4.860992e-003
3.941849e+003,-4.893658e-003
3.943778e+003,-4.954920e-003
3.945706e+003,-4.790508e-003
3.947635e+003,-4.796243e-003
3.949563e+003,-4.801912e-003
3.951492e+003,-4.820197e-003
3.953420e+003,-4.921341e-003
3.955349e+003,-5.172609e-003
3.957277e+003,-5.240968e-003
3.959206e+003,-5.180598e-003
3.961134e+003,-5.163343e-003
3.963063e+003,-5.182857e-003
3.964991e+003,-5.005037e-003
3.966920e+003,-4.813840e-003
3.968848e+003,-4.688023e-003
3.970777e+003,-4.771337e-003
3.972705e+003,-4.862892e-003
3.974634e+003,-4.983812e-003
3.976562e+003,-5.055410e-003
3.978491e+003,-4.894379e-003
3.980419e+003,-4.807090e-003
3.982348e+003,-4.717587e-003
3.984276e+003,-4.747904e-003
3.986205e+003,-4.894772e-003
3.988133e+003,-4.859321e-003
3.990062e+003,-4.810432e-003
3.991990e+003,-4.938082e-003
3.993919e+003,-5.036480e-003
3.995847e+003,-5.113441e-003
3.997776e+003,-5.074012e-003
3.999704e+003,-5.000386e-003
4.001633e+003,0.000000e+000
