3.991989e+002,4.601395e-002
4.011274e+002,3.993735e-002
4.030559e+002,3.634372e-002
4.049844e+002,3.214820e-002
4.069129e+002,3.267572e-002
4.088414e+002,3.942978e-002
4.107699e+002,2.720721e-002
4.126984e+002,2.273884e-002
4.146269e+002,2.517881e-002
4.165554e+002,2.862696e-002
4.184839e+002,3.290202e-002
4.204124e+002,3.087935e-002
4.223409e+002,2.853548e-002
4.242694e+002,2.870072e-002
4.261979e+002,2.662544e-002
4.281264e+002,2.088358e-002
4.300549e+002,1.533770e-002
4.319834e+002,2.440809e-002
4.339119e+002,2.469226e-002
4.358404e+002,2.620504e-002
4.377689e+002,2.803247e-002
4.396974e+002,2.370200e-002
4.416259e+002,2.228508e-002
4.435544e+002,2.369640e-002
4.454829e+002,2.512081e-002
4.474114e+002,2.902746e-002
4.493399e+002,2.614937e-002
4.512684e+002,2.065481e-002
4.531969e+002,2.182966e-002
4.551254e+002,2.604314e-002
4.570539e+002,2.630353e-002
4.589824e+002,2.283089e-002
4.609109e+002,2.174469e-002
4.628394e+002,2.297291e-002
4.647679e+002,2.309519e-002
4.666964e+002,2.230786e-002
4.686249e+002,1.978764e-002
4.705533e+002,2.080557e-002
4.724819e+002,2.320881e-002
4.744103e+002,2.316327e-002
4.763389e+002,2.282191e-002
4.782673e+002,2.191291e-002
4.801959e+002,2.126253e-002
4.821243e+002,2.260392e-002
4.840529e+002,2.332525e-002
4.859813e+002,2.377510e-002
4.879099e+002,2.331207e-002
4.898383e+002,2.297203e-002
4.917668e+002,2.159009e-002
4.936953e+002,2.261174e-002
4.956238e+002,2.298472e-002
4.975523e+002,2.230984e-002
4.994808e+002,2.183695e-002
5.014093e+002,2.337144e-002
5.033378e+002,2.372478e-002
5.052663e+002,2.335218e-002
5.071948e+002,2.144194e-002
5.091233e+002,2.024116e-002
5.110518e+002,1.972668e-002
5.129803e+002,2.026564e-002
5.149088e+002,2.050910e-002
5.168373e+002,2.090333e-002
5.187658e+002,2.087131e-002
5.206943e+002,2.043425e-002
5.226228e+002,1.944726e-002
5.245513e+002,1.921804e-002
5.264798e+002,1.916726e-002
5.284083e+002,2.046048e-002
5.303368e+002,2.079535e-002
5.322653e+002,2.044370e-002
5.341938e+002,1.982995e-002
5.361223e+002,1.906350e-002
5.380508e+002,1.925838e-002
5.399792e+002,2.026133e-002
5.419078e+002,2.049024e-002
5.438363e+002,2.037775e-002
5.457648e+002,2.024796e-002
5.476932e+002,1.998959e-002
5.496218e+002,2.047822e-002
5.515503e+002,2.116598e-002
5.534788e+002,2.084482e-002
5.554072e+002,2.185691e-002
5.573358e+002,2.286833e-002
5.592643e+002,2.390140e-002
5.611927e+002,2.260486e-002
5.631212e+002,2.221432e-002
5.650497e+002,2.284612e-002
5.669783e+002,2.321563e-002
5.689067e+002,2.316509e-002
5.708352e+002,2.278996e-002
5.727637e+002,2.112340e-002
5.746923e+002,1.989224e-002
5.766207e+002,2.128222e-002
5.785492e+002,2.069057e-002
5.804777e+002,8.983023e-003
5.824063e+002,8.984342e-003
5.843347e+002,2.020346e-002
5.862632e+002,2.329711e-002
5.881917e+002,2.297972e-002
5.901202e+002,2.233402e-002
5.920487e+002,2.160025e-002
5.939772e+002,2.260744e-002
5.959057e+002,2.387496e-002
5.978342e+002,2.500722e-002
5.997627e+002,2.774293e-002
6.016912e+002,2.895715e-002
6.036197e+002,2.940947e-002
6.055482e+002,3.065930e-002
6.074767e+002,3.158582e-002
6.094052e+002,3.291671e-002
6.113337e+002,3.431730e-002
6.132622e+002,3.397237e-002
6.151907e+002,3.288994e-002
6.171192e+002,3.224005e-002
6.190477e+002,3.179957e-002
6.209762e+002,3.109788e-002
6.229047e+002,2.992217e-002
6.248332e+002,2.672504e-002
6.267617e+002,2.221484e-002
6.286902e+002,1.875081e-002
6.306187e+002,1.754829e-002
6.325472e+002,1.722201e-002
6.344756e+002,1.732044e-002
6.364042e+002,1.702155e-002
6.383326e+002,1.657651e-002
6.402612e+002,1.653816e-002
6.421896e+002,1.724507e-002
6.441182e+002,1.664364e-002
6.460466e+002,1.596455e-002
6.479752e+002,1.582353e-002
6.499036e+002,1.572341e-002
6.518322e+002,1.533265e-002
6.537606e+002,1.519644e-002
6.556891e+002,1.520745e-002
6.576177e+002,1.502446e-002
6.595461e+002,1.479628e-002
6.614746e+002,1.400118e-002
6.634031e+002,1.368777e-002
6.653317e+002,1.533657e-002
6.672601e+002,1.992069e-002
6.691886e+002,1.906973e-002
6.711171e+002,1.546520e-002
6.730457e+002,1.467463e-002
6.749741e+002,1.493683e-002
6.769026e+002,1.503543e-002
6.788311e+002,1.486756e-002
6.807596e+002,1.496512e-002
6.826881e+002,1.533355e-002
6.846166e+002,1.549758e-002
6.865451e+002,1.521967e-002
6.884736e+002,1.523772e-002
6.904021e+002,1.548158e-002
6.923306e+002,1.575911e-002
6.942591e+002,1.603306e-002
6.961876e+002,1.625432e-002
6.981161e+002,1.620651e-002
7.000446e+002,1.597180e-002
7.019731e+002,1.574928e-002
7.039016e+002,1.599136e-002
7.058301e+002,1.624012e-002
7.077585e+002,1.641206e-002
7.096871e+002,1.694444e-002
7.116156e+002,1.736058e-002
7.135441e+002,1.709347e-002
7.154725e+002,1.729358e-002
7.174011e+002,1.746571e-002
7.193296e+002,1.773381e-002
7.212581e+002,1.850127e-002
7.231865e+002,1.910805e-002
7.251151e+002,1.914635e-002
7.270436e+002,1.920990e-002
7.289720e+002,1.935611e-002
7.309005e+002,1.982794e-002
7.328290e+002,2.020558e-002
7.347576e+002,1.999129e-002
7.366860e+002,1.998331e-002
7.386145e+002,2.020732e-002
7.405430e+002,2.029917e-002
7.424716e+002,2.007963e-002
7.444000e+002,1.979555e-002
7.463285e+002,2.030469e-002
7.482570e+002,2.044700e-002
7.501855e+002,2.021152e-002
7.521140e+002,2.067924e-002
7.540425e+002,2.105494e-002
7.559710e+002,2.081333e-002
7.578995e+002,2.093341e-002
7.598280e+002,2.095288e-002
7.617565e+002,2.117193e-002
7.636850e+002,2.134775e-002
7.656135e+002,2.183973e-002
7.675420e+002,2.204183e-002
7.694705e+002,2.132847e-002
7.713990e+002,2.064863e-002
7.733275e+002,2.061791e-002
7.752560e+002,2.070416e-002
7.771844e+002,2.089342e-002
7.791130e+002,2.064404e-002
7.810415e+002,2.046982e-002
7.829700e+002,2.017778e-002
7.848984e+002,1.986550e-002
7.868270e+002,1.982915e-002
7.887555e+002,1.957660e-002
7.906840e+002,1.905429e-002
7.926124e+002,1.866350e-002
7.945410e+002,1.832403e-002
7.964695e+002,1.791021e-002
7.983979e+002,1.762620e-002
8.003264e+002,1.735010e-002
8.022549e+002,1.743435e-002
8.041835e+002,1.772790e-002
8.061119e+002,1.768480e-002
8.080404e+002,1.763321e-002
8.099689e+002,1.823937e-002
8.118975e+002,1.890012e-002
8.138259e+002,1.920792e-002
8.157545e+002,1.925929e-002
8.176830e+002,1.967731e-002
8.196115e+002,1.935908e-002
8.215399e+002,1.904560e-002
8.234684e+002,1.899994e-002
8.253970e+002,1.871538e-002
8.273254e+002,1.889309e-002
8.292539e+002,1.881392e-002
8.311824e+002,1.851621e-002
8.331110e+002,1.854639e-002
8.350394e+002,1.862282e-002
8.369679e+002,1.884039e-002
8.388964e+002,1.883222e-002
8.408250e+002,1.860186e-002
8.427534e+002,1.860954e-002
8.446819e+002,1.836551e-002
8.466104e+002,1.831273e-002
8.485389e+002,1.864637e-002
8.504674e+002,1.868010e-002
8.523959e+002,1.833869e-002
8.543244e+002,1.828688e-002
8.562529e+002,1.825568e-002
8.581814e+002,1.839009e-002
8.601099e+002,1.861756e-002
8.620384e+002,1.840021e-002
8.639669e+002,1.835009e-002
8.658954e+002,1.859342e-002
8.678239e+002,1.836506e-002
8.697524e+002,1.853948e-002
8.716809e+002,1.878537e-002
8.736094e+002,1.866799e-002
8.755378e+002,1.857679e-002
8.774664e+002,1.876184e-002
8.793949e+002,1.865343e-002
8.813234e+002,1.843444e-002
8.832518e+002,1.855784e-002
8.851804e+002,1.863980e-002
8.871089e+002,1.870587e-002
8.890374e+002,1.865609e-002
8.909658e+002,1.887367e-002
8.928943e+002,1.919109e-002
8.948229e+002,1.899796e-002
8.967513e+002,1.898450e-002
8.986798e+002,1.910341e-002
9.006083e+002,1.904293e-002
9.025369e+002,1.898851e-002
9.044653e+002,1.902500e-002
9.063938e+002,1.878738e-002
9.083223e+002,1.832075e-002
9.102509e+002,1.801975e-002
9.121793e+002,1.816960e-002
9.141078e+002,1.787614e-002
9.160364e+002,1.748723e-002
9.179648e+002,1.748168e-002
9.198933e+002,1.745112e-002
9.218218e+002,1.741938e-002
9.237504e+002,1.723742e-002
9.256788e+002,1.688419e-002
9.276073e+002,1.651844e-002
9.295358e+002,1.592987e-002
9.314644e+002,1.571472e-002
9.333928e+002,1.592110e-002
9.353213e+002,1.593303e-002
9.372498e+002,1.588340e-002
9.391783e+002,1.584683e-002
9.411068e+002,1.581608e-002
9.430353e+002,1.578787e-002
9.449637e+002,1.586158e-002
9.468923e+002,1.593595e-002
9.488208e+002,1.585395e-002
9.507493e+002,1.577684e-002
9.526777e+002,1.582010e-002
9.546063e+002,1.614399e-002
9.565348e+002,1.631191e-002
9.584633e+002,1.597249e-002
9.603917e+002,1.579817e-002
9.623203e+002,1.585450e-002
9.642488e+002,1.605631e-002
9.661772e+002,1.622725e-002
9.681057e+002,1.609544e-002
9.700343e+002,1.575904e-002
9.719628e+002,1.569538e-002
9.738912e+002,1.567484e-002
9.758197e+002,1.561380e-002
9.777483e+002,1.527032e-002
9.796768e+002,1.501547e-002
9.816052e+002,1.483214e-002
9.835337e+002,1.470575e-002
9.854623e+002,1.462443e-002
9.873907e+002,1.428160e-002
9.893192e+002,1.392919e-002
9.912477e+002,1.360014e-002
9.931763e+002,1.371192e-002
9.951047e+002,1.367977e-002
9.970332e+002,1.326707e-002
9.989617e+002,1.313089e-002
1.000890e+003,1.318017e-002
1.002819e+003,1.333246e-002
1.004747e+003,1.336745e-002
1.006676e+003,1.333041e-002
1.008604e+003,1.331890e-002
1.010533e+003,1.323076e-002
1.012461e+003,1.325307e-002
1.014390e+003,1.334739e-002
1.016318e+003,1.365522e-002
1.018247e+003,1.392998e-002
1.020175e+003,1.416625e-002
1.022104e+003,1.424657e-002
1.024032e+003,1.432276e-002
1.025961e+003,1.474140e-002
1.027889e+003,1.499448e-002
1.029818e+003,1.512065e-002
1.031746e+003,1.530801e-002
1.033675e+003,1.553261e-002
1.035603e+003,1.572255e-002
1.037532e+003,1.605015e-002
1.039460e+003,1.639999e-002
1.041389e+003,1.652894e-002
1.043317e+003,1.665490e-002
1.045246e+003,1.677889e-002
1.047174e+003,1.670930e-002
1.049103e+003,1.664250e-002
1.051031e+003,1.673592e-002
1.052960e+003,1.669921e-002
1.054888e+003,1.655155e-002
1.056817e+003,1.642297e-002
1.058745e+003,1.646052e-002
1.060674e+003,1.660670e-002
1.062602e+003,1.643305e-002
1.064531e+003,1.643302e-002
1.066459e+003,1.664143e-002
1.068388e+003,1.664006e-002
1.070316e+003,1.657788e-002
1.072245e+003,1.645250e-002
1.074173e+003,1.636874e-002
1.076102e+003,1.631504e-002
1.078030e+003,1.629285e-002
1.079959e+003,1.634260e-002
1.081887e+003,1.636389e-002
1.083816e+003,1.651479e-002
1.085744e+003,1.674373e-002
1.087673e+003,1.682704e-002
1.089601e+003,1.681606e-002
1.091530e+003,1.708341e-002
1.093458e+003,1.735110e-002
1.095387e+003,1.748206e-002
1.097315e+003,1.772093e-002
1.099244e+003,1.785670e-002
1.101172e+003,1.775279e-002
1.103101e+003,1.769795e-002
1.105029e+003,1.799285e-002
1.106958e+003,1.830195e-002
1.108886e+003,1.842784e-002
1.110815e+003,1.843551e-002
1.112743e+003,1.830997e-002
1.114672e+003,1.827645e-002
1.116600e+003,1.847938e-002
1.118529e+003,1.856974e-002
1.120457e+003,1.833364e-002
1.122386e+003,1.826501e-002
1.124314e+003,1.836402e-002
1.126243e+003,1.818494e-002
1.128171e+003,1.798411e-002
1.130100e+003,1.811284e-002
1.132028e+003,1.819680e-002
1.133957e+003,1.802379e-002
1.135885e+003,1.784019e-002
1.137814e+003,1.739066e-002
1.139742e+003,1.671846e-002
1.141671e+003,1.643588e-002
1.143599e+003,1.619664e-002
1.145528e+003,1.581951e-002
1.147456e+003,1.539784e-002
1.149385e+003,1.515856e-002
1.151313e+003,1.490113e-002
1.153242e+003,1.466716e-002
1.155170e+003,1.467316e-002
1.157099e+003,1.460537e-002
1.159027e+003,1.441040e-002
1.160956e+003,1.426554e-002
1.162884e+003,1.431427e-002
1.164813e+003,1.421672e-002
1.166741e+003,1.402010e-002
1.168670e+003,1.394277e-002
1.170598e+003,1.397654e-002
1.172526e+003,1.405570e-002
1.174455e+003,1.398907e-002
1.176384e+003,1.416352e-002
1.178312e+003,1.420799e-002
1.180240e+003,1.391260e-002
1.182169e+003,1.392543e-002
1.184098e+003,1.391027e-002
1.186026e+003,1.362065e-002
1.187954e+003,1.346809e-002
1.189883e+003,1.334521e-002
1.191812e+003,1.317891e-002
1.193740e+003,1.306894e-002
1.195668e+003,1.287780e-002
1.197597e+003,1.268637e-002
1.199526e+003,1.261650e-002
1.201454e+003,1.258584e-002
1.203382e+003,1.261701e-002
1.205311e+003,1.253410e-002
1.207240e+003,1.242754e-002
1.209168e+003,1.250460e-002
1.211096e+003,1.253638e-002
1.213025e+003,1.257922e-002
1.214953e+003,1.254573e-002
1.216882e+003,1.249382e-002
1.218810e+003,1.246307e-002
1.220739e+003,1.230246e-002
1.222667e+003,1.234401e-002
1.224596e+003,1.265007e-002
1.226524e+003,1.268244e-002
1.228453e+003,1.269172e-002
1.230381e+003,1.272376e-002
1.232310e+003,1.294559e-002
1.234238e+003,1.310719e-002
1.236167e+003,1.309428e-002
1.238095e+003,1.311829e-002
1.240024e+003,1.329013e-002
1.241952e+003,1.339397e-002
1.243881e+003,1.325368e-002
1.245809e+003,1.320746e-002
1.247738e+003,1.321850e-002
1.249666e+003,1.352473e-002
1.251595e+003,1.369810e-002
1.253523e+003,1.366329e-002
1.255452e+003,1.353115e-002
1.257380e+003,1.332327e-002
1.259309e+003,1.334104e-002
1.261237e+003,1.348060e-002
1.263166e+003,1.367379e-002
1.265094e+003,1.408113e-002
1.267023e+003,1.442270e-002
1.268951e+003,1.455888e-002
1.270880e+003,1.478435e-002
1.272808e+003,1.491495e-002
1.274737e+003,1.459283e-002
1.276665e+003,1.456710e-002
1.278594e+003,1.482638e-002
1.280522e+003,1.487147e-002
1.282451e+003,1.476903e-002
1.284379e+003,1.507999e-002
1.286308e+003,1.559659e-002
1.288236e+003,1.591825e-002
1.290165e+003,1.609605e-002
1.292093e+003,1.616524e-002
1.294022e+003,1.595744e-002
1.295950e+003,1.634077e-002
1.297879e+003,1.685332e-002
1.299807e+003,1.661937e-002
1.301736e+003,1.612735e-002
1.303664e+003,1.582752e-002
1.305593e+003,1.576697e-002
1.307521e+003,1.583962e-002
1.309450e+003,1.573382e-002
1.311378e+003,1.536979e-002
1.313307e+003,1.507588e-002
1.315235e+003,1.494420e-002
1.317164e+003,1.490909e-002
1.319092e+003,1.466531e-002
1.321021e+003,1.438584e-002
1.322949e+003,1.426157e-002
1.324878e+003,1.426311e-002
1.326806e+003,1.416632e-002
1.328735e+003,1.417084e-002
1.330663e+003,1.418748e-002
1.332592e+003,1.414849e-002
1.334520e+003,1.408623e-002
1.336449e+003,1.409605e-002
1.338377e+003,1.412090e-002
1.340306e+003,1.402329e-002
1.342234e+003,1.394749e-002
1.344163e+003,1.393415e-002
1.346091e+003,1.389429e-002
1.348020e+003,1.393921e-002
1.349948e+003,1.388547e-002
1.351877e+003,1.380484e-002
1.353805e+003,1.387948e-002
1.355734e+003,1.384948e-002
1.357662e+003,1.381907e-002
1.359591e+003,1.382779e-002
1.361519e+003,1.380566e-002
1.363448e+003,1.376386e-002
1.365376e+003,1.344940e-002
1.367305e+003,1.319605e-002
1.369233e+003,1.308810e-002
1.371162e+003,1.309377e-002
1.373090e+003,1.336260e-002
1.375019e+003,1.327319e-002
1.376947e+003,1.300615e-002
1.378876e+003,1.302585e-002
1.380804e+003,1.309305e-002
1.382733e+003,1.315708e-002
1.384661e+003,1.313775e-002
1.386590e+003,1.305457e-002
1.388518e+003,1.279723e-002
1.390447e+003,1.248468e-002
1.392375e+003,1.248547e-002
1.394304e+003,1.258195e-002
1.396232e+003,1.232690e-002
1.398161e+003,1.224796e-002
1.400089e+003,1.223736e-002
1.402018e+003,1.215390e-002
1.403946e+003,1.207073e-002
1.405875e+003,1.203306e-002
1.407803e+003,1.183072e-002
1.409732e+003,1.173335e-002
1.411660e+003,1.183100e-002
1.413589e+003,1.193867e-002
1.415517e+003,1.213543e-002
1.417446e+003,1.255855e-002
1.419374e+003,1.286889e-002
1.421303e+003,1.299349e-002
1.423231e+003,1.338560e-002
1.425160e+003,1.388167e-002
1.427088e+003,1.424476e-002
1.429017e+003,1.458457e-002
1.430945e+003,1.486921e-002
1.432874e+003,1.529521e-002
1.434802e+003,1.591694e-002
1.436731e+003,1.637126e-002
1.438659e+003,1.650505e-002
1.440588e+003,1.679281e-002
1.442516e+003,1.717240e-002
1.444445e+003,1.748437e-002
1.446373e+003,1.792862e-002
1.448302e+003,1.828871e-002
1.450230e+003,1.845442e-002
1.452159e+003,1.865129e-002
1.454087e+003,1.908409e-002
1.456016e+003,1.970934e-002
1.457944e+003,1.981358e-002
1.459873e+003,1.945236e-002
1.461801e+003,1.921849e-002
1.463730e+003,1.916107e-002
1.465658e+003,1.892271e-002
1.467587e+003,1.850411e-002
1.469515e+003,1.823439e-002
1.471444e+003,1.807719e-002
1.473372e+003,1.765481e-002
1.475301e+003,1.714662e-002
1.477229e+003,1.664081e-002
1.479158e+003,1.604266e-002
1.481086e+003,1.564787e-002
1.483015e+003,1.511646e-002
1.484943e+003,1.462371e-002
1.486872e+003,1.439067e-002
1.488800e+003,1.420764e-002
1.490729e+003,1.398455e-002
1.492657e+003,1.359600e-002
1.494586e+003,1.336065e-002
1.496514e+003,1.318058e-002
1.498443e+003,1.287432e-002
1.500371e+003,1.256554e-002
1.502300e+003,1.241877e-002
1.504228e+003,1.252261e-002
1.506157e+003,1.282842e-002
1.508085e+003,1.256889e-002
1.510014e+003,1.219612e-002
1.511942e+003,1.203421e-002
1.513871e+003,1.196333e-002
1.515799e+003,1.201190e-002
1.517728e+003,1.201524e-002
1.519656e+003,1.209349e-002
1.521585e+003,1.221415e-002
1.523513e+003,1.212644e-002
1.525442e+003,1.217104e-002
1.527370e+003,1.211223e-002
1.529299e+003,1.212586e-002
1.531227e+003,1.216266e-002
1.533156e+003,1.240323e-002
1.535084e+003,1.239521e-002
1.537013e+003,1.251493e-002
1.538941e+003,1.306130e-002
1.540870e+003,1.323687e-002
1.542798e+003,1.312334e-002
1.544727e+003,1.294764e-002
1.546655e+003,1.274932e-002
1.548584e+003,1.279456e-002
1.550512e+003,1.275897e-002
1.552441e+003,1.284736e-002
1.554369e+003,1.300817e-002
1.556298e+003,1.322973e-002
1.558226e+003,1.367639e-002
1.560155e+003,1.357409e-002
1.562083e+003,1.342380e-002
1.564012e+003,1.368918e-002
1.565940e+003,1.380840e-002
1.567869e+003,1.399441e-002
1.569797e+003,1.432286e-002
1.571726e+003,1.433300e-002
1.573654e+003,1.443061e-002
1.575583e+003,1.476786e-002
1.577511e+003,1.469263e-002
1.579440e+003,1.452287e-002
1.581368e+003,1.459276e-002
1.583297e+003,1.453222e-002
1.585225e+003,1.451574e-002
1.587154e+003,1.443150e-002
1.589082e+003,1.427520e-002
1.591010e+003,1.412429e-002
1.592939e+003,1.399708e-002
1.594868e+003,1.393980e-002
1.596796e+003,1.382150e-002
1.598724e+003,1.368463e-002
1.600653e+003,1.356318e-002
1.602582e+003,1.347011e-002
1.604510e+003,1.326854e-002
1.606438e+003,1.298714e-002
1.608367e+003,1.285988e-002
1.610296e+003,1.263816e-002
1.612224e+003,1.231957e-002
1.614152e+003,1.228991e-002
1.616081e+003,1.243869e-002
1.618010e+003,1.229925e-002
1.619938e+003,1.203922e-002
1.621866e+003,1.209458e-002
1.623795e+003,1.189852e-002
1.625724e+003,1.166150e-002
1.627652e+003,1.154157e-002
1.629580e+003,1.143015e-002
1.631509e+003,1.128363e-002
1.633438e+003,1.139042e-002
1.635366e+003,1.147009e-002
1.637294e+003,1.102186e-002
1.639223e+003,1.066699e-002
1.641151e+003,1.047503e-002
1.643080e+003,1.017013e-002
1.645008e+003,1.013780e-002
1.646937e+003,1.023767e-002
1.648865e+003,9.950117e-003
1.650794e+003,9.926285e-003
1.652722e+003,1.023251e-002
1.654651e+003,9.650324e-003
1.656579e+003,9.199161e-003
1.658508e+003,9.117708e-003
1.660436e+003,9.095375e-003
1.662365e+003,9.156757e-003
1.664293e+003,9.112395e-003
1.666222e+003,9.045742e-003
1.668150e+003,9.239268e-003
1.670079e+003,9.381378e-003
1.672007e+003,9.263671e-003
1.673936e+003,9.260219e-003
1.675864e+003,9.197266e-003
1.677793e+003,8.988943e-003
1.679721e+003,8.876110e-003
1.681650e+003,8.857917e-003
1.683578e+003,9.163423e-003
1.685507e+003,9.159905e-003
1.687435e+003,8.915138e-003
1.689364e+003,8.789680e-003
1.691292e+003,8.769022e-003
1.693221e+003,8.893494e-003
1.695149e+003,9.137198e-003
1.697078e+003,9.180987e-003
1.699006e+003,9.276330e-003
1.700935e+003,9.377045e-003
1.702863e+003,9.229147e-003
1.704792e+003,9.279648e-003
1.706720e+003,9.249523e-003
1.708649e+003,9.144812e-003
1.710577e+003,9.101906e-003
1.712506e+003,9.223799e-003
1.714434e+003,9.355072e-003
1.716363e+003,9.486213e-003
1.718291e+003,9.547074e-003
1.720220e+003,9.399357e-003
1.722148e+003,9.334318e-003
1.724077e+003,9.324704e-003
1.726005e+003,9.427426e-003
1.727934e+003,9.503825e-003
1.729862e+003,9.515272e-003
1.731791e+003,9.701924e-003
1.733719e+003,9.831273e-003
1.735648e+003,9.616074e-003
1.737576e+003,9.581557e-003
1.739505e+003,9.723779e-003
1.741433e+003,9.639551e-003
1.743362e+003,9.614448e-003
1.745290e+003,9.622951e-003
1.747219e+003,9.677190e-003
1.749147e+003,9.773694e-003
1.751076e+003,9.913437e-003
1.753004e+003,9.850931e-003
1.754933e+003,9.799415e-003
1.756861e+003,9.881878e-003
1.758790e+003,9.810125e-003
1.760718e+003,9.749668e-003
1.762647e+003,9.744280e-003
1.764575e+003,9.734385e-003
1.766504e+003,9.800906e-003
1.768432e+003,9.793247e-003
1.770361e+003,9.893538e-003
1.772289e+003,1.006197e-002
1.774218e+003,9.911505e-003
1.776146e+003,9.761867e-003
1.778075e+003,9.759833e-003
1.780003e+003,9.742924e-003
1.781932e+003,9.688337e-003
1.783860e+003,9.645886e-003
1.785789e+003,9.761799e-003
1.787717e+003,9.857880e-003
1.789646e+003,9.861812e-003
1.791574e+003,9.961034e-003
1.793503e+003,9.927167e-003
1.795431e+003,9.804940e-003
1.797360e+003,9.877336e-003
1.799288e+003,9.955067e-003
1.801217e+003,9.834494e-003
1.803145e+003,9.701788e-003
1.805074e+003,9.770305e-003
1.807002e+003,9.874658e-003
1.808931e+003,9.845407e-003
1.810859e+003,9.816530e-003
1.812788e+003,9.798772e-003
1.814716e+003,9.791723e-003
1.816645e+003,9.816158e-003
1.818573e+003,9.829612e-003
1.820502e+003,9.790977e-003
1.822430e+003,9.817886e-003
1.824359e+003,1.001328e-002
1.826287e+003,1.009338e-002
1.828216e+003,1.009880e-002
1.830144e+003,1.005882e-002
1.832073e+003,9.814632e-003
1.834001e+003,9.827172e-003
1.835930e+003,9.956254e-003
1.837858e+003,9.839069e-003
1.839787e+003,9.761359e-003
1.841715e+003,9.786537e-003
1.843644e+003,9.931574e-003
1.845572e+003,9.882623e-003
1.847501e+003,9.763799e-003
1.849429e+003,9.775523e-003
1.851358e+003,9.876793e-003
1.853286e+003,9.901098e-003
1.855215e+003,9.936998e-003
1.857143e+003,9.939675e-003
1.859072e+003,9.861371e-003
1.861000e+003,9.825037e-003
1.862929e+003,9.800974e-003
1.864857e+003,9.930726e-003
1.866786e+003,9.948897e-003
1.868714e+003,9.924827e-003
1.870643e+003,9.848762e-003
1.872571e+003,9.801787e-003
1.874500e+003,9.890555e-003
1.876428e+003,9.911844e-003
1.878357e+003,9.992836e-003
1.880285e+003,1.005855e-002
1.882214e+003,9.955202e-003
1.884142e+003,9.926760e-003
1.886071e+003,9.943879e-003
1.887999e+003,9.931031e-003
1.889928e+003,9.893335e-003
1.891856e+003,9.807345e-003
1.893785e+003,9.884522e-003
1.895713e+003,9.946930e-003
1.897642e+003,9.902420e-003
1.899570e+003,9.939642e-003
1.901499e+003,9.955305e-003
1.903427e+003,9.926929e-003
1.905356e+003,9.928420e-003
1.907284e+003,9.922353e-003
1.909213e+003,9.919709e-003
1.911141e+003,9.900657e-003
1.913070e+003,9.878895e-003
1.914998e+003,9.949032e-003
1.916927e+003,1.008585e-002
1.918855e+003,1.003532e-002
1.920784e+003,9.916387e-003
1.922712e+003,9.932252e-003
1.924641e+003,9.970798e-003
1.926569e+003,1.000179e-002
1.928498e+003,9.970188e-003
1.930426e+003,9.936388e-003
1.932355e+003,9.879708e-003
1.934283e+003,9.839069e-003
1.936212e+003,9.841848e-003
1.938140e+003,9.866659e-003
1.940069e+003,9.958457e-003
1.941997e+003,1.005156e-002
1.943926e+003,1.002566e-002
1.945854e+003,9.924420e-003
1.947783e+003,9.836696e-003
1.949711e+003,9.816768e-003
1.951640e+003,9.873167e-003
1.953568e+003,9.902488e-003
1.955497e+003,9.906115e-003
1.957425e+003,9.907471e-003
1.959354e+003,9.927234e-003
1.961282e+003,1.002651e-002
1.963211e+003,1.000718e-002
1.965139e+003,9.892657e-003
1.967068e+003,9.832121e-003
1.968996e+003,9.738790e-003
1.970925e+003,9.741534e-003
1.972853e+003,9.859507e-003
1.974782e+003,9.931404e-003
1.976710e+003,9.902589e-003
1.978639e+003,9.896013e-003
1.980567e+003,9.864252e-003
1.982496e+003,9.847644e-003
1.984424e+003,9.840967e-003
1.986353e+003,9.931810e-003
1.988281e+003,9.916691e-003
1.990210e+003,9.861710e-003
1.992138e+003,9.873370e-003
1.994067e+003,9.835917e-003
1.995995e+003,9.675903e-003
1.997924e+003,9.607301e-003
1.999852e+003,9.711005e-003
2.001781e+003,9.721746e-003
2.003709e+003,9.713038e-003
2.005638e+003,9.745737e-003
2.007566e+003,9.842425e-003
2.009495e+003,9.937031e-003
2.011423e+003,9.826223e-003
2.013352e+003,9.804295e-003
2.015280e+003,9.862185e-003
2.017208e+003,9.808565e-003
2.019137e+003,9.808091e-003
2.021066e+003,9.847170e-003
2.022994e+003,9.829409e-003
2.024922e+003,9.768543e-003
2.026851e+003,9.717070e-003
2.028780e+003,9.770915e-003
2.030708e+003,9.825884e-003
2.032636e+003,9.915166e-003
2.034565e+003,9.969883e-003
2.036494e+003,9.837476e-003
2.038422e+003,9.720221e-003
2.040350e+003,9.758445e-003
2.042279e+003,9.847881e-003
2.044208e+003,9.828359e-003
2.046136e+003,9.764510e-003
2.048064e+003,9.749464e-003
2.049993e+003,9.788232e-003
2.051921e+003,9.818631e-003
2.053850e+003,9.892318e-003
2.055778e+003,9.923200e-003
2.057707e+003,9.881709e-003
2.059635e+003,9.845610e-003
2.061564e+003,9.856422e-003
2.063492e+003,9.720357e-003
2.065421e+003,9.658489e-003
2.067349e+003,9.790367e-003
2.069278e+003,9.782810e-003
2.071206e+003,9.740417e-003
2.073135e+003,9.803584e-003
2.075063e+003,9.882658e-003
2.076992e+003,9.838493e-003
2.078920e+003,9.816191e-003
2.080849e+003,9.843881e-003
2.082777e+003,9.838696e-003
2.084706e+003,9.835815e-003
2.086634e+003,9.875438e-003
2.088563e+003,9.852999e-003
2.090491e+003,9.825376e-003
2.092420e+003,9.904657e-003
2.094348e+003,1.000399e-002
2.096277e+003,9.949338e-003
2.098205e+003,9.878794e-003
2.100134e+003,9.885674e-003
2.102062e+003,9.953474e-003
2.103991e+003,9.924963e-003
2.105919e+003,9.930082e-003
2.107848e+003,1.001050e-002
2.109776e+003,9.994362e-003
2.111705e+003,9.929743e-003
2.113633e+003,9.935065e-003
2.115562e+003,1.005329e-002
2.117490e+003,1.005350e-002
2.119419e+003,1.008090e-002
2.121347e+003,1.004773e-002
2.123276e+003,9.956050e-003
2.125204e+003,9.981105e-003
2.127133e+003,1.001504e-002
2.129061e+003,1.020524e-002
2.130990e+003,1.027512e-002
2.132918e+003,1.005614e-002
2.134847e+003,9.965950e-003
2.136775e+003,9.991446e-003
2.138704e+003,1.004997e-002
2.140632e+003,1.010518e-002
2.142561e+003,1.008554e-002
2.144489e+003,1.002572e-002
2.146418e+003,1.003959e-002
2.148346e+003,1.021741e-002
2.150275e+003,1.025100e-002
2.152203e+003,1.011857e-002
2.154132e+003,1.011522e-002
2.156060e+003,1.011793e-002
2.157989e+003,1.013760e-002
2.159917e+003,1.014727e-002
2.161846e+003,1.010243e-002
2.163774e+003,1.012325e-002
2.165703e+003,1.012434e-002
2.167631e+003,1.019665e-002
2.169560e+003,1.032937e-002
2.171488e+003,1.035194e-002
2.173417e+003,1.023370e-002
2.175345e+003,1.011142e-002
2.177274e+003,1.017444e-002
2.179202e+003,1.031200e-002
2.181131e+003,1.022705e-002
2.183059e+003,1.013336e-002
2.184988e+003,1.020646e-002
2.186916e+003,1.021243e-002
2.188845e+003,1.019302e-002
2.190773e+003,1.020924e-002
2.192702e+003,1.020385e-002
2.194630e+003,1.027712e-002
2.196559e+003,1.032242e-002
2.198487e+003,1.028113e-002
2.200416e+003,1.022155e-002
2.202344e+003,1.020371e-002
2.204273e+003,1.022074e-002
2.206201e+003,1.023081e-002
2.208130e+003,1.024035e-002
2.210058e+003,1.014618e-002
2.211987e+003,1.010196e-002
2.213915e+003,1.020537e-002
2.215844e+003,1.035055e-002
2.217772e+003,1.042107e-002
2.219701e+003,1.042276e-002
2.221629e+003,1.030182e-002
2.223558e+003,1.023427e-002
2.225486e+003,1.031383e-002
2.227415e+003,1.029928e-002
2.229343e+003,1.026735e-002
2.231272e+003,1.027794e-002
2.233200e+003,1.028883e-002
2.235129e+003,1.030841e-002
2.237057e+003,1.034559e-002
2.238986e+003,1.033826e-002
2.240914e+003,1.026277e-002
2.242843e+003,1.023472e-002
2.244771e+003,1.024564e-002
2.246700e+003,1.020758e-002
2.248628e+003,1.018224e-002
2.250557e+003,1.008208e-002
2.252485e+003,1.003505e-002
2.254414e+003,1.015904e-002
2.256342e+003,1.024635e-002
2.258271e+003,1.018682e-002
2.260199e+003,1.018258e-002
2.262128e+003,1.021473e-002
2.264056e+003,1.020171e-002
2.265985e+003,1.022345e-002
2.267913e+003,1.023404e-002
2.269842e+003,1.023349e-002
2.271770e+003,1.023451e-002
2.273699e+003,1.018712e-002
2.275627e+003,1.013411e-002
2.277556e+003,1.012095e-002
2.279484e+003,1.010362e-002
2.281413e+003,1.014245e-002
2.283341e+003,1.014211e-002
2.285270e+003,1.009226e-002
2.287198e+003,1.005760e-002
2.289127e+003,1.021226e-002
2.291055e+003,1.032995e-002
2.292984e+003,1.033558e-002
2.294912e+003,1.031523e-002
2.296841e+003,1.041923e-002
2.298769e+003,1.068251e-002
2.300698e+003,1.086878e-002
2.302626e+003,1.099192e-002
2.304555e+003,1.111506e-002
2.306483e+003,1.127785e-002
2.308412e+003,1.154865e-002
2.310340e+003,1.200795e-002
2.312269e+003,1.252005e-002
2.314197e+003,1.293521e-002
2.316125e+003,1.338484e-002
2.318054e+003,1.390688e-002
2.319983e+003,1.454575e-002
2.321911e+003,1.516703e-002
2.323840e+003,1.577739e-002
2.325768e+003,1.627121e-002
2.327697e+003,1.674979e-002
2.329625e+003,1.733410e-002
2.331553e+003,1.770799e-002
2.333482e+003,1.781168e-002
2.335411e+003,1.788680e-002
2.337339e+003,1.813782e-002
2.339268e+003,1.830959e-002
2.341196e+003,1.815489e-002
2.343125e+003,1.758228e-002
2.345053e+003,1.645033e-002
2.346981e+003,1.455497e-002
2.348910e+003,1.340514e-002
2.350839e+003,1.464187e-002
2.352767e+003,1.707727e-002
2.354696e+003,1.900361e-002
2.356624e+003,2.023647e-002
2.358552e+003,2.088167e-002
2.360481e+003,2.108597e-002
2.362409e+003,2.101916e-002
2.364338e+003,2.065210e-002
2.366267e+003,2.002810e-002
2.368195e+003,1.914673e-002
2.370124e+003,1.793162e-002
2.372052e+003,1.657723e-002
2.373980e+003,1.517904e-002
2.375909e+003,1.385225e-002
2.377838e+003,1.271387e-002
2.379766e+003,1.163941e-002
2.381695e+003,1.086627e-002
2.383623e+003,1.062465e-002
2.385552e+003,1.045484e-002
2.387480e+003,1.027689e-002
2.389408e+003,1.026308e-002
2.391337e+003,1.029018e-002
2.393266e+003,1.025483e-002
2.395194e+003,1.024248e-002
2.397123e+003,1.032904e-002
2.399051e+003,1.034736e-002
2.400979e+003,1.028493e-002
2.402908e+003,1.022885e-002
2.404836e+003,1.031621e-002
2.406765e+003,1.028245e-002
2.408694e+003,1.016185e-002
2.410622e+003,1.018431e-002
2.412551e+003,1.024075e-002
2.414479e+003,1.025297e-002
2.416407e+003,1.024856e-002
2.418336e+003,1.026874e-002
2.420264e+003,1.020334e-002
2.422193e+003,1.016847e-002
2.424122e+003,1.027058e-002
2.426050e+003,1.032459e-002
2.427979e+003,1.028089e-002
2.429907e+003,1.021670e-002
2.431835e+003,1.029192e-002
2.433764e+003,1.041957e-002
2.435692e+003,1.049167e-002
2.437621e+003,1.050426e-002
2.439550e+003,1.043478e-002
2.441478e+003,1.045009e-002
2.443406e+003,1.057015e-002
2.445335e+003,1.059395e-002
2.447263e+003,1.056730e-002
2.449192e+003,1.049038e-002
2.451121e+003,1.043376e-002
2.453049e+003,1.047456e-002
2.454978e+003,1.051275e-002
2.456906e+003,1.057212e-002
2.458834e+003,1.062903e-002
2.460763e+003,1.059385e-002
2.462691e+003,1.041920e-002
2.464620e+003,1.039303e-002
2.466549e+003,1.052928e-002
2.468477e+003,1.055535e-002
2.470406e+003,1.046417e-002
2.472334e+003,1.041085e-002
2.474262e+003,1.047883e-002
2.476191e+003,1.051743e-002
2.478119e+003,1.054292e-002
2.480048e+003,1.059979e-002
2.481977e+003,1.066801e-002
2.483905e+003,1.056662e-002
2.485833e+003,1.048702e-002
2.487762e+003,1.051495e-002
2.489690e+003,1.048759e-002
2.491619e+003,1.053220e-002
2.493547e+003,1.066285e-002
2.495476e+003,1.077495e-002
2.497405e+003,1.075580e-002
2.499333e+003,1.062016e-002
2.501261e+003,1.054092e-002
2.503190e+003,1.064006e-002
2.505118e+003,1.075862e-002
2.507047e+003,1.077298e-002
2.508975e+003,1.072010e-002
2.510904e+003,1.063823e-002
2.512833e+003,1.068539e-002
2.514761e+003,1.076993e-002
2.516689e+003,1.078253e-002
2.518618e+003,1.081300e-002
2.520546e+003,1.083691e-002
2.522475e+003,1.078674e-002
2.524403e+003,1.081130e-002
2.526332e+003,1.081697e-002
2.528260e+003,1.084928e-002
2.530189e+003,1.085271e-002
2.532117e+003,1.073501e-002
2.534046e+003,1.067378e-002
2.535974e+003,1.077431e-002
2.537903e+003,1.084795e-002
2.539831e+003,1.090663e-002
2.541760e+003,1.090564e-002
2.543688e+003,1.092304e-002
2.545617e+003,1.096212e-002
2.547545e+003,1.104014e-002
2.549474e+003,1.099640e-002
2.551402e+003,1.096616e-002
2.553331e+003,1.096531e-002
2.555259e+003,1.101292e-002
2.557188e+003,1.101007e-002
2.559116e+003,1.094513e-002
2.561045e+003,1.098070e-002
2.562973e+003,1.092589e-002
2.564902e+003,1.094553e-002
2.566830e+003,1.108742e-002
2.568759e+003,1.099443e-002
2.570687e+003,1.092080e-002
2.572616e+003,1.097296e-002
2.574544e+003,1.108929e-002
2.576473e+003,1.108446e-002
2.578401e+003,1.103532e-002
2.580330e+003,1.105911e-002
2.582258e+003,1.101931e-002
2.584187e+003,1.101571e-002
2.586115e+003,1.097085e-002
2.588044e+003,1.092487e-002
2.589972e+003,1.100724e-002
2.591901e+003,1.109810e-002
2.593829e+003,1.107175e-002
2.595758e+003,1.090952e-002
2.597686e+003,1.091991e-002
2.599615e+003,1.101928e-002
2.601543e+003,1.109735e-002
2.603472e+003,1.106312e-002
2.605400e+003,1.104769e-002
2.607329e+003,1.108402e-002
2.609257e+003,1.117214e-002
2.611186e+003,1.124622e-002
2.613114e+003,1.125925e-002
2.615043e+003,1.121776e-002
2.616971e+003,1.118784e-002
2.618900e+003,1.121202e-002
2.620828e+003,1.129614e-002
2.622757e+003,1.136450e-002
2.624685e+003,1.131478e-002
2.626614e+003,1.123014e-002
2.628542e+003,1.126659e-002
2.630471e+003,1.133947e-002
2.632399e+003,1.139137e-002
2.634328e+003,1.140416e-002
2.636256e+003,1.136372e-002
2.638185e+003,1.149622e-002
2.640113e+003,1.160837e-002
2.642042e+003,1.150078e-002
2.643970e+003,1.152524e-002
2.645899e+003,1.165347e-002
2.647827e+003,1.169945e-002
2.649756e+003,1.173128e-002
2.651684e+003,1.175899e-002
2.653613e+003,1.174493e-002
2.655541e+003,1.172934e-002
2.657470e+003,1.168342e-002
2.659398e+003,1.172872e-002
2.661327e+003,1.178793e-002
2.663255e+003,1.188207e-002
2.665184e+003,1.191970e-002
2.667112e+003,1.196313e-002
2.669041e+003,1.203885e-002
2.670969e+003,1.210797e-002
2.672898e+003,1.208933e-002
2.674826e+003,1.204137e-002
2.676755e+003,1.198039e-002
2.678683e+003,1.196571e-002
2.680612e+003,1.206123e-002
2.682540e+003,1.217384e-002
2.684469e+003,1.222989e-002
2.686397e+003,1.231435e-002
2.688326e+003,1.237721e-002
2.690254e+003,1.246767e-002
2.692183e+003,1.248618e-002
2.694111e+003,1.241346e-002
2.696040e+003,1.242672e-002
2.697968e+003,1.244588e-002
2.699897e+003,1.258949e-002
2.701825e+003,1.270571e-002
2.703754e+003,1.275583e-002
2.705682e+003,1.280965e-002
2.707611e+003,1.275798e-002
2.709539e+003,1.271117e-002
2.711468e+003,1.278525e-002
2.713396e+003,1.294450e-002
2.715325e+003,1.304374e-002
2.717253e+003,1.303886e-002
2.719182e+003,1.311481e-002
2.721110e+003,1.317556e-002
2.723039e+003,1.319653e-002
2.724967e+003,1.334510e-002
2.726896e+003,1.345049e-002
2.728824e+003,1.352292e-002
2.730753e+003,1.362797e-002
2.732681e+003,1.367916e-002
2.734610e+003,1.372006e-002
2.736538e+003,1.372874e-002
2.738467e+003,1.377994e-002
2.740395e+003,1.396008e-002
2.742324e+003,1.398599e-002
2.744252e+003,1.398897e-002
2.746181e+003,1.417546e-002
2.748109e+003,1.428735e-002
2.750038e+003,1.438136e-002
2.751966e+003,1.443044e-002
2.753895e+003,1.452293e-002
2.755823e+003,1.467144e-002
2.757752e+003,1.476509e-002
2.759680e+003,1.488995e-002
2.761609e+003,1.510850e-002
2.763537e+003,1.548738e-002
2.765466e+003,1.573983e-002
2.767394e+003,1.590340e-002
2.769323e+003,1.618450e-002
2.771251e+003,1.651579e-002
2.773180e+003,1.692587e-002
2.775108e+003,1.746281e-002
2.777037e+003,1.800998e-002
2.778965e+003,1.849626e-002
2.780894e+003,1.900807e-002
2.782822e+003,1.961127e-002
2.784750e+003,2.031021e-002
2.786679e+003,2.102493e-002
2.788608e+003,2.171118e-002
2.790536e+003,2.234064e-002
2.792465e+003,2.303240e-002
2.794393e+003,2.383656e-002
2.796322e+003,2.458849e-002
2.798250e+003,2.527261e-002
2.800178e+003,2.583140e-002
2.802107e+003,2.635581e-002
2.804036e+003,2.694593e-002
2.805964e+003,2.737982e-002
2.807893e+003,2.763928e-002
2.809821e+003,2.779312e-002
2.811750e+003,2.792363e-002
2.813678e+003,2.794543e-002
2.815606e+003,2.789260e-002
2.817535e+003,2.766647e-002
2.819464e+003,2.737784e-002
2.821392e+003,2.711247e-002
2.823321e+003,2.676102e-002
2.825249e+003,2.618463e-002
2.827177e+003,2.558985e-002
2.829106e+003,2.507567e-002
2.831034e+003,2.446512e-002
2.832963e+003,2.380646e-002
2.834892e+003,2.335193e-002
2.836820e+003,2.281472e-002
2.838749e+003,2.218157e-002
2.840677e+003,2.151898e-002
2.842605e+003,2.093275e-002
2.844534e+003,2.036060e-002
2.846462e+003,1.963269e-002
2.848391e+003,1.897692e-002
2.850320e+003,1.852074e-002
2.852248e+003,1.829777e-002
2.854177e+003,1.814977e-002
2.856105e+003,1.803471e-002
2.858033e+003,1.800200e-002
2.859962e+003,1.797631e-002
2.861890e+003,1.785304e-002
2.863819e+003,1.774958e-002
2.865748e+003,1.781492e-002
2.867676e+003,1.790203e-002
2.869604e+003,1.802310e-002
2.871533e+003,1.814331e-002
2.873461e+003,1.829072e-002
2.875390e+003,1.834453e-002
2.877319e+003,1.846856e-002
2.879247e+003,1.866218e-002
2.881176e+003,1.873303e-002
2.883104e+003,1.875098e-002
2.885032e+003,1.884253e-002
2.886961e+003,1.878139e-002
2.888889e+003,1.872742e-002
2.890818e+003,1.875524e-002
2.892747e+003,1.857890e-002
2.894675e+003,1.832397e-002
2.896604e+003,1.828671e-002
2.898532e+003,1.827641e-002
2.900460e+003,1.815651e-002
2.902389e+003,1.818128e-002
2.904317e+003,1.813806e-002
2.906246e+003,1.801720e-002
2.908175e+003,1.796118e-002
2.910103e+003,1.786485e-002
2.912031e+003,1.774872e-002
2.913960e+003,1.768728e-002
2.915888e+003,1.757614e-002
2.917817e+003,1.760981e-002
2.919745e+003,1.789923e-002
2.921674e+003,1.811243e-002
2.923603e+003,1.835690e-002
2.925531e+003,1.854588e-002
2.927459e+003,1.887035e-002
2.929388e+003,1.920446e-002
2.931316e+003,1.942249e-002
2.933245e+003,1.949273e-002
2.935173e+003,1.955782e-002
2.937102e+003,1.970268e-002
2.939031e+003,1.980227e-002
2.940959e+003,1.969624e-002
2.942887e+003,1.958180e-002
2.944816e+003,1.951758e-002
2.946744e+003,1.941559e-002
2.948673e+003,1.920280e-002
2.950601e+003,1.865762e-002
2.952530e+003,1.809412e-002
2.954458e+003,1.757762e-002
2.956387e+003,1.700742e-002
2.958315e+003,1.651847e-002
2.960244e+003,1.580529e-002
2.962172e+003,1.520004e-002
2.964101e+003,1.480791e-002
2.966029e+003,1.438584e-002
2.967958e+003,1.388745e-002
2.969886e+003,1.346717e-002
2.971815e+003,1.312133e-002
2.973743e+003,1.269145e-002
2.975672e+003,1.232693e-002
2.977600e+003,1.209836e-002
2.979529e+003,1.180692e-002
2.981457e+003,1.163379e-002
2.983386e+003,1.145740e-002
2.985314e+003,1.122184e-002
2.987243e+003,1.115191e-002
2.989171e+003,1.108484e-002
2.991100e+003,1.089192e-002
2.993028e+003,1.078813e-002
2.994957e+003,1.076701e-002
2.996885e+003,1.071059e-002
2.998814e+003,1.066424e-002
3.000742e+003,1.065446e-002
3.002671e+003,1.060356e-002
3.004599e+003,1.050426e-002
3.006528e+003,1.048338e-002
3.008456e+003,1.047666e-002
3.010385e+003,1.036035e-002
3.012313e+003,1.038676e-002
3.014242e+003,1.047588e-002
3.016170e+003,1.044326e-002
3.018099e+003,1.033165e-002
3.020027e+003,1.021080e-002
3.021956e+003,1.010813e-002
3.023884e+003,1.010328e-002
3.025813e+003,1.015697e-002
3.027741e+003,1.008307e-002
3.029670e+003,9.999787e-003
3.031598e+003,1.004777e-002
3.033527e+003,1.007310e-002
3.035455e+003,1.005906e-002
3.037384e+003,1.007642e-002
3.039312e+003,1.017060e-002
3.041241e+003,1.010206e-002
3.043169e+003,9.923268e-003
3.045098e+003,9.867642e-003
3.047026e+003,9.958763e-003
3.048955e+003,9.962221e-003
3.050883e+003,9.933980e-003
3.052812e+003,9.987988e-003
3.054740e+003,9.985275e-003
3.056669e+003,9.913742e-003
3.058597e+003,9.823512e-003
3.060526e+003,9.791994e-003
3.062454e+003,9.866117e-003
3.064383e+003,9.882691e-003
3.066311e+003,9.838086e-003
3.068240e+003,9.868252e-003
3.070168e+003,9.897877e-003
3.072097e+003,9.795010e-003
3.074025e+003,9.658556e-003
3.075954e+003,9.682612e-003
3.077882e+003,9.679054e-003
3.079811e+003,9.656084e-003
3.081739e+003,9.634605e-003
3.083668e+003,9.587077e-003
3.085596e+003,9.584334e-003
3.087525e+003,9.603201e-003
3.089453e+003,9.668348e-003
3.091382e+003,9.637281e-003
3.093310e+003,9.648122e-003
3.095239e+003,9.716630e-003
3.097167e+003,9.731742e-003
3.099096e+003,9.702907e-003
3.101024e+003,9.645209e-003
3.102953e+003,9.578643e-003
3.104881e+003,9.570175e-003
3.106810e+003,9.700501e-003
3.108738e+003,9.690472e-003
3.110667e+003,9.661606e-003
3.112595e+003,9.618513e-003
3.114524e+003,9.649917e-003
3.116452e+003,9.591718e-003
3.118381e+003,9.566924e-003
3.120309e+003,9.636536e-003
3.122238e+003,9.738316e-003
3.124166e+003,9.773456e-003
3.126095e+003,9.720323e-003
3.128023e+003,9.569667e-003
3.129952e+003,9.528073e-003
3.131880e+003,9.524077e-003
3.133809e+003,9.555305e-003
3.135737e+003,9.630709e-003
3.137666e+003,9.690167e-003
3.139594e+003,9.723508e-003
3.141523e+003,9.776981e-003
3.143451e+003,9.850457e-003
3.145380e+003,9.781725e-003
3.147308e+003,9.625628e-003
3.149237e+003,9.641651e-003
3.151165e+003,9.728556e-003
3.153094e+003,9.762748e-003
3.155022e+003,9.802669e-003
3.156951e+003,9.801754e-003
3.158879e+003,9.875540e-003
3.160808e+003,9.927370e-003
3.162736e+003,9.917912e-003
3.164665e+003,9.918115e-003
3.166593e+003,9.837171e-003
3.168522e+003,9.820665e-003
3.170450e+003,9.917640e-003
3.172379e+003,9.873642e-003
3.174307e+003,9.757767e-003
3.176236e+003,9.910014e-003
3.178164e+003,1.013574e-002
3.180093e+003,1.014717e-002
3.182021e+003,1.003780e-002
3.183950e+003,1.000965e-002
3.185878e+003,9.976189e-003
3.187807e+003,1.001932e-002
3.189735e+003,1.015999e-002
3.191664e+003,1.019109e-002
3.193592e+003,1.021833e-002
3.195521e+003,1.013906e-002
3.197449e+003,1.002237e-002
3.199378e+003,9.963170e-003
3.201306e+003,9.867913e-003
3.203235e+003,9.951948e-003
3.205163e+003,1.008605e-002
3.207092e+003,1.009439e-002
3.209020e+003,1.021412e-002
3.210948e+003,1.031631e-002
3.212877e+003,1.032418e-002
3.214806e+003,1.027017e-002
3.216734e+003,1.017610e-002
3.218663e+003,1.025500e-002
3.220591e+003,1.038509e-002
3.222520e+003,1.036802e-002
3.224448e+003,1.031275e-002
3.226376e+003,1.034624e-002
3.228305e+003,1.043980e-002
3.230234e+003,1.047996e-002
3.232162e+003,1.045925e-002
3.234091e+003,1.056540e-002
3.236019e+003,1.051902e-002
3.237948e+003,1.043770e-002
3.239876e+003,1.071878e-002
3.241804e+003,1.111122e-002
3.243733e+003,1.115473e-002
3.245662e+003,1.112954e-002
3.247590e+003,1.124925e-002
3.249519e+003,1.121429e-002
3.251447e+003,1.121994e-002
3.253375e+003,1.120018e-002
3.255304e+003,1.121579e-002
3.257232e+003,1.147278e-002
3.259161e+003,1.162814e-002
3.261090e+003,1.164509e-002
3.263018e+003,1.154586e-002
3.264947e+003,1.144958e-002
3.266875e+003,1.151932e-002
3.268803e+003,1.169731e-002
3.270732e+003,1.180073e-002
3.272660e+003,1.176015e-002
3.274589e+003,1.168954e-002
3.276518e+003,1.174598e-002
3.278446e+003,1.184193e-002
3.280375e+003,1.190530e-002
3.282303e+003,1.188112e-002
3.284231e+003,1.192767e-002
3.286160e+003,1.188057e-002
3.288088e+003,1.174043e-002
3.290017e+003,1.161521e-002
3.291946e+003,1.171885e-002
3.293874e+003,1.183348e-002
3.295802e+003,1.179014e-002
3.297731e+003,1.177754e-002
3.299659e+003,1.174112e-002
3.301588e+003,1.149938e-002
3.303516e+003,1.133318e-002
3.305445e+003,1.131437e-002
3.307374e+003,1.138889e-002
3.309302e+003,1.134545e-002
3.311230e+003,1.120345e-002
3.313159e+003,1.102441e-002
3.315087e+003,1.096103e-002
3.317016e+003,1.102733e-002
3.318944e+003,1.093823e-002
3.320873e+003,1.079618e-002
3.322802e+003,1.075301e-002
3.324730e+003,1.066539e-002
3.326658e+003,1.055936e-002
3.328587e+003,1.053298e-002
3.330515e+003,1.046000e-002
3.332444e+003,1.029416e-002
3.334372e+003,1.017060e-002
3.336301e+003,1.027153e-002
3.338229e+003,1.031112e-002
3.340158e+003,1.022315e-002
3.342086e+003,1.030376e-002
3.344015e+003,1.021762e-002
3.345943e+003,1.029052e-002
3.347872e+003,1.037444e-002
3.349800e+003,1.017630e-002
3.351729e+003,1.005434e-002
3.353657e+003,1.005143e-002
3.355586e+003,1.002200e-002
3.357514e+003,1.011176e-002
3.359443e+003,1.003074e-002
3.361371e+003,9.937608e-003
3.363300e+003,9.954321e-003
3.365229e+003,9.890149e-003
3.367157e+003,9.699823e-003
3.369085e+003,9.499049e-003
3.371014e+003,9.395903e-003
3.372942e+003,9.514357e-003
3.374871e+003,9.393499e-003
3.376799e+003,9.264484e-003
3.378728e+003,9.301753e-003
3.380656e+003,9.236052e-003
3.382585e+003,9.042292e-003
3.384513e+003,8.983734e-003
3.386442e+003,8.962931e-003
3.388370e+003,8.860048e-003
3.390299e+003,8.829410e-003
3.392227e+003,8.960800e-003
3.394156e+003,8.855043e-003
3.396084e+003,8.800737e-003
3.398013e+003,8.733490e-003
3.399941e+003,8.630457e-003
3.401870e+003,8.564959e-003
3.403798e+003,8.546711e-003
3.405727e+003,8.726424e-003
3.407655e+003,8.822377e-003
3.409584e+003,8.731123e-003
3.411512e+003,8.611700e-003
3.413441e+003,8.476767e-003
3.415369e+003,8.452541e-003
3.417298e+003,8.453082e-003
3.419226e+003,8.498323e-003
3.421155e+003,8.610279e-003
3.423083e+003,8.578409e-003
3.425012e+003,8.515319e-003
3.426940e+003,8.588447e-003
3.428869e+003,8.698974e-003
3.430797e+003,8.656483e-003
3.432726e+003,8.656010e-003
3.434654e+003,8.693971e-003
3.436583e+003,8.514407e-003
3.438511e+003,8.425379e-003
3.440440e+003,8.609266e-003
3.442368e+003,8.525558e-003
3.444297e+003,8.427305e-003
3.446225e+003,8.613862e-003
3.448154e+003,8.777711e-003
3.450082e+003,8.676460e-003
3.452011e+003,8.551645e-003
3.453939e+003,8.564351e-003
3.455868e+003,8.463015e-003
3.457796e+003,8.420278e-003
3.459725e+003,8.339342e-003
3.461653e+003,8.469773e-003
3.463582e+003,8.670342e-003
3.465510e+003,8.576923e-003
3.467439e+003,8.483828e-003
3.469367e+003,8.420548e-003
3.471296e+003,8.443623e-003
3.473224e+003,8.539344e-003
3.475153e+003,8.531302e-003
3.477081e+003,8.566785e-003
3.479010e+003,8.532045e-003
3.480938e+003,8.458758e-003
3.482867e+003,8.403083e-003
3.484795e+003,8.527923e-003
3.486724e+003,8.682680e-003
3.488652e+003,8.583851e-003
3.490581e+003,8.521536e-003
3.492509e+003,8.535526e-003
3.494438e+003,8.593888e-003
3.496366e+003,8.743935e-003
3.498295e+003,8.817068e-003
3.500223e+003,8.851357e-003
3.502152e+003,8.899006e-003
3.504080e+003,8.887373e-003
3.506009e+003,8.807634e-003
3.507937e+003,8.766959e-003
3.509866e+003,8.749750e-003
3.511794e+003,8.885614e-003
3.513723e+003,8.942535e-003
3.515651e+003,8.820112e-003
3.517580e+003,8.764559e-003
3.519508e+003,8.699312e-003
3.521437e+003,8.639482e-003
3.523365e+003,8.671796e-003
3.525294e+003,8.675852e-003
3.527222e+003,8.813450e-003
3.529151e+003,8.853385e-003
3.531079e+003,8.740149e-003
3.533008e+003,8.733490e-003
3.534936e+003,8.870869e-003
3.536865e+003,8.850275e-003
3.538793e+003,8.710196e-003
3.540722e+003,8.643200e-003
3.542650e+003,8.654320e-003
3.544579e+003,8.830695e-003
3.546507e+003,9.110906e-003
3.548436e+003,9.087458e-003
3.550364e+003,9.002339e-003
3.552293e+003,8.936008e-003
3.554221e+003,8.855280e-003
3.556150e+003,8.770002e-003
3.558078e+003,8.916086e-003
3.560007e+003,8.943752e-003
3.561935e+003,8.851830e-003
3.563864e+003,8.840366e-003
3.565792e+003,8.949840e-003
3.567721e+003,9.028218e-003
3.569649e+003,8.873203e-003
3.571578e+003,8.832589e-003
3.573506e+003,8.827652e-003
3.575435e+003,8.770442e-003
3.577363e+003,8.836275e-003
3.579292e+003,8.891566e-003
3.581220e+003,8.856565e-003
3.583149e+003,8.877058e-003
3.585077e+003,9.021959e-003
3.587006e+003,9.105289e-003
3.588934e+003,9.017122e-003
3.590863e+003,8.856497e-003
3.592791e+003,8.852066e-003
3.594720e+003,8.781498e-003
3.596648e+003,8.785048e-003
3.598577e+003,8.946695e-003
3.600505e+003,9.041513e-003
3.602434e+003,9.028184e-003
3.604362e+003,9.004199e-003
3.606291e+003,8.938137e-003
3.608219e+003,9.039213e-003
3.610148e+003,9.064891e-003
3.612076e+003,9.013976e-003
3.614005e+003,8.994017e-003
3.615933e+003,9.086579e-003
3.617862e+003,9.175234e-003
3.619790e+003,8.995472e-003
3.621719e+003,8.743395e-003
3.623647e+003,8.591049e-003
3.625576e+003,8.846115e-003
3.627504e+003,9.371356e-003
3.629433e+003,9.395971e-003
3.631361e+003,8.991413e-003
3.633290e+003,8.889774e-003
3.635218e+003,9.017934e-003
3.637146e+003,9.119535e-003
3.639075e+003,9.104680e-003
3.641004e+003,8.782614e-003
3.642932e+003,8.725646e-003
3.644861e+003,8.842159e-003
3.646789e+003,8.964419e-003
3.648718e+003,9.211684e-003
3.650646e+003,9.114155e-003
3.652574e+003,8.877159e-003
3.654503e+003,9.033902e-003
3.656432e+003,9.084278e-003
3.658360e+003,8.884971e-003
3.660289e+003,8.714896e-003
3.662217e+003,8.589529e-003
3.664146e+003,8.654388e-003
3.666074e+003,8.742448e-003
3.668002e+003,8.869482e-003
3.669931e+003,8.873506e-003
3.671860e+003,8.903639e-003
3.673788e+003,9.248507e-003
3.675717e+003,9.272912e-003
3.677645e+003,8.944293e-003
3.679573e+003,8.836105e-003
3.681502e+003,8.852574e-003
3.683430e+003,8.924338e-003
3.685359e+003,9.099334e-003
3.687288e+003,9.240790e-003
3.689216e+003,9.207182e-003
3.691145e+003,9.161935e-003
3.693073e+003,9.064655e-003
3.695001e+003,8.883889e-003
3.696930e+003,8.912230e-003
3.698858e+003,9.182240e-003
3.700787e+003,9.292172e-003
3.702716e+003,9.064079e-003
3.704644e+003,8.957248e-003
3.706573e+003,9.109824e-003
3.708501e+003,9.143154e-003
3.710429e+003,9.211074e-003
3.712358e+003,9.120279e-003
3.714286e+003,8.731765e-003
3.716215e+003,8.648811e-003
3.718144e+003,9.050783e-003
3.720072e+003,9.174185e-003
3.722000e+003,8.946289e-003
3.723929e+003,8.830560e-003
3.725857e+003,8.816392e-003
3.727786e+003,8.705566e-003
3.729714e+003,8.857884e-003
3.731643e+003,9.142342e-003
3.733572e+003,9.361572e-003
3.735500e+003,9.334556e-003
3.737428e+003,8.952953e-003
3.739357e+003,8.749007e-003
3.741285e+003,8.881556e-003
3.743214e+003,9.250402e-003
3.745142e+003,8.975886e-003
3.747071e+003,8.710061e-003
3.749000e+003,9.075921e-003
3.750928e+003,9.140413e-003
3.752856e+003,8.936108e-003
3.754785e+003,8.941385e-003
3.756713e+003,9.028252e-003
3.758642e+003,9.029774e-003
3.760570e+003,9.021621e-003
3.762499e+003,8.811084e-003
3.764427e+003,8.708236e-003
3.766356e+003,8.835767e-003
3.768284e+003,8.890687e-003
3.770213e+003,8.960800e-003
3.772141e+003,8.761990e-003
3.774070e+003,8.613220e-003
3.775998e+003,8.634851e-003
3.777927e+003,8.908915e-003
3.779855e+003,8.998008e-003
3.781784e+003,8.688224e-003
3.783712e+003,8.653881e-003
3.785641e+003,8.908713e-003
3.787569e+003,8.811252e-003
3.789498e+003,8.420210e-003
3.791426e+003,8.263251e-003
3.793355e+003,8.439704e-003
3.795283e+003,8.761752e-003
3.797212e+003,8.743665e-003
3.799140e+003,8.752760e-003
3.801069e+003,8.869144e-003
3.802997e+003,8.513123e-003
3.804926e+003,8.521334e-003
3.806854e+003,8.897180e-003
3.808783e+003,8.833976e-003
3.810711e+003,8.708980e-003
3.812640e+003,8.669058e-003
3.814568e+003,8.696303e-003
3.816497e+003,8.804625e-003
3.818425e+003,8.872019e-003
3.820354e+003,9.029030e-003
3.822282e+003,8.783865e-003
3.824211e+003,8.477172e-003
3.826139e+003,8.487612e-003
3.828068e+003,8.658985e-003
3.829996e+003,8.797728e-003
3.831925e+003,8.752353e-003
3.833853e+003,8.546847e-003
3.835782e+003,8.699345e-003
3.837710e+003,8.943313e-003
3.839639e+003,8.847942e-003
3.841567e+003,8.684471e-003
3.843496e+003,8.731190e-003
3.845424e+003,8.478422e-003
3.847353e+003,8.232858e-003
3.849281e+003,8.349104e-003
3.851210e+003,8.936582e-003
3.853138e+003,9.281814e-003
3.855067e+003,9.012047e-003
3.856995e+003,8.630660e-003
3.858924e+003,8.498492e-003
3.860852e+003,8.784101e-003
3.862781e+003,9.041818e-003
3.864709e+003,8.760536e-003
3.866638e+003,8.391631e-003
3.868566e+003,8.728418e-003
3.870495e+003,8.835261e-003
3.872423e+003,8.672033e-003
3.874352e+003,8.638130e-003
3.876280e+003,8.633432e-003
3.878209e+003,8.648371e-003
3.880137e+003,8.613795e-003
3.882066e+003,8.446291e-003
3.883994e+003,8.510487e-003
3.885923e+003,8.651886e-003
3.887851e+003,8.689339e-003
3.889780e+003,8.903944e-003
3.891708e+003,8.873203e-003
3.893637e+003,8.572259e-003
3.895565e+003,8.486294e-003
3.897494e+003,8.561547e-003
3.899422e+003,8.617749e-003
3.901351e+003,8.498357e-003
3.903279e+003,8.459332e-003
3.905208e+003,8.435818e-003
3.907136e+003,8.284966e-003
3.909065e+003,8.298069e-003
3.910993e+003,8.394232e-003
3.912922e+003,8.475178e-003
3.914850e+003,8.437473e-003
3.916779e+003,8.343058e-003
3.918707e+003,8.491802e-003
3.920636e+003,8.497445e-003
3.922564e+003,8.472509e-003
3.924493e+003,8.713104e-003
3.926421e+003,8.639042e-003
3.928350e+003,8.426494e-003
3.930278e+003,8.318976e-003
3.932207e+003,8.272571e-003
3.934135e+003,8.328297e-003
3.936064e+003,8.472475e-003
3.937992e+003,8.528565e-003
3.939921e+003,8.606731e-003
3.941849e+003,8.602135e-003
3.943778e+003,8.536912e-003
3.945706e+003,8.607474e-003
3.947635e+003,8.699176e-003
3.949563e+003,8.567866e-003
3.951492e+003,8.457643e-003
3.953420e+003,8.322691e-003
3.955349e+003,8.190954e-003
3.957277e+003,8.161816e-003
3.959206e+003,8.067122e-003
3.961134e+003,8.191123e-003
3.963063e+003,8.422880e-003
3.964991e+003,8.439906e-003
3.966920e+003,8.493930e-003
3.968848e+003,8.574253e-003
3.970777e+003,8.450953e-003
3.972705e+003,8.400144e-003
3.974634e+003,8.488153e-003
3.976562e+003,8.642592e-003
3.978491e+003,8.480281e-003
3.980419e+003,8.399704e-003
3.982348e+003,8.523632e-003
3.984276e+003,8.586453e-003
3.986205e+003,8.413285e-003
3.988133e+003,8.362141e-003
3.990062e+003,8.674128e-003
3.991990e+003,8.545225e-003
3.993919e+003,8.244036e-003
3.995847e+003,8.052574e-003
3.997776e+003,8.363358e-003
3.999704e+003,8.598620e-003
4.001633e+003,0.000000e+000
