3.991989e+002,3.587074e-002
4.011274e+002,3.573282e-002
4.030559e+002,2.261327e-002
4.049844e+002,1.561764e-002
4.069129e+002,1.840343e-002
4.088414e+002,2.806198e-002
4.107699e+002,2.437760e-002
4.126984e+002,1.742970e-002
4.146269e+002,1.405864e-002
4.165554e+002,1.334869e-002
4.184839e+002,1.748144e-002
4.204124e+002,1.979530e-002
4.223409e+002,1.978955e-002
4.242694e+002,1.867342e-002
4.261979e+002,1.579020e-002
4.281264e+002,1.483883e-002
4.300549e+002,1.359016e-002
4.319834e+002,7.598784e-003
4.339119e+002,6.786716e-003
4.358404e+002,1.279661e-002
4.377689e+002,1.440862e-002
4.396974e+002,1.216467e-002
4.416259e+002,9.488144e-003
4.435544e+002,1.226074e-002
4.454829e+002,1.616913e-002
4.474114e+002,1.981243e-002
4.493399e+002,1.655720e-002
4.512684e+002,9.657032e-003
4.531969e+002,1.011545e-002
4.551254e+002,1.432338e-002
4.570539e+002,1.462682e-002
4.589824e+002,1.141011e-002
4.609109e+002,1.287807e-002
4.628394e+002,1.309473e-002
4.647679e+002,1.235649e-002
4.666964e+002,1.329792e-002
4.686249e+002,1.156893e-002
4.705533e+002,1.184652e-002
4.724819e+002,1.357867e-002
4.744103e+002,1.342920e-002
4.763389e+002,1.258809e-002
4.782673e+002,1.180849e-002
4.801959e+002,1.109086e-002
4.821243e+002,1.215550e-002
4.840529e+002,1.195597e-002
4.859813e+002,1.176981e-002
4.879099e+002,1.163162e-002
4.898383e+002,9.365398e-003
4.917668e+002,8.205067e-003
4.936953e+002,1.144097e-002
4.956238e+002,1.197256e-002
4.975523e+002,9.841373e-003
4.994808e+002,1.122942e-002
5.014093e+002,1.159207e-002
5.033378e+002,1.173563e-002
5.052663e+002,1.307902e-002
5.071948e+002,1.085876e-002
5.091233e+002,9.378364e-003
5.110518e+002,7.969411e-003
5.129803e+002,6.629639e-003
5.149088e+002,6.593305e-003
5.168373e+002,8.375856e-003
5.187658e+002,8.766689e-003
5.206943e+002,7.845406e-003
5.226228e+002,7.252494e-003
5.245513e+002,6.923078e-003
5.264798e+002,6.749562e-003
5.284083e+002,7.188147e-003
5.303368e+002,7.142605e-003
5.322653e+002,6.650297e-003
5.341938e+002,6.603498e-003
5.361223e+002,5.612637e-003
5.380508e+002,5.138387e-003
5.399792e+002,6.891769e-003
5.419078e+002,6.836395e-003
5.438363e+002,6.547455e-003
5.457648e+002,6.511902e-003
5.476932e+002,5.615255e-003
5.496218e+002,5.897933e-003
5.515503e+002,6.193801e-003
5.534788e+002,5.185363e-003
5.554072e+002,5.953221e-003
5.573358e+002,6.572314e-003
5.592643e+002,6.692591e-003
5.611927e+002,5.499672e-003
5.631212e+002,4.326486e-003
5.650497e+002,4.727121e-003
5.669783e+002,6.131560e-003
5.689067e+002,7.433626e-003
5.708352e+002,7.199433e-003
5.727637e+002,5.836977e-003
5.746923e+002,4.792278e-003
5.766207e+002,6.744144e-003
5.785492e+002,1.040569e-002
5.804777e+002,9.594496e-003
5.824063e+002,5.260012e-003
5.843347e+002,6.982638e-003
5.862632e+002,9.276229e-003
5.881917e+002,7.860791e-003
5.901202e+002,6.288390e-003
5.920487e+002,4.939107e-003
5.939772e+002,6.139088e-003
5.959057e+002,7.165746e-003
5.978342e+002,6.584323e-003
5.997627e+002,5.680645e-003
6.016912e+002,4.198297e-003
6.036197e+002,4.930092e-003
6.055482e+002,5.309952e-003
6.074767e+002,4.509883e-003
6.094052e+002,4.867864e-003
6.113337e+002,6.420728e-003
6.132622e+002,6.610765e-003
6.151907e+002,5.888226e-003
6.171192e+002,6.991931e-003
6.190477e+002,7.111348e-003
6.209762e+002,6.645384e-003
6.229047e+002,4.592519e-003
6.248332e+002,2.999555e-003
6.267617e+002,2.700853e-003
6.286902e+002,3.450633e-003
6.306187e+002,4.455716e-003
6.325472e+002,4.934784e-003
6.344756e+002,5.369325e-003
6.364042e+002,5.249280e-003
6.383326e+002,5.151799e-003
6.402612e+002,4.828092e-003
6.421896e+002,5.159175e-003
6.441182e+002,4.893565e-003
6.460466e+002,4.731945e-003
6.479752e+002,5.006372e-003
6.499036e+002,4.995546e-003
6.518322e+002,5.356108e-003
6.537606e+002,5.424848e-003
6.556891e+002,4.689808e-003
6.576177e+002,4.527795e-003
6.595461e+002,4.497429e-003
6.614746e+002,3.695980e-003
6.634031e+002,3.540283e-003
6.653317e+002,5.292042e-003
6.672601e+002,1.007174e-002
6.691886e+002,9.054978e-003
6.711171e+002,5.702466e-003
6.730457e+002,5.267558e-003
6.749741e+002,5.126451e-003
6.769026e+002,5.029032e-003
6.788311e+002,5.202364e-003
6.807596e+002,5.512088e-003
6.826881e+002,5.510142e-003
6.846166e+002,5.547862e-003
6.865451e+002,5.490008e-003
6.884736e+002,5.351143e-003
6.904021e+002,5.112303e-003
6.923306e+002,5.186302e-003
6.942591e+002,5.437765e-003
6.961876e+002,5.380530e-003
6.981161e+002,5.387575e-003
7.000446e+002,5.406966e-003
7.019731e+002,4.762730e-003
7.039016e+002,4.560910e-003
7.058301e+002,4.604340e-003
7.077585e+002,4.604775e-003
7.096871e+002,4.973459e-003
7.116156e+002,5.326120e-003
7.135441e+002,5.090646e-003
7.154725e+002,4.882205e-003
7.174011e+002,4.673698e-003
7.193296e+002,4.975738e-003
7.212581e+002,5.115387e-003
7.231865e+002,5.355672e-003
7.251151e+002,5.863742e-003
7.270436e+002,6.001360e-003
7.289720e+002,5.911704e-003
7.309005e+002,6.086263e-003
7.328290e+002,6.249631e-003
7.347576e+002,6.096713e-003
7.366860e+002,5.978146e-003
7.386145e+002,5.936425e-003
7.405430e+002,6.086363e-003
7.424716e+002,5.994372e-003
7.444000e+002,5.785397e-003
7.463285e+002,6.378897e-003
7.482570e+002,6.762047e-003
7.501855e+002,6.608007e-003
7.521140e+002,6.828788e-003
7.540425e+002,7.194885e-003
7.559710e+002,7.235109e-003
7.578995e+002,7.353211e-003
7.598280e+002,7.195963e-003
7.617565e+002,7.581587e-003
7.636850e+002,7.987365e-003
7.656135e+002,8.255247e-003
7.675420e+002,8.330189e-003
7.694705e+002,7.876885e-003
7.713990e+002,7.412325e-003
7.733275e+002,7.572450e-003
7.752560e+002,7.542409e-003
7.771844e+002,7.425436e-003
7.791130e+002,7.075108e-003
7.810415e+002,6.738894e-003
7.829700e+002,6.523203e-003
7.848984e+002,6.846460e-003
7.868270e+002,7.371645e-003
7.887555e+002,7.556974e-003
7.906840e+002,7.332689e-003
7.926124e+002,7.088277e-003
7.945410e+002,6.962941e-003
7.964695e+002,6.843026e-003
7.983979e+002,6.752591e-003
8.003264e+002,6.909039e-003
8.022549e+002,7.390653e-003
8.041835e+002,7.593793e-003
8.061119e+002,7.240028e-003
8.080404e+002,7.450143e-003
8.099689e+002,8.159284e-003
8.118975e+002,8.695661e-003
8.138259e+002,9.009645e-003
8.157545e+002,8.642321e-003
8.176830e+002,8.492579e-003
8.196115e+002,8.260109e-003
8.215399e+002,7.941064e-003
8.234684e+002,7.447851e-003
8.253970e+002,7.109697e-003
8.273254e+002,6.836160e-003
8.292539e+002,6.255514e-003
8.311824e+002,5.879561e-003
8.331110e+002,5.806552e-003
8.350394e+002,5.627104e-003
8.369679e+002,5.828715e-003
8.388964e+002,6.031160e-003
8.408250e+002,5.854137e-003
8.427534e+002,5.297710e-003
8.446819e+002,4.969973e-003
8.466104e+002,5.278022e-003
8.485389e+002,5.434309e-003
8.504674e+002,5.215543e-003
8.523959e+002,5.431692e-003
8.543244e+002,5.574374e-003
8.562529e+002,5.384757e-003
8.581814e+002,5.618007e-003
8.601099e+002,5.731608e-003
8.620384e+002,5.393110e-003
8.639669e+002,5.520813e-003
8.658954e+002,5.544539e-003
8.678239e+002,4.913034e-003
8.697524e+002,4.919000e-003
8.716809e+002,5.304988e-003
8.736094e+002,5.510980e-003
8.755378e+002,5.418104e-003
8.774664e+002,5.619719e-003
8.793949e+002,5.470479e-003
8.813234e+002,5.156862e-003
8.832518e+002,5.081024e-003
8.851804e+002,4.940514e-003
8.871089e+002,4.766549e-003
8.890374e+002,4.491637e-003
8.909658e+002,4.585052e-003
8.928943e+002,4.649651e-003
8.948229e+002,4.555619e-003
8.967513e+002,4.355903e-003
8.986798e+002,4.234899e-003
9.006083e+002,4.072521e-003
9.025369e+002,4.129015e-003
9.044653e+002,4.541154e-003
9.063938e+002,4.507339e-003
9.083223e+002,4.318353e-003
9.102509e+002,3.790828e-003
9.121793e+002,4.007339e-003
9.141078e+002,4.322269e-003
9.160364e+002,4.364738e-003
9.179648e+002,4.369123e-003
9.198933e+002,4.283953e-003
9.218218e+002,4.031719e-003
9.237504e+002,3.632325e-003
9.256788e+002,3.629685e-003
9.276073e+002,3.736684e-003
9.295358e+002,4.007841e-003
9.314644e+002,4.163504e-003
9.333928e+002,4.157014e-003
9.353213e+002,4.401556e-003
9.372498e+002,4.463483e-003
9.391783e+002,4.035498e-003
9.411068e+002,4.208635e-003
9.430353e+002,4.646536e-003
9.449637e+002,4.864781e-003
9.468923e+002,4.965885e-003
9.488208e+002,4.775159e-003
9.507493e+002,4.686660e-003
9.526777e+002,4.775226e-003
9.546063e+002,4.826384e-003
9.565348e+002,4.728729e-003
9.584633e+002,4.791641e-003
9.603917e+002,4.710240e-003
9.623203e+002,4.485175e-003
9.642488e+002,4.410526e-003
9.661772e+002,4.506770e-003
9.681057e+002,4.395698e-003
9.700343e+002,4.171801e-003
9.719628e+002,4.289474e-003
9.738912e+002,4.142195e-003
9.758197e+002,3.783441e-003
9.777483e+002,3.766663e-003
9.796768e+002,3.998176e-003
9.816052e+002,3.859521e-003
9.835337e+002,3.687224e-003
9.854623e+002,3.580305e-003
9.873907e+002,3.670450e-003
9.893192e+002,3.835786e-003
9.912477e+002,3.842639e-003
9.931763e+002,4.102657e-003
9.951047e+002,4.029177e-003
9.970332e+002,3.800688e-003
9.989617e+002,4.222620e-003
1.000890e+003,4.600857e-003
1.002819e+003,4.850038e-003
1.004747e+003,4.911091e-003
1.006676e+003,4.982307e-003
1.008604e+003,5.137113e-003
1.010533e+003,5.303815e-003
1.012461e+003,5.707704e-003
1.014390e+003,6.057266e-003
1.016318e+003,6.346754e-003
1.018247e+003,6.635156e-003
1.020175e+003,6.836227e-003
1.022104e+003,6.970381e-003
1.024032e+003,7.253977e-003
1.025961e+003,7.684675e-003
1.027889e+003,7.951390e-003
1.029818e+003,7.906983e-003
1.031746e+003,7.918556e-003
1.033675e+003,7.996275e-003
1.035603e+003,8.206654e-003
1.037532e+003,8.479368e-003
1.039460e+003,8.674263e-003
1.041389e+003,8.795936e-003
1.043317e+003,8.871613e-003
1.045246e+003,9.037048e-003
1.047174e+003,9.087763e-003
1.049103e+003,9.108436e-003
1.051031e+003,8.954813e-003
1.052960e+003,8.910776e-003
1.054888e+003,8.974093e-003
1.056817e+003,9.146910e-003
1.058745e+003,9.244412e-003
1.060674e+003,9.396648e-003
1.062602e+003,9.365905e-003
1.064531e+003,9.239403e-003
1.066459e+003,9.371221e-003
1.068388e+003,9.525331e-003
1.070316e+003,9.642939e-003
1.072245e+003,9.734385e-003
1.074173e+003,9.553172e-003
1.076102e+003,9.453298e-003
1.078030e+003,9.659539e-003
1.079959e+003,9.575865e-003
1.081887e+003,9.469959e-003
1.083816e+003,9.743229e-003
1.085744e+003,9.787961e-003
1.087673e+003,9.910589e-003
1.089601e+003,1.024846e-002
1.091530e+003,1.043950e-002
1.093458e+003,1.050752e-002
1.095387e+003,1.057008e-002
1.097315e+003,1.053892e-002
1.099244e+003,1.042399e-002
1.101172e+003,1.047744e-002
1.103101e+003,1.046583e-002
1.105029e+003,1.055535e-002
1.106958e+003,1.051054e-002
1.108886e+003,1.043498e-002
1.110815e+003,1.051190e-002
1.112743e+003,1.041170e-002
1.114672e+003,1.034665e-002
1.116600e+003,1.068176e-002
1.118529e+003,1.092909e-002
1.120457e+003,1.068152e-002
1.122386e+003,1.070699e-002
1.124314e+003,1.077261e-002
1.126243e+003,1.051454e-002
1.128171e+003,1.021311e-002
1.130100e+003,1.029965e-002
1.132028e+003,1.027617e-002
1.133957e+003,1.018499e-002
1.135885e+003,1.003207e-002
1.137814e+003,9.694301e-003
1.139742e+003,9.262757e-003
1.141671e+003,9.102042e-003
1.143599e+003,8.970948e-003
1.145528e+003,8.691942e-003
1.147456e+003,8.389166e-003
1.149385e+003,8.070126e-003
1.151313e+003,7.702448e-003
1.153242e+003,7.483885e-003
1.155170e+003,7.399247e-003
1.157099e+003,7.159649e-003
1.159027e+003,6.967857e-003
1.160956e+003,6.685121e-003
1.162884e+003,6.538003e-003
1.164813e+003,6.442351e-003
1.166741e+003,6.324396e-003
1.168670e+003,6.260287e-003
1.170598e+003,6.178576e-003
1.172526e+003,6.169334e-003
1.174455e+003,6.024742e-003
1.176384e+003,6.028438e-003
1.178312e+003,6.038215e-003
1.180240e+003,5.868746e-003
1.182169e+003,5.696893e-003
1.184098e+003,5.662215e-003
1.186026e+003,5.540143e-003
1.187954e+003,5.472525e-003
1.189883e+003,5.258301e-003
1.191812e+003,5.133861e-003
1.193740e+003,5.146836e-003
1.195668e+003,4.928651e-003
1.197597e+003,4.670114e-003
1.199526e+003,4.665860e-003
1.201454e+003,4.893465e-003
1.203382e+003,5.157230e-003
1.205311e+003,5.113141e-003
1.207240e+003,5.036674e-003
1.209168e+003,4.970510e-003
1.211096e+003,5.009724e-003
1.213025e+003,5.204477e-003
1.214953e+003,5.255920e-003
1.216882e+003,5.149418e-003
1.218810e+003,5.054373e-003
1.220739e+003,5.091551e-003
1.222667e+003,5.246765e-003
1.224596e+003,5.295899e-003
1.226524e+003,5.266585e-003
1.228453e+003,5.258435e-003
1.230381e+003,5.098725e-003
1.232310e+003,4.932739e-003
1.234238e+003,4.953451e-003
1.236167e+003,5.080823e-003
1.238095e+003,5.302775e-003
1.240024e+003,5.472525e-003
1.241952e+003,5.463600e-003
1.243881e+003,5.333768e-003
1.245809e+003,5.369023e-003
1.247738e+003,5.577395e-003
1.249666e+003,5.930514e-003
1.251595e+003,6.094193e-003
1.253523e+003,6.251379e-003
1.255452e+003,6.586005e-003
1.257380e+003,6.829899e-003
1.259309e+003,7.026008e-003
1.261237e+003,7.341012e-003
1.263166e+003,7.618678e-003
1.265094e+003,8.071274e-003
1.267023e+003,8.606461e-003
1.268951e+003,8.975075e-003
1.270880e+003,9.188771e-003
1.272808e+003,9.294847e-003
1.274737e+003,9.513544e-003
1.276665e+003,9.882962e-003
1.278594e+003,1.034692e-002
1.280522e+003,1.083100e-002
1.282451e+003,1.120423e-002
1.284379e+003,1.159517e-002
1.286308e+003,1.192907e-002
1.288236e+003,1.233228e-002
1.290165e+003,1.276917e-002
1.292093e+003,1.309807e-002
1.294022e+003,1.350060e-002
1.295950e+003,1.393668e-002
1.297879e+003,1.414921e-002
1.299807e+003,1.413880e-002
1.301736e+003,1.411008e-002
1.303664e+003,1.402185e-002
1.305593e+003,1.384151e-002
1.307521e+003,1.381346e-002
1.309450e+003,1.359737e-002
1.311378e+003,1.317594e-002
1.313307e+003,1.276215e-002
1.315235e+003,1.252455e-002
1.317164e+003,1.233167e-002
1.319092e+003,1.176032e-002
1.321021e+003,1.117203e-002
1.322949e+003,1.082869e-002
1.324878e+003,1.053586e-002
1.326806e+003,1.017484e-002
1.328735e+003,1.010006e-002
1.330663e+003,1.012020e-002
1.332592e+003,1.005845e-002
1.334520e+003,9.948321e-003
1.336449e+003,9.908658e-003
1.338377e+003,9.955270e-003
1.340306e+003,9.920116e-003
1.342234e+003,9.883065e-003
1.344163e+003,9.894386e-003
1.346091e+003,9.843678e-003
1.348020e+003,9.779116e-003
1.349948e+003,9.576069e-003
1.351877e+003,9.397360e-003
1.353805e+003,9.397596e-003
1.355734e+003,9.394414e-003
1.357662e+003,9.262385e-003
1.359591e+003,9.106711e-003
1.361519e+003,8.994659e-003
1.363448e+003,8.868366e-003
1.365376e+003,8.588514e-003
1.367305e+003,8.460717e-003
1.369233e+003,8.513866e-003
1.371162e+003,8.536810e-003
1.373090e+003,8.725409e-003
1.375019e+003,8.726086e-003
1.376947e+003,8.682004e-003
1.378876e+003,8.719358e-003
1.380804e+003,8.713543e-003
1.382733e+003,8.689711e-003
1.384661e+003,8.741840e-003
1.386590e+003,8.792047e-003
1.388518e+003,8.550732e-003
1.390447e+003,7.987332e-003
1.392375e+003,7.788359e-003
1.394304e+003,7.801954e-003
1.396232e+003,7.569180e-003
1.398161e+003,7.532599e-003
1.400089e+003,7.500606e-003
1.402018e+003,7.445087e-003
1.403946e+003,7.397765e-003
1.405875e+003,7.118825e-003
1.407803e+003,6.812901e-003
1.409732e+003,6.709483e-003
1.411660e+003,6.758951e-003
1.413589e+003,6.914964e-003
1.415517e+003,7.203778e-003
1.417446e+003,7.720425e-003
1.419374e+003,8.366195e-003
1.421303e+003,8.728147e-003
1.423231e+003,9.393533e-003
1.425160e+003,1.002732e-002
1.427088e+003,1.039527e-002
1.429017e+003,1.083443e-002
1.430945e+003,1.119818e-002
1.432874e+003,1.154763e-002
1.434802e+003,1.222628e-002
1.436731e+003,1.285794e-002
1.438659e+003,1.289852e-002
1.440588e+003,1.317252e-002
1.442516e+003,1.376677e-002
1.444445e+003,1.430759e-002
1.446373e+003,1.502075e-002
1.448302e+003,1.566731e-002
1.450230e+003,1.606318e-002
1.452159e+003,1.654081e-002
1.454087e+003,1.733975e-002
1.456016e+003,1.850604e-002
1.457944e+003,1.896221e-002
1.459873e+003,1.862452e-002
1.461801e+003,1.855528e-002
1.463730e+003,1.887703e-002
1.465658e+003,1.906543e-002
1.467587e+003,1.879475e-002
1.469515e+003,1.866820e-002
1.471444e+003,1.887855e-002
1.473372e+003,1.877990e-002
1.475301e+003,1.813523e-002
1.477229e+003,1.742242e-002
1.479158e+003,1.669859e-002
1.481086e+003,1.623950e-002
1.483015e+003,1.557543e-002
1.484943e+003,1.501636e-002
1.486872e+003,1.476519e-002
1.488800e+003,1.440944e-002
1.490729e+003,1.393839e-002
1.492657e+003,1.322932e-002
1.494586e+003,1.277866e-002
1.496514e+003,1.252462e-002
1.498443e+003,1.197225e-002
1.500371e+003,1.131988e-002
1.502300e+003,1.084846e-002
1.504228e+003,1.088020e-002
1.506157e+003,1.126333e-002
1.508085e+003,1.069711e-002
1.510014e+003,9.990632e-003
1.511942e+003,9.646293e-003
1.513871e+003,9.432404e-003
1.515799e+003,9.605336e-003
1.517728e+003,9.741637e-003
1.519656e+003,9.888996e-003
1.521585e+003,1.006055e-002
1.523513e+003,9.791146e-003
1.525442e+003,9.964492e-003
1.527370e+003,9.945913e-003
1.529299e+003,9.909979e-003
1.531227e+003,1.015856e-002
1.533156e+003,1.077108e-002
1.535084e+003,1.092338e-002
1.537013e+003,1.114521e-002
1.538941e+003,1.210255e-002
1.540870e+003,1.274055e-002
1.542798e+003,1.280183e-002
1.544727e+003,1.273110e-002
1.546655e+003,1.251299e-002
1.548584e+003,1.269343e-002
1.550512e+003,1.309394e-002
1.552441e+003,1.347664e-002
1.554369e+003,1.401230e-002
1.556298e+003,1.460236e-002
1.558226e+003,1.574107e-002
1.560155e+003,1.614423e-002
1.562083e+003,1.574207e-002
1.564012e+003,1.599095e-002
1.565940e+003,1.630761e-002
1.567869e+003,1.669236e-002
1.569797e+003,1.719229e-002
1.571726e+003,1.717575e-002
1.573654e+003,1.734375e-002
1.575583e+003,1.790321e-002
1.577511e+003,1.786091e-002
1.579440e+003,1.756941e-002
1.581368e+003,1.744005e-002
1.583297e+003,1.714634e-002
1.585225e+003,1.691254e-002
1.587154e+003,1.667597e-002
1.589082e+003,1.627352e-002
1.591010e+003,1.579244e-002
1.592939e+003,1.539880e-002
1.594868e+003,1.502158e-002
1.596796e+003,1.444969e-002
1.598724e+003,1.386200e-002
1.600653e+003,1.329550e-002
1.602582e+003,1.283514e-002
1.604510e+003,1.228017e-002
1.606438e+003,1.168662e-002
1.608367e+003,1.118635e-002
1.610296e+003,1.068590e-002
1.612224e+003,1.025015e-002
1.614152e+003,1.011891e-002
1.616081e+003,1.013740e-002
1.618010e+003,9.715918e-003
1.619938e+003,9.257104e-003
1.621866e+003,9.244243e-003
1.623795e+003,9.026222e-003
1.625724e+003,8.708371e-003
1.627652e+003,8.496229e-003
1.629580e+003,8.268215e-003
1.631509e+003,7.966070e-003
1.633438e+003,8.101149e-003
1.635366e+003,8.338363e-003
1.637294e+003,7.881642e-003
1.639223e+003,7.204014e-003
1.641151e+003,6.697335e-003
1.643080e+003,6.318849e-003
1.645008e+003,6.356101e-003
1.646937e+003,6.279885e-003
1.648865e+003,5.644626e-003
1.650794e+003,5.582295e-003
1.652722e+003,6.211649e-003
1.654651e+003,5.366138e-003
1.656579e+003,4.377658e-003
1.658508e+003,4.030916e-003
1.660436e+003,3.856044e-003
1.662365e+003,3.767833e-003
1.664293e+003,3.496658e-003
1.666222e+003,3.208629e-003
1.668150e+003,3.309047e-003
1.670079e+003,3.281269e-003
1.672007e+003,2.896474e-003
1.673936e+003,2.780945e-003
1.675864e+003,2.578110e-003
1.677793e+003,1.928635e-003
1.679721e+003,1.601268e-003
1.681650e+003,1.646533e-003
1.683578e+003,2.147816e-003
1.685507e+003,1.945609e-003
1.687435e+003,1.462910e-003
1.689364e+003,1.285248e-003
1.691292e+003,1.114667e-003
1.693221e+003,1.150910e-003
1.695149e+003,1.644437e-003
1.697078e+003,1.643672e-003
1.699006e+003,1.813064e-003
1.700935e+003,2.024829e-003
1.702863e+003,1.455762e-003
1.704792e+003,1.417432e-003
1.706720e+003,1.299571e-003
1.708649e+003,9.746703e-004
1.710577e+003,7.623540e-004
1.712506e+003,8.433175e-004
1.714434e+003,1.118221e-003
1.716363e+003,1.393631e-003
1.718291e+003,1.386784e-003
1.720220e+003,9.751685e-004
1.722148e+003,8.355491e-004
1.724077e+003,8.028173e-004
1.726005e+003,7.439659e-004
1.727934e+003,7.899709e-004
1.729862e+003,8.756208e-004
1.731791e+003,1.066734e-003
1.733719e+003,1.478569e-003
1.735648e+003,1.212309e-003
1.737576e+003,9.754010e-004
1.739505e+003,1.163568e-003
1.741433e+003,1.025017e-003
1.743362e+003,9.598929e-004
1.745290e+003,9.458131e-004
1.747219e+003,9.828729e-004
1.749147e+003,1.026811e-003
1.751076e+003,1.107026e-003
1.753004e+003,9.708846e-004
1.754933e+003,8.711719e-004
1.756861e+003,8.935496e-004
1.758790e+003,6.945475e-004
1.760718e+003,7.396843e-004
1.762647e+003,8.760856e-004
1.764575e+003,6.912952e-004
1.766504e+003,6.720141e-004
1.768432e+003,7.893734e-004
1.770361e+003,8.845851e-004
1.772289e+003,1.052651e-003
1.774218e+003,9.021159e-004
1.776146e+003,6.863836e-004
1.778075e+003,5.768157e-004
1.780003e+003,6.122514e-004
1.781932e+003,5.740288e-004
1.783860e+003,5.425774e-004
1.785789e+003,6.057480e-004
1.787717e+003,5.789723e-004
1.789646e+003,5.545539e-004
1.791574e+003,7.590348e-004
1.793503e+003,8.205107e-004
1.795431e+003,6.828659e-004
1.797360e+003,6.779543e-004
1.799288e+003,6.559859e-004
1.801217e+003,6.048190e-004
1.803145e+003,5.138151e-004
1.805074e+003,4.997168e-004
1.807002e+003,5.477196e-004
1.808931e+003,4.741418e-004
1.810859e+003,4.630630e-004
1.812788e+003,4.678395e-004
1.814716e+003,4.700950e-004
1.816645e+003,4.542401e-004
1.818573e+003,4.139088e-004
1.820502e+003,3.571993e-004
1.822430e+003,3.441339e-004
1.824359e+003,4.246546e-004
1.826287e+003,5.033989e-004
1.828216e+003,6.298044e-004
1.830144e+003,7.053003e-004
1.832073e+003,4.474405e-004
1.834001e+003,3.992498e-004
1.835930e+003,4.302929e-004
1.837858e+003,3.502686e-004
1.839787e+003,3.669820e-004
1.841715e+003,4.657498e-004
1.843644e+003,6.921249e-004
1.845572e+003,6.170294e-004
1.847501e+003,4.390822e-004
1.849429e+003,4.159319e-004
1.851358e+003,4.105591e-004
1.853286e+003,3.873108e-004
1.855215e+003,4.021020e-004
1.857143e+003,4.583862e-004
1.859072e+003,3.850225e-004
1.861000e+003,3.327269e-004
1.862929e+003,3.472178e-004
1.864857e+003,4.238254e-004
1.866786e+003,5.387954e-004
1.868714e+003,6.160672e-004
1.870643e+003,4.849554e-004
1.872571e+003,3.473836e-004
1.874500e+003,3.543806e-004
1.876428e+003,3.930150e-004
1.878357e+003,4.668112e-004
1.880285e+003,4.760325e-004
1.882214e+003,4.058496e-004
1.884142e+003,3.994156e-004
1.886071e+003,3.756373e-004
1.887999e+003,4.316196e-004
1.889928e+003,5.077777e-004
1.891856e+003,4.271089e-004
1.893785e+003,4.740423e-004
1.895713e+003,5.055883e-004
1.897642e+003,4.341071e-004
1.899570e+003,4.908599e-004
1.901499e+003,5.253928e-004
1.903427e+003,4.793163e-004
1.905356e+003,5.738629e-004
1.907284e+003,5.640424e-004
1.909213e+003,5.140806e-004
1.911141e+003,5.013754e-004
1.913070e+003,5.449991e-004
1.914998e+003,6.799786e-004
1.916927e+003,8.160292e-004
1.918855e+003,8.336236e-004
1.920784e+003,6.738061e-004
1.922712e+003,6.367063e-004
1.924641e+003,6.138441e-004
1.926569e+003,6.812065e-004
1.928498e+003,6.627555e-004
1.930426e+003,6.371377e-004
1.932355e+003,5.865702e-004
1.934283e+003,5.107301e-004
1.936212e+003,5.021052e-004
1.938140e+003,4.935800e-004
1.940069e+003,5.652700e-004
1.941997e+003,6.961737e-004
1.943926e+003,6.851557e-004
1.945854e+003,5.911821e-004
1.947783e+003,5.804985e-004
1.949711e+003,6.004392e-004
1.951640e+003,5.774793e-004
1.953568e+003,5.224403e-004
1.955497e+003,5.408522e-004
1.957425e+003,5.229379e-004
1.959354e+003,5.577719e-004
1.961282e+003,6.002070e-004
1.963211e+003,6.039895e-004
1.965139e+003,5.994438e-004
1.967068e+003,5.666634e-004
1.968996e+003,4.807759e-004
1.970925e+003,4.912579e-004
1.972853e+003,5.886937e-004
1.974782e+003,6.773238e-004
1.976710e+003,6.590388e-004
1.978639e+003,6.873128e-004
1.980567e+003,6.698903e-004
1.982496e+003,6.215421e-004
1.984424e+003,6.865163e-004
1.986353e+003,7.726105e-004
1.988281e+003,7.177791e-004
1.990210e+003,7.191731e-004
1.992138e+003,8.080953e-004
1.994067e+003,7.961119e-004
1.995995e+003,7.184097e-004
1.997924e+003,6.904324e-004
1.999852e+003,6.904324e-004
2.001781e+003,6.603662e-004
2.003709e+003,7.232221e-004
2.005638e+003,7.504381e-004
2.007566e+003,8.278473e-004
2.009495e+003,8.842863e-004
2.011423e+003,8.107511e-004
2.013352e+003,8.215067e-004
2.015280e+003,8.680178e-004
2.017208e+003,9.086569e-004
2.019137e+003,9.158289e-004
2.021066e+003,8.625730e-004
2.022994e+003,8.531112e-004
2.024922e+003,9.013522e-004
2.026851e+003,1.029136e-003
2.028780e+003,1.061386e-003
2.030708e+003,1.056437e-003
2.032636e+003,1.090218e-003
2.034565e+003,1.056736e-003
2.036494e+003,9.949944e-004
2.038422e+003,1.026778e-003
2.040350e+003,1.044347e-003
2.042279e+003,1.078526e-003
2.044208e+003,1.184665e-003
2.046136e+003,1.172705e-003
2.048064e+003,1.146558e-003
2.049993e+003,1.225699e-003
2.051921e+003,1.215299e-003
2.053850e+003,1.244075e-003
2.055778e+003,1.309973e-003
2.057707e+003,1.368037e-003
2.059635e+003,1.392435e-003
2.061564e+003,1.469626e-003
2.063492e+003,1.418729e-003
2.065421e+003,1.376280e-003
2.067349e+003,1.441301e-003
2.069278e+003,1.396457e-003
2.071206e+003,1.481229e-003
2.073135e+003,1.719943e-003
2.075063e+003,1.745292e-003
2.076992e+003,1.723336e-003
2.078920e+003,1.722671e-003
2.080849e+003,1.773371e-003
2.082777e+003,1.759930e-003
2.084706e+003,1.697822e-003
2.086634e+003,1.611112e-003
2.088563e+003,1.634093e-003
2.090491e+003,1.768880e-003
2.092420e+003,1.856320e-003
2.094348e+003,1.891394e-003
2.096277e+003,1.818687e-003
2.098205e+003,1.813197e-003
2.100134e+003,1.922544e-003
2.102062e+003,2.065577e-003
2.103991e+003,2.133165e-003
2.105919e+003,2.210987e-003
2.107848e+003,2.295452e-003
2.109776e+003,2.285659e-003
2.111705e+003,2.188941e-003
2.113633e+003,2.212386e-003
2.115562e+003,2.273069e-003
2.117490e+003,2.278298e-003
2.119419e+003,2.361110e-003
2.121347e+003,2.408886e-003
2.123276e+003,2.454135e-003
2.125204e+003,2.515718e-003
2.127133e+003,2.549546e-003
2.129061e+003,2.642677e-003
2.130990e+003,2.704954e-003
2.132918e+003,2.631276e-003
2.134847e+003,2.654545e-003
2.136775e+003,2.743698e-003
2.138704e+003,2.764205e-003
2.140632e+003,2.738730e-003
2.142561e+003,2.722458e-003
2.144489e+003,2.743565e-003
2.146418e+003,2.796385e-003
2.148346e+003,2.902011e-003
2.150275e+003,2.980205e-003
2.152203e+003,2.983174e-003
2.154132e+003,2.962390e-003
2.156060e+003,2.962156e-003
2.157989e+003,2.995085e-003
2.159917e+003,2.995218e-003
2.161846e+003,2.933667e-003
2.163774e+003,2.963190e-003
2.165703e+003,3.077033e-003
2.167631e+003,3.084174e-003
2.169560e+003,3.140139e-003
2.171488e+003,3.136401e-003
2.173417e+003,3.068156e-003
2.175345e+003,3.039126e-003
2.177274e+003,3.124687e-003
2.179202e+003,3.227322e-003
2.181131e+003,3.140640e-003
2.183059e+003,3.059347e-003
2.184988e+003,3.184563e-003
2.186916e+003,3.259236e-003
2.188845e+003,3.173315e-003
2.190773e+003,3.115376e-003
2.192702e+003,3.072161e-003
2.194630e+003,3.027615e-003
2.196559e+003,3.069825e-003
2.198487e+003,3.093718e-003
2.200416e+003,3.047335e-003
2.202344e+003,3.006095e-003
2.204273e+003,3.022744e-003
2.206201e+003,3.001123e-003
2.208130e+003,3.029617e-003
2.210058e+003,3.072027e-003
2.211987e+003,3.026981e-003
2.213915e+003,3.027915e-003
2.215844e+003,3.037625e-003
2.217772e+003,3.054976e-003
2.219701e+003,3.035723e-003
2.221629e+003,2.982273e-003
2.223558e+003,2.931732e-003
2.225486e+003,2.922225e-003
2.227415e+003,2.832636e-003
2.229343e+003,2.761704e-003
2.231272e+003,2.815627e-003
2.233200e+003,2.857216e-003
2.235129e+003,2.862452e-003
2.237057e+003,2.821897e-003
2.238986e+003,2.781211e-003
2.240914e+003,2.756302e-003
2.242843e+003,2.784413e-003
2.244771e+003,2.749200e-003
2.246700e+003,2.740697e-003
2.248628e+003,2.714690e-003
2.250557e+003,2.557311e-003
2.252485e+003,2.562911e-003
2.254414e+003,2.696252e-003
2.256342e+003,2.728326e-003
2.258271e+003,2.668113e-003
2.260199e+003,2.719624e-003
2.262128e+003,2.849211e-003
2.264056e+003,2.762204e-003
2.265985e+003,2.692251e-003
2.267913e+003,2.774309e-003
2.269842e+003,2.786580e-003
2.271770e+003,2.690617e-003
2.273699e+003,2.639910e-003
2.275627e+003,2.615576e-003
2.277556e+003,2.597176e-003
2.279484e+003,2.635610e-003
2.281413e+003,2.680849e-003
2.283341e+003,2.632510e-003
2.285270e+003,2.566877e-003
2.287198e+003,2.573677e-003
2.289127e+003,2.744198e-003
2.291055e+003,2.817094e-003
2.292984e+003,2.801087e-003
2.294912e+003,2.819262e-003
2.296841e+003,2.965359e-003
2.298769e+003,3.253561e-003
2.300698e+003,3.385711e-003
2.302626e+003,3.468768e-003
2.304555e+003,3.614015e-003
2.306483e+003,3.884360e-003
2.308412e+003,4.150190e-003
2.310340e+003,4.450326e-003
2.312269e+003,4.962566e-003
2.314197e+003,5.500343e-003
2.316125e+003,6.127393e-003
2.318054e+003,6.822965e-003
2.319983e+003,7.515439e-003
2.321911e+003,8.192777e-003
2.323840e+003,8.835564e-003
2.325768e+003,9.335436e-003
2.327697e+003,9.977579e-003
2.329625e+003,1.072275e-002
2.331553e+003,1.104279e-002
2.333482e+003,1.117968e-002
2.335411e+003,1.141154e-002
2.337339e+003,1.166174e-002
2.339268e+003,1.171511e-002
2.341196e+003,1.148288e-002
2.343125e+003,1.096905e-002
2.345053e+003,9.762477e-003
2.346981e+003,7.708789e-003
2.348910e+003,6.483650e-003
2.350839e+003,7.823713e-003
2.352767e+003,1.043743e-002
2.354696e+003,1.253461e-002
2.356624e+003,1.382495e-002
2.358552e+003,1.445682e-002
2.360481e+003,1.468440e-002
2.362409e+003,1.470445e-002
2.364338e+003,1.441074e-002
2.366267e+003,1.373254e-002
2.368195e+003,1.272799e-002
2.370124e+003,1.145209e-002
2.372052e+003,9.998973e-003
2.373980e+003,8.596119e-003
2.375909e+003,7.176559e-003
2.377838e+003,5.866866e-003
2.379766e+003,4.888505e-003
2.381695e+003,4.276156e-003
2.383623e+003,3.940596e-003
2.385552e+003,3.730401e-003
2.387480e+003,3.681544e-003
2.389408e+003,3.750854e-003
2.391337e+003,3.813491e-003
2.393266e+003,3.877373e-003
2.395194e+003,3.954338e-003
2.397123e+003,4.035297e-003
2.399051e+003,4.117843e-003
2.400979e+003,4.130955e-003
2.402908e+003,4.114164e-003
2.404836e+003,4.202947e-003
2.406765e+003,4.272006e-003
2.408694e+003,4.233795e-003
2.410622e+003,4.239483e-003
2.412551e+003,4.342583e-003
2.414479e+003,4.401891e-003
2.416407e+003,4.434560e-003
2.418336e+003,4.419497e-003
2.420264e+003,4.360789e-003
2.422193e+003,4.399882e-003
2.424122e+003,4.497194e-003
2.426050e+003,4.575140e-003
2.427979e+003,4.609062e-003
2.429907e+003,4.630696e-003
2.431835e+003,4.682004e-003
2.433764e+003,4.773350e-003
2.435692e+003,4.787688e-003
2.437621e+003,4.760686e-003
2.439550e+003,4.755896e-003
2.441478e+003,4.757739e-003
2.443406e+003,4.776096e-003
2.445335e+003,4.831644e-003
2.447263e+003,4.874867e-003
2.449192e+003,4.969404e-003
2.451121e+003,5.028763e-003
2.453049e+003,4.999066e-003
2.454978e+003,5.053937e-003
2.456906e+003,5.192103e-003
2.458834e+003,5.193143e-003
2.460763e+003,5.150391e-003
2.462691e+003,5.122931e-003
2.464620e+003,5.153978e-003
2.466549e+003,5.237274e-003
2.468477e+003,5.243545e-003
2.470406e+003,5.304049e-003
2.472334e+003,5.304284e-003
2.474262e+003,5.372814e-003
2.476191e+003,5.440751e-003
2.478119e+003,5.508866e-003
2.480048e+003,5.523095e-003
2.481977e+003,5.632776e-003
2.483905e+003,5.739363e-003
2.485833e+003,5.715022e-003
2.487762e+003,5.714989e-003
2.489690e+003,5.743191e-003
2.491619e+003,5.857126e-003
2.493547e+003,6.025347e-003
2.495476e+003,6.076182e-003
2.497405e+003,6.043792e-003
2.499333e+003,5.998000e-003
2.501261e+003,6.009255e-003
2.503190e+003,5.987687e-003
2.505118e+003,6.058912e-003
2.507047e+003,6.161739e-003
2.508975e+003,6.098158e-003
2.510904e+003,6.109012e-003
2.512833e+003,6.240051e-003
2.514761e+003,6.236791e-003
2.516689e+003,6.187281e-003
2.518618e+003,6.333373e-003
2.520546e+003,6.464682e-003
2.522475e+003,6.376342e-003
2.524403e+003,6.310074e-003
2.526332e+003,6.322244e-003
2.528260e+003,6.364473e-003
2.530189e+003,6.430715e-003
2.532117e+003,6.425099e-003
2.534046e+003,6.353041e-003
2.535974e+003,6.458325e-003
2.537903e+003,6.553140e-003
2.539831e+003,6.596165e-003
2.541760e+003,6.578638e-003
2.543688e+003,6.589134e-003
2.545617e+003,6.590244e-003
2.547545e+003,6.619916e-003
2.549474e+003,6.627015e-003
2.551402e+003,6.503325e-003
2.553331e+003,6.542780e-003
2.555259e+003,6.724087e-003
2.557188e+003,6.775576e-003
2.559116e+003,6.670619e-003
2.561045e+003,6.600370e-003
2.562973e+003,6.604878e-003
2.564902e+003,6.672268e-003
2.566830e+003,6.706219e-003
2.568759e+003,6.660155e-003
2.570687e+003,6.720957e-003
2.572616e+003,6.825422e-003
2.574544e+003,6.877832e-003
2.576473e+003,6.841040e-003
2.578401e+003,6.846392e-003
2.580330e+003,6.839492e-003
2.582258e+003,6.801121e-003
2.584187e+003,6.824311e-003
2.586115e+003,6.750571e-003
2.588044e+003,6.685760e-003
2.589972e+003,6.829932e-003
2.591901e+003,6.969102e-003
2.593829e+003,6.938464e-003
2.595758e+003,6.846830e-003
2.597686e+003,6.862179e-003
2.599615e+003,6.901868e-003
2.601543e+003,6.991156e-003
2.603472e+003,7.036380e-003
2.605400e+003,7.042745e-003
2.607329e+003,7.126942e-003
2.609257e+003,7.196300e-003
2.611186e+003,7.262433e-003
2.613114e+003,7.340877e-003
2.615043e+003,7.346236e-003
2.616971e+003,7.308393e-003
2.618900e+003,7.357053e-003
2.620828e+003,7.407876e-003
2.622757e+003,7.497032e-003
2.624685e+003,7.491470e-003
2.626614e+003,7.515574e-003
2.628542e+003,7.568607e-003
2.630471e+003,7.544871e-003
2.632399e+003,7.581385e-003
2.634328e+003,7.661607e-003
2.636256e+003,7.653581e-003
2.638185e+003,7.677423e-003
2.640113e+003,7.708654e-003
2.642042e+003,7.678469e-003
2.643970e+003,7.790822e-003
2.645899e+003,7.846250e-003
2.647827e+003,7.878403e-003
2.649756e+003,7.929455e-003
2.651684e+003,7.944472e-003
2.653613e+003,7.959895e-003
2.655541e+003,7.931346e-003
2.657470e+003,7.890651e-003
2.659398e+003,7.924225e-003
2.661327e+003,8.115192e-003
2.663255e+003,8.241368e-003
2.665184e+003,8.156245e-003
2.667112e+003,8.207026e-003
2.669041e+003,8.297326e-003
2.670969e+003,8.251430e-003
2.672898e+003,8.282129e-003
2.674826e+003,8.377680e-003
2.676755e+003,8.403995e-003
2.678683e+003,8.385585e-003
2.680612e+003,8.437643e-003
2.682540e+003,8.562189e-003
2.684469e+003,8.683559e-003
2.686397e+003,8.725003e-003
2.688326e+003,8.722265e-003
2.690254e+003,8.840942e-003
2.692183e+003,8.840231e-003
2.694111e+003,8.689035e-003
2.696040e+003,8.658275e-003
2.697968e+003,8.840603e-003
2.699897e+003,9.059952e-003
2.701825e+003,9.038773e-003
2.703754e+003,9.100485e-003
2.705682e+003,9.261403e-003
2.707611e+003,9.230230e-003
2.709539e+003,9.135135e-003
2.711468e+003,9.103497e-003
2.713396e+003,9.263095e-003
2.715325e+003,9.474496e-003
2.717253e+003,9.477781e-003
2.719182e+003,9.463456e-003
2.721110e+003,9.503554e-003
2.723039e+003,9.589991e-003
2.724967e+003,9.672515e-003
2.726896e+003,9.739265e-003
2.728824e+003,9.832832e-003
2.730753e+003,9.955508e-003
2.732681e+003,9.976222e-003
2.734610e+003,9.958898e-003
2.736538e+003,1.001487e-002
2.738467e+003,1.013791e-002
2.740395e+003,1.030874e-002
2.742324e+003,1.038886e-002
2.744252e+003,1.041964e-002
2.746181e+003,1.050097e-002
2.748109e+003,1.058475e-002
2.750038e+003,1.072676e-002
2.751966e+003,1.089616e-002
2.753895e+003,1.098087e-002
2.755823e+003,1.105986e-002
2.757752e+003,1.117220e-002
2.759680e+003,1.130199e-002
2.761609e+003,1.144301e-002
2.763537e+003,1.168291e-002
2.765466e+003,1.191466e-002
2.767394e+003,1.219990e-002
2.769323e+003,1.251548e-002
2.771251e+003,1.285193e-002
2.773180e+003,1.315404e-002
2.775108e+003,1.358927e-002
2.777037e+003,1.403335e-002
2.778965e+003,1.443260e-002
2.780894e+003,1.499012e-002
2.782822e+003,1.553817e-002
2.784750e+003,1.614619e-002
2.786679e+003,1.679522e-002
2.788608e+003,1.741945e-002
2.790536e+003,1.810362e-002
2.792465e+003,1.876876e-002
2.794393e+003,1.945842e-002
2.796322e+003,2.014751e-002
2.798250e+003,2.065471e-002
2.800178e+003,2.113491e-002
2.802107e+003,2.175030e-002
2.804036e+003,2.231424e-002
2.805964e+003,2.273305e-002
2.807893e+003,2.308953e-002
2.809821e+003,2.333340e-002
2.811750e+003,2.348810e-002
2.813678e+003,2.355526e-002
2.815606e+003,2.362680e-002
2.817535e+003,2.365556e-002
2.819464e+003,2.359969e-002
2.821392e+003,2.339455e-002
2.823321e+003,2.313538e-002
2.825249e+003,2.281151e-002
2.827177e+003,2.246921e-002
2.829106e+003,2.211145e-002
2.831034e+003,2.161732e-002
2.832963e+003,2.112176e-002
2.834892e+003,2.089592e-002
2.836820e+003,2.047933e-002
2.838749e+003,1.992804e-002
2.840677e+003,1.926358e-002
2.842605e+003,1.874479e-002
2.844534e+003,1.827112e-002
2.846462e+003,1.766178e-002
2.848391e+003,1.718957e-002
2.850320e+003,1.680404e-002
2.852248e+003,1.645081e-002
2.854177e+003,1.617917e-002
2.856105e+003,1.610995e-002
2.858033e+003,1.597586e-002
2.859962e+003,1.589120e-002
2.861890e+003,1.576048e-002
2.863819e+003,1.557718e-002
2.865748e+003,1.543125e-002
2.867676e+003,1.542963e-002
2.869604e+003,1.554930e-002
2.871533e+003,1.558268e-002
2.873461e+003,1.564941e-002
2.875390e+003,1.570671e-002
2.877319e+003,1.584955e-002
2.879247e+003,1.599992e-002
2.881176e+003,1.606745e-002
2.883104e+003,1.605270e-002
2.885032e+003,1.617570e-002
2.886961e+003,1.615589e-002
2.888889e+003,1.606944e-002
2.890818e+003,1.600054e-002
2.892747e+003,1.592664e-002
2.894675e+003,1.586037e-002
2.896604e+003,1.580975e-002
2.898532e+003,1.570592e-002
2.900460e+003,1.566065e-002
2.902389e+003,1.563214e-002
2.904317e+003,1.561544e-002
2.906246e+003,1.565996e-002
2.908175e+003,1.561400e-002
2.910103e+003,1.542665e-002
2.912031e+003,1.530197e-002
2.913960e+003,1.528189e-002
2.915888e+003,1.518371e-002
2.917817e+003,1.512013e-002
2.919745e+003,1.533180e-002
2.921674e+003,1.557454e-002
2.923603e+003,1.576564e-002
2.925531e+003,1.588385e-002
2.927459e+003,1.595957e-002
2.929388e+003,1.605882e-002
2.931316e+003,1.615613e-002
2.933245e+003,1.623843e-002
2.935173e+003,1.632939e-002
2.937102e+003,1.627156e-002
2.939031e+003,1.623688e-002
2.940959e+003,1.620816e-002
2.942887e+003,1.600130e-002
2.944816e+003,1.588570e-002
2.946744e+003,1.573372e-002
2.948673e+003,1.553477e-002
2.950601e+003,1.517266e-002
2.952530e+003,1.469842e-002
2.954458e+003,1.419474e-002
2.956387e+003,1.374098e-002
2.958315e+003,1.333779e-002
2.960244e+003,1.276430e-002
2.962172e+003,1.219251e-002
2.964101e+003,1.174452e-002
2.966029e+003,1.129805e-002
2.967958e+003,1.069185e-002
2.969886e+003,1.017427e-002
2.971815e+003,9.845949e-003
2.973743e+003,9.441005e-003
2.975672e+003,8.909727e-003
2.977600e+003,8.573915e-003
2.979529e+003,8.414163e-003
2.981457e+003,8.137102e-003
2.983386e+003,7.784210e-003
2.985314e+003,7.511865e-003
2.987243e+003,7.319176e-003
2.989171e+003,7.203475e-003
2.991100e+003,7.036010e-003
2.993028e+003,6.866724e-003
2.994957e+003,6.750167e-003
2.996885e+003,6.613524e-003
2.998814e+003,6.512675e-003
3.000742e+003,6.367869e-003
3.002671e+003,6.301703e-003
3.004599e+003,6.343627e-003
3.006528e+003,6.325270e-003
3.008456e+003,6.169368e-003
3.010385e+003,6.004115e-003
3.012313e+003,5.969546e-003
3.014242e+003,6.026994e-003
3.016170e+003,6.013790e-003
3.018099e+003,6.007810e-003
3.020027e+003,5.849167e-003
3.021956e+003,5.694476e-003
3.023884e+003,5.630729e-003
3.025813e+003,5.688165e-003
3.027741e+003,5.601728e-003
3.029670e+003,5.520444e-003
3.031598e+003,5.529806e-003
3.033527e+003,5.523766e-003
3.035455e+003,5.480042e-003
3.037384e+003,5.462996e-003
3.039312e+003,5.449474e-003
3.041241e+003,5.277217e-003
3.043169e+003,5.155185e-003
3.045098e+003,5.229091e-003
3.047026e+003,5.174868e-003
3.048955e+003,5.003959e-003
3.050883e+003,4.976174e-003
3.052812e+003,4.988173e-003
3.054740e+003,4.867160e-003
3.056669e+003,4.819415e-003
3.058597e+003,4.811541e-003
3.060526e+003,4.777704e-003
3.062454e+003,4.743803e-003
3.064383e+003,4.631365e-003
3.066311e+003,4.576915e-003
3.068240e+003,4.667468e-003
3.070168e+003,4.537070e-003
3.072097e+003,4.323273e-003
3.074025e+003,4.346599e-003
3.075954e+003,4.341378e-003
3.077882e+003,4.343854e-003
3.079811e+003,4.277762e-003
3.081739e+003,4.143533e-003
3.083668e+003,4.020950e-003
3.085596e+003,3.929261e-003
3.087525e+003,3.920200e-003
3.089453e+003,3.988111e-003
3.091382e+003,3.998110e-003
3.093310e+003,3.954138e-003
3.095239e+003,3.891247e-003
3.097167e+003,3.791229e-003
3.099096e+003,3.784243e-003
3.101024e+003,3.815028e-003
3.102953e+003,3.748348e-003
3.104881e+003,3.591229e-003
3.106810e+003,3.601620e-003
3.108738e+003,3.641212e-003
3.110667e+003,3.618425e-003
3.112595e+003,3.572855e-003
3.114524e+003,3.524416e-003
3.116452e+003,3.372454e-003
3.118381e+003,3.372855e-003
3.120309e+003,3.385110e-003
3.122238e+003,3.263909e-003
3.124166e+003,3.244313e-003
3.126095e+003,3.309314e-003
3.128023e+003,3.253093e-003
3.129952e+003,3.195411e-003
3.131880e+003,3.138537e-003
3.133809e+003,3.120582e-003
3.135737e+003,3.093751e-003
3.137666e+003,3.092216e-003
3.139594e+003,3.072761e-003
3.141523e+003,3.073662e-003
3.143451e+003,3.194777e-003
3.145380e+003,3.144711e-003
3.147308e+003,2.909883e-003
3.149237e+003,2.928196e-003
3.151165e+003,3.116477e-003
3.153094e+003,3.193709e-003
3.155022e+003,3.177821e-003
3.156951e+003,3.041996e-003
3.158879e+003,2.947411e-003
3.160808e+003,3.031819e-003
3.162736e+003,3.154524e-003
3.164665e+003,3.161866e-003
3.166593e+003,3.062050e-003
3.168522e+003,2.974400e-003
3.170450e+003,2.930665e-003
3.172379e+003,2.947244e-003
3.174307e+003,2.973532e-003
3.176236e+003,3.034956e-003
3.178164e+003,3.028216e-003
3.180093e+003,3.000056e-003
3.182021e+003,3.028182e-003
3.183950e+003,3.129526e-003
3.185878e+003,3.157628e-003
3.187807e+003,3.190838e-003
3.189735e+003,3.168976e-003
3.191664e+003,2.997320e-003
3.193592e+003,2.925961e-003
3.195521e+003,2.907982e-003
3.197449e+003,2.878195e-003
3.199378e+003,2.872959e-003
3.201306e+003,2.845142e-003
3.203235e+003,2.857883e-003
3.205163e+003,2.904346e-003
3.207092e+003,2.872025e-003
3.209020e+003,3.061816e-003
3.210948e+003,3.265679e-003
3.212877e+003,3.250523e-003
3.214806e+003,3.149584e-003
3.216734e+003,3.146747e-003
3.218663e+003,3.262107e-003
3.220591e+003,3.267849e-003
3.222520e+003,3.204557e-003
3.224448e+003,3.224318e-003
3.226376e+003,3.301835e-003
3.228305e+003,3.444387e-003
3.230234e+003,3.575828e-003
3.232162e+003,3.558890e-003
3.234091e+003,3.612378e-003
3.236019e+003,3.532466e-003
3.237948e+003,3.411826e-003
3.239876e+003,3.638740e-003
3.241804e+003,3.989181e-003
3.243733e+003,4.129417e-003
3.245662e+003,4.178525e-003
3.247590e+003,4.298141e-003
3.249519e+003,4.362563e-003
3.251447e+003,4.385791e-003
3.253375e+003,4.444301e-003
3.255304e+003,4.596170e-003
3.257232e+003,4.725447e-003
3.259161e+003,4.818644e-003
3.261090e+003,4.913436e-003
3.263018e+003,4.977146e-003
3.264947e+003,5.021456e-003
3.266875e+003,4.908845e-003
3.268803e+003,4.962902e-003
3.270732e+003,5.062687e-003
3.272660e+003,5.018439e-003
3.274589e+003,5.065033e-003
3.276518e+003,5.118774e-003
3.278446e+003,5.144892e-003
3.280375e+003,5.278592e-003
3.282303e+003,5.252835e-003
3.284231e+003,5.273796e-003
3.286160e+003,5.160148e-003
3.288088e+003,5.012674e-003
3.290017e+003,4.899865e-003
3.291946e+003,4.877782e-003
3.293874e+003,4.866758e-003
3.295802e+003,4.877950e-003
3.297731e+003,4.866959e-003
3.299659e+003,4.945642e-003
3.301588e+003,4.764506e-003
3.303516e+003,4.499136e-003
3.305445e+003,4.385422e-003
3.307374e+003,4.375482e-003
3.309302e+003,4.110217e-003
3.311230e+003,3.907763e-003
3.313159e+003,3.780032e-003
3.315087e+003,3.693072e-003
3.317016e+003,3.752826e-003
3.318944e+003,3.655112e-003
3.320873e+003,3.413596e-003
3.322802e+003,3.257032e-003
3.324730e+003,3.145179e-003
3.326658e+003,3.029884e-003
3.328587e+003,2.892671e-003
3.330515e+003,2.780144e-003
3.332444e+003,2.658912e-003
3.334372e+003,2.563277e-003
3.336301e+003,2.576810e-003
3.338229e+003,2.606875e-003
3.340158e+003,2.346685e-003
3.342086e+003,2.197566e-003
3.344015e+003,2.207424e-003
3.345943e+003,2.286858e-003
3.347872e+003,2.166030e-003
3.349800e+003,1.927736e-003
3.351729e+003,1.737342e-003
3.353657e+003,1.607787e-003
3.355586e+003,1.662597e-003
3.357514e+003,1.749351e-003
3.359443e+003,1.575362e-003
3.361371e+003,1.408424e-003
3.363300e+003,1.393166e-003
3.365229e+003,1.248727e-003
3.367157e+003,1.024253e-003
3.369085e+003,8.173570e-004
3.371014e+003,7.106104e-004
3.372942e+003,8.006264e-004
3.374871e+003,7.147921e-004
3.376799e+003,6.814388e-004
3.378728e+003,4.659488e-004
3.380656e+003,1.474052e-004
3.382585e+003,4.559483e-005
3.384513e+003,1.129355e-004
3.386442e+003,9.178226e-006
3.388370e+003,-2.191926e-004
3.390299e+003,-2.665478e-004
3.392227e+003,-1.374182e-004
3.394156e+003,-1.023059e-004
3.396084e+003,-1.193324e-004
3.398013e+003,-3.756107e-004
3.399941e+003,-6.128454e-004
3.401870e+003,-6.309437e-004
3.403798e+003,-6.288262e-004
3.405727e+003,-4.815681e-004
3.407655e+003,-4.700501e-004
3.409584e+003,-6.331605e-004
3.411512e+003,-7.992524e-004
3.413441e+003,-8.760744e-004
3.415369e+003,-8.351021e-004
3.417298e+003,-8.364911e-004
3.419226e+003,-8.765373e-004
3.421155e+003,-9.217048e-004
3.423083e+003,-1.020455e-003
3.425012e+003,-1.055130e-003
3.426940e+003,-9.469648e-004
3.428869e+003,-9.796618e-004
3.430797e+003,-1.080779e-003
3.432726e+003,-1.097370e-003
3.434654e+003,-1.097007e-003
3.436583e+003,-1.367936e-003
3.438511e+003,-1.444063e-003
3.440440e+003,-1.358919e-003
3.442368e+003,-1.444624e-003
3.444297e+003,-1.469788e-003
3.446225e+003,-1.406480e-003
3.448154e+003,-1.331205e-003
3.450082e+003,-1.319974e-003
3.452011e+003,-1.456579e-003
3.453939e+003,-1.549397e-003
3.455868e+003,-1.524964e-003
3.457796e+003,-1.543784e-003
3.459725e+003,-1.642723e-003
3.461653e+003,-1.630972e-003
3.463582e+003,-1.512417e-003
3.465510e+003,-1.648896e-003
3.467439e+003,-1.752728e-003
3.469367e+003,-1.804998e-003
3.471296e+003,-1.862276e-003
3.473224e+003,-1.668502e-003
3.475153e+003,-1.627803e-003
3.477081e+003,-1.801599e-003
3.479010e+003,-2.002042e-003
3.480938e+003,-1.967212e-003
3.482867e+003,-1.963782e-003
3.484795e+003,-1.912224e-003
3.486724e+003,-2.068264e-003
3.488652e+003,-2.126794e-003
3.490581e+003,-1.936799e-003
3.492509e+003,-1.859901e-003
3.494438e+003,-1.888966e-003
3.496366e+003,-1.915589e-003
3.498295e+003,-1.908001e-003
3.500223e+003,-1.797376e-003
3.502152e+003,-1.725436e-003
3.504080e+003,-1.764575e-003
3.506009e+003,-1.975326e-003
3.507937e+003,-2.068858e-003
3.509866e+003,-2.080268e-003
3.511794e+003,-1.987200e-003
3.513723e+003,-1.961704e-003
3.515651e+003,-2.018862e-003
3.517580e+003,-1.968861e-003
3.519508e+003,-2.001580e-003
3.521437e+003,-2.044454e-003
3.523365e+003,-1.969290e-003
3.525294e+003,-2.103779e-003
3.527222e+003,-2.245807e-003
3.529151e+003,-2.232753e-003
3.531079e+003,-2.200513e-003
3.533008e+003,-2.036012e-003
3.534936e+003,-1.957580e-003
3.536865e+003,-2.112121e-003
3.538793e+003,-2.365216e-003
3.540722e+003,-2.436424e-003
3.542650e+003,-2.429109e-003
3.544579e+003,-2.223655e-003
3.546507e+003,-1.874186e-003
3.548436e+003,-1.926771e-003
3.550364e+003,-1.926046e-003
3.552293e+003,-1.980933e-003
3.554221e+003,-2.160391e-003
3.556150e+003,-2.168337e-003
3.558078e+003,-2.241456e-003
3.560007e+003,-2.404100e-003
3.561935e+003,-2.541221e-003
3.563864e+003,-2.302335e-003
3.565792e+003,-1.936601e-003
3.567721e+003,-2.099228e-003
3.569649e+003,-2.339050e-003
3.571578e+003,-2.274220e-003
3.573506e+003,-2.389766e-003
3.575435e+003,-2.486767e-003
3.577363e+003,-2.360438e-003
3.579292e+003,-2.453557e-003
3.581220e+003,-2.519908e-003
3.583149e+003,-2.480177e-003
3.585077e+003,-2.441070e-003
3.587006e+003,-2.240895e-003
3.588934e+003,-2.193096e-003
3.590863e+003,-2.312552e-003
3.592791e+003,-2.268782e-003
3.594720e+003,-2.307905e-003
3.596648e+003,-2.379057e-003
3.598577e+003,-2.610918e-003
3.600505e+003,-2.635092e-003
3.602434e+003,-2.419949e-003
3.604362e+003,-2.412634e-003
3.606291e+003,-2.494146e-003
3.608219e+003,-2.376552e-003
3.610148e+003,-2.454611e-003
3.612076e+003,-2.619712e-003
3.614005e+003,-2.698452e-003
3.615933e+003,-2.665423e-003
3.617862e+003,-2.467526e-003
3.619790e+003,-2.508444e-003
3.621719e+003,-2.718603e-003
3.623647e+003,-2.815004e-003
3.625576e+003,-2.840417e-003
3.627504e+003,-2.585754e-003
3.629433e+003,-2.073672e-003
3.631361e+003,-2.375102e-003
3.633290e+003,-2.627912e-003
3.635218e+003,-2.713763e-003
3.637146e+003,-2.811679e-003
3.639075e+003,-2.869220e-003
3.641004e+003,-3.015572e-003
3.642932e+003,-3.172499e-003
3.644861e+003,-3.200457e-003
3.646789e+003,-2.926687e-003
3.648718e+003,-2.632951e-003
3.650646e+003,-2.859904e-003
3.652574e+003,-3.316185e-003
3.654503e+003,-3.063182e-003
3.656432e+003,-2.634730e-003
3.658360e+003,-2.926259e-003
3.660289e+003,-3.326213e-003
3.662217e+003,-3.447528e-003
3.664146e+003,-3.594113e-003
3.666074e+003,-3.723533e-003
3.668002e+003,-3.608276e-003
3.669931e+003,-3.359915e-003
3.671860e+003,-3.316283e-003
3.673788e+003,-3.169637e-003
3.675717e+003,-2.782412e-003
3.677645e+003,-3.157204e-003
3.679573e+003,-3.425503e-003
3.681502e+003,-3.425865e-003
3.683430e+003,-3.357712e-003
3.685359e+003,-3.423366e-003
3.687288e+003,-3.328679e-003
3.689216e+003,-3.014289e-003
3.691145e+003,-2.903155e-003
3.693073e+003,-2.917044e-003
3.695001e+003,-3.132829e-003
3.696930e+003,-3.188913e-003
3.698858e+003,-3.143881e-003
3.700787e+003,-2.908980e-003
3.702716e+003,-2.735264e-003
3.704644e+003,-2.981843e-003
3.706573e+003,-3.024226e-003
3.708501e+003,-2.954134e-003
3.710429e+003,-2.669737e-003
3.712358e+003,-2.550642e-003
3.714286e+003,-3.066374e-003
3.716215e+003,-3.147895e-003
3.718144e+003,-2.622840e-003
3.720072e+003,-2.565662e-003
3.722000e+003,-2.777474e-003
3.723929e+003,-2.785539e-003
3.725857e+003,-2.679616e-003
3.727786e+003,-2.954792e-003
3.729714e+003,-2.967199e-003
3.731643e+003,-2.618592e-003
3.733572e+003,-2.453919e-003
3.735500e+003,-2.250850e-003
3.737428e+003,-2.467065e-003
3.739357e+003,-2.735692e-003
3.741285e+003,-2.759201e-003
3.743214e+003,-2.339939e-003
3.745142e+003,-1.872339e-003
3.747071e+003,-2.312124e-003
3.749000e+003,-1.993401e-003
3.750928e+003,-1.690320e-003
3.752856e+003,-1.858086e-003
3.754785e+003,-2.307180e-003
3.756713e+003,-2.483670e-003
3.758642e+003,-2.341785e-003
3.760570e+003,-2.139587e-003
3.762499e+003,-2.228336e-003
3.764427e+003,-2.255828e-003
3.766356e+003,-2.219271e-003
3.768284e+003,-2.288888e-003
3.770213e+003,-1.969290e-003
3.772141e+003,-2.076574e-003
3.774070e+003,-2.179974e-003
3.775998e+003,-2.281340e-003
3.777927e+003,-2.277022e-003
3.779855e+003,-1.942176e-003
3.781784e+003,-2.137674e-003
3.783712e+003,-2.376585e-003
3.785641e+003,-2.299468e-003
3.787569e+003,-2.191909e-003
3.789498e+003,-2.328668e-003
3.791426e+003,-2.467790e-003
3.793355e+003,-2.535885e-003
3.795283e+003,-2.322703e-003
3.797212e+003,-2.098734e-003
3.799140e+003,-2.087555e-003
3.801069e+003,-1.933666e-003
3.802997e+003,-2.149577e-003
3.804926e+003,-2.343696e-003
3.806854e+003,-2.117990e-003
3.808783e+003,-2.166457e-003
3.810711e+003,-2.191085e-003
3.812640e+003,-2.220524e-003
3.814568e+003,-2.339116e-003
3.816497e+003,-2.062295e-003
3.818425e+003,-2.071430e-003
3.820354e+003,-1.649424e-003
3.822282e+003,-1.507894e-003
3.824211e+003,-2.091050e-003
3.826139e+003,-2.150566e-003
3.828068e+003,-2.134641e-003
3.829996e+003,-2.272111e-003
3.831925e+003,-2.355527e-003
3.833853e+003,-2.405385e-003
3.835782e+003,-1.994159e-003
3.837710e+003,-1.523413e-003
3.839639e+003,-1.817569e-003
3.841567e+003,-2.110637e-003
3.843496e+003,-1.936239e-003
3.845424e+003,-2.173282e-003
3.847353e+003,-2.683271e-003
3.849281e+003,-2.671745e-003
3.851210e+003,-1.991488e-003
3.853138e+003,-1.093999e-003
3.855067e+003,-1.210619e-003
3.856995e+003,-1.915259e-003
3.858924e+003,-2.369632e-003
3.860852e+003,-2.329130e-003
3.862781e+003,-2.048082e-003
3.864709e+003,-1.928817e-003
3.866638e+003,-2.256619e-003
3.868566e+003,-2.249301e-003
3.870495e+003,-2.052204e-003
3.872423e+003,-2.150797e-003
3.874352e+003,-2.014179e-003
3.876280e+003,-2.247093e-003
3.878209e+003,-2.415369e-003
3.880137e+003,-2.307905e-003
3.882066e+003,-2.515790e-003
3.883994e+003,-2.467988e-003
3.885923e+003,-2.036210e-003
3.887851e+003,-2.154061e-003
3.889780e+003,-2.007121e-003
3.891708e+003,-1.853137e-003
3.893637e+003,-2.343334e-003
3.895565e+003,-2.657684e-003
3.897494e+003,-2.614409e-003
3.899422e+003,-2.252762e-003
3.901351e+003,-2.082444e-003
3.903279e+003,-2.057613e-003
3.905208e+003,-2.125376e-003
3.907136e+003,-2.493059e-003
3.909065e+003,-2.543329e-003
3.910993e+003,-2.342774e-003
3.912922e+003,-2.310113e-003
3.914850e+003,-2.455369e-003
3.916779e+003,-2.343037e-003
3.918707e+003,-2.258432e-003
3.920636e+003,-2.478267e-003
3.922564e+003,-2.424727e-003
3.924493e+003,-2.196722e-003
3.926421e+003,-2.314134e-003
3.928350e+003,-2.558152e-003
3.930278e+003,-2.649648e-003
3.932207e+003,-2.357604e-003
3.934135e+003,-2.282164e-003
3.936064e+003,-2.429010e-003
3.937992e+003,-2.440839e-003
3.939921e+003,-2.629295e-003
3.941849e+003,-2.598468e-003
3.943778e+003,-2.477871e-003
3.945706e+003,-2.393292e-003
3.947635e+003,-2.238028e-003
3.949563e+003,-2.127849e-003
3.951492e+003,-2.176018e-003
3.953420e+003,-2.284801e-003
3.955349e+003,-2.578541e-003
3.957277e+003,-2.658672e-003
3.959206e+003,-2.578146e-003
3.961134e+003,-2.618592e-003
3.963063e+003,-2.519545e-003
3.964991e+003,-2.413557e-003
3.966920e+003,-2.196491e-003
3.968848e+003,-1.958669e-003
3.970777e+003,-2.189964e-003
3.972705e+003,-2.312585e-003
3.974634e+003,-2.172919e-003
3.976562e+003,-2.326131e-003
3.978491e+003,-2.388942e-003
3.980419e+003,-2.341488e-003
3.982348e+003,-2.208194e-003
3.984276e+003,-2.162765e-003
3.986205e+003,-2.262288e-003
3.988133e+003,-2.201865e-003
3.990062e+003,-2.159633e-003
3.991990e+003,-2.281241e-003
3.993919e+003,-2.446605e-003
3.995847e+003,-2.679912e-003
3.997776e+003,-2.480375e-003
3.999704e+003,-2.323197e-003
4.001633e+003,0.000000e+000
