3.991989e+002,-1.345572e-002
4.011274e+002,-1.944329e-002
4.030559e+002,-2.937393e-002
4.049844e+002,-3.700786e-002
4.069129e+002,-3.181741e-002
4.088414e+002,-2.222122e-002
4.107699e+002,-2.156119e-002
4.126984e+002,-2.343442e-002
4.146269e+002,-1.971834e-002
4.165554e+002,-1.804628e-002
4.184839e+002,-1.773054e-002
4.204124e+002,-8.284505e-003
4.223409e+002,-4.632591e-003
4.242694e+002,-8.265357e-003
4.261979e+002,-1.651100e-002
4.281264e+002,-1.282777e-002
4.300549e+002,-9.512057e-003
4.319834e+002,-1.032015e-002
4.339119e+002,-9.669311e-003
4.358404e+002,-8.668578e-003
4.377689e+002,-8.324260e-003
4.396974e+002,-1.429117e-002
4.416259e+002,-2.321706e-002
4.435544e+002,-2.248455e-002
4.454829e+002,-1.770709e-002
4.474114e+002,-1.073091e-002
4.493399e+002,-1.012348e-002
4.512684e+002,-1.430656e-002
4.531969e+002,-1.580859e-002
4.551254e+002,-1.454813e-002
4.570539e+002,-1.299129e-002
4.589824e+002,-1.313588e-002
4.609109e+002,-1.396017e-002
4.628394e+002,-1.263809e-002
4.647679e+002,-1.346962e-002
4.666964e+002,-1.429993e-002
4.686249e+002,-1.407881e-002
4.705533e+002,-1.402123e-002
4.724819e+002,-1.492101e-002
4.744103e+002,-1.400182e-002
4.763389e+002,-1.307334e-002
4.782673e+002,-1.372543e-002
4.801959e+002,-1.493875e-002
4.821243e+002,-1.545706e-002
4.840529e+002,-1.597156e-002
4.859813e+002,-1.653528e-002
4.879099e+002,-1.618492e-002
4.898383e+002,-1.525515e-002
4.917668e+002,-1.562170e-002
4.936953e+002,-1.543986e-002
4.956238e+002,-1.617569e-002
4.975523e+002,-1.553766e-002
4.994808e+002,-1.629012e-002
5.014093e+002,-1.590724e-002
5.033378e+002,-1.469682e-002
5.052663e+002,-1.457832e-002
5.071948e+002,-1.563967e-002
5.091233e+002,-1.776562e-002
5.110518e+002,-1.786465e-002
5.129803e+002,-1.729623e-002
5.149088e+002,-1.810880e-002
5.168373e+002,-1.818840e-002
5.187658e+002,-1.777001e-002
5.206943e+002,-1.762263e-002
5.226228e+002,-1.718474e-002
5.245513e+002,-1.680319e-002
5.264798e+002,-1.811630e-002
5.284083e+002,-1.870717e-002
5.303368e+002,-1.699064e-002
5.322653e+002,-1.718417e-002
5.341938e+002,-1.791553e-002
5.361223e+002,-1.918512e-002
5.380508e+002,-1.859052e-002
5.399792e+002,-1.720086e-002
5.419078e+002,-1.651056e-002
5.438363e+002,-1.612059e-002
5.457648e+002,-1.608595e-002
5.476932e+002,-1.710276e-002
5.496218e+002,-1.718254e-002
5.515503e+002,-1.660934e-002
5.534788e+002,-1.677756e-002
5.554072e+002,-1.694205e-002
5.573358e+002,-1.760631e-002
5.592643e+002,-1.863128e-002
5.611927e+002,-1.731724e-002
5.631212e+002,-1.563692e-002
5.650497e+002,-1.534082e-002
5.669783e+002,-1.696681e-002
5.689067e+002,-1.738092e-002
5.708352e+002,-1.667681e-002
5.727637e+002,-1.576286e-002
5.746923e+002,-1.601557e-002
5.766207e+002,-1.738865e-002
5.785492e+002,-1.618348e-002
5.804777e+002,-1.226588e-002
5.824063e+002,-1.378967e-002
5.843347e+002,-1.622038e-002
5.862632e+002,-1.595483e-002
5.881917e+002,-1.604894e-002
5.901202e+002,-1.633808e-002
5.920487e+002,-1.679082e-002
5.939772e+002,-1.519853e-002
5.959057e+002,-1.323741e-002
5.978342e+002,-1.363704e-002
5.997627e+002,-1.313562e-002
6.016912e+002,-1.256254e-002
6.036197e+002,-1.224002e-002
6.055482e+002,-1.042048e-002
6.074767e+002,-9.104653e-003
6.094052e+002,-8.894867e-003
6.113337e+002,-9.958522e-003
6.132622e+002,-1.120009e-002
6.151907e+002,-1.041372e-002
6.171192e+002,-1.110918e-002
6.190477e+002,-1.220026e-002
6.209762e+002,-1.118798e-002
6.229047e+002,-1.151145e-002
6.248332e+002,-1.478163e-002
6.267617e+002,-1.690814e-002
6.286902e+002,-1.690352e-002
6.306187e+002,-1.634989e-002
6.325472e+002,-1.655700e-002
6.344756e+002,-1.659594e-002
6.364042e+002,-1.591934e-002
6.383326e+002,-1.563628e-002
6.402612e+002,-1.569470e-002
6.421896e+002,-1.590982e-002
6.441182e+002,-1.670394e-002
6.460466e+002,-1.757789e-002
6.479752e+002,-1.729757e-002
6.499036e+002,-1.688297e-002
6.518322e+002,-1.703911e-002
6.537606e+002,-1.664936e-002
6.556891e+002,-1.657435e-002
6.576177e+002,-1.682305e-002
6.595461e+002,-1.694240e-002
6.614746e+002,-1.719270e-002
6.634031e+002,-1.774565e-002
6.653317e+002,-1.738193e-002
6.672601e+002,-1.710215e-002
6.691886e+002,-1.699122e-002
6.711171e+002,-1.679806e-002
6.730457e+002,-1.662678e-002
6.749741e+002,-1.690461e-002
6.769026e+002,-1.693080e-002
6.788311e+002,-1.639054e-002
6.807596e+002,-1.603412e-002
6.826881e+002,-1.633792e-002
6.846166e+002,-1.644226e-002
6.865451e+002,-1.602346e-002
6.884736e+002,-1.560761e-002
6.904021e+002,-1.554502e-002
6.923306e+002,-1.501145e-002
6.942591e+002,-1.447074e-002
6.961876e+002,-1.456002e-002
6.981161e+002,-1.462734e-002
7.000446e+002,-1.468234e-002
7.019731e+002,-1.453468e-002
7.039016e+002,-1.421406e-002
7.058301e+002,-1.446661e-002
7.077585e+002,-1.453397e-002
7.096871e+002,-1.421207e-002
7.116156e+002,-1.414973e-002
7.135441e+002,-1.438360e-002
7.154725e+002,-1.487689e-002
7.174011e+002,-1.536557e-002
7.193296e+002,-1.542429e-002
7.212581e+002,-1.511559e-002
7.231865e+002,-1.453759e-002
7.251151e+002,-1.444145e-002
7.270436e+002,-1.487200e-002
7.289720e+002,-1.505827e-002
7.309005e+002,-1.498722e-002
7.328290e+002,-1.476469e-002
7.347576e+002,-1.473369e-002
7.366860e+002,-1.409280e-002
7.386145e+002,-1.345115e-002
7.405430e+002,-1.381624e-002
7.424716e+002,-1.434542e-002
7.444000e+002,-1.439462e-002
7.463285e+002,-1.412513e-002
7.482570e+002,-1.418937e-002
7.501855e+002,-1.392212e-002
7.521140e+002,-1.333845e-002
7.540425e+002,-1.292993e-002
7.559710e+002,-1.306730e-002
7.578995e+002,-1.297714e-002
7.598280e+002,-1.270953e-002
7.617565e+002,-1.281027e-002
7.636850e+002,-1.292372e-002
7.656135e+002,-1.262569e-002
7.675420e+002,-1.256515e-002
7.694705e+002,-1.238682e-002
7.713990e+002,-1.233288e-002
7.733275e+002,-1.223087e-002
7.752560e+002,-1.238334e-002
7.771844e+002,-1.248950e-002
7.791130e+002,-1.253019e-002
7.810415e+002,-1.268333e-002
7.829700e+002,-1.287406e-002
7.848984e+002,-1.278379e-002
7.868270e+002,-1.298379e-002
7.887555e+002,-1.347952e-002
7.906840e+002,-1.371975e-002
7.926124e+002,-1.379118e-002
7.945410e+002,-1.386233e-002
7.964695e+002,-1.370059e-002
7.983979e+002,-1.348861e-002
8.003264e+002,-1.394984e-002
8.022549e+002,-1.414482e-002
8.041835e+002,-1.407140e-002
8.061119e+002,-1.403490e-002
8.080404e+002,-1.348424e-002
8.099689e+002,-1.341325e-002
8.118975e+002,-1.382514e-002
8.138259e+002,-1.384484e-002
8.157545e+002,-1.342928e-002
8.176830e+002,-1.323497e-002
8.196115e+002,-1.351350e-002
8.215399e+002,-1.389773e-002
8.234684e+002,-1.384442e-002
8.253970e+002,-1.394413e-002
8.273254e+002,-1.382093e-002
8.292539e+002,-1.369484e-002
8.311824e+002,-1.376495e-002
8.331110e+002,-1.394368e-002
8.350394e+002,-1.394984e-002
8.369679e+002,-1.363724e-002
8.388964e+002,-1.373462e-002
8.408250e+002,-1.406649e-002
8.427534e+002,-1.420684e-002
8.446819e+002,-1.380418e-002
8.466104e+002,-1.373234e-002
8.485389e+002,-1.403480e-002
8.504674e+002,-1.440549e-002
8.523959e+002,-1.468474e-002
8.543244e+002,-1.470921e-002
8.562529e+002,-1.442828e-002
8.581814e+002,-1.434551e-002
8.601099e+002,-1.419944e-002
8.620384e+002,-1.438430e-002
8.639669e+002,-1.487837e-002
8.658954e+002,-1.490100e-002
8.678239e+002,-1.475928e-002
8.697524e+002,-1.506067e-002
8.716809e+002,-1.564826e-002
8.736094e+002,-1.567386e-002
8.755378e+002,-1.534046e-002
8.774664e+002,-1.520176e-002
8.793949e+002,-1.508672e-002
8.813234e+002,-1.505491e-002
8.832518e+002,-1.516848e-002
8.851804e+002,-1.530614e-002
8.871089e+002,-1.527396e-002
8.890374e+002,-1.499077e-002
8.909658e+002,-1.492857e-002
8.928943e+002,-1.448536e-002
8.948229e+002,-1.417198e-002
8.967513e+002,-1.419168e-002
8.986798e+002,-1.447148e-002
9.006083e+002,-1.457489e-002
9.025369e+002,-1.448885e-002
9.044653e+002,-1.450359e-002
9.063938e+002,-1.462423e-002
9.083223e+002,-1.444639e-002
9.102509e+002,-1.438129e-002
9.121793e+002,-1.482371e-002
9.141078e+002,-1.527899e-002
9.160364e+002,-1.517443e-002
9.179648e+002,-1.502735e-002
9.198933e+002,-1.493648e-002
9.218218e+002,-1.501836e-002
9.237504e+002,-1.521772e-002
9.256788e+002,-1.544804e-002
9.276073e+002,-1.557654e-002
9.295358e+002,-1.538613e-002
9.314644e+002,-1.525861e-002
9.333928e+002,-1.519862e-002
9.353213e+002,-1.518391e-002
9.372498e+002,-1.502246e-002
9.391783e+002,-1.493324e-002
9.411068e+002,-1.506893e-002
9.430353e+002,-1.482608e-002
9.449637e+002,-1.470499e-002
9.468923e+002,-1.497249e-002
9.488208e+002,-1.487686e-002
9.507493e+002,-1.457454e-002
9.526777e+002,-1.448312e-002
9.546063e+002,-1.450337e-002
9.565348e+002,-1.445331e-002
9.584633e+002,-1.444203e-002
9.603917e+002,-1.459706e-002
9.623203e+002,-1.480411e-002
9.642488e+002,-1.469067e-002
9.661772e+002,-1.447478e-002
9.681057e+002,-1.451321e-002
9.700343e+002,-1.463176e-002
9.719628e+002,-1.483338e-002
9.738912e+002,-1.490363e-002
9.758197e+002,-1.491688e-002
9.777483e+002,-1.488752e-002
9.796768e+002,-1.487190e-002
9.816052e+002,-1.489947e-002
9.835337e+002,-1.511399e-002
9.854623e+002,-1.518954e-002
9.873907e+002,-1.515456e-002
9.893192e+002,-1.520182e-002
9.912477e+002,-1.508141e-002
9.931763e+002,-1.491941e-002
9.951047e+002,-1.498814e-002
9.970332e+002,-1.503936e-002
9.989617e+002,-1.492223e-002
1.000890e+003,-1.471793e-002
1.002819e+003,-1.465226e-002
1.004747e+003,-1.467110e-002
1.006676e+003,-1.441549e-002
1.008604e+003,-1.417949e-002
1.010533e+003,-1.413581e-002
1.012461e+003,-1.392533e-002
1.014390e+003,-1.349275e-002
1.016318e+003,-1.310967e-002
1.018247e+003,-1.281046e-002
1.020175e+003,-1.275725e-002
1.022104e+003,-1.258672e-002
1.024032e+003,-1.202213e-002
1.025961e+003,-1.148602e-002
1.027889e+003,-1.123147e-002
1.029818e+003,-1.099025e-002
1.031746e+003,-1.059600e-002
1.033675e+003,-1.013054e-002
1.035603e+003,-9.672390e-003
1.037532e+003,-9.238215e-003
1.039460e+003,-8.867111e-003
1.041389e+003,-8.490198e-003
1.043317e+003,-8.281513e-003
1.045246e+003,-8.339765e-003
1.047174e+003,-8.251475e-003
1.049103e+003,-8.248419e-003
1.051031e+003,-8.033763e-003
1.052960e+003,-7.492473e-003
1.054888e+003,-7.269460e-003
1.056817e+003,-7.490715e-003
1.058745e+003,-7.589578e-003
1.060674e+003,-7.580494e-003
1.062602e+003,-7.337230e-003
1.064531e+003,-7.160909e-003
1.066459e+003,-7.252516e-003
1.068388e+003,-7.398930e-003
1.070316e+003,-7.496642e-003
1.072245e+003,-7.562162e-003
1.074173e+003,-7.450981e-003
1.076102e+003,-7.597620e-003
1.078030e+003,-7.887856e-003
1.079959e+003,-7.723965e-003
1.081887e+003,-7.392252e-003
1.083816e+003,-7.500648e-003
1.085744e+003,-7.529077e-003
1.087673e+003,-7.395249e-003
1.089601e+003,-7.557896e-003
1.091530e+003,-7.415771e-003
1.093458e+003,-6.899800e-003
1.095387e+003,-6.852086e-003
1.097315e+003,-6.845726e-003
1.099244e+003,-7.024359e-003
1.101172e+003,-6.840019e-003
1.103101e+003,-6.694885e-003
1.105029e+003,-7.003721e-003
1.106958e+003,-7.066577e-003
1.108886e+003,-6.919595e-003
1.110815e+003,-6.905148e-003
1.112743e+003,-6.893832e-003
1.114672e+003,-7.128609e-003
1.116600e+003,-7.028532e-003
1.118529e+003,-6.990321e-003
1.120457e+003,-7.155466e-003
1.122386e+003,-7.130956e-003
1.124314e+003,-7.070717e-003
1.126243e+003,-7.405445e-003
1.128171e+003,-7.569586e-003
1.130100e+003,-7.431373e-003
1.132028e+003,-7.649452e-003
1.133957e+003,-7.989752e-003
1.135885e+003,-8.196301e-003
1.137814e+003,-8.258432e-003
1.139742e+003,-8.457314e-003
1.141671e+003,-8.843379e-003
1.143599e+003,-9.076002e-003
1.145528e+003,-9.200295e-003
1.147456e+003,-9.517340e-003
1.149385e+003,-9.892586e-003
1.151313e+003,-1.013067e-002
1.153242e+003,-1.036409e-002
1.155170e+003,-1.051590e-002
1.157099e+003,-1.059823e-002
1.159027e+003,-1.082940e-002
1.160956e+003,-1.093700e-002
1.162884e+003,-1.103538e-002
1.164813e+003,-1.101105e-002
1.166741e+003,-1.089913e-002
1.168670e+003,-1.075755e-002
1.170598e+003,-1.086116e-002
1.172526e+003,-1.110330e-002
1.174455e+003,-1.117206e-002
1.176384e+003,-1.124839e-002
1.178312e+003,-1.129453e-002
1.180240e+003,-1.127325e-002
1.182169e+003,-1.127638e-002
1.184098e+003,-1.120525e-002
1.186026e+003,-1.126502e-002
1.187954e+003,-1.139863e-002
1.189883e+003,-1.175787e-002
1.191812e+003,-1.197111e-002
1.193740e+003,-1.185928e-002
1.195668e+003,-1.195993e-002
1.197597e+003,-1.212732e-002
1.199526e+003,-1.216063e-002
1.201454e+003,-1.232563e-002
1.203382e+003,-1.238833e-002
1.205311e+003,-1.231497e-002
1.207240e+003,-1.236186e-002
1.209168e+003,-1.217761e-002
1.211096e+003,-1.207218e-002
1.213025e+003,-1.200418e-002
1.214953e+003,-1.188553e-002
1.216882e+003,-1.194007e-002
1.218810e+003,-1.191222e-002
1.220739e+003,-1.192679e-002
1.222667e+003,-1.191641e-002
1.224596e+003,-1.175100e-002
1.226524e+003,-1.179518e-002
1.228453e+003,-1.183046e-002
1.230381e+003,-1.146837e-002
1.232310e+003,-1.125908e-002
1.234238e+003,-1.127487e-002
1.236167e+003,-1.115004e-002
1.238095e+003,-1.109629e-002
1.240024e+003,-1.112223e-002
1.241952e+003,-1.109765e-002
1.243881e+003,-1.111199e-002
1.245809e+003,-1.116589e-002
1.247738e+003,-1.139447e-002
1.249666e+003,-1.156633e-002
1.251595e+003,-1.151032e-002
1.253523e+003,-1.141683e-002
1.255452e+003,-1.156424e-002
1.257380e+003,-1.177741e-002
1.259309e+003,-1.179083e-002
1.261237e+003,-1.169214e-002
1.263166e+003,-1.148689e-002
1.265094e+003,-1.128668e-002
1.267023e+003,-1.109817e-002
1.268951e+003,-1.084840e-002
1.270880e+003,-1.058255e-002
1.272808e+003,-1.040841e-002
1.274737e+003,-1.014588e-002
1.276665e+003,-9.853265e-003
1.278594e+003,-9.594775e-003
1.280522e+003,-9.400660e-003
1.282451e+003,-9.291473e-003
1.284379e+003,-9.252714e-003
1.286308e+003,-8.898373e-003
1.288236e+003,-8.667474e-003
1.290165e+003,-8.538187e-003
1.292093e+003,-8.316751e-003
1.294022e+003,-8.280440e-003
1.295950e+003,-8.147039e-003
1.297879e+003,-8.013694e-003
1.299807e+003,-7.929665e-003
1.301736e+003,-8.019255e-003
1.303664e+003,-8.120145e-003
1.305593e+003,-8.156989e-003
1.307521e+003,-8.321204e-003
1.309450e+003,-8.625444e-003
1.311378e+003,-8.944467e-003
1.313307e+003,-9.190206e-003
1.315235e+003,-9.280121e-003
1.317164e+003,-9.459279e-003
1.319092e+003,-9.861006e-003
1.321021e+003,-1.024508e-002
1.322949e+003,-1.048103e-002
1.324878e+003,-1.061297e-002
1.326806e+003,-1.074604e-002
1.328735e+003,-1.078037e-002
1.330663e+003,-1.078761e-002
1.332592e+003,-1.090996e-002
1.334520e+003,-1.109384e-002
1.336449e+003,-1.117351e-002
1.338377e+003,-1.113101e-002
1.340306e+003,-1.106697e-002
1.342234e+003,-1.104529e-002
1.344163e+003,-1.110721e-002
1.346091e+003,-1.120609e-002
1.348020e+003,-1.121888e-002
1.349948e+003,-1.129288e-002
1.351877e+003,-1.138523e-002
1.353805e+003,-1.140453e-002
1.355734e+003,-1.149444e-002
1.357662e+003,-1.170162e-002
1.359591e+003,-1.181824e-002
1.361519e+003,-1.191796e-002
1.363448e+003,-1.198520e-002
1.365376e+003,-1.208627e-002
1.367305e+003,-1.219069e-002
1.369233e+003,-1.230392e-002
1.371162e+003,-1.241982e-002
1.373090e+003,-1.245080e-002
1.375019e+003,-1.232808e-002
1.376947e+003,-1.224456e-002
1.378876e+003,-1.215010e-002
1.380804e+003,-1.195393e-002
1.382733e+003,-1.197540e-002
1.384661e+003,-1.218602e-002
1.386590e+003,-1.237191e-002
1.388518e+003,-1.250112e-002
1.390447e+003,-1.258485e-002
1.392375e+003,-1.282744e-002
1.394304e+003,-1.298473e-002
1.396232e+003,-1.289693e-002
1.398161e+003,-1.282037e-002
1.400089e+003,-1.280731e-002
1.402018e+003,-1.294511e-002
1.403946e+003,-1.305122e-002
1.405875e+003,-1.311115e-002
1.407803e+003,-1.318024e-002
1.409732e+003,-1.324371e-002
1.411660e+003,-1.326923e-002
1.413589e+003,-1.338099e-002
1.415517e+003,-1.334889e-002
1.417446e+003,-1.317545e-002
1.419374e+003,-1.277472e-002
1.421303e+003,-1.229986e-002
1.423231e+003,-1.200086e-002
1.425160e+003,-1.145724e-002
1.427088e+003,-1.093897e-002
1.429017e+003,-1.060774e-002
1.430945e+003,-1.031232e-002
1.432874e+003,-9.988281e-003
1.434802e+003,-9.698669e-003
1.436731e+003,-9.267602e-003
1.438659e+003,-8.750938e-003
1.440588e+003,-8.375192e-003
1.442516e+003,-7.972966e-003
1.444445e+003,-7.711270e-003
1.446373e+003,-7.403751e-003
1.448302e+003,-6.906713e-003
1.450230e+003,-6.468654e-003
1.452159e+003,-5.978748e-003
1.454087e+003,-5.644881e-003
1.456016e+003,-5.696521e-003
1.457944e+003,-5.306371e-003
1.459873e+003,-4.956558e-003
1.461801e+003,-4.887564e-003
1.463730e+003,-4.943127e-003
1.465658e+003,-4.834156e-003
1.467587e+003,-4.878881e-003
1.469515e+003,-5.214942e-003
1.471444e+003,-5.553588e-003
1.473372e+003,-5.749299e-003
1.475301e+003,-6.018878e-003
1.477229e+003,-6.357747e-003
1.479158e+003,-6.744409e-003
1.481086e+003,-7.367006e-003
1.483015e+003,-7.819684e-003
1.484943e+003,-8.221239e-003
1.486872e+003,-8.625444e-003
1.488800e+003,-9.091512e-003
1.490729e+003,-9.429452e-003
1.492657e+003,-9.772087e-003
1.494586e+003,-1.014604e-002
1.496514e+003,-1.036969e-002
1.498443e+003,-1.054594e-002
1.500371e+003,-1.079410e-002
1.502300e+003,-1.100692e-002
1.504228e+003,-1.145007e-002
1.506157e+003,-1.181421e-002
1.508085e+003,-1.168101e-002
1.510014e+003,-1.174623e-002
1.511942e+003,-1.188014e-002
1.513871e+003,-1.192608e-002
1.515799e+003,-1.213318e-002
1.517728e+003,-1.222649e-002
1.519656e+003,-1.235426e-002
1.521585e+003,-1.238093e-002
1.523513e+003,-1.213415e-002
1.525442e+003,-1.202384e-002
1.527370e+003,-1.196521e-002
1.529299e+003,-1.196538e-002
1.531227e+003,-1.197572e-002
1.533156e+003,-1.187663e-002
1.535084e+003,-1.155181e-002
1.537013e+003,-1.164411e-002
1.538941e+003,-1.176113e-002
1.540870e+003,-1.150584e-002
1.542798e+003,-1.125265e-002
1.544727e+003,-1.094724e-002
1.546655e+003,-1.064789e-002
1.548584e+003,-1.059732e-002
1.550512e+003,-1.047767e-002
1.552441e+003,-1.049151e-002
1.554369e+003,-1.042459e-002
1.556298e+003,-1.045629e-002
1.558226e+003,-1.054940e-002
1.560155e+003,-9.805421e-003
1.562083e+003,-9.239480e-003
1.564012e+003,-8.900743e-003
1.565940e+003,-8.564567e-003
1.567869e+003,-8.532079e-003
1.569797e+003,-8.344282e-003
1.571726e+003,-8.025403e-003
1.573654e+003,-8.089705e-003
1.575583e+003,-8.069118e-003
1.577511e+003,-7.774089e-003
1.579440e+003,-7.734869e-003
1.581368e+003,-7.694376e-003
1.583297e+003,-7.707592e-003
1.585225e+003,-7.757816e-003
1.587154e+003,-7.843537e-003
1.589082e+003,-8.003121e-003
1.591010e+003,-8.282261e-003
1.592939e+003,-8.612840e-003
1.594868e+003,-8.908468e-003
1.596796e+003,-9.205421e-003
1.598724e+003,-9.471340e-003
1.600653e+003,-9.911046e-003
1.602582e+003,-1.033313e-002
1.604510e+003,-1.059328e-002
1.606438e+003,-1.084061e-002
1.608367e+003,-1.116040e-002
1.610296e+003,-1.136519e-002
1.612224e+003,-1.161515e-002
1.614152e+003,-1.200660e-002
1.616081e+003,-1.233342e-002
1.618010e+003,-1.233887e-002
1.619938e+003,-1.254886e-002
1.621866e+003,-1.283227e-002
1.623795e+003,-1.294266e-002
1.625724e+003,-1.291015e-002
1.627652e+003,-1.302566e-002
1.629580e+003,-1.322649e-002
1.631509e+003,-1.347852e-002
1.633438e+003,-1.381018e-002
1.635366e+003,-1.403586e-002
1.637294e+003,-1.405876e-002
1.639223e+003,-1.427008e-002
1.641151e+003,-1.458248e-002
1.643080e+003,-1.505357e-002
1.645008e+003,-1.555007e-002
1.646937e+003,-1.581098e-002
1.648865e+003,-1.597709e-002
1.650794e+003,-1.647987e-002
1.652722e+003,-1.677453e-002
1.654651e+003,-1.654041e-002
1.656579e+003,-1.651145e-002
1.658508e+003,-1.677915e-002
1.660436e+003,-1.701330e-002
1.662365e+003,-1.715407e-002
1.664293e+003,-1.708329e-002
1.666222e+003,-1.704452e-002
1.668150e+003,-1.723662e-002
1.670079e+003,-1.736210e-002
1.672007e+003,-1.737363e-002
1.673936e+003,-1.747615e-002
1.675864e+003,-1.729164e-002
1.677793e+003,-1.730002e-002
1.679721e+003,-1.737092e-002
1.681650e+003,-1.762572e-002
1.683578e+003,-1.784341e-002
1.685507e+003,-1.746043e-002
1.687435e+003,-1.741975e-002
1.689364e+003,-1.746874e-002
1.691292e+003,-1.742602e-002
1.693221e+003,-1.751011e-002
1.695149e+003,-1.752399e-002
1.697078e+003,-1.724582e-002
1.699006e+003,-1.741870e-002
1.700935e+003,-1.706912e-002
1.702863e+003,-1.679818e-002
1.704792e+003,-1.683102e-002
1.706720e+003,-1.660745e-002
1.708649e+003,-1.648379e-002
1.710577e+003,-1.640225e-002
1.712506e+003,-1.647263e-002
1.714434e+003,-1.660624e-002
1.716363e+003,-1.674364e-002
1.718291e+003,-1.665015e-002
1.720220e+003,-1.648989e-002
1.722148e+003,-1.650995e-002
1.724077e+003,-1.642813e-002
1.726005e+003,-1.637698e-002
1.727934e+003,-1.646545e-002
1.729862e+003,-1.639392e-002
1.731791e+003,-1.654025e-002
1.733719e+003,-1.672451e-002
1.735648e+003,-1.650159e-002
1.737576e+003,-1.661393e-002
1.739505e+003,-1.660095e-002
1.741433e+003,-1.647142e-002
1.743362e+003,-1.644532e-002
1.745290e+003,-1.624512e-002
1.747219e+003,-1.612962e-002
1.749147e+003,-1.625150e-002
1.751076e+003,-1.627474e-002
1.753004e+003,-1.603917e-002
1.754933e+003,-1.599120e-002
1.756861e+003,-1.589804e-002
1.758790e+003,-1.588117e-002
1.760718e+003,-1.595534e-002
1.762647e+003,-1.583804e-002
1.764575e+003,-1.578341e-002
1.766504e+003,-1.586874e-002
1.768432e+003,-1.587353e-002
1.770361e+003,-1.596093e-002
1.772289e+003,-1.584053e-002
1.774218e+003,-1.566485e-002
1.776146e+003,-1.577807e-002
1.778075e+003,-1.583820e-002
1.780003e+003,-1.586545e-002
1.781932e+003,-1.585635e-002
1.783860e+003,-1.582606e-002
1.785789e+003,-1.572691e-002
1.787717e+003,-1.574468e-002
1.789646e+003,-1.587053e-002
1.791574e+003,-1.593882e-002
1.793503e+003,-1.584232e-002
1.795431e+003,-1.580884e-002
1.797360e+003,-1.587264e-002
1.799288e+003,-1.593355e-002
1.801217e+003,-1.592183e-002
1.803145e+003,-1.587357e-002
1.805074e+003,-1.579881e-002
1.807002e+003,-1.577469e-002
1.808931e+003,-1.593787e-002
1.810859e+003,-1.587654e-002
1.812788e+003,-1.567303e-002
1.814716e+003,-1.569745e-002
1.816645e+003,-1.580948e-002
1.818573e+003,-1.585357e-002
1.820502e+003,-1.583226e-002
1.822430e+003,-1.591120e-002
1.824359e+003,-1.596192e-002
1.826287e+003,-1.590851e-002
1.828216e+003,-1.605970e-002
1.830144e+003,-1.612094e-002
1.832073e+003,-1.601707e-002
1.834001e+003,-1.595911e-002
1.835930e+003,-1.599625e-002
1.837858e+003,-1.601567e-002
1.839787e+003,-1.598775e-002
1.841715e+003,-1.606101e-002
1.843644e+003,-1.617738e-002
1.845572e+003,-1.606800e-002
1.847501e+003,-1.601800e-002
1.849429e+003,-1.597143e-002
1.851358e+003,-1.590947e-002
1.853286e+003,-1.590813e-002
1.855215e+003,-1.594310e-002
1.857143e+003,-1.601586e-002
1.859072e+003,-1.601525e-002
1.861000e+003,-1.595588e-002
1.862929e+003,-1.588660e-002
1.864857e+003,-1.589615e-002
1.866786e+003,-1.606963e-002
1.868714e+003,-1.615006e-002
1.870643e+003,-1.602355e-002
1.872571e+003,-1.592713e-002
1.874500e+003,-1.590139e-002
1.876428e+003,-1.594445e-002
1.878357e+003,-1.591292e-002
1.880285e+003,-1.592688e-002
1.882214e+003,-1.597495e-002
1.884142e+003,-1.603179e-002
1.886071e+003,-1.603326e-002
1.887999e+003,-1.606475e-002
1.889928e+003,-1.603518e-002
1.891856e+003,-1.600334e-002
1.893785e+003,-1.608320e-002
1.895713e+003,-1.608336e-002
1.897642e+003,-1.602633e-002
1.899570e+003,-1.599650e-002
1.901499e+003,-1.595428e-002
1.903427e+003,-1.585232e-002
1.905356e+003,-1.592883e-002
1.907284e+003,-1.605019e-002
1.909213e+003,-1.605542e-002
1.911141e+003,-1.601407e-002
1.913070e+003,-1.599705e-002
1.914998e+003,-1.607892e-002
1.916927e+003,-1.614801e-002
1.918855e+003,-1.613451e-002
1.920784e+003,-1.616235e-002
1.922712e+003,-1.618128e-002
1.924641e+003,-1.607723e-002
1.926569e+003,-1.609055e-002
1.928498e+003,-1.616506e-002
1.930426e+003,-1.616698e-002
1.932355e+003,-1.614801e-002
1.934283e+003,-1.611564e-002
1.936212e+003,-1.605957e-002
1.938140e+003,-1.608984e-002
1.940069e+003,-1.615845e-002
1.941997e+003,-1.615721e-002
1.943926e+003,-1.613649e-002
1.945854e+003,-1.621780e-002
1.947783e+003,-1.630793e-002
1.949711e+003,-1.632701e-002
1.951640e+003,-1.629749e-002
1.953568e+003,-1.624697e-002
1.955497e+003,-1.620582e-002
1.957425e+003,-1.624563e-002
1.959354e+003,-1.629047e-002
1.961282e+003,-1.626823e-002
1.963211e+003,-1.630008e-002
1.965139e+003,-1.636584e-002
1.967068e+003,-1.630984e-002
1.968996e+003,-1.627649e-002
1.970925e+003,-1.620943e-002
1.972853e+003,-1.622472e-002
1.974782e+003,-1.628900e-002
1.976710e+003,-1.629270e-002
1.978639e+003,-1.626210e-002
1.980567e+003,-1.622185e-002
1.982496e+003,-1.615743e-002
1.984424e+003,-1.622463e-002
1.986353e+003,-1.631977e-002
1.988281e+003,-1.630617e-002
1.990210e+003,-1.628453e-002
1.992138e+003,-1.620008e-002
1.994067e+003,-1.612787e-002
1.995995e+003,-1.617515e-002
1.997924e+003,-1.616423e-002
1.999852e+003,-1.608994e-002
2.001781e+003,-1.616414e-002
2.003709e+003,-1.627509e-002
2.005638e+003,-1.623376e-002
2.007566e+003,-1.628208e-002
2.009495e+003,-1.629909e-002
2.011423e+003,-1.629653e-002
2.013352e+003,-1.621946e-002
2.015280e+003,-1.616423e-002
2.017208e+003,-1.620704e-002
2.019137e+003,-1.622906e-002
2.021066e+003,-1.614980e-002
2.022994e+003,-1.612104e-002
2.024922e+003,-1.613815e-002
2.026851e+003,-1.615756e-002
2.028780e+003,-1.616912e-002
2.030708e+003,-1.613109e-002
2.032636e+003,-1.608595e-002
2.034565e+003,-1.614782e-002
2.036494e+003,-1.620816e-002
2.038422e+003,-1.617409e-002
2.040350e+003,-1.617125e-002
2.042279e+003,-1.616873e-002
2.044208e+003,-1.621470e-002
2.046136e+003,-1.619989e-002
2.048064e+003,-1.611184e-002
2.049993e+003,-1.610667e-002
2.051921e+003,-1.614348e-002
2.053850e+003,-1.616094e-002
2.055778e+003,-1.619928e-002
2.057707e+003,-1.617097e-002
2.059635e+003,-1.607238e-002
2.061564e+003,-1.604361e-002
2.063492e+003,-1.604814e-002
2.065421e+003,-1.607043e-002
2.067349e+003,-1.610032e-002
2.069278e+003,-1.608378e-002
2.071206e+003,-1.606561e-002
2.073135e+003,-1.603154e-002
2.075063e+003,-1.602515e-002
2.076992e+003,-1.608799e-002
2.078920e+003,-1.607174e-002
2.080849e+003,-1.604201e-002
2.082777e+003,-1.601614e-002
2.084706e+003,-1.602764e-002
2.086634e+003,-1.609565e-002
2.088563e+003,-1.610322e-002
2.090491e+003,-1.601445e-002
2.092420e+003,-1.592295e-002
2.094348e+003,-1.594898e-002
2.096277e+003,-1.598399e-002
2.098205e+003,-1.596051e-002
2.100134e+003,-1.596652e-002
2.102062e+003,-1.592822e-002
2.103991e+003,-1.588366e-002
2.105919e+003,-1.586040e-002
2.107848e+003,-1.586890e-002
2.109776e+003,-1.589449e-002
2.111705e+003,-1.590826e-002
2.113633e+003,-1.585622e-002
2.115562e+003,-1.578887e-002
2.117490e+003,-1.572001e-002
2.119419e+003,-1.564836e-002
2.121347e+003,-1.562992e-002
2.123276e+003,-1.564852e-002
2.125204e+003,-1.568495e-002
2.127133e+003,-1.578203e-002
2.129061e+003,-1.571503e-002
2.130990e+003,-1.561624e-002
2.132918e+003,-1.554802e-002
2.134847e+003,-1.556097e-002
2.136775e+003,-1.564830e-002
2.138704e+003,-1.563388e-002
2.140632e+003,-1.547874e-002
2.142561e+003,-1.547794e-002
2.144489e+003,-1.554172e-002
2.146418e+003,-1.548287e-002
2.148346e+003,-1.540903e-002
2.150275e+003,-1.534347e-002
2.152203e+003,-1.537225e-002
2.154132e+003,-1.538613e-002
2.156060e+003,-1.539170e-002
2.157989e+003,-1.552168e-002
2.159917e+003,-1.548561e-002
2.161846e+003,-1.542457e-002
2.163774e+003,-1.537996e-002
2.165703e+003,-1.539250e-002
2.167631e+003,-1.543078e-002
2.169560e+003,-1.537219e-002
2.171488e+003,-1.533947e-002
2.173417e+003,-1.535761e-002
2.175345e+003,-1.535131e-002
2.177274e+003,-1.530694e-002
2.179202e+003,-1.531302e-002
2.181131e+003,-1.537437e-002
2.183059e+003,-1.538968e-002
2.184988e+003,-1.541338e-002
2.186916e+003,-1.541504e-002
2.188845e+003,-1.534478e-002
2.190773e+003,-1.526184e-002
2.192702e+003,-1.524242e-002
2.194630e+003,-1.526126e-002
2.196559e+003,-1.533323e-002
2.198487e+003,-1.541364e-002
2.200416e+003,-1.543202e-002
2.202344e+003,-1.546083e-002
2.204273e+003,-1.547912e-002
2.206201e+003,-1.544712e-002
2.208130e+003,-1.547350e-002
2.210058e+003,-1.557034e-002
2.211987e+003,-1.561371e-002
2.213915e+003,-1.555151e-002
2.215844e+003,-1.557075e-002
2.217772e+003,-1.561490e-002
2.219701e+003,-1.559792e-002
2.221629e+003,-1.566335e-002
2.223558e+003,-1.561084e-002
2.225486e+003,-1.559047e-002
2.227415e+003,-1.563094e-002
2.229343e+003,-1.567917e-002
2.231272e+003,-1.569362e-002
2.233200e+003,-1.573545e-002
2.235129e+003,-1.568243e-002
2.237057e+003,-1.560540e-002
2.238986e+003,-1.563848e-002
2.240914e+003,-1.577200e-002
2.242843e+003,-1.575318e-002
2.244771e+003,-1.571621e-002
2.246700e+003,-1.581961e-002
2.248628e+003,-1.588471e-002
2.250557e+003,-1.590449e-002
2.252485e+003,-1.591842e-002
2.254414e+003,-1.591356e-002
2.256342e+003,-1.588925e-002
2.258271e+003,-1.586389e-002
2.260199e+003,-1.588765e-002
2.262128e+003,-1.592359e-002
2.264056e+003,-1.592927e-002
2.265985e+003,-1.590494e-002
2.267913e+003,-1.593835e-002
2.269842e+003,-1.599446e-002
2.271770e+003,-1.598660e-002
2.273699e+003,-1.601650e-002
2.275627e+003,-1.601180e-002
2.277556e+003,-1.607247e-002
2.279484e+003,-1.614846e-002
2.281413e+003,-1.608825e-002
2.283341e+003,-1.607120e-002
2.285270e+003,-1.611146e-002
2.287198e+003,-1.606411e-002
2.289127e+003,-1.609489e-002
2.291055e+003,-1.610073e-002
2.292984e+003,-1.615740e-002
2.294912e+003,-1.631938e-002
2.296841e+003,-1.625262e-002
2.298769e+003,-1.625626e-002
2.300698e+003,-1.623028e-002
2.302626e+003,-1.622035e-002
2.304555e+003,-1.627668e-002
2.306483e+003,-1.630892e-002
2.308412e+003,-1.624614e-002
2.310340e+003,-1.626433e-002
2.312269e+003,-1.636135e-002
2.314197e+003,-1.633394e-002
2.316125e+003,-1.636718e-002
2.318054e+003,-1.650243e-002
2.319983e+003,-1.654297e-002
2.321911e+003,-1.658523e-002
2.323840e+003,-1.660401e-002
2.325768e+003,-1.658513e-002
2.327697e+003,-1.653936e-002
2.329625e+003,-1.656966e-002
2.331553e+003,-1.667783e-002
2.333482e+003,-1.668239e-002
2.335411e+003,-1.653298e-002
2.337339e+003,-1.649266e-002
2.339268e+003,-1.652453e-002
2.341196e+003,-1.654172e-002
2.343125e+003,-1.651235e-002
2.345053e+003,-1.639147e-002
2.346981e+003,-1.628284e-002
2.348910e+003,-1.640927e-002
2.350839e+003,-1.660321e-002
2.352767e+003,-1.671801e-002
2.354696e+003,-1.673238e-002
2.356624e+003,-1.668915e-002
2.358552e+003,-1.668491e-002
2.360481e+003,-1.674558e-002
2.362409e+003,-1.685591e-002
2.364338e+003,-1.684083e-002
2.366267e+003,-1.672164e-002
2.368195e+003,-1.666166e-002
2.370124e+003,-1.657620e-002
2.372052e+003,-1.648201e-002
2.373980e+003,-1.634450e-002
2.375909e+003,-1.627997e-002
2.377838e+003,-1.618489e-002
2.379766e+003,-1.603626e-002
2.381695e+003,-1.594205e-002
2.383623e+003,-1.589050e-002
2.385552e+003,-1.582625e-002
2.387480e+003,-1.575417e-002
2.389408e+003,-1.570723e-002
2.391337e+003,-1.570183e-002
2.393266e+003,-1.571228e-002
2.395194e+003,-1.567543e-002
2.397123e+003,-1.564357e-002
2.399051e+003,-1.561029e-002
2.400979e+003,-1.569601e-002
2.402908e+003,-1.570627e-002
2.404836e+003,-1.560777e-002
2.406765e+003,-1.562893e-002
2.408694e+003,-1.563468e-002
2.410622e+003,-1.561410e-002
2.412551e+003,-1.562503e-002
2.414479e+003,-1.563551e-002
2.416407e+003,-1.564312e-002
2.418336e+003,-1.565405e-002
2.420264e+003,-1.562158e-002
2.422193e+003,-1.549668e-002
2.424122e+003,-1.545959e-002
2.426050e+003,-1.553034e-002
2.427979e+003,-1.551004e-002
2.429907e+003,-1.540398e-002
2.431835e+003,-1.527140e-002
2.433764e+003,-1.527819e-002
2.435692e+003,-1.530304e-002
2.437621e+003,-1.525675e-002
2.439550e+003,-1.519398e-002
2.441478e+003,-1.522620e-002
2.443406e+003,-1.533963e-002
2.445335e+003,-1.534018e-002
2.447263e+003,-1.533074e-002
2.449192e+003,-1.535290e-002
2.451121e+003,-1.533368e-002
2.453049e+003,-1.534887e-002
2.454978e+003,-1.534462e-002
2.456906e+003,-1.535025e-002
2.458834e+003,-1.532741e-002
2.460763e+003,-1.522415e-002
2.462691e+003,-1.511127e-002
2.464620e+003,-1.508448e-002
2.466549e+003,-1.511552e-002
2.468477e+003,-1.518403e-002
2.470406e+003,-1.512928e-002
2.472334e+003,-1.521222e-002
2.474262e+003,-1.513223e-002
2.476191e+003,-1.495053e-002
2.478119e+003,-1.489636e-002
2.480048e+003,-1.491182e-002
2.481977e+003,-1.493267e-002
2.483905e+003,-1.499275e-002
2.485833e+003,-1.501202e-002
2.487762e+003,-1.492146e-002
2.489690e+003,-1.486886e-002
2.491619e+003,-1.493283e-002
2.493547e+003,-1.489735e-002
2.495476e+003,-1.488134e-002
2.497405e+003,-1.492213e-002
2.499333e+003,-1.485250e-002
2.501261e+003,-1.462714e-002
2.503190e+003,-1.459450e-002
2.505118e+003,-1.470441e-002
2.507047e+003,-1.476488e-002
2.508975e+003,-1.468324e-002
2.510904e+003,-1.459975e-002
2.512833e+003,-1.458835e-002
2.514761e+003,-1.454160e-002
2.516689e+003,-1.460908e-002
2.518618e+003,-1.474214e-002
2.520546e+003,-1.469112e-002
2.522475e+003,-1.464137e-002
2.524403e+003,-1.469515e-002
2.526332e+003,-1.465928e-002
2.528260e+003,-1.456621e-002
2.530189e+003,-1.456768e-002
2.532117e+003,-1.462935e-002
2.534046e+003,-1.462099e-002
2.535974e+003,-1.453086e-002
2.537903e+003,-1.451760e-002
2.539831e+003,-1.452180e-002
2.541760e+003,-1.444209e-002
2.543688e+003,-1.447097e-002
2.545617e+003,-1.452692e-002
2.547545e+003,-1.447385e-002
2.549474e+003,-1.437353e-002
2.551402e+003,-1.437087e-002
2.553331e+003,-1.444325e-002
2.555259e+003,-1.455336e-002
2.557188e+003,-1.461683e-002
2.559116e+003,-1.456947e-002
2.561045e+003,-1.442164e-002
2.562973e+003,-1.438270e-002
2.564902e+003,-1.447373e-002
2.566830e+003,-1.451535e-002
2.568759e+003,-1.450273e-002
2.570687e+003,-1.450388e-002
2.572616e+003,-1.455159e-002
2.574544e+003,-1.454089e-002
2.576473e+003,-1.456281e-002
2.578401e+003,-1.461933e-002
2.580330e+003,-1.457832e-002
2.582258e+003,-1.447834e-002
2.584187e+003,-1.452192e-002
2.586115e+003,-1.450407e-002
2.588044e+003,-1.445155e-002
2.589972e+003,-1.442918e-002
2.591901e+003,-1.437847e-002
2.593829e+003,-1.432570e-002
2.595758e+003,-1.432503e-002
2.597686e+003,-1.441745e-002
2.599615e+003,-1.437247e-002
2.601543e+003,-1.434186e-002
2.603472e+003,-1.438546e-002
2.605400e+003,-1.438411e-002
2.607329e+003,-1.433099e-002
2.609257e+003,-1.428710e-002
2.611186e+003,-1.428838e-002
2.613114e+003,-1.429403e-002
2.615043e+003,-1.436802e-002
2.616971e+003,-1.428893e-002
2.618900e+003,-1.417901e-002
2.620828e+003,-1.420931e-002
2.622757e+003,-1.417478e-002
2.624685e+003,-1.403984e-002
2.626614e+003,-1.402800e-002
2.628542e+003,-1.414482e-002
2.630471e+003,-1.420328e-002
2.632399e+003,-1.422618e-002
2.634328e+003,-1.422323e-002
2.636256e+003,-1.417279e-002
2.638185e+003,-1.413834e-002
2.640113e+003,-1.407095e-002
2.642042e+003,-1.398183e-002
2.643970e+003,-1.397946e-002
2.645899e+003,-1.388582e-002
2.647827e+003,-1.383903e-002
2.649756e+003,-1.388406e-002
2.651684e+003,-1.396454e-002
2.653613e+003,-1.391499e-002
2.655541e+003,-1.371442e-002
2.657470e+003,-1.369667e-002
2.659398e+003,-1.375282e-002
2.661327e+003,-1.366954e-002
2.663255e+003,-1.360647e-002
2.665184e+003,-1.371571e-002
2.667112e+003,-1.371994e-002
2.669041e+003,-1.365243e-002
2.670969e+003,-1.366151e-002
2.672898e+003,-1.368691e-002
2.674826e+003,-1.361951e-002
2.676755e+003,-1.350399e-002
2.678683e+003,-1.352288e-002
2.680612e+003,-1.349712e-002
2.682540e+003,-1.338350e-002
2.684469e+003,-1.335979e-002
2.686397e+003,-1.337190e-002
2.688326e+003,-1.334931e-002
2.690254e+003,-1.328585e-002
2.692183e+003,-1.326284e-002
2.694111e+003,-1.324294e-002
2.696040e+003,-1.316648e-002
2.697968e+003,-1.310299e-002
2.699897e+003,-1.304933e-002
2.701825e+003,-1.302762e-002
2.703754e+003,-1.304672e-002
2.705682e+003,-1.297270e-002
2.707611e+003,-1.283700e-002
2.709539e+003,-1.273492e-002
2.711468e+003,-1.272204e-002
2.713396e+003,-1.272118e-002
2.715325e+003,-1.274296e-002
2.717253e+003,-1.269106e-002
2.719182e+003,-1.264613e-002
2.721110e+003,-1.254635e-002
2.723039e+003,-1.244191e-002
2.724967e+003,-1.246645e-002
2.726896e+003,-1.244497e-002
2.728824e+003,-1.232888e-002
2.730753e+003,-1.225387e-002
2.732681e+003,-1.216315e-002
2.734610e+003,-1.209977e-002
2.736538e+003,-1.205404e-002
2.738467e+003,-1.197211e-002
2.740395e+003,-1.186080e-002
2.742324e+003,-1.180682e-002
2.744252e+003,-1.175026e-002
2.746181e+003,-1.165998e-002
2.748109e+003,-1.151180e-002
2.750038e+003,-1.138801e-002
2.751966e+003,-1.135360e-002
2.753895e+003,-1.130008e-002
2.755823e+003,-1.127319e-002
2.757752e+003,-1.113783e-002
2.759680e+003,-1.094605e-002
2.761609e+003,-1.069280e-002
2.763537e+003,-1.046693e-002
2.765466e+003,-1.041262e-002
2.767394e+003,-1.018055e-002
2.769323e+003,-9.809600e-003
2.771251e+003,-9.398553e-003
2.773180e+003,-8.936450e-003
2.775108e+003,-8.506704e-003
2.777037e+003,-8.142454e-003
2.778965e+003,-7.706420e-003
2.780894e+003,-7.065306e-003
2.782822e+003,-6.392260e-003
2.784750e+003,-5.784088e-003
2.786679e+003,-5.011751e-003
2.788608e+003,-4.279938e-003
2.790536e+003,-3.697350e-003
2.792465e+003,-2.999218e-003
2.794393e+003,-2.282197e-003
2.796322e+003,-1.603012e-003
2.798250e+003,-8.925747e-004
2.800178e+003,-2.741970e-004
2.802107e+003,4.242898e-004
2.804036e+003,1.103904e-003
2.805964e+003,1.519531e-003
2.807893e+003,1.763690e-003
2.809821e+003,1.885304e-003
2.811750e+003,1.990343e-003
2.813678e+003,2.030854e-003
2.815606e+003,1.914690e-003
2.817535e+003,1.705772e-003
2.819464e+003,1.466268e-003
2.821392e+003,1.092377e-003
2.823321e+003,6.116873e-004
2.825249e+003,9.281837e-005
2.827177e+003,-3.561443e-004
2.829106e+003,-7.872466e-004
2.831034e+003,-1.356574e-003
2.832963e+003,-1.856338e-003
2.834892e+003,-2.410822e-003
2.836820e+003,-3.212561e-003
2.838749e+003,-3.845788e-003
2.840677e+003,-4.407055e-003
2.842605e+003,-5.180598e-003
2.844534e+003,-5.991297e-003
2.846462e+003,-6.682192e-003
2.848391e+003,-7.346482e-003
2.850320e+003,-7.803055e-003
2.852248e+003,-8.027355e-003
2.854177e+003,-8.213436e-003
2.856105e+003,-8.382505e-003
2.858033e+003,-8.511903e-003
2.859962e+003,-8.494065e-003
2.861890e+003,-8.520936e-003
2.863819e+003,-8.564535e-003
2.865748e+003,-8.473724e-003
2.867676e+003,-8.340219e-003
2.869604e+003,-8.278945e-003
2.871533e+003,-8.200463e-003
2.873461e+003,-8.069801e-003
2.875390e+003,-7.958164e-003
2.877319e+003,-7.808099e-003
2.879247e+003,-7.547150e-003
2.881176e+003,-7.472444e-003
2.883104e+003,-7.591792e-003
2.885032e+003,-7.682169e-003
2.886961e+003,-7.667520e-003
2.888889e+003,-7.689558e-003
2.890818e+003,-7.715339e-003
2.892747e+003,-7.861988e-003
2.894675e+003,-8.052140e-003
2.896604e+003,-8.137575e-003
2.898532e+003,-8.143917e-003
2.900460e+003,-8.178581e-003
2.902389e+003,-8.224946e-003
2.904317e+003,-8.375647e-003
2.906246e+003,-8.565510e-003
2.908175e+003,-8.654839e-003
2.910103e+003,-8.771135e-003
2.912031e+003,-9.046700e-003
2.913960e+003,-9.279149e-003
2.915888e+003,-9.446863e-003
2.917817e+003,-9.391613e-003
2.919745e+003,-9.156857e-003
2.921674e+003,-8.886070e-003
2.923603e+003,-8.777565e-003
2.925531e+003,-8.619792e-003
2.927459e+003,-8.267827e-003
2.929388e+003,-7.975861e-003
2.931316e+003,-7.648963e-003
2.933245e+003,-7.338142e-003
2.935173e+003,-7.196042e-003
2.937102e+003,-7.088223e-003
2.939031e+003,-6.930063e-003
2.940959e+003,-6.869209e-003
2.942887e+003,-6.977833e-003
2.944816e+003,-7.080627e-003
2.946744e+003,-7.242741e-003
2.948673e+003,-7.540638e-003
2.950601e+003,-7.900936e-003
2.952530e+003,-8.343469e-003
2.954458e+003,-8.957742e-003
2.956387e+003,-9.561099e-003
2.958315e+003,-1.008192e-002
2.960244e+003,-1.070137e-002
2.962172e+003,-1.129372e-002
2.964101e+003,-1.175165e-002
2.966029e+003,-1.219115e-002
2.967958e+003,-1.270737e-002
2.969886e+003,-1.324757e-002
2.971815e+003,-1.365515e-002
2.973743e+003,-1.402197e-002
2.975672e+003,-1.437203e-002
2.977600e+003,-1.466629e-002
2.979529e+003,-1.482057e-002
2.981457e+003,-1.507651e-002
2.983386e+003,-1.537680e-002
2.985314e+003,-1.563532e-002
2.987243e+003,-1.582456e-002
2.989171e+003,-1.588919e-002
2.991100e+003,-1.595023e-002
2.993028e+003,-1.613952e-002
2.994957e+003,-1.628348e-002
2.996885e+003,-1.637344e-002
2.998814e+003,-1.640937e-002
3.000742e+003,-1.646379e-002
3.002671e+003,-1.662990e-002
3.004599e+003,-1.674820e-002
3.006528e+003,-1.671188e-002
3.008456e+003,-1.674058e-002
3.010385e+003,-1.683650e-002
3.012313e+003,-1.685333e-002
3.014242e+003,-1.695177e-002
3.016170e+003,-1.694470e-002
3.018099e+003,-1.694033e-002
3.020027e+003,-1.697710e-002
3.021956e+003,-1.704213e-002
3.023884e+003,-1.715675e-002
3.025813e+003,-1.727903e-002
3.027741e+003,-1.731275e-002
3.029670e+003,-1.719054e-002
3.031598e+003,-1.712133e-002
3.033527e+003,-1.713754e-002
3.035455e+003,-1.723729e-002
3.037384e+003,-1.729206e-002
3.039312e+003,-1.741488e-002
3.041241e+003,-1.755059e-002
3.043169e+003,-1.757678e-002
3.045098e+003,-1.747253e-002
3.047026e+003,-1.744834e-002
3.048955e+003,-1.755415e-002
3.050883e+003,-1.768343e-002
3.052812e+003,-1.772045e-002
3.054740e+003,-1.767468e-002
3.056669e+003,-1.773604e-002
3.058597e+003,-1.782649e-002
3.060526e+003,-1.785219e-002
3.062454e+003,-1.781622e-002
3.064383e+003,-1.781047e-002
3.066311e+003,-1.785696e-002
3.068240e+003,-1.793162e-002
3.070168e+003,-1.807288e-002
3.072097e+003,-1.808353e-002
3.074025e+003,-1.807025e-002
3.075954e+003,-1.806421e-002
3.077882e+003,-1.804587e-002
3.079811e+003,-1.810429e-002
3.081739e+003,-1.820054e-002
3.083668e+003,-1.819072e-002
3.085596e+003,-1.808595e-002
3.087525e+003,-1.819692e-002
3.089453e+003,-1.833127e-002
3.091382e+003,-1.835176e-002
3.093310e+003,-1.834509e-002
3.095239e+003,-1.834550e-002
3.097167e+003,-1.836475e-002
3.099096e+003,-1.845120e-002
3.101024e+003,-1.858833e-002
3.102953e+003,-1.853420e-002
3.104881e+003,-1.848260e-002
3.106810e+003,-1.850626e-002
3.108738e+003,-1.851893e-002
3.110667e+003,-1.867845e-002
3.112595e+003,-1.866150e-002
3.114524e+003,-1.854433e-002
3.116452e+003,-1.860544e-002
3.118381e+003,-1.875487e-002
3.120309e+003,-1.885209e-002
3.122238e+003,-1.884479e-002
3.124166e+003,-1.887271e-002
3.126095e+003,-1.898453e-002
3.128023e+003,-1.894558e-002
3.129952e+003,-1.882252e-002
3.131880e+003,-1.884441e-002
3.133809e+003,-1.887195e-002
3.135737e+003,-1.897625e-002
3.137666e+003,-1.892550e-002
3.139594e+003,-1.879841e-002
3.141523e+003,-1.880691e-002
3.143451e+003,-1.889476e-002
3.145380e+003,-1.901332e-002
3.147308e+003,-1.899081e-002
3.149237e+003,-1.904850e-002
3.151165e+003,-1.908893e-002
3.153094e+003,-1.908525e-002
3.155022e+003,-1.904615e-002
3.156951e+003,-1.900435e-002
3.158879e+003,-1.893045e-002
3.160808e+003,-1.888638e-002
3.162736e+003,-1.899791e-002
3.164665e+003,-1.904656e-002
3.166593e+003,-1.910497e-002
3.168522e+003,-1.909438e-002
3.170450e+003,-1.896391e-002
3.172379e+003,-1.887217e-002
3.174307e+003,-1.885212e-002
3.176236e+003,-1.884064e-002
3.178164e+003,-1.894999e-002
3.180093e+003,-1.902395e-002
3.182021e+003,-1.904399e-002
3.183950e+003,-1.907897e-002
3.185878e+003,-1.913192e-002
3.187807e+003,-1.913484e-002
3.189735e+003,-1.919390e-002
3.191664e+003,-1.929879e-002
3.193592e+003,-1.931816e-002
3.195521e+003,-1.929990e-002
3.197449e+003,-1.920097e-002
3.199378e+003,-1.914590e-002
3.201306e+003,-1.908030e-002
3.203235e+003,-1.909701e-002
3.205163e+003,-1.911388e-002
3.207092e+003,-1.915630e-002
3.209020e+003,-1.906622e-002
3.210948e+003,-1.901628e-002
3.212877e+003,-1.913065e-002
3.214806e+003,-1.908312e-002
3.216734e+003,-1.904463e-002
3.218663e+003,-1.911677e-002
3.220591e+003,-1.902303e-002
3.222520e+003,-1.889828e-002
3.224448e+003,-1.898288e-002
3.226376e+003,-1.890199e-002
3.228305e+003,-1.870720e-002
3.230234e+003,-1.869051e-002
3.232162e+003,-1.872256e-002
3.234091e+003,-1.865201e-002
3.236019e+003,-1.864185e-002
3.237948e+003,-1.868994e-002
3.239876e+003,-1.849927e-002
3.241804e+003,-1.833483e-002
3.243733e+003,-1.852306e-002
3.245662e+003,-1.852283e-002
3.247590e+003,-1.845269e-002
3.249519e+003,-1.843037e-002
3.251447e+003,-1.841398e-002
3.253375e+003,-1.840286e-002
3.255304e+003,-1.836897e-002
3.257232e+003,-1.814763e-002
3.259161e+003,-1.798766e-002
3.261090e+003,-1.807206e-002
3.263018e+003,-1.815278e-002
3.264947e+003,-1.814465e-002
3.266875e+003,-1.813937e-002
3.268803e+003,-1.808172e-002
3.270732e+003,-1.804425e-002
3.272660e+003,-1.804323e-002
3.274589e+003,-1.798509e-002
3.276518e+003,-1.792850e-002
3.278446e+003,-1.791629e-002
3.280375e+003,-1.804120e-002
3.282303e+003,-1.794071e-002
3.284231e+003,-1.784255e-002
3.286160e+003,-1.783222e-002
3.288088e+003,-1.798032e-002
3.290017e+003,-1.814334e-002
3.291946e+003,-1.823196e-002
3.293874e+003,-1.830017e-002
3.295802e+003,-1.824111e-002
3.297731e+003,-1.834363e-002
3.299659e+003,-1.838470e-002
3.301588e+003,-1.829347e-002
3.303516e+003,-1.836723e-002
3.305445e+003,-1.850728e-002
3.307374e+003,-1.869159e-002
3.309302e+003,-1.894526e-002
3.311230e+003,-1.905899e-002
3.313159e+003,-1.897352e-002
3.315087e+003,-1.913506e-002
3.317016e+003,-1.934050e-002
3.318944e+003,-1.943898e-002
3.320873e+003,-1.936461e-002
3.322802e+003,-1.945669e-002
3.324730e+003,-1.974035e-002
3.326658e+003,-1.974279e-002
3.328587e+003,-1.969431e-002
3.330515e+003,-1.979689e-002
3.332444e+003,-1.983339e-002
3.334372e+003,-1.992050e-002
3.336301e+003,-1.995366e-002
3.338229e+003,-1.999594e-002
3.340158e+003,-1.993290e-002
3.342086e+003,-1.986020e-002
3.344015e+003,-1.990502e-002
3.345943e+003,-1.995347e-002
3.347872e+003,-2.005479e-002
3.349800e+003,-2.006507e-002
3.351729e+003,-2.009152e-002
3.353657e+003,-2.011243e-002
3.355586e+003,-2.012661e-002
3.357514e+003,-2.039942e-002
3.359443e+003,-2.050683e-002
3.361371e+003,-2.039013e-002
3.363300e+003,-2.042165e-002
3.365229e+003,-2.060471e-002
3.367157e+003,-2.073320e-002
3.369085e+003,-2.079871e-002
3.371014e+003,-2.085742e-002
3.372942e+003,-2.086210e-002
3.374871e+003,-2.099496e-002
3.376799e+003,-2.097883e-002
3.378728e+003,-2.103310e-002
3.380656e+003,-2.115285e-002
3.382585e+003,-2.127052e-002
3.384513e+003,-2.136058e-002
3.386442e+003,-2.138721e-002
3.388370e+003,-2.129434e-002
3.390299e+003,-2.140761e-002
3.392227e+003,-2.158354e-002
3.394156e+003,-2.149926e-002
3.396084e+003,-2.148463e-002
3.398013e+003,-2.163565e-002
3.399941e+003,-2.173280e-002
3.401870e+003,-2.175026e-002
3.403798e+003,-2.172772e-002
3.405727e+003,-2.177150e-002
3.407655e+003,-2.173292e-002
3.409584e+003,-2.176624e-002
3.411512e+003,-2.187416e-002
3.413441e+003,-2.197664e-002
3.415369e+003,-2.203928e-002
3.417298e+003,-2.204955e-002
3.419226e+003,-2.206574e-002
3.421155e+003,-2.209424e-002
3.423083e+003,-2.204936e-002
3.425012e+003,-2.208520e-002
3.426940e+003,-2.219490e-002
3.428869e+003,-2.219623e-002
3.430797e+003,-2.215202e-002
3.432726e+003,-2.217686e-002
3.434654e+003,-2.228298e-002
3.436583e+003,-2.246844e-002
3.438511e+003,-2.241734e-002
3.440440e+003,-2.235091e-002
3.442368e+003,-2.229942e-002
3.444297e+003,-2.232544e-002
3.446225e+003,-2.245013e-002
3.448154e+003,-2.244799e-002
3.450082e+003,-2.238867e-002
3.452011e+003,-2.242036e-002
3.453939e+003,-2.262261e-002
3.455868e+003,-2.267599e-002
3.457796e+003,-2.252699e-002
3.459725e+003,-2.244563e-002
3.461653e+003,-2.241322e-002
3.463582e+003,-2.242275e-002
3.465510e+003,-2.252919e-002
3.467439e+003,-2.255879e-002
3.469367e+003,-2.252315e-002
3.471296e+003,-2.256546e-002
3.473224e+003,-2.256968e-002
3.475153e+003,-2.265142e-002
3.477081e+003,-2.269570e-002
3.479010e+003,-2.262724e-002
3.480938e+003,-2.256014e-002
3.482867e+003,-2.257509e-002
3.484795e+003,-2.254498e-002
3.486724e+003,-2.265064e-002
3.488652e+003,-2.274796e-002
3.490581e+003,-2.284367e-002
3.492509e+003,-2.283945e-002
3.494438e+003,-2.262293e-002
3.496366e+003,-2.243103e-002
3.498295e+003,-2.259412e-002
3.500223e+003,-2.275931e-002
3.502152e+003,-2.273432e-002
3.504080e+003,-2.287843e-002
3.506009e+003,-2.277117e-002
3.507937e+003,-2.262629e-002
3.509866e+003,-2.264010e-002
3.511794e+003,-2.253444e-002
3.513723e+003,-2.258059e-002
3.515651e+003,-2.283181e-002
3.517580e+003,-2.277362e-002
3.519508e+003,-2.272969e-002
3.521437e+003,-2.274186e-002
3.523365e+003,-2.281764e-002
3.525294e+003,-2.289135e-002
3.527222e+003,-2.285215e-002
3.529151e+003,-2.271627e-002
3.531079e+003,-2.272605e-002
3.533008e+003,-2.282452e-002
3.534936e+003,-2.282726e-002
3.536865e+003,-2.275784e-002
3.538793e+003,-2.258248e-002
3.540722e+003,-2.249345e-002
3.542650e+003,-2.249547e-002
3.544579e+003,-2.243741e-002
3.546507e+003,-2.261214e-002
3.548436e+003,-2.291379e-002
3.550364e+003,-2.301254e-002
3.552293e+003,-2.288679e-002
3.554221e+003,-2.273806e-002
3.556150e+003,-2.260145e-002
3.558078e+003,-2.264774e-002
3.560007e+003,-2.277667e-002
3.561935e+003,-2.273146e-002
3.563864e+003,-2.297684e-002
3.565792e+003,-2.308487e-002
3.567721e+003,-2.268882e-002
3.569649e+003,-2.262733e-002
3.571578e+003,-2.274202e-002
3.573506e+003,-2.262856e-002
3.575435e+003,-2.255052e-002
3.577363e+003,-2.255288e-002
3.579292e+003,-2.251661e-002
3.581220e+003,-2.257254e-002
3.583149e+003,-2.276331e-002
3.585077e+003,-2.270680e-002
3.587006e+003,-2.261362e-002
3.588934e+003,-2.260783e-002
3.590863e+003,-2.259314e-002
3.592791e+003,-2.265869e-002
3.594720e+003,-2.272168e-002
3.596648e+003,-2.268976e-002
3.598577e+003,-2.249984e-002
3.600505e+003,-2.249285e-002
3.602434e+003,-2.273916e-002
3.604362e+003,-2.274482e-002
3.606291e+003,-2.284272e-002
3.608219e+003,-2.278915e-002
3.610148e+003,-2.258663e-002
3.612076e+003,-2.263230e-002
3.614005e+003,-2.261308e-002
3.615933e+003,-2.273850e-002
3.617862e+003,-2.267020e-002
3.619790e+003,-2.245500e-002
3.621719e+003,-2.252648e-002
3.623647e+003,-2.268558e-002
3.625576e+003,-2.273683e-002
3.627504e+003,-2.272492e-002
3.629433e+003,-2.227918e-002
3.631361e+003,-2.232438e-002
3.633290e+003,-2.251365e-002
3.635218e+003,-2.261148e-002
3.637146e+003,-2.267407e-002
3.639075e+003,-2.263853e-002
3.641004e+003,-2.262991e-002
3.642932e+003,-2.277607e-002
3.644861e+003,-2.309150e-002
3.646789e+003,-2.300198e-002
3.648718e+003,-2.280009e-002
3.650646e+003,-2.257943e-002
3.652574e+003,-2.253120e-002
3.654503e+003,-2.273501e-002
3.656432e+003,-2.277038e-002
3.658360e+003,-2.295701e-002
3.660289e+003,-2.295428e-002
3.662217e+003,-2.285652e-002
3.664146e+003,-2.282116e-002
3.666074e+003,-2.313366e-002
3.668002e+003,-2.348355e-002
3.669931e+003,-2.323120e-002
3.671860e+003,-2.337735e-002
3.673788e+003,-2.373112e-002
3.675717e+003,-2.318141e-002
3.677645e+003,-2.288507e-002
3.679573e+003,-2.303033e-002
3.681502e+003,-2.308572e-002
3.683430e+003,-2.321147e-002
3.685359e+003,-2.343725e-002
3.687288e+003,-2.350935e-002
3.689216e+003,-2.307875e-002
3.691145e+003,-2.288268e-002
3.693073e+003,-2.306700e-002
3.695001e+003,-2.347690e-002
3.696930e+003,-2.350549e-002
3.698858e+003,-2.352834e-002
3.700787e+003,-2.337662e-002
3.702716e+003,-2.304104e-002
3.704644e+003,-2.302945e-002
3.706573e+003,-2.324096e-002
3.708501e+003,-2.347699e-002
3.710429e+003,-2.338978e-002
3.712358e+003,-2.304418e-002
3.714286e+003,-2.305810e-002
3.716215e+003,-2.322466e-002
3.718144e+003,-2.308459e-002
3.720072e+003,-2.301816e-002
3.722000e+003,-2.300783e-002
3.723929e+003,-2.306228e-002
3.725857e+003,-2.301505e-002
3.727786e+003,-2.278173e-002
3.729714e+003,-2.319413e-002
3.731643e+003,-2.369155e-002
3.733572e+003,-2.377074e-002
3.735500e+003,-2.335088e-002
3.737428e+003,-2.315380e-002
3.739357e+003,-2.318864e-002
3.741285e+003,-2.328321e-002
3.743214e+003,-2.375756e-002
3.745142e+003,-2.305135e-002
3.747071e+003,-2.311962e-002
3.749000e+003,-2.331294e-002
3.750928e+003,-2.310903e-002
3.752856e+003,-2.274007e-002
3.754785e+003,-2.283005e-002
3.756713e+003,-2.282936e-002
3.758642e+003,-2.285181e-002
3.760570e+003,-2.287102e-002
3.762499e+003,-2.281399e-002
3.764427e+003,-2.294127e-002
3.766356e+003,-2.323914e-002
3.768284e+003,-2.337392e-002
3.770213e+003,-2.295352e-002
3.772141e+003,-2.280431e-002
3.774070e+003,-2.292495e-002
3.775998e+003,-2.294645e-002
3.777927e+003,-2.300710e-002
3.779855e+003,-2.281223e-002
3.781784e+003,-2.270724e-002
3.783712e+003,-2.268576e-002
3.785641e+003,-2.262066e-002
3.787569e+003,-2.274611e-002
3.789498e+003,-2.279641e-002
3.791426e+003,-2.281625e-002
3.793355e+003,-2.289164e-002
3.795283e+003,-2.283820e-002
3.797212e+003,-2.278610e-002
3.799140e+003,-2.322953e-002
3.801069e+003,-2.297382e-002
3.802997e+003,-2.266988e-002
3.804926e+003,-2.319611e-002
3.806854e+003,-2.296283e-002
3.808783e+003,-2.285687e-002
3.810711e+003,-2.296135e-002
3.812640e+003,-2.300962e-002
3.814568e+003,-2.331106e-002
3.816497e+003,-2.280600e-002
3.818425e+003,-2.275343e-002
3.820354e+003,-2.281896e-002
3.822282e+003,-2.265564e-002
3.824211e+003,-2.286149e-002
3.826139e+003,-2.295349e-002
3.828068e+003,-2.275413e-002
3.829996e+003,-2.259201e-002
3.831925e+003,-2.257553e-002
3.833853e+003,-2.280330e-002
3.835782e+003,-2.294218e-002
3.837710e+003,-2.279154e-002
3.839639e+003,-2.272784e-002
3.841567e+003,-2.271633e-002
3.843496e+003,-2.289220e-002
3.845424e+003,-2.306018e-002
3.847353e+003,-2.314529e-002
3.849281e+003,-2.307023e-002
3.851210e+003,-2.313951e-002
3.853138e+003,-2.288463e-002
3.855067e+003,-2.247967e-002
3.856995e+003,-2.272378e-002
3.858924e+003,-2.296336e-002
3.860852e+003,-2.306297e-002
3.862781e+003,-2.304082e-002
3.864709e+003,-2.287875e-002
3.866638e+003,-2.296034e-002
3.868566e+003,-2.334164e-002
3.870495e+003,-2.296493e-002
3.872423e+003,-2.293570e-002
3.874352e+003,-2.285561e-002
3.876280e+003,-2.294532e-002
3.878209e+003,-2.325029e-002
3.880137e+003,-2.302615e-002
3.882066e+003,-2.282779e-002
3.883994e+003,-2.320249e-002
3.885923e+003,-2.287545e-002
3.887851e+003,-2.291021e-002
3.889780e+003,-2.303652e-002
3.891708e+003,-2.291141e-002
3.893637e+003,-2.306062e-002
3.895565e+003,-2.317491e-002
3.897494e+003,-2.312509e-002
3.899422e+003,-2.292835e-002
3.901351e+003,-2.297527e-002
3.903279e+003,-2.283348e-002
3.905208e+003,-2.260695e-002
3.907136e+003,-2.289588e-002
3.909065e+003,-2.297637e-002
3.910993e+003,-2.302272e-002
3.912922e+003,-2.316357e-002
3.914850e+003,-2.319325e-002
3.916779e+003,-2.308600e-002
3.918707e+003,-2.305851e-002
3.920636e+003,-2.318436e-002
3.922564e+003,-2.338064e-002
3.924493e+003,-2.335056e-002
3.926421e+003,-2.322482e-002
3.928350e+003,-2.314152e-002
3.930278e+003,-2.312590e-002
3.932207e+003,-2.315044e-002
3.934135e+003,-2.292766e-002
3.936064e+003,-2.287058e-002
3.937992e+003,-2.317378e-002
3.939921e+003,-2.331467e-002
3.941849e+003,-2.312003e-002
3.943778e+003,-2.292533e-002
3.945706e+003,-2.313071e-002
3.947635e+003,-2.334836e-002
3.949563e+003,-2.330440e-002
3.951492e+003,-2.301540e-002
3.953420e+003,-2.309581e-002
3.955349e+003,-2.316247e-002
3.957277e+003,-2.312135e-002
3.959206e+003,-2.332491e-002
3.961134e+003,-2.356412e-002
3.963063e+003,-2.352677e-002
3.964991e+003,-2.353751e-002
3.966920e+003,-2.344532e-002
3.968848e+003,-2.338611e-002
3.970777e+003,-2.343176e-002
3.972705e+003,-2.349077e-002
3.974634e+003,-2.327419e-002
3.976562e+003,-2.310834e-002
3.978491e+003,-2.338397e-002
3.980419e+003,-2.345225e-002
3.982348e+003,-2.338152e-002
3.984276e+003,-2.326367e-002
3.986205e+003,-2.327711e-002
3.988133e+003,-2.318009e-002
3.990062e+003,-2.313426e-002
3.991990e+003,-2.317588e-002
3.993919e+003,-2.319825e-002
3.995847e+003,-2.343420e-002
3.997776e+003,-2.364440e-002
3.999704e+003,-2.373686e-002
4.001633e+003,0.000000e+000
