3.991989e+002,9.377109e-004
4.011274e+002,-7.987052e-003
4.030559e+002,-1.129982e-002
4.049844e+002,-1.470998e-002
4.069129e+002,-1.764563e-002
4.088414e+002,-1.235426e-002
4.107699e+002,-9.901233e-003
4.126984e+002,-8.851171e-003
4.146269e+002,-5.687593e-003
4.165554e+002,-1.344616e-003
4.184839e+002,-6.880794e-004
4.204124e+002,1.374485e-003
4.223409e+002,2.317237e-003
4.242694e+002,1.638787e-004
4.261979e+002,-4.953446e-003
4.281264e+002,2.109790e-003
4.300549e+002,6.523136e-003
4.319834e+002,1.625280e-003
4.339119e+002,3.183094e-003
4.358404e+002,8.056185e-003
4.377689e+002,8.894204e-003
4.396974e+002,2.143820e-003
4.416259e+002,-7.957221e-003
4.435544e+002,-4.929073e-003
4.454829e+002,-7.028004e-004
4.474114e+002,2.023331e-003
4.493399e+002,2.067474e-003
4.512684e+002,-2.619781e-004
4.531969e+002,-2.567812e-005
4.551254e+002,2.333926e-004
4.570539e+002,-8.871518e-004
4.589824e+002,-2.061207e-003
4.609109e+002,-1.739561e-003
4.628394e+002,-1.173314e-003
4.647679e+002,-3.641693e-003
4.666964e+002,-3.822338e-003
4.686249e+002,-3.112729e-003
4.705533e+002,-1.888372e-003
4.724819e+002,-2.067605e-003
4.744103e+002,-2.399289e-003
4.763389e+002,-3.235353e-003
4.782673e+002,-3.503276e-003
4.801959e+002,-4.330100e-003
4.821243e+002,-4.687269e-003
4.840529e+002,-5.594739e-003
4.859813e+002,-6.245376e-003
4.879099e+002,-6.004695e-003
4.898383e+002,-6.362123e-003
4.917668e+002,-7.262324e-003
4.936953e+002,-6.712013e-003
4.956238e+002,-6.347070e-003
4.975523e+002,-6.314252e-003
4.994808e+002,-7.713614e-003
5.014093e+002,-7.662376e-003
5.033378e+002,-5.944595e-003
5.052663e+002,-4.013709e-003
5.071948e+002,-5.745898e-003
5.091233e+002,-8.221499e-003
5.110518e+002,-7.963857e-003
5.129803e+002,-7.618295e-003
5.149088e+002,-8.085282e-003
5.168373e+002,-7.886456e-003
5.187658e+002,-7.765106e-003
5.206943e+002,-8.242437e-003
5.226228e+002,-7.564571e-003
5.245513e+002,-6.814218e-003
5.264798e+002,-7.647726e-003
5.284083e+002,-8.247769e-003
5.303368e+002,-6.994299e-003
5.322653e+002,-6.439110e-003
5.341938e+002,-6.219050e-003
5.361223e+002,-6.652793e-003
5.380508e+002,-6.422460e-003
5.399792e+002,-6.040674e-003
5.419078e+002,-5.538573e-003
5.438363e+002,-5.234814e-003
5.457648e+002,-5.458514e-003
5.476932e+002,-5.117730e-003
5.496218e+002,-5.202959e-003
5.515503e+002,-5.090452e-003
5.534788e+002,-5.099032e-003
5.554072e+002,-6.047176e-003
5.573358e+002,-6.430230e-003
5.592643e+002,-5.669344e-003
5.611927e+002,-5.400824e-003
5.631212e+002,-5.335796e-003
5.650497e+002,-4.993311e-003
5.669783e+002,-5.652338e-003
5.689067e+002,-6.178318e-003
5.708352e+002,-6.572515e-003
5.727637e+002,-6.485759e-003
5.746923e+002,-6.042112e-003
5.766207e+002,-7.236777e-003
5.785492e+002,-7.298133e-003
5.804777e+002,-5.752177e-003
5.824063e+002,-6.111641e-003
5.843347e+002,-6.491341e-003
5.862632e+002,-6.847944e-003
5.881917e+002,-7.803705e-003
5.901202e+002,-8.694269e-003
5.920487e+002,-8.573209e-003
5.939772e+002,-7.739394e-003
5.959057e+002,-7.695971e-003
5.978342e+002,-7.209632e-003
5.997627e+002,-5.992996e-003
6.016912e+002,-5.876509e-003
6.036197e+002,-5.954955e-003
6.055482e+002,-4.437754e-003
6.074767e+002,-3.564833e-003
6.094052e+002,-3.538508e-003
6.113337e+002,-3.805127e-003
6.132622e+002,-4.100599e-003
6.151907e+002,-3.931267e-003
6.171192e+002,-4.327673e-003
6.190477e+002,-5.063532e-003
6.209762e+002,-5.176341e-003
6.229047e+002,-5.184167e-003
6.248332e+002,-6.633867e-003
6.267617e+002,-7.482019e-003
6.286902e+002,-7.690014e-003
6.306187e+002,-7.255319e-003
6.325472e+002,-6.518825e-003
6.344756e+002,-6.079524e-003
6.364042e+002,-5.651880e-003
6.383326e+002,-5.561472e-003
6.402612e+002,-5.400170e-003
6.421896e+002,-5.133579e-003
6.441182e+002,-5.289448e-003
6.460466e+002,-6.186843e-003
6.479752e+002,-5.939953e-003
6.499036e+002,-5.283327e-003
6.518322e+002,-5.129584e-003
6.537606e+002,-4.729518e-003
6.556891e+002,-4.485045e-003
6.576177e+002,-4.879570e-003
6.595461e+002,-5.309382e-003
6.614746e+002,-5.605991e-003
6.634031e+002,-6.048810e-003
6.653317e+002,-5.407009e-003
6.672601e+002,-5.044504e-003
6.691886e+002,-5.128667e-003
6.711171e+002,-5.407107e-003
6.730457e+002,-5.589277e-003
6.749741e+002,-5.312066e-003
6.769026e+002,-4.994555e-003
6.788311e+002,-5.153225e-003
6.807596e+002,-5.286175e-003
6.826881e+002,-5.246533e-003
6.846166e+002,-5.313179e-003
6.865451e+002,-5.296813e-003
6.884736e+002,-5.235337e-003
6.904021e+002,-5.378931e-003
6.923306e+002,-5.363353e-003
6.942591e+002,-5.212257e-003
6.961876e+002,-5.526043e-003
6.981161e+002,-6.493985e-003
7.000446e+002,-6.758307e-003
7.019731e+002,-6.248837e-003
7.039016e+002,-6.033093e-003
7.058301e+002,-6.560799e-003
7.077585e+002,-7.015491e-003
7.096871e+002,-7.121243e-003
7.116156e+002,-7.102761e-003
7.135441e+002,-7.656907e-003
7.154725e+002,-8.294029e-003
7.174011e+002,-8.277482e-003
7.193296e+002,-8.010375e-003
7.212581e+002,-8.308072e-003
7.231865e+002,-8.305114e-003
7.251151e+002,-8.212266e-003
7.270436e+002,-8.230277e-003
7.289720e+002,-8.109186e-003
7.309005e+002,-8.086517e-003
7.328290e+002,-8.295784e-003
7.347576e+002,-7.787237e-003
7.366860e+002,-6.917508e-003
7.386145e+002,-6.676189e-003
7.405430e+002,-6.766104e-003
7.424716e+002,-6.480014e-003
7.444000e+002,-6.070049e-003
7.463285e+002,-5.966231e-003
7.482570e+002,-5.898737e-003
7.501855e+002,-5.166486e-003
7.521140e+002,-4.411942e-003
7.540425e+002,-4.050180e-003
7.559710e+002,-3.907362e-003
7.578995e+002,-3.289122e-003
7.598280e+002,-2.796140e-003
7.617565e+002,-2.681427e-003
7.636850e+002,-2.769737e-003
7.656135e+002,-2.348178e-003
7.675420e+002,-1.850630e-003
7.694705e+002,-1.518823e-003
7.713990e+002,-1.732663e-003
7.733275e+002,-1.911597e-003
7.752560e+002,-1.673519e-003
7.771844e+002,-1.751474e-003
7.791130e+002,-2.188151e-003
7.810415e+002,-2.111296e-003
7.829700e+002,-1.881180e-003
7.848984e+002,-2.036078e-003
7.868270e+002,-2.524388e-003
7.887555e+002,-2.671943e-003
7.906840e+002,-2.693084e-003
7.926124e+002,-3.174275e-003
7.945410e+002,-3.690319e-003
7.964695e+002,-3.934090e-003
7.983979e+002,-3.790905e-003
8.003264e+002,-4.087568e-003
8.022549e+002,-4.566267e-003
8.041835e+002,-4.470976e-003
8.061119e+002,-4.318454e-003
8.080404e+002,-3.962755e-003
8.099689e+002,-4.198695e-003
8.118975e+002,-4.285745e-003
8.138259e+002,-3.893439e-003
8.157545e+002,-3.923813e-003
8.176830e+002,-4.377698e-003
8.196115e+002,-5.168156e-003
8.215399e+002,-5.919885e-003
8.234684e+002,-5.805961e-003
8.253970e+002,-5.788045e-003
8.273254e+002,-5.995447e-003
8.292539e+002,-5.962015e-003
8.311824e+002,-6.118371e-003
8.331110e+002,-6.084850e-003
8.350394e+002,-5.883701e-003
8.369679e+002,-5.741386e-003
8.388964e+002,-5.981558e-003
8.408250e+002,-6.281693e-003
8.427534e+002,-6.211145e-003
8.446819e+002,-5.801940e-003
8.466104e+002,-5.850194e-003
8.485389e+002,-5.852286e-003
8.504674e+002,-5.902953e-003
8.523959e+002,-5.826917e-003
8.543244e+002,-5.909001e-003
8.562529e+002,-6.111510e-003
8.581814e+002,-6.084295e-003
8.601099e+002,-5.503502e-003
8.620384e+002,-5.178142e-003
8.639669e+002,-5.485638e-003
8.658954e+002,-5.469867e-003
8.678239e+002,-5.198212e-003
8.697524e+002,-5.538965e-003
8.716809e+002,-5.892232e-003
8.736094e+002,-5.791314e-003
8.755378e+002,-5.357789e-003
8.774664e+002,-4.811448e-003
8.793949e+002,-4.559447e-003
8.813234e+002,-4.727650e-003
8.832518e+002,-4.999567e-003
8.851804e+002,-5.231245e-003
8.871089e+002,-5.524996e-003
8.890374e+002,-5.310659e-003
8.909658e+002,-4.785855e-003
8.928943e+002,-4.333151e-003
8.948229e+002,-4.285220e-003
8.967513e+002,-4.432900e-003
8.986798e+002,-4.490128e-003
9.006083e+002,-4.678714e-003
9.025369e+002,-4.927861e-003
9.044653e+002,-4.999862e-003
9.063938e+002,-5.330166e-003
9.083223e+002,-5.506348e-003
9.102509e+002,-5.606678e-003
9.121793e+002,-5.890304e-003
9.141078e+002,-5.949857e-003
9.160364e+002,-6.052895e-003
9.179648e+002,-6.172046e-003
9.198933e+002,-6.547743e-003
9.218218e+002,-6.968116e-003
9.237504e+002,-7.013209e-003
9.256788e+002,-7.329443e-003
9.276073e+002,-7.684806e-003
9.295358e+002,-7.611556e-003
9.314644e+002,-7.695711e-003
9.333928e+002,-8.038837e-003
9.353213e+002,-7.968639e-003
9.372498e+002,-7.879884e-003
9.391783e+002,-8.243998e-003
9.411068e+002,-8.202186e-003
9.430353e+002,-7.963662e-003
9.449637e+002,-7.972706e-003
9.468923e+002,-8.077444e-003
9.488208e+002,-7.864689e-003
9.507493e+002,-7.497814e-003
9.526777e+002,-7.537446e-003
9.546063e+002,-7.649973e-003
9.565348e+002,-7.348078e-003
9.584633e+002,-7.075346e-003
9.603917e+002,-7.063056e-003
9.623203e+002,-6.985267e-003
9.642488e+002,-6.731001e-003
9.661772e+002,-6.449263e-003
9.681057e+002,-6.190502e-003
9.700343e+002,-6.046163e-003
9.719628e+002,-6.085569e-003
9.738912e+002,-6.277219e-003
9.758197e+002,-6.268629e-003
9.777483e+002,-5.960315e-003
9.796768e+002,-5.615640e-003
9.816052e+002,-5.569650e-003
9.835337e+002,-5.496795e-003
9.854623e+002,-5.281461e-003
9.873907e+002,-5.232587e-003
9.893192e+002,-5.223617e-003
9.912477e+002,-5.152472e-003
9.931763e+002,-5.046404e-003
9.951047e+002,-4.915051e-003
9.970332e+002,-4.490817e-003
9.989617e+002,-4.433359e-003
1.000890e+003,-4.559906e-003
1.002819e+003,-4.393443e-003
1.004747e+003,-4.240368e-003
1.006676e+003,-4.024936e-003
1.008604e+003,-3.877807e-003
1.010533e+003,-3.990761e-003
1.012461e+003,-3.821911e-003
1.014390e+003,-3.467514e-003
1.016318e+003,-3.354918e-003
1.018247e+003,-3.160131e-003
1.020175e+003,-3.057951e-003
1.022104e+003,-2.888475e-003
1.024032e+003,-2.515856e-003
1.025961e+003,-2.241587e-003
1.027889e+003,-2.268155e-003
1.029818e+003,-2.134740e-003
1.031746e+003,-1.921394e-003
1.033675e+003,-1.732960e-003
1.035603e+003,-1.289053e-003
1.037532e+003,-1.125099e-003
1.039460e+003,-1.224794e-003
1.041389e+003,-1.114358e-003
1.043317e+003,-9.926208e-004
1.045246e+003,-1.133757e-003
1.047174e+003,-9.704712e-004
1.049103e+003,-7.762329e-004
1.051031e+003,-8.126798e-004
1.052960e+003,-7.137499e-004
1.054888e+003,-6.831502e-004
1.056817e+003,-7.892311e-004
1.058745e+003,-7.641934e-004
1.060674e+003,-7.942252e-004
1.062602e+003,-6.258815e-004
1.064531e+003,-5.420658e-004
1.066459e+003,-6.287270e-004
1.068388e+003,-6.608193e-004
1.070316e+003,-5.551041e-004
1.072245e+003,-3.818013e-004
1.074173e+003,-3.203542e-004
1.076102e+003,-3.579651e-004
1.078030e+003,-4.214261e-004
1.079959e+003,-1.994211e-004
1.081887e+003,3.664514e-004
1.083816e+003,5.494779e-004
1.085744e+003,7.472518e-004
1.087673e+003,9.759987e-004
1.089601e+003,9.966218e-004
1.091530e+003,1.111378e-003
1.093458e+003,1.492167e-003
1.095387e+003,1.763889e-003
1.097315e+003,2.015142e-003
1.099244e+003,1.999364e-003
1.101172e+003,2.164498e-003
1.103101e+003,2.449470e-003
1.105029e+003,2.340123e-003
1.106958e+003,2.344653e-003
1.108886e+003,2.466198e-003
1.110815e+003,2.667780e-003
1.112743e+003,2.768040e-003
1.114672e+003,2.622309e-003
1.116600e+003,2.601642e-003
1.118529e+003,2.790415e-003
1.120457e+003,2.836504e-003
1.122386e+003,2.747966e-003
1.124314e+003,2.564444e-003
1.126243e+003,2.267106e-003
1.128171e+003,2.182214e-003
1.130100e+003,2.029456e-003
1.132028e+003,1.565752e-003
1.133957e+003,1.464340e-003
1.135885e+003,1.292891e-003
1.137814e+003,8.733299e-004
1.139742e+003,4.364620e-004
1.141671e+003,5.984420e-005
1.143599e+003,-2.179673e-004
1.145528e+003,-5.657595e-004
1.147456e+003,-1.020687e-003
1.149385e+003,-1.398223e-003
1.151313e+003,-1.733158e-003
1.153242e+003,-2.075321e-003
1.155170e+003,-2.363041e-003
1.157099e+003,-2.671383e-003
1.159027e+003,-3.008727e-003
1.160956e+003,-3.253704e-003
1.162884e+003,-3.432637e-003
1.164813e+003,-3.457160e-003
1.166741e+003,-3.450783e-003
1.168670e+003,-3.314606e-003
1.170598e+003,-3.258999e-003
1.172526e+003,-3.480728e-003
1.174455e+003,-3.479709e-003
1.176384e+003,-3.405779e-003
1.178312e+003,-3.498477e-003
1.180240e+003,-3.385198e-003
1.182169e+003,-3.351038e-003
1.184098e+003,-3.444011e-003
1.186026e+003,-3.485658e-003
1.187954e+003,-3.490424e-003
1.189883e+003,-3.690976e-003
1.191812e+003,-3.815868e-003
1.193740e+003,-3.705169e-003
1.195668e+003,-3.662688e-003
1.197597e+003,-3.510408e-003
1.199526e+003,-3.318157e-003
1.201454e+003,-3.310233e-003
1.203382e+003,-3.290799e-003
1.205311e+003,-3.267220e-003
1.207240e+003,-3.192103e-003
1.209168e+003,-3.062985e-003
1.211096e+003,-2.971806e-003
1.213025e+003,-2.777013e-003
1.214953e+003,-2.561808e-003
1.216882e+003,-2.492038e-003
1.218810e+003,-2.479420e-003
1.220739e+003,-2.457379e-003
1.222667e+003,-2.370489e-003
1.224596e+003,-2.211557e-003
1.226524e+003,-2.039112e-003
1.228453e+003,-1.997062e-003
1.230381e+003,-1.856305e-003
1.232310e+003,-1.662462e-003
1.234238e+003,-1.640446e-003
1.236167e+003,-1.668965e-003
1.238095e+003,-1.713027e-003
1.240024e+003,-1.669130e-003
1.241952e+003,-1.518361e-003
1.243881e+003,-1.691904e-003
1.245809e+003,-1.863497e-003
1.247738e+003,-1.990993e-003
1.249666e+003,-2.145818e-003
1.251595e+003,-2.243796e-003
1.253523e+003,-2.235654e-003
1.255452e+003,-2.198964e-003
1.257380e+003,-2.204238e-003
1.259309e+003,-2.261299e-003
1.261237e+003,-2.149016e-003
1.263166e+003,-1.940065e-003
1.265094e+003,-1.723588e-003
1.267023e+003,-1.448290e-003
1.268951e+003,-1.165945e-003
1.270880e+003,-8.710812e-004
1.272808e+003,-6.273373e-004
1.274737e+003,-3.483972e-004
1.276665e+003,1.211218e-004
1.278594e+003,4.902628e-004
1.280522e+003,5.709433e-004
1.282451e+003,7.388545e-004
1.284379e+003,1.169150e-003
1.286308e+003,1.835856e-003
1.288236e+003,2.266274e-003
1.290165e+003,2.495389e-003
1.292093e+003,2.905547e-003
1.294022e+003,3.052807e-003
1.295950e+003,3.285843e-003
1.297879e+003,3.608502e-003
1.299807e+003,3.915954e-003
1.301736e+003,3.916021e-003
1.303664e+003,3.994799e-003
1.305593e+003,4.051684e-003
1.307521e+003,3.894891e-003
1.309450e+003,3.645757e-003
1.311378e+003,3.350516e-003
1.313307e+003,3.135600e-003
1.315235e+003,2.995719e-003
1.317164e+003,2.829767e-003
1.319092e+003,2.450736e-003
1.321021e+003,1.944677e-003
1.322949e+003,1.559533e-003
1.324878e+003,1.228457e-003
1.326806e+003,9.987804e-004
1.328735e+003,9.323980e-004
1.330663e+003,8.407280e-004
1.332592e+003,6.158681e-004
1.334520e+003,4.583198e-004
1.336449e+003,4.353343e-004
1.338377e+003,4.517193e-004
1.340306e+003,4.635938e-004
1.342234e+003,4.563297e-004
1.344163e+003,4.905282e-004
1.346091e+003,4.648210e-004
1.348020e+003,3.880735e-004
1.349948e+003,3.067639e-004
1.351877e+003,1.589399e-004
1.353805e+003,1.295560e-005
1.355734e+003,-4.727970e-005
1.357662e+003,-9.481927e-005
1.359591e+003,-2.014083e-004
1.361519e+003,-3.436959e-004
1.363448e+003,-5.478239e-004
1.365376e+003,-6.737548e-004
1.367305e+003,-7.711393e-004
1.369233e+003,-8.437996e-004
1.371162e+003,-9.435595e-004
1.373090e+003,-1.016422e-003
1.375019e+003,-9.580074e-004
1.376947e+003,-8.799102e-004
1.378876e+003,-7.644580e-004
1.380804e+003,-6.075182e-004
1.382733e+003,-6.261462e-004
1.384661e+003,-8.285872e-004
1.386590e+003,-1.008885e-003
1.388518e+003,-1.145952e-003
1.390447e+003,-1.373782e-003
1.392375e+003,-1.763387e-003
1.394304e+003,-1.949994e-003
1.396232e+003,-1.972951e-003
1.398161e+003,-2.064505e-003
1.400089e+003,-2.138763e-003
1.402018e+003,-2.180337e-003
1.403946e+003,-2.195436e-003
1.405875e+003,-2.210370e-003
1.407803e+003,-2.274747e-003
1.409732e+003,-2.381693e-003
1.411660e+003,-2.466373e-003
1.413589e+003,-2.440180e-003
1.415517e+003,-2.279164e-003
1.417446e+003,-1.998051e-003
1.419374e+003,-1.549925e-003
1.421303e+003,-8.206501e-004
1.423231e+003,-1.153905e-004
1.425160e+003,5.546865e-004
1.427088e+003,1.129184e-003
1.429017e+003,1.536722e-003
1.430945e+003,1.793932e-003
1.432874e+003,2.099169e-003
1.434802e+003,2.486158e-003
1.436731e+003,2.812058e-003
1.438659e+003,3.263575e-003
1.440588e+003,3.692170e-003
1.442516e+003,4.245573e-003
1.444445e+003,4.827958e-003
1.446373e+003,5.356477e-003
1.448302e+003,5.827641e-003
1.450230e+003,6.296223e-003
1.452159e+003,6.915570e-003
1.454087e+003,7.549287e-003
1.456016e+003,7.777194e-003
1.457944e+003,8.130452e-003
1.459873e+003,8.680652e-003
1.461801e+003,8.989112e-003
1.463730e+003,8.996013e-003
1.465658e+003,9.016716e-003
1.467587e+003,9.034206e-003
1.469515e+003,8.950991e-003
1.471444e+003,8.603554e-003
1.473372e+003,8.298914e-003
1.475301e+003,8.030161e-003
1.477229e+003,7.501077e-003
1.479158e+003,7.010013e-003
1.481086e+003,6.441174e-003
1.483015e+003,5.896152e-003
1.484943e+003,5.466016e-003
1.486872e+003,5.034361e-003
1.488800e+003,4.539045e-003
1.490729e+003,3.953669e-003
1.492657e+003,3.427956e-003
1.494586e+003,3.040928e-003
1.496514e+003,2.591909e-003
1.498443e+003,2.133165e-003
1.500371e+003,1.755772e-003
1.502300e+003,1.529174e-003
1.504228e+003,1.168718e-003
1.506157e+003,6.446370e-004
1.508085e+003,4.666785e-004
1.510014e+003,3.905608e-004
1.511942e+003,2.923406e-004
1.513871e+003,1.995790e-004
1.515799e+003,4.754995e-005
1.517728e+003,6.295472e-007
1.519656e+003,-4.860492e-005
1.521585e+003,2.157080e-005
1.523513e+003,2.995356e-004
1.525442e+003,5.086070e-004
1.527370e+003,7.229234e-004
1.529299e+003,9.315347e-004
1.531227e+003,1.074473e-003
1.533156e+003,1.258729e-003
1.535084e+003,1.669083e-003
1.537013e+003,1.960120e-003
1.538941e+003,2.128003e-003
1.540870e+003,2.473162e-003
1.542798e+003,2.958820e-003
1.544727e+003,3.481193e-003
1.546655e+003,3.872492e-003
1.548584e+003,4.197360e-003
1.550512e+003,4.607923e-003
1.552441e+003,4.954825e-003
1.554369e+003,5.376471e-003
1.556298e+003,5.851753e-003
1.558226e+003,6.218136e-003
1.560155e+003,6.934525e-003
1.562083e+003,7.636146e-003
1.564012e+003,8.023310e-003
1.565940e+003,8.258049e-003
1.567869e+003,8.332958e-003
1.569797e+003,8.463589e-003
1.571726e+003,8.605548e-003
1.573654e+003,8.561074e-003
1.575583e+003,8.495451e-003
1.577511e+003,8.529173e-003
1.579440e+003,8.479334e-003
1.581368e+003,8.477205e-003
1.583297e+003,8.360554e-003
1.585225e+003,8.085856e-003
1.587154e+003,7.819968e-003
1.589082e+003,7.532363e-003
1.591010e+003,6.977553e-003
1.592939e+003,6.413296e-003
1.594868e+003,5.998706e-003
1.596796e+003,5.502725e-003
1.598724e+003,4.999434e-003
1.600653e+003,4.362228e-003
1.602582e+003,3.757505e-003
1.604510e+003,3.227055e-003
1.606438e+003,2.697552e-003
1.608367e+003,2.187176e-003
1.610296e+003,1.870829e-003
1.612224e+003,1.433954e-003
1.614152e+003,9.915406e-004
1.616081e+003,5.010768e-004
1.618010e+003,2.901523e-004
1.619938e+003,1.757122e-004
1.621866e+003,-6.076358e-005
1.623795e+003,-3.390939e-004
1.625724e+003,-3.769018e-004
1.627652e+003,-4.893790e-004
1.629580e+003,-6.446411e-004
1.631509e+003,-7.856921e-004
1.633438e+003,-9.996953e-004
1.635366e+003,-1.270784e-003
1.637294e+003,-1.574951e-003
1.639223e+003,-1.740188e-003
1.641151e+003,-1.876364e-003
1.643080e+003,-2.269078e-003
1.645008e+003,-2.748665e-003
1.646937e+003,-2.927181e-003
1.648865e+003,-2.927707e-003
1.650794e+003,-3.234136e-003
1.652722e+003,-3.580048e-003
1.654651e+003,-3.595657e-003
1.656579e+003,-3.603511e-003
1.658508e+003,-3.790774e-003
1.660436e+003,-3.873505e-003
1.662365e+003,-3.898955e-003
1.664293e+003,-3.979729e-003
1.666222e+003,-4.082021e-003
1.668150e+003,-4.412598e-003
1.670079e+003,-4.847329e-003
1.672007e+003,-4.967532e-003
1.673936e+003,-5.182660e-003
1.675864e+003,-5.365644e-003
1.677793e+003,-5.525781e-003
1.679721e+003,-5.807204e-003
1.681650e+003,-6.086124e-003
1.683578e+003,-6.336098e-003
1.685507e+003,-6.568044e-003
1.687435e+003,-6.853326e-003
1.689364e+003,-7.127208e-003
1.691292e+003,-7.309797e-003
1.693221e+003,-7.550016e-003
1.695149e+003,-7.777441e-003
1.697078e+003,-7.759899e-003
1.699006e+003,-7.900415e-003
1.700935e+003,-8.030087e-003
1.702863e+003,-7.933114e-003
1.704792e+003,-7.975210e-003
1.706720e+003,-8.030901e-003
1.708649e+003,-8.080599e-003
1.710577e+003,-8.113739e-003
1.712506e+003,-8.164338e-003
1.714434e+003,-8.325495e-003
1.716363e+003,-8.639541e-003
1.718291e+003,-8.765745e-003
1.720220e+003,-8.734766e-003
1.722148e+003,-8.750418e-003
1.724077e+003,-8.716190e-003
1.726005e+003,-8.697516e-003
1.727934e+003,-8.777922e-003
1.729862e+003,-8.807600e-003
1.731791e+003,-8.932943e-003
1.733719e+003,-9.173629e-003
1.735648e+003,-9.122044e-003
1.737576e+003,-9.089079e-003
1.739505e+003,-9.077527e-003
1.741433e+003,-8.971439e-003
1.743362e+003,-8.973613e-003
1.745290e+003,-8.768246e-003
1.747219e+003,-8.683844e-003
1.749147e+003,-8.742365e-003
1.751076e+003,-8.804775e-003
1.753004e+003,-8.675139e-003
1.754933e+003,-8.466153e-003
1.756861e+003,-8.330663e-003
1.758790e+003,-8.410552e-003
1.760718e+003,-8.503098e-003
1.762647e+003,-8.511643e-003
1.764575e+003,-8.444609e-003
1.766504e+003,-8.360273e-003
1.768432e+003,-8.347208e-003
1.770361e+003,-8.421374e-003
1.772289e+003,-8.447826e-003
1.774218e+003,-8.355593e-003
1.776146e+003,-8.279823e-003
1.778075e+003,-8.295914e-003
1.780003e+003,-8.332126e-003
1.781932e+003,-8.307552e-003
1.783860e+003,-8.288795e-003
1.785789e+003,-8.291493e-003
1.787717e+003,-8.240356e-003
1.789646e+003,-8.275467e-003
1.791574e+003,-8.321269e-003
1.793503e+003,-8.371844e-003
1.795431e+003,-8.426281e-003
1.797360e+003,-8.419781e-003
1.799288e+003,-8.325170e-003
1.801217e+003,-8.354391e-003
1.803145e+003,-8.327932e-003
1.805074e+003,-8.241364e-003
1.807002e+003,-8.317921e-003
1.808931e+003,-8.434112e-003
1.810859e+003,-8.320164e-003
1.812788e+003,-8.242794e-003
1.814716e+003,-8.279173e-003
1.816645e+003,-8.377597e-003
1.818573e+003,-8.459134e-003
1.820502e+003,-8.447924e-003
1.822430e+003,-8.419521e-003
1.824359e+003,-8.469663e-003
1.826287e+003,-8.563755e-003
1.828216e+003,-8.662635e-003
1.830144e+003,-8.646232e-003
1.832073e+003,-8.517686e-003
1.834001e+003,-8.513105e-003
1.835930e+003,-8.662147e-003
1.837858e+003,-8.683940e-003
1.839787e+003,-8.621578e-003
1.841715e+003,-8.595559e-003
1.843644e+003,-8.700309e-003
1.845572e+003,-8.730089e-003
1.847501e+003,-8.634019e-003
1.849429e+003,-8.602348e-003
1.851358e+003,-8.580583e-003
1.853286e+003,-8.499589e-003
1.855215e+003,-8.444414e-003
1.857143e+003,-8.481978e-003
1.859072e+003,-8.552157e-003
1.861000e+003,-8.534321e-003
1.862929e+003,-8.501571e-003
1.864857e+003,-8.460954e-003
1.866786e+003,-8.438792e-003
1.868714e+003,-8.394400e-003
1.870643e+003,-8.320391e-003
1.872571e+003,-8.325689e-003
1.874500e+003,-8.314410e-003
1.876428e+003,-8.295362e-003
1.878357e+003,-8.281026e-003
1.880285e+003,-8.268965e-003
1.882214e+003,-8.269355e-003
1.884142e+003,-8.259147e-003
1.886071e+003,-8.196301e-003
1.887999e+003,-8.215711e-003
1.889928e+003,-8.267925e-003
1.891856e+003,-8.226116e-003
1.893785e+003,-8.173442e-003
1.895713e+003,-8.257782e-003
1.897642e+003,-8.255831e-003
1.899570e+003,-8.179946e-003
1.901499e+003,-8.128080e-003
1.903427e+003,-8.044236e-003
1.905356e+003,-8.128731e-003
1.907284e+003,-8.205340e-003
1.909213e+003,-8.098389e-003
1.911141e+003,-7.990208e-003
1.913070e+003,-8.035519e-003
1.914998e+003,-8.158745e-003
1.916927e+003,-8.250109e-003
1.918855e+003,-8.262691e-003
1.920784e+003,-8.217403e-003
1.922712e+003,-8.211485e-003
1.924641e+003,-8.245038e-003
1.926569e+003,-8.278198e-003
1.928498e+003,-8.256286e-003
1.930426e+003,-8.217240e-003
1.932355e+003,-8.179133e-003
1.934283e+003,-8.181572e-003
1.936212e+003,-8.255961e-003
1.938140e+003,-8.276735e-003
1.940069e+003,-8.322634e-003
1.941997e+003,-8.368562e-003
1.943926e+003,-8.303033e-003
1.945854e+003,-8.335799e-003
1.947783e+003,-8.510571e-003
1.949711e+003,-8.531852e-003
1.951640e+003,-8.384909e-003
1.953568e+003,-8.309339e-003
1.955497e+003,-8.313500e-003
1.957425e+003,-8.378962e-003
1.959354e+003,-8.423453e-003
1.961282e+003,-8.357543e-003
1.963211e+003,-8.376231e-003
1.965139e+003,-8.421406e-003
1.967068e+003,-8.434210e-003
1.968996e+003,-8.352180e-003
1.970925e+003,-8.301343e-003
1.972853e+003,-8.355236e-003
1.974782e+003,-8.372852e-003
1.976710e+003,-8.296239e-003
1.978639e+003,-8.236390e-003
1.980567e+003,-8.216720e-003
1.982496e+003,-8.193050e-003
1.984424e+003,-8.255539e-003
1.986353e+003,-8.225368e-003
1.988281e+003,-8.097185e-003
1.990210e+003,-8.059263e-003
1.992138e+003,-8.017174e-003
1.994067e+003,-7.919286e-003
1.995995e+003,-7.864721e-003
1.997924e+003,-7.871912e-003
1.999852e+003,-7.906662e-003
2.001781e+003,-7.955464e-003
2.003709e+003,-7.962490e-003
2.005638e+003,-7.873441e-003
2.007566e+003,-7.813728e-003
2.009495e+003,-7.886229e-003
2.011423e+003,-8.027160e-003
2.013352e+003,-7.954163e-003
2.015280e+003,-7.844058e-003
2.017208e+003,-7.870871e-003
2.019137e+003,-7.892281e-003
2.021066e+003,-7.855284e-003
2.022994e+003,-7.786131e-003
2.024922e+003,-7.739947e-003
2.026851e+003,-7.739654e-003
2.028780e+003,-7.769956e-003
2.030708e+003,-7.748637e-003
2.032636e+003,-7.688875e-003
2.034565e+003,-7.725397e-003
2.036494e+003,-7.801265e-003
2.038422e+003,-7.741184e-003
2.040350e+003,-7.676537e-003
2.042279e+003,-7.755147e-003
2.044208e+003,-7.816267e-003
2.046136e+003,-7.773731e-003
2.048064e+003,-7.676765e-003
2.049993e+003,-7.600844e-003
2.051921e+003,-7.613509e-003
2.053850e+003,-7.629885e-003
2.055778e+003,-7.613151e-003
2.057707e+003,-7.569000e-003
2.059635e+003,-7.474333e-003
2.061564e+003,-7.496837e-003
2.063492e+003,-7.556626e-003
2.065421e+003,-7.521164e-003
2.067349e+003,-7.483191e-003
2.069278e+003,-7.484071e-003
2.071206e+003,-7.546141e-003
2.073135e+003,-7.480651e-003
2.075063e+003,-7.354626e-003
2.076992e+003,-7.373228e-003
2.078920e+003,-7.390167e-003
2.080849e+003,-7.319571e-003
2.082777e+003,-7.216149e-003
2.084706e+003,-7.173880e-003
2.086634e+003,-7.244044e-003
2.088563e+003,-7.199757e-003
2.090491e+003,-7.067262e-003
2.092420e+003,-7.001537e-003
2.094348e+003,-7.001015e-003
2.096277e+003,-6.979822e-003
2.098205e+003,-6.945487e-003
2.100134e+003,-6.946106e-003
2.102062e+003,-6.853358e-003
2.103991e+003,-6.740005e-003
2.105919e+003,-6.692209e-003
2.107848e+003,-6.630213e-003
2.109776e+003,-6.633247e-003
2.111705e+003,-6.551399e-003
2.113633e+003,-6.427781e-003
2.115562e+003,-6.450699e-003
2.117490e+003,-6.434768e-003
2.119419e+003,-6.333943e-003
2.121347e+003,-6.353600e-003
2.123276e+003,-6.370743e-003
2.125204e+003,-6.339527e-003
2.127133e+003,-6.350988e-003
2.129061e+003,-6.273757e-003
2.130990e+003,-6.210263e-003
2.132918e+003,-6.157639e-003
2.134847e+003,-6.159795e-003
2.136775e+003,-6.152674e-003
2.138704e+003,-6.116868e-003
2.140632e+003,-6.109354e-003
2.142561e+003,-6.187333e-003
2.144489e+003,-6.256807e-003
2.146418e+003,-6.190142e-003
2.148346e+003,-6.032276e-003
2.150275e+003,-6.012179e-003
2.152203e+003,-6.032210e-003
2.154132e+003,-6.007636e-003
2.156060e+003,-6.015349e-003
2.157989e+003,-6.076126e-003
2.159917e+003,-6.109158e-003
2.161846e+003,-6.116639e-003
2.163774e+003,-6.122814e-003
2.165703e+003,-6.038223e-003
2.167631e+003,-5.984630e-003
2.169560e+003,-5.921650e-003
2.171488e+003,-5.905928e-003
2.173417e+003,-5.971002e-003
2.175345e+003,-5.969107e-003
2.177274e+003,-5.929691e-003
2.179202e+003,-5.951523e-003
2.181131e+003,-5.947340e-003
2.183059e+003,-5.943614e-003
2.184988e+003,-5.921192e-003
2.186916e+003,-5.954694e-003
2.188845e+003,-6.020708e-003
2.190773e+003,-5.954694e-003
2.192702e+003,-5.818745e-003
2.194630e+003,-5.882426e-003
2.196559e+003,-6.056162e-003
2.198487e+003,-6.073708e-003
2.200416e+003,-6.001820e-003
2.202344e+003,-5.908085e-003
2.204273e+003,-5.874613e-003
2.206201e+003,-5.858105e-003
2.208130e+003,-5.849442e-003
2.210058e+003,-5.890663e-003
2.211987e+003,-6.014401e-003
2.213915e+003,-5.964564e-003
2.215844e+003,-5.914100e-003
2.217772e+003,-5.903771e-003
2.219701e+003,-5.856242e-003
2.221629e+003,-5.880301e-003
2.223558e+003,-5.916715e-003
2.225486e+003,-5.910537e-003
2.227415e+003,-5.827670e-003
2.229343e+003,-5.799226e-003
2.231272e+003,-5.779086e-003
2.233200e+003,-5.829729e-003
2.235129e+003,-5.860524e-003
2.237057e+003,-5.846663e-003
2.238986e+003,-5.811029e-003
2.240914e+003,-5.845454e-003
2.242843e+003,-5.946130e-003
2.244771e+003,-5.927991e-003
2.246700e+003,-5.911354e-003
2.248628e+003,-5.933449e-003
2.250557e+003,-5.943320e-003
2.252485e+003,-6.046098e-003
2.254414e+003,-6.091842e-003
2.256342e+003,-6.087954e-003
2.258271e+003,-6.097723e-003
2.260199e+003,-6.169857e-003
2.262128e+003,-6.171065e-003
2.264056e+003,-6.075865e-003
2.265985e+003,-6.016296e-003
2.267913e+003,-6.067174e-003
2.269842e+003,-6.201085e-003
2.271770e+003,-6.232866e-003
2.273699e+003,-6.256252e-003
2.275627e+003,-6.195009e-003
2.277556e+003,-6.191318e-003
2.279484e+003,-6.275684e-003
2.281413e+003,-6.251548e-003
2.283341e+003,-6.314938e-003
2.285270e+003,-6.419424e-003
2.287198e+003,-6.310856e-003
2.289127e+003,-6.271602e-003
2.291055e+003,-6.277937e-003
2.292984e+003,-6.289629e-003
2.294912e+003,-6.388048e-003
2.296841e+003,-6.404112e-003
2.298769e+003,-6.394023e-003
2.300698e+003,-6.371167e-003
2.302626e+003,-6.328718e-003
2.304555e+003,-6.284469e-003
2.306483e+003,-6.241456e-003
2.308412e+003,-6.163977e-003
2.310340e+003,-6.144050e-003
2.312269e+003,-6.129250e-003
2.314197e+003,-6.059789e-003
2.316125e+003,-5.853790e-003
2.318054e+003,-5.774247e-003
2.319983e+003,-5.798670e-003
2.321911e+003,-5.736285e-003
2.323840e+003,-5.526697e-003
2.325768e+003,-5.356022e-003
2.327697e+003,-5.313932e-003
2.329625e+003,-5.334814e-003
2.331553e+003,-5.369375e-003
2.333482e+003,-5.313735e-003
2.335411e+003,-5.244242e-003
2.337339e+003,-5.184494e-003
2.339268e+003,-5.113441e-003
2.341196e+003,-5.018106e-003
2.343125e+003,-5.116944e-003
2.345053e+003,-5.219067e-003
2.346981e+003,-5.308989e-003
2.348910e+003,-5.450367e-003
2.350839e+003,-5.282705e-003
2.352767e+003,-4.996848e-003
2.354696e+003,-4.914494e-003
2.356624e+003,-4.718702e-003
2.358552e+003,-4.561087e-003
2.360481e+003,-4.593053e-003
2.362409e+003,-4.651768e-003
2.364338e+003,-4.683401e-003
2.366267e+003,-4.674452e-003
2.368195e+003,-4.707984e-003
2.370124e+003,-4.768847e-003
2.372052e+003,-4.857879e-003
2.373980e+003,-4.956558e-003
2.375909e+003,-5.238546e-003
2.377838e+003,-5.350000e-003
2.379766e+003,-5.272361e-003
2.381695e+003,-5.220409e-003
2.383623e+003,-5.230722e-003
2.385552e+003,-5.130370e-003
2.387480e+003,-5.071720e-003
2.389408e+003,-5.056589e-003
2.391337e+003,-4.995112e-003
2.393266e+003,-4.912103e-003
2.395194e+003,-4.816200e-003
2.397123e+003,-4.790869e-003
2.399051e+003,-4.815479e-003
2.400979e+003,-4.850409e-003
2.402908e+003,-4.903650e-003
2.404836e+003,-4.779891e-003
2.406765e+003,-4.692120e-003
2.408694e+003,-4.782709e-003
2.410622e+003,-4.815905e-003
2.412551e+003,-4.714539e-003
2.414479e+003,-4.655899e-003
2.416407e+003,-4.640557e-003
2.418336e+003,-4.664323e-003
2.420264e+003,-4.664323e-003
2.422193e+003,-4.555873e-003
2.424122e+003,-4.485996e-003
2.426050e+003,-4.406497e-003
2.427979e+003,-4.350898e-003
2.429907e+003,-4.294210e-003
2.431835e+003,-4.164074e-003
2.433764e+003,-4.096956e-003
2.435692e+003,-4.034850e-003
2.437621e+003,-3.958355e-003
2.439550e+003,-3.884047e-003
2.441478e+003,-3.852159e-003
2.443406e+003,-3.860303e-003
2.445335e+003,-3.862044e-003
2.447263e+003,-3.794256e-003
2.449192e+003,-3.819546e-003
2.451121e+003,-3.735753e-003
2.453049e+003,-3.675830e-003
2.454978e+003,-3.583696e-003
2.456906e+003,-3.528945e-003
2.458834e+003,-3.525264e-003
2.460763e+003,-3.473332e-003
2.462691e+003,-3.389604e-003
2.464620e+003,-3.295797e-003
2.466549e+003,-3.249462e-003
2.468477e+003,-3.324208e-003
2.470406e+003,-3.289418e-003
2.472334e+003,-3.222198e-003
2.474262e+003,-3.183551e-003
2.476191e+003,-3.056076e-003
2.478119e+003,-3.003397e-003
2.480048e+003,-3.038506e-003
2.481977e+003,-2.966212e-003
2.483905e+003,-2.943636e-003
2.485833e+003,-3.038243e-003
2.487762e+003,-2.997474e-003
2.489690e+003,-2.912337e-003
2.491619e+003,-2.878634e-003
2.493547e+003,-2.760485e-003
2.495476e+003,-2.733421e-003
2.497405e+003,-2.743726e-003
2.499333e+003,-2.742113e-003
2.501261e+003,-2.645894e-003
2.503190e+003,-2.658211e-003
2.505118e+003,-2.768782e-003
2.507047e+003,-2.739182e-003
2.508975e+003,-2.637331e-003
2.510904e+003,-2.571328e-003
2.512833e+003,-2.544845e-003
2.514761e+003,-2.571328e-003
2.516689e+003,-2.562863e-003
2.518618e+003,-2.582988e-003
2.520546e+003,-2.550642e-003
2.522475e+003,-2.568956e-003
2.524403e+003,-2.579365e-003
2.526332e+003,-2.442190e-003
2.528260e+003,-2.349398e-003
2.530189e+003,-2.326328e-003
2.532117e+003,-2.307905e-003
2.534046e+003,-2.383868e-003
2.535974e+003,-2.260739e-003
2.537903e+003,-2.217886e-003
2.539831e+003,-2.317430e-003
2.541760e+003,-2.287734e-003
2.543688e+003,-2.269441e-003
2.545617e+003,-2.270891e-003
2.547545e+003,-2.210502e-003
2.549474e+003,-2.125936e-003
2.551402e+003,-2.086203e-003
2.553331e+003,-2.079443e-003
2.555259e+003,-2.119804e-003
2.557188e+003,-2.107175e-003
2.559116e+003,-2.034825e-003
2.561045e+003,-1.925023e-003
2.562973e+003,-1.838719e-003
2.564902e+003,-1.851818e-003
2.566830e+003,-1.886030e-003
2.568759e+003,-1.852675e-003
2.570687e+003,-1.860264e-003
2.572616e+003,-1.848518e-003
2.574544e+003,-1.699099e-003
2.576473e+003,-1.667281e-003
2.578401e+003,-1.703455e-003
2.580330e+003,-1.724116e-003
2.582258e+003,-1.679659e-003
2.584187e+003,-1.565244e-003
2.586115e+003,-1.555241e-003
2.588044e+003,-1.516446e-003
2.589972e+003,-1.497030e-003
2.591901e+003,-1.522521e-003
2.593829e+003,-1.542563e-003
2.595758e+003,-1.508950e-003
2.597686e+003,-1.471505e-003
2.599615e+003,-1.382799e-003
2.601543e+003,-1.376755e-003
2.603472e+003,-1.576865e-003
2.605400e+003,-1.635296e-003
2.607329e+003,-1.522620e-003
2.609257e+003,-1.489667e-003
2.611186e+003,-1.486266e-003
2.613114e+003,-1.454465e-003
2.615043e+003,-1.402319e-003
2.616971e+003,-1.290144e-003
2.618900e+003,-1.314689e-003
2.620828e+003,-1.319478e-003
2.622757e+003,-1.202954e-003
2.624685e+003,-1.071590e-003
2.626614e+003,-1.098494e-003
2.628542e+003,-1.257734e-003
2.630471e+003,-1.394887e-003
2.632399e+003,-1.296255e-003
2.634328e+003,-1.258858e-003
2.636256e+003,-1.236821e-003
2.638185e+003,-1.153354e-003
2.640113e+003,-1.089934e-003
2.642042e+003,-1.013480e-003
2.643970e+003,-9.600902e-004
2.645899e+003,-9.312602e-004
2.647827e+003,-8.617230e-004
2.649756e+003,-8.296786e-004
2.651684e+003,-7.779527e-004
2.653613e+003,-6.440455e-004
2.655541e+003,-5.889887e-004
2.657470e+003,-6.784525e-004
2.659398e+003,-6.929754e-004
2.661327e+003,-5.477246e-004
2.663255e+003,-4.866320e-004
2.665184e+003,-5.378961e-004
2.667112e+003,-4.876249e-004
2.669041e+003,-3.715718e-004
2.670969e+003,-4.094100e-004
2.672898e+003,-4.160967e-004
2.674826e+003,-2.879718e-004
2.676755e+003,-1.918369e-004
2.678683e+003,-1.274811e-004
2.680612e+003,-1.329797e-004
2.682540e+003,-7.895124e-005
2.684469e+003,2.465243e-005
2.686397e+003,1.417706e-004
2.688326e+003,2.493058e-004
2.690254e+003,2.665126e-004
2.692183e+003,2.661479e-004
2.694111e+003,3.273883e-004
2.696040e+003,4.329795e-004
2.697968e+003,4.668775e-004
2.699897e+003,5.295728e-004
2.701825e+003,6.293067e-004
2.703754e+003,6.304017e-004
2.705682e+003,7.191066e-004
2.707611e+003,8.314658e-004
2.709539e+003,8.396325e-004
2.711468e+003,8.269841e-004
2.713396e+003,8.286108e-004
2.715325e+003,8.366446e-004
2.717253e+003,8.234652e-004
2.719182e+003,8.156972e-004
2.721110e+003,9.657374e-004
2.723039e+003,1.104767e-003
2.724967e+003,1.080419e-003
2.726896e+003,1.142073e-003
2.728824e+003,1.249358e-003
2.730753e+003,1.383925e-003
2.732681e+003,1.479766e-003
2.734610e+003,1.485950e-003
2.736538e+003,1.489175e-003
2.738467e+003,1.575129e-003
2.740395e+003,1.673840e-003
2.742324e+003,1.703344e-003
2.744252e+003,1.767948e-003
2.746181e+003,1.898449e-003
2.748109e+003,2.015142e-003
2.750038e+003,2.102066e-003
2.751966e+003,2.059151e-003
2.753895e+003,2.108325e-003
2.755823e+003,2.181581e-003
2.757752e+003,2.304013e-003
2.759680e+003,2.532681e-003
2.761609e+003,2.763471e-003
2.763537e+003,3.015804e-003
2.765466e+003,3.153890e-003
2.767394e+003,3.395061e-003
2.769323e+003,3.723583e-003
2.771251e+003,4.032889e-003
2.773180e+003,4.404802e-003
2.775108e+003,4.770703e-003
2.777037e+003,5.171112e-003
2.778965e+003,5.621834e-003
2.780894e+003,6.152564e-003
2.782822e+003,6.649691e-003
2.784750e+003,7.131927e-003
2.786679e+003,7.824050e-003
2.788608e+003,8.399333e-003
2.790536e+003,8.926705e-003
2.792465e+003,9.624103e-003
2.794393e+003,1.034922e-002
2.796322e+003,1.087792e-002
2.798250e+003,1.139474e-002
2.800178e+003,1.209060e-002
2.802107e+003,1.270186e-002
2.804036e+003,1.315268e-002
2.805964e+003,1.358862e-002
2.807893e+003,1.387486e-002
2.809821e+003,1.405915e-002
2.811750e+003,1.427465e-002
2.813678e+003,1.432283e-002
2.815606e+003,1.428742e-002
2.817535e+003,1.432098e-002
2.819464e+003,1.427393e-002
2.821392e+003,1.412901e-002
2.823321e+003,1.391431e-002
2.825249e+003,1.358859e-002
2.827177e+003,1.330188e-002
2.829106e+003,1.296706e-002
2.831034e+003,1.264041e-002
2.832963e+003,1.235182e-002
2.834892e+003,1.197746e-002
2.836820e+003,1.146121e-002
2.838749e+003,1.099188e-002
2.840677e+003,1.046936e-002
2.842605e+003,9.913505e-003
2.844534e+003,9.445780e-003
2.846462e+003,8.963439e-003
2.848391e+003,8.538804e-003
2.850320e+003,8.257914e-003
2.852248e+003,8.021487e-003
2.854177e+003,7.678199e-003
2.856105e+003,7.341888e-003
2.858033e+003,7.176390e-003
2.859962e+003,7.126875e-003
2.861890e+003,7.008026e-003
2.863819e+003,6.846729e-003
2.865748e+003,6.832491e-003
2.867676e+003,6.906312e-003
2.869604e+003,6.970314e-003
2.871533e+003,6.980618e-003
2.873461e+003,7.052107e-003
2.875390e+003,7.109327e-003
2.877319e+003,7.135868e-003
2.879247e+003,7.298318e-003
2.881176e+003,7.461704e-003
2.883104e+003,7.459986e-003
2.885032e+003,7.454053e-003
2.886961e+003,7.528722e-003
2.888889e+003,7.567999e-003
2.890818e+003,7.510483e-003
2.892747e+003,7.375824e-003
2.894675e+003,7.336766e-003
2.896604e+003,7.394091e-003
2.898532e+003,7.321299e-003
2.900460e+003,7.273923e-003
2.902389e+003,7.258896e-003
2.904317e+003,7.147455e-003
2.906246e+003,7.156887e-003
2.908175e+003,7.236255e-003
2.910103e+003,7.214289e-003
2.912031e+003,7.172112e-003
2.913960e+003,7.080228e-003
2.915888e+003,6.978530e-003
2.917817e+003,7.167195e-003
2.919745e+003,7.447615e-003
2.921674e+003,7.656818e-003
2.923603e+003,7.625861e-003
2.925531e+003,7.634629e-003
2.927459e+003,7.841290e-003
2.929388e+003,7.961920e-003
2.931316e+003,8.008325e-003
2.933245e+003,8.109285e-003
2.935173e+003,8.218507e-003
2.937102e+003,8.206554e-003
2.939031e+003,8.147804e-003
2.940959e+003,8.154692e-003
2.942887e+003,8.023513e-003
2.944816e+003,7.859847e-003
2.946744e+003,7.626771e-003
2.948673e+003,7.353481e-003
2.950601e+003,7.033922e-003
2.952530e+003,6.631927e-003
2.954458e+003,6.115397e-003
2.956387e+003,5.642679e-003
2.958315e+003,5.148848e-003
2.960244e+003,4.676946e-003
2.962172e+003,4.257719e-003
2.964101e+003,3.753026e-003
2.966029e+003,3.190805e-003
2.967958e+003,2.714623e-003
2.969886e+003,2.325998e-003
2.971815e+003,1.943945e-003
2.973743e+003,1.536190e-003
2.975672e+003,1.222809e-003
2.977600e+003,1.008378e-003
2.979529e+003,8.455749e-004
2.981457e+003,4.693985e-004
2.983386e+003,2.192702e-004
2.985314e+003,-6.122739e-005
2.987243e+003,-3.321080e-004
2.989171e+003,-5.112223e-004
2.991100e+003,-6.251537e-004
2.993028e+003,-8.204186e-004
2.994957e+003,-9.964557e-004
2.996885e+003,-1.037347e-003
2.998814e+003,-1.008951e-003
3.000742e+003,-1.093140e-003
3.002671e+003,-1.215212e-003
3.004599e+003,-1.245345e-003
3.006528e+003,-1.376127e-003
3.008456e+003,-1.605983e-003
3.010385e+003,-1.672067e-003
3.012313e+003,-1.562504e-003
3.014242e+003,-1.553623e-003
3.016170e+003,-1.692894e-003
3.018099e+003,-1.646189e-003
3.020027e+003,-1.496469e-003
3.021956e+003,-1.542761e-003
3.023884e+003,-1.624403e-003
3.025813e+003,-1.685732e-003
3.027741e+003,-1.792789e-003
3.029670e+003,-1.769261e-003
3.031598e+003,-1.773287e-003
3.033527e+003,-1.902393e-003
3.035455e+003,-1.935414e-003
3.037384e+003,-1.898368e-003
3.039312e+003,-2.073112e-003
3.041241e+003,-2.221545e-003
3.043169e+003,-2.239412e-003
3.045098e+003,-2.233907e-003
3.047026e+003,-2.234500e-003
3.048955e+003,-2.333810e-003
3.050883e+003,-2.450065e-003
3.052812e+003,-2.536708e-003
3.054740e+003,-2.576170e-003
3.056669e+003,-2.570735e-003
3.058597e+003,-2.567573e-003
3.060526e+003,-2.577092e-003
3.062454e+003,-2.571229e-003
3.064383e+003,-2.696937e-003
3.066311e+003,-2.832385e-003
3.068240e+003,-2.863361e-003
3.070168e+003,-2.940707e-003
3.072097e+003,-3.012084e-003
3.074025e+003,-2.982402e-003
3.075954e+003,-2.886006e-003
3.077882e+003,-2.909178e-003
3.079811e+003,-3.144408e-003
3.081739e+003,-3.198418e-003
3.083668e+003,-3.186972e-003
3.085596e+003,-3.245647e-003
3.087525e+003,-3.300203e-003
3.089453e+003,-3.274817e-003
3.091382e+003,-3.355970e-003
3.093310e+003,-3.448613e-003
3.095239e+003,-3.382272e-003
3.097167e+003,-3.371982e-003
3.099096e+003,-3.480103e-003
3.101024e+003,-3.676882e-003
3.102953e+003,-3.686672e-003
3.104881e+003,-3.631441e-003
3.106810e+003,-3.656084e-003
3.108738e+003,-3.641331e-003
3.110667e+003,-3.654014e-003
3.112595e+003,-3.696134e-003
3.114524e+003,-3.693046e-003
3.116452e+003,-3.774186e-003
3.118381e+003,-3.828020e-003
3.120309e+003,-3.875279e-003
3.122238e+003,-3.807459e-003
3.124166e+003,-3.798887e-003
3.126095e+003,-3.864146e-003
3.128023e+003,-3.924765e-003
3.129952e+003,-3.857184e-003
3.131880e+003,-3.875377e-003
3.133809e+003,-3.898134e-003
3.135737e+003,-3.928739e-003
3.137666e+003,-3.892946e-003
3.139594e+003,-3.846609e-003
3.141523e+003,-3.900433e-003
3.143451e+003,-3.882405e-003
3.145380e+003,-3.916031e-003
3.147308e+003,-3.885360e-003
3.149237e+003,-3.897182e-003
3.151165e+003,-3.982684e-003
3.153094e+003,-4.184420e-003
3.155022e+003,-4.176905e-003
3.156951e+003,-4.054940e-003
3.158879e+003,-3.972868e-003
3.160808e+003,-3.835771e-003
3.162736e+003,-3.844868e-003
3.164665e+003,-3.934846e-003
3.166593e+003,-4.062589e-003
3.168522e+003,-4.145564e-003
3.170450e+003,-4.109560e-003
3.172379e+003,-3.975494e-003
3.174307e+003,-3.818955e-003
3.176236e+003,-3.773825e-003
3.178164e+003,-3.946797e-003
3.180093e+003,-4.064329e-003
3.182021e+003,-4.003138e-003
3.183950e+003,-3.938918e-003
3.185878e+003,-4.011411e-003
3.187807e+003,-4.021391e-003
3.189735e+003,-4.007241e-003
3.191664e+003,-4.059306e-003
3.193592e+003,-4.102536e-003
3.195521e+003,-4.093969e-003
3.197449e+003,-3.975987e-003
3.199378e+003,-3.814127e-003
3.201306e+003,-3.751455e-003
3.203235e+003,-3.880106e-003
3.205163e+003,-3.856395e-003
3.207092e+003,-3.805390e-003
3.209020e+003,-3.740944e-003
3.210948e+003,-3.752277e-003
3.212877e+003,-3.747645e-003
3.214806e+003,-3.684471e-003
3.216734e+003,-3.697415e-003
3.218663e+003,-3.704183e-003
3.220591e+003,-3.691863e-003
3.222520e+003,-3.528189e-003
3.224448e+003,-3.390886e-003
3.226376e+003,-3.236241e-003
3.228305e+003,-3.054299e-003
3.230234e+003,-3.026825e-003
3.232162e+003,-3.119210e-003
3.234091e+003,-3.116578e-003
3.236019e+003,-3.048837e-003
3.237948e+003,-2.901048e-003
3.239876e+003,-2.657223e-003
3.241804e+003,-2.483900e-003
3.243733e+003,-2.556406e-003
3.245662e+003,-2.522378e-003
3.247590e+003,-2.523169e-003
3.249519e+003,-2.437808e-003
3.251447e+003,-2.390194e-003
3.253375e+003,-2.402255e-003
3.255304e+003,-2.285855e-003
3.257232e+003,-1.982978e-003
3.259161e+003,-1.848518e-003
3.261090e+003,-1.952996e-003
3.263018e+003,-2.051116e-003
3.264947e+003,-2.169556e-003
3.266875e+003,-2.109813e-003
3.268803e+003,-1.993698e-003
3.270732e+003,-1.940989e-003
3.272660e+003,-1.728340e-003
3.274589e+003,-1.606775e-003
3.276518e+003,-1.598258e-003
3.278446e+003,-1.644671e-003
3.280375e+003,-1.766390e-003
3.282303e+003,-1.657313e-003
3.284231e+003,-1.619781e-003
3.286160e+003,-1.691607e-003
3.288088e+003,-1.749164e-003
3.290017e+003,-1.869337e-003
3.291946e+003,-1.991752e-003
3.293874e+003,-2.147665e-003
3.295802e+003,-2.143378e-003
3.297731e+003,-2.191777e-003
3.299659e+003,-2.346695e-003
3.301588e+003,-2.325867e-003
3.303516e+003,-2.368412e-003
3.305445e+003,-2.517799e-003
3.307374e+003,-2.652448e-003
3.309302e+003,-2.690120e-003
3.311230e+003,-2.636343e-003
3.313159e+003,-2.783729e-003
3.315087e+003,-3.039855e-003
3.317016e+003,-3.256138e-003
3.318944e+003,-3.477112e-003
3.320873e+003,-3.458737e-003
3.322802e+003,-3.489044e-003
3.324730e+003,-3.757729e-003
3.326658e+003,-3.896361e-003
3.328587e+003,-3.899973e-003
3.330515e+003,-3.818035e-003
3.332444e+003,-3.857545e-003
3.334372e+003,-4.034850e-003
3.336301e+003,-4.125248e-003
3.338229e+003,-4.079723e-003
3.340158e+003,-4.028285e-003
3.342086e+003,-4.126495e-003
3.344015e+003,-4.179301e-003
3.345943e+003,-4.164074e-003
3.347872e+003,-4.313566e-003
3.349800e+003,-4.352899e-003
3.351729e+003,-4.331314e-003
3.353657e+003,-4.475338e-003
3.355586e+003,-4.647015e-003
3.357514e+003,-4.769666e-003
3.359443e+003,-4.760915e-003
3.361371e+003,-4.684843e-003
3.363300e+003,-4.845068e-003
3.365229e+003,-5.018335e-003
3.367157e+003,-5.078368e-003
3.369085e+003,-5.230132e-003
3.371014e+003,-5.326173e-003
3.372942e+003,-5.326697e-003
3.374871e+003,-5.543120e-003
3.376799e+003,-5.693414e-003
3.378728e+003,-5.809035e-003
3.380656e+003,-5.960413e-003
3.382585e+003,-6.141828e-003
3.384513e+003,-6.276598e-003
3.386442e+003,-6.192037e-003
3.388370e+003,-5.962603e-003
3.390299e+003,-6.052927e-003
3.392227e+003,-6.272385e-003
3.394156e+003,-6.360033e-003
3.396084e+003,-6.411653e-003
3.398013e+003,-6.378187e-003
3.399941e+003,-6.398202e-003
3.401870e+003,-6.461145e-003
3.403798e+003,-6.473028e-003
3.405727e+003,-6.457522e-003
3.407655e+003,-6.414886e-003
3.409584e+003,-6.511318e-003
3.411512e+003,-6.623914e-003
3.413441e+003,-6.758307e-003
3.415369e+003,-6.767833e-003
3.417298e+003,-6.684346e-003
3.419226e+003,-6.774422e-003
3.421155e+003,-6.842106e-003
3.423083e+003,-6.753675e-003
3.425012e+003,-6.762352e-003
3.426940e+003,-6.902181e-003
3.428869e+003,-6.880461e-003
3.430797e+003,-6.742974e-003
3.432726e+003,-6.845987e-003
3.434654e+003,-7.050538e-003
3.436583e+003,-7.193435e-003
3.438511e+003,-7.182550e-003
3.440440e+003,-7.054776e-003
3.442368e+003,-6.903713e-003
3.444297e+003,-7.017186e-003
3.446225e+003,-7.146634e-003
3.448154e+003,-7.157682e-003
3.450082e+003,-7.131575e-003
3.452011e+003,-7.224361e-003
3.453939e+003,-7.468536e-003
3.455868e+003,-7.584141e-003
3.457796e+003,-7.385835e-003
3.459725e+003,-7.149208e-003
3.461653e+003,-7.148426e-003
3.463582e+003,-7.375411e-003
3.465510e+003,-7.547704e-003
3.467439e+003,-7.527514e-003
3.469367e+003,-7.457918e-003
3.471296e+003,-7.497000e-003
3.473224e+003,-7.630634e-003
3.475153e+003,-7.751306e-003
3.477081e+003,-7.691284e-003
3.479010e+003,-7.598239e-003
3.480938e+003,-7.499215e-003
3.482867e+003,-7.519926e-003
3.484795e+003,-7.510320e-003
3.486724e+003,-7.594690e-003
3.488652e+003,-7.685359e-003
3.490581e+003,-7.728164e-003
3.492509e+003,-7.719083e-003
3.494438e+003,-7.657753e-003
3.496366e+003,-7.543796e-003
3.498295e+003,-7.774675e-003
3.500223e+003,-7.947038e-003
3.502152e+003,-7.875621e-003
3.504080e+003,-7.931291e-003
3.506009e+003,-7.828243e-003
3.507937e+003,-7.608658e-003
3.509866e+003,-7.650038e-003
3.511794e+003,-7.684871e-003
3.513723e+003,-7.680541e-003
3.515651e+003,-7.801427e-003
3.517580e+003,-7.810442e-003
3.519508e+003,-7.839469e-003
3.521437e+003,-7.937700e-003
3.523365e+003,-7.973258e-003
3.525294e+003,-7.903669e-003
3.527222e+003,-7.781152e-003
3.529151e+003,-7.712572e-003
3.531079e+003,-7.778125e-003
3.533008e+003,-7.907704e-003
3.534936e+003,-7.941182e-003
3.536865e+003,-7.967826e-003
3.538793e+003,-7.932593e-003
3.540722e+003,-7.842886e-003
3.542650e+003,-7.768719e-003
3.544579e+003,-7.729010e-003
3.546507e+003,-7.806634e-003
3.548436e+003,-7.872205e-003
3.550364e+003,-7.786131e-003
3.552293e+003,-7.777637e-003
3.554221e+003,-7.901293e-003
3.556150e+003,-7.924882e-003
3.558078e+003,-7.917008e-003
3.560007e+003,-7.931422e-003
3.561935e+003,-7.691674e-003
3.563864e+003,-7.715827e-003
3.565792e+003,-7.775847e-003
3.567721e+003,-7.696427e-003
3.569649e+003,-7.692358e-003
3.571578e+003,-7.762828e-003
3.573506e+003,-7.761559e-003
3.575435e+003,-7.541615e-003
3.577363e+003,-7.496219e-003
3.579292e+003,-7.635941e-003
3.581220e+003,-7.803315e-003
3.583149e+003,-7.930966e-003
3.585077e+003,-7.807415e-003
3.587006e+003,-7.837680e-003
3.588934e+003,-7.868853e-003
3.590863e+003,-7.806569e-003
3.592791e+003,-7.822287e-003
3.594720e+003,-7.843635e-003
3.596648e+003,-7.784959e-003
3.598577e+003,-7.682690e-003
3.600505e+003,-7.692749e-003
3.602434e+003,-7.720482e-003
3.604362e+003,-7.681095e-003
3.606291e+003,-7.823589e-003
3.608219e+003,-7.876532e-003
3.610148e+003,-7.739035e-003
3.612076e+003,-7.767157e-003
3.614005e+003,-7.813534e-003
3.615933e+003,-7.837940e-003
3.617862e+003,-7.744927e-003
3.619790e+003,-7.550049e-003
3.621719e+003,-7.646457e-003
3.623647e+003,-7.839177e-003
3.625576e+003,-7.822840e-003
3.627504e+003,-7.621291e-003
3.629433e+003,-7.394695e-003
3.631361e+003,-7.437594e-003
3.633290e+003,-7.667357e-003
3.635218e+003,-7.691479e-003
3.637146e+003,-7.641834e-003
3.639075e+003,-7.589220e-003
3.641004e+003,-7.509701e-003
3.642932e+003,-7.622560e-003
3.644861e+003,-7.815616e-003
3.646789e+003,-7.990500e-003
3.648718e+003,-8.146225e-003
3.650646e+003,-7.997201e-003
3.652574e+003,-7.667878e-003
3.654503e+003,-7.635518e-003
3.656432e+003,-7.740468e-003
3.658360e+003,-7.902726e-003
3.660289e+003,-7.947298e-003
3.662217e+003,-7.947916e-003
3.664146e+003,-8.013238e-003
3.666074e+003,-8.054286e-003
3.668002e+003,-8.162127e-003
3.669931e+003,-8.146454e-003
3.671860e+003,-8.168761e-003
3.673788e+003,-8.186611e-003
3.675717e+003,-8.016425e-003
3.677645e+003,-7.853495e-003
3.679573e+003,-8.093608e-003
3.681502e+003,-8.195488e-003
3.683430e+003,-8.172239e-003
3.685359e+003,-8.190936e-003
3.687288e+003,-8.073703e-003
3.689216e+003,-7.896673e-003
3.691145e+003,-7.837940e-003
3.693073e+003,-7.718432e-003
3.695001e+003,-7.851217e-003
3.696930e+003,-7.955269e-003
3.698858e+003,-7.964671e-003
3.700787e+003,-7.777994e-003
3.702716e+003,-7.703068e-003
3.704644e+003,-7.770965e-003
3.706573e+003,-7.760647e-003
3.708501e+003,-7.666674e-003
3.710429e+003,-7.533767e-003
3.712358e+003,-7.662930e-003
3.714286e+003,-7.834588e-003
3.716215e+003,-7.895241e-003
3.718144e+003,-7.641639e-003
3.720072e+003,-7.346123e-003
3.722000e+003,-7.345896e-003
3.723929e+003,-7.488988e-003
3.725857e+003,-7.501559e-003
3.727786e+003,-7.190600e-003
3.729714e+003,-7.366192e-003
3.731643e+003,-7.789027e-003
3.733572e+003,-7.876175e-003
3.735500e+003,-7.556561e-003
3.737428e+003,-7.318953e-003
3.739357e+003,-7.303281e-003
3.741285e+003,-7.405477e-003
3.743214e+003,-7.580787e-003
3.745142e+003,-7.391633e-003
3.747071e+003,-7.191577e-003
3.749000e+003,-6.921551e-003
3.750928e+003,-6.891321e-003
3.752856e+003,-6.819437e-003
3.754785e+003,-6.857337e-003
3.756713e+003,-6.868231e-003
3.758642e+003,-6.928889e-003
3.760570e+003,-6.971181e-003
3.762499e+003,-6.882189e-003
3.764427e+003,-6.736710e-003
3.766356e+003,-6.868817e-003
3.768284e+003,-6.944508e-003
3.770213e+003,-6.738994e-003
3.772141e+003,-6.781795e-003
3.774070e+003,-6.690414e-003
3.775998e+003,-6.606782e-003
3.777927e+003,-6.804856e-003
3.779855e+003,-6.893049e-003
3.781784e+003,-6.805509e-003
3.783712e+003,-6.737396e-003
3.785641e+003,-6.679288e-003
3.787569e+003,-6.854272e-003
3.789498e+003,-6.876351e-003
3.791426e+003,-6.796897e-003
3.793355e+003,-6.805346e-003
3.795283e+003,-6.713873e-003
3.797212e+003,-6.725487e-003
3.799140e+003,-6.881635e-003
3.801069e+003,-6.589812e-003
3.802997e+003,-6.419064e-003
3.804926e+003,-6.696516e-003
3.806854e+003,-6.809880e-003
3.808783e+003,-6.925562e-003
3.810711e+003,-6.799637e-003
3.812640e+003,-6.593010e-003
3.814568e+003,-6.606684e-003
3.816497e+003,-6.571699e-003
3.818425e+003,-6.438326e-003
3.820354e+003,-6.311215e-003
3.822282e+003,-6.279146e-003
3.824211e+003,-6.420990e-003
3.826139e+003,-6.681996e-003
3.828068e+003,-6.620814e-003
3.829996e+003,-6.391443e-003
3.831925e+003,-6.338449e-003
3.833853e+003,-6.406658e-003
3.835782e+003,-6.319967e-003
3.837710e+003,-6.215816e-003
3.839639e+003,-6.253639e-003
3.841567e+003,-6.375086e-003
3.843496e+003,-6.406560e-003
3.845424e+003,-6.421448e-003
3.847353e+003,-6.414918e-003
3.849281e+003,-6.348049e-003
3.851210e+003,-6.267258e-003
3.853138e+003,-6.006428e-003
3.855067e+003,-6.059234e-003
3.856995e+003,-6.337927e-003
3.858924e+003,-6.253802e-003
3.860852e+003,-6.031394e-003
3.862781e+003,-5.953877e-003
3.864709e+003,-5.914100e-003
3.866638e+003,-6.179755e-003
3.868566e+003,-6.472310e-003
3.870495e+003,-6.109811e-003
3.872423e+003,-6.017930e-003
3.874352e+003,-5.931096e-003
3.876280e+003,-6.116182e-003
3.878209e+003,-6.401500e-003
3.880137e+003,-6.158195e-003
3.882066e+003,-6.061194e-003
3.883994e+003,-6.177795e-003
3.885923e+003,-5.790268e-003
3.887851e+003,-5.882687e-003
3.889780e+003,-6.185242e-003
3.891708e+003,-6.495421e-003
3.893637e+003,-6.596731e-003
3.895565e+003,-6.307068e-003
3.897494e+003,-6.166361e-003
3.899422e+003,-6.038125e-003
3.901351e+003,-6.038942e-003
3.903279e+003,-6.003225e-003
3.905208e+003,-5.822570e-003
3.907136e+003,-5.963649e-003
3.909065e+003,-6.137058e-003
3.910993e+003,-6.088281e-003
3.912922e+003,-5.988519e-003
3.914850e+003,-6.001918e-003
3.916779e+003,-6.233323e-003
3.918707e+003,-6.176423e-003
3.920636e+003,-6.195271e-003
3.922564e+003,-6.249719e-003
3.924493e+003,-6.119972e-003
3.926421e+003,-6.046653e-003
3.928350e+003,-6.095762e-003
3.930278e+003,-6.212452e-003
3.932207e+003,-6.030119e-003
3.934135e+003,-5.661920e-003
3.936064e+003,-5.456518e-003
3.937992e+003,-5.606678e-003
3.939921e+003,-5.842545e-003
3.941849e+003,-5.981754e-003
3.943778e+003,-6.004794e-003
3.945706e+003,-6.145291e-003
3.947635e+003,-6.185242e-003
3.949563e+003,-6.007702e-003
3.951492e+003,-5.932534e-003
3.953420e+003,-5.905928e-003
3.955349e+003,-5.806223e-003
3.957277e+003,-5.713689e-003
3.959206e+003,-5.844113e-003
3.961134e+003,-5.970119e-003
3.963063e+003,-5.840550e-003
3.964991e+003,-5.922467e-003
3.966920e+003,-5.978029e-003
3.968848e+003,-5.884485e-003
3.970777e+003,-5.798049e-003
3.972705e+003,-5.666630e-003
3.974634e+003,-5.664635e-003
3.976562e+003,-5.749724e-003
3.978491e+003,-5.790954e-003
3.980419e+003,-5.703127e-003
3.982348e+003,-5.797330e-003
3.984276e+003,-5.844571e-003
3.986205e+003,-5.840387e-003
3.988133e+003,-5.705023e-003
3.990062e+003,-5.618944e-003
3.991990e+003,-5.748089e-003
3.993919e+003,-5.871312e-003
3.995847e+003,-5.868958e-003
3.997776e+003,-5.791706e-003
3.999704e+003,-5.825577e-003
4.001633e+003,0.000000e+000
