3.991989e+002,-5.556074e-003
4.011274e+002,-1.598192e-003
4.030559e+002,-6.105564e-003
4.049844e+002,-1.373028e-002
4.069129e+002,-1.049969e-002
4.088414e+002,-5.584108e-003
4.107699e+002,-9.869298e-003
4.126984e+002,-1.377805e-002
4.146269e+002,-7.869146e-003
4.165554e+002,3.258568e-003
4.184839e+002,2.201662e-003
4.204124e+002,3.645222e-003
4.223409e+002,7.093598e-003
4.242694e+002,4.678253e-003
4.261979e+002,-2.900192e-003
4.281264e+002,3.318763e-003
4.300549e+002,9.950084e-003
4.319834e+002,9.041615e-003
4.339119e+002,7.961717e-003
4.358404e+002,6.313369e-003
4.377689e+002,5.789964e-003
4.396974e+002,9.091218e-004
4.416259e+002,-6.434964e-003
4.435544e+002,-3.005601e-003
4.454829e+002,8.096556e-004
4.474114e+002,2.677882e-003
4.493399e+002,3.841101e-003
4.512684e+002,1.815559e-003
4.531969e+002,6.686964e-005
4.551254e+002,3.648928e-004
4.570539e+002,1.083475e-003
4.589824e+002,-2.122710e-004
4.609109e+002,-2.164875e-003
4.628394e+002,-2.144994e-003
4.647679e+002,-2.450328e-003
4.666964e+002,-1.794934e-003
4.686249e+002,-1.601559e-003
4.705533e+002,-1.710320e-003
4.724819e+002,-1.831559e-003
4.744103e+002,-1.039098e-003
4.763389e+002,-7.247322e-004
4.782673e+002,-9.825710e-004
4.801959e+002,-2.490259e-003
4.821243e+002,-3.371127e-003
4.840529e+002,-3.106676e-003
4.859813e+002,-3.914323e-003
4.879099e+002,-5.049679e-003
4.898383e+002,-5.292002e-003
4.917668e+002,-5.120088e-003
4.936953e+002,-6.299720e-003
4.956238e+002,-6.654979e-003
4.975523e+002,-5.953877e-003
4.994808e+002,-6.536679e-003
5.014093e+002,-6.197394e-003
5.033378e+002,-4.371433e-003
5.052663e+002,-2.649615e-003
5.071948e+002,-3.995554e-003
5.091233e+002,-6.408813e-003
5.110518e+002,-6.549114e-003
5.129803e+002,-5.844800e-003
5.149088e+002,-5.711040e-003
5.168373e+002,-5.731576e-003
5.187658e+002,-6.281660e-003
5.206943e+002,-7.195749e-003
5.226228e+002,-7.275325e-003
5.245513e+002,-5.756361e-003
5.264798e+002,-5.653646e-003
5.284083e+002,-6.626590e-003
5.303368e+002,-5.941522e-003
5.322653e+002,-5.228234e-003
5.341938e+002,-4.610593e-003
5.361223e+002,-4.895722e-003
5.380508e+002,-6.226073e-003
5.399792e+002,-6.029858e-003
5.419078e+002,-4.407186e-003
5.438363e+002,-3.464753e-003
5.457648e+002,-4.057205e-003
5.476932e+002,-4.471796e-003
5.496218e+002,-4.167913e-003
5.515503e+002,-3.407587e-003
5.534788e+002,-3.872684e-003
5.554072e+002,-4.816494e-003
5.573358e+002,-4.602987e-003
5.592643e+002,-4.670256e-003
5.611927e+002,-4.991280e-003
5.631212e+002,-4.594430e-003
5.650497e+002,-3.943678e-003
5.669783e+002,-3.831665e-003
5.689067e+002,-4.623248e-003
5.708352e+002,-4.485897e-003
5.727637e+002,-4.205258e-003
5.746923e+002,-4.331839e-003
5.766207e+002,-5.385836e-003
5.785492e+002,-6.782251e-003
5.804777e+002,-1.024304e-002
5.824063e+002,-9.053222e-003
5.843347e+002,-6.317387e-003
5.862632e+002,-6.877525e-003
5.881917e+002,-6.683889e-003
5.901202e+002,-5.575472e-003
5.920487e+002,-5.030257e-003
5.939772e+002,-4.429817e-003
5.959057e+002,-3.947783e-003
5.978342e+002,-4.500589e-003
5.997627e+002,-4.272982e-003
6.016912e+002,-4.136965e-003
6.036197e+002,-4.052084e-003
6.055482e+002,-3.072526e-003
6.074767e+002,-1.585680e-003
6.094052e+002,-8.801086e-004
6.113337e+002,-1.552467e-003
6.132622e+002,-2.897921e-003
6.151907e+002,-3.242884e-003
6.171192e+002,-3.120295e-003
6.190477e+002,-3.373264e-003
6.209762e+002,-3.253704e-003
6.229047e+002,-4.292241e-003
6.248332e+002,-5.907857e-003
6.267617e+002,-6.087039e-003
6.286902e+002,-6.068513e-003
6.306187e+002,-5.678043e-003
6.325472e+002,-5.233897e-003
6.344756e+002,-4.809252e-003
6.364042e+002,-4.684843e-003
6.383326e+002,-4.855258e-003
6.402612e+002,-4.767044e-003
6.421896e+002,-4.379797e-003
6.441182e+002,-4.410761e-003
6.460466e+002,-4.618888e-003
6.479752e+002,-4.315338e-003
6.499036e+002,-4.171654e-003
6.518322e+002,-4.020997e-003
6.537606e+002,-3.630094e-003
6.556891e+002,-3.267746e-003
6.576177e+002,-3.575316e-003
6.595461e+002,-4.159479e-003
6.614746e+002,-4.053004e-003
6.634031e+002,-4.034489e-003
6.653317e+002,-3.619283e-003
6.672601e+002,-3.456173e-003
6.691886e+002,-3.940690e-003
6.711171e+002,-4.144021e-003
6.730457e+002,-4.176019e-003
6.749741e+002,-4.173263e-003
6.769026e+002,-4.243354e-003
6.788311e+002,-4.341680e-003
6.807596e+002,-4.039905e-003
6.826881e+002,-4.011181e-003
6.846166e+002,-4.393180e-003
6.865451e+002,-4.364872e-003
6.884736e+002,-4.145104e-003
6.904021e+002,-4.188686e-003
6.923306e+002,-4.299689e-003
6.942591e+002,-4.549348e-003
6.961876e+002,-5.161116e-003
6.981161e+002,-5.539489e-003
7.000446e+002,-5.419444e-003
7.019731e+002,-5.265880e-003
7.039016e+002,-5.165471e-003
7.058301e+002,-5.878078e-003
7.077585e+002,-6.605150e-003
7.096871e+002,-6.643395e-003
7.116156e+002,-6.202914e-003
7.135441e+002,-6.402936e-003
7.154725e+002,-7.156118e-003
7.174011e+002,-7.806374e-003
7.193296e+002,-7.277345e-003
7.212581e+002,-6.648551e-003
7.231865e+002,-6.840769e-003
7.251151e+002,-7.071174e-003
7.270436e+002,-7.134737e-003
7.289720e+002,-6.647442e-003
7.309005e+002,-6.428957e-003
7.328290e+002,-6.526006e-003
7.347576e+002,-6.616735e-003
7.366860e+002,-6.221598e-003
7.386145e+002,-5.742465e-003
7.405430e+002,-5.689718e-003
7.424716e+002,-5.306469e-003
7.444000e+002,-4.727158e-003
7.463285e+002,-4.311204e-003
7.482570e+002,-4.568726e-003
7.501855e+002,-4.528527e-003
7.521140e+002,-3.294515e-003
7.540425e+002,-2.667827e-003
7.559710e+002,-2.869681e-003
7.578995e+002,-2.886138e-003
7.598280e+002,-2.528209e-003
7.617565e+002,-2.368116e-003
7.636850e+002,-2.252597e-003
7.656135e+002,-1.429334e-003
7.675420e+002,-8.142342e-004
7.694705e+002,-3.067791e-004
7.713990e+002,-4.803435e-004
7.733275e+002,-7.581075e-004
7.752560e+002,-9.952986e-004
7.771844e+002,-1.107550e-003
7.791130e+002,-1.033942e-003
7.810415e+002,-1.186994e-003
7.829700e+002,-1.313268e-003
7.848984e+002,-1.268472e-003
7.868270e+002,-1.405555e-003
7.887555e+002,-1.626483e-003
7.906840e+002,-1.888867e-003
7.926124e+002,-2.499483e-003
7.945410e+002,-2.745043e-003
7.964695e+002,-2.758312e-003
7.983979e+002,-2.891174e-003
8.003264e+002,-2.990070e-003
8.022549e+002,-2.970885e-003
8.041835e+002,-3.189406e-003
8.061119e+002,-3.352813e-003
8.080404e+002,-2.785967e-003
8.099689e+002,-2.708264e-003
8.118975e+002,-3.022613e-003
8.138259e+002,-2.537070e-003
8.157545e+002,-2.262585e-003
8.176830e+002,-2.868199e-003
8.196115e+002,-4.028679e-003
8.215399e+002,-4.838023e-003
8.234684e+002,-4.554955e-003
8.253970e+002,-4.544233e-003
8.273254e+002,-4.871837e-003
8.292539e+002,-4.998322e-003
8.311824e+002,-5.360375e-003
8.331110e+002,-5.347971e-003
8.350394e+002,-5.027440e-003
8.369679e+002,-4.811808e-003
8.388964e+002,-5.109183e-003
8.408250e+002,-5.179615e-003
8.427534e+002,-4.931890e-003
8.446819e+002,-4.494653e-003
8.466104e+002,-4.424635e-003
8.485389e+002,-4.748560e-003
8.504674e+002,-5.016697e-003
8.523959e+002,-4.954789e-003
8.543244e+002,-5.049089e-003
8.562529e+002,-5.054428e-003
8.581814e+002,-5.037397e-003
8.601099e+002,-4.561349e-003
8.620384e+002,-4.201878e-003
8.639669e+002,-4.470353e-003
8.658954e+002,-4.722996e-003
8.678239e+002,-4.781857e-003
8.697524e+002,-4.887367e-003
8.716809e+002,-4.838318e-003
8.736094e+002,-4.736925e-003
8.755378e+002,-4.514263e-003
8.774664e+002,-4.272425e-003
8.793949e+002,-4.023590e-003
8.813234e+002,-3.987084e-003
8.832518e+002,-4.041350e-003
8.851804e+002,-4.186783e-003
8.871089e+002,-4.469369e-003
8.890374e+002,-4.256282e-003
8.909658e+002,-4.141527e-003
8.928943e+002,-3.834227e-003
8.948229e+002,-3.566574e-003
8.967513e+002,-3.649874e-003
8.986798e+002,-3.853899e-003
9.006083e+002,-3.856757e-003
9.025369e+002,-3.913305e-003
9.044653e+002,-3.958355e-003
9.063938e+002,-4.142019e-003
9.083223e+002,-4.352473e-003
9.102509e+002,-4.732796e-003
9.121793e+002,-5.133579e-003
9.141078e+002,-5.314095e-003
9.160364e+002,-5.249414e-003
9.179648e+002,-5.220507e-003
9.198933e+002,-5.417448e-003
9.218218e+002,-5.987441e-003
9.237504e+002,-6.435780e-003
9.256788e+002,-6.833593e-003
9.276073e+002,-7.081866e-003
9.295358e+002,-6.847650e-003
9.314644e+002,-6.924551e-003
9.333928e+002,-7.035933e-003
9.353213e+002,-6.966225e-003
9.372498e+002,-6.908051e-003
9.391783e+002,-7.249877e-003
9.411068e+002,-7.457918e-003
9.430353e+002,-7.298296e-003
9.449637e+002,-7.235246e-003
9.468923e+002,-7.454335e-003
9.488208e+002,-7.286534e-003
9.507493e+002,-6.859164e-003
9.526777e+002,-6.793635e-003
9.546063e+002,-6.992864e-003
9.565348e+002,-6.827885e-003
9.584633e+002,-6.554924e-003
9.603917e+002,-6.361502e-003
9.623203e+002,-6.336425e-003
9.642488e+002,-6.037733e-003
9.661772e+002,-5.567655e-003
9.681057e+002,-5.328104e-003
9.700343e+002,-5.410347e-003
9.719628e+002,-5.295242e-003
9.738912e+002,-5.266600e-003
9.758197e+002,-5.362437e-003
9.777483e+002,-5.277534e-003
9.796768e+002,-5.042899e-003
9.816052e+002,-4.908204e-003
9.835337e+002,-4.861221e-003
9.854623e+002,-4.631903e-003
9.873907e+002,-4.524821e-003
9.893192e+002,-4.429292e-003
9.912477e+002,-4.235053e-003
9.931763e+002,-4.161317e-003
9.951047e+002,-4.137884e-003
9.970332e+002,-3.839121e-003
9.989617e+002,-3.838201e-003
1.000890e+003,-3.658745e-003
1.002819e+003,-3.423366e-003
1.004747e+003,-3.545542e-003
1.006676e+003,-3.422183e-003
1.008604e+003,-3.204108e-003
1.010533e+003,-3.228545e-003
1.012461e+003,-3.141612e-003
1.014390e+003,-2.914279e-003
1.016318e+003,-2.707408e-003
1.018247e+003,-2.332162e-003
1.020175e+003,-2.278340e-003
1.022104e+003,-2.202722e-003
1.024032e+003,-1.749164e-003
1.025961e+003,-1.568249e-003
1.027889e+003,-1.566433e-003
1.029818e+003,-1.476095e-003
1.031746e+003,-1.277623e-003
1.033675e+003,-1.070863e-003
1.035603e+003,-7.045537e-004
1.037532e+003,-5.051990e-004
1.039460e+003,-3.142951e-004
1.041389e+003,-1.821990e-004
1.043317e+003,-3.610772e-004
1.045246e+003,-5.051658e-004
1.047174e+003,-2.489641e-004
1.049103e+003,2.021223e-005
1.051031e+003,-3.929519e-005
1.052960e+003,-5.228237e-005
1.054888e+003,-4.456300e-005
1.056817e+003,-2.090917e-004
1.058745e+003,-3.035342e-004
1.060674e+003,-2.756871e-004
1.062602e+003,-1.521249e-004
1.064531e+003,-2.014503e-005
1.066459e+003,9.394516e-005
1.068388e+003,7.826965e-005
1.070316e+003,-5.864686e-006
1.072245e+003,1.736571e-004
1.074173e+003,5.232033e-004
1.076102e+003,5.152416e-004
1.078030e+003,4.202103e-004
1.079959e+003,6.759300e-004
1.081887e+003,9.902122e-004
1.083816e+003,1.160146e-003
1.085744e+003,1.387249e-003
1.087673e+003,1.624914e-003
1.089601e+003,1.624648e-003
1.091530e+003,1.966145e-003
1.093458e+003,2.537614e-003
1.095387e+003,2.464798e-003
1.097315e+003,2.502954e-003
1.099244e+003,2.698286e-003
1.101172e+003,2.940939e-003
1.103101e+003,3.114442e-003
1.105029e+003,2.988479e-003
1.106958e+003,2.872925e-003
1.108886e+003,2.936202e-003
1.110815e+003,3.115977e-003
1.112743e+003,3.256331e-003
1.114672e+003,3.236736e-003
1.116600e+003,3.369149e-003
1.118529e+003,3.377764e-003
1.120457e+003,3.168442e-003
1.122386e+003,3.129459e-003
1.124314e+003,3.044031e-003
1.126243e+003,2.804455e-003
1.128171e+003,2.746465e-003
1.130100e+003,2.727593e-003
1.132028e+003,2.502521e-003
1.133957e+003,2.152544e-003
1.135885e+003,1.783951e-003
1.137814e+003,1.328518e-003
1.139742e+003,9.221045e-004
1.141671e+003,5.795364e-004
1.143599e+003,2.201321e-004
1.145528e+003,-1.599086e-004
1.147456e+003,-6.070219e-004
1.149385e+003,-8.718087e-004
1.151313e+003,-1.163202e-003
1.153242e+003,-1.427319e-003
1.155170e+003,-1.757810e-003
1.157099e+003,-2.006033e-003
1.159027e+003,-2.229556e-003
1.160956e+003,-2.404957e-003
1.162884e+003,-2.619514e-003
1.164813e+003,-2.824518e-003
1.166741e+003,-2.782807e-003
1.168670e+003,-2.658408e-003
1.170598e+003,-2.662163e-003
1.172526e+003,-2.631799e-003
1.174455e+003,-2.572481e-003
1.176384e+003,-2.596459e-003
1.178312e+003,-2.740335e-003
1.180240e+003,-2.705070e-003
1.182169e+003,-2.780667e-003
1.184098e+003,-2.832188e-003
1.186026e+003,-2.752912e-003
1.187954e+003,-2.848087e-003
1.189883e+003,-3.100589e-003
1.191812e+003,-3.192596e-003
1.193740e+003,-3.048442e-003
1.195668e+003,-3.021791e-003
1.197597e+003,-3.074171e-003
1.199526e+003,-2.825768e-003
1.201454e+003,-2.851741e-003
1.203382e+003,-2.897098e-003
1.205311e+003,-2.762757e-003
1.207240e+003,-2.739907e-003
1.209168e+003,-2.528934e-003
1.211096e+003,-2.312750e-003
1.213025e+003,-2.212315e-003
1.214953e+003,-2.053589e-003
1.216882e+003,-1.944947e-003
1.218810e+003,-1.942803e-003
1.220739e+003,-1.924132e-003
1.222667e+003,-1.768997e-003
1.224596e+003,-1.676391e-003
1.226524e+003,-1.601922e-003
1.228453e+003,-1.493596e-003
1.230381e+003,-1.233517e-003
1.232310e+003,-1.011431e-003
1.234238e+003,-9.604869e-004
1.236167e+003,-9.195226e-004
1.238095e+003,-9.441876e-004
1.240024e+003,-9.177702e-004
1.241952e+003,-8.981297e-004
1.243881e+003,-1.146183e-003
1.245809e+003,-1.245510e-003
1.247738e+003,-1.317926e-003
1.249666e+003,-1.534804e-003
1.251595e+003,-1.631731e-003
1.253523e+003,-1.617504e-003
1.255452e+003,-1.571319e-003
1.257380e+003,-1.536719e-003
1.259309e+003,-1.610802e-003
1.261237e+003,-1.525625e-003
1.263166e+003,-1.339397e-003
1.265094e+003,-1.176155e-003
1.267023e+003,-8.548447e-004
1.268951e+003,-4.481054e-004
1.270880e+003,-1.861734e-004
1.272808e+003,5.981106e-005
1.274737e+003,3.492738e-004
1.276665e+003,7.688929e-004
1.278594e+003,1.057799e-003
1.280522e+003,1.337758e-003
1.282451e+003,1.620890e-003
1.284379e+003,1.836056e-003
1.286308e+003,2.371038e-003
1.288236e+003,2.856949e-003
1.290165e+003,3.283940e-003
1.292093e+003,3.680207e-003
1.294022e+003,3.922139e-003
1.295950e+003,4.225698e-003
1.297879e+003,4.412333e-003
1.299807e+003,4.525753e-003
1.301736e+003,4.477676e-003
1.303664e+003,4.553275e-003
1.305593e+003,4.684181e-003
1.307521e+003,4.594696e-003
1.309450e+003,4.377256e-003
1.311378e+003,4.005099e-003
1.313307e+003,3.831006e-003
1.315235e+003,3.721277e-003
1.317164e+003,3.385912e-003
1.319092e+003,2.977002e-003
1.321021e+003,2.512152e-003
1.322949e+003,2.137893e-003
1.324878e+003,1.929334e-003
1.326806e+003,1.696292e-003
1.328735e+003,1.589263e-003
1.330663e+003,1.499382e-003
1.332592e+003,1.363151e-003
1.334520e+003,1.244939e-003
1.336449e+003,1.135894e-003
1.338377e+003,1.082312e-003
1.340306e+003,1.033221e-003
1.342234e+003,1.005755e-003
1.344163e+003,1.028073e-003
1.346091e+003,1.083575e-003
1.348020e+003,1.041358e-003
1.349948e+003,9.487353e-004
1.351877e+003,7.624536e-004
1.353805e+003,7.142611e-004
1.355734e+003,6.451016e-004
1.357662e+003,4.292316e-004
1.359591e+003,3.536842e-004
1.361519e+003,2.257678e-004
1.363448e+003,8.589192e-005
1.365376e+003,9.012552e-006
1.367305e+003,-8.163460e-005
1.369233e+003,-1.964404e-004
1.371162e+003,-3.485296e-004
1.373090e+003,-3.635933e-004
1.375019e+003,-3.383986e-004
1.376947e+003,-2.606535e-004
1.378876e+003,-1.124755e-004
1.380804e+003,6.468246e-005
1.382733e+003,1.590437e-006
1.384661e+003,-2.787004e-004
1.386590e+003,-5.841246e-004
1.388518e+003,-8.119522e-004
1.390447e+003,-9.200517e-004
1.392375e+003,-1.041478e-003
1.394304e+003,-1.185606e-003
1.396232e+003,-1.357135e-003
1.398161e+003,-1.444261e-003
1.400089e+003,-1.373188e-003
1.402018e+003,-1.375566e-003
1.403946e+003,-1.449743e-003
1.405875e+003,-1.519582e-003
1.407803e+003,-1.559632e-003
1.409732e+003,-1.737251e-003
1.411660e+003,-1.865476e-003
1.413589e+003,-1.744379e-003
1.415517e+003,-1.537907e-003
1.417446e+003,-1.357036e-003
1.419374e+003,-9.231927e-004
1.421303e+003,-2.278030e-004
1.423231e+003,4.579218e-004
1.425160e+003,1.184931e-003
1.427088e+003,1.709032e-003
1.429017e+003,2.074665e-003
1.430945e+003,2.498155e-003
1.432874e+003,2.852646e-003
1.434802e+003,3.125521e-003
1.436731e+003,3.265712e-003
1.438659e+003,3.776957e-003
1.440588e+003,4.346934e-003
1.442516e+003,4.879692e-003
1.444445e+003,5.346783e-003
1.446373e+003,5.884464e-003
1.448302e+003,6.443461e-003
1.450230e+003,7.031497e-003
1.452159e+003,7.687440e-003
1.454087e+003,8.218136e-003
1.456016e+003,8.272875e-003
1.457944e+003,8.621872e-003
1.459873e+003,9.213341e-003
1.461801e+003,9.513680e-003
1.463730e+003,9.529937e-003
1.465658e+003,9.650934e-003
1.467587e+003,9.718426e-003
1.469515e+003,9.566686e-003
1.471444e+003,9.278362e-003
1.473372e+003,9.009916e-003
1.475301e+003,8.813146e-003
1.477229e+003,8.319684e-003
1.479158e+003,7.773786e-003
1.481086e+003,7.142638e-003
1.483015e+003,6.653459e-003
1.484943e+003,6.213228e-003
1.486872e+003,5.690884e-003
1.488800e+003,5.159075e-003
1.490729e+003,4.609698e-003
1.492657e+003,4.171399e-003
1.494586e+003,3.740861e-003
1.496514e+003,3.176586e-003
1.498443e+003,2.730394e-003
1.500371e+003,2.377701e-003
1.502300e+003,2.036647e-003
1.504228e+003,1.667986e-003
1.506157e+003,1.285414e-003
1.508085e+003,1.051621e-003
1.510014e+003,9.679955e-004
1.511942e+003,8.935828e-004
1.513871e+003,7.302251e-004
1.515799e+003,5.347480e-004
1.517728e+003,5.970217e-004
1.519656e+003,5.894900e-004
1.521585e+003,4.562302e-004
1.523513e+003,7.378256e-004
1.525442e+003,1.108388e-003
1.527370e+003,1.401775e-003
1.529299e+003,1.508060e-003
1.531227e+003,1.632164e-003
1.533156e+003,1.910597e-003
1.535084e+003,2.348218e-003
1.537013e+003,2.644644e-003
1.538941e+003,2.690217e-003
1.540870e+003,2.960622e-003
1.542798e+003,3.472242e-003
1.544727e+003,3.968516e-003
1.546655e+003,4.408986e-003
1.548584e+003,4.808325e-003
1.550512e+003,5.251963e-003
1.552441e+003,5.609885e-003
1.554369e+003,6.033948e-003
1.556298e+003,6.446756e-003
1.558226e+003,6.844339e-003
1.560155e+003,7.633111e-003
1.562083e+003,8.308911e-003
1.564012e+003,8.650805e-003
1.565940e+003,8.917878e-003
1.567869e+003,8.916222e-003
1.569797e+003,8.923865e-003
1.571726e+003,9.126573e-003
1.573654e+003,9.154524e-003
1.575583e+003,9.045979e-003
1.577511e+003,9.080285e-003
1.579440e+003,9.079812e-003
1.581368e+003,9.006229e-003
1.583297e+003,8.888286e-003
1.585225e+003,8.635088e-003
1.587154e+003,8.381294e-003
1.589082e+003,8.008460e-003
1.591010e+003,7.495920e-003
1.592939e+003,6.984658e-003
1.594868e+003,6.529796e-003
1.596796e+003,6.058912e-003
1.598724e+003,5.546250e-003
1.600653e+003,4.882105e-003
1.602582e+003,4.319190e-003
1.604510e+003,3.807842e-003
1.606438e+003,3.223850e-003
1.608367e+003,2.739030e-003
1.610296e+003,2.409686e-003
1.612224e+003,1.891328e-003
1.614152e+003,1.431693e-003
1.616081e+003,9.919059e-004
1.618010e+003,8.821282e-004
1.619938e+003,7.791828e-004
1.621866e+003,4.718862e-004
1.623795e+003,1.732262e-004
1.625724e+003,1.997448e-004
1.627652e+003,7.336496e-005
1.629580e+003,-1.473221e-004
1.631509e+003,-2.730711e-004
1.633438e+003,-4.882868e-004
1.635366e+003,-8.194596e-004
1.637294e+003,-1.087852e-003
1.639223e+003,-1.250598e-003
1.641151e+003,-1.428872e-003
1.643080e+003,-1.780448e-003
1.645008e+003,-2.274385e-003
1.646937e+003,-2.525903e-003
1.648865e+003,-2.520534e-003
1.650794e+003,-2.719855e-003
1.652722e+003,-3.124966e-003
1.654651e+003,-3.191281e-003
1.656579e+003,-3.066538e-003
1.658508e+003,-3.210785e-003
1.660436e+003,-3.305202e-003
1.662365e+003,-3.487926e-003
1.664293e+003,-3.576203e-003
1.666222e+003,-3.623227e-003
1.668150e+003,-3.933007e-003
1.670079e+003,-4.290010e-003
1.672007e+003,-4.367103e-003
1.673936e+003,-4.604036e-003
1.675864e+003,-4.920752e-003
1.677793e+003,-5.195527e-003
1.679721e+003,-5.405569e-003
1.681650e+003,-5.716566e-003
1.683578e+003,-6.196283e-003
1.685507e+003,-6.297010e-003
1.687435e+003,-6.514386e-003
1.689364e+003,-6.761993e-003
1.691292e+003,-6.822340e-003
1.693221e+003,-6.986799e-003
1.695149e+003,-7.272360e-003
1.697078e+003,-7.337946e-003
1.699006e+003,-7.613607e-003
1.700935e+003,-7.803868e-003
1.702863e+003,-7.591369e-003
1.704792e+003,-7.627835e-003
1.706720e+003,-7.685522e-003
1.708649e+003,-7.708373e-003
1.710577e+003,-7.733274e-003
1.712506e+003,-7.870643e-003
1.714434e+003,-8.044171e-003
1.716363e+003,-8.167557e-003
1.718291e+003,-8.187327e-003
1.720220e+003,-8.197179e-003
1.722148e+003,-8.342137e-003
1.724077e+003,-8.400445e-003
1.726005e+003,-8.371357e-003
1.727934e+003,-8.424851e-003
1.729862e+003,-8.478793e-003
1.731791e+003,-8.587632e-003
1.733719e+003,-8.734539e-003
1.735648e+003,-8.737071e-003
1.737576e+003,-8.639151e-003
1.739505e+003,-8.515509e-003
1.741433e+003,-8.370219e-003
1.743362e+003,-8.332548e-003
1.745290e+003,-8.309535e-003
1.747219e+003,-8.313435e-003
1.749147e+003,-8.327607e-003
1.751076e+003,-8.373567e-003
1.753004e+003,-8.237951e-003
1.754933e+003,-8.086096e-003
1.756861e+003,-7.986726e-003
1.758790e+003,-8.011644e-003
1.760718e+003,-8.131267e-003
1.762647e+003,-8.161900e-003
1.764575e+003,-8.050156e-003
1.766504e+003,-8.049570e-003
1.768432e+003,-8.057930e-003
1.770361e+003,-8.138486e-003
1.772289e+003,-8.124503e-003
1.774218e+003,-8.070907e-003
1.776146e+003,-7.976415e-003
1.778075e+003,-7.908419e-003
1.780003e+003,-8.014019e-003
1.781932e+003,-8.067362e-003
1.783860e+003,-8.063979e-003
1.785789e+003,-8.046220e-003
1.787717e+003,-7.919091e-003
1.789646e+003,-7.914959e-003
1.791574e+003,-8.006146e-003
1.793503e+003,-8.063588e-003
1.795431e+003,-8.023679e-003
1.797360e+003,-7.942158e-003
1.799288e+003,-7.878680e-003
1.801217e+003,-7.985718e-003
1.803145e+003,-8.035942e-003
1.805074e+003,-7.956635e-003
1.807002e+003,-7.890980e-003
1.808931e+003,-7.964313e-003
1.810859e+003,-7.908061e-003
1.812788e+003,-7.897389e-003
1.814716e+003,-7.962751e-003
1.816645e+003,-7.973975e-003
1.818573e+003,-8.066581e-003
1.820502e+003,-8.121413e-003
1.822430e+003,-8.130909e-003
1.824359e+003,-8.129641e-003
1.826287e+003,-8.117771e-003
1.828216e+003,-8.194318e-003
1.830144e+003,-8.271046e-003
1.832073e+003,-8.166224e-003
1.834001e+003,-8.069118e-003
1.835930e+003,-8.160045e-003
1.837858e+003,-8.288795e-003
1.839787e+003,-8.299393e-003
1.841715e+003,-8.244582e-003
1.843644e+003,-8.284342e-003
1.845572e+003,-8.288665e-003
1.847501e+003,-8.224295e-003
1.849429e+003,-8.162679e-003
1.851358e+003,-8.141900e-003
1.853286e+003,-8.125641e-003
1.855215e+003,-8.099104e-003
1.857143e+003,-8.123104e-003
1.859072e+003,-8.138682e-003
1.861000e+003,-8.088339e-003
1.862929e+003,-7.990402e-003
1.864857e+003,-7.927225e-003
1.866786e+003,-8.006407e-003
1.868714e+003,-8.081054e-003
1.870643e+003,-7.962556e-003
1.872571e+003,-7.776563e-003
1.874500e+003,-7.732103e-003
1.876428e+003,-7.777214e-003
1.878357e+003,-7.851770e-003
1.880285e+003,-7.844644e-003
1.882214e+003,-7.831236e-003
1.884142e+003,-7.884406e-003
1.886071e+003,-7.836964e-003
1.887999e+003,-7.767417e-003
1.889928e+003,-7.782454e-003
1.891856e+003,-7.763186e-003
1.893785e+003,-7.735129e-003
1.895713e+003,-7.725007e-003
1.897642e+003,-7.700268e-003
1.899570e+003,-7.698999e-003
1.901499e+003,-7.717357e-003
1.903427e+003,-7.738384e-003
1.905356e+003,-7.770867e-003
1.907284e+003,-7.781737e-003
1.909213e+003,-7.728522e-003
1.911141e+003,-7.734088e-003
1.913070e+003,-7.695255e-003
1.914998e+003,-7.711401e-003
1.916927e+003,-7.816235e-003
1.918855e+003,-7.865795e-003
1.920784e+003,-7.810442e-003
1.922712e+003,-7.782258e-003
1.924641e+003,-7.747433e-003
1.926569e+003,-7.792087e-003
1.928498e+003,-7.818219e-003
1.930426e+003,-7.810084e-003
1.932355e+003,-7.823101e-003
1.934283e+003,-7.799409e-003
1.936212e+003,-7.723412e-003
1.938140e+003,-7.755570e-003
1.940069e+003,-7.902107e-003
1.941997e+003,-7.994013e-003
1.943926e+003,-7.937115e-003
1.945854e+003,-7.947559e-003
1.947783e+003,-7.935618e-003
1.949711e+003,-7.890459e-003
1.951640e+003,-7.982627e-003
1.953568e+003,-8.031583e-003
1.955497e+003,-7.983538e-003
1.957425e+003,-7.971046e-003
1.959354e+003,-8.024948e-003
1.961282e+003,-7.936920e-003
1.963211e+003,-7.938709e-003
1.965139e+003,-7.962100e-003
1.967068e+003,-7.954520e-003
1.968996e+003,-7.975308e-003
1.970925e+003,-7.938091e-003
1.972853e+003,-7.913788e-003
1.974782e+003,-7.906727e-003
1.976710e+003,-7.907443e-003
1.978639e+003,-7.959954e-003
1.980567e+003,-7.911217e-003
1.982496e+003,-7.812524e-003
1.984424e+003,-7.840185e-003
1.986353e+003,-7.813338e-003
1.988281e+003,-7.730540e-003
1.990210e+003,-7.727448e-003
1.992138e+003,-7.701082e-003
1.994067e+003,-7.681420e-003
1.995995e+003,-7.642290e-003
1.997924e+003,-7.487718e-003
1.999852e+003,-7.434044e-003
2.001781e+003,-7.535460e-003
2.003709e+003,-7.546401e-003
2.005638e+003,-7.480814e-003
2.007566e+003,-7.489803e-003
2.009495e+003,-7.527938e-003
2.011423e+003,-7.562715e-003
2.013352e+003,-7.517843e-003
2.015280e+003,-7.441111e-003
2.017208e+003,-7.426356e-003
2.019137e+003,-7.495014e-003
2.021066e+003,-7.446877e-003
2.022994e+003,-7.408376e-003
2.024922e+003,-7.455573e-003
2.026851e+003,-7.360849e-003
2.028780e+003,-7.365637e-003
2.030708e+003,-7.422904e-003
2.032636e+003,-7.388734e-003
2.034565e+003,-7.394142e-003
2.036494e+003,-7.334004e-003
2.038422e+003,-7.240916e-003
2.040350e+003,-7.224264e-003
2.042279e+003,-7.222276e-003
2.044208e+003,-7.306898e-003
2.046136e+003,-7.346449e-003
2.048064e+003,-7.240655e-003
2.049993e+003,-7.179584e-003
2.051921e+003,-7.297156e-003
2.053850e+003,-7.328759e-003
2.055778e+003,-7.260043e-003
2.057707e+003,-7.218137e-003
2.059635e+003,-7.101979e-003
2.061564e+003,-7.041507e-003
2.063492e+003,-7.092982e-003
2.065421e+003,-7.154228e-003
2.067349e+003,-7.096828e-003
2.069278e+003,-7.026283e-003
2.071206e+003,-7.078541e-003
2.073135e+003,-7.071728e-003
2.075063e+003,-7.030880e-003
2.076992e+003,-7.030227e-003
2.078920e+003,-6.963845e-003
2.080849e+003,-6.883983e-003
2.082777e+003,-6.847749e-003
2.084706e+003,-6.826189e-003
2.086634e+003,-6.885353e-003
2.088563e+003,-6.850651e-003
2.090491e+003,-6.649661e-003
2.092420e+003,-6.526169e-003
2.094348e+003,-6.605770e-003
2.096277e+003,-6.560505e-003
2.098205e+003,-6.450928e-003
2.100134e+003,-6.444823e-003
2.102062e+003,-6.390170e-003
2.103991e+003,-6.338841e-003
2.105919e+003,-6.298512e-003
2.107848e+003,-6.292078e-003
2.109776e+003,-6.284371e-003
2.111705e+003,-6.171490e-003
2.113633e+003,-6.004369e-003
2.115562e+003,-6.035413e-003
2.117490e+003,-6.012898e-003
2.119419e+003,-5.897691e-003
2.121347e+003,-5.868141e-003
2.123276e+003,-5.856732e-003
2.125204e+003,-5.892952e-003
2.127133e+003,-5.942862e-003
2.129061e+003,-5.857092e-003
2.130990e+003,-5.802986e-003
2.132918e+003,-5.846631e-003
2.134847e+003,-5.852744e-003
2.136775e+003,-5.800665e-003
2.138704e+003,-5.750378e-003
2.140632e+003,-5.708784e-003
2.142561e+003,-5.758552e-003
2.144489e+003,-5.772874e-003
2.146418e+003,-5.627644e-003
2.148346e+003,-5.503174e-003
2.150275e+003,-5.543971e-003
2.152203e+003,-5.601772e-003
2.154132e+003,-5.590094e-003
2.156060e+003,-5.611454e-003
2.157989e+003,-5.705743e-003
2.159917e+003,-5.741582e-003
2.161846e+003,-5.691059e-003
2.163774e+003,-5.577926e-003
2.165703e+003,-5.560785e-003
2.167631e+003,-5.567066e-003
2.169560e+003,-5.526076e-003
2.171488e+003,-5.477622e-003
2.173417e+003,-5.570697e-003
2.175345e+003,-5.624439e-003
2.177274e+003,-5.634840e-003
2.179202e+003,-5.579235e-003
2.181131e+003,-5.555420e-003
2.183059e+003,-5.519500e-003
2.184988e+003,-5.542760e-003
2.186916e+003,-5.605402e-003
2.188845e+003,-5.533535e-003
2.190773e+003,-5.507689e-003
2.192702e+003,-5.515181e-003
2.194630e+003,-5.522804e-003
2.196559e+003,-5.519042e-003
2.198487e+003,-5.565103e-003
2.200416e+003,-5.637293e-003
2.202344e+003,-5.595655e-003
2.204273e+003,-5.483184e-003
2.206201e+003,-5.482072e-003
2.208130e+003,-5.486357e-003
2.210058e+003,-5.513807e-003
2.211987e+003,-5.546064e-003
2.213915e+003,-5.445262e-003
2.215844e+003,-5.415877e-003
2.217772e+003,-5.462048e-003
2.219701e+003,-5.403082e-003
2.221629e+003,-5.434333e-003
2.223558e+003,-5.486717e-003
2.225486e+003,-5.441106e-003
2.227415e+003,-5.378473e-003
2.229343e+003,-5.376902e-003
2.231272e+003,-5.353829e-003
2.233200e+003,-5.416336e-003
2.235129e+003,-5.414928e-003
2.237057e+003,-5.419509e-003
2.238986e+003,-5.445982e-003
2.240914e+003,-5.464633e-003
2.242843e+003,-5.441793e-003
2.244771e+003,-5.431650e-003
2.246700e+003,-5.530067e-003
2.248628e+003,-5.568865e-003
2.250557e+003,-5.504712e-003
2.252485e+003,-5.498332e-003
2.254414e+003,-5.524342e-003
2.256342e+003,-5.459234e-003
2.258271e+003,-5.496238e-003
2.260199e+003,-5.607398e-003
2.262128e+003,-5.693316e-003
2.264056e+003,-5.673269e-003
2.265985e+003,-5.609001e-003
2.267913e+003,-5.669965e-003
2.269842e+003,-5.763163e-003
2.271770e+003,-5.779315e-003
2.273699e+003,-5.741713e-003
2.275627e+003,-5.717384e-003
2.277556e+003,-5.793407e-003
2.279484e+003,-5.899554e-003
2.281413e+003,-5.930246e-003
2.283341e+003,-5.949595e-003
2.285270e+003,-6.021983e-003
2.287198e+003,-5.965021e-003
2.289127e+003,-5.903575e-003
2.291055e+003,-5.908543e-003
2.292984e+003,-5.967048e-003
2.294912e+003,-6.020218e-003
2.296841e+003,-5.933253e-003
2.298769e+003,-5.871802e-003
2.300698e+003,-5.904294e-003
2.302626e+003,-5.924363e-003
2.304555e+003,-5.880595e-003
2.306483e+003,-5.737200e-003
2.308412e+003,-5.647628e-003
2.310340e+003,-5.651422e-003
2.312269e+003,-5.622084e-003
2.314197e+003,-5.587053e-003
2.316125e+003,-5.457729e-003
2.318054e+003,-5.434006e-003
2.319983e+003,-5.483315e-003
2.321911e+003,-5.399286e-003
2.323840e+003,-5.235632e-003
2.325768e+003,-5.040443e-003
2.327697e+003,-4.888186e-003
2.329625e+003,-4.885369e-003
2.331553e+003,-4.966057e-003
2.333482e+003,-4.903028e-003
2.335411e+003,-4.736827e-003
2.337339e+003,-4.771337e-003
2.339268e+003,-4.790606e-003
2.341196e+003,-4.716244e-003
2.343125e+003,-4.798340e-003
2.345053e+003,-4.921047e-003
2.346981e+003,-5.046044e-003
2.348910e+003,-5.144777e-003
2.350839e+003,-4.999731e-003
2.352767e+003,-4.793326e-003
2.354696e+003,-4.706345e-003
2.356624e+003,-4.573447e-003
2.358552e+003,-4.462777e-003
2.360481e+003,-4.497867e-003
2.362409e+003,-4.537282e-003
2.364338e+003,-4.560726e-003
2.366267e+003,-4.453562e-003
2.368195e+003,-4.503048e-003
2.370124e+003,-4.602168e-003
2.372052e+003,-4.633738e-003
2.373980e+003,-4.768125e-003
2.375909e+003,-4.905550e-003
2.377838e+003,-4.823048e-003
2.379766e+003,-4.855520e-003
2.381695e+003,-4.937132e-003
2.383623e+003,-4.803387e-003
2.385552e+003,-4.682942e-003
2.387480e+003,-4.688678e-003
2.389408e+003,-4.691464e-003
2.391337e+003,-4.673633e-003
2.393266e+003,-4.596693e-003
2.395194e+003,-4.457956e-003
2.397123e+003,-4.408399e-003
2.399051e+003,-4.475731e-003
2.400979e+003,-4.558037e-003
2.402908e+003,-4.534954e-003
2.404836e+003,-4.451299e-003
2.406765e+003,-4.411056e-003
2.408694e+003,-4.361920e-003
2.410622e+003,-4.334759e-003
2.412551e+003,-4.302346e-003
2.414479e+003,-4.219696e-003
2.416407e+003,-4.139821e-003
2.418336e+003,-4.144579e-003
2.420264e+003,-4.146351e-003
2.422193e+003,-4.069810e-003
2.424122e+003,-4.083203e-003
2.426050e+003,-4.079165e-003
2.427979e+003,-3.994569e-003
2.429907e+003,-3.866248e-003
2.431835e+003,-3.752835e-003
2.433764e+003,-3.700241e-003
2.435692e+003,-3.643303e-003
2.437621e+003,-3.584353e-003
2.439550e+003,-3.480629e-003
2.441478e+003,-3.472050e-003
2.443406e+003,-3.520334e-003
2.445335e+003,-3.516620e-003
2.447263e+003,-3.502027e-003
2.449192e+003,-3.458179e-003
2.451121e+003,-3.287741e-003
2.453049e+003,-3.214403e-003
2.454978e+003,-3.140493e-003
2.456906e+003,-3.029523e-003
2.458834e+003,-3.049462e-003
2.460763e+003,-2.987207e-003
2.462691e+003,-2.884723e-003
2.464620e+003,-2.848350e-003
2.466549e+003,-2.756435e-003
2.468477e+003,-2.762691e-003
2.470406e+003,-2.799136e-003
2.472334e+003,-2.862439e-003
2.474262e+003,-2.757291e-003
2.476191e+003,-2.582131e-003
2.478119e+003,-2.582494e-003
2.480048e+003,-2.577421e-003
2.481977e+003,-2.572151e-003
2.483905e+003,-2.511936e-003
2.485833e+003,-2.480540e-003
2.487762e+003,-2.469569e-003
2.489690e+003,-2.412272e-003
2.491619e+003,-2.367292e-003
2.493547e+003,-2.236643e-003
2.495476e+003,-2.208128e-003
2.497405e+003,-2.229721e-003
2.499333e+003,-2.165040e-003
2.501261e+003,-2.088280e-003
2.503190e+003,-2.163490e-003
2.505118e+003,-2.285559e-003
2.507047e+003,-2.250191e-003
2.508975e+003,-2.167051e-003
2.510904e+003,-2.145455e-003
2.512833e+003,-2.107702e-003
2.514761e+003,-2.082609e-003
2.516689e+003,-2.081092e-003
2.518618e+003,-2.089567e-003
2.520546e+003,-2.051875e-003
2.522475e+003,-2.027008e-003
2.524403e+003,-2.085214e-003
2.526332e+003,-2.062559e-003
2.528260e+003,-1.916908e-003
2.530189e+003,-1.834496e-003
2.532117e+003,-1.814006e-003
2.534046e+003,-1.845219e-003
2.535974e+003,-1.814369e-003
2.537903e+003,-1.782428e-003
2.539831e+003,-1.803447e-003
2.541760e+003,-1.774904e-003
2.543688e+003,-1.740089e-003
2.545617e+003,-1.791238e-003
2.547545e+003,-1.734148e-003
2.549474e+003,-1.620178e-003
2.551402e+003,-1.585614e-003
2.553331e+003,-1.568744e-003
2.555259e+003,-1.587067e-003
2.557188e+003,-1.623314e-003
2.559116e+003,-1.616315e-003
2.561045e+003,-1.445714e-003
2.562973e+003,-1.331602e-003
2.564902e+003,-1.423257e-003
2.566830e+003,-1.491945e-003
2.568759e+003,-1.422729e-003
2.570687e+003,-1.367407e-003
2.572616e+003,-1.321494e-003
2.574544e+003,-1.266886e-003
2.576473e+003,-1.293216e-003
2.578401e+003,-1.286642e-003
2.580330e+003,-1.225686e-003
2.582258e+003,-1.145093e-003
2.584187e+003,-1.130221e-003
2.586115e+003,-1.145820e-003
2.588044e+003,-1.105335e-003
2.589972e+003,-1.015464e-003
2.591901e+003,-1.048519e-003
2.593829e+003,-1.174768e-003
2.595758e+003,-1.185705e-003
2.597686e+003,-1.082497e-003
2.599615e+003,-9.732482e-004
2.601543e+003,-9.200847e-004
2.603472e+003,-1.002803e-003
2.605400e+003,-1.064616e-003
2.607329e+003,-1.033677e-003
2.609257e+003,-9.347649e-004
2.611186e+003,-8.463128e-004
2.613114e+003,-8.032873e-004
2.615043e+003,-8.792819e-004
2.616971e+003,-8.891358e-004
2.618900e+003,-8.564981e-004
2.620828e+003,-8.079174e-004
2.622757e+003,-6.618118e-004
2.624685e+003,-5.378961e-004
2.626614e+003,-5.900476e-004
2.628542e+003,-7.129229e-004
2.630471e+003,-8.116546e-004
2.632399e+003,-8.063630e-004
2.634328e+003,-9.092396e-004
2.636256e+003,-9.072888e-004
2.638185e+003,-7.664426e-004
2.640113e+003,-6.860945e-004
2.642042e+003,-6.014963e-004
2.643970e+003,-5.545747e-004
2.645899e+003,-4.759746e-004
2.647827e+003,-3.807751e-004
2.649756e+003,-3.943148e-004
2.651684e+003,-4.199696e-004
2.653613e+003,-3.184339e-004
2.655541e+003,-1.917375e-004
2.657470e+003,-8.809448e-005
2.659398e+003,-1.971431e-005
2.661327e+003,-5.513154e-005
2.663255e+003,-6.089609e-005
2.665184e+003,-3.965963e-005
2.667112e+003,3.876856e-005
2.669041e+003,1.163823e-004
2.670969e+003,2.988793e-005
2.672898e+003,2.978852e-005
2.674826e+003,1.710716e-004
2.676755e+003,2.983751e-004
2.678683e+003,3.063660e-004
2.680612e+003,4.012397e-004
2.682540e+003,4.571258e-004
2.684469e+003,4.448203e-004
2.686397e+003,5.794368e-004
2.688326e+003,6.543931e-004
2.690254e+003,6.841933e-004
2.692183e+003,7.970081e-004
2.694111e+003,8.560991e-004
2.696040e+003,9.355858e-004
2.697968e+003,1.000673e-003
2.699897e+003,1.003762e-003
2.701825e+003,1.018508e-003
2.703754e+003,1.068162e-003
2.705682e+003,1.197822e-003
2.707611e+003,1.361655e-003
2.709539e+003,1.418496e-003
2.711468e+003,1.374086e-003
2.713396e+003,1.304822e-003
2.715325e+003,1.267502e-003
2.717253e+003,1.311801e-003
2.719182e+003,1.331443e-003
2.721110e+003,1.379504e-003
2.723039e+003,1.490173e-003
2.724967e+003,1.601601e-003
2.726896e+003,1.706504e-003
2.728824e+003,1.703976e-003
2.730753e+003,1.779992e-003
2.732681e+003,1.861811e-003
2.734610e+003,1.877418e-003
2.736538e+003,2.003924e-003
2.738467e+003,2.147249e-003
2.740395e+003,2.218714e-003
2.742324e+003,2.260712e-003
2.744252e+003,2.317937e-003
2.746181e+003,2.396225e-003
2.748109e+003,2.513252e-003
2.750038e+003,2.573143e-003
2.751966e+003,2.629543e-003
2.753895e+003,2.692718e-003
2.755823e+003,2.755468e-003
2.757752e+003,2.851713e-003
2.759680e+003,2.972265e-003
2.761609e+003,3.149451e-003
2.763537e+003,3.341401e-003
2.765466e+003,3.530229e-003
2.767394e+003,3.840633e-003
2.769323e+003,4.177956e-003
2.771251e+003,4.448552e-003
2.773180e+003,4.804238e-003
2.775108e+003,5.239454e-003
2.777037e+003,5.642377e-003
2.778965e+003,6.037442e-003
2.780894e+003,6.529325e-003
2.782822e+003,7.058404e-003
2.784750e+003,7.623467e-003
2.786679e+003,8.266728e-003
2.788608e+003,8.841888e-003
2.790536e+003,9.387235e-003
2.792465e+003,1.001704e-002
2.794393e+003,1.065694e-002
2.796322e+003,1.128019e-002
2.798250e+003,1.190203e-002
2.800178e+003,1.249253e-002
2.802107e+003,1.308021e-002
2.804036e+003,1.365102e-002
2.805964e+003,1.418464e-002
2.807893e+003,1.443082e-002
2.809821e+003,1.455113e-002
2.811750e+003,1.471254e-002
2.813678e+003,1.481024e-002
2.815606e+003,1.478250e-002
2.817535e+003,1.474449e-002
2.819464e+003,1.460962e-002
2.821392e+003,1.444322e-002
2.823321e+003,1.426749e-002
2.825249e+003,1.403455e-002
2.827177e+003,1.388923e-002
2.829106e+003,1.360712e-002
2.831034e+003,1.310015e-002
2.832963e+003,1.266037e-002
2.834892e+003,1.236982e-002
2.836820e+003,1.189137e-002
2.838749e+003,1.138800e-002
2.840677e+003,1.092450e-002
2.842605e+003,1.038954e-002
2.844534e+003,9.807854e-003
2.846462e+003,9.373591e-003
2.848391e+003,8.998043e-003
2.850320e+003,8.748601e-003
2.852248e+003,8.521841e-003
2.854177e+003,8.222491e-003
2.856105e+003,7.896083e-003
2.858033e+003,7.691082e-003
2.859962e+003,7.626907e-003
2.861890e+003,7.479503e-003
2.863819e+003,7.357222e-003
2.865748e+003,7.329454e-003
2.867676e+003,7.271767e-003
2.869604e+003,7.307888e-003
2.871533e+003,7.339395e-003
2.873461e+003,7.390418e-003
2.875390e+003,7.513348e-003
2.877319e+003,7.659010e-003
2.879247e+003,7.908839e-003
2.881176e+003,7.978928e-003
2.883104e+003,7.971402e-003
2.885032e+003,7.914338e-003
2.886961e+003,7.858834e-003
2.888889e+003,7.870171e-003
2.890818e+003,7.889370e-003
2.892747e+003,7.836297e-003
2.894675e+003,7.782186e-003
2.896604e+003,7.780297e-003
2.898532e+003,7.728216e-003
2.900460e+003,7.633111e-003
2.902389e+003,7.582970e-003
2.904317e+003,7.572450e-003
2.906246e+003,7.570596e-003
2.908175e+003,7.649534e-003
2.910103e+003,7.629840e-003
2.912031e+003,7.604685e-003
2.913960e+003,7.628424e-003
2.915888e+003,7.527778e-003
2.917817e+003,7.592344e-003
2.919745e+003,7.851682e-003
2.921674e+003,8.053384e-003
2.923603e+003,8.037958e-003
2.925531e+003,8.037992e-003
2.927459e+003,8.218236e-003
2.929388e+003,8.364033e-003
2.931316e+003,8.494370e-003
2.933245e+003,8.599160e-003
2.935173e+003,8.718276e-003
2.937102e+003,8.666996e-003
2.939031e+003,8.523530e-003
2.940959e+003,8.481902e-003
2.942887e+003,8.296144e-003
2.944816e+003,8.200374e-003
2.946744e+003,8.051797e-003
2.948673e+003,7.767917e-003
2.950601e+003,7.405719e-003
2.952530e+003,7.020081e-003
2.954458e+003,6.530267e-003
2.956387e+003,6.056359e-003
2.958315e+003,5.610959e-003
2.960244e+003,5.036439e-003
2.962172e+003,4.554012e-003
2.964101e+003,4.201910e-003
2.966029e+003,3.688895e-003
2.967958e+003,3.190604e-003
2.969886e+003,2.719857e-003
2.971815e+003,2.368373e-003
2.973743e+003,1.999131e-003
2.975672e+003,1.626910e-003
2.977600e+003,1.442863e-003
2.979529e+003,1.251418e-003
2.981457e+003,8.654946e-004
2.983386e+003,6.381664e-004
2.985314e+003,3.894664e-004
2.987243e+003,7.790511e-005
2.989171e+003,-7.898437e-005
2.991100e+003,-1.084342e-004
2.993028e+003,-2.674750e-004
2.994957e+003,-4.208634e-004
2.996885e+003,-5.539790e-004
2.998814e+003,-5.606966e-004
3.000742e+003,-6.955226e-004
3.002671e+003,-9.183323e-004
3.004599e+003,-9.698431e-004
3.006528e+003,-9.096033e-004
3.008456e+003,-1.042635e-003
3.010385e+003,-1.235962e-003
3.012313e+003,-1.205068e-003
3.014242e+003,-1.169712e-003
3.016170e+003,-1.106558e-003
3.018099e+003,-1.065773e-003
3.020027e+003,-1.075788e-003
3.021956e+003,-1.185474e-003
3.023884e+003,-1.308379e-003
3.025813e+003,-1.468038e-003
3.027741e+003,-1.584426e-003
3.029670e+003,-1.485176e-003
3.031598e+003,-1.319049e-003
3.033527e+003,-1.374938e-003
3.035455e+003,-1.412887e-003
3.037384e+003,-1.421540e-003
3.039312e+003,-1.537907e-003
3.041241e+003,-1.736162e-003
3.043169e+003,-1.918525e-003
3.045098e+003,-1.911696e-003
3.047026e+003,-1.861748e-003
3.048955e+003,-1.870986e-003
3.050883e+003,-1.898005e-003
3.052812e+003,-2.028921e-003
3.054740e+003,-2.136553e-003
3.056669e+003,-2.167644e-003
3.058597e+003,-2.189601e-003
3.060526e+003,-2.244752e-003
3.062454e+003,-2.280878e-003
3.064383e+003,-2.276956e-003
3.066311e+003,-2.289876e-003
3.068240e+003,-2.300852e-003
3.070168e+003,-2.418598e-003
3.072097e+003,-2.537565e-003
3.074025e+003,-2.519249e-003
3.075954e+003,-2.443541e-003
3.077882e+003,-2.489600e-003
3.079811e+003,-2.700855e-003
3.081739e+003,-2.820370e-003
3.083668e+003,-2.794066e-003
3.085596e+003,-2.787284e-003
3.087525e+003,-2.829456e-003
3.089453e+003,-2.902858e-003
3.091382e+003,-3.009090e-003
3.093310e+003,-2.976611e-003
3.095239e+003,-2.948309e-003
3.097167e+003,-2.989412e-003
3.099096e+003,-3.081903e-003
3.101024e+003,-3.232952e-003
3.102953e+003,-3.374250e-003
3.104881e+003,-3.408606e-003
3.106810e+003,-3.382272e-003
3.108738e+003,-3.221441e-003
3.110667e+003,-3.203911e-003
3.112595e+003,-3.297540e-003
3.114524e+003,-3.284945e-003
3.116452e+003,-3.234333e-003
3.118381e+003,-3.343870e-003
3.120309e+003,-3.596512e-003
3.122238e+003,-3.591582e-003
3.124166e+003,-3.539067e-003
3.126095e+003,-3.617969e-003
3.128023e+003,-3.555401e-003
3.129952e+003,-3.452229e-003
3.131880e+003,-3.440395e-003
3.133809e+003,-3.466659e-003
3.135737e+003,-3.575382e-003
3.137666e+003,-3.590005e-003
3.139594e+003,-3.559509e-003
3.141523e+003,-3.625592e-003
3.143451e+003,-3.589939e-003
3.145380e+003,-3.600159e-003
3.147308e+003,-3.587738e-003
3.149237e+003,-3.649151e-003
3.151165e+003,-3.765515e-003
3.153094e+003,-3.807098e-003
3.155022e+003,-3.740254e-003
3.156951e+003,-3.731548e-003
3.158879e+003,-3.666434e-003
3.160808e+003,-3.570321e-003
3.162736e+003,-3.585569e-003
3.164665e+003,-3.676882e-003
3.166593e+003,-3.798099e-003
3.168522e+003,-3.789427e-003
3.170450e+003,-3.666664e-003
3.172379e+003,-3.570847e-003
3.174307e+003,-3.525724e-003
3.176236e+003,-3.552246e-003
3.178164e+003,-3.638144e-003
3.180093e+003,-3.577616e-003
3.182021e+003,-3.533513e-003
3.183950e+003,-3.572293e-003
3.185878e+003,-3.578306e-003
3.187807e+003,-3.497162e-003
3.189735e+003,-3.567560e-003
3.191664e+003,-3.733684e-003
3.193592e+003,-3.755003e-003
3.195521e+003,-3.685490e-003
3.197449e+003,-3.497261e-003
3.199378e+003,-3.467514e-003
3.201306e+003,-3.555861e-003
3.203235e+003,-3.626545e-003
3.205163e+003,-3.539626e-003
3.207092e+003,-3.478098e-003
3.209020e+003,-3.351334e-003
3.210948e+003,-3.256138e-003
3.212877e+003,-3.240385e-003
3.214806e+003,-3.250218e-003
3.216734e+003,-3.338708e-003
3.218663e+003,-3.342193e-003
3.220591e+003,-3.290568e-003
3.222520e+003,-3.224006e-003
3.224448e+003,-3.155230e-003
3.226376e+003,-3.031037e-003
3.228305e+003,-2.901772e-003
3.230234e+003,-2.758543e-003
3.232162e+003,-2.752089e-003
3.234091e+003,-2.726572e-003
3.236019e+003,-2.590531e-003
3.237948e+003,-2.595471e-003
3.239876e+003,-2.511672e-003
3.241804e+003,-2.383505e-003
3.243733e+003,-2.425518e-003
3.245662e+003,-2.397609e-003
3.247590e+003,-2.350848e-003
3.249519e+003,-2.138664e-003
3.251447e+003,-1.997062e-003
3.253375e+003,-2.073441e-003
3.255304e+003,-2.060613e-003
3.257232e+003,-1.867753e-003
3.259161e+003,-1.744478e-003
3.261090e+003,-1.760087e-003
3.263018e+003,-1.711707e-003
3.264947e+003,-1.733785e-003
3.266875e+003,-1.692135e-003
3.268803e+003,-1.723126e-003
3.270732e+003,-1.644836e-003
3.272660e+003,-1.455060e-003
3.274589e+003,-1.443370e-003
3.276518e+003,-1.415265e-003
3.278446e+003,-1.242008e-003
3.280375e+003,-1.263681e-003
3.282303e+003,-1.325292e-003
3.284231e+003,-1.364336e-003
3.286160e+003,-1.384450e-003
3.288088e+003,-1.363246e-003
3.290017e+003,-1.524172e-003
3.291946e+003,-1.743587e-003
3.293874e+003,-1.854226e-003
3.295802e+003,-1.856767e-003
3.297731e+003,-1.869634e-003
3.299659e+003,-1.938218e-003
3.301588e+003,-1.991916e-003
3.303516e+003,-2.179183e-003
3.305445e+003,-2.245378e-003
3.307374e+003,-2.273858e-003
3.309302e+003,-2.372598e-003
3.311230e+003,-2.417544e-003
3.313159e+003,-2.613092e-003
3.315087e+003,-2.824847e-003
3.317016e+003,-2.937580e-003
3.318944e+003,-3.122762e-003
3.320873e+003,-3.138026e-003
3.322802e+003,-3.138223e-003
3.324730e+003,-3.326937e-003
3.326658e+003,-3.502651e-003
3.328587e+003,-3.396836e-003
3.330515e+003,-3.340681e-003
3.332444e+003,-3.414984e-003
3.334372e+003,-3.622701e-003
3.336301e+003,-3.778391e-003
3.338229e+003,-3.666927e-003
3.340158e+003,-3.626808e-003
3.342086e+003,-3.840960e-003
3.344015e+003,-3.876789e-003
3.345943e+003,-3.882569e-003
3.347872e+003,-4.117601e-003
3.349800e+003,-4.187210e-003
3.351729e+003,-4.048736e-003
3.353657e+003,-4.138245e-003
3.355586e+003,-4.272260e-003
3.357514e+003,-4.414861e-003
3.359443e+003,-4.539479e-003
3.361371e+003,-4.613773e-003
3.363300e+003,-4.626625e-003
3.365229e+003,-4.771566e-003
3.367157e+003,-5.000942e-003
3.369085e+003,-5.193072e-003
3.371014e+003,-5.235174e-003
3.372942e+003,-5.193792e-003
3.374871e+003,-5.376476e-003
3.376799e+003,-5.427069e-003
3.378728e+003,-5.533339e-003
3.380656e+003,-5.681248e-003
3.382585e+003,-5.832475e-003
3.384513e+003,-5.961949e-003
3.386442e+003,-5.987016e-003
3.388370e+003,-5.883210e-003
3.390299e+003,-5.922206e-003
3.392227e+003,-6.099651e-003
3.394156e+003,-6.168093e-003
3.396084e+003,-6.194552e-003
3.398013e+003,-6.198570e-003
3.399941e+003,-6.109550e-003
3.401870e+003,-6.044170e-003
3.403798e+003,-6.019336e-003
3.405727e+003,-6.177044e-003
3.407655e+003,-6.167734e-003
3.409584e+003,-6.050444e-003
3.411512e+003,-6.267062e-003
3.413441e+003,-6.539388e-003
3.415369e+003,-6.524178e-003
3.417298e+003,-6.419162e-003
3.419226e+003,-6.595588e-003
3.421155e+003,-6.860957e-003
3.423083e+003,-6.744703e-003
3.425012e+003,-6.517715e-003
3.426940e+003,-6.608283e-003
3.428869e+003,-6.681833e-003
3.430797e+003,-6.636608e-003
3.432726e+003,-6.666433e-003
3.434654e+003,-6.748977e-003
3.436583e+003,-6.862034e-003
3.438511e+003,-6.843280e-003
3.440440e+003,-6.815131e-003
3.442368e+003,-6.732110e-003
3.444297e+003,-6.685553e-003
3.446225e+003,-6.709110e-003
3.448154e+003,-6.812848e-003
3.450082e+003,-6.908442e-003
3.452011e+003,-6.990680e-003
3.453939e+003,-7.085843e-003
3.455868e+003,-7.197769e-003
3.457796e+003,-7.031955e-003
3.459725e+003,-6.820481e-003
3.461653e+003,-6.898756e-003
3.463582e+003,-6.984452e-003
3.465510e+003,-7.073977e-003
3.467439e+003,-7.225632e-003
3.469367e+003,-7.233942e-003
3.471296e+003,-7.179942e-003
3.473224e+003,-7.133466e-003
3.475153e+003,-7.294614e-003
3.477081e+003,-7.344267e-003
3.479010e+003,-7.353324e-003
3.480938e+003,-7.311361e-003
3.482867e+003,-7.377072e-003
3.484795e+003,-7.287642e-003
3.486724e+003,-7.123068e-003
3.488652e+003,-7.148622e-003
3.490581e+003,-7.229869e-003
3.492509e+003,-7.394500e-003
3.494438e+003,-7.431438e-003
3.496366e+003,-7.312078e-003
3.498295e+003,-7.416422e-003
3.500223e+003,-7.444988e-003
3.502152e+003,-7.380948e-003
3.504080e+003,-7.526147e-003
3.506009e+003,-7.569195e-003
3.507937e+003,-7.518201e-003
3.509866e+003,-7.483550e-003
3.511794e+003,-7.427073e-003
3.513723e+003,-7.431145e-003
3.515651e+003,-7.524616e-003
3.517580e+003,-7.460752e-003
3.519508e+003,-7.463813e-003
3.521437e+003,-7.382056e-003
3.523365e+003,-7.507324e-003
3.525294e+003,-7.649419e-003
3.527222e+003,-7.599965e-003
3.529151e+003,-7.406845e-003
3.531079e+003,-7.397594e-003
3.533008e+003,-7.504197e-003
3.534936e+003,-7.642387e-003
3.536865e+003,-7.674649e-003
3.538793e+003,-7.433164e-003
3.540722e+003,-7.278420e-003
3.542650e+003,-7.204646e-003
3.544579e+003,-7.235571e-003
3.546507e+003,-7.397952e-003
3.548436e+003,-7.587560e-003
3.550364e+003,-7.636397e-003
3.552293e+003,-7.557342e-003
3.554221e+003,-7.471337e-003
3.556150e+003,-7.489444e-003
3.558078e+003,-7.579908e-003
3.560007e+003,-7.539563e-003
3.561935e+003,-7.420200e-003
3.563864e+003,-7.468731e-003
3.565792e+003,-7.348535e-003
3.567721e+003,-7.183984e-003
3.569649e+003,-7.312469e-003
3.571578e+003,-7.562324e-003
3.573506e+003,-7.623667e-003
3.575435e+003,-7.402415e-003
3.577363e+003,-7.301196e-003
3.579292e+003,-7.353682e-003
3.581220e+003,-7.381958e-003
3.583149e+003,-7.554021e-003
3.585077e+003,-7.508236e-003
3.587006e+003,-7.508333e-003
3.588934e+003,-7.497749e-003
3.590863e+003,-7.474691e-003
3.592791e+003,-7.593094e-003
3.594720e+003,-7.741932e-003
3.596648e+003,-7.452413e-003
3.598577e+003,-7.127566e-003
3.600505e+003,-7.193533e-003
3.602434e+003,-7.317030e-003
3.604362e+003,-7.140473e-003
3.606291e+003,-7.213803e-003
3.608219e+003,-7.345276e-003
3.610148e+003,-7.343224e-003
3.612076e+003,-7.369026e-003
3.614005e+003,-7.381046e-003
3.615933e+003,-7.519536e-003
3.617862e+003,-7.443392e-003
3.619790e+003,-7.160648e-003
3.621719e+003,-7.141875e-003
3.623647e+003,-7.193500e-003
3.625576e+003,-7.142234e-003
3.627504e+003,-7.180203e-003
3.629433e+003,-7.169220e-003
3.631361e+003,-7.219147e-003
3.633290e+003,-7.284220e-003
3.635218e+003,-7.232965e-003
3.637146e+003,-7.332375e-003
3.639075e+003,-7.478958e-003
3.641004e+003,-7.194054e-003
3.642932e+003,-7.169611e-003
3.644861e+003,-7.407823e-003
3.646789e+003,-7.326739e-003
3.648718e+003,-7.409256e-003
3.650646e+003,-7.427432e-003
3.652574e+003,-7.276433e-003
3.654503e+003,-7.385444e-003
3.656432e+003,-7.385020e-003
3.658360e+003,-7.410884e-003
3.660289e+003,-7.626890e-003
3.662217e+003,-7.717325e-003
3.664146e+003,-7.538391e-003
3.666074e+003,-7.541061e-003
3.668002e+003,-7.820237e-003
3.669931e+003,-7.877704e-003
3.671860e+003,-7.849948e-003
3.673788e+003,-7.964280e-003
3.675717e+003,-7.745936e-003
3.677645e+003,-7.393360e-003
3.679573e+003,-7.576359e-003
3.681502e+003,-7.714265e-003
3.683430e+003,-7.650168e-003
3.685359e+003,-7.669701e-003
3.687288e+003,-7.483712e-003
3.689216e+003,-7.441046e-003
3.691145e+003,-7.530152e-003
3.693073e+003,-7.513055e-003
3.695001e+003,-7.711759e-003
3.696930e+003,-7.742844e-003
3.698858e+003,-7.738612e-003
3.700787e+003,-7.600681e-003
3.702716e+003,-7.449417e-003
3.704644e+003,-7.290998e-003
3.706573e+003,-7.123720e-003
3.708501e+003,-7.156770e-003
3.710429e+003,-7.172479e-003
3.712358e+003,-7.105890e-003
3.714286e+003,-7.233356e-003
3.716215e+003,-7.501396e-003
3.718144e+003,-7.367103e-003
3.720072e+003,-7.190860e-003
3.722000e+003,-7.248801e-003
3.723929e+003,-7.310514e-003
3.725857e+003,-7.206894e-003
3.727786e+003,-6.900354e-003
3.729714e+003,-7.066740e-003
3.731643e+003,-7.350424e-003
3.733572e+003,-7.525332e-003
3.735500e+003,-7.339022e-003
3.737428e+003,-7.124502e-003
3.739357e+003,-7.256622e-003
3.741285e+003,-7.295787e-003
3.743214e+003,-7.234138e-003
3.745142e+003,-7.002091e-003
3.747071e+003,-6.953476e-003
3.749000e+003,-6.770279e-003
3.750928e+003,-6.555087e-003
3.752856e+003,-6.564682e-003
3.754785e+003,-6.746726e-003
3.756713e+003,-6.641046e-003
3.758642e+003,-6.662158e-003
3.760570e+003,-6.816175e-003
3.762499e+003,-6.771551e-003
3.764427e+003,-6.578846e-003
3.766356e+003,-6.666563e-003
3.768284e+003,-6.627145e-003
3.770213e+003,-6.475640e-003
3.772141e+003,-6.560178e-003
3.774070e+003,-6.484910e-003
3.775998e+003,-6.506748e-003
3.777927e+003,-6.649791e-003
3.779855e+003,-6.614353e-003
3.781784e+003,-6.339070e-003
3.783712e+003,-6.250732e-003
3.785641e+003,-6.215882e-003
3.787569e+003,-6.251516e-003
3.789498e+003,-6.345862e-003
3.791426e+003,-6.532338e-003
3.793355e+003,-6.562724e-003
3.795283e+003,-6.327576e-003
3.797212e+003,-6.383085e-003
3.799140e+003,-6.603616e-003
3.801069e+003,-6.536777e-003
3.802997e+003,-6.369110e-003
3.804926e+003,-6.496694e-003
3.806854e+003,-6.472865e-003
3.808783e+003,-6.405679e-003
3.810711e+003,-6.397124e-003
3.812640e+003,-6.263437e-003
3.814568e+003,-6.283587e-003
3.816497e+003,-6.218952e-003
3.818425e+003,-6.123435e-003
3.820354e+003,-5.889748e-003
3.822282e+003,-5.859511e-003
3.824211e+003,-6.084131e-003
3.826139e+003,-6.270948e-003
3.828068e+003,-6.158195e-003
3.829996e+003,-6.137385e-003
3.831925e+003,-6.072695e-003
3.833853e+003,-6.069591e-003
3.835782e+003,-6.170772e-003
3.837710e+003,-6.083772e-003
3.839639e+003,-5.946065e-003
3.841567e+003,-5.781604e-003
3.843496e+003,-5.819856e-003
3.845424e+003,-5.955347e-003
3.847353e+003,-6.252300e-003
3.849281e+003,-6.317942e-003
3.851210e+003,-6.109909e-003
3.853138e+003,-5.955707e-003
3.855067e+003,-5.866637e-003
3.856995e+003,-5.965969e-003
3.858924e+003,-6.053646e-003
3.860852e+003,-6.065311e-003
3.862781e+003,-5.993454e-003
3.864709e+003,-5.867454e-003
3.866638e+003,-5.717482e-003
3.868566e+003,-5.758520e-003
3.870495e+003,-5.702047e-003
3.872423e+003,-5.875953e-003
3.874352e+003,-5.764830e-003
3.876280e+003,-5.817927e-003
3.878209e+003,-6.024662e-003
3.880137e+003,-5.871639e-003
3.882066e+003,-5.833848e-003
3.883994e+003,-6.009434e-003
3.885923e+003,-5.748645e-003
3.887851e+003,-5.720491e-003
3.889780e+003,-5.816946e-003
3.891708e+003,-5.988846e-003
3.893637e+003,-6.080864e-003
3.895565e+003,-5.757702e-003
3.897494e+003,-5.538311e-003
3.899422e+003,-5.499445e-003
3.901351e+003,-5.779250e-003
3.903279e+003,-5.888048e-003
3.905208e+003,-5.696946e-003
3.907136e+003,-5.626107e-003
3.909065e+003,-5.578319e-003
3.910993e+003,-5.671241e-003
3.912922e+003,-5.690798e-003
3.914850e+003,-5.583389e-003
3.916779e+003,-5.666989e-003
3.918707e+003,-5.624897e-003
3.920636e+003,-5.535072e-003
3.922564e+003,-5.745571e-003
3.924493e+003,-5.802757e-003
3.926421e+003,-5.796578e-003
3.928350e+003,-5.744361e-003
3.930278e+003,-5.657636e-003
3.932207e+003,-5.691877e-003
3.934135e+003,-5.540438e-003
3.936064e+003,-5.390287e-003
3.937992e+003,-5.590487e-003
3.939921e+003,-5.698842e-003
3.941849e+003,-5.634185e-003
3.943778e+003,-5.574230e-003
3.945706e+003,-5.699137e-003
3.947635e+003,-5.491494e-003
3.949563e+003,-5.324111e-003
3.951492e+003,-5.441564e-003
3.953420e+003,-5.527679e-003
3.955349e+003,-5.381156e-003
3.957277e+003,-5.350524e-003
3.959206e+003,-5.537493e-003
3.961134e+003,-5.694068e-003
3.963063e+003,-5.569585e-003
3.964991e+003,-5.627840e-003
3.966920e+003,-5.634709e-003
3.968848e+003,-5.477524e-003
3.970777e+003,-5.490873e-003
3.972705e+003,-5.455831e-003
3.974634e+003,-5.362011e-003
3.976562e+003,-5.354288e-003
3.978491e+003,-5.609753e-003
3.980419e+003,-5.530328e-003
3.982348e+003,-5.628265e-003
3.984276e+003,-5.674413e-003
3.986205e+003,-5.657276e-003
3.988133e+003,-5.517439e-003
3.990062e+003,-5.220704e-003
3.991990e+003,-5.238447e-003
3.993919e+003,-5.324536e-003
3.995847e+003,-5.493883e-003
3.997776e+003,-5.705056e-003
3.999704e+003,-5.594837e-003
4.001633e+003,0.000000e+000
