3.991989e+002,4.087101e-002
4.011274e+002,4.127481e-002
4.030559e+002,2.989133e-002
4.049844e+002,2.724549e-002
4.069129e+002,2.686270e-002
4.088414e+002,2.576037e-002
4.107699e+002,2.256765e-002
4.126984e+002,2.404744e-002
4.146269e+002,1.950569e-002
4.165554e+002,1.698351e-002
4.184839e+002,2.243058e-002
4.204124e+002,2.284898e-002
4.223409e+002,1.877160e-002
4.242694e+002,1.944699e-002
4.261979e+002,1.653310e-002
4.281264e+002,1.578347e-002
4.300549e+002,1.687788e-002
4.319834e+002,1.026209e-002
4.339119e+002,9.254363e-003
4.358404e+002,1.802518e-002
4.377689e+002,1.981882e-002
4.396974e+002,1.373647e-002
4.416259e+002,1.184421e-002
4.435544e+002,1.551509e-002
4.454829e+002,1.693510e-002
4.474114e+002,1.812127e-002
4.493399e+002,1.536849e-002
4.512684e+002,1.181084e-002
4.531969e+002,1.104997e-002
4.551254e+002,1.195955e-002
4.570539e+002,1.155001e-002
4.589824e+002,1.140158e-002
4.609109e+002,1.145801e-002
4.628394e+002,1.113338e-002
4.647679e+002,8.818996e-003
4.666964e+002,7.593895e-003
4.686249e+002,6.507933e-003
4.705533e+002,8.437541e-003
4.724819e+002,9.809888e-003
4.744103e+002,8.911825e-003
4.763389e+002,7.340338e-003
4.782673e+002,7.280257e-003
4.801959e+002,7.734085e-003
4.821243e+002,8.268215e-003
4.840529e+002,8.351299e-003
4.859813e+002,7.618544e-003
4.879099e+002,6.002670e-003
4.898383e+002,5.274768e-003
4.917668e+002,4.158252e-003
4.936953e+002,4.822128e-003
4.956238e+002,5.421593e-003
4.975523e+002,5.344871e-003
4.994808e+002,5.682659e-003
5.014093e+002,6.892005e-003
5.033378e+002,5.175069e-003
5.052663e+002,3.517635e-003
5.071948e+002,2.776310e-003
5.091233e+002,2.285692e-003
5.110518e+002,1.287673e-003
5.129803e+002,6.405555e-004
5.149088e+002,-7.573781e-005
5.168373e+002,2.225741e-003
5.187658e+002,3.483231e-003
5.206943e+002,3.085575e-003
5.226228e+002,1.743330e-003
5.245513e+002,1.649227e-003
5.264798e+002,1.854190e-003
5.284083e+002,1.835756e-003
5.303368e+002,8.919559e-004
5.322653e+002,1.082512e-003
5.341938e+002,6.761623e-004
5.361223e+002,6.863836e-004
5.380508e+002,2.536157e-004
5.399792e+002,2.001195e-003
5.419078e+002,2.231802e-003
5.438363e+002,2.449137e-003
5.457648e+002,2.618642e-003
5.476932e+002,2.076363e-003
5.496218e+002,1.828336e-003
5.515503e+002,2.184445e-003
5.534788e+002,1.956159e-003
5.554072e+002,2.724625e-003
5.573358e+002,2.785180e-003
5.592643e+002,2.876761e-003
5.611927e+002,1.777031e-003
5.631212e+002,2.522850e-003
5.650497e+002,2.058918e-003
5.669783e+002,1.836821e-003
5.689067e+002,3.075297e-003
5.708352e+002,2.692885e-003
5.727637e+002,6.424138e-004
5.746923e+002,-4.526732e-004
5.766207e+002,7.554833e-004
5.785492e+002,5.238004e-004
5.804777e+002,-1.029281e-002
5.824063e+002,-1.108066e-002
5.843347e+002,-1.237382e-003
5.862632e+002,1.623916e-003
5.881917e+002,1.057633e-003
5.901202e+002,-4.760408e-004
5.920487e+002,-2.095898e-003
5.939772e+002,-2.137509e-003
5.959057e+002,-9.932490e-004
5.978342e+002,-6.028859e-004
5.997627e+002,4.695311e-004
6.016912e+002,1.451573e-003
6.036197e+002,2.364075e-003
6.055482e+002,3.759076e-003
6.074767e+002,4.895173e-003
6.094052e+002,5.324443e-003
6.113337e+002,6.632162e-003
6.132622e+002,6.787591e-003
6.151907e+002,5.903978e-003
6.171192e+002,5.266954e-003
6.190477e+002,5.229359e-003
6.209762e+002,5.251862e-003
6.229047e+002,2.756736e-003
6.248332e+002,-6.470232e-004
6.267617e+002,-2.551894e-003
6.286902e+002,-3.198714e-003
6.306187e+002,-2.741059e-003
6.325472e+002,-2.205359e-003
6.344756e+002,-1.343328e-003
6.364042e+002,-1.186300e-003
6.383326e+002,-1.415430e-003
6.402612e+002,-1.123744e-003
6.421896e+002,-5.234863e-005
6.441182e+002,-4.732937e-004
6.460466e+002,-9.689174e-004
6.479752e+002,-4.758753e-004
6.499036e+002,-7.358466e-004
6.518322e+002,-9.776452e-004
6.537606e+002,-5.553688e-004
6.556891e+002,-6.914868e-004
6.576177e+002,-6.402739e-004
6.595461e+002,-6.800074e-004
6.614746e+002,-1.510205e-003
6.634031e+002,-1.747976e-003
6.653317e+002,-1.432339e-003
6.672601e+002,1.409419e-004
6.691886e+002,2.931695e-004
6.711171e+002,-5.962021e-004
6.730457e+002,-4.751141e-004
6.749741e+002,-5.649654e-004
6.769026e+002,-1.060749e-003
6.788311e+002,-1.264606e-003
6.807596e+002,-1.223935e-003
6.826881e+002,-1.112441e-003
6.846166e+002,-1.238539e-003
6.865451e+002,-1.607435e-003
6.884736e+002,-1.864091e-003
6.904021e+002,-1.821298e-003
6.923306e+002,-1.909189e-003
6.942591e+002,-1.964177e-003
6.961876e+002,-1.583600e-003
6.981161e+002,-1.808265e-003
7.000446e+002,-2.423047e-003
7.019731e+002,-2.652085e-003
7.039016e+002,-2.776552e-003
7.058301e+002,-3.070881e-003
7.077585e+002,-3.191018e-003
7.096871e+002,-3.057030e-003
7.116156e+002,-3.488682e-003
7.135441e+002,-3.972047e-003
7.154725e+002,-4.132731e-003
7.174011e+002,-3.932252e-003
7.193296e+002,-3.525757e-003
7.212581e+002,-3.384836e-003
7.231865e+002,-3.281920e-003
7.251151e+002,-3.156283e-003
7.270436e+002,-2.902924e-003
7.289720e+002,-2.430131e-003
7.309005e+002,-2.022688e-003
7.328290e+002,-2.113011e-003
7.347576e+002,-2.136092e-003
7.366860e+002,-2.357241e-003
7.386145e+002,-2.459388e-003
7.405430e+002,-1.888504e-003
7.424716e+002,-9.700084e-004
7.444000e+002,-5.131087e-004
7.463285e+002,-5.142008e-004
7.482570e+002,-5.234673e-004
7.501855e+002,-2.990311e-004
7.521140e+002,5.565776e-004
7.540425e+002,1.378374e-003
7.559710e+002,1.662963e-003
7.578995e+002,2.219912e-003
7.598280e+002,2.821563e-003
7.617565e+002,2.865354e-003
7.636850e+002,3.017472e-003
7.656135e+002,3.670082e-003
7.675420e+002,3.783842e-003
7.694705e+002,3.232930e-003
7.713990e+002,3.087044e-003
7.733275e+002,3.705303e-003
7.752560e+002,4.010215e-003
7.771844e+002,3.847821e-003
7.791130e+002,3.578634e-003
7.810415e+002,3.647928e-003
7.829700e+002,3.633460e-003
7.848984e+002,3.124587e-003
7.868270e+002,2.945576e-003
7.887555e+002,2.751600e-003
7.906840e+002,2.399890e-003
7.926124e+002,2.094841e-003
7.945410e+002,1.862343e-003
7.964695e+002,1.640712e-003
7.983979e+002,1.264445e-003
8.003264e+002,1.043750e-003
8.022549e+002,1.145827e-003
8.041835e+002,8.748571e-004
8.061119e+002,3.735812e-004
8.080404e+002,-4.234324e-005
8.099689e+002,-2.507192e-004
8.118975e+002,1.619562e-004
8.138259e+002,4.005764e-004
8.157545e+002,-5.466773e-005
8.176830e+002,-4.039811e-004
8.196115e+002,-5.294242e-004
8.215399e+002,-5.105273e-004
8.234684e+002,-3.543896e-004
8.253970e+002,1.662321e-004
8.273254e+002,6.574460e-004
8.292539e+002,3.928491e-004
8.311824e+002,4.271188e-005
8.331110e+002,1.729941e-004
8.350394e+002,4.215370e-004
8.369679e+002,5.709433e-004
8.388964e+002,7.085859e-004
8.408250e+002,6.796468e-004
8.427534e+002,4.625323e-004
8.446819e+002,2.601801e-004
8.466104e+002,3.777597e-004
8.485389e+002,6.601339e-004
8.504674e+002,5.434399e-004
8.523959e+002,4.811076e-004
8.543244e+002,7.406800e-004
8.562529e+002,1.048632e-003
8.581814e+002,1.255173e-003
8.601099e+002,1.077263e-003
8.620384e+002,7.631175e-004
8.639669e+002,9.834043e-004
8.658954e+002,1.230052e-003
8.678239e+002,1.038302e-003
8.697524e+002,1.225267e-003
8.716809e+002,1.565885e-003
8.736094e+002,1.386219e-003
8.755378e+002,1.087860e-003
8.774664e+002,1.238924e-003
8.793949e+002,1.386318e-003
8.813234e+002,1.297112e-003
8.832518e+002,1.285779e-003
8.851804e+002,1.255838e-003
8.871089e+002,1.099951e-003
8.890374e+002,1.017179e-003
8.909658e+002,1.111644e-003
8.928943e+002,1.350122e-003
8.948229e+002,1.400213e-003
8.967513e+002,1.496590e-003
8.986798e+002,1.415404e-003
9.006083e+002,1.214934e-003
9.025369e+002,1.558902e-003
9.044653e+002,1.573467e-003
9.063938e+002,9.977177e-004
9.083223e+002,5.554165e-004
9.102509e+002,2.531515e-004
9.121793e+002,3.417464e-004
9.141078e+002,2.084963e-004
9.160364e+002,-1.319860e-004
9.179648e+002,-5.190658e-004
9.198933e+002,-1.076912e-003
9.218218e+002,-1.153817e-003
9.237504e+002,-1.298171e-003
9.256788e+002,-1.713621e-003
9.276073e+002,-2.200217e-003
9.295358e+002,-2.603507e-003
9.314644e+002,-2.977565e-003
9.333928e+002,-3.122236e-003
9.353213e+002,-3.198878e-003
9.372498e+002,-3.333184e-003
9.391783e+002,-3.812780e-003
9.411068e+002,-4.008128e-003
9.430353e+002,-3.788672e-003
9.449637e+002,-3.575710e-003
9.468923e+002,-3.438521e-003
9.488208e+002,-3.684307e-003
9.507493e+002,-3.663740e-003
9.526777e+002,-3.628451e-003
9.546063e+002,-3.544358e-003
9.565348e+002,-3.287116e-003
9.584633e+002,-3.506595e-003
9.603917e+002,-3.708947e-003
9.623203e+002,-3.496439e-003
9.642488e+002,-3.359488e-003
9.661772e+002,-3.326608e-003
9.681057e+002,-3.280539e-003
9.700343e+002,-3.359192e-003
9.719628e+002,-3.192465e-003
9.738912e+002,-3.178157e-003
9.758197e+002,-3.152434e-003
9.777483e+002,-2.853189e-003
9.796768e+002,-2.695883e-003
9.816052e+002,-2.735791e-003
9.835337e+002,-2.701646e-003
9.854623e+002,-2.579892e-003
9.873907e+002,-2.572151e-003
9.893192e+002,-2.506500e-003
9.912477e+002,-2.603804e-003
9.931763e+002,-2.507785e-003
9.951047e+002,-2.328701e-003
9.970332e+002,-2.517042e-003
9.989617e+002,-2.362481e-003
1.000890e+003,-2.110406e-003
1.002819e+003,-1.924033e-003
1.004747e+003,-1.892958e-003
1.006676e+003,-1.814864e-003
1.008604e+003,-1.643086e-003
1.010533e+003,-1.461070e-003
1.012461e+003,-1.316803e-003
1.014390e+003,-1.290606e-003
1.016318e+003,-1.091025e-003
1.018247e+003,-8.030226e-004
1.020175e+003,-4.725324e-004
1.022104e+003,-1.736208e-004
1.024032e+003,-1.272329e-005
1.025961e+003,2.742376e-004
1.027889e+003,3.692702e-004
1.029818e+003,5.067493e-004
1.031746e+003,7.452272e-004
1.033675e+003,9.033444e-004
1.035603e+003,9.789875e-004
1.037532e+003,1.208920e-003
1.039460e+003,1.419128e-003
1.041389e+003,1.579752e-003
1.043317e+003,1.686779e-003
1.045246e+003,1.799755e-003
1.047174e+003,1.915456e-003
1.049103e+003,1.882842e-003
1.051031e+003,1.544403e-003
1.052960e+003,1.432791e-003
1.054888e+003,1.434552e-003
1.056817e+003,1.429433e-003
1.058745e+003,1.403770e-003
1.060674e+003,1.489840e-003
1.062602e+003,1.558369e-003
1.064531e+003,1.519631e-003
1.066459e+003,1.660369e-003
1.068388e+003,1.666223e-003
1.070316e+003,1.846504e-003
1.072245e+003,2.076330e-003
1.074173e+003,1.933560e-003
1.076102e+003,1.898383e-003
1.078030e+003,2.154009e-003
1.079959e+003,2.173223e-003
1.081887e+003,2.167395e-003
1.083816e+003,2.436075e-003
1.085744e+003,2.648278e-003
1.087673e+003,2.693418e-003
1.089601e+003,2.840706e-003
1.091530e+003,3.070759e-003
1.093458e+003,3.165838e-003
1.095387e+003,3.217909e-003
1.097315e+003,3.278298e-003
1.099244e+003,3.255664e-003
1.101172e+003,3.213970e-003
1.103101e+003,3.247351e-003
1.105029e+003,3.367813e-003
1.106958e+003,3.415132e-003
1.108886e+003,3.623036e-003
1.110815e+003,3.655446e-003
1.112743e+003,3.329781e-003
1.114672e+003,3.451869e-003
1.116600e+003,3.787619e-003
1.118529e+003,3.861092e-003
1.120457e+003,3.643484e-003
1.122386e+003,3.736784e-003
1.124314e+003,3.736416e-003
1.126243e+003,3.467867e-003
1.128171e+003,3.153990e-003
1.130100e+003,2.939105e-003
1.132028e+003,2.588243e-003
1.133957e+003,2.249987e-003
1.135885e+003,2.082389e-003
1.137814e+003,1.581248e-003
1.139742e+003,7.747017e-004
1.141671e+003,4.095309e-004
1.143599e+003,1.084613e-004
1.145528e+003,-3.792191e-004
1.147456e+003,-7.832116e-004
1.149385e+003,-1.106195e-003
1.151313e+003,-1.653385e-003
1.153242e+003,-2.084389e-003
1.155170e+003,-2.191876e-003
1.157099e+003,-2.371543e-003
1.159027e+003,-2.589443e-003
1.160956e+003,-2.696805e-003
1.162884e+003,-2.891306e-003
1.164813e+003,-3.122960e-003
1.166741e+003,-3.224302e-003
1.168670e+003,-3.190261e-003
1.170598e+003,-3.122039e-003
1.172526e+003,-3.070848e-003
1.174455e+003,-3.122828e-003
1.176384e+003,-2.949724e-003
1.178312e+003,-2.882649e-003
1.180240e+003,-2.998296e-003
1.182169e+003,-3.025706e-003
1.184098e+003,-3.103583e-003
1.186026e+003,-3.155033e-003
1.187954e+003,-3.062985e-003
1.189883e+003,-3.175789e-003
1.191812e+003,-3.255052e-003
1.193740e+003,-3.107761e-003
1.195668e+003,-3.269884e-003
1.197597e+003,-3.450355e-003
1.199526e+003,-3.372869e-003
1.201454e+003,-3.267582e-003
1.203382e+003,-3.106379e-003
1.205311e+003,-3.050186e-003
1.207240e+003,-3.008727e-003
1.209168e+003,-3.001554e-003
1.211096e+003,-2.871096e-003
1.213025e+003,-2.557427e-003
1.214953e+003,-2.419224e-003
1.216882e+003,-2.468811e-003
1.218810e+003,-2.491148e-003
1.220739e+003,-2.533084e-003
1.222667e+003,-2.486470e-003
1.224596e+003,-2.380375e-003
1.226524e+003,-2.343630e-003
1.228453e+003,-2.256454e-003
1.230381e+003,-2.328602e-003
1.232310e+003,-2.449076e-003
1.234238e+003,-2.422486e-003
1.236167e+003,-2.421761e-003
1.238095e+003,-2.487458e-003
1.240024e+003,-2.476257e-003
1.241952e+003,-2.682547e-003
1.243881e+003,-3.121216e-003
1.245809e+003,-3.388519e-003
1.247738e+003,-3.623490e-003
1.249666e+003,-3.636994e-003
1.251595e+003,-3.691305e-003
1.253523e+003,-3.877840e-003
1.255452e+003,-4.095151e-003
1.257380e+003,-4.384357e-003
1.259309e+003,-4.571349e-003
1.261237e+003,-4.708836e-003
1.263166e+003,-4.832059e-003
1.265094e+003,-4.763210e-003
1.267023e+003,-4.690842e-003
1.268951e+003,-4.696873e-003
1.270880e+003,-4.739383e-003
1.272808e+003,-4.995931e-003
1.274737e+003,-5.224043e-003
1.276665e+003,-5.313637e-003
1.278594e+003,-5.508082e-003
1.280522e+003,-5.576388e-003
1.282451e+003,-5.643900e-003
1.284379e+003,-5.651258e-003
1.286308e+003,-5.618551e-003
1.288236e+003,-5.665714e-003
1.290165e+003,-5.739587e-003
1.292093e+003,-5.814200e-003
1.294022e+003,-5.757343e-003
1.295950e+003,-5.687135e-003
1.297879e+003,-5.732197e-003
1.299807e+003,-5.888964e-003
1.301736e+003,-5.966688e-003
1.303664e+003,-6.011689e-003
1.305593e+003,-6.069232e-003
1.307521e+003,-6.033910e-003
1.309450e+003,-5.996362e-003
1.311378e+003,-6.083379e-003
1.313307e+003,-6.131406e-003
1.315235e+003,-6.135784e-003
1.317164e+003,-6.005513e-003
1.319092e+003,-5.994793e-003
1.321021e+003,-6.129152e-003
1.322949e+003,-6.118077e-003
1.324878e+003,-5.966296e-003
1.326806e+003,-5.860165e-003
1.328735e+003,-5.645273e-003
1.330663e+003,-5.417873e-003
1.332592e+003,-5.222897e-003
1.334520e+003,-5.113441e-003
1.336449e+003,-5.064089e-003
1.338377e+003,-4.895394e-003
1.340306e+003,-4.882846e-003
1.342234e+003,-4.935854e-003
1.344163e+003,-4.901488e-003
1.346091e+003,-4.993376e-003
1.348020e+003,-4.842250e-003
1.349948e+003,-4.778219e-003
1.351877e+003,-4.869445e-003
1.353805e+003,-4.915575e-003
1.355734e+003,-4.908138e-003
1.357662e+003,-4.922848e-003
1.359591e+003,-4.870002e-003
1.361519e+003,-4.894313e-003
1.363448e+003,-5.129289e-003
1.365376e+003,-5.644554e-003
1.367305e+003,-5.912171e-003
1.369233e+003,-6.128499e-003
1.371162e+003,-6.397418e-003
1.373090e+003,-6.316309e-003
1.375019e+003,-6.400128e-003
1.376947e+003,-6.703400e-003
1.378876e+003,-6.888385e-003
1.380804e+003,-7.068207e-003
1.382733e+003,-7.148165e-003
1.384661e+003,-7.093568e-003
1.386590e+003,-6.840834e-003
1.388518e+003,-6.970725e-003
1.390447e+003,-7.455019e-003
1.392375e+003,-7.562585e-003
1.394304e+003,-7.330388e-003
1.396232e+003,-7.583229e-003
1.398161e+003,-7.722012e-003
1.400089e+003,-7.825998e-003
1.402018e+003,-8.215094e-003
1.403946e+003,-8.240161e-003
1.405875e+003,-8.275012e-003
1.407803e+003,-8.405027e-003
1.409732e+003,-8.383187e-003
1.411660e+003,-8.274134e-003
1.413589e+003,-8.083493e-003
1.415517e+003,-7.795569e-003
1.417446e+003,-7.180268e-003
1.419374e+003,-6.678114e-003
1.421303e+003,-6.871916e-003
1.423231e+003,-6.645549e-003
1.425160e+003,-6.280746e-003
1.427088e+003,-5.967767e-003
1.429017e+003,-5.502618e-003
1.430945e+003,-5.229412e-003
1.432874e+003,-4.786051e-003
1.434802e+003,-3.815605e-003
1.436731e+003,-2.983456e-003
1.438659e+003,-3.191906e-003
1.440588e+003,-3.082725e-003
1.442516e+003,-2.648430e-003
1.444445e+003,-2.320825e-003
1.446373e+003,-1.878310e-003
1.448302e+003,-1.539294e-003
1.450230e+003,-1.436302e-003
1.452159e+003,-1.289780e-003
1.454087e+003,-9.410137e-004
1.456016e+003,2.002089e-004
1.457944e+003,2.904507e-004
1.459873e+003,-8.191950e-004
1.461801e+003,-1.503733e-003
1.463730e+003,-1.508125e-003
1.465658e+003,-1.735865e-003
1.467587e+003,-2.449043e-003
1.469515e+003,-2.668189e-003
1.471444e+003,-2.333183e-003
1.473372e+003,-2.585129e-003
1.475301e+003,-3.349263e-003
1.477229e+003,-4.111758e-003
1.479158e+003,-4.878816e-003
1.481086e+003,-5.238775e-003
1.483015e+003,-5.679417e-003
1.484943e+003,-5.908739e-003
1.486872e+003,-5.724840e-003
1.488800e+003,-5.594183e-003
1.490729e+003,-5.801972e-003
1.492657e+003,-6.330090e-003
1.494586e+003,-6.291392e-003
1.496514e+003,-5.982114e-003
1.498443e+003,-6.237504e-003
1.500371e+003,-6.729207e-003
1.502300e+003,-6.921030e-003
1.504228e+003,-6.206997e-003
1.506157e+003,-4.950006e-003
1.508085e+003,-5.447879e-003
1.510014e+003,-6.472702e-003
1.511942e+003,-6.761177e-003
1.513871e+003,-6.845172e-003
1.515799e+003,-6.492059e-003
1.517728e+003,-6.267323e-003
1.519656e+003,-5.890500e-003
1.521585e+003,-5.454358e-003
1.523513e+003,-6.006624e-003
1.525442e+003,-6.129250e-003
1.527370e+003,-6.345535e-003
1.529299e+003,-6.472375e-003
1.531227e+003,-6.298087e-003
1.533156e+003,-5.731282e-003
1.535084e+003,-5.947340e-003
1.537013e+003,-5.749037e-003
1.538941e+003,-4.266617e-003
1.540870e+003,-3.831731e-003
1.542798e+003,-4.469074e-003
1.544727e+003,-4.978112e-003
1.546655e+003,-5.577664e-003
1.548584e+003,-5.578220e-003
1.550512e+003,-5.302640e-003
1.552441e+003,-4.936247e-003
1.554369e+003,-4.410761e-003
1.556298e+003,-3.709932e-003
1.558226e+003,-2.000657e-003
1.560155e+003,-2.172095e-003
1.562083e+003,-3.449862e-003
1.564012e+003,-3.621157e-003
1.565940e+003,-3.738611e-003
1.567869e+003,-3.486315e-003
1.569797e+003,-3.170920e-003
1.571726e+003,-3.730267e-003
1.573654e+003,-3.750338e-003
1.575583e+003,-2.890351e-003
1.577511e+003,-3.122466e-003
1.579440e+003,-3.632624e-003
1.581368e+003,-3.573870e-003
1.583297e+003,-3.606600e-003
1.585225e+003,-3.401932e-003
1.587154e+003,-3.318815e-003
1.589082e+003,-3.403675e-003
1.591010e+003,-3.448613e-003
1.592939e+003,-3.318815e-003
1.594868e+003,-3.225026e-003
1.596796e+003,-3.270673e-003
1.598724e+003,-3.396179e-003
1.600653e+003,-3.469124e-003
1.602582e+003,-3.520465e-003
1.604510e+003,-3.633577e-003
1.606438e+003,-3.778752e-003
1.608367e+003,-3.793139e-003
1.610296e+003,-4.089111e-003
1.612224e+003,-4.474452e-003
1.614152e+003,-4.403184e-003
1.616081e+003,-3.881715e-003
1.618010e+003,-4.307234e-003
1.619938e+003,-4.959178e-003
1.621866e+003,-4.779956e-003
1.623795e+003,-4.909941e-003
1.625724e+003,-5.434169e-003
1.627652e+003,-5.595655e-003
1.629580e+003,-5.846990e-003
1.631509e+003,-6.043909e-003
1.633438e+003,-5.582833e-003
1.635366e+003,-4.852768e-003
1.637294e+003,-5.431093e-003
1.639223e+003,-6.163323e-003
1.641151e+003,-6.398137e-003
1.643080e+003,-6.313403e-003
1.645008e+003,-5.620023e-003
1.646937e+003,-5.221489e-003
1.648865e+003,-5.910766e-003
1.650794e+003,-5.535236e-003
1.652722e+003,-3.775993e-003
1.654651e+003,-4.706345e-003
1.656579e+003,-5.912662e-003
1.658508e+003,-5.994696e-003
1.660436e+003,-5.688410e-003
1.662365e+003,-5.226957e-003
1.664293e+003,-5.231343e-003
1.666222e+003,-5.301690e-003
1.668150e+003,-4.666618e-003
1.670079e+003,-4.325475e-003
1.672007e+003,-4.754918e-003
1.673936e+003,-4.599807e-003
1.675864e+003,-4.562267e-003
1.677793e+003,-5.236058e-003
1.679721e+003,-5.373694e-003
1.681650e+003,-5.089469e-003
1.683578e+003,-4.233543e-003
1.685507e+003,-4.848574e-003
1.687435e+003,-5.929429e-003
1.689364e+003,-6.262228e-003
1.691292e+003,-6.500709e-003
1.693221e+003,-6.356507e-003
1.695149e+003,-5.617112e-003
1.697078e+003,-5.730268e-003
1.699006e+003,-5.301265e-003
1.700935e+003,-5.222766e-003
1.702863e+003,-6.366661e-003
1.704792e+003,-6.410282e-003
1.706720e+003,-6.671294e-003
1.708649e+003,-7.065632e-003
1.710577e+003,-7.374140e-003
1.712506e+003,-7.264442e-003
1.714434e+003,-6.760134e-003
1.716363e+003,-6.210263e-003
1.718291e+003,-6.411392e-003
1.720220e+003,-7.273501e-003
1.722148e+003,-7.632165e-003
1.724077e+003,-7.774414e-003
1.726005e+003,-7.831530e-003
1.727934e+003,-7.646652e-003
1.729862e+003,-7.445118e-003
1.731791e+003,-7.062209e-003
1.733719e+003,-6.387330e-003
1.735648e+003,-7.069739e-003
1.737576e+003,-7.602146e-003
1.739505e+003,-7.370557e-003
1.741433e+003,-7.596057e-003
1.743362e+003,-7.528686e-003
1.745290e+003,-7.498987e-003
1.747219e+003,-7.267277e-003
1.749147e+003,-6.901626e-003
1.751076e+003,-6.698734e-003
1.753004e+003,-7.114398e-003
1.754933e+003,-7.241111e-003
1.756861e+003,-7.051418e-003
1.758790e+003,-7.225013e-003
1.760718e+003,-7.127077e-003
1.762647e+003,-7.077791e-003
1.764575e+003,-7.360067e-003
1.766504e+003,-7.180268e-003
1.768432e+003,-6.926019e-003
1.770361e+003,-6.749433e-003
1.772289e+003,-6.458338e-003
1.774218e+003,-6.870840e-003
1.776146e+003,-7.241502e-003
1.778075e+003,-7.266267e-003
1.780003e+003,-7.158823e-003
1.781932e+003,-7.255351e-003
1.783860e+003,-7.287186e-003
1.785789e+003,-7.243718e-003
1.787717e+003,-7.247889e-003
1.789646e+003,-7.050473e-003
1.791574e+003,-6.715341e-003
1.793503e+003,-6.804041e-003
1.795431e+003,-7.156998e-003
1.797360e+003,-7.180562e-003
1.799288e+003,-7.069576e-003
1.801217e+003,-7.134672e-003
1.803145e+003,-7.391503e-003
1.805074e+003,-7.351434e-003
1.807002e+003,-7.327097e-003
1.808931e+003,-7.356060e-003
1.810859e+003,-7.329378e-003
1.812788e+003,-7.436031e-003
1.814716e+003,-7.562064e-003
1.816645e+003,-7.523053e-003
1.818573e+003,-7.516474e-003
1.820502e+003,-7.565743e-003
1.822430e+003,-7.491431e-003
1.824359e+003,-7.267179e-003
1.826287e+003,-7.331007e-003
1.828216e+003,-7.269069e-003
1.830144e+003,-7.200279e-003
1.832073e+003,-7.686140e-003
1.834001e+003,-7.809726e-003
1.835930e+003,-7.675561e-003
1.837858e+003,-7.747466e-003
1.839787e+003,-7.847084e-003
1.841715e+003,-7.731354e-003
1.843644e+003,-7.273240e-003
1.845572e+003,-7.376714e-003
1.847501e+003,-7.771973e-003
1.849429e+003,-7.889451e-003
1.851358e+003,-7.799540e-003
1.853286e+003,-7.722338e-003
1.855215e+003,-7.655312e-003
1.857143e+003,-7.592280e-003
1.859072e+003,-7.681062e-003
1.861000e+003,-7.677644e-003
1.862929e+003,-7.677449e-003
1.864857e+003,-7.616797e-003
1.866786e+003,-7.482572e-003
1.868714e+003,-7.323775e-003
1.870643e+003,-7.494785e-003
1.872571e+003,-7.655279e-003
1.874500e+003,-7.597458e-003
1.876428e+003,-7.527221e-003
1.878357e+003,-7.495502e-003
1.880285e+003,-7.592639e-003
1.882214e+003,-7.647010e-003
1.884142e+003,-7.592574e-003
1.886071e+003,-7.542005e-003
1.887999e+003,-7.400428e-003
1.889928e+003,-7.367006e-003
1.891856e+003,-7.545848e-003
1.893785e+003,-7.557180e-003
1.895713e+003,-7.562585e-003
1.897642e+003,-7.601430e-003
1.899570e+003,-7.483387e-003
1.901499e+003,-7.369481e-003
1.903427e+003,-7.450329e-003
1.905356e+003,-7.460686e-003
1.907284e+003,-7.418572e-003
1.909213e+003,-7.463292e-003
1.911141e+003,-7.551025e-003
1.913070e+003,-7.525170e-003
1.914998e+003,-7.405086e-003
1.916927e+003,-7.192522e-003
1.918855e+003,-7.184733e-003
1.920784e+003,-7.373912e-003
1.922712e+003,-7.426096e-003
1.924641e+003,-7.530478e-003
1.926569e+003,-7.527221e-003
1.928498e+003,-7.594104e-003
1.930426e+003,-7.623830e-003
1.932355e+003,-7.659283e-003
1.934283e+003,-7.692000e-003
1.936212e+003,-7.683959e-003
1.938140e+003,-7.792673e-003
1.940069e+003,-7.834490e-003
1.941997e+003,-7.637016e-003
1.943926e+003,-7.669440e-003
1.945854e+003,-7.828113e-003
1.947783e+003,-7.879721e-003
1.949711e+003,-7.901326e-003
1.951640e+003,-7.945476e-003
1.953568e+003,-7.927225e-003
1.955497e+003,-7.933927e-003
1.957425e+003,-7.920847e-003
1.959354e+003,-7.872986e-003
1.961282e+003,-7.888181e-003
1.963211e+003,-7.898430e-003
1.965139e+003,-7.918766e-003
1.967068e+003,-7.950649e-003
1.968996e+003,-8.106259e-003
1.970925e+003,-8.120861e-003
1.972853e+003,-7.980220e-003
1.974782e+003,-7.934284e-003
1.976710e+003,-7.989979e-003
1.978639e+003,-7.962328e-003
1.980567e+003,-7.968249e-003
1.982496e+003,-8.007318e-003
1.984424e+003,-7.960344e-003
1.986353e+003,-7.883561e-003
1.988281e+003,-7.919677e-003
1.990210e+003,-7.917496e-003
1.992138e+003,-7.757132e-003
1.994067e+003,-7.744634e-003
1.995995e+003,-7.846596e-003
1.997924e+003,-7.871489e-003
1.999852e+003,-7.832050e-003
2.001781e+003,-7.813826e-003
2.003709e+003,-7.742193e-003
2.005638e+003,-7.731907e-003
2.007566e+003,-7.706941e-003
2.009495e+003,-7.675007e-003
2.011423e+003,-7.742453e-003
2.013352e+003,-7.772787e-003
2.015280e+003,-7.727122e-003
2.017208e+003,-7.697925e-003
2.019137e+003,-7.698054e-003
2.021066e+003,-7.798075e-003
2.022994e+003,-7.875166e-003
2.024922e+003,-7.874613e-003
2.026851e+003,-7.855447e-003
2.028780e+003,-7.815779e-003
2.030708e+003,-7.835239e-003
2.032636e+003,-7.799344e-003
2.034565e+003,-7.788963e-003
2.036494e+003,-7.844546e-003
2.038422e+003,-7.862053e-003
2.040350e+003,-7.844644e-003
2.042279e+003,-7.817048e-003
2.044208e+003,-7.877802e-003
2.046136e+003,-7.923613e-003
2.048064e+003,-7.954422e-003
2.049993e+003,-7.903408e-003
2.051921e+003,-7.830195e-003
2.053850e+003,-7.813175e-003
2.055778e+003,-7.871359e-003
2.057707e+003,-7.890654e-003
2.059635e+003,-7.911217e-003
2.061564e+003,-7.986857e-003
2.063492e+003,-8.028266e-003
2.065421e+003,-7.946225e-003
2.067349e+003,-7.832538e-003
2.069278e+003,-7.874190e-003
2.071206e+003,-7.819293e-003
2.073135e+003,-7.794463e-003
2.075063e+003,-7.832538e-003
2.076992e+003,-7.780110e-003
2.078920e+003,-7.742909e-003
2.080849e+003,-7.785155e-003
2.082777e+003,-7.835044e-003
2.084706e+003,-7.838916e-003
2.086634e+003,-7.853657e-003
2.088563e+003,-7.887465e-003
2.090491e+003,-7.885839e-003
2.092420e+003,-7.858636e-003
2.094348e+003,-7.788930e-003
2.096277e+003,-7.776270e-003
2.098205e+003,-7.783235e-003
2.100134e+003,-7.767710e-003
2.102062e+003,-7.703165e-003
2.103991e+003,-7.710457e-003
2.105919e+003,-7.714461e-003
2.107848e+003,-7.637830e-003
2.109776e+003,-7.630146e-003
2.111705e+003,-7.670613e-003
2.113633e+003,-7.638578e-003
2.115562e+003,-7.543894e-003
2.117490e+003,-7.498368e-003
2.119419e+003,-7.464074e-003
2.121347e+003,-7.478306e-003
2.123276e+003,-7.490259e-003
2.125204e+003,-7.503025e-003
2.127133e+003,-7.497814e-003
2.129061e+003,-7.371436e-003
2.130990e+003,-7.332147e-003
2.132918e+003,-7.497098e-003
2.134847e+003,-7.574372e-003
2.136775e+003,-7.504002e-003
2.138704e+003,-7.429093e-003
2.140632e+003,-7.418930e-003
2.142561e+003,-7.489444e-003
2.144489e+003,-7.568153e-003
2.146418e+003,-7.631448e-003
2.148346e+003,-7.581243e-003
2.150275e+003,-7.496675e-003
2.152203e+003,-7.495730e-003
2.154132e+003,-7.572256e-003
2.156060e+003,-7.588015e-003
2.157989e+003,-7.574079e-003
2.159917e+003,-7.632067e-003
2.161846e+003,-7.679337e-003
2.163774e+003,-7.652349e-003
2.165703e+003,-7.601853e-003
2.167631e+003,-7.573526e-003
2.169560e+003,-7.504784e-003
2.171488e+003,-7.535395e-003
2.173417e+003,-7.636234e-003
2.175345e+003,-7.652480e-003
2.177274e+003,-7.621193e-003
2.179202e+003,-7.608528e-003
2.181131e+003,-7.678555e-003
2.183059e+003,-7.696297e-003
2.184988e+003,-7.658177e-003
2.186916e+003,-7.626988e-003
2.188845e+003,-7.671785e-003
2.190773e+003,-7.736953e-003
2.192702e+003,-7.692391e-003
2.194630e+003,-7.606997e-003
2.196559e+003,-7.549657e-003
2.198487e+003,-7.500126e-003
2.200416e+003,-7.502178e-003
2.202344e+003,-7.558873e-003
2.204273e+003,-7.576717e-003
2.206201e+003,-7.546857e-003
2.208130e+003,-7.477231e-003
2.210058e+003,-7.448896e-003
2.211987e+003,-7.418963e-003
2.213915e+003,-7.311427e-003
2.215844e+003,-7.220646e-003
2.217772e+003,-7.292464e-003
2.219701e+003,-7.325273e-003
2.221629e+003,-7.371990e-003
2.223558e+003,-7.430265e-003
2.225486e+003,-7.321917e-003
2.227415e+003,-7.249095e-003
2.229343e+003,-7.202853e-003
2.231272e+003,-7.264312e-003
2.233200e+003,-7.314326e-003
2.235129e+003,-7.257404e-003
2.237057e+003,-7.286827e-003
2.238986e+003,-7.309895e-003
2.240914e+003,-7.285133e-003
2.242843e+003,-7.200898e-003
2.244771e+003,-7.182810e-003
2.246700e+003,-7.273240e-003
2.248628e+003,-7.330518e-003
2.250557e+003,-7.420233e-003
2.252485e+003,-7.406650e-003
2.254414e+003,-7.339869e-003
2.256342e+003,-7.274999e-003
2.258271e+003,-7.266919e-003
2.260199e+003,-7.350359e-003
2.262128e+003,-7.379222e-003
2.264056e+003,-7.468243e-003
2.265985e+003,-7.502797e-003
2.267913e+003,-7.488174e-003
2.269842e+003,-7.435705e-003
2.271770e+003,-7.413458e-003
2.273699e+003,-7.472932e-003
2.275627e+003,-7.522108e-003
2.277556e+003,-7.510222e-003
2.279484e+003,-7.510711e-003
2.281413e+003,-7.532562e-003
2.283341e+003,-7.624221e-003
2.285270e+003,-7.659381e-003
2.287198e+003,-7.643885e-003
2.289127e+003,-7.603839e-003
2.291055e+003,-7.668789e-003
2.292984e+003,-7.785871e-003
2.294912e+003,-7.877281e-003
2.296841e+003,-7.792445e-003
2.298769e+003,-7.676733e-003
2.300698e+003,-7.651242e-003
2.302626e+003,-7.620607e-003
2.304555e+003,-7.668757e-003
2.306483e+003,-7.649550e-003
2.308412e+003,-7.551742e-003
2.310340e+003,-7.463618e-003
2.312269e+003,-7.375150e-003
2.314197e+003,-7.316086e-003
2.316125e+003,-7.161887e-003
2.318054e+003,-7.048191e-003
2.319983e+003,-7.059959e-003
2.321911e+003,-6.915584e-003
2.323840e+003,-6.699942e-003
2.325768e+003,-6.606651e-003
2.327697e+003,-6.471755e-003
2.329625e+003,-6.199125e-003
2.331553e+003,-6.107361e-003
2.333482e+003,-6.209186e-003
2.335411e+003,-6.262979e-003
2.337339e+003,-6.212779e-003
2.339268e+003,-6.145650e-003
2.341196e+003,-6.183315e-003
2.343125e+003,-6.309517e-003
2.345053e+003,-6.527801e-003
2.346981e+003,-6.822471e-003
2.348910e+003,-7.078671e-003
2.350839e+003,-6.964953e-003
2.352767e+003,-6.477957e-003
2.354696e+003,-6.080112e-003
2.356624e+003,-5.838752e-003
2.358552e+003,-5.791314e-003
2.360481e+003,-5.874352e-003
2.362409e+003,-5.847186e-003
2.364338e+003,-5.836987e-003
2.366267e+003,-5.984467e-003
2.368195e+003,-6.208010e-003
2.370124e+003,-6.414102e-003
2.372052e+003,-6.686271e-003
2.373980e+003,-6.825341e-003
2.375909e+003,-6.991690e-003
2.377838e+003,-7.240655e-003
2.379766e+003,-7.542592e-003
2.381695e+003,-7.685066e-003
2.383623e+003,-7.619207e-003
2.385552e+003,-7.617156e-003
2.387480e+003,-7.615788e-003
2.389408e+003,-7.548030e-003
2.391337e+003,-7.545262e-003
2.393266e+003,-7.577270e-003
2.395194e+003,-7.547704e-003
2.397123e+003,-7.554477e-003
2.399051e+003,-7.516377e-003
2.400979e+003,-7.563888e-003
2.402908e+003,-7.650884e-003
2.404836e+003,-7.674193e-003
2.406765e+003,-7.669213e-003
2.408694e+003,-7.687312e-003
2.410622e+003,-7.627835e-003
2.412551e+003,-7.565971e-003
2.414479e+003,-7.504653e-003
2.416407e+003,-7.431340e-003
2.418336e+003,-7.410982e-003
2.420264e+003,-7.469187e-003
2.422193e+003,-7.566525e-003
2.424122e+003,-7.524453e-003
2.426050e+003,-7.395607e-003
2.427979e+003,-7.372707e-003
2.429907e+003,-7.350717e-003
2.431835e+003,-7.315336e-003
2.433764e+003,-7.285003e-003
2.435692e+003,-7.222830e-003
2.437621e+003,-7.172968e-003
2.439550e+003,-7.266853e-003
2.441478e+003,-7.330453e-003
2.443406e+003,-7.265550e-003
2.445335e+003,-7.220125e-003
2.447263e+003,-7.226121e-003
2.449192e+003,-7.208263e-003
2.451121e+003,-7.256329e-003
2.453049e+003,-7.204450e-003
2.454978e+003,-7.069218e-003
2.456906e+003,-7.043953e-003
2.458834e+003,-7.031629e-003
2.460763e+003,-7.021946e-003
2.462691e+003,-7.116386e-003
2.464620e+003,-7.112051e-003
2.466549e+003,-7.006818e-003
2.468477e+003,-7.000004e-003
2.470406e+003,-7.026739e-003
2.472334e+003,-7.027521e-003
2.474262e+003,-6.996320e-003
2.476191e+003,-7.012883e-003
2.478119e+003,-7.013241e-003
2.480048e+003,-7.048484e-003
2.481977e+003,-6.985169e-003
2.483905e+003,-6.904789e-003
2.485833e+003,-6.981615e-003
2.487762e+003,-7.072641e-003
2.489690e+003,-7.115441e-003
2.491619e+003,-7.093079e-003
2.493547e+003,-7.024978e-003
2.495476e+003,-6.958497e-003
2.497405e+003,-6.989245e-003
2.499333e+003,-7.113583e-003
2.501261e+003,-7.184636e-003
2.503190e+003,-7.157813e-003
2.505118e+003,-7.092558e-003
2.507047e+003,-7.122155e-003
2.508975e+003,-7.188546e-003
2.510904e+003,-7.241046e-003
2.512833e+003,-7.210055e-003
2.514761e+003,-7.216964e-003
2.516689e+003,-7.213705e-003
2.518618e+003,-7.127208e-003
2.520546e+003,-7.057580e-003
2.522475e+003,-7.048843e-003
2.524403e+003,-7.062600e-003
2.526332e+003,-7.139756e-003
2.528260e+003,-7.163060e-003
2.530189e+003,-7.133368e-003
2.532117e+003,-7.127501e-003
2.534046e+003,-7.167362e-003
2.535974e+003,-7.144808e-003
2.537903e+003,-7.134118e-003
2.539831e+003,-7.051548e-003
2.541760e+003,-7.024000e-003
2.543688e+003,-6.958236e-003
2.545617e+003,-6.903094e-003
2.547545e+003,-6.888222e-003
2.549474e+003,-6.916790e-003
2.551402e+003,-6.973268e-003
2.553331e+003,-6.905702e-003
2.555259e+003,-6.880982e-003
2.557188e+003,-6.859164e-003
2.559116e+003,-6.843215e-003
2.561045e+003,-6.821101e-003
2.562973e+003,-6.799507e-003
2.564902e+003,-6.696614e-003
2.566830e+003,-6.607141e-003
2.568759e+003,-6.670837e-003
2.570687e+003,-6.727575e-003
2.572616e+003,-6.649791e-003
2.574544e+003,-6.592684e-003
2.576473e+003,-6.605574e-003
2.578401e+003,-6.612036e-003
2.580330e+003,-6.731132e-003
2.582258e+003,-6.805900e-003
2.584187e+003,-6.678538e-003
2.586115e+003,-6.623066e-003
2.588044e+003,-6.701573e-003
2.589972e+003,-6.656970e-003
2.591901e+003,-6.563964e-003
2.593829e+003,-6.597514e-003
2.595758e+003,-6.670055e-003
2.597686e+003,-6.671099e-003
2.599615e+003,-6.664344e-003
2.601543e+003,-6.647311e-003
2.603472e+003,-6.677722e-003
2.605400e+003,-6.672371e-003
2.607329e+003,-6.555283e-003
2.609257e+003,-6.458501e-003
2.611186e+003,-6.439501e-003
2.613114e+003,-6.456967e-003
2.615043e+003,-6.444398e-003
2.616971e+003,-6.450079e-003
2.618900e+003,-6.472212e-003
2.620828e+003,-6.455922e-003
2.622757e+003,-6.310758e-003
2.624685e+003,-6.250666e-003
2.626614e+003,-6.306447e-003
2.628542e+003,-6.260889e-003
2.630471e+003,-6.228065e-003
2.632399e+003,-6.236949e-003
2.634328e+003,-6.229241e-003
2.636256e+003,-6.210198e-003
2.638185e+003,-6.073120e-003
2.640113e+003,-6.022146e-003
2.642042e+003,-6.164696e-003
2.643970e+003,-6.059266e-003
2.645899e+003,-5.887035e-003
2.647827e+003,-5.837673e-003
2.649756e+003,-5.861505e-003
2.651684e+003,-5.732557e-003
2.653613e+003,-5.681248e-003
2.655541e+003,-5.733178e-003
2.657470e+003,-5.775261e-003
2.659398e+003,-5.666891e-003
2.661327e+003,-5.531768e-003
2.663255e+003,-5.496238e-003
2.665184e+003,-5.423469e-003
2.667112e+003,-5.256976e-003
2.669041e+003,-5.180598e-003
2.670969e+003,-5.174311e-003
2.672898e+003,-5.223454e-003
2.674826e+003,-5.202042e-003
2.676755e+003,-5.204269e-003
2.678683e+003,-5.195986e-003
2.680612e+003,-5.130271e-003
2.682540e+003,-5.105450e-003
2.684469e+003,-5.043685e-003
2.686397e+003,-4.846804e-003
2.688326e+003,-4.654260e-003
2.690254e+003,-4.547315e-003
2.692183e+003,-4.608430e-003
2.694111e+003,-4.639672e-003
2.696040e+003,-4.592759e-003
2.697968e+003,-4.486816e-003
2.699897e+003,-4.360575e-003
2.701825e+003,-4.399674e-003
2.703754e+003,-4.354277e-003
2.705682e+003,-4.227440e-003
2.707611e+003,-4.192624e-003
2.709539e+003,-4.175658e-003
2.711468e+003,-4.115664e-003
2.713396e+003,-4.021949e-003
2.715325e+003,-3.906114e-003
2.717253e+003,-3.881551e-003
2.719182e+003,-3.853538e-003
2.721110e+003,-3.775369e-003
2.723039e+003,-3.626249e-003
2.724967e+003,-3.499824e-003
2.726896e+003,-3.480300e-003
2.728824e+003,-3.454628e-003
2.730753e+003,-3.355016e-003
2.732681e+003,-3.265477e-003
2.734610e+003,-3.149375e-003
2.736538e+003,-3.039493e-003
2.738467e+003,-2.892260e-003
2.740395e+003,-2.858983e-003
2.742324e+003,-2.851214e-003
2.744252e+003,-2.768782e-003
2.746181e+003,-2.683205e-003
2.748109e+003,-2.565992e-003
2.750038e+003,-2.455369e-003
2.751966e+003,-2.339181e-003
2.753895e+003,-2.205458e-003
2.755823e+003,-2.026448e-003
2.757752e+003,-1.883292e-003
2.759680e+003,-1.717647e-003
2.761609e+003,-1.468500e-003
2.763537e+003,-1.188547e-003
2.765466e+003,-9.415757e-004
2.767394e+003,-6.128454e-004
2.769323e+003,-2.024349e-004
2.771251e+003,2.347187e-004
2.773180e+003,6.079379e-004
2.775108e+003,1.130944e-003
2.777037e+003,1.723469e-003
2.778965e+003,2.158271e-003
2.780894e+003,2.783279e-003
2.782822e+003,3.683615e-003
2.784750e+003,4.499170e-003
2.786679e+003,5.239588e-003
2.788608e+003,5.956949e-003
2.790536e+003,6.748350e-003
2.792465e+003,7.532228e-003
2.794393e+003,8.229988e-003
2.796322e+003,9.024396e-003
2.798250e+003,9.792909e-003
2.800178e+003,1.036595e-002
2.802107e+003,1.088400e-002
2.804036e+003,1.142566e-002
2.805964e+003,1.190148e-002
2.807893e+003,1.227703e-002
2.809821e+003,1.244830e-002
2.811750e+003,1.249004e-002
2.813678e+003,1.248557e-002
2.815606e+003,1.250617e-002
2.817535e+003,1.226592e-002
2.819464e+003,1.203564e-002
2.821392e+003,1.175759e-002
2.823321e+003,1.134566e-002
2.825249e+003,1.094611e-002
2.827177e+003,1.045799e-002
2.829106e+003,9.929607e-003
2.831034e+003,9.321149e-003
2.832963e+003,8.743835e-003
2.834892e+003,8.365081e-003
2.836820e+003,7.881204e-003
2.838749e+003,7.268431e-003
2.840677e+003,6.666985e-003
2.842605e+003,6.248388e-003
2.844534e+003,5.811220e-003
2.846462e+003,5.222049e-003
2.848391e+003,4.685956e-003
2.850320e+003,4.336626e-003
2.852248e+003,4.140389e-003
2.854177e+003,3.939292e-003
2.856105e+003,3.796076e-003
2.858033e+003,3.674426e-003
2.859962e+003,3.650033e-003
2.861890e+003,3.529026e-003
2.863819e+003,3.314356e-003
2.865748e+003,3.278933e-003
2.867676e+003,3.309715e-003
2.869604e+003,3.475382e-003
2.871533e+003,3.655814e-003
2.873461e+003,3.760379e-003
2.875390e+003,3.818003e-003
2.877319e+003,3.969151e-003
2.879247e+003,4.222720e-003
2.881176e+003,4.254741e-003
2.883104e+003,4.199468e-003
2.885032e+003,4.334551e-003
2.886961e+003,4.292419e-003
2.888889e+003,4.302257e-003
2.890818e+003,4.248316e-003
2.892747e+003,4.038808e-003
2.894675e+003,3.872291e-003
2.896604e+003,3.829669e-003
2.898532e+003,3.881284e-003
2.900460e+003,3.943338e-003
2.902389e+003,3.959755e-003
2.904317e+003,3.872124e-003
2.906246e+003,3.901812e-003
2.908175e+003,3.955408e-003
2.910103e+003,4.058173e-003
2.912031e+003,4.118043e-003
2.913960e+003,4.137545e-003
2.915888e+003,4.191673e-003
2.917817e+003,4.346565e-003
2.919745e+003,4.673162e-003
2.921674e+003,4.942190e-003
2.923603e+003,5.286306e-003
2.925531e+003,5.531048e-003
2.927459e+003,5.710591e-003
2.929388e+003,5.904751e-003
2.931316e+003,6.096242e-003
2.933245e+003,6.263413e-003
2.935173e+003,6.285566e-003
2.937102e+003,6.233362e-003
2.939031e+003,6.163890e-003
2.940959e+003,5.860518e-003
2.942887e+003,5.439073e-003
2.944816e+003,5.090746e-003
2.946744e+003,4.784338e-003
2.948673e+003,4.369324e-003
2.950601e+003,3.708411e-003
2.952530e+003,2.939305e-003
2.954458e+003,2.274667e-003
2.956387e+003,1.701847e-003
2.958315e+003,1.104535e-003
2.960244e+003,3.098475e-004
2.962172e+003,-4.927549e-004
2.964101e+003,-1.138252e-003
2.966029e+003,-1.676721e-003
2.967958e+003,-2.286745e-003
2.969886e+003,-2.821456e-003
2.971815e+003,-3.245121e-003
2.973743e+003,-3.656938e-003
2.975672e+003,-3.977234e-003
2.977600e+003,-4.235906e-003
2.979529e+003,-4.471632e-003
2.981457e+003,-4.674649e-003
2.983386e+003,-4.956328e-003
2.985314e+003,-5.239364e-003
2.987243e+003,-5.342472e-003
2.989171e+003,-5.327548e-003
2.991100e+003,-5.591828e-003
2.993028e+003,-5.759697e-003
2.994957e+003,-5.655739e-003
2.996885e+003,-5.706887e-003
2.998814e+003,-5.798344e-003
3.000742e+003,-5.821131e-003
3.002671e+003,-5.818581e-003
3.004599e+003,-5.827375e-003
3.006528e+003,-5.783598e-003
3.008456e+003,-5.891677e-003
3.010385e+003,-5.979565e-003
3.012313e+003,-5.910210e-003
3.014242e+003,-5.882132e-003
3.016170e+003,-5.898149e-003
3.018099e+003,-5.840191e-003
3.020027e+003,-5.840452e-003
3.021956e+003,-5.895828e-003
3.023884e+003,-5.941065e-003
3.025813e+003,-5.901940e-003
3.027741e+003,-6.035837e-003
3.029670e+003,-6.139737e-003
3.031598e+003,-5.984924e-003
3.033527e+003,-5.998519e-003
3.035455e+003,-6.020022e-003
3.037384e+003,-5.937273e-003
3.039312e+003,-5.878046e-003
3.041241e+003,-6.000447e-003
3.043169e+003,-6.162148e-003
3.045098e+003,-6.120625e-003
3.047026e+003,-6.062697e-003
3.048955e+003,-6.104976e-003
3.050883e+003,-6.119057e-003
3.052812e+003,-6.013159e-003
3.054740e+003,-5.984107e-003
3.056669e+003,-5.971557e-003
3.058597e+003,-6.037374e-003
3.060526e+003,-6.181126e-003
3.062454e+003,-6.162833e-003
3.064383e+003,-6.088215e-003
3.066311e+003,-6.076224e-003
3.068240e+003,-6.031655e-003
3.070168e+003,-5.968061e-003
3.072097e+003,-6.073251e-003
3.074025e+003,-6.148002e-003
3.075954e+003,-6.155287e-003
3.077882e+003,-6.119057e-003
3.079811e+003,-6.043190e-003
3.081739e+003,-5.980905e-003
3.083668e+003,-5.982735e-003
3.085596e+003,-6.086777e-003
3.087525e+003,-6.161984e-003
3.089453e+003,-6.155287e-003
3.091382e+003,-6.088836e-003
3.093310e+003,-5.936358e-003
3.095239e+003,-5.911648e-003
3.097167e+003,-5.992735e-003
3.099096e+003,-5.935084e-003
3.101024e+003,-5.863466e-003
3.102953e+003,-5.833947e-003
3.104881e+003,-5.788339e-003
3.106810e+003,-5.700347e-003
3.108738e+003,-5.683898e-003
3.110667e+003,-5.694428e-003
3.112595e+003,-5.682230e-003
3.114524e+003,-5.668723e-003
3.116452e+003,-5.734911e-003
3.118381e+003,-5.662967e-003
3.120309e+003,-5.601641e-003
3.122238e+003,-5.540208e-003
3.124166e+003,-5.506086e-003
3.126095e+003,-5.492967e-003
3.128023e+003,-5.509587e-003
3.129952e+003,-5.462800e-003
3.131880e+003,-5.405536e-003
3.133809e+003,-5.369440e-003
3.135737e+003,-5.269186e-003
3.137666e+003,-5.150049e-003
3.139594e+003,-5.194120e-003
3.141523e+003,-5.230951e-003
3.143451e+003,-5.127947e-003
3.145380e+003,-5.143566e-003
3.147308e+003,-5.250331e-003
3.149237e+003,-5.168516e-003
3.151165e+003,-5.025475e-003
3.153094e+003,-4.936313e-003
3.155022e+003,-4.784610e-003
3.156951e+003,-4.752722e-003
3.158879e+003,-4.739187e-003
3.160808e+003,-4.684253e-003
3.162736e+003,-4.627641e-003
3.164665e+003,-4.646196e-003
3.166593e+003,-4.641213e-003
3.168522e+003,-4.631214e-003
3.170450e+003,-4.512164e-003
3.172379e+003,-4.441558e-003
3.174307e+003,-4.474747e-003
3.176236e+003,-4.363659e-003
3.178164e+003,-4.191147e-003
3.180093e+003,-4.194035e-003
3.182021e+003,-4.237743e-003
3.183950e+003,-4.150224e-003
3.185878e+003,-4.129318e-003
3.187807e+003,-4.006716e-003
3.189735e+003,-3.965841e-003
3.191664e+003,-4.120194e-003
3.193592e+003,-4.125314e-003
3.195521e+003,-4.138803e-003
3.197449e+003,-4.159249e-003
3.199378e+003,-4.201517e-003
3.201306e+003,-4.348930e-003
3.203235e+003,-4.314091e-003
3.205163e+003,-4.247226e-003
3.207092e+003,-4.240270e-003
3.209020e+003,-4.108903e-003
3.210948e+003,-4.027661e-003
3.212877e+003,-4.081496e-003
3.214806e+003,-4.029598e-003
3.216734e+003,-3.943777e-003
3.218663e+003,-3.913831e-003
3.220591e+003,-3.844802e-003
3.222520e+003,-3.751554e-003
3.224448e+003,-3.720084e-003
3.226376e+003,-3.815047e-003
3.228305e+003,-3.681941e-003
3.230234e+003,-3.419816e-003
3.232162e+003,-3.359126e-003
3.234091e+003,-3.380563e-003
3.236019e+003,-3.520202e-003
3.237948e+003,-3.700832e-003
3.239876e+003,-3.521714e-003
3.241804e+003,-3.170920e-003
3.243733e+003,-3.014387e-003
3.245662e+003,-2.892589e-003
3.247590e+003,-2.707968e-003
3.249519e+003,-2.829949e-003
3.251447e+003,-2.811975e-003
3.253375e+003,-2.784190e-003
3.255304e+003,-2.735232e-003
3.257232e+003,-2.555945e-003
3.259161e+003,-2.395664e-003
3.261090e+003,-2.299764e-003
3.263018e+003,-2.377574e-003
3.264947e+003,-2.429669e-003
3.266875e+003,-2.419752e-003
3.268803e+003,-2.337731e-003
3.270732e+003,-2.226754e-003
3.272660e+003,-2.223556e-003
3.274589e+003,-2.239676e-003
3.276518e+003,-2.225501e-003
3.278446e+003,-2.231270e-003
3.280375e+003,-2.249334e-003
3.282303e+003,-2.269342e-003
3.284231e+003,-2.201898e-003
3.286160e+003,-2.227215e-003
3.288088e+003,-2.332228e-003
3.290017e+003,-2.452437e-003
3.291946e+003,-2.376486e-003
3.293874e+003,-2.320462e-003
3.295802e+003,-2.388942e-003
3.297731e+003,-2.450065e-003
3.299659e+003,-2.533348e-003
3.301588e+003,-2.747644e-003
3.303516e+003,-2.988885e-003
3.305445e+003,-3.001192e-003
3.307374e+003,-2.859345e-003
3.309302e+003,-2.975525e-003
3.311230e+003,-3.234498e-003
3.313159e+003,-3.349164e-003
3.315087e+003,-3.432275e-003
3.317016e+003,-3.387335e-003
3.318944e+003,-3.476356e-003
3.320873e+003,-3.697152e-003
3.322802e+003,-3.860665e-003
3.324730e+003,-3.839876e-003
3.326658e+003,-3.778029e-003
3.328587e+003,-3.911105e-003
3.330515e+003,-4.074898e-003
3.332444e+003,-4.090063e-003
3.334372e+003,-4.051724e-003
3.336301e+003,-3.885656e-003
3.338229e+003,-3.840073e-003
3.340158e+003,-3.857578e-003
3.342086e+003,-3.782858e-003
3.344015e+003,-3.807821e-003
3.345943e+003,-3.733322e-003
3.347872e+003,-3.820006e-003
3.349800e+003,-3.892880e-003
3.351729e+003,-3.746824e-003
3.353657e+003,-3.747908e-003
3.355586e+003,-3.845262e-003
3.357514e+003,-3.737429e-003
3.359443e+003,-3.766434e-003
3.361371e+003,-3.955728e-003
3.363300e+003,-4.013150e-003
3.365229e+003,-4.065970e-003
3.367157e+003,-4.363954e-003
3.369085e+003,-4.691005e-003
3.371014e+003,-4.779628e-003
3.372942e+003,-4.712901e-003
3.374871e+003,-4.907745e-003
3.376799e+003,-5.001663e-003
3.378728e+003,-5.150147e-003
3.380656e+003,-5.358248e-003
3.382585e+003,-5.584730e-003
3.384513e+003,-5.741353e-003
3.386442e+003,-5.864414e-003
3.388370e+003,-5.987114e-003
3.390299e+003,-6.104976e-003
3.392227e+003,-6.099944e-003
3.394156e+003,-6.190567e-003
3.396084e+003,-6.240542e-003
3.398013e+003,-6.448087e-003
3.399941e+003,-6.559982e-003
3.401870e+003,-6.517454e-003
3.403798e+003,-6.481026e-003
3.405727e+003,-6.420175e-003
3.407655e+003,-6.341192e-003
3.409584e+003,-6.425627e-003
3.411512e+003,-6.570394e-003
3.413441e+003,-6.585798e-003
3.415369e+003,-6.581849e-003
3.417298e+003,-6.491994e-003
3.419226e+003,-6.457881e-003
3.421155e+003,-6.448936e-003
3.423083e+003,-6.494344e-003
3.425012e+003,-6.491798e-003
3.426940e+003,-6.518009e-003
3.428869e+003,-6.534884e-003
3.430797e+003,-6.535863e-003
3.432726e+003,-6.453245e-003
3.434654e+003,-6.380505e-003
3.436583e+003,-6.585308e-003
3.438511e+003,-6.659417e-003
3.440440e+003,-6.481450e-003
3.442368e+003,-6.551040e-003
3.444297e+003,-6.575387e-003
3.446225e+003,-6.386775e-003
3.448154e+003,-6.358335e-003
3.450082e+003,-6.450928e-003
3.452011e+003,-6.495552e-003
3.453939e+003,-6.478839e-003
3.455868e+003,-6.467936e-003
3.457796e+003,-6.502243e-003
3.459725e+003,-6.538572e-003
3.461653e+003,-6.488109e-003
3.463582e+003,-6.476031e-003
3.465510e+003,-6.572384e-003
3.467439e+003,-6.706010e-003
3.469367e+003,-6.686630e-003
3.471296e+003,-6.492549e-003
3.473224e+003,-6.371363e-003
3.475153e+003,-6.521338e-003
3.477081e+003,-6.640230e-003
3.479010e+003,-6.714264e-003
3.480938e+003,-6.765092e-003
3.482867e+003,-6.852380e-003
3.484795e+003,-6.765451e-003
3.486724e+003,-6.704574e-003
3.488652e+003,-6.890244e-003
3.490581e+003,-6.799018e-003
3.492509e+003,-6.666857e-003
3.494438e+003,-6.717364e-003
3.496366e+003,-6.753479e-003
3.498295e+003,-6.783067e-003
3.500223e+003,-6.766528e-003
3.502152e+003,-6.760460e-003
3.504080e+003,-6.821981e-003
3.506009e+003,-6.829972e-003
3.507937e+003,-6.780392e-003
3.509866e+003,-6.799866e-003
3.511794e+003,-6.745094e-003
3.513723e+003,-6.743985e-003
3.515651e+003,-6.816403e-003
3.517580e+003,-6.784502e-003
3.519508e+003,-6.753838e-003
3.521437e+003,-6.767735e-003
3.523365e+003,-6.665030e-003
3.525294e+003,-6.671849e-003
3.527222e+003,-6.709534e-003
3.529151e+003,-6.713547e-003
3.531079e+003,-6.803063e-003
3.533008e+003,-6.776347e-003
3.534936e+003,-6.725618e-003
3.536865e+003,-6.718962e-003
3.538793e+003,-6.923736e-003
3.540722e+003,-7.021457e-003
3.542650e+003,-6.893147e-003
3.544579e+003,-6.627635e-003
3.546507e+003,-6.431242e-003
3.548436e+003,-6.512134e-003
3.550364e+003,-6.611187e-003
3.552293e+003,-6.668945e-003
3.554221e+003,-6.703661e-003
3.556150e+003,-6.729011e-003
3.558078e+003,-6.686825e-003
3.560007e+003,-6.733383e-003
3.561935e+003,-6.789949e-003
3.563864e+003,-6.594805e-003
3.565792e+003,-6.158358e-003
3.567721e+003,-6.181519e-003
3.569649e+003,-6.704574e-003
3.571578e+003,-6.925986e-003
3.573506e+003,-6.754979e-003
3.575435e+003,-6.664214e-003
3.577363e+003,-6.668945e-003
3.579292e+003,-6.657721e-003
3.581220e+003,-6.630245e-003
3.583149e+003,-6.568305e-003
3.585077e+003,-6.320946e-003
3.587006e+003,-6.004173e-003
3.588934e+003,-6.177044e-003
3.590863e+003,-6.606292e-003
3.592791e+003,-6.626003e-003
3.594720e+003,-6.448479e-003
3.596648e+003,-6.329045e-003
3.598577e+003,-6.485432e-003
3.600505e+003,-6.562985e-003
3.602434e+003,-6.525157e-003
3.604362e+003,-6.596992e-003
3.606291e+003,-6.503680e-003
3.608219e+003,-6.110988e-003
3.610148e+003,-6.167864e-003
3.612076e+003,-6.258832e-003
3.614005e+003,-6.295376e-003
3.615933e+003,-6.367641e-003
3.617862e+003,-6.185308e-003
3.619790e+003,-6.320783e-003
3.621719e+003,-6.832223e-003
3.623647e+003,-6.936943e-003
3.625576e+003,-6.562822e-003
3.627504e+003,-5.695605e-003
3.629433e+003,-5.413194e-003
3.631361e+003,-6.382008e-003
3.633290e+003,-6.633932e-003
3.635218e+003,-6.637293e-003
3.637146e+003,-6.561810e-003
3.639075e+003,-6.512362e-003
3.641004e+003,-6.684541e-003
3.642932e+003,-6.715080e-003
3.644861e+003,-6.453997e-003
3.646789e+003,-5.707868e-003
3.648718e+003,-5.204989e-003
3.650646e+003,-5.608314e-003
3.652574e+003,-6.486706e-003
3.654503e+003,-6.454812e-003
3.656432e+003,-6.096350e-003
3.658360e+003,-6.674590e-003
3.660289e+003,-6.996679e-003
3.662217e+003,-7.018230e-003
3.664146e+003,-7.104130e-003
3.666074e+003,-7.112670e-003
3.668002e+003,-6.600516e-003
3.669931e+003,-6.124350e-003
3.671860e+003,-6.486902e-003
3.673788e+003,-6.182760e-003
3.675717e+003,-5.587575e-003
3.677645e+003,-6.334824e-003
3.679573e+003,-6.885712e-003
3.681502e+003,-6.970236e-003
3.683430e+003,-6.881961e-003
3.685359e+003,-6.786851e-003
3.687288e+003,-6.465846e-003
3.689216e+003,-6.249622e-003
3.691145e+003,-6.436335e-003
3.693073e+003,-6.754490e-003
3.695001e+003,-6.918486e-003
3.696930e+003,-6.948845e-003
3.698858e+003,-6.949041e-003
3.700787e+003,-6.659809e-003
3.702716e+003,-6.631844e-003
3.704644e+003,-6.869568e-003
3.706573e+003,-6.751260e-003
3.708501e+003,-6.489284e-003
3.710429e+003,-6.085961e-003
3.712358e+003,-6.094488e-003
3.714286e+003,-6.878373e-003
3.716215e+003,-7.063154e-003
3.718144e+003,-6.789591e-003
3.720072e+003,-6.684084e-003
3.722000e+003,-6.478936e-003
3.723929e+003,-6.485824e-003
3.725857e+003,-6.657590e-003
3.727786e+003,-6.901822e-003
3.729714e+003,-6.782121e-003
3.731643e+003,-6.129512e-003
3.733572e+003,-5.750116e-003
3.735500e+003,-5.510896e-003
3.737428e+003,-5.991656e-003
3.739357e+003,-6.552541e-003
3.741285e+003,-6.440546e-003
3.743214e+003,-5.142485e-003
3.745142e+003,-4.736073e-003
3.747071e+003,-5.717646e-003
3.749000e+003,-5.183217e-003
3.750928e+003,-4.849327e-003
3.752856e+003,-5.300446e-003
3.754785e+003,-6.036033e-003
3.756713e+003,-6.098213e-003
3.758642e+003,-5.867814e-003
3.760570e+003,-5.691681e-003
3.762499e+003,-5.978029e-003
3.764427e+003,-5.882982e-003
3.766356e+003,-5.764896e-003
3.768284e+003,-5.895011e-003
3.770213e+003,-5.748841e-003
3.772141e+003,-5.972375e-003
3.774070e+003,-6.251156e-003
3.775998e+003,-6.159371e-003
3.777927e+003,-5.916649e-003
3.779855e+003,-5.800240e-003
3.781784e+003,-6.119221e-003
3.783712e+003,-6.218985e-003
3.785641e+003,-6.066781e-003
3.787569e+003,-6.092397e-003
3.789498e+003,-6.227117e-003
3.791426e+003,-6.373127e-003
3.793355e+003,-6.269348e-003
3.795283e+003,-5.886218e-003
3.797212e+003,-5.819660e-003
3.799140e+003,-5.641839e-003
3.801069e+003,-4.999567e-003
3.802997e+003,-5.550317e-003
3.804926e+003,-5.895926e-003
3.806854e+003,-5.480697e-003
3.808783e+003,-5.834535e-003
3.810711e+003,-6.003552e-003
3.812640e+003,-5.956524e-003
3.814568e+003,-5.632943e-003
3.816497e+003,-5.253899e-003
3.818425e+003,-5.390385e-003
3.820354e+003,-4.853620e-003
3.822282e+003,-5.040050e-003
3.824211e+003,-6.039726e-003
3.826139e+003,-6.055443e-003
3.828068e+003,-6.007963e-003
3.829996e+003,-5.702113e-003
3.831925e+003,-5.537951e-003
3.833853e+003,-5.570926e-003
3.835782e+003,-5.273180e-003
3.837710e+003,-4.840218e-003
3.839639e+003,-5.241590e-003
3.841567e+003,-5.580052e-003
3.843496e+003,-5.589833e-003
3.845424e+003,-5.812598e-003
3.847353e+003,-6.091450e-003
3.849281e+003,-6.001460e-003
3.851210e+003,-5.038871e-003
3.853138e+003,-3.815539e-003
3.855067e+003,-4.562988e-003
3.856995e+003,-5.612042e-003
3.858924e+003,-5.834666e-003
3.860852e+003,-5.646353e-003
3.862781e+003,-5.405700e-003
3.864709e+003,-5.152374e-003
3.866638e+003,-5.532520e-003
3.868566e+003,-5.327286e-003
3.870495e+003,-5.094938e-003
3.872423e+003,-5.546980e-003
3.874352e+003,-5.564056e-003
3.876280e+003,-5.803215e-003
3.878209e+003,-5.817666e-003
3.880137e+003,-5.633270e-003
3.882066e+003,-5.745669e-003
3.883994e+003,-5.436264e-003
3.885923e+003,-5.073193e-003
3.887851e+003,-5.582964e-003
3.889780e+003,-5.493228e-003
3.891708e+003,-5.370880e-003
3.893637e+003,-5.723564e-003
3.895565e+003,-5.806681e-003
3.897494e+003,-5.605566e-003
3.899422e+003,-5.268335e-003
3.901351e+003,-5.260250e-003
3.903279e+003,-5.312099e-003
3.905208e+003,-5.555388e-003
3.907136e+003,-6.074264e-003
3.909065e+003,-6.228228e-003
3.910993e+003,-6.152674e-003
3.912922e+003,-5.998617e-003
3.914850e+003,-5.650801e-003
3.916779e+003,-5.542236e-003
3.918707e+003,-5.845192e-003
3.920636e+003,-6.098376e-003
3.922564e+003,-5.940640e-003
3.924493e+003,-5.612991e-003
3.926421e+003,-5.729581e-003
3.928350e+003,-6.111837e-003
3.930278e+003,-6.172960e-003
3.932207e+003,-5.937012e-003
3.934135e+003,-5.997604e-003
3.936064e+003,-6.062893e-003
3.937992e+003,-5.952046e-003
3.939921e+003,-5.861963e-003
3.941849e+003,-5.855523e-003
3.943778e+003,-5.981133e-003
3.945706e+003,-5.894782e-003
3.947635e+003,-5.543120e-003
3.949563e+003,-5.603930e-003
3.951492e+003,-5.884256e-003
3.953420e+003,-6.041589e-003
3.955349e+003,-6.168223e-003
3.957277e+003,-6.108113e-003
3.959206e+003,-6.121083e-003
3.961134e+003,-6.119613e-003
3.963063e+003,-5.860916e-003
3.964991e+003,-5.888048e-003
3.966920e+003,-5.948418e-003
3.968848e+003,-5.725854e-003
3.970777e+003,-5.637522e-003
3.972705e+003,-5.799226e-003
3.974634e+003,-5.994434e-003
3.976562e+003,-6.137679e-003
3.978491e+003,-6.018257e-003
3.980419e+003,-5.987081e-003
3.982348e+003,-5.981297e-003
3.984276e+003,-5.888408e-003
3.986205e+003,-5.964204e-003
3.988133e+003,-5.952308e-003
3.990062e+003,-5.915832e-003
3.991990e+003,-5.962603e-003
3.993919e+003,-6.118502e-003
3.995847e+003,-6.223688e-003
3.997776e+003,-6.103669e-003
3.999704e+003,-6.004336e-003
4.001633e+003,0.000000e+000
