3.991989e+002,-2.070407e-002
4.011274e+002,-2.095057e-002
4.030559e+002,-2.777989e-002
4.049844e+002,-3.280576e-002
4.069129e+002,-3.078939e-002
4.088414e+002,-2.086140e-002
4.107699e+002,-2.197979e-002
4.126984e+002,-2.387406e-002
4.146269e+002,-1.760930e-002
4.165554e+002,-1.015585e-002
4.184839e+002,-1.077930e-002
4.204124e+002,-7.617579e-003
4.223409e+002,-3.514713e-003
4.242694e+002,-5.576585e-003
4.261979e+002,-1.287010e-002
4.281264e+002,-6.801138e-003
4.300549e+002,-2.427528e-003
4.319834e+002,-4.208704e-003
4.339119e+002,-2.664797e-003
4.358404e+002,8.731697e-005
4.377689e+002,2.057986e-003
4.396974e+002,-4.715031e-003
4.416259e+002,-1.329266e-002
4.435544e+002,-1.059826e-002
4.454829e+002,-7.529761e-003
4.474114e+002,-5.868697e-003
4.493399e+002,-4.853063e-003
4.512684e+002,-6.518172e-003
4.531969e+002,-6.849477e-003
4.551254e+002,-5.071359e-003
4.570539e+002,-5.060519e-003
4.589824e+002,-6.942389e-003
4.609109e+002,-7.526505e-003
4.628394e+002,-6.392162e-003
4.647679e+002,-5.852875e-003
4.666964e+002,-5.439339e-003
4.686249e+002,-4.448479e-003
4.705533e+002,-3.424484e-003
4.724819e+002,-4.069909e-003
4.744103e+002,-4.931595e-003
4.763389e+002,-4.351259e-003
4.782673e+002,-6.437216e-003
4.801959e+002,-8.726127e-003
4.821243e+002,-8.184563e-003
4.840529e+002,-6.694232e-003
4.859813e+002,-7.181931e-003
4.879099e+002,-7.043138e-003
4.898383e+002,-5.699202e-003
4.917668e+002,-6.120136e-003
4.936953e+002,-7.619044e-003
4.956238e+002,-6.745812e-003
4.975523e+002,-6.300634e-003
4.994808e+002,-7.749354e-003
5.014093e+002,-7.127860e-003
5.033378e+002,-5.165569e-003
5.052663e+002,-5.818123e-003
5.071948e+002,-5.000681e-003
5.091233e+002,-6.145029e-003
5.110518e+002,-6.542032e-003
5.129803e+002,-5.607038e-003
5.149088e+002,-5.815475e-003
5.168373e+002,-6.474105e-003
5.187658e+002,-6.113242e-003
5.206943e+002,-5.472092e-003
5.226228e+002,-4.665503e-003
5.245513e+002,-4.166272e-003
5.264798e+002,-4.522362e-003
5.284083e+002,-4.620429e-003
5.303368e+002,-3.500383e-003
5.322653e+002,-3.756186e-003
5.341938e+002,-4.073454e-003
5.361223e+002,-4.255593e-003
5.380508e+002,-4.244010e-003
5.399792e+002,-4.402856e-003
5.419078e+002,-4.195873e-003
5.438363e+002,-3.661834e-003
5.457648e+002,-3.765974e-003
5.476932e+002,-5.016304e-003
5.496218e+002,-4.755672e-003
5.515503e+002,-3.995291e-003
5.534788e+002,-4.160431e-003
5.554072e+002,-5.233733e-003
5.573358e+002,-5.378800e-003
5.592643e+002,-5.187670e-003
5.611927e+002,-5.055410e-003
5.631212e+002,-4.838482e-003
5.650497e+002,-4.925142e-003
5.669783e+002,-4.991411e-003
5.689067e+002,-4.184420e-003
5.708352e+002,-4.442018e-003
5.727637e+002,-4.358476e-003
5.746923e+002,-4.971069e-003
5.766207e+002,-7.086756e-003
5.785492e+002,-5.041262e-003
5.804777e+002,2.522483e-003
5.824063e+002,5.012759e-004
5.843347e+002,-4.596398e-003
5.862632e+002,-4.138442e-003
5.881917e+002,-3.651813e-003
5.901202e+002,-3.638407e-003
5.920487e+002,-3.744064e-003
5.939772e+002,-2.576795e-003
5.959057e+002,-1.116473e-003
5.978342e+002,-1.997326e-003
5.997627e+002,-3.354556e-003
6.016912e+002,-4.722537e-003
6.036197e+002,-5.327024e-003
6.055482e+002,-4.464089e-003
6.074767e+002,-4.387506e-003
6.094052e+002,-5.758977e-003
6.113337e+002,-7.065567e-003
6.132622e+002,-7.068566e-003
6.151907e+002,-6.169726e-003
6.171192e+002,-6.225974e-003
6.190477e+002,-6.513472e-003
6.209762e+002,-6.260269e-003
6.229047e+002,-4.993769e-003
6.248332e+002,-4.628034e-003
6.267617e+002,-3.556945e-003
6.286902e+002,-2.542143e-003
6.306187e+002,-2.250422e-003
6.325472e+002,-2.684654e-003
6.344756e+002,-2.354407e-003
6.364042e+002,-2.464858e-003
6.383326e+002,-3.008991e-003
6.402612e+002,-3.370404e-003
6.421896e+002,-2.454150e-003
6.441182e+002,-1.952105e-003
6.460466e+002,-3.150822e-003
6.479752e+002,-3.303196e-003
6.499036e+002,-2.572579e-003
6.518322e+002,-2.570965e-003
6.537606e+002,-2.651657e-003
6.556891e+002,-2.763514e-003
6.576177e+002,-2.874947e-003
6.595461e+002,-3.022054e-003
6.614746e+002,-2.875605e-003
6.634031e+002,-3.031728e-003
6.653317e+002,-2.595669e-003
6.672601e+002,-2.752616e-003
6.691886e+002,-2.906939e-003
6.711171e+002,-2.791301e-003
6.730457e+002,-2.680735e-003
6.749741e+002,-2.849898e-003
6.769026e+002,-2.676356e-003
6.788311e+002,-2.562797e-003
6.807596e+002,-2.455270e-003
6.826881e+002,-2.539212e-003
6.846166e+002,-2.337039e-003
6.865451e+002,-2.443079e-003
6.884736e+002,-2.207172e-003
6.904021e+002,-2.113934e-003
6.923306e+002,-2.383241e-003
6.942591e+002,-2.340566e-003
6.961876e+002,-2.390821e-003
6.981161e+002,-2.758575e-003
7.000446e+002,-2.595833e-003
7.019731e+002,-2.334633e-003
7.039016e+002,-2.116605e-003
7.058301e+002,-2.176941e-003
7.077585e+002,-2.181755e-003
7.096871e+002,-2.284108e-003
7.116156e+002,-1.988981e-003
7.135441e+002,-1.763750e-003
7.154725e+002,-2.223293e-003
7.174011e+002,-2.735956e-003
7.193296e+002,-2.440641e-003
7.212581e+002,-2.443837e-003
7.231865e+002,-2.604957e-003
7.251151e+002,-2.616714e-003
7.270436e+002,-2.691800e-003
7.289720e+002,-2.515559e-003
7.309005e+002,-2.398169e-003
7.328290e+002,-3.047751e-003
7.347576e+002,-3.162401e-003
7.366860e+002,-2.418730e-003
7.386145e+002,-1.861254e-003
7.405430e+002,-2.270364e-003
7.424716e+002,-2.876362e-003
7.444000e+002,-2.682645e-003
7.463285e+002,-2.296831e-003
7.482570e+002,-2.595010e-003
7.501855e+002,-2.666740e-003
7.521140e+002,-2.760748e-003
7.540425e+002,-2.802461e-003
7.559710e+002,-2.614738e-003
7.578995e+002,-2.684852e-003
7.598280e+002,-2.954134e-003
7.617565e+002,-2.963020e-003
7.636850e+002,-2.547216e-003
7.656135e+002,-2.052369e-003
7.675420e+002,-1.879135e-003
7.694705e+002,-1.606511e-003
7.713990e+002,-2.073079e-003
7.733275e+002,-2.450855e-003
7.752560e+002,-2.554397e-003
7.771844e+002,-2.724892e-003
7.791130e+002,-2.760320e-003
7.810415e+002,-2.530680e-003
7.829700e+002,-2.212315e-003
7.848984e+002,-1.868677e-003
7.868270e+002,-1.967740e-003
7.887555e+002,-2.299468e-003
7.906840e+002,-2.773984e-003
7.926124e+002,-2.480902e-003
7.945410e+002,-2.163787e-003
7.964695e+002,-2.237105e-003
7.983979e+002,-2.240335e-003
8.003264e+002,-2.072155e-003
8.022549e+002,-2.275769e-003
8.041835e+002,-2.381429e-003
8.061119e+002,-2.078322e-003
8.080404e+002,-1.418832e-003
8.099689e+002,-1.954843e-003
8.118975e+002,-2.762197e-003
8.138259e+002,-2.587863e-003
8.157545e+002,-2.166523e-003
8.176830e+002,-2.108098e-003
8.196115e+002,-2.215414e-003
8.215399e+002,-2.268782e-003
8.234684e+002,-2.126761e-003
8.253970e+002,-2.361558e-003
8.273254e+002,-2.175326e-003
8.292539e+002,-2.036935e-003
8.311824e+002,-2.421300e-003
8.331110e+002,-2.880115e-003
8.350394e+002,-2.798906e-003
8.369679e+002,-2.271386e-003
8.388964e+002,-2.356219e-003
8.408250e+002,-2.280417e-003
8.427534e+002,-2.143840e-003
8.446819e+002,-2.123727e-003
8.466104e+002,-1.977008e-003
8.485389e+002,-1.797574e-003
8.504674e+002,-1.742960e-003
8.523959e+002,-1.879531e-003
8.543244e+002,-2.087192e-003
8.562529e+002,-2.257476e-003
8.581814e+002,-2.156006e-003
8.601099e+002,-1.692234e-003
8.620384e+002,-1.641898e-003
8.639669e+002,-2.347157e-003
8.658954e+002,-2.402453e-003
8.678239e+002,-1.962001e-003
8.697524e+002,-2.189502e-003
8.716809e+002,-2.808387e-003
8.736094e+002,-2.814510e-003
8.755378e+002,-2.449208e-003
8.774664e+002,-1.939174e-003
8.793949e+002,-1.640743e-003
8.813234e+002,-1.521233e-003
8.832518e+002,-1.665466e-003
8.851804e+002,-2.058107e-003
8.871089e+002,-2.409339e-003
8.890374e+002,-2.297556e-003
8.909658e+002,-2.097184e-003
8.928943e+002,-1.679593e-003
8.948229e+002,-1.706096e-003
8.967513e+002,-1.792558e-003
8.986798e+002,-1.919481e-003
9.006083e+002,-2.137971e-003
9.025369e+002,-2.151061e-003
9.044653e+002,-1.830570e-003
9.063938e+002,-1.789687e-003
9.083223e+002,-1.642657e-003
9.102509e+002,-1.676457e-003
9.121793e+002,-1.627902e-003
9.141078e+002,-1.825719e-003
9.160364e+002,-1.708637e-003
9.179648e+002,-1.562240e-003
9.198933e+002,-1.472958e-003
9.218218e+002,-1.486431e-003
9.237504e+002,-1.558080e-003
9.256788e+002,-1.802127e-003
9.276073e+002,-2.148192e-003
9.295358e+002,-1.918426e-003
9.314644e+002,-1.514366e-003
9.333928e+002,-1.541242e-003
9.353213e+002,-1.551048e-003
9.372498e+002,-1.470779e-003
9.391783e+002,-1.655762e-003
9.411068e+002,-1.722334e-003
9.430353e+002,-1.564617e-003
9.449637e+002,-1.602484e-003
9.468923e+002,-1.895267e-003
9.488208e+002,-1.947322e-003
9.507493e+002,-1.507399e-003
9.526777e+002,-1.464273e-003
9.546063e+002,-1.764674e-003
9.565348e+002,-1.797376e-003
9.584633e+002,-1.644176e-003
9.603917e+002,-1.617141e-003
9.623203e+002,-1.732498e-003
9.642488e+002,-1.663056e-003
9.661772e+002,-1.456282e-003
9.681057e+002,-1.215212e-003
9.700343e+002,-1.216137e-003
9.719628e+002,-1.425107e-003
9.738912e+002,-1.481313e-003
9.758197e+002,-1.598786e-003
9.777483e+002,-1.698274e-003
9.796768e+002,-1.610637e-003
9.816052e+002,-1.490228e-003
9.835337e+002,-1.543223e-003
9.854623e+002,-1.559071e-003
9.873907e+002,-1.636022e-003
9.893192e+002,-1.700023e-003
9.912477e+002,-1.403144e-003
9.931763e+002,-1.212205e-003
9.951047e+002,-1.298303e-003
9.970332e+002,-1.312905e-003
9.989617e+002,-1.468731e-003
1.000890e+003,-1.479133e-003
1.002819e+003,-1.380025e-003
1.004747e+003,-1.275839e-003
1.006676e+003,-1.192677e-003
1.008604e+003,-1.329223e-003
1.010533e+003,-1.697845e-003
1.012461e+003,-1.692894e-003
1.014390e+003,-1.497493e-003
1.016318e+003,-1.432604e-003
1.018247e+003,-1.458593e-003
1.020175e+003,-1.757711e-003
1.022104e+003,-1.768238e-003
1.024032e+003,-1.456744e-003
1.025961e+003,-1.399842e-003
1.027889e+003,-1.623677e-003
1.029818e+003,-1.789522e-003
1.031746e+003,-1.563329e-003
1.033675e+003,-1.511691e-003
1.035603e+003,-1.278911e-003
1.037532e+003,-1.123975e-003
1.039460e+003,-1.324632e-003
1.041389e+003,-1.339100e-003
1.043317e+003,-1.386003e-003
1.045246e+003,-1.358126e-003
1.047174e+003,-1.182302e-003
1.049103e+003,-1.253340e-003
1.051031e+003,-1.254530e-003
1.052960e+003,-1.049643e-003
1.054888e+003,-1.162805e-003
1.056817e+003,-1.522884e-003
1.058745e+003,-1.394425e-003
1.060674e+003,-1.418138e-003
1.062602e+003,-1.417577e-003
1.064531e+003,-1.191389e-003
1.066459e+003,-1.284461e-003
1.068388e+003,-1.546657e-003
1.070316e+003,-1.577922e-003
1.072245e+003,-1.376392e-003
1.074173e+003,-1.184218e-003
1.076102e+003,-1.374476e-003
1.078030e+003,-1.579540e-003
1.079959e+003,-1.628727e-003
1.081887e+003,-1.435642e-003
1.083816e+003,-1.294438e-003
1.085744e+003,-1.093140e-003
1.087673e+003,-1.066236e-003
1.089601e+003,-1.324797e-003
1.091530e+003,-1.355814e-003
1.093458e+003,-1.078829e-003
1.095387e+003,-1.130981e-003
1.097315e+003,-1.105666e-003
1.099244e+003,-1.187688e-003
1.101172e+003,-1.063591e-003
1.103101e+003,-1.034669e-003
1.105029e+003,-1.363279e-003
1.106958e+003,-1.585812e-003
1.108886e+003,-1.595683e-003
1.110815e+003,-1.351586e-003
1.112743e+003,-1.117035e-003
1.114672e+003,-1.258362e-003
1.116600e+003,-1.264507e-003
1.118529e+003,-1.288657e-003
1.120457e+003,-1.184416e-003
1.122386e+003,-9.905712e-004
1.124314e+003,-1.131874e-003
1.126243e+003,-1.397860e-003
1.128171e+003,-1.282116e-003
1.130100e+003,-1.164557e-003
1.132028e+003,-1.352907e-003
1.133957e+003,-1.335565e-003
1.135885e+003,-1.153090e-003
1.137814e+003,-1.127412e-003
1.139742e+003,-1.132832e-003
1.141671e+003,-1.209892e-003
1.143599e+003,-1.143671e-003
1.145528e+003,-1.137194e-003
1.147456e+003,-1.139144e-003
1.149385e+003,-1.166936e-003
1.151313e+003,-1.251787e-003
1.153242e+003,-1.209165e-003
1.155170e+003,-1.197336e-003
1.157099e+003,-1.361231e-003
1.159027e+003,-1.484978e-003
1.160956e+003,-1.355120e-003
1.162884e+003,-1.299394e-003
1.164813e+003,-1.393005e-003
1.166741e+003,-1.364468e-003
1.168670e+003,-1.186597e-003
1.170598e+003,-1.039264e-003
1.172526e+003,-1.136368e-003
1.174455e+003,-1.174834e-003
1.176384e+003,-1.047230e-003
1.178312e+003,-1.048618e-003
1.180240e+003,-1.033380e-003
1.182169e+003,-9.488824e-004
1.184098e+003,-9.878605e-004
1.186026e+003,-1.034834e-003
1.187954e+003,-1.033016e-003
1.189883e+003,-1.127214e-003
1.191812e+003,-1.243329e-003
1.193740e+003,-1.077242e-003
1.195668e+003,-9.912986e-004
1.197597e+003,-1.005712e-003
1.199526e+003,-1.028851e-003
1.201454e+003,-1.095817e-003
1.203382e+003,-1.048189e-003
1.205311e+003,-9.957283e-004
1.207240e+003,-1.044685e-003
1.209168e+003,-9.662725e-004
1.211096e+003,-1.063790e-003
1.213025e+003,-1.047428e-003
1.214953e+003,-9.048751e-004
1.216882e+003,-9.885547e-004
1.218810e+003,-1.049147e-003
1.220739e+003,-1.026108e-003
1.222667e+003,-1.053014e-003
1.224596e+003,-1.003927e-003
1.226524e+003,-1.031926e-003
1.228453e+003,-1.055758e-003
1.230381e+003,-9.593628e-004
1.232310e+003,-8.699239e-004
1.234238e+003,-8.688326e-004
1.236167e+003,-8.859614e-004
1.238095e+003,-9.833314e-004
1.240024e+003,-9.880257e-004
1.241952e+003,-8.714449e-004
1.243881e+003,-8.516370e-004
1.245809e+003,-8.143334e-004
1.247738e+003,-9.148275e-004
1.249666e+003,-1.097106e-003
1.251595e+003,-1.070929e-003
1.253523e+003,-9.427329e-004
1.255452e+003,-8.899955e-004
1.257380e+003,-8.711804e-004
1.259309e+003,-8.676422e-004
1.261237e+003,-7.703124e-004
1.263166e+003,-7.150070e-004
1.265094e+003,-9.146622e-004
1.267023e+003,-9.567841e-004
1.268951e+003,-8.899955e-004
1.270880e+003,-8.986588e-004
1.272808e+003,-8.640378e-004
1.274737e+003,-8.336140e-004
1.276665e+003,-7.822855e-004
1.278594e+003,-7.432229e-004
1.280522e+003,-7.830793e-004
1.282451e+003,-7.645573e-004
1.284379e+003,-8.999483e-004
1.286308e+003,-8.451884e-004
1.288236e+003,-8.362926e-004
1.290165e+003,-9.566188e-004
1.292093e+003,-9.265983e-004
1.294022e+003,-1.012984e-003
1.295950e+003,-8.842419e-004
1.297879e+003,-8.696262e-004
1.299807e+003,-9.829677e-004
1.301736e+003,-1.077804e-003
1.303664e+003,-1.011993e-003
1.305593e+003,-8.723708e-004
1.307521e+003,-7.820870e-004
1.309450e+003,-8.522984e-004
1.311378e+003,-8.757107e-004
1.313307e+003,-7.034289e-004
1.315235e+003,-6.264109e-004
1.317164e+003,-5.602333e-004
1.319092e+003,-5.811796e-004
1.321021e+003,-8.305053e-004
1.322949e+003,-9.373107e-004
1.324878e+003,-9.365171e-004
1.326806e+003,-8.861598e-004
1.328735e+003,-7.862214e-004
1.330663e+003,-6.849697e-004
1.332592e+003,-6.468908e-004
1.334520e+003,-7.118644e-004
1.336449e+003,-7.429583e-004
1.338377e+003,-7.881396e-004
1.340306e+003,-8.933021e-004
1.342234e+003,-7.911825e-004
1.344163e+003,-7.555275e-004
1.346091e+003,-8.113900e-004
1.348020e+003,-7.687578e-004
1.349948e+003,-7.213251e-004
1.351877e+003,-7.523852e-004
1.353805e+003,-7.939275e-004
1.355734e+003,-8.774632e-004
1.357662e+003,-9.412782e-004
1.359591e+003,-8.764051e-004
1.361519e+003,-7.922077e-004
1.363448e+003,-7.793418e-004
1.365376e+003,-8.131429e-004
1.367305e+003,-8.285542e-004
1.369233e+003,-7.846669e-004
1.371162e+003,-8.293148e-004
1.373090e+003,-8.408563e-004
1.375019e+003,-8.157886e-004
1.376947e+003,-8.618883e-004
1.378876e+003,-7.761336e-004
1.380804e+003,-6.097682e-004
1.382733e+003,-6.865907e-004
1.384661e+003,-8.248832e-004
1.386590e+003,-8.106293e-004
1.388518e+003,-7.575451e-004
1.390447e+003,-6.617787e-004
1.392375e+003,-7.702132e-004
1.394304e+003,-8.508764e-004
1.396232e+003,-8.119522e-004
1.398161e+003,-7.705109e-004
1.400089e+003,-8.145980e-004
1.402018e+003,-8.708498e-004
1.403946e+003,-8.414516e-004
1.405875e+003,-8.557375e-004
1.407803e+003,-8.230644e-004
1.409732e+003,-7.860560e-004
1.411660e+003,-8.444940e-004
1.413589e+003,-9.168444e-004
1.415517e+003,-9.066606e-004
1.417446e+003,-8.802078e-004
1.419374e+003,-8.868873e-004
1.421303e+003,-8.117869e-004
1.423231e+003,-8.341761e-004
1.425160e+003,-8.236927e-004
1.427088e+003,-7.997485e-004
1.429017e+003,-8.737597e-004
1.430945e+003,-9.667354e-004
1.432874e+003,-9.219694e-004
1.434802e+003,-8.933021e-004
1.436731e+003,-9.775460e-004
1.438659e+003,-8.995516e-004
1.440588e+003,-8.390705e-004
1.442516e+003,-9.283506e-004
1.444445e+003,-9.904059e-004
1.446373e+003,-9.055363e-004
1.448302e+003,-9.111243e-004
1.450230e+003,-9.686529e-004
1.452159e+003,-8.662203e-004
1.454087e+003,-8.060653e-004
1.456016e+003,-1.051560e-003
1.457944e+003,-1.015100e-003
1.459873e+003,-8.175414e-004
1.461801e+003,-8.881107e-004
1.463730e+003,-1.058799e-003
1.465658e+003,-9.535772e-004
1.467587e+003,-8.496198e-004
1.469515e+003,-9.084791e-004
1.471444e+003,-8.761405e-004
1.473372e+003,-7.430575e-004
1.475301e+003,-6.473541e-004
1.477229e+003,-7.181495e-004
1.479158e+003,-7.016095e-004
1.481086e+003,-7.291647e-004
1.483015e+003,-6.844404e-004
1.484943e+003,-6.615141e-004
1.486872e+003,-7.495406e-004
1.488800e+003,-8.140688e-004
1.490729e+003,-8.423445e-004
1.492657e+003,-8.721063e-004
1.494586e+003,-8.316959e-004
1.496514e+003,-8.258093e-004
1.498443e+003,-7.826163e-004
1.500371e+003,-7.650203e-004
1.502300e+003,-6.918507e-004
1.504228e+003,-7.459683e-004
1.506157e+003,-1.038272e-003
1.508085e+003,-8.374170e-004
1.510014e+003,-7.136507e-004
1.511942e+003,-7.755713e-004
1.513871e+003,-7.570821e-004
1.515799e+003,-8.362265e-004
1.517728e+003,-8.668816e-004
1.519656e+003,-8.401619e-004
1.521585e+003,-8.855977e-004
1.523513e+003,-7.932992e-004
1.525442e+003,-7.149408e-004
1.527370e+003,-7.156355e-004
1.529299e+003,-6.955226e-004
1.531227e+003,-7.431567e-004
1.533156e+003,-8.469411e-004
1.535084e+003,-8.130767e-004
1.537013e+003,-8.119192e-004
1.538941e+003,-9.185968e-004
1.540870e+003,-1.012422e-003
1.542798e+003,-1.092446e-003
1.544727e+003,-1.042569e-003
1.546655e+003,-8.590444e-004
1.548584e+003,-7.293302e-004
1.550512e+003,-6.363697e-004
1.552441e+003,-6.064925e-004
1.554369e+003,-7.124598e-004
1.556298e+003,-7.689233e-004
1.558226e+003,-1.045709e-003
1.560155e+003,-1.159732e-003
1.562083e+003,-8.788190e-004
1.564012e+003,-7.565529e-004
1.565940e+003,-6.536070e-004
1.567869e+003,-6.528791e-004
1.569797e+003,-7.625396e-004
1.571726e+003,-7.119967e-004
1.573654e+003,-7.227475e-004
1.575583e+003,-8.452877e-004
1.577511e+003,-8.268014e-004
1.579440e+003,-7.856921e-004
1.581368e+003,-7.240376e-004
1.583297e+003,-7.025027e-004
1.585225e+003,-6.933062e-004
1.587154e+003,-5.881284e-004
1.589082e+003,-5.525891e-004
1.591010e+003,-6.220766e-004
1.592939e+003,-7.002201e-004
1.594868e+003,-7.594636e-004
1.596796e+003,-7.545352e-004
1.598724e+003,-7.602243e-004
1.600653e+003,-8.328203e-004
1.602582e+003,-7.716354e-004
1.604510e+003,-7.200019e-004
1.606438e+003,-7.438844e-004
1.608367e+003,-7.915793e-004
1.610296e+003,-6.963828e-004
1.612224e+003,-6.533754e-004
1.614152e+003,-6.916522e-004
1.616081e+003,-8.265368e-004
1.618010e+003,-7.285363e-004
1.619938e+003,-6.181393e-004
1.621866e+003,-7.628704e-004
1.623795e+003,-9.465020e-004
1.625724e+003,-8.549439e-004
1.627652e+003,-7.889995e-004
1.629580e+003,-7.859237e-004
1.631509e+003,-7.117982e-004
1.633438e+003,-7.402128e-004
1.635366e+003,-7.553290e-004
1.637294e+003,-7.600589e-004
1.639223e+003,-7.171571e-004
1.641151e+003,-6.184371e-004
1.643080e+003,-6.528129e-004
1.645008e+003,-8.792158e-004
1.646937e+003,-9.407492e-004
1.648865e+003,-8.588791e-004
1.650794e+003,-9.093058e-004
1.652722e+003,-8.954183e-004
1.654651e+003,-6.995585e-004
1.656579e+003,-6.751112e-004
1.658508e+003,-7.458029e-004
1.660436e+003,-7.550644e-004
1.662365e+003,-6.912221e-004
1.664293e+003,-5.948786e-004
1.666222e+003,-5.356127e-004
1.668150e+003,-6.836795e-004
1.670079e+003,-8.584161e-004
1.672007e+003,-7.149077e-004
1.673936e+003,-7.400144e-004
1.675864e+003,-7.362435e-004
1.677793e+003,-5.551041e-004
1.679721e+003,-4.944097e-004
1.681650e+003,-5.687708e-004
1.683578e+003,-7.693863e-004
1.685507e+003,-8.136058e-004
1.687435e+003,-8.334486e-004
1.689364e+003,-8.649637e-004
1.691292e+003,-8.225352e-004
1.693221e+003,-8.108608e-004
1.695149e+003,-9.407161e-004
1.697078e+003,-7.764644e-004
1.699006e+003,-8.005422e-004
1.700935e+003,-8.595405e-004
1.702863e+003,-7.144446e-004
1.704792e+003,-7.546013e-004
1.706720e+003,-6.225398e-004
1.708649e+003,-5.662890e-004
1.710577e+003,-6.691894e-004
1.712506e+003,-7.207296e-004
1.714434e+003,-7.064393e-004
1.716363e+003,-7.664426e-004
1.718291e+003,-8.187320e-004
1.720220e+003,-7.636311e-004
1.722148e+003,-6.966143e-004
1.724077e+003,-6.771623e-004
1.726005e+003,-6.273373e-004
1.727934e+003,-6.301166e-004
1.729862e+003,-6.697187e-004
1.731791e+003,-7.821863e-004
1.733719e+003,-9.627350e-004
1.735648e+003,-8.871849e-004
1.737576e+003,-8.153587e-004
1.739505e+003,-7.591328e-004
1.741433e+003,-6.375609e-004
1.743362e+003,-6.649217e-004
1.745290e+003,-6.703804e-004
1.747219e+003,-6.315723e-004
1.749147e+003,-7.148085e-004
1.751076e+003,-8.287526e-004
1.753004e+003,-7.590335e-004
1.754933e+003,-6.407371e-004
1.756861e+003,-6.137387e-004
1.758790e+003,-6.564853e-004
1.760718e+003,-7.676333e-004
1.762647e+003,-7.810618e-004
1.764575e+003,-6.942325e-004
1.766504e+003,-6.631682e-004
1.768432e+003,-6.551620e-004
1.770361e+003,-6.590328e-004
1.772289e+003,-7.097804e-004
1.774218e+003,-6.753097e-004
1.776146e+003,-6.504309e-004
1.778075e+003,-6.736887e-004
1.780003e+003,-7.661780e-004
1.781932e+003,-7.750422e-004
1.783860e+003,-7.516906e-004
1.785789e+003,-7.848653e-004
1.787717e+003,-6.484127e-004
1.789646e+003,-5.650977e-004
1.791574e+003,-7.296278e-004
1.793503e+003,-8.382438e-004
1.795431e+003,-7.892642e-004
1.797360e+003,-7.109712e-004
1.799288e+003,-6.381895e-004
1.801217e+003,-6.619110e-004
1.803145e+003,-6.428545e-004
1.805074e+003,-5.542437e-004
1.807002e+003,-6.346162e-004
1.808931e+003,-7.138161e-004
1.810859e+003,-5.868379e-004
1.812788e+003,-5.225406e-004
1.814716e+003,-5.414039e-004
1.816645e+003,-5.902130e-004
1.818573e+003,-6.843411e-004
1.820502e+003,-6.774600e-004
1.822430e+003,-6.687924e-004
1.824359e+003,-6.964490e-004
1.826287e+003,-6.511587e-004
1.828216e+003,-6.627382e-004
1.830144e+003,-6.676014e-004
1.832073e+003,-5.968308e-004
1.834001e+003,-5.919337e-004
1.835930e+003,-6.608855e-004
1.837858e+003,-6.909244e-004
1.839787e+003,-7.207296e-004
1.841715e+003,-7.185134e-004
1.843644e+003,-7.170248e-004
1.845572e+003,-7.419328e-004
1.847501e+003,-6.863591e-004
1.849429e+003,-6.834810e-004
1.851358e+003,-6.415973e-004
1.853286e+003,-5.673148e-004
1.855215e+003,-5.292587e-004
1.857143e+003,-5.799222e-004
1.859072e+003,-6.349471e-004
1.861000e+003,-6.441779e-004
1.862929e+003,-6.490413e-004
1.864857e+003,-5.819407e-004
1.866786e+003,-5.994117e-004
1.868714e+003,-6.916522e-004
1.870643e+003,-6.235986e-004
1.872571e+003,-5.270414e-004
1.874500e+003,-5.330314e-004
1.876428e+003,-6.162202e-004
1.878357e+003,-6.320025e-004
1.880285e+003,-6.338553e-004
1.882214e+003,-6.846058e-004
1.884142e+003,-7.136507e-004
1.886071e+003,-6.927107e-004
1.887999e+003,-6.628374e-004
1.889928e+003,-6.481811e-004
1.891856e+003,-6.682299e-004
1.893785e+003,-6.731263e-004
1.895713e+003,-6.478172e-004
1.897642e+003,-6.014963e-004
1.899570e+003,-6.049043e-004
1.901499e+003,-5.522582e-004
1.903427e+003,-5.147303e-004
1.905356e+003,-5.957389e-004
1.907284e+003,-7.087879e-004
1.909213e+003,-6.335906e-004
1.911141e+003,-5.506036e-004
1.913070e+003,-5.865401e-004
1.914998e+003,-6.401415e-004
1.916927e+003,-6.384542e-004
1.918855e+003,-6.283630e-004
1.920784e+003,-5.977242e-004
1.922712e+003,-6.195289e-004
1.924641e+003,-6.896673e-004
1.926569e+003,-7.272131e-004
1.928498e+003,-6.939679e-004
1.930426e+003,-6.500669e-004
1.932355e+003,-6.017940e-004
1.934283e+003,-6.099006e-004
1.936212e+003,-5.902792e-004
1.938140e+003,-5.828341e-004
1.940069e+003,-5.545747e-004
1.941997e+003,-5.251220e-004
1.943926e+003,-4.931520e-004
1.945854e+003,-5.404112e-004
1.947783e+003,-6.591320e-004
1.949711e+003,-7.393859e-004
1.951640e+003,-6.269072e-004
1.953568e+003,-5.600678e-004
1.955497e+003,-6.164849e-004
1.957425e+003,-6.632013e-004
1.959354e+003,-6.618780e-004
1.961282e+003,-5.981212e-004
1.963211e+003,-6.144004e-004
1.965139e+003,-6.242272e-004
1.967068e+003,-6.373624e-004
1.968996e+003,-5.891873e-004
1.970925e+003,-4.828589e-004
1.972853e+003,-5.589427e-004
1.974782e+003,-6.359728e-004
1.976710e+003,-6.661457e-004
1.978639e+003,-6.819261e-004
1.980567e+003,-6.117204e-004
1.982496e+003,-5.878968e-004
1.984424e+003,-6.683292e-004
1.986353e+003,-7.332995e-004
1.988281e+003,-6.729278e-004
1.990210e+003,-5.879960e-004
1.992138e+003,-5.320386e-004
1.994067e+003,-5.053644e-004
1.995995e+003,-5.082437e-004
1.997924e+003,-5.129763e-004
1.999852e+003,-5.156901e-004
2.001781e+003,-5.814112e-004
2.003709e+003,-6.121505e-004
2.005638e+003,-6.144004e-004
2.007566e+003,-7.088872e-004
2.009495e+003,-7.030651e-004
2.011423e+003,-6.625727e-004
2.013352e+003,-5.772750e-004
2.015280e+003,-5.715504e-004
2.017208e+003,-6.579741e-004
2.019137e+003,-7.475560e-004
2.021066e+003,-7.135514e-004
2.022994e+003,-5.897828e-004
2.024922e+003,-5.512324e-004
2.026851e+003,-5.645683e-004
2.028780e+003,-5.686053e-004
2.030708e+003,-5.452427e-004
2.032636e+003,-5.802200e-004
2.034565e+003,-6.405055e-004
2.036494e+003,-6.844073e-004
2.038422e+003,-6.281976e-004
2.040350e+003,-5.817752e-004
2.042279e+003,-5.944153e-004
2.044208e+003,-6.048050e-004
2.046136e+003,-6.286938e-004
2.048064e+003,-6.301827e-004
2.049993e+003,-6.105292e-004
2.051921e+003,-6.741518e-004
2.053850e+003,-7.139815e-004
2.055778e+003,-6.388181e-004
2.057707e+003,-6.091726e-004
2.059635e+003,-5.231033e-004
2.061564e+003,-4.933506e-004
2.063492e+003,-5.373666e-004
2.065421e+003,-5.515302e-004
2.067349e+003,-5.631123e-004
2.069278e+003,-6.327634e-004
2.071206e+003,-6.745157e-004
2.073135e+003,-6.468247e-004
2.075063e+003,-5.537473e-004
2.076992e+003,-6.063271e-004
2.078920e+003,-6.281645e-004
2.080849e+003,-6.478172e-004
2.082777e+003,-6.301166e-004
2.084706e+003,-5.753227e-004
2.086634e+003,-6.595952e-004
2.088563e+003,-6.922145e-004
2.090491e+003,-5.590420e-004
2.092420e+003,-5.065890e-004
2.094348e+003,-5.795582e-004
2.096277e+003,-5.772419e-004
2.098205e+003,-5.433564e-004
2.100134e+003,-6.308444e-004
2.102062e+003,-6.188010e-004
2.103991e+003,-5.788964e-004
2.105919e+003,-6.075844e-004
2.107848e+003,-6.353441e-004
2.109776e+003,-7.293632e-004
2.111705e+003,-7.246661e-004
2.113633e+003,-6.069227e-004
2.115562e+003,-5.575529e-004
2.117490e+003,-5.736020e-004
2.119419e+003,-5.818414e-004
2.121347e+003,-5.486512e-004
2.123276e+003,-5.572220e-004
2.125204e+003,-6.614479e-004
2.127133e+003,-7.020396e-004
2.129061e+003,-6.212163e-004
2.130990e+003,-6.068565e-004
2.132918e+003,-6.323333e-004
2.134847e+003,-6.476518e-004
2.136775e+003,-6.003050e-004
2.138704e+003,-6.093381e-004
2.140632e+003,-6.221759e-004
2.142561e+003,-6.886417e-004
2.144489e+003,-7.750091e-004
2.146418e+003,-6.413326e-004
2.148346e+003,-5.356127e-004
2.150275e+003,-5.966653e-004
2.152203e+003,-6.451043e-004
2.154132e+003,-6.451705e-004
2.156060e+003,-5.997095e-004
2.157989e+003,-6.677999e-004
2.159917e+003,-6.899319e-004
2.161846e+003,-6.876162e-004
2.163774e+003,-6.519528e-004
2.165703e+003,-6.342192e-004
2.167631e+003,-6.239294e-004
2.169560e+003,-5.850842e-004
2.171488e+003,-5.727747e-004
2.173417e+003,-6.386196e-004
2.175345e+003,-6.979376e-004
2.177274e+003,-7.151062e-004
2.179202e+003,-7.346888e-004
2.181131e+003,-7.273454e-004
2.183059e+003,-5.902130e-004
2.184988e+003,-5.659581e-004
2.186916e+003,-5.924300e-004
2.188845e+003,-5.627482e-004
2.190773e+003,-5.128108e-004
2.192702e+003,-4.868968e-004
2.194630e+003,-5.574867e-004
2.196559e+003,-6.091396e-004
2.198487e+003,-6.613486e-004
2.200416e+003,-7.310171e-004
2.202344e+003,-6.991946e-004
2.204273e+003,-5.633770e-004
2.206201e+003,-5.240299e-004
2.208130e+003,-5.927940e-004
2.210058e+003,-6.538055e-004
2.211987e+003,-6.439132e-004
2.213915e+003,-5.915035e-004
2.215844e+003,-5.950109e-004
2.217772e+003,-6.005698e-004
2.219701e+003,-6.315723e-004
2.221629e+003,-6.956219e-004
2.223558e+003,-7.413705e-004
2.225486e+003,-7.118974e-004
2.227415e+003,-6.012315e-004
2.229343e+003,-5.418672e-004
2.231272e+003,-5.155908e-004
2.233200e+003,-5.065559e-004
2.235129e+003,-5.175765e-004
2.237057e+003,-5.276371e-004
2.238986e+003,-5.227392e-004
2.240914e+003,-5.718482e-004
2.242843e+003,-5.794590e-004
2.244771e+003,-5.455405e-004
2.246700e+003,-6.329620e-004
2.248628e+003,-6.171467e-004
2.250557e+003,-5.356789e-004
2.252485e+003,-6.035477e-004
2.254414e+003,-6.330281e-004
2.256342e+003,-6.096358e-004
2.258271e+003,-5.663882e-004
2.260199e+003,-5.426945e-004
2.262128e+003,-6.683954e-004
2.264056e+003,-6.478503e-004
2.265985e+003,-5.303839e-004
2.267913e+003,-5.735027e-004
2.269842e+003,-6.164849e-004
2.271770e+003,-6.243926e-004
2.273699e+003,-6.329620e-004
2.275627e+003,-5.875328e-004
2.277556e+003,-6.045403e-004
2.279484e+003,-6.440455e-004
2.281413e+003,-6.390828e-004
2.283341e+003,-6.816615e-004
2.285270e+003,-7.377982e-004
2.287198e+003,-7.284370e-004
2.289127e+003,-6.518866e-004
2.291055e+003,-5.618879e-004
2.292984e+003,-5.447132e-004
2.294912e+003,-6.552612e-004
2.296841e+003,-7.170248e-004
2.298769e+003,-7.357804e-004
2.300698e+003,-6.890057e-004
2.302626e+003,-6.091396e-004
2.304555e+003,-6.389504e-004
2.306483e+003,-6.950595e-004
2.308412e+003,-6.756736e-004
2.310340e+003,-6.120843e-004
2.312269e+003,-6.500669e-004
2.314197e+003,-7.026350e-004
2.316125e+003,-6.610509e-004
2.318054e+003,-6.595290e-004
2.319983e+003,-7.095819e-004
2.321911e+003,-7.707093e-004
2.323840e+003,-7.009479e-004
2.325768e+003,-7.011133e-004
2.327697e+003,-7.857583e-004
2.329625e+003,-8.184013e-004
2.331553e+003,-8.968401e-004
2.333482e+003,-9.101324e-004
2.335411e+003,-8.579862e-004
2.337339e+003,-7.954158e-004
2.339268e+003,-7.495406e-004
2.341196e+003,-7.505660e-004
2.343125e+003,-7.769274e-004
2.345053e+003,-8.196910e-004
2.346981e+003,-8.075205e-004
2.348910e+003,-8.157225e-004
2.350839e+003,-7.560567e-004
2.352767e+003,-8.014021e-004
2.354696e+003,-8.945256e-004
2.356624e+003,-8.203194e-004
2.358552e+003,-9.101324e-004
2.360481e+003,-1.013910e-003
2.362409e+003,-1.032917e-003
2.364338e+003,-9.908688e-004
2.366267e+003,-9.108598e-004
2.368195e+003,-9.177702e-004
2.370124e+003,-9.268297e-004
2.372052e+003,-8.548447e-004
2.373980e+003,-7.997153e-004
2.375909e+003,-8.199556e-004
2.377838e+003,-6.849366e-004
2.379766e+003,-5.556336e-004
2.381695e+003,-5.554681e-004
2.383623e+003,-5.658588e-004
2.385552e+003,-5.303508e-004
2.387480e+003,-5.776390e-004
2.389408e+003,-5.983859e-004
2.391337e+003,-5.860107e-004
2.393266e+003,-6.575109e-004
2.395194e+003,-5.966653e-004
2.397123e+003,-5.990146e-004
2.399051e+003,-6.851682e-004
2.400979e+003,-7.790442e-004
2.402908e+003,-7.376327e-004
2.404836e+003,-6.450712e-004
2.406765e+003,-6.957873e-004
2.408694e+003,-7.531460e-004
2.410622e+003,-7.788788e-004
2.412551e+003,-7.962096e-004
2.414479e+003,-7.891319e-004
2.416407e+003,-7.736199e-004
2.418336e+003,-8.163508e-004
2.420264e+003,-8.588791e-004
2.422193e+003,-8.270329e-004
2.424122e+003,-7.775559e-004
2.426050e+003,-7.482837e-004
2.427979e+003,-7.202665e-004
2.429907e+003,-6.680646e-004
2.431835e+003,-5.717159e-004
2.433764e+003,-5.474930e-004
2.435692e+003,-6.484127e-004
2.437621e+003,-6.897665e-004
2.439550e+003,-6.124814e-004
2.441478e+003,-5.672156e-004
2.443406e+003,-6.724977e-004
2.445335e+003,-7.581736e-004
2.447263e+003,-7.737522e-004
2.449192e+003,-7.457036e-004
2.451121e+003,-6.179077e-004
2.453049e+003,-6.017940e-004
2.454978e+003,-6.353441e-004
2.456906e+003,-6.737548e-004
2.458834e+003,-6.203561e-004
2.460763e+003,-5.358112e-004
2.462691e+003,-5.488498e-004
2.464620e+003,-5.398155e-004
2.466549e+003,-5.648661e-004
2.468477e+003,-6.329289e-004
2.470406e+003,-5.456398e-004
2.472334e+003,-5.889225e-004
2.474262e+003,-6.316716e-004
2.476191e+003,-5.880292e-004
2.478119e+003,-5.741314e-004
2.480048e+003,-6.080476e-004
2.481977e+003,-6.504309e-004
2.483905e+003,-6.702480e-004
2.485833e+003,-6.977391e-004
2.487762e+003,-6.960850e-004
2.489690e+003,-6.632013e-004
2.491619e+003,-6.554928e-004
2.493547e+003,-5.242946e-004
2.495476e+003,-5.631784e-004
2.497405e+003,-6.830510e-004
2.499333e+003,-6.002058e-004
2.501261e+003,-5.193305e-004
2.503190e+003,-5.954742e-004
2.505118e+003,-6.756736e-004
2.507047e+003,-6.666750e-004
2.508975e+003,-5.927609e-004
2.510904e+003,-6.421597e-004
2.512833e+003,-6.492067e-004
2.514761e+003,-6.364690e-004
2.516689e+003,-6.572793e-004
2.518618e+003,-6.702480e-004
2.520546e+003,-6.661126e-004
2.522475e+003,-7.021719e-004
2.524403e+003,-7.263861e-004
2.526332e+003,-6.629367e-004
2.528260e+003,-6.030183e-004
2.530189e+003,-6.211171e-004
2.532117e+003,-6.059301e-004
2.534046e+003,-5.875328e-004
2.535974e+003,-5.816428e-004
2.537903e+003,-6.015293e-004
2.539831e+003,-6.069227e-004
2.541760e+003,-6.075182e-004
2.543688e+003,-6.768646e-004
2.545617e+003,-7.103427e-004
2.547545e+003,-6.228707e-004
2.549474e+003,-5.346198e-004
2.551402e+003,-4.925232e-004
2.553331e+003,-5.127446e-004
2.555259e+003,-6.304805e-004
2.557188e+003,-7.034621e-004
2.559116e+003,-6.898327e-004
2.561045e+003,-6.614148e-004
2.562973e+003,-6.065918e-004
2.564902e+003,-6.660134e-004
2.566830e+003,-7.189434e-004
2.568759e+003,-7.337626e-004
2.570687e+003,-7.174879e-004
2.572616e+003,-6.310099e-004
2.574544e+003,-5.829664e-004
2.576473e+003,-6.063271e-004
2.578401e+003,-6.445418e-004
2.580330e+003,-6.531769e-004
2.582258e+003,-6.426891e-004
2.584187e+003,-6.416634e-004
2.586115e+003,-6.758059e-004
2.588044e+003,-6.625727e-004
2.589972e+003,-5.880953e-004
2.591901e+003,-5.837937e-004
2.593829e+003,-5.788964e-004
2.595758e+003,-5.719144e-004
2.597686e+003,-5.800215e-004
2.599615e+003,-5.547401e-004
2.601543e+003,-4.969250e-004
2.603472e+003,-5.578508e-004
2.605400e+003,-5.934226e-004
2.607329e+003,-5.976580e-004
2.609257e+003,-6.030845e-004
2.611186e+003,-6.292894e-004
2.613114e+003,-5.906763e-004
2.615043e+003,-5.604980e-004
2.616971e+003,-4.680311e-004
2.618900e+003,-5.687708e-004
2.620828e+003,-6.204554e-004
2.622757e+003,-5.275378e-004
2.624685e+003,-4.231474e-004
2.626614e+003,-4.856060e-004
2.628542e+003,-6.359728e-004
2.630471e+003,-7.381620e-004
2.632399e+003,-6.915529e-004
2.634328e+003,-7.326711e-004
2.636256e+003,-7.722308e-004
2.638185e+003,-7.173225e-004
2.640113e+003,-6.118196e-004
2.642042e+003,-5.778045e-004
2.643970e+003,-6.043749e-004
2.645899e+003,-5.625166e-004
2.647827e+003,-5.401133e-004
2.649756e+003,-6.104962e-004
2.651684e+003,-7.139153e-004
2.653613e+003,-6.370646e-004
2.655541e+003,-5.632115e-004
2.657470e+003,-5.585788e-004
2.659398e+003,-6.170474e-004
2.661327e+003,-6.439132e-004
2.663255e+003,-5.854151e-004
2.665184e+003,-5.771426e-004
2.667112e+003,-5.784332e-004
2.669041e+003,-6.185363e-004
2.670969e+003,-6.932070e-004
2.672898e+003,-6.723984e-004
2.674826e+003,-6.306460e-004
2.676755e+003,-5.970293e-004
2.678683e+003,-6.043418e-004
2.680612e+003,-6.200583e-004
2.682540e+003,-6.636645e-004
2.684469e+003,-6.494053e-004
2.686397e+003,-5.552696e-004
2.688326e+003,-5.986507e-004
2.690254e+003,-6.677007e-004
2.692183e+003,-7.393528e-004
2.694111e+003,-7.672695e-004
2.696040e+003,-6.615141e-004
2.697968e+003,-5.511662e-004
2.699897e+003,-5.771426e-004
2.701825e+003,-6.345832e-004
2.703754e+003,-6.394798e-004
2.705682e+003,-5.727747e-004
2.707611e+003,-4.678325e-004
2.709539e+003,-4.627022e-004
2.711468e+003,-5.278688e-004
2.713396e+003,-5.609613e-004
2.715325e+003,-6.555589e-004
2.717253e+003,-7.081925e-004
2.719182e+003,-8.245195e-004
2.721110e+003,-8.396658e-004
2.723039e+003,-7.212589e-004
2.724967e+003,-6.643592e-004
2.726896e+003,-6.601576e-004
2.728824e+003,-6.270396e-004
2.730753e+003,-5.946469e-004
2.732681e+003,-5.909410e-004
2.734610e+003,-6.808345e-004
2.736538e+003,-7.168594e-004
2.738467e+003,-7.507314e-004
2.740395e+003,-6.691563e-004
2.742324e+003,-6.268080e-004
2.744252e+003,-6.552943e-004
2.746181e+003,-6.880132e-004
2.748109e+003,-6.176761e-004
2.750038e+003,-5.872681e-004
2.751966e+003,-6.700826e-004
2.753895e+003,-7.390882e-004
2.755823e+003,-7.544360e-004
2.757752e+003,-7.815579e-004
2.759680e+003,-7.592320e-004
2.761609e+003,-7.008487e-004
2.763537e+003,-6.447404e-004
2.765466e+003,-6.505963e-004
2.767394e+003,-5.998749e-004
2.769323e+003,-6.252529e-004
2.771251e+003,-6.153269e-004
2.773180e+003,-5.950771e-004
2.775108e+003,-6.465600e-004
2.777037e+003,-7.180502e-004
2.778965e+003,-7.659795e-004
2.780894e+003,-6.957211e-004
2.782822e+003,-7.027673e-004
2.784750e+003,-7.997153e-004
2.786679e+003,-6.579741e-004
2.788608e+003,-6.142019e-004
2.790536e+003,-6.384542e-004
2.792465e+003,-6.351787e-004
2.794393e+003,-6.677999e-004
2.796322e+003,-7.632342e-004
2.798250e+003,-7.859237e-004
2.800178e+003,-6.757067e-004
2.802107e+003,-5.962683e-004
2.804036e+003,-6.570477e-004
2.805964e+003,-5.698959e-004
2.807893e+003,-5.482210e-004
2.809821e+003,-6.841426e-004
2.811750e+003,-6.740526e-004
2.813678e+003,-6.761698e-004
2.815606e+003,-7.017750e-004
2.817535e+003,-6.361051e-004
2.819464e+003,-5.701606e-004
2.821392e+003,-5.203564e-004
2.823321e+003,-6.226391e-004
2.825249e+003,-7.235414e-004
2.827177e+003,-6.222089e-004
2.829106e+003,-4.500914e-004
2.831034e+003,-4.753789e-004
2.832963e+003,-5.561300e-004
2.834892e+003,-5.726755e-004
2.836820e+003,-5.866063e-004
2.838749e+003,-5.741314e-004
2.840677e+003,-5.771426e-004
2.842605e+003,-6.155916e-004
2.844534e+003,-5.863416e-004
2.846462e+003,-5.137375e-004
2.848391e+003,-4.853412e-004
2.850320e+003,-5.358774e-004
2.852248e+003,-5.645683e-004
2.854177e+003,-6.281976e-004
2.856105e+003,-7.353173e-004
2.858033e+003,-7.800695e-004
2.859962e+003,-6.698841e-004
2.861890e+003,-6.097682e-004
2.863819e+003,-6.301166e-004
2.865748e+003,-6.302158e-004
2.867676e+003,-5.751242e-004
2.869604e+003,-6.106946e-004
2.871533e+003,-6.123821e-004
2.873461e+003,-5.940513e-004
2.875390e+003,-5.636748e-004
2.877319e+003,-5.909410e-004
2.879247e+003,-5.856136e-004
2.881176e+003,-5.720137e-004
2.883104e+003,-6.394798e-004
2.885032e+003,-7.616135e-004
2.886961e+003,-7.180172e-004
2.888889e+003,-6.824885e-004
2.890818e+003,-7.028004e-004
2.892747e+003,-7.538075e-004
2.894675e+003,-7.544029e-004
2.896604e+003,-7.232106e-004
2.898532e+003,-6.425898e-004
2.900460e+003,-6.335244e-004
2.902389e+003,-6.746811e-004
2.904317e+003,-7.323733e-004
2.906246e+003,-7.169255e-004
2.908175e+003,-6.410679e-004
2.910103e+003,-5.923307e-004
2.912031e+003,-5.737343e-004
2.913960e+003,-5.317738e-004
2.915888e+003,-5.520928e-004
2.917817e+003,-5.563947e-004
2.919745e+003,-5.992462e-004
2.921674e+003,-5.554020e-004
2.923603e+003,-6.929424e-004
2.925531e+003,-8.362926e-004
2.927459e+003,-8.597058e-004
2.929388e+003,-8.071898e-004
2.931316e+003,-6.908582e-004
2.933245e+003,-6.048381e-004
2.935173e+003,-6.131100e-004
2.937102e+003,-6.397776e-004
2.939031e+003,-6.572132e-004
2.940959e+003,-6.089410e-004
2.942887e+003,-6.336899e-004
2.944816e+003,-6.798089e-004
2.946744e+003,-6.332266e-004
2.948673e+003,-6.113564e-004
2.950601e+003,-6.822901e-004
2.952530e+003,-6.959196e-004
2.954458e+003,-7.005178e-004
2.956387e+003,-6.840434e-004
2.958315e+003,-7.291647e-004
2.960244e+003,-7.815579e-004
2.962172e+003,-7.708747e-004
2.964101e+003,-6.055661e-004
2.966029e+003,-5.713518e-004
2.967958e+003,-6.905605e-004
2.969886e+003,-7.180172e-004
2.971815e+003,-8.723708e-004
2.973743e+003,-8.889374e-004
2.975672e+003,-7.198034e-004
2.977600e+003,-6.300835e-004
2.979529e+003,-5.424298e-004
2.981457e+003,-6.168819e-004
2.983386e+003,-7.505991e-004
2.985314e+003,-8.614584e-004
2.987243e+003,-7.855929e-004
2.989171e+003,-6.482804e-004
2.991100e+003,-6.239294e-004
2.993028e+003,-6.804375e-004
2.994957e+003,-6.254183e-004
2.996885e+003,-6.483797e-004
2.998814e+003,-6.644916e-004
3.000742e+003,-6.834810e-004
3.002671e+003,-7.729253e-004
3.004599e+003,-7.883381e-004
3.006528e+003,-7.238391e-004
3.008456e+003,-6.570477e-004
3.010385e+003,-6.470232e-004
3.012313e+003,-6.099006e-004
3.014242e+003,-6.209186e-004
3.016170e+003,-6.652194e-004
3.018099e+003,-6.223082e-004
3.020027e+003,-5.341235e-004
3.021956e+003,-5.993786e-004
3.023884e+003,-7.225490e-004
3.025813e+003,-8.082481e-004
3.027741e+003,-8.785214e-004
3.029670e+003,-7.325718e-004
3.031598e+003,-5.399148e-004
3.033527e+003,-5.206212e-004
3.035455e+003,-5.610606e-004
3.037384e+003,-5.822054e-004
3.039312e+003,-6.631021e-004
3.041241e+003,-8.200548e-004
3.043169e+003,-8.669808e-004
3.045098e+003,-7.290986e-004
3.047026e+003,-5.823708e-004
3.048955e+003,-6.131762e-004
3.050883e+003,-6.681638e-004
3.052812e+003,-6.760375e-004
3.054740e+003,-6.312084e-004
3.056669e+003,-6.073859e-004
3.058597e+003,-6.119850e-004
3.060526e+003,-5.947131e-004
3.062454e+003,-5.495778e-004
3.064383e+003,-5.244601e-004
3.066311e+003,-6.215472e-004
3.068240e+003,-6.846058e-004
3.070168e+003,-6.550958e-004
3.072097e+003,-6.651201e-004
3.074025e+003,-7.553290e-004
3.075954e+003,-5.977572e-004
3.077882e+003,-4.575719e-004
3.079811e+003,-5.919337e-004
3.081739e+003,-6.647232e-004
3.083668e+003,-5.640057e-004
3.085596e+003,-5.491145e-004
3.087525e+003,-6.337560e-004
3.089453e+003,-5.766794e-004
3.091382e+003,-5.630791e-004
3.093310e+003,-6.301827e-004
3.095239e+003,-7.100780e-004
3.097167e+003,-7.666411e-004
3.099096e+003,-7.254269e-004
3.101024e+003,-7.495406e-004
3.102953e+003,-8.099017e-004
3.104881e+003,-7.900910e-004
3.106810e+003,-6.919499e-004
3.108738e+003,-6.084116e-004
3.110667e+003,-6.318371e-004
3.112595e+003,-7.068362e-004
3.114524e+003,-6.655833e-004
3.116452e+003,-6.754751e-004
3.118381e+003,-7.859237e-004
3.120309e+003,-8.695271e-004
3.122238e+003,-8.276612e-004
3.124166e+003,-7.105412e-004
3.126095e+003,-6.035477e-004
3.128023e+003,-5.894850e-004
3.129952e+003,-5.796575e-004
3.131880e+003,-6.607200e-004
3.133809e+003,-6.615471e-004
3.135737e+003,-7.329026e-004
3.137666e+003,-7.009810e-004
3.139594e+003,-6.391820e-004
3.141523e+003,-6.115218e-004
3.143451e+003,-6.751112e-004
3.145380e+003,-6.409686e-004
3.147308e+003,-5.531848e-004
3.149237e+003,-5.758521e-004
3.151165e+003,-8.071898e-004
3.153094e+003,-9.207791e-004
3.155022e+003,-8.434689e-004
3.156951e+003,-6.817277e-004
3.158879e+003,-5.979558e-004
3.160808e+003,-5.272731e-004
3.162736e+003,-5.769772e-004
3.164665e+003,-6.515227e-004
3.166593e+003,-7.265185e-004
3.168522e+003,-7.398159e-004
3.170450e+003,-6.784525e-004
3.172379e+003,-5.865401e-004
3.174307e+003,-6.094042e-004
3.176236e+003,-5.243939e-004
3.178164e+003,-5.143994e-004
3.180093e+003,-5.738667e-004
3.182021e+003,-6.250213e-004
3.183950e+003,-6.247566e-004
3.185878e+003,-7.106073e-004
3.187807e+003,-7.497721e-004
3.189735e+003,-7.289663e-004
3.191664e+003,-7.431567e-004
3.193592e+003,-7.740830e-004
3.195521e+003,-7.456045e-004
3.197449e+003,-6.857967e-004
3.199378e+003,-6.586689e-004
3.201306e+003,-6.776255e-004
3.203235e+003,-7.391543e-004
3.205163e+003,-7.034621e-004
3.207092e+003,-7.555606e-004
3.209020e+003,-7.419660e-004
3.210948e+003,-5.659581e-004
3.212877e+003,-4.948069e-004
3.214806e+003,-5.050004e-004
3.216734e+003,-6.208193e-004
3.218663e+003,-7.604889e-004
3.220591e+003,-7.888672e-004
3.222520e+003,-6.753428e-004
3.224448e+003,-6.846720e-004
3.226376e+003,-6.320355e-004
3.228305e+003,-6.543679e-004
3.230234e+003,-6.357742e-004
3.232162e+003,-5.860107e-004
3.234091e+003,-5.344875e-004
3.236019e+003,-5.420327e-004
3.237948e+003,-5.775397e-004
3.239876e+003,-5.295566e-004
3.241804e+003,-4.186455e-004
3.243733e+003,-4.950716e-004
3.245662e+003,-5.348515e-004
3.247590e+003,-6.053675e-004
3.249519e+003,-5.282659e-004
3.251447e+003,-5.587773e-004
3.253375e+003,-6.665758e-004
3.255304e+003,-6.709758e-004
3.257232e+003,-5.571889e-004
3.259161e+003,-4.880882e-004
3.261090e+003,-6.399099e-004
3.263018e+003,-6.492399e-004
3.264947e+003,-6.063271e-004
3.266875e+003,-6.151945e-004
3.268803e+003,-5.523575e-004
3.270732e+003,-5.651970e-004
3.272660e+003,-5.718151e-004
3.274589e+003,-5.808487e-004
3.276518e+003,-6.141026e-004
3.278446e+003,-5.735689e-004
3.280375e+003,-5.368040e-004
3.282303e+003,-4.858707e-004
3.284231e+003,-5.606966e-004
3.286160e+003,-6.480488e-004
3.288088e+003,-5.334285e-004
3.290017e+003,-5.884593e-004
3.291946e+003,-6.592643e-004
3.293874e+003,-6.395460e-004
3.295802e+003,-5.476254e-004
3.297731e+003,-4.991093e-004
3.299659e+003,-6.186356e-004
3.301588e+003,-6.114556e-004
3.303516e+003,-5.222097e-004
3.305445e+003,-5.023527e-004
3.307374e+003,-5.178413e-004
3.309302e+003,-7.580082e-004
3.311230e+003,-8.276612e-004
3.313159e+003,-6.914206e-004
3.315087e+003,-6.609185e-004
3.317016e+003,-6.905605e-004
3.318944e+003,-6.045734e-004
3.320873e+003,-5.098985e-004
3.322802e+003,-6.392813e-004
3.324730e+003,-8.637402e-004
3.326658e+003,-7.873128e-004
3.328587e+003,-6.511587e-004
3.330515e+003,-5.190658e-004
3.332444e+003,-5.272731e-004
3.334372e+003,-6.429869e-004
3.336301e+003,-7.147092e-004
3.338229e+003,-5.818745e-004
3.340158e+003,-5.016246e-004
3.342086e+003,-4.805421e-004
3.344015e+003,-5.096006e-004
3.345943e+003,-4.940787e-004
3.347872e+003,-4.731944e-004
3.349800e+003,-4.227833e-004
3.351729e+003,-3.766369e-004
3.353657e+003,-5.124468e-004
3.355586e+003,-5.146642e-004
3.357514e+003,-6.088748e-004
3.359443e+003,-6.871861e-004
3.361371e+003,-4.605839e-004
3.363300e+003,-4.681304e-004
3.365229e+003,-5.263465e-004
3.367157e+003,-4.578367e-004
3.369085e+003,-5.535488e-004
3.371014e+003,-6.222751e-004
3.372942e+003,-5.282659e-004
3.374871e+003,-5.572220e-004
3.376799e+003,-5.429593e-004
3.378728e+003,-5.551703e-004
3.380656e+003,-5.878968e-004
3.382585e+003,-6.838780e-004
3.384513e+003,-7.425613e-004
3.386442e+003,-6.165180e-004
3.388370e+003,-3.778618e-004
3.390299e+003,-4.651846e-004
3.392227e+003,-4.536331e-004
3.394156e+003,-3.860387e-004
3.396084e+003,-4.091120e-004
3.398013e+003,-4.536993e-004
3.399941e+003,-3.606137e-004
3.401870e+003,-3.097591e-004
3.403798e+003,-2.428377e-004
3.405727e+003,-3.586935e-004
3.407655e+003,-4.126209e-004
3.409584e+003,-2.761838e-004
3.411512e+003,-2.865811e-004
3.413441e+003,-3.518072e-004
3.415369e+003,-3.993797e-004
3.417298e+003,-5.286961e-004
3.419226e+003,-5.460038e-004
3.421155e+003,-5.593398e-004
3.423083e+003,-5.592406e-004
3.425012e+003,-5.112223e-004
3.426940e+003,-5.061918e-004
3.428869e+003,-4.763387e-004
3.430797e+003,-4.269541e-004
3.432726e+003,-4.551556e-004
3.434654e+003,-5.324688e-004
3.436583e+003,-7.296278e-004
3.438511e+003,-6.352449e-004
3.440440e+003,-4.736578e-004
3.442368e+003,-3.295586e-004
3.444297e+003,-3.324722e-004
3.446225e+003,-3.789212e-004
3.448154e+003,-4.047756e-004
3.450082e+003,-3.975259e-004
3.452011e+003,-4.529711e-004
3.453939e+003,-4.737571e-004
3.455868e+003,-5.474930e-004
3.457796e+003,-4.345674e-004
3.459725e+003,-3.324722e-004
3.461653e+003,-3.951093e-004
3.463582e+003,-5.356789e-004
3.465510e+003,-5.720799e-004
3.467439e+003,-4.617755e-004
3.469367e+003,-3.964997e-004
3.471296e+003,-4.419488e-004
3.473224e+003,-4.326475e-004
3.475153e+003,-4.335413e-004
3.477081e+003,-4.874263e-004
3.479010e+003,-4.209958e-004
3.480938e+003,-2.420098e-004
3.482867e+003,-2.480368e-004
3.484795e+003,-1.849480e-004
3.486724e+003,-2.933028e-004
3.488652e+003,-4.662769e-004
3.490581e+003,-6.559560e-004
3.492509e+003,-5.680428e-004
3.494438e+003,-2.535008e-004
3.496366e+003,-3.247124e-006
3.498295e+003,-8.676938e-005
3.500223e+003,-2.874421e-004
3.502152e+003,-3.874291e-004
3.504080e+003,-4.579029e-004
3.506009e+003,-4.031535e-004
3.507937e+003,-3.416101e-004
3.509866e+003,-3.053884e-004
3.511794e+003,-2.740977e-004
3.513723e+003,-3.693537e-004
3.515651e+003,-4.510513e-004
3.517580e+003,-2.751242e-004
3.519508e+003,-2.888328e-004
3.521437e+003,-3.667383e-004
3.523365e+003,-5.134728e-004
3.525294e+003,-5.034118e-004
3.527222e+003,-3.443912e-004
3.529151e+003,-2.371418e-004
3.531079e+003,-1.448379e-004
3.533008e+003,-1.582525e-004
3.534936e+003,-2.760513e-004
3.536865e+003,-3.224070e-004
3.538793e+003,-6.987407e-005
3.540722e+003,1.053790e-004
3.542650e+003,-2.014503e-005
3.544579e+003,-1.024052e-004
3.546507e+003,-1.953806e-004
3.548436e+003,-4.242067e-004
3.550364e+003,-3.907065e-004
3.552293e+003,-4.167256e-004
3.554221e+003,-5.027168e-004
3.556150e+003,-4.492639e-004
3.558078e+003,-3.140965e-004
3.560007e+003,-2.509179e-004
3.561935e+003,-1.726603e-004
3.563864e+003,-2.764818e-004
3.565792e+003,-1.857097e-004
3.567721e+003,-8.478173e-005
3.569649e+003,-2.226037e-004
3.571578e+003,-5.358112e-004
3.573506e+003,-3.859063e-004
3.575435e+003,-4.820735e-005
3.577363e+003,-6.752192e-005
3.579292e+003,-1.590805e-004
3.581220e+003,-2.697929e-004
3.583149e+003,-4.755112e-004
3.585077e+003,-2.894288e-004
3.587006e+003,-2.175036e-004
3.588934e+003,-2.155166e-004
3.590863e+003,-1.059497e-004
3.592791e+003,-2.064091e-004
3.594720e+003,-3.383986e-004
3.596648e+003,-2.232329e-004
3.598577e+003,-8.703440e-005
3.600505e+003,-6.185684e-005
3.602434e+003,-1.054528e-004
3.604362e+003,4.208227e-005
3.606291e+003,4.337462e-005
3.608219e+003,-7.269000e-005
3.610148e+003,-2.206671e-005
3.612076e+003,-3.982529e-005
3.614005e+003,-2.520107e-004
3.615933e+003,-3.369419e-004
3.617862e+003,-1.121774e-004
3.619790e+003,-3.276833e-005
3.621719e+003,-1.901809e-004
3.623647e+003,-1.727265e-004
3.625576e+003,-9.266602e-005
3.627504e+003,1.090124e-005
3.629433e+003,-2.289502e-005
3.631361e+003,6.295513e-006
3.633290e+003,-2.849518e-006
3.635218e+003,-2.070828e-005
3.637146e+003,-1.792513e-004
3.639075e+003,-1.979308e-004
3.641004e+003,-6.606425e-005
3.642932e+003,1.948325e-005
3.644861e+003,-5.036082e-005
3.646789e+003,-9.177160e-005
3.648718e+003,-1.752106e-004
3.650646e+003,-2.479706e-004
3.652574e+003,-3.618086e-005
3.654503e+003,1.686519e-004
3.656432e+003,3.757562e-005
3.658360e+003,-2.244913e-004
3.660289e+003,-2.405528e-004
3.662217e+003,-2.463149e-004
3.664146e+003,-1.846168e-004
3.666074e+003,-6.782008e-005
3.668002e+003,-1.349009e-004
3.669931e+003,-1.291373e-004
3.671860e+003,-2.600244e-004
3.673788e+003,-2.987662e-004
3.675717e+003,-2.360821e-004
3.677645e+003,-5.321001e-005
3.679573e+003,-2.170400e-004
3.681502e+003,-1.722628e-004
3.683430e+003,-6.424215e-005
3.685359e+003,1.278168e-004
3.687288e+003,2.647554e-004
3.689216e+003,2.677393e-004
3.691145e+003,2.149937e-004
3.693073e+003,1.484990e-004
3.695001e+003,1.500998e-005
3.696930e+003,8.337325e-005
3.698858e+003,1.279825e-004
3.700787e+003,1.252979e-004
3.702716e+003,1.767729e-004
3.704644e+003,2.566990e-004
3.706573e+003,2.035238e-004
3.708501e+003,1.308992e-004
3.710429e+003,3.131280e-005
3.712358e+003,1.868800e-005
3.714286e+003,2.803230e-005
3.716215e+003,-4.085235e-005
3.718144e+003,1.070030e-004
3.720072e+003,2.524222e-004
3.722000e+003,2.659158e-004
3.723929e+003,8.973625e-005
3.725857e+003,1.945735e-004
3.727786e+003,4.775915e-004
3.729714e+003,3.460904e-004
3.731643e+003,-9.840698e-006
3.733572e+003,-8.686876e-005
3.735500e+003,1.038214e-004
3.737428e+003,4.582679e-005
3.739357e+003,1.117424e-004
3.741285e+003,2.856762e-004
3.743214e+003,1.034236e-004
3.745142e+003,-1.060276e-005
3.747071e+003,1.654035e-004
3.749000e+003,2.571300e-004
3.750928e+003,1.761431e-004
3.752856e+003,1.473389e-004
3.754785e+003,1.077321e-004
3.756713e+003,1.331530e-004
3.758642e+003,2.521901e-004
3.760570e+003,2.169165e-004
3.762499e+003,2.061095e-004
3.764427e+003,1.371966e-004
3.766356e+003,-1.709683e-005
3.768284e+003,1.557303e-006
3.770213e+003,9.994376e-005
3.772141e+003,2.281215e-004
3.774070e+003,3.683416e-004
3.775998e+003,3.482458e-004
3.777927e+003,1.812479e-004
3.779855e+003,6.295513e-006
3.781784e+003,9.891637e-005
3.783712e+003,2.473166e-004
3.785641e+003,3.799817e-004
3.787569e+003,3.510313e-004
3.789498e+003,1.811153e-004
3.791426e+003,1.525096e-004
3.793355e+003,1.088590e-004
3.795283e+003,1.690496e-004
3.797212e+003,3.046418e-004
3.799140e+003,2.521570e-004
3.801069e+003,2.686013e-004
3.802997e+003,3.297094e-004
3.804926e+003,2.738729e-004
3.806854e+003,2.022310e-004
3.808783e+003,9.845239e-005
3.810711e+003,2.267291e-004
3.812640e+003,4.160314e-004
3.814568e+003,3.903287e-004
3.816497e+003,3.698007e-004
3.818425e+003,4.149038e-004
3.820354e+003,8.345200e-004
3.822282e+003,8.693790e-004
3.824211e+003,6.351136e-004
3.826139e+003,4.128143e-004
3.828068e+003,4.724501e-004
3.829996e+003,5.475537e-004
3.831925e+003,5.791382e-004
3.833853e+003,5.421460e-004
3.835782e+003,4.364288e-004
3.837710e+003,3.748083e-004
3.839639e+003,3.570998e-004
3.841567e+003,3.029839e-004
3.843496e+003,1.603321e-004
3.845424e+003,2.299448e-004
3.847353e+003,3.984539e-004
3.849281e+003,6.778548e-004
3.851210e+003,8.146350e-004
3.853138e+003,4.332779e-004
3.855067e+003,3.158822e-004
3.856995e+003,5.210470e-004
3.858924e+003,5.002143e-004
3.860852e+003,4.437921e-004
3.862781e+003,6.485859e-004
3.864709e+003,9.361834e-004
3.866638e+003,8.640670e-004
3.868566e+003,6.624237e-004
3.870495e+003,5.541557e-004
3.872423e+003,4.802451e-004
3.874352e+003,6.813061e-004
3.876280e+003,6.782530e-004
3.878209e+003,4.376560e-004
3.880137e+003,4.521836e-004
3.882066e+003,5.832523e-004
3.883994e+003,6.374363e-004
3.885923e+003,6.772242e-004
3.887851e+003,6.920254e-004
3.889780e+003,7.222265e-004
3.891708e+003,5.417811e-004
3.893637e+003,2.900528e-004
3.895565e+003,4.760325e-004
3.897494e+003,7.105108e-004
3.899422e+003,8.529783e-004
3.901351e+003,9.222705e-004
3.903279e+003,9.684604e-004
3.905208e+003,9.643759e-004
3.907136e+003,8.082613e-004
3.909065e+003,6.674014e-004
3.910993e+003,6.417501e-004
3.912922e+003,6.017664e-004
3.914850e+003,6.068430e-004
3.916779e+003,5.610897e-004
3.918707e+003,7.932903e-004
3.920636e+003,8.698771e-004
3.922564e+003,5.836505e-004
3.924493e+003,6.913948e-004
3.926421e+003,8.328269e-004
3.928350e+003,7.910331e-004
3.930278e+003,8.427199e-004
3.932207e+003,9.102839e-004
3.934135e+003,1.188652e-003
3.936064e+003,1.314626e-003
3.937992e+003,9.931015e-004
3.939921e+003,7.058645e-004
3.941849e+003,7.356019e-004
3.943778e+003,7.834316e-004
3.945706e+003,6.333549e-004
3.947635e+003,6.975012e-004
3.949563e+003,1.048466e-003
3.951492e+003,1.159980e-003
3.953420e+003,1.105764e-003
3.955349e+003,1.089985e-003
3.957277e+003,1.087162e-003
3.959206e+003,1.015652e-003
3.961134e+003,8.870088e-004
3.963063e+003,1.053216e-003
3.964991e+003,1.108023e-003
3.966920e+003,1.028272e-003
3.968848e+003,1.077662e-003
3.970777e+003,1.112308e-003
3.972705e+003,1.020833e-003
3.974634e+003,1.038037e-003
3.976562e+003,1.126925e-003
3.978491e+003,1.059991e-003
3.980419e+003,1.029302e-003
3.982348e+003,9.727443e-004
3.984276e+003,9.674642e-004
3.986205e+003,7.532595e-004
3.988133e+003,8.969030e-004
3.990062e+003,1.175063e-003
3.991990e+003,1.283951e-003
3.993919e+003,1.274048e-003
3.995847e+003,1.083076e-003
3.997776e+003,9.087897e-004
3.999704e+003,9.145008e-004
4.001633e+003,0.000000e+000
