3.991989e+002,2.909073e-002
4.011274e+002,3.495670e-002
4.030559e+002,2.440185e-002
4.049844e+002,1.211475e-002
4.069129e+002,9.963203e-003
4.088414e+002,1.304631e-002
4.107699e+002,1.119600e-002
4.126984e+002,8.330492e-003
4.146269e+002,5.673159e-003
4.165554e+002,7.176289e-003
4.184839e+002,1.280439e-002
4.204124e+002,1.420069e-002
4.223409e+002,1.502789e-002
4.242694e+002,1.423883e-002
4.261979e+002,9.268715e-003
4.281264e+002,5.930648e-003
4.300549e+002,4.889979e-003
4.319834e+002,7.195381e-004
4.339119e+002,8.344204e-004
4.358404e+002,7.846789e-003
4.377689e+002,1.096555e-002
4.396974e+002,5.306934e-003
4.416259e+002,1.843243e-003
4.435544e+002,7.120879e-003
4.454829e+002,1.048922e-002
4.474114e+002,1.297461e-002
4.493399e+002,9.797484e-003
4.512684e+002,4.043391e-003
4.531969e+002,3.018973e-003
4.551254e+002,5.303144e-003
4.570539e+002,5.481250e-003
4.589824e+002,2.559011e-003
4.609109e+002,1.588664e-003
4.628394e+002,2.342421e-003
4.647679e+002,2.116683e-003
4.666964e+002,3.427856e-003
4.686249e+002,2.945276e-003
4.705533e+002,2.075531e-003
4.724819e+002,2.459566e-003
4.744103e+002,3.632892e-003
4.763389e+002,2.934268e-003
4.782673e+002,1.318248e-003
4.801959e+002,1.099419e-003
4.821243e+002,3.234833e-003
4.840529e+002,2.524416e-003
4.859813e+002,9.995775e-004
4.879099e+002,1.548298e-004
4.898383e+002,8.147346e-004
4.917668e+002,2.791446e-004
4.936953e+002,8.266522e-004
4.956238e+002,1.325926e-003
4.975523e+002,2.341883e-004
4.994808e+002,-1.526615e-003
5.014093e+002,-1.298865e-003
5.033378e+002,2.359785e-004
5.052663e+002,2.331295e-003
5.071948e+002,2.913128e-004
5.091233e+002,-1.283999e-003
5.110518e+002,-2.396785e-003
5.129803e+002,-2.638978e-003
5.149088e+002,-2.769737e-003
5.168373e+002,-2.953838e-003
5.187658e+002,-2.701580e-003
5.206943e+002,-1.492441e-003
5.226228e+002,-1.752365e-003
5.245513e+002,-3.197793e-003
5.264798e+002,-2.819744e-003
5.284083e+002,-1.451592e-003
5.303368e+002,-2.395401e-003
5.322653e+002,-3.641759e-003
5.341938e+002,-3.789164e-003
5.361223e+002,-3.527367e-003
5.380508e+002,-3.090226e-003
5.399792e+002,-1.136930e-003
5.419078e+002,-2.352364e-003
5.438363e+002,-3.149243e-003
5.457648e+002,-1.817998e-003
5.476932e+002,-1.704083e-003
5.496218e+002,-2.210865e-003
5.515503e+002,-2.042146e-003
5.534788e+002,-2.356055e-003
5.554072e+002,-1.148860e-003
5.573358e+002,-3.360810e-004
5.592643e+002,3.318979e-004
5.611927e+002,-1.036983e-003
5.631212e+002,-1.552335e-003
5.650497e+002,-1.091157e-003
5.669783e+002,-5.685061e-004
5.689067e+002,-4.310587e-004
5.708352e+002,-5.869041e-004
5.727637e+002,-2.470986e-003
5.746923e+002,-4.080708e-003
5.766207e+002,-2.729305e-003
5.785492e+002,-3.501271e-003
5.804777e+002,-1.504678e-002
5.824063e+002,-1.576619e-002
5.843347e+002,-4.453300e-003
5.862632e+002,-1.414274e-003
5.881917e+002,-3.076902e-003
5.901202e+002,-5.444051e-003
5.920487e+002,-6.778337e-003
5.939772e+002,-5.980578e-003
5.959057e+002,-4.222321e-003
5.978342e+002,-4.042828e-003
5.997627e+002,-3.521353e-003
6.016912e+002,-3.364025e-003
6.036197e+002,-3.081837e-003
6.055482e+002,-1.383063e-003
6.074767e+002,5.796359e-004
6.094052e+002,1.617764e-003
6.113337e+002,2.152544e-003
6.132622e+002,1.553847e-003
6.151907e+002,4.941439e-004
6.171192e+002,-3.210827e-004
6.190477e+002,1.222155e-004
6.209762e+002,5.643078e-004
6.229047e+002,-1.269099e-003
6.248332e+002,-4.257397e-003
6.267617e+002,-6.037275e-003
6.286902e+002,-5.890467e-003
6.306187e+002,-4.613150e-003
6.325472e+002,-4.040628e-003
6.344756e+002,-3.191281e-003
6.364042e+002,-2.751859e-003
6.383326e+002,-2.664632e-003
6.402612e+002,-3.226999e-003
6.421896e+002,-2.720447e-003
6.441182e+002,-2.647343e-003
6.460466e+002,-2.742837e-003
6.479752e+002,-2.298545e-003
6.499036e+002,-2.411086e-003
6.518322e+002,-3.044527e-003
6.537606e+002,-2.899534e-003
6.556891e+002,-2.496749e-003
6.576177e+002,-2.373619e-003
6.595461e+002,-2.808321e-003
6.614746e+002,-3.612087e-003
6.634031e+002,-4.001923e-003
6.653317e+002,-2.993097e-003
6.672601e+002,-1.097536e-003
6.691886e+002,-1.446276e-003
6.711171e+002,-2.590695e-003
6.730457e+002,-2.547216e-003
6.749741e+002,-2.612663e-003
6.769026e+002,-2.796700e-003
6.788311e+002,-2.775004e-003
6.807596e+002,-2.818559e-003
6.826881e+002,-2.771449e-003
6.846166e+002,-3.069828e-003
6.865451e+002,-3.553889e-003
6.884736e+002,-3.683288e-003
6.904021e+002,-4.017386e-003
6.923306e+002,-4.132698e-003
6.942591e+002,-3.766599e-003
6.961876e+002,-3.280111e-003
6.981161e+002,-3.247916e-003
7.000446e+002,-3.831862e-003
7.019731e+002,-4.341057e-003
7.039016e+002,-4.445559e-003
7.058301e+002,-4.610823e-003
7.077585e+002,-4.582726e-003
7.096871e+002,-4.712245e-003
7.116156e+002,-5.098213e-003
7.135441e+002,-5.710419e-003
7.154725e+002,-6.018388e-003
7.174011e+002,-6.163323e-003
7.193296e+002,-5.806223e-003
7.212581e+002,-5.585286e-003
7.231865e+002,-5.585777e-003
7.251151e+002,-5.708653e-003
7.270436e+002,-5.780688e-003
7.289720e+002,-5.347022e-003
7.309005e+002,-4.612593e-003
7.328290e+002,-4.686679e-003
7.347576e+002,-4.845690e-003
7.366860e+002,-4.601316e-003
7.386145e+002,-4.515246e-003
7.405430e+002,-3.906639e-003
7.424716e+002,-3.422676e-003
7.444000e+002,-3.363006e-003
7.463285e+002,-2.929287e-003
7.482570e+002,-2.966837e-003
7.501855e+002,-2.881563e-003
7.521140e+002,-1.558740e-003
7.540425e+002,-7.991531e-004
7.559710e+002,-1.058799e-003
7.578995e+002,-5.582147e-004
7.598280e+002,-1.166824e-004
7.617565e+002,-5.612543e-005
7.636850e+002,8.894087e-005
7.656135e+002,6.269176e-004
7.675420e+002,1.315490e-003
7.694705e+002,1.412280e-003
7.713990e+002,9.771610e-004
7.733275e+002,1.011068e-003
7.752560e+002,1.244141e-003
7.771844e+002,1.037871e-003
7.791130e+002,7.389541e-004
7.810415e+002,7.828341e-004
7.829700e+002,4.955702e-004
7.848984e+002,9.202298e-005
7.868270e+002,3.992835e-005
7.887555e+002,-1.620224e-005
7.906840e+002,-3.971286e-004
7.926124e+002,-9.514612e-004
7.945410e+002,-1.580728e-003
7.964695e+002,-2.014014e-003
7.983979e+002,-2.221545e-003
8.003264e+002,-2.292250e-003
8.022549e+002,-2.100481e-003
8.041835e+002,-2.071430e-003
8.061119e+002,-2.376124e-003
8.080404e+002,-2.061768e-003
8.099689e+002,-1.992279e-003
8.118975e+002,-1.855249e-003
8.138259e+002,-1.560292e-003
8.157545e+002,-2.106449e-003
8.176830e+002,-2.415270e-003
8.196115e+002,-2.676323e-003
8.215399e+002,-2.962987e-003
8.234684e+002,-3.199701e-003
8.253970e+002,-3.330981e-003
8.273254e+002,-3.318256e-003
8.292539e+002,-3.565654e-003
8.311824e+002,-3.580541e-003
8.331110e+002,-3.535813e-003
8.350394e+002,-3.462945e-003
8.369679e+002,-3.318618e-003
8.388964e+002,-3.365472e-003
8.408250e+002,-3.273797e-003
8.427534e+002,-3.467678e-003
8.446819e+002,-3.809233e-003
8.466104e+002,-3.370075e-003
8.485389e+002,-3.098286e-003
8.504674e+002,-3.250251e-003
8.523959e+002,-3.307306e-003
8.543244e+002,-3.169012e-003
8.562529e+002,-3.259821e-003
8.581814e+002,-3.300631e-003
8.601099e+002,-3.324142e-003
8.620384e+002,-3.187564e-003
8.639669e+002,-2.619547e-003
8.658954e+002,-2.616155e-003
8.678239e+002,-3.051009e-003
8.697524e+002,-2.994512e-003
8.716809e+002,-2.716035e-003
8.736094e+002,-2.457906e-003
8.755378e+002,-2.550807e-003
8.774664e+002,-2.412997e-003
8.793949e+002,-2.430658e-003
8.813234e+002,-2.602684e-003
8.832518e+002,-2.253322e-003
8.851804e+002,-2.023084e-003
8.871089e+002,-2.253949e-003
8.890374e+002,-2.753505e-003
8.909658e+002,-2.548072e-003
8.928943e+002,-1.903086e-003
8.948229e+002,-2.021171e-003
8.967513e+002,-2.242511e-003
8.986798e+002,-2.323626e-003
9.006083e+002,-2.403375e-003
9.025369e+002,-2.201766e-003
9.044653e+002,-2.449043e-003
9.063938e+002,-2.901015e-003
9.083223e+002,-3.034689e-003
9.102509e+002,-3.154835e-003
9.121793e+002,-3.117532e-003
9.141078e+002,-3.456831e-003
9.160364e+002,-3.994667e-003
9.179648e+002,-4.172442e-003
9.198933e+002,-4.178841e-003
9.218218e+002,-4.368612e-003
9.237504e+002,-4.739613e-003
9.256788e+002,-5.132727e-003
9.276073e+002,-5.304963e-003
9.295358e+002,-5.498071e-003
9.314644e+002,-5.682262e-003
9.333928e+002,-5.675623e-003
9.353213e+002,-5.521855e-003
9.372498e+002,-5.615739e-003
9.391783e+002,-6.123696e-003
9.411068e+002,-5.973911e-003
9.430353e+002,-5.730399e-003
9.449637e+002,-5.901842e-003
9.468923e+002,-5.789876e-003
9.488208e+002,-5.950445e-003
9.507493e+002,-6.142742e-003
9.526777e+002,-6.096122e-003
9.546063e+002,-5.697665e-003
9.565348e+002,-5.532259e-003
9.584633e+002,-5.585286e-003
9.603917e+002,-5.569650e-003
9.623203e+002,-5.417022e-003
9.642488e+002,-5.134594e-003
9.661772e+002,-4.926943e-003
9.681057e+002,-4.755115e-003
9.700343e+002,-4.746823e-003
9.719628e+002,-4.533937e-003
9.738912e+002,-4.429981e-003
9.758197e+002,-4.461597e-003
9.777483e+002,-4.280364e-003
9.796768e+002,-4.004484e-003
9.816052e+002,-4.051658e-003
9.835337e+002,-4.264681e-003
9.854623e+002,-4.142019e-003
9.873907e+002,-3.888579e-003
9.893192e+002,-3.789263e-003
9.912477e+002,-3.914783e-003
9.931763e+002,-3.784927e-003
9.951047e+002,-3.692980e-003
9.970332e+002,-3.774646e-003
9.989617e+002,-3.513234e-003
1.000890e+003,-3.110985e-003
1.002819e+003,-2.920203e-003
1.004747e+003,-2.845882e-003
1.006676e+003,-2.770066e-003
1.008604e+003,-2.776914e-003
1.010533e+003,-2.665818e-003
1.012461e+003,-2.431284e-003
1.014390e+003,-2.306059e-003
1.016318e+003,-2.119474e-003
1.018247e+003,-1.909684e-003
1.020175e+003,-1.825422e-003
1.022104e+003,-1.602913e-003
1.024032e+003,-1.231832e-003
1.025961e+003,-8.728338e-004
1.027889e+003,-8.223368e-004
1.029818e+003,-7.187780e-004
1.031746e+003,-3.777294e-004
1.033675e+003,-2.065747e-004
1.035603e+003,-9.949012e-005
1.037532e+003,1.741874e-004
1.039460e+003,3.501028e-004
1.041389e+003,2.238781e-004
1.043317e+003,2.985740e-004
1.045246e+003,5.542553e-004
1.047174e+003,6.274817e-004
1.049103e+003,6.593375e-004
1.051031e+003,2.300774e-004
1.052960e+003,2.473166e-004
1.054888e+003,3.889689e-004
1.056817e+003,3.668825e-004
1.058745e+003,4.148374e-004
1.060674e+003,4.298286e-004
1.062602e+003,4.058828e-004
1.064531e+003,3.128317e-004
1.066459e+003,2.764259e-004
1.068388e+003,3.738466e-004
1.070316e+003,6.606317e-004
1.072245e+003,9.890499e-004
1.074173e+003,9.425590e-004
1.076102e+003,9.055690e-004
1.078030e+003,1.030066e-003
1.079959e+003,9.629811e-004
1.081887e+003,1.036542e-003
1.083816e+003,1.412246e-003
1.085744e+003,1.719245e-003
1.087673e+003,1.925273e-003
1.089601e+003,2.180383e-003
1.091530e+003,2.348451e-003
1.093458e+003,2.363176e-003
1.095387e+003,2.544613e-003
1.097315e+003,2.676181e-003
1.099244e+003,2.624509e-003
1.101172e+003,2.825865e-003
1.103101e+003,2.965459e-003
1.105029e+003,3.059747e-003
1.106958e+003,3.119047e-003
1.108886e+003,3.405848e-003
1.110815e+003,3.543123e-003
1.112743e+003,3.268316e-003
1.114672e+003,3.099691e-003
1.116600e+003,3.418705e-003
1.118529e+003,3.645322e-003
1.120457e+003,3.464493e-003
1.122386e+003,3.385511e-003
1.124314e+003,3.257133e-003
1.126243e+003,2.897575e-003
1.128171e+003,2.570110e-003
1.130100e+003,2.544146e-003
1.132028e+003,2.335259e-003
1.133957e+003,2.042472e-003
1.135885e+003,1.822114e-003
1.137814e+003,1.286012e-003
1.139742e+003,5.168008e-004
1.141671e+003,3.514292e-004
1.143599e+003,1.927503e-004
1.145528e+003,-3.287971e-004
1.147456e+003,-6.843081e-004
1.149385e+003,-9.572800e-004
1.151313e+003,-1.432438e-003
1.153242e+003,-1.869040e-003
1.155170e+003,-2.066615e-003
1.157099e+003,-2.170381e-003
1.159027e+003,-2.342609e-003
1.160956e+003,-2.559305e-003
1.162884e+003,-2.585590e-003
1.164813e+003,-2.735989e-003
1.166741e+003,-2.895519e-003
1.168670e+003,-2.970128e-003
1.170598e+003,-2.938699e-003
1.172526e+003,-2.959893e-003
1.174455e+003,-3.092957e-003
1.176384e+003,-2.981481e-003
1.178312e+003,-2.833735e-003
1.180240e+003,-2.859345e-003
1.182169e+003,-2.948770e-003
1.184098e+003,-3.033834e-003
1.186026e+003,-3.178420e-003
1.187954e+003,-3.122861e-003
1.189883e+003,-3.144408e-003
1.191812e+003,-3.025641e-003
1.193740e+003,-2.952291e-003
1.195668e+003,-3.206378e-003
1.197597e+003,-3.410414e-003
1.199526e+003,-3.429580e-003
1.201454e+003,-3.297639e-003
1.203382e+003,-3.029293e-003
1.205311e+003,-2.953147e-003
1.207240e+003,-2.886862e-003
1.209168e+003,-2.758477e-003
1.211096e+003,-2.590728e-003
1.213025e+003,-2.371708e-003
1.214953e+003,-2.266540e-003
1.216882e+003,-2.313739e-003
1.218810e+003,-2.326691e-003
1.220739e+003,-2.202162e-003
1.222667e+003,-2.097019e-003
1.224596e+003,-1.984264e-003
1.226524e+003,-1.879399e-003
1.228453e+003,-1.813412e-003
1.230381e+003,-1.842316e-003
1.232310e+003,-1.689857e-003
1.234238e+003,-1.589576e-003
1.236167e+003,-1.583138e-003
1.238095e+003,-1.551279e-003
1.240024e+003,-1.573861e-003
1.241952e+003,-1.609185e-003
1.243881e+003,-1.924660e-003
1.245809e+003,-2.283614e-003
1.247738e+003,-2.325933e-003
1.249666e+003,-2.285361e-003
1.251595e+003,-2.365743e-003
1.253523e+003,-2.494805e-003
1.255452e+003,-2.690516e-003
1.257380e+003,-2.871392e-003
1.259309e+003,-2.955780e-003
1.261237e+003,-2.916221e-003
1.263166e+003,-2.792124e-003
1.265094e+003,-2.560392e-003
1.267023e+003,-2.244093e-003
1.268951e+003,-2.131377e-003
1.270880e+003,-2.051512e-003
1.272808e+003,-1.975062e-003
1.274737e+003,-1.842942e-003
1.276665e+003,-1.545270e-003
1.278594e+003,-1.242041e-003
1.280522e+003,-1.172190e-003
1.282451e+003,-1.111945e-003
1.284379e+003,-7.583721e-004
1.286308e+003,-4.784238e-004
1.288236e+003,-1.830270e-004
1.290165e+003,1.983857e-004
1.292093e+003,5.374020e-004
1.294022e+003,8.141370e-004
1.295950e+003,1.074473e-003
1.297879e+003,1.224570e-003
1.299807e+003,1.288770e-003
1.301736e+003,1.328618e-003
1.303664e+003,1.238658e-003
1.305593e+003,1.138120e-003
1.307521e+003,1.245437e-003
1.309450e+003,1.226497e-003
1.311378e+003,9.149324e-004
1.313307e+003,5.873997e-004
1.315235e+003,3.852878e-004
1.317164e+003,3.264598e-004
1.319092e+003,1.632821e-004
1.321021e+003,-1.284417e-004
1.322949e+003,-4.524084e-004
1.324878e+003,-7.181495e-004
1.326806e+003,-8.799102e-004
1.328735e+003,-8.797449e-004
1.330663e+003,-8.670469e-004
1.332592e+003,-9.617432e-004
1.334520e+003,-1.074036e-003
1.336449e+003,-9.794635e-004
1.338377e+003,-7.717016e-004
1.340306e+003,-7.670379e-004
1.342234e+003,-9.059331e-004
1.344163e+003,-1.045247e-003
1.346091e+003,-1.105104e-003
1.348020e+003,-9.910672e-004
1.349948e+003,-1.036785e-003
1.351877e+003,-1.196345e-003
1.353805e+003,-1.253505e-003
1.355734e+003,-1.296255e-003
1.357662e+003,-1.359513e-003
1.359591e+003,-1.414076e-003
1.361519e+003,-1.469293e-003
1.363448e+003,-1.617801e-003
1.365376e+003,-1.922549e-003
1.367305e+003,-2.089797e-003
1.369233e+003,-2.262881e-003
1.371162e+003,-2.308169e-003
1.373090e+003,-2.072650e-003
1.375019e+003,-2.187392e-003
1.376947e+003,-2.408417e-003
1.378876e+003,-2.440147e-003
1.380804e+003,-2.485449e-003
1.382733e+003,-2.595109e-003
1.384661e+003,-2.561611e-003
1.386590e+003,-2.444661e-003
1.388518e+003,-2.701283e-003
1.390447e+003,-3.200063e-003
1.392375e+003,-3.408244e-003
1.394304e+003,-3.291785e-003
1.396232e+003,-3.552016e-003
1.398161e+003,-3.667584e-003
1.400089e+003,-3.803846e-003
1.402018e+003,-4.102273e-003
1.403946e+003,-4.222977e-003
1.405875e+003,-4.263500e-003
1.407803e+003,-4.394263e-003
1.409732e+003,-4.477174e-003
1.411660e+003,-4.370219e-003
1.413589e+003,-4.148911e-003
1.415517e+003,-3.738414e-003
1.417446e+003,-3.001126e-003
1.419374e+003,-2.332458e-003
1.421303e+003,-2.108065e-003
1.423231e+003,-1.598258e-003
1.425160e+003,-1.001348e-003
1.427088e+003,-6.276351e-004
1.429017e+003,-1.886574e-004
1.430945e+003,1.856566e-004
1.432874e+003,5.576725e-004
1.434802e+003,1.250422e-003
1.436731e+003,1.934759e-003
1.438659e+003,1.872792e-003
1.440588e+003,2.070903e-003
1.442516e+003,2.589709e-003
1.444445e+003,3.118980e-003
1.446373e+003,3.781837e-003
1.448302e+003,4.281844e-003
1.450230e+003,4.500743e-003
1.452159e+003,4.798107e-003
1.454087e+003,5.380563e-003
1.456016e+003,6.632229e-003
1.457944e+003,7.029948e-003
1.459873e+003,6.356000e-003
1.461801e+003,6.048227e-003
1.463730e+003,6.243513e-003
1.465658e+003,6.218875e-003
1.467587e+003,5.717641e-003
1.469515e+003,5.536887e-003
1.471444e+003,5.788990e-003
1.473372e+003,5.648956e-003
1.475301e+003,4.991491e-003
1.477229e+003,4.279703e-003
1.479158e+003,3.598880e-003
1.481086e+003,3.223750e-003
1.483015e+003,2.681049e-003
1.484943e+003,2.298950e-003
1.486872e+003,2.143953e-003
1.488800e+003,1.931730e-003
1.490729e+003,1.556241e-003
1.492657e+003,8.295735e-004
1.494586e+003,4.611724e-004
1.496514e+003,3.688390e-004
1.498443e+003,-2.975335e-005
1.500371e+003,-5.918013e-004
1.502300e+003,-9.768187e-004
1.504228e+003,-7.029658e-004
1.506157e+003,4.870977e-005
1.508085e+003,-5.175765e-004
1.510014e+003,-1.430424e-003
1.511942e+003,-1.764872e-003
1.513871e+003,-1.826412e-003
1.515799e+003,-1.547647e-003
1.517728e+003,-1.430028e-003
1.519656e+003,-1.191851e-003
1.521585e+003,-7.941260e-004
1.523513e+003,-1.099783e-003
1.525442e+003,-1.114887e-003
1.527370e+003,-1.176849e-003
1.529299e+003,-1.176387e-003
1.531227e+003,-9.556931e-004
1.533156e+003,-3.270092e-004
1.535084e+003,-2.921108e-004
1.537013e+003,4.145266e-005
1.538941e+003,1.216828e-003
1.540870e+003,1.779393e-003
1.542798e+003,1.648495e-003
1.544727e+003,1.407426e-003
1.546655e+003,1.162173e-003
1.548584e+003,1.461148e-003
1.550512e+003,1.800487e-003
1.552441e+003,2.156640e-003
1.554369e+003,2.912118e-003
1.556298e+003,3.731236e-003
1.558226e+003,5.263399e-003
1.560155e+003,5.443435e-003
1.562083e+003,4.724576e-003
1.564012e+003,4.851479e-003
1.565940e+003,4.897854e-003
1.567869e+003,5.137583e-003
1.569797e+003,5.585014e-003
1.571726e+003,5.301903e-003
1.573654e+003,5.356008e-003
1.575583e+003,5.947947e-003
1.577511e+003,5.702970e-003
1.579440e+003,5.245591e-003
1.581368e+003,5.244585e-003
1.583297e+003,5.183653e-003
1.585225e+003,5.070766e-003
1.587154e+003,4.871114e-003
1.589082e+003,4.607856e-003
1.591010e+003,4.312062e-003
1.592939e+003,4.024094e-003
1.594868e+003,3.774651e-003
1.596796e+003,3.353655e-003
1.598724e+003,2.865954e-003
1.600653e+003,2.524583e-003
1.602582e+003,2.219912e-003
1.604510e+003,1.820749e-003
1.606438e+003,1.433223e-003
1.608367e+003,1.101147e-003
1.610296e+003,6.388300e-004
1.612224e+003,1.047825e-004
1.614152e+003,5.599689e-006
1.616081e+003,2.625009e-004
1.618010e+003,-1.962748e-004
1.619938e+003,-7.303887e-004
1.621866e+003,-7.236737e-004
1.623795e+003,-9.556931e-004
1.625724e+003,-1.234442e-003
1.627652e+003,-1.415661e-003
1.629580e+003,-1.730188e-003
1.631509e+003,-1.990828e-003
1.633438e+003,-1.664377e-003
1.635366e+003,-1.160624e-003
1.637294e+003,-1.686458e-003
1.639223e+003,-2.384428e-003
1.641151e+003,-2.782313e-003
1.643080e+003,-2.953673e-003
1.645008e+003,-2.568396e-003
1.646937e+003,-2.395500e-003
1.648865e+003,-3.065288e-003
1.650794e+003,-2.962559e-003
1.652722e+003,-1.747415e-003
1.654651e+003,-2.557691e-003
1.656579e+003,-3.665119e-003
1.658508e+003,-3.919315e-003
1.660436e+003,-3.828742e-003
1.662365e+003,-3.541105e-003
1.664293e+003,-3.807919e-003
1.666222e+003,-4.094034e-003
1.668150e+003,-3.691797e-003
1.670079e+003,-3.493152e-003
1.672007e+003,-3.990761e-003
1.673936e+003,-4.100337e-003
1.675864e+003,-4.230131e-003
1.677793e+003,-4.928844e-003
1.679721e+003,-5.255699e-003
1.681650e+003,-5.258253e-003
1.683578e+003,-4.628821e-003
1.685507e+003,-5.154764e-003
1.687435e+003,-6.010970e-003
1.689364e+003,-6.381093e-003
1.691292e+003,-6.666106e-003
1.693221e+003,-6.617943e-003
1.695149e+003,-6.173581e-003
1.697078e+003,-6.245669e-003
1.699006e+003,-5.884616e-003
1.700935e+003,-5.809394e-003
1.702863e+003,-6.709012e-003
1.704792e+003,-6.816045e-003
1.706720e+003,-7.059959e-003
1.708649e+003,-7.346580e-003
1.710577e+003,-7.583327e-003
1.712506e+003,-7.598402e-003
1.714434e+003,-7.305106e-003
1.716363e+003,-6.911051e-003
1.718291e+003,-6.996125e-003
1.720220e+003,-7.681648e-003
1.722148e+003,-7.996095e-003
1.724077e+003,-8.148436e-003
1.726005e+003,-8.179198e-003
1.727934e+003,-8.055815e-003
1.729862e+003,-8.044334e-003
1.731791e+003,-7.749256e-003
1.733719e+003,-7.205558e-003
1.735648e+003,-7.692944e-003
1.737576e+003,-8.045993e-003
1.739505e+003,-7.926672e-003
1.741433e+003,-8.099104e-003
1.743362e+003,-8.075817e-003
1.745290e+003,-7.973324e-003
1.747219e+003,-7.737408e-003
1.749147e+003,-7.499898e-003
1.751076e+003,-7.373456e-003
1.753004e+003,-7.612597e-003
1.754933e+003,-7.686694e-003
1.756861e+003,-7.579810e-003
1.758790e+003,-7.715534e-003
1.760718e+003,-7.602016e-003
1.762647e+003,-7.524062e-003
1.764575e+003,-7.728815e-003
1.766504e+003,-7.673119e-003
1.768432e+003,-7.539335e-003
1.770361e+003,-7.364400e-003
1.772289e+003,-7.053374e-003
1.774218e+003,-7.324654e-003
1.776146e+003,-7.570465e-003
1.778075e+003,-7.661921e-003
1.780003e+003,-7.709773e-003
1.781932e+003,-7.783527e-003
1.783860e+003,-7.782323e-003
1.785789e+003,-7.768947e-003
1.787717e+003,-7.821604e-003
1.789646e+003,-7.572647e-003
1.791574e+003,-7.189882e-003
1.793503e+003,-7.242089e-003
1.795431e+003,-7.482345e-003
1.797360e+003,-7.498759e-003
1.799288e+003,-7.475961e-003
1.801217e+003,-7.490063e-003
1.803145e+003,-7.674193e-003
1.805074e+003,-7.774936e-003
1.807002e+003,-7.811646e-003
1.808931e+003,-7.814998e-003
1.810859e+003,-7.771941e-003
1.812788e+003,-7.816625e-003
1.814716e+003,-7.878973e-003
1.816645e+003,-7.876370e-003
1.818573e+003,-7.868853e-003
1.820502e+003,-7.894949e-003
1.822430e+003,-7.885480e-003
1.824359e+003,-7.734251e-003
1.826287e+003,-7.731452e-003
1.828216e+003,-7.678621e-003
1.830144e+003,-7.707397e-003
1.832073e+003,-8.074777e-003
1.834001e+003,-8.108015e-003
1.835930e+003,-8.065963e-003
1.837858e+003,-8.100079e-003
1.839787e+003,-8.082908e-003
1.841715e+003,-7.929339e-003
1.843644e+003,-7.616211e-003
1.845572e+003,-7.780794e-003
1.847501e+003,-8.039715e-003
1.849429e+003,-8.068467e-003
1.851358e+003,-8.057279e-003
1.853286e+003,-7.951202e-003
1.855215e+003,-7.944598e-003
1.857143e+003,-7.950714e-003
1.859072e+003,-7.899764e-003
1.861000e+003,-7.802241e-003
1.862929e+003,-7.835500e-003
1.864857e+003,-7.800255e-003
1.866786e+003,-7.711889e-003
1.868714e+003,-7.594462e-003
1.870643e+003,-7.750525e-003
1.872571e+003,-7.890980e-003
1.874500e+003,-7.845164e-003
1.876428e+003,-7.823817e-003
1.878357e+003,-7.789027e-003
1.880285e+003,-7.786684e-003
1.882214e+003,-7.818480e-003
1.884142e+003,-7.762210e-003
1.886071e+003,-7.701179e-003
1.887999e+003,-7.592932e-003
1.889928e+003,-7.582122e-003
1.891856e+003,-7.773731e-003
1.893785e+003,-7.752055e-003
1.895713e+003,-7.663255e-003
1.897642e+003,-7.677384e-003
1.899570e+003,-7.657851e-003
1.901499e+003,-7.606086e-003
1.903427e+003,-7.667325e-003
1.905356e+003,-7.601495e-003
1.907284e+003,-7.508138e-003
1.909213e+003,-7.589090e-003
1.911141e+003,-7.680736e-003
1.913070e+003,-7.688940e-003
1.914998e+003,-7.589838e-003
1.916927e+003,-7.417041e-003
1.918855e+003,-7.403490e-003
1.920784e+003,-7.538716e-003
1.922712e+003,-7.630276e-003
1.924641e+003,-7.718952e-003
1.926569e+003,-7.617839e-003
1.928498e+003,-7.686075e-003
1.930426e+003,-7.811028e-003
1.932355e+003,-7.833059e-003
1.934283e+003,-7.835760e-003
1.936212e+003,-7.858734e-003
1.938140e+003,-7.853950e-003
1.940069e+003,-7.777376e-003
1.941997e+003,-7.609569e-003
1.943926e+003,-7.668887e-003
1.945854e+003,-7.819521e-003
1.947783e+003,-7.857660e-003
1.949711e+003,-7.875426e-003
1.951640e+003,-7.886750e-003
1.953568e+003,-7.864623e-003
1.955497e+003,-7.907183e-003
1.957425e+003,-7.941149e-003
1.959354e+003,-7.869472e-003
1.961282e+003,-7.841747e-003
1.963211e+003,-7.892801e-003
1.965139e+003,-7.916781e-003
1.967068e+003,-7.900773e-003
1.968996e+003,-8.026542e-003
1.970925e+003,-8.004032e-003
1.972853e+003,-7.902367e-003
1.974782e+003,-7.887726e-003
1.976710e+003,-7.873832e-003
1.978639e+003,-7.747433e-003
1.980567e+003,-7.746912e-003
1.982496e+003,-7.835662e-003
1.984424e+003,-7.810930e-003
1.986353e+003,-7.707755e-003
1.988281e+003,-7.678002e-003
1.990210e+003,-7.603969e-003
1.992138e+003,-7.496023e-003
1.994067e+003,-7.564669e-003
1.995995e+003,-7.638122e-003
1.997924e+003,-7.704239e-003
1.999852e+003,-7.653065e-003
2.001781e+003,-7.664818e-003
2.003709e+003,-7.676439e-003
2.005638e+003,-7.661465e-003
2.007566e+003,-7.549593e-003
2.009495e+003,-7.481563e-003
2.011423e+003,-7.507682e-003
2.013352e+003,-7.465344e-003
2.015280e+003,-7.480651e-003
2.017208e+003,-7.478046e-003
2.019137e+003,-7.455312e-003
2.021066e+003,-7.455801e-003
2.022994e+003,-7.524974e-003
2.024922e+003,-7.548974e-003
2.026851e+003,-7.494037e-003
2.028780e+003,-7.476841e-003
2.030708e+003,-7.488077e-003
2.032636e+003,-7.441144e-003
2.034565e+003,-7.418246e-003
2.036494e+003,-7.420103e-003
2.038422e+003,-7.428637e-003
2.040350e+003,-7.441046e-003
2.042279e+003,-7.470066e-003
2.044208e+003,-7.517810e-003
2.046136e+003,-7.505174e-003
2.048064e+003,-7.478111e-003
2.049993e+003,-7.464204e-003
2.051921e+003,-7.462087e-003
2.053850e+003,-7.384662e-003
2.055778e+003,-7.351792e-003
2.057707e+003,-7.361012e-003
2.059635e+003,-7.352998e-003
2.061564e+003,-7.334591e-003
2.063492e+003,-7.419647e-003
2.065421e+003,-7.436617e-003
2.067349e+003,-7.306735e-003
2.069278e+003,-7.255579e-003
2.071206e+003,-7.237331e-003
2.073135e+003,-7.151783e-003
2.075063e+003,-7.085778e-003
2.076992e+003,-7.077954e-003
2.078920e+003,-7.087147e-003
2.080849e+003,-7.118635e-003
2.082777e+003,-7.173978e-003
2.084706e+003,-7.200833e-003
2.086634e+003,-7.233323e-003
2.088563e+003,-7.160844e-003
2.090491e+003,-7.010796e-003
2.092420e+003,-6.949367e-003
2.094348e+003,-6.950541e-003
2.096277e+003,-6.903550e-003
2.098205e+003,-6.832778e-003
2.100134e+003,-6.788384e-003
2.102062e+003,-6.762580e-003
2.103991e+003,-6.841486e-003
2.105919e+003,-6.800714e-003
2.107848e+003,-6.648943e-003
2.109776e+003,-6.664703e-003
2.111705e+003,-6.725324e-003
2.113633e+003,-6.614940e-003
2.115562e+003,-6.531881e-003
2.117490e+003,-6.531522e-003
2.119419e+003,-6.460950e-003
2.121347e+003,-6.468295e-003
2.123276e+003,-6.537495e-003
2.125204e+003,-6.405189e-003
2.127133e+003,-6.344164e-003
2.129061e+003,-6.308896e-003
2.130990e+003,-6.244755e-003
2.132918e+003,-6.316832e-003
2.134847e+003,-6.394153e-003
2.136775e+003,-6.325845e-003
2.138704e+003,-6.278199e-003
2.140632e+003,-6.219540e-003
2.142561e+003,-6.206997e-003
2.144489e+003,-6.269707e-003
2.146418e+003,-6.252920e-003
2.148346e+003,-6.225517e-003
2.150275e+003,-6.215326e-003
2.152203e+003,-6.206017e-003
2.154132e+003,-6.203633e-003
2.156060e+003,-6.252822e-003
2.157989e+003,-6.218364e-003
2.159917e+003,-6.215980e-003
2.161846e+003,-6.258146e-003
2.163774e+003,-6.242730e-003
2.165703e+003,-6.211015e-003
2.167631e+003,-6.185700e-003
2.169560e+003,-6.165904e-003
2.171488e+003,-6.195304e-003
2.173417e+003,-6.260073e-003
2.175345e+003,-6.259779e-003
2.177274e+003,-6.210329e-003
2.179202e+003,-6.127519e-003
2.181131e+003,-6.172176e-003
2.183059e+003,-6.220226e-003
2.184988e+003,-6.109615e-003
2.186916e+003,-6.024139e-003
2.188845e+003,-6.138920e-003
2.190773e+003,-6.227248e-003
2.192702e+003,-6.197916e-003
2.194630e+003,-6.148819e-003
2.196559e+003,-6.028747e-003
2.198487e+003,-5.977636e-003
2.200416e+003,-6.049366e-003
2.202344e+003,-6.095632e-003
2.204273e+003,-6.060737e-003
2.206201e+003,-6.036752e-003
2.208130e+003,-5.986983e-003
2.210058e+003,-5.990807e-003
2.211987e+003,-6.098017e-003
2.213915e+003,-6.094357e-003
2.215844e+003,-5.968061e-003
2.217772e+003,-5.912727e-003
2.219701e+003,-5.960936e-003
2.221629e+003,-6.034302e-003
2.223558e+003,-6.032832e-003
2.225486e+003,-5.921650e-003
2.227415e+003,-5.864055e-003
2.229343e+003,-5.902464e-003
2.231272e+003,-5.983715e-003
2.233200e+003,-5.927468e-003
2.235129e+003,-5.858465e-003
2.237057e+003,-5.912563e-003
2.238986e+003,-5.948582e-003
2.240914e+003,-5.993356e-003
2.242843e+003,-5.943908e-003
2.244771e+003,-5.954661e-003
2.246700e+003,-5.988748e-003
2.248628e+003,-6.017767e-003
2.250557e+003,-6.147316e-003
2.252485e+003,-6.165349e-003
2.254414e+003,-6.029237e-003
2.256342e+003,-5.972048e-003
2.258271e+003,-6.085144e-003
2.260199e+003,-6.119776e-003
2.262128e+003,-6.041817e-003
2.264056e+003,-6.075440e-003
2.265985e+003,-6.187202e-003
2.267913e+003,-6.241293e-003
2.269842e+003,-6.248250e-003
2.271770e+003,-6.237831e-003
2.273699e+003,-6.275129e-003
2.275627e+003,-6.326628e-003
2.277556e+003,-6.350629e-003
2.279484e+003,-6.376457e-003
2.281413e+003,-6.361470e-003
2.283341e+003,-6.381257e-003
2.285270e+003,-6.325486e-003
2.287198e+003,-6.349976e-003
2.289127e+003,-6.369175e-003
2.291055e+003,-6.395231e-003
2.292984e+003,-6.402316e-003
2.294912e+003,-6.402479e-003
2.296841e+003,-6.356572e-003
2.298769e+003,-6.270328e-003
2.300698e+003,-6.210002e-003
2.302626e+003,-6.154928e-003
2.304555e+003,-6.150093e-003
2.306483e+003,-6.060345e-003
2.308412e+003,-5.945967e-003
2.310340e+003,-5.786900e-003
2.312269e+003,-5.619402e-003
2.314197e+003,-5.441172e-003
2.316125e+003,-5.181612e-003
2.318054e+003,-4.918033e-003
2.319983e+003,-4.653145e-003
2.321911e+003,-4.392163e-003
2.323840e+003,-4.159807e-003
2.325768e+003,-3.990367e-003
2.327697e+003,-3.768175e-003
2.329625e+003,-3.367675e-003
2.331553e+003,-3.152631e-003
2.333482e+003,-3.144408e-003
2.335411e+003,-3.167171e-003
2.337339e+003,-3.084666e-003
2.339268e+003,-3.066999e-003
2.341196e+003,-3.128223e-003
2.343125e+003,-3.294317e-003
2.345053e+003,-3.683748e-003
2.346981e+003,-4.313992e-003
2.348910e+003,-4.820558e-003
2.350839e+003,-4.439131e-003
2.352767e+003,-3.526940e-003
2.354696e+003,-2.825044e-003
2.356624e+003,-2.330811e-003
2.358552e+003,-2.118452e-003
2.360481e+003,-2.132729e-003
2.362409e+003,-2.153797e-003
2.364338e+003,-2.174106e-003
2.366267e+003,-2.386734e-003
2.368195e+003,-2.788568e-003
2.370124e+003,-3.159112e-003
2.372052e+003,-3.602131e-003
2.373980e+003,-4.099089e-003
2.375909e+003,-4.626461e-003
2.377838e+003,-5.080071e-003
2.379766e+003,-5.397159e-003
2.381695e+003,-5.550055e-003
2.383623e+003,-5.575603e-003
2.385552e+003,-5.645012e-003
2.387480e+003,-5.705939e-003
2.389408e+003,-5.628821e-003
2.391337e+003,-5.591305e-003
2.393266e+003,-5.593922e-003
2.395194e+003,-5.545246e-003
2.397123e+003,-5.488419e-003
2.399051e+003,-5.478898e-003
2.400979e+003,-5.482726e-003
2.402908e+003,-5.466432e-003
2.404836e+003,-5.473630e-003
2.406765e+003,-5.492901e-003
2.408694e+003,-5.546849e-003
2.410622e+003,-5.484067e-003
2.412551e+003,-5.395163e-003
2.414479e+003,-5.315896e-003
2.416407e+003,-5.233046e-003
2.418336e+003,-5.214811e-003
2.420264e+003,-5.260184e-003
2.422193e+003,-5.270594e-003
2.424122e+003,-5.108201e-003
2.426050e+003,-5.039067e-003
2.427979e+003,-5.118451e-003
2.429907e+003,-5.049613e-003
2.431835e+003,-4.900308e-003
2.433764e+003,-4.834386e-003
2.435692e+003,-4.799881e-003
2.437621e+003,-4.834583e-003
2.439550e+003,-4.866791e-003
2.441478e+003,-4.806172e-003
2.443406e+003,-4.745217e-003
2.445335e+003,-4.735811e-003
2.447263e+003,-4.645769e-003
2.449192e+003,-4.617347e-003
2.451121e+003,-4.653702e-003
2.453049e+003,-4.621379e-003
2.454978e+003,-4.509311e-003
2.456906e+003,-4.343255e-003
2.458834e+003,-4.289485e-003
2.460763e+003,-4.339679e-003
2.462691e+003,-4.418666e-003
2.464620e+003,-4.368940e-003
2.466549e+003,-4.265863e-003
2.468477e+003,-4.170473e-003
2.470406e+003,-4.170899e-003
2.472334e+003,-4.258579e-003
2.474262e+003,-4.233642e-003
2.476191e+003,-4.159971e-003
2.478119e+003,-4.121408e-003
2.480048e+003,-4.089111e-003
2.481977e+003,-4.093312e-003
2.483905e+003,-4.121835e-003
2.485833e+003,-4.079198e-003
2.487762e+003,-4.054481e-003
2.489690e+003,-4.117273e-003
2.491619e+003,-4.028285e-003
2.493547e+003,-3.892683e-003
2.495476e+003,-3.822535e-003
2.497405e+003,-3.826706e-003
2.499333e+003,-3.911204e-003
2.501261e+003,-4.030878e-003
2.503190e+003,-4.055400e-003
2.505118e+003,-3.941413e-003
2.507047e+003,-3.892256e-003
2.508975e+003,-3.867528e-003
2.510904e+003,-3.875968e-003
2.512833e+003,-3.808478e-003
2.514761e+003,-3.771723e-003
2.516689e+003,-3.876625e-003
2.518618e+003,-3.809693e-003
2.520546e+003,-3.669489e-003
2.522475e+003,-3.671329e-003
2.524403e+003,-3.774351e-003
2.526332e+003,-3.788311e-003
2.528260e+003,-3.688611e-003
2.530189e+003,-3.679214e-003
2.532117e+003,-3.803584e-003
2.534046e+003,-3.874326e-003
2.535974e+003,-3.750010e-003
2.537903e+003,-3.693440e-003
2.539831e+003,-3.663050e-003
2.541760e+003,-3.686574e-003
2.543688e+003,-3.684865e-003
2.545617e+003,-3.621058e-003
2.547545e+003,-3.495157e-003
2.549474e+003,-3.474417e-003
2.551402e+003,-3.527005e-003
2.553331e+003,-3.541105e-003
2.555259e+003,-3.426884e-003
2.557188e+003,-3.352616e-003
2.559116e+003,-3.444307e-003
2.561045e+003,-3.421657e-003
2.562973e+003,-3.385198e-003
2.564902e+003,-3.300072e-003
2.566830e+003,-3.191642e-003
2.568759e+003,-3.239628e-003
2.570687e+003,-3.245088e-003
2.572616e+003,-3.154408e-003
2.574544e+003,-3.055714e-003
2.576473e+003,-3.096017e-003
2.578401e+003,-3.144145e-003
2.580330e+003,-3.159408e-003
2.582258e+003,-3.174769e-003
2.584187e+003,-3.138092e-003
2.586115e+003,-3.124506e-003
2.588044e+003,-3.160526e-003
2.589972e+003,-3.141612e-003
2.591901e+003,-3.078086e-003
2.593829e+003,-3.098451e-003
2.595758e+003,-3.165361e-003
2.597686e+003,-3.187531e-003
2.599615e+003,-3.146875e-003
2.601543e+003,-3.088022e-003
2.603472e+003,-3.021231e-003
2.605400e+003,-3.016197e-003
2.607329e+003,-2.997474e-003
2.609257e+003,-2.916089e-003
2.611186e+003,-2.838014e-003
2.613114e+003,-2.825308e-003
2.615043e+003,-2.813621e-003
2.616971e+003,-2.876988e-003
2.618900e+003,-2.875243e-003
2.620828e+003,-2.869845e-003
2.622757e+003,-2.803745e-003
2.624685e+003,-2.788305e-003
2.626614e+003,-2.822641e-003
2.628542e+003,-2.787647e-003
2.630471e+003,-2.767070e-003
2.632399e+003,-2.817012e-003
2.634328e+003,-2.784058e-003
2.636256e+003,-2.729535e-003
2.638185e+003,-2.668815e-003
2.640113e+003,-2.606834e-003
2.642042e+003,-2.595735e-003
2.643970e+003,-2.511310e-003
2.645899e+003,-2.461233e-003
2.647827e+003,-2.447857e-003
2.649756e+003,-2.350848e-003
2.651684e+003,-2.200513e-003
2.653613e+003,-2.186667e-003
2.655541e+003,-2.241423e-003
2.657470e+003,-2.358460e-003
2.659398e+003,-2.320528e-003
2.661327e+003,-2.243631e-003
2.663255e+003,-2.159831e-003
2.665184e+003,-2.077399e-003
2.667112e+003,-1.913774e-003
2.669041e+003,-1.772825e-003
2.670969e+003,-1.797838e-003
2.672898e+003,-1.815425e-003
2.674826e+003,-1.774013e-003
2.676755e+003,-1.717977e-003
2.678683e+003,-1.713687e-003
2.680612e+003,-1.637343e-003
2.682540e+003,-1.566895e-003
2.684469e+003,-1.536719e-003
2.686397e+003,-1.358423e-003
2.688326e+003,-1.261137e-003
2.690254e+003,-1.241314e-003
2.692183e+003,-1.269727e-003
2.694111e+003,-1.306562e-003
2.696040e+003,-1.196808e-003
2.697968e+003,-1.004819e-003
2.699897e+003,-9.116203e-004
2.701825e+003,-9.239863e-004
2.703754e+003,-9.609498e-004
2.705682e+003,-8.629465e-004
2.707611e+003,-7.245668e-004
2.709539e+003,-6.778901e-004
2.711468e+003,-6.950926e-004
2.713396e+003,-6.352449e-004
2.715325e+003,-6.053675e-004
2.717253e+003,-5.929925e-004
2.719182e+003,-4.570092e-004
2.721110e+003,-3.624014e-004
2.723039e+003,-2.910844e-004
2.724967e+003,-2.050182e-004
2.726896e+003,-1.988250e-004
2.728824e+003,-1.723622e-004
2.730753e+003,-1.468584e-004
2.732681e+003,-6.921149e-005
2.734610e+003,1.222663e-005
2.736538e+003,6.726262e-006
2.738467e+003,3.131280e-005
2.740395e+003,9.573479e-005
2.742324e+003,2.391611e-004
2.744252e+003,3.988518e-004
2.746181e+003,5.099007e-004
2.748109e+003,5.995765e-004
2.750038e+003,6.783525e-004
2.751966e+003,7.045701e-004
2.753895e+003,7.643456e-004
2.755823e+003,9.375117e-004
2.757752e+003,1.104502e-003
2.759680e+003,1.238060e-003
2.761609e+003,1.417665e-003
2.763537e+003,1.707901e-003
2.765466e+003,1.970006e-003
2.767394e+003,2.265008e-003
2.769323e+003,2.534381e-003
2.771251e+003,2.880697e-003
2.773180e+003,3.292487e-003
2.775108e+003,3.617590e-003
2.777037e+003,4.079277e-003
2.778965e+003,4.564124e-003
2.780894e+003,5.190762e-003
2.782822e+003,5.886681e-003
2.784750e+003,6.485567e-003
2.786679e+003,7.066756e-003
2.788608e+003,7.674186e-003
2.790536e+003,8.321002e-003
2.792465e+003,9.017359e-003
2.794393e+003,9.703618e-003
2.796322e+003,1.035608e-002
2.798250e+003,1.100072e-002
2.800178e+003,1.160071e-002
2.802107e+003,1.215390e-002
2.804036e+003,1.260958e-002
2.805964e+003,1.292484e-002
2.807893e+003,1.323107e-002
2.809821e+003,1.357259e-002
2.811750e+003,1.376872e-002
2.813678e+003,1.376260e-002
2.815606e+003,1.376527e-002
2.817535e+003,1.371605e-002
2.819464e+003,1.360882e-002
2.821392e+003,1.343986e-002
2.823321e+003,1.322150e-002
2.825249e+003,1.295788e-002
2.827177e+003,1.257049e-002
2.829106e+003,1.208497e-002
2.831034e+003,1.153865e-002
2.832963e+003,1.106519e-002
2.834892e+003,1.081884e-002
2.836820e+003,1.041139e-002
2.838749e+003,9.799111e-003
2.840677e+003,9.183628e-003
2.842605e+003,8.780518e-003
2.844534e+003,8.370958e-003
2.846462e+003,7.731927e-003
2.848391e+003,7.276079e-003
2.850320e+003,6.997689e-003
2.852248e+003,6.779009e-003
2.854177e+003,6.500971e-003
2.856105e+003,6.282507e-003
2.858033e+003,6.117580e-003
2.859962e+003,5.999008e-003
2.861890e+003,5.847186e-003
2.863819e+003,5.690918e-003
2.865748e+003,5.649426e-003
2.867676e+003,5.713008e-003
2.869604e+003,5.807996e-003
2.871533e+003,5.815753e-003
2.873461e+003,5.827607e-003
2.875390e+003,5.940859e-003
2.877319e+003,6.103904e-003
2.879247e+003,6.194642e-003
2.881176e+003,6.258438e-003
2.883104e+003,6.317941e-003
2.885032e+003,6.435659e-003
2.886961e+003,6.450018e-003
2.888889e+003,6.402368e-003
2.890818e+003,6.332599e-003
2.892747e+003,6.204624e-003
2.894675e+003,5.993398e-003
2.896604e+003,6.034620e-003
2.898532e+003,6.077829e-003
2.900460e+003,6.074738e-003
2.902389e+003,6.049235e-003
2.904317e+003,5.941228e-003
2.906246e+003,5.923560e-003
2.908175e+003,5.884297e-003
2.910103e+003,5.879830e-003
2.912031e+003,5.885237e-003
2.913960e+003,5.911905e-003
2.915888e+003,5.996522e-003
2.917817e+003,6.088783e-003
2.919745e+003,6.275649e-003
2.921674e+003,6.513314e-003
2.923603e+003,6.792370e-003
2.925531e+003,6.961661e-003
2.927459e+003,7.049076e-003
2.929388e+003,7.142201e-003
2.931316e+003,7.186295e-003
2.933245e+003,7.314795e-003
2.935173e+003,7.414583e-003
2.937102e+003,7.364871e-003
2.939031e+003,7.294207e-003
2.940959e+003,7.115221e-003
2.942887e+003,6.895371e-003
2.944816e+003,6.639900e-003
2.946744e+003,6.411615e-003
2.948673e+003,6.108642e-003
2.950601e+003,5.586491e-003
2.952530e+003,5.078543e-003
2.954458e+003,4.630360e-003
2.956387e+003,4.127510e-003
2.958315e+003,3.696314e-003
2.960244e+003,3.113741e-003
2.962172e+003,2.435042e-003
2.964101e+003,1.903142e-003
2.966029e+003,1.445822e-003
2.967958e+003,9.251261e-004
2.969886e+003,4.174244e-004
2.971815e+003,9.447542e-005
2.973743e+003,-2.527723e-004
2.975672e+003,-6.609847e-004
2.977600e+003,-9.017669e-004
2.979529e+003,-1.143341e-003
2.981457e+003,-1.436302e-003
2.983386e+003,-1.731871e-003
2.985314e+003,-1.922780e-003
2.987243e+003,-2.033736e-003
2.989171e+003,-2.201799e-003
2.991100e+003,-2.433656e-003
2.993028e+003,-2.513221e-003
2.994957e+003,-2.541023e-003
2.996885e+003,-2.721534e-003
2.998814e+003,-2.872314e-003
3.000742e+003,-2.960749e-003
3.002671e+003,-3.039164e-003
3.004599e+003,-3.006786e-003
3.006528e+003,-2.948112e-003
3.008456e+003,-2.982732e-003
3.010385e+003,-3.053213e-003
3.012313e+003,-3.051305e-003
3.014242e+003,-3.146414e-003
3.016170e+003,-3.202825e-003
3.018099e+003,-3.141381e-003
3.020027e+003,-3.234860e-003
3.021956e+003,-3.353734e-003
3.023884e+003,-3.431322e-003
3.025813e+003,-3.458014e-003
3.027741e+003,-3.543734e-003
3.029670e+003,-3.524442e-003
3.031598e+003,-3.444833e-003
3.033527e+003,-3.536142e-003
3.035455e+003,-3.548565e-003
3.037384e+003,-3.492758e-003
3.039312e+003,-3.520695e-003
3.041241e+003,-3.664199e-003
3.043169e+003,-3.763314e-003
3.045098e+003,-3.718638e-003
3.047026e+003,-3.681021e-003
3.048955e+003,-3.759832e-003
3.050883e+003,-3.885820e-003
3.052812e+003,-3.902995e-003
3.054740e+003,-3.920890e-003
3.056669e+003,-3.943285e-003
3.058597e+003,-4.060028e-003
3.060526e+003,-4.128038e-003
3.062454e+003,-4.135554e-003
3.064383e+003,-4.146909e-003
3.066311e+003,-4.143266e-003
3.068240e+003,-4.075161e-003
3.070168e+003,-4.146548e-003
3.072097e+003,-4.298311e-003
3.074025e+003,-4.337973e-003
3.075954e+003,-4.370219e-003
3.077882e+003,-4.386554e-003
3.079811e+003,-4.375665e-003
3.081739e+003,-4.440312e-003
3.083668e+003,-4.470255e-003
3.085596e+003,-4.419945e-003
3.087525e+003,-4.453791e-003
3.089453e+003,-4.540003e-003
3.091382e+003,-4.522264e-003
3.093310e+003,-4.382815e-003
3.095239e+003,-4.325934e-003
3.097167e+003,-4.430834e-003
3.099096e+003,-4.440673e-003
3.101024e+003,-4.471927e-003
3.102953e+003,-4.509410e-003
3.104881e+003,-4.566070e-003
3.106810e+003,-4.524559e-003
3.108738e+003,-4.501868e-003
3.110667e+003,-4.556988e-003
3.112595e+003,-4.665962e-003
3.114524e+003,-4.717948e-003
3.116452e+003,-4.670092e-003
3.118381e+003,-4.605315e-003
3.120309e+003,-4.612134e-003
3.122238e+003,-4.623379e-003
3.124166e+003,-4.675829e-003
3.126095e+003,-4.659963e-003
3.128023e+003,-4.648031e-003
3.129952e+003,-4.674288e-003
3.131880e+003,-4.718309e-003
3.133809e+003,-4.708771e-003
3.135737e+003,-4.689301e-003
3.137666e+003,-4.629542e-003
3.139594e+003,-4.675370e-003
3.141523e+003,-4.665241e-003
3.143451e+003,-4.508852e-003
3.145380e+003,-4.516362e-003
3.147308e+003,-4.724503e-003
3.149237e+003,-4.765012e-003
3.151165e+003,-4.564431e-003
3.153094e+003,-4.448118e-003
3.155022e+003,-4.425258e-003
3.156951e+003,-4.469960e-003
3.158879e+003,-4.480192e-003
3.160808e+003,-4.397444e-003
3.162736e+003,-4.311105e-003
3.164665e+003,-4.284400e-003
3.166593e+003,-4.407973e-003
3.168522e+003,-4.597250e-003
3.170450e+003,-4.529642e-003
3.172379e+003,-4.451102e-003
3.174307e+003,-4.505868e-003
3.176236e+003,-4.468451e-003
3.178164e+003,-4.350537e-003
3.180093e+003,-4.325671e-003
3.182021e+003,-4.381634e-003
3.183950e+003,-4.345978e-003
3.185878e+003,-4.333217e-003
3.187807e+003,-4.232461e-003
3.189735e+003,-4.224749e-003
3.191664e+003,-4.400724e-003
3.193592e+003,-4.337711e-003
3.195521e+003,-4.192788e-003
3.197449e+003,-4.190589e-003
3.199378e+003,-4.359558e-003
3.201306e+003,-4.416435e-003
3.203235e+003,-4.306972e-003
3.205163e+003,-4.291683e-003
3.207092e+003,-4.353555e-003
3.209020e+003,-4.174476e-003
3.210948e+003,-4.029828e-003
3.212877e+003,-4.031239e-003
3.214806e+003,-4.085500e-003
3.216734e+003,-4.170834e-003
3.218663e+003,-4.077196e-003
3.220591e+003,-3.911565e-003
3.222520e+003,-3.825754e-003
3.224448e+003,-3.770705e-003
3.226376e+003,-3.757138e-003
3.228305e+003,-3.775894e-003
3.230234e+003,-3.623424e-003
3.232162e+003,-3.596019e-003
3.234091e+003,-3.451900e-003
3.236019e+003,-3.486020e-003
3.237948e+003,-3.590465e-003
3.239876e+003,-3.530752e-003
3.241804e+003,-3.248015e-003
3.243733e+003,-3.053674e-003
3.245662e+003,-3.077264e-003
3.247590e+003,-2.920500e-003
3.249519e+003,-2.845980e-003
3.251447e+003,-2.859213e-003
3.253375e+003,-2.904339e-003
3.255304e+003,-2.740993e-003
3.257232e+003,-2.476586e-003
3.259161e+003,-2.491906e-003
3.261090e+003,-2.537894e-003
3.263018e+003,-2.525343e-003
3.264947e+003,-2.477904e-003
3.266875e+003,-2.576235e-003
3.268803e+003,-2.498396e-003
3.270732e+003,-2.349925e-003
3.272660e+003,-2.310838e-003
3.274589e+003,-2.294359e-003
3.276518e+003,-2.270924e-003
3.278446e+003,-2.256520e-003
3.280375e+003,-2.298841e-003
3.282303e+003,-2.330448e-003
3.284231e+003,-2.219172e-003
3.286160e+003,-2.244620e-003
3.288088e+003,-2.327976e-003
3.290017e+003,-2.513550e-003
3.291946e+003,-2.436061e-003
3.293874e+003,-2.327877e-003
3.295802e+003,-2.527913e-003
3.297731e+003,-2.661504e-003
3.299659e+003,-2.717484e-003
3.301588e+003,-2.804305e-003
3.303516e+003,-2.919381e-003
3.305445e+003,-2.983324e-003
3.307374e+003,-3.065650e-003
3.309302e+003,-3.206706e-003
3.311230e+003,-3.421559e-003
3.313159e+003,-3.517178e-003
3.315087e+003,-3.620959e-003
3.317016e+003,-3.716043e-003
3.318944e+003,-3.739662e-003
3.320873e+003,-3.801941e-003
3.322802e+003,-3.949950e-003
3.324730e+003,-4.061341e-003
3.326658e+003,-4.225701e-003
3.328587e+003,-4.276001e-003
3.330515e+003,-4.376485e-003
3.332444e+003,-4.488849e-003
3.334372e+003,-4.541512e-003
3.336301e+003,-4.510131e-003
3.338229e+003,-4.472780e-003
3.340158e+003,-4.606594e-003
3.342086e+003,-4.654948e-003
3.344015e+003,-4.737285e-003
3.345943e+003,-4.736433e-003
3.347872e+003,-4.791786e-003
3.349800e+003,-4.843134e-003
3.351729e+003,-4.917836e-003
3.353657e+003,-5.114030e-003
3.355586e+003,-5.156565e-003
3.357514e+003,-4.984074e-003
3.359443e+003,-5.033237e-003
3.361371e+003,-5.230885e-003
3.363300e+003,-5.314619e-003
3.365229e+003,-5.370520e-003
3.367157e+003,-5.471078e-003
3.369085e+003,-5.762738e-003
3.371014e+003,-6.053352e-003
3.372942e+003,-6.102395e-003
3.374871e+003,-6.146663e-003
3.376799e+003,-6.224962e-003
3.378728e+003,-6.407997e-003
3.380656e+003,-6.486640e-003
3.382585e+003,-6.516736e-003
3.384513e+003,-6.660983e-003
3.386442e+003,-6.809325e-003
3.388370e+003,-6.912681e-003
3.390299e+003,-6.960714e-003
3.392227e+003,-6.833886e-003
3.394156e+003,-7.006688e-003
3.396084e+003,-7.090537e-003
3.398013e+003,-7.159019e-003
3.399941e+003,-7.230618e-003
3.401870e+003,-7.216834e-003
3.403798e+003,-7.177759e-003
3.405727e+003,-7.185548e-003
3.407655e+003,-7.261738e-003
3.409584e+003,-7.287446e-003
3.411512e+003,-7.248248e-003
3.413441e+003,-7.365996e-003
3.415369e+003,-7.390786e-003
3.417298e+003,-7.329443e-003
3.419226e+003,-7.312013e-003
3.421155e+003,-7.299599e-003
3.423083e+003,-7.423034e-003
3.425012e+003,-7.404370e-003
3.426940e+003,-7.436942e-003
3.428869e+003,-7.565157e-003
3.430797e+003,-7.624481e-003
3.432726e+003,-7.573265e-003
3.434654e+003,-7.452153e-003
3.436583e+003,-7.655052e-003
3.438511e+003,-7.796643e-003
3.440440e+003,-7.715600e-003
3.442368e+003,-7.768491e-003
3.444297e+003,-7.724226e-003
3.446225e+003,-7.639132e-003
3.448154e+003,-7.575740e-003
3.450082e+003,-7.559329e-003
3.452011e+003,-7.580070e-003
3.453939e+003,-7.734674e-003
3.455868e+003,-7.898073e-003
3.457796e+003,-7.939522e-003
3.459725e+003,-8.000812e-003
3.461653e+003,-7.910339e-003
3.463582e+003,-7.830618e-003
3.465510e+003,-7.935391e-003
3.467439e+003,-8.085250e-003
3.469367e+003,-8.027973e-003
3.471296e+003,-7.922800e-003
3.473224e+003,-8.008098e-003
3.475153e+003,-8.106941e-003
3.477081e+003,-8.090063e-003
3.479010e+003,-8.154647e-003
3.480938e+003,-8.199098e-003
3.482867e+003,-8.231708e-003
3.484795e+003,-8.160956e-003
3.486724e+003,-8.257619e-003
3.488652e+003,-8.258237e-003
3.490581e+003,-8.143786e-003
3.492509e+003,-8.164468e-003
3.494438e+003,-8.206608e-003
3.496366e+003,-8.178515e-003
3.498295e+003,-8.274850e-003
3.500223e+003,-8.283528e-003
3.502152e+003,-8.192692e-003
3.504080e+003,-8.068305e-003
3.506009e+003,-8.184368e-003
3.507937e+003,-8.351726e-003
3.509866e+003,-8.423486e-003
3.511794e+003,-8.350620e-003
3.513723e+003,-8.311322e-003
3.515651e+003,-8.295069e-003
3.517580e+003,-8.263113e-003
3.519508e+003,-8.277482e-003
3.521437e+003,-8.262755e-003
3.523365e+003,-8.108958e-003
3.525294e+003,-8.282619e-003
3.527222e+003,-8.355138e-003
3.529151e+003,-8.210835e-003
3.531079e+003,-8.218410e-003
3.533008e+003,-8.313435e-003
3.534936e+003,-8.302871e-003
3.536865e+003,-8.216265e-003
3.538793e+003,-8.413087e-003
3.540722e+003,-8.566776e-003
3.542650e+003,-8.501733e-003
3.544579e+003,-8.365506e-003
3.546507e+003,-8.084176e-003
3.548436e+003,-8.035844e-003
3.550364e+003,-8.162159e-003
3.552293e+003,-8.191033e-003
3.554221e+003,-8.224198e-003
3.556150e+003,-8.293476e-003
3.558078e+003,-8.241429e-003
3.560007e+003,-8.317401e-003
3.561935e+003,-8.401777e-003
3.563864e+003,-8.195293e-003
3.565792e+003,-7.952536e-003
3.567721e+003,-8.104079e-003
3.569649e+003,-8.337457e-003
3.571578e+003,-8.326047e-003
3.573506e+003,-8.292631e-003
3.575435e+003,-8.389427e-003
3.577363e+003,-8.308560e-003
3.579292e+003,-8.173345e-003
3.581220e+003,-8.206023e-003
3.583149e+003,-8.303748e-003
3.585077e+003,-8.181572e-003
3.587006e+003,-7.986173e-003
3.588934e+003,-8.220036e-003
3.590863e+003,-8.440970e-003
3.592791e+003,-8.258984e-003
3.594720e+003,-8.160371e-003
3.596648e+003,-8.132047e-003
3.598577e+003,-8.225921e-003
3.600505e+003,-8.373534e-003
3.602434e+003,-8.370317e-003
3.604362e+003,-8.315743e-003
3.606291e+003,-8.211193e-003
3.608219e+003,-7.904384e-003
3.610148e+003,-7.977943e-003
3.612076e+003,-8.161769e-003
3.614005e+003,-8.237203e-003
3.615933e+003,-8.178873e-003
3.617862e+003,-8.028363e-003
3.619790e+003,-8.143071e-003
3.621719e+003,-8.514112e-003
3.623647e+003,-8.676048e-003
3.625576e+003,-8.505859e-003
3.627504e+003,-7.811353e-003
3.629433e+003,-7.401145e-003
3.631361e+003,-8.091429e-003
3.633290e+003,-8.404604e-003
3.635218e+003,-8.347662e-003
3.637146e+003,-8.313240e-003
3.639075e+003,-8.425078e-003
3.641004e+003,-8.518693e-003
3.642932e+003,-8.579251e-003
3.644861e+003,-8.627588e-003
3.646789e+003,-8.171622e-003
3.648718e+003,-7.714428e-003
3.650646e+003,-7.982790e-003
3.652574e+003,-8.495170e-003
3.654503e+003,-8.302676e-003
3.656432e+003,-8.043814e-003
3.658360e+003,-8.438369e-003
3.660289e+003,-8.589614e-003
3.662217e+003,-8.543125e-003
3.664146e+003,-8.651169e-003
3.666074e+003,-8.820132e-003
3.668002e+003,-8.541371e-003
3.669931e+003,-8.161444e-003
3.671860e+003,-8.361541e-003
3.673788e+003,-8.180857e-003
3.675717e+003,-7.829967e-003
3.677645e+003,-8.332353e-003
3.679573e+003,-8.539909e-003
3.681502e+003,-8.685532e-003
3.683430e+003,-8.897432e-003
3.685359e+003,-8.921778e-003
3.687288e+003,-8.440904e-003
3.689216e+003,-8.089185e-003
3.691145e+003,-8.204885e-003
3.693073e+003,-8.587438e-003
3.695001e+003,-8.794158e-003
3.696930e+003,-8.702486e-003
3.698858e+003,-8.680011e-003
3.700787e+003,-8.513723e-003
3.702716e+003,-8.280018e-003
3.704644e+003,-8.323707e-003
3.706573e+003,-8.399664e-003
3.708501e+003,-8.269875e-003
3.710429e+003,-8.024265e-003
3.712358e+003,-7.943524e-003
3.714286e+003,-8.523470e-003
3.716215e+003,-8.781266e-003
3.718144e+003,-8.392872e-003
3.720072e+003,-8.233594e-003
3.722000e+003,-8.058255e-003
3.723929e+003,-8.082192e-003
3.725857e+003,-8.292370e-003
3.727786e+003,-8.584287e-003
3.729714e+003,-8.576620e-003
3.731643e+003,-8.281611e-003
3.733572e+003,-7.889613e-003
3.735500e+003,-7.585313e-003
3.737428e+003,-7.886034e-003
3.739357e+003,-8.336644e-003
3.741285e+003,-8.344022e-003
3.743214e+003,-7.346645e-003
3.745142e+003,-6.936878e-003
3.747071e+003,-7.694929e-003
3.749000e+003,-7.385998e-003
3.750928e+003,-7.146275e-003
3.752856e+003,-7.463357e-003
3.754785e+003,-7.719961e-003
3.756713e+003,-7.656419e-003
3.758642e+003,-7.582969e-003
3.760570e+003,-7.413360e-003
3.762499e+003,-7.692293e-003
3.764427e+003,-7.825476e-003
3.766356e+003,-7.852323e-003
3.768284e+003,-7.851965e-003
3.770213e+003,-7.593062e-003
3.772141e+003,-7.700170e-003
3.774070e+003,-7.698705e-003
3.775998e+003,-7.729726e-003
3.777927e+003,-7.787303e-003
3.779855e+003,-7.566297e-003
3.781784e+003,-7.679434e-003
3.783712e+003,-7.729303e-003
3.785641e+003,-7.625360e-003
3.787569e+003,-7.716348e-003
3.789498e+003,-7.980904e-003
3.791426e+003,-8.145543e-003
3.793355e+003,-8.026477e-003
3.795283e+003,-7.576619e-003
3.797212e+003,-7.404533e-003
3.799140e+003,-7.313055e-003
3.801069e+003,-6.895300e-003
3.802997e+003,-7.345016e-003
3.804926e+003,-7.646066e-003
3.806854e+003,-7.142559e-003
3.808783e+003,-7.310742e-003
3.810711e+003,-7.722338e-003
3.812640e+003,-7.915772e-003
3.814568e+003,-7.673640e-003
3.816497e+003,-7.202625e-003
3.818425e+003,-7.335698e-003
3.820354e+003,-6.872633e-003
3.822282e+003,-6.821459e-003
3.824211e+003,-7.394532e-003
3.826139e+003,-7.520350e-003
3.828068e+003,-7.438669e-003
3.829996e+003,-7.307484e-003
3.831925e+003,-7.427659e-003
3.833853e+003,-7.422383e-003
3.835782e+003,-7.067001e-003
3.837710e+003,-6.768028e-003
3.839639e+003,-7.110649e-003
3.841567e+003,-7.339152e-003
3.843496e+003,-7.248639e-003
3.845424e+003,-7.548844e-003
3.847353e+003,-7.910632e-003
3.849281e+003,-7.846336e-003
3.851210e+003,-7.137018e-003
3.853138e+003,-5.978649e-003
3.855067e+003,-6.169073e-003
3.856995e+003,-7.040106e-003
3.858924e+003,-7.520643e-003
3.860852e+003,-7.520806e-003
3.862781e+003,-7.250789e-003
3.864709e+003,-7.135715e-003
3.866638e+003,-7.470066e-003
3.868566e+003,-7.111138e-003
3.870495e+003,-6.813240e-003
3.872423e+003,-6.986343e-003
3.874352e+003,-7.176683e-003
3.876280e+003,-7.507877e-003
3.878209e+003,-7.411601e-003
3.880137e+003,-7.221005e-003
3.882066e+003,-7.349740e-003
3.883994e+003,-7.332147e-003
3.885923e+003,-7.016111e-003
3.887851e+003,-7.210544e-003
3.889780e+003,-7.070032e-003
3.891708e+003,-7.001439e-003
3.893637e+003,-7.357168e-003
3.895565e+003,-7.735032e-003
3.897494e+003,-7.566297e-003
3.899422e+003,-7.232313e-003
3.901351e+003,-7.118993e-003
3.903279e+003,-6.849477e-003
3.905208e+003,-6.855152e-003
3.907136e+003,-7.333613e-003
3.909065e+003,-7.378472e-003
3.910993e+003,-7.386454e-003
3.912922e+003,-7.422676e-003
3.914850e+003,-7.377430e-003
3.916779e+003,-7.293604e-003
3.918707e+003,-7.137735e-003
3.920636e+003,-7.311459e-003
3.922564e+003,-7.373912e-003
3.924493e+003,-7.158171e-003
3.926421e+003,-7.303476e-003
3.928350e+003,-7.502569e-003
3.930278e+003,-7.544513e-003
3.932207e+003,-7.381567e-003
3.934135e+003,-7.311264e-003
3.936064e+003,-7.460589e-003
3.937992e+003,-7.346938e-003
3.939921e+003,-7.272881e-003
3.941849e+003,-7.367820e-003
3.943778e+003,-7.426552e-003
3.945706e+003,-7.357754e-003
3.947635e+003,-7.240785e-003
3.949563e+003,-7.214227e-003
3.951492e+003,-7.327097e-003
3.953420e+003,-7.387757e-003
3.955349e+003,-7.579061e-003
3.957277e+003,-7.631904e-003
3.959206e+003,-7.490878e-003
3.961134e+003,-7.428343e-003
3.963063e+003,-7.305269e-003
3.964991e+003,-7.206438e-003
3.966920e+003,-7.217420e-003
3.968848e+003,-7.138811e-003
3.970777e+003,-7.211978e-003
3.972705e+003,-7.361109e-003
3.974634e+003,-7.412806e-003
3.976562e+003,-7.407888e-003
3.978491e+003,-7.248834e-003
3.980419e+003,-7.299338e-003
3.982348e+003,-7.237396e-003
3.984276e+003,-7.137996e-003
3.986205e+003,-7.161170e-003
3.988133e+003,-7.118830e-003
3.990062e+003,-7.110747e-003
3.991990e+003,-7.301229e-003
3.993919e+003,-7.584662e-003
3.995847e+003,-7.622853e-003
3.997776e+003,-7.256524e-003
3.999704e+003,-7.106249e-003
4.001633e+003,0.000000e+000
