3.991989e+002,2.658059e-002
4.011274e+002,2.435973e-002
4.030559e+002,1.587639e-002
4.049844e+002,1.456028e-002
4.069129e+002,1.754826e-002
4.088414e+002,2.156143e-002
4.107699e+002,2.192925e-002
4.126984e+002,1.601897e-002
4.146269e+002,8.200341e-003
4.165554e+002,8.214185e-003
4.184839e+002,1.435457e-002
4.204124e+002,1.562747e-002
4.223409e+002,1.946147e-002
4.242694e+002,2.198087e-002
4.261979e+002,1.556121e-002
4.281264e+002,9.562113e-003
4.300549e+002,8.266999e-003
4.319834e+002,1.514444e-003
4.339119e+002,6.891935e-006
4.358404e+002,8.228401e-003
4.377689e+002,1.288057e-002
4.396974e+002,9.925878e-003
4.416259e+002,7.679717e-003
4.435544e+002,1.035028e-002
4.454829e+002,1.310446e-002
4.474114e+002,1.596599e-002
4.493399e+002,1.355447e-002
4.512684e+002,7.247845e-003
4.531969e+002,6.372307e-003
4.551254e+002,1.115782e-002
4.570539e+002,1.218535e-002
4.589824e+002,8.264196e-003
4.609109e+002,8.546644e-003
4.628394e+002,1.012058e-002
4.647679e+002,8.816223e-003
4.666964e+002,6.419887e-003
4.686249e+002,5.556487e-003
4.705533e+002,7.553569e-003
4.724819e+002,8.140208e-003
4.744103e+002,7.761778e-003
4.763389e+002,7.603033e-003
4.782673e+002,7.535970e-003
4.801959e+002,7.398203e-003
4.821243e+002,7.503505e-003
4.840529e+002,6.743336e-003
4.859813e+002,8.218001e-003
4.879099e+002,7.780263e-003
4.898383e+002,4.680765e-003
4.917668e+002,3.136001e-003
4.936953e+002,4.894972e-003
4.956238e+002,5.567931e-003
4.975523e+002,2.816894e-003
4.994808e+002,2.593909e-003
5.014093e+002,4.008811e-003
5.033378e+002,4.650220e-003
5.052663e+002,3.804566e-003
5.071948e+002,3.186666e-003
5.091233e+002,2.421381e-003
5.110518e+002,8.855147e-004
5.129803e+002,1.142372e-003
5.149088e+002,1.644038e-003
5.168373e+002,1.890296e-003
5.187658e+002,1.565053e-003
5.206943e+002,1.883774e-003
5.226228e+002,1.321672e-003
5.245513e+002,1.483789e-003
5.264798e+002,2.125506e-003
5.284083e+002,2.593842e-003
5.303368e+002,1.582778e-003
5.322653e+002,1.183934e-003
5.341938e+002,1.868799e-003
5.361223e+002,1.970305e-003
5.380508e+002,1.067099e-003
5.399792e+002,1.735445e-003
5.419078e+002,1.769878e-003
5.438363e+002,1.642408e-003
5.457648e+002,2.414017e-003
5.476932e+002,2.437241e-003
5.496218e+002,2.615542e-003
5.515503e+002,3.716097e-003
5.534788e+002,3.290150e-003
5.554072e+002,4.164575e-003
5.573358e+002,4.943698e-003
5.592643e+002,4.361358e-003
5.611927e+002,3.306810e-003
5.631212e+002,3.100993e-003
5.650497e+002,3.178722e-003
5.669783e+002,3.499598e-003
5.689067e+002,4.538878e-003
5.708352e+002,4.403162e-003
5.727637e+002,3.444588e-003
5.746923e+002,2.506886e-003
5.766207e+002,3.571251e-003
5.785492e+002,7.150958e-003
5.804777e+002,9.461628e-003
5.824063e+002,4.530239e-003
5.843347e+002,2.959888e-003
5.862632e+002,4.492005e-003
5.881917e+002,3.348646e-003
5.901202e+002,1.909332e-003
5.920487e+002,-2.670521e-005
5.939772e+002,-2.066945e-003
5.959057e+002,-2.462980e-003
5.978342e+002,6.834964e-004
5.997627e+002,2.427212e-003
6.016912e+002,2.941106e-003
6.036197e+002,3.490846e-003
6.055482e+002,4.748292e-003
6.074767e+002,5.421627e-003
6.094052e+002,6.189970e-003
6.113337e+002,7.624984e-003
6.132622e+002,7.116299e-003
6.151907e+002,5.310120e-003
6.171192e+002,4.993200e-003
6.190477e+002,4.987134e-003
6.209762e+002,5.044853e-003
6.229047e+002,3.700858e-003
6.248332e+002,1.062084e-003
6.267617e+002,-8.654266e-004
6.286902e+002,-8.440972e-004
6.306187e+002,-1.729562e-005
6.325472e+002,4.239249e-004
6.344756e+002,5.547529e-004
6.364042e+002,4.740091e-004
6.383326e+002,4.346046e-004
6.402612e+002,5.287434e-004
6.421896e+002,1.519897e-003
6.441182e+002,1.912227e-003
6.460466e+002,1.267901e-003
6.479752e+002,1.007781e-003
6.499036e+002,9.713827e-004
6.518322e+002,1.188320e-003
6.537606e+002,1.702745e-003
6.556891e+002,1.696026e-003
6.576177e+002,1.580517e-003
6.595461e+002,1.549823e-003
6.614746e+002,1.196128e-003
6.634031e+002,1.093307e-003
6.653317e+002,2.660679e-003
6.672601e+002,7.056889e-003
6.691886e+002,5.416729e-003
6.711171e+002,1.983486e-003
6.730457e+002,2.007719e-003
6.749741e+002,2.447870e-003
6.769026e+002,2.463598e-003
6.788311e+002,2.657612e-003
6.807596e+002,3.090247e-003
6.826881e+002,3.381971e-003
6.846166e+002,3.647795e-003
6.865451e+002,3.209697e-003
6.884736e+002,2.739263e-003
6.904021e+002,2.532915e-003
6.923306e+002,2.515351e-003
6.942591e+002,2.762604e-003
6.961876e+002,2.984275e-003
6.981161e+002,2.988979e-003
7.000446e+002,2.636177e-003
7.019731e+002,1.945109e-003
7.039016e+002,1.700384e-003
7.058301e+002,1.585638e-003
7.077585e+002,1.468728e-003
7.096871e+002,1.496889e-003
7.116156e+002,1.285713e-003
7.135441e+002,4.468104e-004
7.154725e+002,-1.788207e-004
7.174011e+002,-4.843814e-004
7.193296e+002,-3.744189e-004
7.212581e+002,-1.093948e-004
7.231865e+002,2.178778e-004
7.251151e+002,4.637928e-004
7.270436e+002,3.008619e-004
7.289720e+002,-4.916813e-005
7.309005e+002,2.816485e-005
7.328290e+002,2.781168e-004
7.347576e+002,1.663647e-004
7.366860e+002,-9.018149e-005
7.386145e+002,-3.015807e-004
7.405430e+002,1.861206e-004
7.424716e+002,7.360997e-004
7.444000e+002,8.013567e-004
7.463285e+002,9.279486e-004
7.482570e+002,6.798127e-004
7.501855e+002,1.020567e-003
7.521140e+002,2.237830e-003
7.540425e+002,2.769640e-003
7.559710e+002,2.790082e-003
7.578995e+002,3.561329e-003
7.598280e+002,3.808410e-003
7.617565e+002,3.521911e-003
7.636850e+002,3.698319e-003
7.656135e+002,4.035263e-003
7.675420e+002,4.272174e-003
7.694705e+002,4.196424e-003
7.713990e+002,4.172971e-003
7.733275e+002,4.363567e-003
7.752560e+002,4.421304e-003
7.771844e+002,4.439849e-003
7.791130e+002,4.338065e-003
7.810415e+002,4.151896e-003
7.829700e+002,3.730234e-003
7.848984e+002,3.585617e-003
7.868270e+002,3.881451e-003
7.887555e+002,3.762017e-003
7.906840e+002,3.444554e-003
7.926124e+002,3.190571e-003
7.945410e+002,3.049470e-003
7.964695e+002,2.651145e-003
7.983979e+002,2.559178e-003
8.003264e+002,2.648678e-003
8.022549e+002,2.806923e-003
8.041835e+002,2.977269e-003
8.061119e+002,2.789082e-003
8.080404e+002,2.885300e-003
8.099689e+002,3.503172e-003
8.118975e+002,3.912243e-003
8.138259e+002,3.971592e-003
8.157545e+002,3.612244e-003
8.176830e+002,3.536642e-003
8.196115e+002,3.121984e-003
8.215399e+002,2.483326e-003
8.234684e+002,2.055656e-003
8.253970e+002,1.965512e-003
8.273254e+002,2.149480e-003
8.292539e+002,2.122876e-003
8.311824e+002,1.973268e-003
8.331110e+002,2.129868e-003
8.350394e+002,2.009949e-003
8.369679e+002,1.973534e-003
8.388964e+002,1.844108e-003
8.408250e+002,1.749617e-003
8.427534e+002,1.599007e-003
8.446819e+002,1.075536e-003
8.466104e+002,8.631042e-004
8.485389e+002,8.558003e-004
8.504674e+002,8.358479e-004
8.523959e+002,1.114634e-003
8.543244e+002,1.260623e-003
8.562529e+002,1.151575e-003
8.581814e+002,9.155633e-004
8.601099e+002,9.928026e-004
8.620384e+002,9.062663e-004
8.639669e+002,9.261555e-004
8.658954e+002,9.024811e-004
8.678239e+002,8.711719e-004
8.697524e+002,9.939317e-004
8.716809e+002,9.001901e-004
8.736094e+002,8.028505e-004
8.755378e+002,7.729757e-004
8.774664e+002,1.218124e-003
8.793949e+002,1.621322e-003
8.813234e+002,1.479899e-003
8.832518e+002,1.402340e-003
8.851804e+002,1.415870e-003
8.871089e+002,1.325759e-003
8.890374e+002,1.051555e-003
8.909658e+002,1.193470e-003
8.928943e+002,1.703810e-003
8.948229e+002,1.614604e-003
8.967513e+002,1.784084e-003
8.986798e+002,2.080192e-003
9.006083e+002,1.930632e-003
9.025369e+002,2.034849e-003
9.044653e+002,2.259646e-003
9.063938e+002,1.862277e-003
9.083223e+002,1.405100e-003
9.102509e+002,1.296214e-003
9.121793e+002,1.519631e-003
9.141078e+002,1.326690e-003
9.160364e+002,1.014788e-003
9.179648e+002,9.981494e-004
9.198933e+002,9.684272e-004
9.218218e+002,1.059892e-003
9.237504e+002,8.670550e-004
9.256788e+002,4.728813e-004
9.276073e+002,2.527537e-004
9.295358e+002,-3.936145e-005
9.314644e+002,-3.900444e-004
9.333928e+002,-4.796154e-004
9.353213e+002,-4.513161e-004
9.372498e+002,-4.656480e-004
9.391783e+002,-8.356313e-004
9.411068e+002,-9.725209e-004
9.430353e+002,-9.361535e-004
9.449637e+002,-8.781576e-004
9.468923e+002,-7.555606e-004
9.488208e+002,-8.280912e-004
9.507493e+002,-7.633665e-004
9.526777e+002,-7.689233e-004
9.546063e+002,-7.863205e-004
9.565348e+002,-5.672156e-004
9.584633e+002,-6.438140e-004
9.603917e+002,-8.470073e-004
9.623203e+002,-8.003768e-004
9.642488e+002,-6.446080e-004
9.661772e+002,-5.853489e-004
9.681057e+002,-6.210840e-004
9.700343e+002,-7.402128e-004
9.719628e+002,-4.306283e-004
9.738912e+002,-4.085493e-004
9.758197e+002,-7.264854e-004
9.777483e+002,-7.356812e-004
9.796768e+002,-6.199260e-004
9.816052e+002,-7.381951e-004
9.835337e+002,-6.496700e-004
9.854623e+002,-6.177091e-004
9.873907e+002,-5.354141e-004
9.893192e+002,-2.520107e-004
9.912477e+002,-3.874954e-004
9.931763e+002,-5.842238e-004
9.951047e+002,-6.788826e-004
9.970332e+002,-6.117866e-004
9.989617e+002,-4.369837e-004
1.000890e+003,-2.882699e-004
1.002819e+003,-6.884708e-005
1.004747e+003,2.017910e-005
1.006676e+003,1.873471e-004
1.008604e+003,2.418796e-004
1.010533e+003,2.794761e-004
1.012461e+003,4.037602e-004
1.014390e+003,5.741615e-004
1.016318e+003,1.126892e-003
1.018247e+003,1.345834e-003
1.020175e+003,1.349823e-003
1.022104e+003,1.598741e-003
1.024032e+003,2.068107e-003
1.025961e+003,2.478327e-003
1.027889e+003,2.617542e-003
1.029818e+003,2.805722e-003
1.031746e+003,3.026481e-003
1.033675e+003,3.199550e-003
1.035603e+003,3.314088e-003
1.037532e+003,3.483598e-003
1.039460e+003,3.612712e-003
1.041389e+003,3.781336e-003
1.043317e+003,3.959688e-003
1.045246e+003,4.077939e-003
1.047174e+003,4.090716e-003
1.049103e+003,4.010583e-003
1.051031e+003,3.788488e-003
1.052960e+003,3.742900e-003
1.054888e+003,3.881117e-003
1.056817e+003,3.962765e-003
1.058745e+003,3.892818e-003
1.060674e+003,3.920033e-003
1.062602e+003,3.908699e-003
1.064531e+003,3.856780e-003
1.066459e+003,3.841837e-003
1.068388e+003,3.821346e-003
1.070316e+003,3.859354e-003
1.072245e+003,3.847119e-003
1.074173e+003,3.767431e-003
1.076102e+003,3.684351e-003
1.078030e+003,3.704468e-003
1.079959e+003,3.599080e-003
1.081887e+003,3.622836e-003
1.083816e+003,4.008777e-003
1.085744e+003,4.174343e-003
1.087673e+003,4.138984e-003
1.089601e+003,4.318018e-003
1.091530e+003,4.502015e-003
1.093458e+003,4.423480e-003
1.095387e+003,4.458360e-003
1.097315e+003,4.546344e-003
1.099244e+003,4.533052e-003
1.101172e+003,4.572294e-003
1.103101e+003,4.473726e-003
1.105029e+003,4.508544e-003
1.106958e+003,4.676343e-003
1.108886e+003,4.816567e-003
1.110815e+003,4.829533e-003
1.112743e+003,4.668037e-003
1.114672e+003,4.567003e-003
1.116600e+003,4.881870e-003
1.118529e+003,5.064430e-003
1.120457e+003,4.881401e-003
1.122386e+003,4.778442e-003
1.124314e+003,4.710474e-003
1.126243e+003,4.619644e-003
1.128171e+003,4.349410e-003
1.130100e+003,4.291113e-003
1.132028e+003,4.117241e-003
1.133957e+003,3.898335e-003
1.135885e+003,3.763120e-003
1.137814e+003,3.257800e-003
1.139742e+003,2.712722e-003
1.141671e+003,2.656879e-003
1.143599e+003,2.613142e-003
1.145528e+003,2.129435e-003
1.147456e+003,1.642774e-003
1.149385e+003,1.549690e-003
1.151313e+003,1.357932e-003
1.153242e+003,1.048267e-003
1.155170e+003,9.978173e-004
1.157099e+003,9.133386e-004
1.159027e+003,7.834316e-004
1.160956e+003,7.259437e-004
1.162884e+003,6.236326e-004
1.164813e+003,3.777266e-004
1.166741e+003,2.376361e-004
1.168670e+003,2.758953e-004
1.170598e+003,4.296959e-004
1.172526e+003,5.354447e-004
1.174455e+003,3.932139e-004
1.176384e+003,5.024701e-004
1.178312e+003,5.457622e-004
1.180240e+003,4.667780e-004
1.182169e+003,5.333878e-004
1.184098e+003,5.346817e-004
1.186026e+003,4.397456e-004
1.187954e+003,4.086355e-004
1.189883e+003,4.557990e-004
1.191812e+003,5.111282e-004
1.193740e+003,5.694171e-004
1.195668e+003,3.984539e-004
1.197597e+003,2.102201e-004
1.199526e+003,1.865516e-004
1.201454e+003,2.684024e-004
1.203382e+003,4.738101e-004
1.205311e+003,5.272505e-004
1.207240e+003,5.814607e-004
1.209168e+003,7.055990e-004
1.211096e+003,8.754880e-004
1.213025e+003,1.205365e-003
1.214953e+003,1.323699e-003
1.216882e+003,1.260091e-003
1.218810e+003,1.235801e-003
1.220739e+003,1.309840e-003
1.222667e+003,1.523588e-003
1.224596e+003,1.660635e-003
1.226524e+003,1.665824e-003
1.228453e+003,1.809304e-003
1.230381e+003,1.976363e-003
1.232310e+003,2.145818e-003
1.234238e+003,2.244858e-003
1.236167e+003,2.326331e-003
1.238095e+003,2.461166e-003
1.240024e+003,2.608942e-003
1.241952e+003,2.619509e-003
1.243881e+003,2.300482e-003
1.245809e+003,2.046068e-003
1.247738e+003,2.004823e-003
1.249666e+003,2.105895e-003
1.251595e+003,1.983020e-003
1.253523e+003,1.748519e-003
1.255452e+003,1.605392e-003
1.257380e+003,1.392069e-003
1.259309e+003,1.368635e-003
1.261237e+003,1.510488e-003
1.263166e+003,1.659637e-003
1.265094e+003,1.863574e-003
1.267023e+003,2.132732e-003
1.268951e+003,2.415916e-003
1.270880e+003,2.650445e-003
1.272808e+003,2.695585e-003
1.274737e+003,2.833002e-003
1.276665e+003,3.145479e-003
1.278594e+003,3.421076e-003
1.280522e+003,3.644487e-003
1.282451e+003,3.746944e-003
1.284379e+003,3.999915e-003
1.286308e+003,4.200003e-003
1.288236e+003,4.438443e-003
1.290165e+003,4.769162e-003
1.292093e+003,5.059569e-003
1.294022e+003,5.247771e-003
1.295950e+003,5.466184e-003
1.297879e+003,5.647043e-003
1.299807e+003,5.646808e-003
1.301736e+003,5.605085e-003
1.303664e+003,5.532726e-003
1.305593e+003,5.324476e-003
1.307521e+003,5.268128e-003
1.309450e+003,5.217119e-003
1.311378e+003,4.917156e-003
1.313307e+003,4.686760e-003
1.315235e+003,4.600389e-003
1.317164e+003,4.489427e-003
1.319092e+003,4.098677e-003
1.321021e+003,3.768300e-003
1.322949e+003,3.624372e-003
1.324878e+003,3.448562e-003
1.326806e+003,3.286044e-003
1.328735e+003,3.185731e-003
1.330663e+003,3.120749e-003
1.332592e+003,3.100926e-003
1.334520e+003,2.929898e-003
1.336449e+003,2.866855e-003
1.338377e+003,2.869023e-003
1.340306e+003,2.845943e-003
1.342234e+003,2.805489e-003
1.344163e+003,2.597709e-003
1.346091e+003,2.436375e-003
1.348020e+003,2.446404e-003
1.349948e+003,2.302114e-003
1.351877e+003,2.141822e-003
1.353805e+003,2.141056e-003
1.355734e+003,2.086584e-003
1.357662e+003,1.908633e-003
1.359591e+003,1.810834e-003
1.361519e+003,1.670946e-003
1.363448e+003,1.468662e-003
1.365376e+003,1.237761e-003
1.367305e+003,1.084305e-003
1.369233e+003,1.029269e-003
1.371162e+003,9.857621e-004
1.373090e+003,9.618521e-004
1.375019e+003,9.592619e-004
1.376947e+003,9.418617e-004
1.378876e+003,8.837219e-004
1.380804e+003,9.224034e-004
1.382733e+003,8.755212e-004
1.384661e+003,8.130415e-004
1.386590e+003,7.152900e-004
1.388518e+003,4.972289e-004
1.390447e+003,2.070708e-004
1.392375e+003,3.220748e-005
1.394304e+003,-4.353595e-005
1.396232e+003,-2.476063e-004
1.398161e+003,-4.171229e-004
1.400089e+003,-2.879718e-004
1.402018e+003,-1.849480e-004
1.403946e+003,-2.931373e-004
1.405875e+003,-1.917706e-004
1.407803e+003,-1.243011e-004
1.409732e+003,-1.441754e-004
1.411660e+003,5.798496e-006
1.413589e+003,2.718505e-004
1.415517e+003,5.921775e-004
1.417446e+003,9.141023e-004
1.419374e+003,1.365278e-003
1.421303e+003,1.820151e-003
1.423231e+003,2.374870e-003
1.425160e+003,3.047735e-003
1.427088e+003,3.445256e-003
1.429017e+003,3.664234e-003
1.430945e+003,3.981724e-003
1.432874e+003,4.320629e-003
1.434802e+003,4.555318e-003
1.436731e+003,4.697210e-003
1.438659e+003,5.079616e-003
1.440588e+003,5.474774e-003
1.442516e+003,5.845775e-003
1.444445e+003,6.243715e-003
1.446373e+003,6.677853e-003
1.448302e+003,6.936578e-003
1.450230e+003,7.185621e-003
1.452159e+003,7.407876e-003
1.454087e+003,7.747037e-003
1.456016e+003,8.104085e-003
1.457944e+003,8.221883e-003
1.459873e+003,8.189536e-003
1.461801e+003,8.194803e-003
1.463730e+003,8.107968e-003
1.465658e+003,8.055544e-003
1.467587e+003,7.945181e-003
1.469515e+003,7.828909e-003
1.471444e+003,7.621140e-003
1.473372e+003,7.357559e-003
1.475301e+003,7.194379e-003
1.477229e+003,6.847301e-003
1.479158e+003,6.350015e-003
1.481086e+003,5.997967e-003
1.483015e+003,5.591693e-003
1.484943e+003,5.137985e-003
1.486872e+003,4.780385e-003
1.488800e+003,4.529770e-003
1.490729e+003,4.293456e-003
1.492657e+003,3.937486e-003
1.494586e+003,3.535072e-003
1.496514e+003,3.150185e-003
1.498443e+003,2.777277e-003
1.500371e+003,2.455068e-003
1.502300e+003,2.285060e-003
1.504228e+003,2.109857e-003
1.506157e+003,1.939085e-003
1.508085e+003,1.758633e-003
1.510014e+003,1.554113e-003
1.511942e+003,1.377410e-003
1.513871e+003,1.352781e-003
1.515799e+003,1.493896e-003
1.517728e+003,1.637220e-003
1.519656e+003,1.582977e-003
1.521585e+003,1.519764e-003
1.523513e+003,1.784982e-003
1.525442e+003,1.991841e-003
1.527370e+003,2.079426e-003
1.529299e+003,2.268206e-003
1.531227e+003,2.388962e-003
1.533156e+003,2.696752e-003
1.535084e+003,3.088879e-003
1.537013e+003,3.265612e-003
1.538941e+003,3.377964e-003
1.540870e+003,3.714593e-003
1.542798e+003,4.078106e-003
1.544727e+003,4.346800e-003
1.546655e+003,4.484640e-003
1.548584e+003,4.663215e-003
1.550512e+003,4.880329e-003
1.552441e+003,5.063324e-003
1.554369e+003,5.141438e-003
1.556298e+003,5.307303e-003
1.558226e+003,5.482592e-003
1.560155e+003,5.805914e-003
1.562083e+003,6.304661e-003
1.564012e+003,6.674892e-003
1.565940e+003,6.818051e-003
1.567869e+003,7.026951e-003
1.569797e+003,7.366287e-003
1.571726e+003,7.432009e-003
1.573654e+003,7.359918e-003
1.575583e+003,7.427627e-003
1.577511e+003,7.502224e-003
1.579440e+003,7.438919e-003
1.581368e+003,7.335149e-003
1.583297e+003,7.125629e-003
1.585225e+003,7.044631e-003
1.587154e+003,6.844271e-003
1.589082e+003,6.430480e-003
1.591010e+003,6.013454e-003
1.592939e+003,5.632407e-003
1.594868e+003,5.348762e-003
1.596796e+003,4.981268e-003
1.598724e+003,4.512629e-003
1.600653e+003,4.047270e-003
1.602582e+003,3.666005e-003
1.604510e+003,3.166205e-003
1.606438e+003,2.763872e-003
1.608367e+003,2.482793e-003
1.610296e+003,1.964081e-003
1.612224e+003,1.528343e-003
1.614152e+003,1.291495e-003
1.616081e+003,9.855961e-004
1.618010e+003,7.684283e-004
1.619938e+003,6.875451e-004
1.621866e+003,5.415157e-004
1.623795e+003,1.822092e-004
1.625724e+003,3.982894e-005
1.627652e+003,-1.128399e-004
1.629580e+003,-2.717135e-004
1.631509e+003,-4.381754e-004
1.633438e+003,-5.913050e-004
1.635366e+003,-8.124153e-004
1.637294e+003,-9.992325e-004
1.639223e+003,-1.224298e-003
1.641151e+003,-1.508818e-003
1.643080e+003,-1.952633e-003
1.645008e+003,-2.269540e-003
1.646937e+003,-2.514209e-003
1.648865e+003,-2.871787e-003
1.650794e+003,-3.156579e-003
1.652722e+003,-3.412419e-003
1.654651e+003,-3.743703e-003
1.656579e+003,-3.982159e-003
1.658508e+003,-4.235742e-003
1.660436e+003,-4.508983e-003
1.662365e+003,-4.764324e-003
1.664293e+003,-4.965206e-003
1.666222e+003,-5.171397e-003
1.668150e+003,-5.312263e-003
1.670079e+003,-5.387734e-003
1.672007e+003,-5.468592e-003
1.673936e+003,-5.427985e-003
1.675864e+003,-5.445524e-003
1.677793e+003,-5.376967e-003
1.679721e+003,-5.290005e-003
1.681650e+003,-5.200799e-003
1.683578e+003,-5.053543e-003
1.685507e+003,-4.809646e-003
1.687435e+003,-4.644753e-003
1.689364e+003,-4.487570e-003
1.691292e+003,-4.357459e-003
1.693221e+003,-4.196890e-003
1.695149e+003,-4.092656e-003
1.697078e+003,-3.994667e-003
1.699006e+003,-3.988659e-003
1.700935e+003,-4.010327e-003
1.702863e+003,-3.894785e-003
1.704792e+003,-3.819448e-003
1.706720e+003,-3.932843e-003
1.708649e+003,-4.043976e-003
1.710577e+003,-4.021817e-003
1.712506e+003,-4.006519e-003
1.714434e+003,-4.044469e-003
1.716363e+003,-4.154884e-003
1.718291e+003,-4.241254e-003
1.720220e+003,-4.173295e-003
1.722148e+003,-4.114483e-003
1.724077e+003,-4.173886e-003
1.726005e+003,-4.212838e-003
1.727934e+003,-4.200730e-003
1.729862e+003,-4.260974e-003
1.731791e+003,-4.263632e-003
1.733719e+003,-4.432014e-003
1.735648e+003,-4.481831e-003
1.737576e+003,-4.352177e-003
1.739505e+003,-4.302346e-003
1.741433e+003,-4.225898e-003
1.743362e+003,-4.057370e-003
1.745290e+003,-3.995127e-003
1.747219e+003,-3.964101e-003
1.749147e+003,-3.826936e-003
1.751076e+003,-3.664298e-003
1.753004e+003,-3.588362e-003
1.754933e+003,-3.559279e-003
1.756861e+003,-3.517408e-003
1.758790e+003,-3.478065e-003
1.760718e+003,-3.489306e-003
1.762647e+003,-3.479610e-003
1.764575e+003,-3.475600e-003
1.766504e+003,-3.447134e-003
1.768432e+003,-3.449895e-003
1.770361e+003,-3.433261e-003
1.772289e+003,-3.451407e-003
1.774218e+003,-3.411071e-003
1.776146e+003,-3.290700e-003
1.778075e+003,-3.252224e-003
1.780003e+003,-3.283038e-003
1.781932e+003,-3.276363e-003
1.783860e+003,-3.282446e-003
1.785789e+003,-3.198878e-003
1.787717e+003,-3.071934e-003
1.789646e+003,-3.147270e-003
1.791574e+003,-3.236307e-003
1.793503e+003,-3.219238e-003
1.795431e+003,-3.219007e-003
1.797360e+003,-3.165888e-003
1.799288e+003,-3.126907e-003
1.801217e+003,-3.115393e-003
1.803145e+003,-3.155394e-003
1.805074e+003,-3.124210e-003
1.807002e+003,-3.057326e-003
1.808931e+003,-3.099668e-003
1.810859e+003,-3.157829e-003
1.812788e+003,-3.194570e-003
1.814716e+003,-3.201707e-003
1.816645e+003,-3.223612e-003
1.818573e+003,-3.229598e-003
1.820502e+003,-3.230387e-003
1.822430e+003,-3.227756e-003
1.824359e+003,-3.240385e-003
1.826287e+003,-3.193221e-003
1.828216e+003,-3.203450e-003
1.830144e+003,-3.305300e-003
1.832073e+003,-3.490884e-003
1.834001e+003,-3.521155e-003
1.835930e+003,-3.445884e-003
1.837858e+003,-3.405746e-003
1.839787e+003,-3.436089e-003
1.841715e+003,-3.545114e-003
1.843644e+003,-3.509586e-003
1.845572e+003,-3.486052e-003
1.847501e+003,-3.535353e-003
1.849429e+003,-3.510046e-003
1.851358e+003,-3.403477e-003
1.853286e+003,-3.330126e-003
1.855215e+003,-3.326049e-003
1.857143e+003,-3.312995e-003
1.859072e+003,-3.253770e-003
1.861000e+003,-3.214863e-003
1.862929e+003,-3.269391e-003
1.864857e+003,-3.254066e-003
1.866786e+003,-3.347421e-003
1.868714e+003,-3.395784e-003
1.870643e+003,-3.329403e-003
1.872571e+003,-3.285570e-003
1.874500e+003,-3.242029e-003
1.876428e+003,-3.162894e-003
1.878357e+003,-3.057425e-003
1.880285e+003,-3.020705e-003
1.882214e+003,-2.971675e-003
1.884142e+003,-2.926325e-003
1.886071e+003,-2.966212e-003
1.887999e+003,-3.012907e-003
1.889928e+003,-3.042092e-003
1.891856e+003,-3.118847e-003
1.893785e+003,-3.062426e-003
1.895713e+003,-2.964172e-003
1.897642e+003,-2.901180e-003
1.899570e+003,-2.817341e-003
1.901499e+003,-2.786527e-003
1.903427e+003,-2.807004e-003
1.905356e+003,-2.827974e-003
1.907284e+003,-2.834163e-003
1.909213e+003,-2.893610e-003
1.911141e+003,-2.880378e-003
1.913070e+003,-2.858686e-003
1.914998e+003,-2.789292e-003
1.916927e+003,-2.710437e-003
1.918855e+003,-2.670856e-003
1.920784e+003,-2.674775e-003
1.922712e+003,-2.729996e-003
1.924641e+003,-2.757917e-003
1.926569e+003,-2.720711e-003
1.928498e+003,-2.808848e-003
1.930426e+003,-2.780206e-003
1.932355e+003,-2.771449e-003
1.934283e+003,-2.808321e-003
1.936212e+003,-2.876264e-003
1.938140e+003,-2.946466e-003
1.940069e+003,-2.903023e-003
1.941997e+003,-2.777045e-003
1.943926e+003,-2.793737e-003
1.945854e+003,-2.951962e-003
1.947783e+003,-2.953772e-003
1.949711e+003,-2.897921e-003
1.951640e+003,-2.914575e-003
1.953568e+003,-3.027812e-003
1.955497e+003,-3.102399e-003
1.957425e+003,-3.070026e-003
1.959354e+003,-3.040908e-003
1.961282e+003,-2.988984e-003
1.963211e+003,-2.991057e-003
1.965139e+003,-3.008168e-003
1.967068e+003,-2.990860e-003
1.968996e+003,-3.112959e-003
1.970925e+003,-3.090522e-003
1.972853e+003,-2.894827e-003
1.974782e+003,-2.852663e-003
1.976710e+003,-2.952193e-003
1.978639e+003,-2.974505e-003
1.980567e+003,-2.985660e-003
1.982496e+003,-3.007609e-003
1.984424e+003,-2.888343e-003
1.986353e+003,-2.703951e-003
1.988281e+003,-2.744813e-003
1.990210e+003,-2.822872e-003
1.992138e+003,-2.740697e-003
1.994067e+003,-2.674578e-003
1.995995e+003,-2.744023e-003
1.997924e+003,-2.769144e-003
1.999852e+003,-2.697365e-003
2.001781e+003,-2.674973e-003
2.003709e+003,-2.643029e-003
2.005638e+003,-2.563521e-003
2.007566e+003,-2.461036e-003
2.009495e+003,-2.530284e-003
2.011423e+003,-2.635816e-003
2.013352e+003,-2.587599e-003
2.015280e+003,-2.453063e-003
2.017208e+003,-2.377541e-003
2.019137e+003,-2.364689e-003
2.021066e+003,-2.391018e-003
2.022994e+003,-2.466241e-003
2.024922e+003,-2.463309e-003
2.026851e+003,-2.404726e-003
2.028780e+003,-2.453194e-003
2.030708e+003,-2.434776e-003
2.032636e+003,-2.416951e-003
2.034565e+003,-2.448318e-003
2.036494e+003,-2.444727e-003
2.038422e+003,-2.422486e-003
2.040350e+003,-2.388613e-003
2.042279e+003,-2.354967e-003
2.044208e+003,-2.368874e-003
2.046136e+003,-2.403079e-003
2.048064e+003,-2.443673e-003
2.049993e+003,-2.405089e-003
2.051921e+003,-2.331272e-003
2.053850e+003,-2.280878e-003
2.055778e+003,-2.274846e-003
2.057707e+003,-2.216337e-003
2.059635e+003,-2.225666e-003
2.061564e+003,-2.233083e-003
2.063492e+003,-2.365875e-003
2.065421e+003,-2.377310e-003
2.067349e+003,-2.199887e-003
2.069278e+003,-2.199227e-003
2.071206e+003,-2.182645e-003
2.073135e+003,-2.097579e-003
2.075063e+003,-2.094908e-003
2.076992e+003,-2.079509e-003
2.078920e+003,-2.083697e-003
2.080849e+003,-2.047060e-003
2.082777e+003,-2.025359e-003
2.084706e+003,-2.113868e-003
2.086634e+003,-2.154456e-003
2.088563e+003,-2.055964e-003
2.090491e+003,-1.950225e-003
2.092420e+003,-1.930895e-003
2.094348e+003,-1.852016e-003
2.096277e+003,-1.840666e-003
2.098205e+003,-1.819120e-003
2.100134e+003,-1.767710e-003
2.102062e+003,-1.726921e-003
2.103991e+003,-1.737416e-003
2.105919e+003,-1.619154e-003
2.107848e+003,-1.435179e-003
2.109776e+003,-1.484251e-003
2.111705e+003,-1.572376e-003
2.113633e+003,-1.497559e-003
2.115562e+003,-1.368134e-003
2.117490e+003,-1.305241e-003
2.119419e+003,-1.220928e-003
2.121347e+003,-1.183458e-003
2.123276e+003,-1.234045e-003
2.125204e+003,-1.216963e-003
2.127133e+003,-1.147670e-003
2.129061e+003,-1.069838e-003
2.130990e+003,-1.029612e-003
2.132918e+003,-1.107583e-003
2.134847e+003,-1.174040e-003
2.136775e+003,-1.130419e-003
2.138704e+003,-1.084150e-003
2.140632e+003,-1.016224e-003
2.142561e+003,-1.037148e-003
2.144489e+003,-1.069078e-003
2.146418e+003,-1.033182e-003
2.148346e+003,-9.619416e-004
2.150275e+003,-9.553955e-004
2.152203e+003,-9.132404e-004
2.154132e+003,-9.281522e-004
2.156060e+003,-9.789014e-004
2.157989e+003,-9.959928e-004
2.159917e+003,-9.922242e-004
2.161846e+003,-1.018670e-003
2.163774e+003,-1.012654e-003
2.165703e+003,-9.274909e-004
2.167631e+003,-8.804723e-004
2.169560e+003,-8.305715e-004
2.171488e+003,-8.861598e-004
2.173417e+003,-9.929845e-004
2.175345e+003,-9.964887e-004
2.177274e+003,-9.053710e-004
2.179202e+003,-8.468420e-004
2.181131e+003,-8.919464e-004
2.183059e+003,-9.258378e-004
2.184988e+003,-8.704860e-004
2.186916e+003,-8.541172e-004
2.188845e+003,-9.248128e-004
2.190773e+003,-9.548005e-004
2.192702e+003,-9.772815e-004
2.194630e+003,-9.013371e-004
2.196559e+003,-8.604333e-004
2.198487e+003,-8.640378e-004
2.200416e+003,-8.463790e-004
2.202344e+003,-8.229651e-004
2.204273e+003,-7.874782e-004
2.206201e+003,-8.103978e-004
2.208130e+003,-8.428075e-004
2.210058e+003,-8.563328e-004
2.211987e+003,-8.193603e-004
2.213915e+003,-7.985578e-004
2.215844e+003,-7.163632e-004
2.217772e+003,-7.266177e-004
2.219701e+003,-7.348542e-004
2.221629e+003,-7.448106e-004
2.223558e+003,-8.329856e-004
2.225486e+003,-8.463128e-004
2.227415e+003,-8.127459e-004
2.229343e+003,-8.024935e-004
2.231272e+003,-7.647888e-004
2.233200e+003,-6.855321e-004
2.235129e+003,-7.075971e-004
2.237057e+003,-7.605220e-004
2.238986e+003,-7.204650e-004
2.240914e+003,-7.421313e-004
2.242843e+003,-7.505991e-004
2.244771e+003,-7.895287e-004
2.246700e+003,-7.945890e-004
2.248628e+003,-7.575451e-004
2.250557e+003,-9.087436e-004
2.252485e+003,-9.508000e-004
2.254414e+003,-9.114880e-004
2.256342e+003,-8.688988e-004
2.258271e+003,-8.664186e-004
2.260199e+003,-8.830515e-004
2.262128e+003,-8.365572e-004
2.264056e+003,-8.897310e-004
2.265985e+003,-9.792651e-004
2.267913e+003,-9.176049e-004
2.269842e+003,-8.310675e-004
2.271770e+003,-8.075205e-004
2.273699e+003,-9.171420e-004
2.275627e+003,-1.008489e-003
2.277556e+003,-1.062699e-003
2.279484e+003,-1.126454e-003
2.281413e+003,-1.120241e-003
2.283341e+003,-1.180616e-003
2.285270e+003,-1.174933e-003
2.287198e+003,-1.134088e-003
2.289127e+003,-9.586355e-004
2.291055e+003,-8.833161e-004
2.292984e+003,-9.105291e-004
2.294912e+003,-9.345004e-004
2.296841e+003,-9.337399e-004
2.298769e+003,-7.163632e-004
2.300698e+003,-5.061256e-004
2.302626e+003,-3.635601e-004
2.304555e+003,-2.049851e-004
2.306483e+003,-3.598208e-005
2.308412e+003,1.682210e-004
2.310340e+003,4.937127e-004
2.312269e+003,1.064974e-003
2.314197e+003,1.671445e-003
2.316125e+003,2.213285e-003
2.318054e+003,2.795751e-003
2.319983e+003,3.440647e-003
2.321911e+003,4.127042e-003
2.323840e+003,4.866356e-003
2.325768e+003,5.356712e-003
2.327697e+003,5.843659e-003
2.329625e+003,6.573323e-003
2.331553e+003,6.887729e-003
2.333482e+003,6.969472e-003
2.335411e+003,7.184711e-003
2.337339e+003,7.496763e-003
2.339268e+003,7.607854e-003
2.341196e+003,7.409999e-003
2.343125e+003,6.915536e-003
2.345053e+003,5.716533e-003
2.346981e+003,3.793836e-003
2.348910e+003,2.662113e-003
2.350839e+003,3.933875e-003
2.352767e+003,6.372206e-003
2.354696e+003,8.347549e-003
2.356624e+003,9.605878e-003
2.358552e+003,1.022562e-002
2.360481e+003,1.047853e-002
2.362409e+003,1.047422e-002
2.364338e+003,1.028394e-002
2.366267e+003,9.648868e-003
2.368195e+003,8.591387e-003
2.370124e+003,7.338754e-003
2.372052e+003,5.929539e-003
2.373980e+003,4.571223e-003
2.375909e+003,3.228858e-003
2.377838e+003,1.982221e-003
2.379766e+003,1.018375e-003
2.381695e+003,4.071431e-004
2.383623e+003,1.447868e-004
2.385552e+003,7.720299e-006
2.387480e+003,-1.059166e-004
2.389408e+003,-7.709607e-005
2.391337e+003,-1.129393e-004
2.393266e+003,-1.444073e-004
2.395194e+003,-1.468584e-004
2.397123e+003,-9.995390e-005
2.399051e+003,6.799637e-005
2.400979e+003,1.155869e-004
2.402908e+003,3.465959e-005
2.404836e+003,1.961579e-005
2.406765e+003,-4.678274e-005
2.408694e+003,-3.651218e-005
2.410622e+003,9.706045e-005
2.412551e+003,1.541669e-004
2.414479e+003,2.755306e-004
2.416407e+003,3.730175e-004
2.418336e+003,3.378335e-004
2.420264e+003,2.296465e-004
2.422193e+003,1.867173e-004
2.424122e+003,2.827917e-004
2.426050e+003,3.592221e-004
2.427979e+003,3.266256e-004
2.429907e+003,3.595537e-004
2.431835e+003,4.750705e-004
2.433764e+003,5.521320e-004
2.435692e+003,5.732325e-004
2.437621e+003,5.886937e-004
2.439550e+003,5.611560e-004
2.441478e+003,6.044540e-004
2.443406e+003,7.648102e-004
2.445335e+003,8.120789e-004
2.447263e+003,8.161952e-004
2.449192e+003,8.558003e-004
2.451121e+003,8.388689e-004
2.453049e+003,8.878057e-004
2.454978e+003,9.913081e-004
2.456906e+003,1.059394e-003
2.458834e+003,1.073610e-003
2.460763e+003,1.030663e-003
2.462691e+003,9.017839e-004
2.464620e+003,8.325945e-004
2.466549e+003,9.453815e-004
2.468477e+003,1.071882e-003
2.470406e+003,1.106727e-003
2.472334e+003,1.105830e-003
2.474262e+003,1.131376e-003
2.476191e+003,1.126127e-003
2.478119e+003,1.193802e-003
2.480048e+003,1.214734e-003
2.481977e+003,1.252449e-003
2.483905e+003,1.255273e-003
2.485833e+003,1.221479e-003
2.487762e+003,1.259194e-003
2.489690e+003,1.241948e-003
2.491619e+003,1.297643e-003
2.493547e+003,1.425577e-003
2.495476e+003,1.434652e-003
2.497405e+003,1.357434e-003
2.499333e+003,1.366508e-003
2.501261e+003,1.418895e-003
2.503190e+003,1.413410e-003
2.505118e+003,1.413078e-003
2.507047e+003,1.400379e-003
2.508975e+003,1.429566e-003
2.510904e+003,1.424247e-003
2.512833e+003,1.495958e-003
2.514761e+003,1.560631e-003
2.516689e+003,1.523522e-003
2.518618e+003,1.515143e-003
2.520546e+003,1.563690e-003
2.522475e+003,1.539748e-003
2.524403e+003,1.578289e-003
2.526332e+003,1.660369e-003
2.528260e+003,1.642175e-003
2.530189e+003,1.648827e-003
2.532117e+003,1.620125e-003
2.534046e+003,1.608019e-003
2.535974e+003,1.686978e-003
2.537903e+003,1.698720e-003
2.539831e+003,1.748120e-003
2.541760e+003,1.811633e-003
2.543688e+003,1.899248e-003
2.545617e+003,1.893491e-003
2.547545e+003,1.894955e-003
2.549474e+003,1.850929e-003
2.551402e+003,1.852660e-003
2.553331e+003,1.914956e-003
2.555259e+003,1.972436e-003
2.557188e+003,2.020368e-003
2.559116e+003,2.008951e-003
2.561045e+003,2.050163e-003
2.562973e+003,2.036580e-003
2.564902e+003,2.125406e-003
2.566830e+003,2.214950e-003
2.568759e+003,2.143886e-003
2.570687e+003,2.112288e-003
2.572616e+003,2.202029e-003
2.574544e+003,2.294619e-003
2.576473e+003,2.210854e-003
2.578401e+003,2.171491e-003
2.580330e+003,2.149048e-003
2.582258e+003,2.122376e-003
2.584187e+003,2.123442e-003
2.586115e+003,2.090846e-003
2.588044e+003,2.035115e-003
2.589972e+003,2.073400e-003
2.591901e+003,2.238463e-003
2.593829e+003,2.257081e-003
2.595758e+003,2.160169e-003
2.597686e+003,2.146517e-003
2.599615e+003,2.223409e-003
2.601543e+003,2.303047e-003
2.603472e+003,2.246223e-003
2.605400e+003,2.243192e-003
2.607329e+003,2.290456e-003
2.609257e+003,2.324166e-003
2.611186e+003,2.372904e-003
2.613114e+003,2.375203e-003
2.615043e+003,2.388429e-003
2.616971e+003,2.391328e-003
2.618900e+003,2.468397e-003
2.620828e+003,2.520217e-003
2.622757e+003,2.555345e-003
2.624685e+003,2.490524e-003
2.626614e+003,2.414650e-003
2.628542e+003,2.454068e-003
2.630471e+003,2.564244e-003
2.632399e+003,2.586043e-003
2.634328e+003,2.583843e-003
2.636256e+003,2.579576e-003
2.638185e+003,2.645911e-003
2.640113e+003,2.751300e-003
2.642042e+003,2.781312e-003
2.643970e+003,2.872091e-003
2.645899e+003,2.902511e-003
2.647827e+003,2.854881e-003
2.649756e+003,2.869923e-003
2.651684e+003,3.026414e-003
2.653613e+003,3.007763e-003
2.655541e+003,2.976568e-003
2.657470e+003,3.011833e-003
2.659398e+003,3.113274e-003
2.661327e+003,3.181359e-003
2.663255e+003,3.109870e-003
2.665184e+003,3.046901e-003
2.667112e+003,3.151420e-003
2.669041e+003,3.188702e-003
2.670969e+003,3.213970e-003
2.672898e+003,3.222215e-003
2.674826e+003,3.239206e-003
2.676755e+003,3.347110e-003
2.678683e+003,3.400538e-003
2.680612e+003,3.417770e-003
2.682540e+003,3.508616e-003
2.684469e+003,3.554447e-003
2.686397e+003,3.541085e-003
2.688326e+003,3.569581e-003
2.690254e+003,3.732740e-003
2.692183e+003,3.728496e-003
2.694111e+003,3.628950e-003
2.696040e+003,3.583679e-003
2.697968e+003,3.621399e-003
2.699897e+003,3.772144e-003
2.701825e+003,3.842973e-003
2.703754e+003,3.893086e-003
2.705682e+003,3.966276e-003
2.707611e+003,3.987643e-003
2.709539e+003,4.015064e-003
2.711468e+003,4.048775e-003
2.713396e+003,4.105533e-003
2.715325e+003,4.144570e-003
2.717253e+003,4.166615e-003
2.719182e+003,4.249387e-003
2.721110e+003,4.217501e-003
2.723039e+003,4.201107e-003
2.724967e+003,4.314404e-003
2.726896e+003,4.414476e-003
2.728824e+003,4.482129e-003
2.730753e+003,4.479150e-003
2.732681e+003,4.398778e-003
2.734610e+003,4.468002e-003
2.736538e+003,4.595901e-003
2.738467e+003,4.699052e-003
2.740395e+003,4.769296e-003
2.742324e+003,4.800251e-003
2.744252e+003,4.827221e-003
2.746181e+003,4.890650e-003
2.748109e+003,4.948122e-003
2.750038e+003,4.996552e-003
2.751966e+003,5.078644e-003
2.753895e+003,5.256088e-003
2.755823e+003,5.402806e-003
2.757752e+003,5.487524e-003
2.759680e+003,5.550714e-003
2.761609e+003,5.627708e-003
2.763537e+003,5.879494e-003
2.765466e+003,6.159185e-003
2.767394e+003,6.371130e-003
2.769323e+003,6.566091e-003
2.771251e+003,6.915738e-003
2.773180e+003,7.244711e-003
2.775108e+003,7.478896e-003
2.777037e+003,7.724506e-003
2.778965e+003,8.039106e-003
2.780894e+003,8.442879e-003
2.782822e+003,8.847569e-003
2.784750e+003,9.329038e-003
2.786679e+003,9.757427e-003
2.788608e+003,1.010653e-002
2.790536e+003,1.043709e-002
2.792465e+003,1.080515e-002
2.794393e+003,1.121885e-002
2.796322e+003,1.156002e-002
2.798250e+003,1.181465e-002
2.800178e+003,1.207336e-002
2.802107e+003,1.235018e-002
2.804036e+003,1.260842e-002
2.805964e+003,1.277467e-002
2.807893e+003,1.291170e-002
2.809821e+003,1.295457e-002
2.811750e+003,1.295348e-002
2.813678e+003,1.284241e-002
2.815606e+003,1.277167e-002
2.817535e+003,1.261244e-002
2.819464e+003,1.240926e-002
2.821392e+003,1.227239e-002
2.823321e+003,1.205707e-002
2.825249e+003,1.185807e-002
2.827177e+003,1.162917e-002
2.829106e+003,1.126251e-002
2.831034e+003,1.080342e-002
2.832963e+003,1.039008e-002
2.834892e+003,1.016311e-002
2.836820e+003,9.831578e-003
2.838749e+003,9.367836e-003
2.840677e+003,8.864410e-003
2.842605e+003,8.520895e-003
2.844534e+003,8.179102e-003
2.846462e+003,7.544803e-003
2.848391e+003,6.998497e-003
2.850320e+003,6.736303e-003
2.852248e+003,6.668970e-003
2.854177e+003,6.546244e-003
2.856105e+003,6.503090e-003
2.858033e+003,6.505511e-003
2.859962e+003,6.543856e-003
2.861890e+003,6.511263e-003
2.863819e+003,6.460948e-003
2.865748e+003,6.434549e-003
2.867676e+003,6.410774e-003
2.869604e+003,6.567705e-003
2.871533e+003,6.686669e-003
2.873461e+003,6.782509e-003
2.875390e+003,6.864872e-003
2.877319e+003,7.044664e-003
2.879247e+003,7.156415e-003
2.881176e+003,7.018398e-003
2.883104e+003,6.970651e-003
2.885032e+003,7.174336e-003
2.886961e+003,7.191718e-003
2.888889e+003,7.113907e-003
2.890818e+003,6.996308e-003
2.892747e+003,6.833029e-003
2.894675e+003,6.637444e-003
2.896604e+003,6.504469e-003
2.898532e+003,6.483414e-003
2.900460e+003,6.518763e-003
2.902389e+003,6.455803e-003
2.904317e+003,6.201162e-003
2.906246e+003,6.022928e-003
2.908175e+003,6.075745e-003
2.910103e+003,6.068622e-003
2.912031e+003,5.858067e-003
2.913960e+003,5.562158e-003
2.915888e+003,5.341315e-003
2.917817e+003,5.196027e-003
2.919745e+003,5.396801e-003
2.921674e+003,5.578704e-003
2.923603e+003,5.723651e-003
2.925531e+003,5.818305e-003
2.927459e+003,5.878856e-003
2.929388e+003,5.964474e-003
2.931316e+003,6.056022e-003
2.933245e+003,6.091202e-003
2.935173e+003,6.214304e-003
2.937102e+003,6.274607e-003
2.939031e+003,6.260926e-003
2.940959e+003,6.189398e-003
2.942887e+003,6.079576e-003
2.944816e+003,6.025683e-003
2.946744e+003,5.879763e-003
2.948673e+003,5.681316e-003
2.950601e+003,5.308410e-003
2.952530e+003,4.885288e-003
2.954458e+003,4.536735e-003
2.956387e+003,4.168355e-003
2.958315e+003,3.959956e-003
2.960244e+003,3.619027e-003
2.962172e+003,3.279667e-003
2.964101e+003,2.894172e-003
2.966029e+003,2.531415e-003
2.967958e+003,2.319669e-003
2.969886e+003,2.130567e-003
2.971815e+003,1.880878e-003
2.973743e+003,1.676800e-003
2.975672e+003,1.540812e-003
2.977600e+003,1.443329e-003
2.979529e+003,1.423250e-003
2.981457e+003,1.369034e-003
2.983386e+003,1.165761e-003
2.985314e+003,9.428578e-004
2.987243e+003,8.382713e-004
2.989171e+003,8.523143e-004
2.991100e+003,7.180778e-004
2.993028e+003,6.583752e-004
2.994957e+003,7.211644e-004
2.996885e+003,5.809630e-004
2.998814e+003,4.657829e-004
3.000742e+003,5.010768e-004
3.002671e+003,4.875096e-004
3.004599e+003,4.466445e-004
3.006528e+003,4.758335e-004
3.008456e+003,4.414372e-004
3.010385e+003,4.071431e-004
3.012313e+003,4.817046e-004
3.014242e+003,4.935136e-004
3.016170e+003,3.935787e-004
3.018099e+003,4.418020e-004
3.020027e+003,4.231289e-004
3.021956e+003,2.925727e-004
3.023884e+003,2.851457e-004
3.025813e+003,3.395246e-004
3.027741e+003,3.126659e-004
3.029670e+003,2.311714e-004
3.031598e+003,2.360779e-004
3.033527e+003,2.942968e-004
3.035455e+003,3.789536e-004
3.037384e+003,4.333443e-004
3.039312e+003,3.198613e-004
3.041241e+003,1.425660e-004
3.043169e+003,8.224647e-005
3.045098e+003,1.261928e-004
3.047026e+003,2.246075e-004
3.048955e+003,2.581246e-004
3.050883e+003,2.216239e-004
3.052812e+003,1.676575e-004
3.054740e+003,5.407812e-005
3.056669e+003,4.314266e-005
3.058597e+003,2.611041e-005
3.060526e+003,-6.894647e-005
3.062454e+003,-3.671096e-005
3.064383e+003,-2.869313e-005
3.066311e+003,-2.190105e-005
3.068240e+003,8.821177e-005
3.070168e+003,-1.722967e-006
3.072097e+003,-2.115424e-004
3.074025e+003,-2.412482e-004
3.075954e+003,-1.615978e-004
3.077882e+003,-1.488789e-004
3.079811e+003,-1.656386e-004
3.081739e+003,-1.725609e-004
3.083668e+003,-1.562651e-004
3.085596e+003,-2.725413e-004
3.087525e+003,-3.798812e-004
3.089453e+003,-3.398885e-004
3.091382e+003,-3.450202e-004
3.093310e+003,-2.578388e-004
3.095239e+003,-2.274388e-004
3.097167e+003,-2.969782e-004
3.099096e+003,-2.947267e-004
3.101024e+003,-3.057196e-004
3.102953e+003,-3.808744e-004
3.104881e+003,-4.134485e-004
3.106810e+003,-2.462155e-004
3.108738e+003,-2.362146e-004
3.110667e+003,-3.083022e-004
3.112595e+003,-2.857533e-004
3.114524e+003,-2.041240e-004
3.116452e+003,-2.936009e-004
3.118381e+003,-3.533964e-004
3.120309e+003,-2.858527e-004
3.122238e+003,-2.623423e-004
3.124166e+003,-1.601073e-004
3.126095e+003,-1.780590e-004
3.128023e+003,-2.661835e-004
3.129952e+003,-3.603819e-004
3.131880e+003,-4.581346e-004
3.133809e+003,-3.299559e-004
3.135737e+003,-2.049188e-004
3.137666e+003,-2.780381e-004
3.139594e+003,-3.525356e-004
3.141523e+003,-3.221753e-004
3.143451e+003,-2.582693e-004
3.145380e+003,-2.341945e-004
3.147308e+003,-3.402527e-004
3.149237e+003,-3.462783e-004
3.151165e+003,-2.188946e-004
3.153094e+003,-1.933935e-004
3.155022e+003,-1.699775e-004
3.156951e+003,-1.596436e-004
3.158879e+003,-1.825964e-004
3.160808e+003,-8.541116e-005
3.162736e+003,1.146453e-005
3.164665e+003,-5.228237e-005
3.166593e+003,-2.146886e-004
3.168522e+003,-2.990974e-004
3.170450e+003,-1.851467e-004
3.172379e+003,-9.541555e-005
3.174307e+003,-2.129003e-004
3.176236e+003,-2.087937e-004
3.178164e+003,-4.168062e-005
3.180093e+003,-2.587691e-005
3.182021e+003,-1.777609e-004
3.183950e+003,-1.801787e-004
3.185878e+003,-1.681227e-004
3.187807e+003,-7.444581e-005
3.189735e+003,3.412820e-006
3.191664e+003,-2.713593e-005
3.193592e+003,-6.295463e-007
3.195521e+003,-1.951551e-005
3.197449e+003,-4.028912e-005
3.199378e+003,-1.095936e-004
3.201306e+003,-2.080319e-004
3.203235e+003,-1.681889e-004
3.205163e+003,-1.261892e-004
3.207092e+003,-1.116142e-004
3.209020e+003,4.082306e-005
3.210948e+003,8.503027e-005
3.212877e+003,5.782275e-005
3.214806e+003,7.084636e-005
3.216734e+003,1.215858e-004
3.218663e+003,3.104112e-004
3.220591e+003,3.579620e-004
3.222520e+003,2.588208e-004
3.224448e+003,2.238118e-004
3.226376e+003,3.192644e-004
3.228305e+003,3.605486e-004
3.230234e+003,4.176233e-004
3.232162e+003,5.127868e-004
3.234091e+003,6.520702e-004
3.236019e+003,6.414515e-004
3.237948e+003,4.934141e-004
3.239876e+003,5.301699e-004
3.241804e+003,7.754652e-004
3.243733e+003,1.041657e-003
3.245662e+003,9.871570e-004
3.247590e+003,1.081648e-003
3.249519e+003,1.257998e-003
3.251447e+003,1.268233e-003
3.253375e+003,1.155163e-003
3.255304e+003,1.300103e-003
3.257232e+003,1.543738e-003
3.259161e+003,1.512882e-003
3.261090e+003,1.516938e-003
3.263018e+003,1.571039e-003
3.264947e+003,1.570042e-003
3.266875e+003,1.529939e-003
3.268803e+003,1.631666e-003
3.270732e+003,1.742132e-003
3.272660e+003,1.613041e-003
3.274589e+003,1.647929e-003
3.276518e+003,1.714521e-003
3.278446e+003,1.720642e-003
3.280375e+003,1.817888e-003
3.282303e+003,1.758234e-003
3.284231e+003,1.747654e-003
3.286160e+003,1.649493e-003
3.288088e+003,1.468662e-003
3.290017e+003,1.335996e-003
3.291946e+003,1.452205e-003
3.293874e+003,1.545068e-003
3.295802e+003,1.438176e-003
3.297731e+003,1.299272e-003
3.299659e+003,1.231747e-003
3.301588e+003,1.115265e-003
3.303516e+003,1.005522e-003
3.305445e+003,9.156297e-004
3.307374e+003,9.098854e-004
3.309302e+003,9.072292e-004
3.311230e+003,6.471590e-004
3.313159e+003,4.693985e-004
3.315087e+003,4.158324e-004
3.317016e+003,4.594144e-004
3.318944e+003,4.474405e-004
3.320873e+003,4.234274e-004
3.322802e+003,2.747681e-004
3.324730e+003,1.231104e-004
3.326658e+003,-3.034972e-005
3.328587e+003,-1.069104e-004
3.330515e+003,-1.238705e-004
3.332444e+003,-2.053162e-004
3.334372e+003,-2.560506e-004
3.336301e+003,-2.040909e-004
3.338229e+003,-2.764818e-004
3.340158e+003,-3.444574e-004
3.342086e+003,-3.381337e-004
3.344015e+003,-4.256300e-004
3.345943e+003,-4.106017e-004
3.347872e+003,-4.827265e-004
3.349800e+003,-6.314069e-004
3.351729e+003,-6.471224e-004
3.353657e+003,-6.461630e-004
3.355586e+003,-7.678317e-004
3.357514e+003,-6.979376e-004
3.359443e+003,-6.669728e-004
3.361371e+003,-7.954820e-004
3.363300e+003,-8.356313e-004
3.365229e+003,-9.272926e-004
3.367157e+003,-1.205068e-003
3.369085e+003,-1.382865e-003
3.371014e+003,-1.443370e-003
3.372942e+003,-1.419955e-003
3.374871e+003,-1.471406e-003
3.376799e+003,-1.423918e-003
3.378728e+003,-1.560952e-003
3.380656e+003,-1.696624e-003
3.382585e+003,-1.750286e-003
3.384513e+003,-1.869798e-003
3.386442e+003,-2.041750e-003
3.388370e+003,-2.144697e-003
3.390299e+003,-2.169524e-003
3.392227e+003,-2.118056e-003
3.394156e+003,-2.157556e-003
3.396084e+003,-2.093260e-003
3.398013e+003,-2.182810e-003
3.399941e+003,-2.271089e-003
3.401870e+003,-2.242346e-003
3.403798e+003,-2.304873e-003
3.405727e+003,-2.358361e-003
3.407655e+003,-2.279988e-003
3.409584e+003,-2.266408e-003
3.411512e+003,-2.350353e-003
3.413441e+003,-2.482550e-003
3.415369e+003,-2.454150e-003
3.417298e+003,-2.398597e-003
3.419226e+003,-2.355396e-003
3.421155e+003,-2.341027e-003
3.423083e+003,-2.417906e-003
3.425012e+003,-2.365282e-003
3.426940e+003,-2.387097e-003
3.428869e+003,-2.560162e-003
3.430797e+003,-2.506138e-003
3.432726e+003,-2.455567e-003
3.434654e+003,-2.446868e-003
3.436583e+003,-2.704247e-003
3.438511e+003,-2.822674e-003
3.440440e+003,-2.551202e-003
3.442368e+003,-2.599950e-003
3.444297e+003,-2.757456e-003
3.446225e+003,-2.732828e-003
3.448154e+003,-2.682579e-003
3.450082e+003,-2.584272e-003
3.452011e+003,-2.570669e-003
3.453939e+003,-2.600477e-003
3.455868e+003,-2.683535e-003
3.457796e+003,-2.821226e-003
3.459725e+003,-2.869681e-003
3.461653e+003,-2.669638e-003
3.463582e+003,-2.499549e-003
3.465510e+003,-2.615693e-003
3.467439e+003,-2.898119e-003
3.469367e+003,-2.974044e-003
3.471296e+003,-2.881267e-003
3.473224e+003,-2.819481e-003
3.475153e+003,-2.852301e-003
3.477081e+003,-2.876033e-003
3.479010e+003,-2.991057e-003
3.480938e+003,-3.126776e-003
3.482867e+003,-3.250152e-003
3.484795e+003,-3.131842e-003
3.486724e+003,-3.048903e-003
3.488652e+003,-3.188123e-003
3.490581e+003,-3.131249e-003
3.492509e+003,-2.956965e-003
3.494438e+003,-2.922968e-003
3.496366e+003,-2.858160e-003
3.498295e+003,-2.954792e-003
3.500223e+003,-2.987043e-003
3.502152e+003,-2.914740e-003
3.504080e+003,-2.772897e-003
3.506009e+003,-2.855099e-003
3.507937e+003,-3.139769e-003
3.509866e+003,-3.038341e-003
3.511794e+003,-2.810066e-003
3.513723e+003,-2.887060e-003
3.515651e+003,-3.034492e-003
3.517580e+003,-3.054200e-003
3.519508e+003,-3.024127e-003
3.521437e+003,-2.981843e-003
3.523365e+003,-3.003430e-003
3.525294e+003,-3.095062e-003
3.527222e+003,-3.108682e-003
3.529151e+003,-2.943636e-003
3.531079e+003,-2.919117e-003
3.533008e+003,-3.029095e-003
3.534936e+003,-2.992077e-003
3.536865e+003,-2.886368e-003
3.538793e+003,-3.053970e-003
3.540722e+003,-3.287050e-003
3.542650e+003,-3.393417e-003
3.544579e+003,-3.162236e-003
3.546507e+003,-2.821028e-003
3.548436e+003,-2.863986e-003
3.550364e+003,-2.932841e-003
3.552293e+003,-2.869384e-003
3.554221e+003,-2.936692e-003
3.556150e+003,-3.044889e-003
3.558078e+003,-2.938337e-003
3.560007e+003,-2.940773e-003
3.561935e+003,-3.207989e-003
3.563864e+003,-3.215159e-003
3.565792e+003,-3.151743e-003
3.567721e+003,-3.165427e-003
3.569649e+003,-3.008793e-003
3.571578e+003,-2.956043e-003
3.573506e+003,-2.835809e-003
3.575435e+003,-2.737898e-003
3.577363e+003,-2.762493e-003
3.579292e+003,-2.938568e-003
3.581220e+003,-2.972333e-003
3.583149e+003,-3.004483e-003
3.585077e+003,-2.967857e-003
3.587006e+003,-2.821456e-003
3.588934e+003,-2.852004e-003
3.590863e+003,-2.966673e-003
3.592791e+003,-2.874420e-003
3.594720e+003,-2.783893e-003
3.596648e+003,-2.804403e-003
3.598577e+003,-2.934289e-003
3.600505e+003,-2.886138e-003
3.602434e+003,-2.780239e-003
3.604362e+003,-2.743858e-003
3.606291e+003,-2.719163e-003
3.608219e+003,-2.716299e-003
3.610148e+003,-2.689956e-003
3.612076e+003,-2.785902e-003
3.614005e+003,-2.892622e-003
3.615933e+003,-2.824123e-003
3.617862e+003,-2.792387e-003
3.619790e+003,-2.887060e-003
3.621719e+003,-2.915859e-003
3.623647e+003,-2.903319e-003
3.625576e+003,-2.816551e-003
3.627504e+003,-2.596163e-003
3.629433e+003,-2.445748e-003
3.631361e+003,-2.795251e-003
3.633290e+003,-2.810988e-003
3.635218e+003,-2.689791e-003
3.637146e+003,-2.720316e-003
3.639075e+003,-2.774675e-003
3.641004e+003,-2.941234e-003
3.642932e+003,-3.064564e-003
3.644861e+003,-3.120460e-003
3.646789e+003,-3.162072e-003
3.648718e+003,-3.108781e-003
3.650646e+003,-3.282347e-003
3.652574e+003,-3.465016e-003
3.654503e+003,-3.252849e-003
3.656432e+003,-2.954595e-003
3.658360e+003,-2.994973e-003
3.660289e+003,-3.147730e-003
3.662217e+003,-3.249396e-003
3.664146e+003,-3.320032e-003
3.666074e+003,-3.449336e-003
3.668002e+003,-3.577419e-003
3.669931e+003,-3.503308e-003
3.671860e+003,-3.408080e-003
3.673788e+003,-3.363236e-003
3.675717e+003,-3.258966e-003
3.677645e+003,-3.292344e-003
3.679573e+003,-3.344133e-003
3.681502e+003,-3.176611e-003
3.683430e+003,-3.034130e-003
3.685359e+003,-3.179143e-003
3.687288e+003,-3.250317e-003
3.689216e+003,-2.998033e-003
3.691145e+003,-2.880279e-003
3.693073e+003,-2.929649e-003
3.695001e+003,-2.965916e-003
3.696930e+003,-2.866652e-003
3.698858e+003,-2.818263e-003
3.700787e+003,-2.786461e-003
3.702716e+003,-2.827612e-003
3.704644e+003,-2.869121e-003
3.706573e+003,-2.792321e-003
3.708501e+003,-2.977269e-003
3.710429e+003,-3.226177e-003
3.712358e+003,-3.209831e-003
3.714286e+003,-3.193057e-003
3.716215e+003,-3.133848e-003
3.718144e+003,-3.042717e-003
3.720072e+003,-2.897888e-003
3.722000e+003,-2.864151e-003
3.723929e+003,-2.891964e-003
3.725857e+003,-2.831463e-003
3.727786e+003,-3.091904e-003
3.729714e+003,-3.043441e-003
3.731643e+003,-2.773128e-003
3.733572e+003,-2.584009e-003
3.735500e+003,-2.588488e-003
3.737428e+003,-2.886961e-003
3.739357e+003,-2.962987e-003
3.741285e+003,-2.907795e-003
3.743214e+003,-2.635784e-003
3.745142e+003,-2.412832e-003
3.747071e+003,-2.589147e-003
3.749000e+003,-2.562698e-003
3.750928e+003,-2.634598e-003
3.752856e+003,-2.537795e-003
3.754785e+003,-2.343960e-003
3.756713e+003,-2.355956e-003
3.758642e+003,-2.440641e-003
3.760570e+003,-2.286745e-003
3.762499e+003,-2.375893e-003
3.764427e+003,-2.508872e-003
3.766356e+003,-2.420707e-003
3.768284e+003,-2.485218e-003
3.770213e+003,-2.344784e-003
3.772141e+003,-2.312124e-003
3.774070e+003,-2.354209e-003
3.775998e+003,-2.269375e-003
3.777927e+003,-2.308202e-003
3.779855e+003,-2.293799e-003
3.781784e+003,-2.373982e-003
3.783712e+003,-2.465780e-003
3.785641e+003,-2.308070e-003
3.787569e+003,-2.256718e-003
3.789498e+003,-2.461761e-003
3.791426e+003,-2.680801e-003
3.793355e+003,-2.701646e-003
3.795283e+003,-2.529494e-003
3.797212e+003,-2.262288e-003
3.799140e+003,-2.318155e-003
3.801069e+003,-2.442289e-003
3.802997e+003,-2.613223e-003
3.804926e+003,-2.681559e-003
3.806854e+003,-2.386899e-003
3.808783e+003,-2.228270e-003
3.810711e+003,-2.346333e-003
3.812640e+003,-2.369236e-003
3.814568e+003,-2.473127e-003
3.816497e+003,-2.229523e-003
3.818425e+003,-2.146939e-003
3.820354e+003,-2.133916e-003
3.822282e+003,-2.099393e-003
3.824211e+003,-2.339478e-003
3.826139e+003,-2.404034e-003
3.828068e+003,-2.248873e-003
3.829996e+003,-2.183766e-003
3.831925e+003,-2.331404e-003
3.833853e+003,-2.391776e-003
3.835782e+003,-2.351375e-003
3.837710e+003,-2.176513e-003
3.839639e+003,-2.153962e-003
3.841567e+003,-2.204997e-003
3.843496e+003,-2.121650e-003
3.845424e+003,-2.250784e-003
3.847353e+003,-2.350452e-003
3.849281e+003,-2.279692e-003
3.851210e+003,-2.235588e-003
3.853138e+003,-2.012926e-003
3.855067e+003,-1.882368e-003
3.856995e+003,-2.174766e-003
3.858924e+003,-2.388909e-003
3.860852e+003,-2.213337e-003
3.862781e+003,-1.988255e-003
3.864709e+003,-2.067209e-003
3.866638e+003,-2.275407e-003
3.868566e+003,-2.203183e-003
3.870495e+003,-1.930928e-003
3.872423e+003,-1.855051e-003
3.874352e+003,-1.804107e-003
3.876280e+003,-1.902525e-003
3.878209e+003,-2.124914e-003
3.880137e+003,-2.209579e-003
3.882066e+003,-2.329492e-003
3.883994e+003,-2.328602e-003
3.885923e+003,-1.963617e-003
3.887851e+003,-1.881180e-003
3.889780e+003,-1.925419e-003
3.891708e+003,-2.036638e-003
3.893637e+003,-2.124683e-003
3.895565e+003,-2.117990e-003
3.897494e+003,-2.028690e-003
3.899422e+003,-1.899292e-003
3.901351e+003,-2.113835e-003
3.903279e+003,-2.183172e-003
3.905208e+003,-2.187392e-003
3.907136e+003,-2.305993e-003
3.909065e+003,-2.219337e-003
3.910993e+003,-2.061834e-003
3.912922e+003,-2.117990e-003
3.914850e+003,-1.975623e-003
3.916779e+003,-1.855876e-003
3.918707e+003,-1.971896e-003
3.920636e+003,-1.979449e-003
3.922564e+003,-1.849178e-003
3.924493e+003,-1.896158e-003
3.926421e+003,-2.162831e-003
3.928350e+003,-2.323659e-003
3.930278e+003,-2.244291e-003
3.932207e+003,-2.118188e-003
3.934135e+003,-2.235226e-003
3.936064e+003,-2.313574e-003
3.937992e+003,-2.153269e-003
3.939921e+003,-1.977569e-003
3.941849e+003,-1.986705e-003
3.943778e+003,-2.228336e-003
3.945706e+003,-2.278604e-003
3.947635e+003,-2.157622e-003
3.949563e+003,-1.963881e-003
3.951492e+003,-1.832747e-003
3.953420e+003,-1.990102e-003
3.955349e+003,-2.333645e-003
3.957277e+003,-2.396159e-003
3.959206e+003,-2.358988e-003
3.961134e+003,-2.473028e-003
3.963063e+003,-2.415896e-003
3.964991e+003,-2.280516e-003
3.966920e+003,-2.199392e-003
3.968848e+003,-2.072617e-003
3.970777e+003,-2.104141e-003
3.972705e+003,-1.996600e-003
3.974634e+003,-1.951907e-003
3.976562e+003,-2.031263e-003
3.978491e+003,-2.096920e-003
3.980419e+003,-2.147368e-003
3.982348e+003,-2.134377e-003
3.984276e+003,-2.107538e-003
3.986205e+003,-2.320989e-003
3.988133e+003,-2.200414e-003
3.990062e+003,-1.970147e-003
3.991990e+003,-2.097744e-003
3.993919e+003,-2.371280e-003
3.995847e+003,-2.444101e-003
3.997776e+003,-2.136784e-003
3.999704e+003,-2.018895e-003
4.001633e+003,0.000000e+000
