3.991989e+002,2.222848e-002
4.011274e+002,2.297888e-002
4.030559e+002,1.446634e-002
4.049844e+002,8.505587e-003
4.069129e+002,1.010738e-002
4.088414e+002,1.890839e-002
4.107699e+002,1.985333e-002
4.126984e+002,1.460027e-002
4.146269e+002,1.086678e-002
4.165554e+002,1.232714e-002
4.184839e+002,1.554099e-002
4.204124e+002,1.625391e-002
4.223409e+002,1.566951e-002
4.242694e+002,1.767044e-002
4.261979e+002,1.702152e-002
4.281264e+002,1.397617e-002
4.300549e+002,1.303958e-002
4.319834e+002,7.164062e-003
4.339119e+002,5.916943e-003
4.358404e+002,1.206102e-002
4.377689e+002,1.450279e-002
4.396974e+002,1.106784e-002
4.416259e+002,1.013170e-002
4.435544e+002,1.296727e-002
4.454829e+002,1.520450e-002
4.474114e+002,1.828408e-002
4.493399e+002,1.356520e-002
4.512684e+002,6.580926e-003
4.531969e+002,8.085856e-003
4.551254e+002,1.159425e-002
4.570539e+002,1.040797e-002
4.589824e+002,6.797183e-003
4.609109e+002,7.935800e-003
4.628394e+002,9.341631e-003
4.647679e+002,8.219486e-003
4.666964e+002,8.901002e-003
4.686249e+002,6.378931e-003
4.705533e+002,3.955074e-003
4.724819e+002,5.863608e-003
4.744103e+002,6.809333e-003
4.763389e+002,5.443569e-003
4.782673e+002,4.515843e-003
4.801959e+002,4.361392e-003
4.821243e+002,6.119026e-003
4.840529e+002,6.691649e-003
4.859813e+002,6.609823e-003
4.879099e+002,6.265968e-003
4.898383e+002,4.987770e-003
4.917668e+002,2.902444e-003
4.936953e+002,3.280268e-003
4.956238e+002,3.992592e-003
4.975523e+002,2.818128e-003
4.994808e+002,2.853147e-003
5.014093e+002,3.294090e-003
5.033378e+002,1.531468e-003
5.052663e+002,-1.262029e-003
5.071948e+002,-1.985600e-004
5.091233e+002,1.736477e-003
5.110518e+002,8.223034e-004
5.129803e+002,-8.128783e-004
5.149088e+002,-2.396126e-003
5.168373e+002,-1.183227e-003
5.187658e+002,-3.315120e-004
5.206943e+002,-1.807086e-004
5.226228e+002,-1.953806e-004
5.245513e+002,-1.107913e-003
5.264798e+002,-1.284164e-003
5.284083e+002,1.673301e-005
5.303368e+002,-7.788788e-004
5.322653e+002,-1.865147e-003
5.341938e+002,-1.153090e-003
5.361223e+002,-1.776284e-004
5.380508e+002,-9.413443e-004
5.399792e+002,6.567159e-004
5.419078e+002,1.179515e-003
5.438363e+002,4.554673e-004
5.457648e+002,4.161641e-004
5.476932e+002,3.202591e-004
5.496218e+002,1.205331e-003
5.515503e+002,2.074932e-003
5.534788e+002,9.471746e-004
5.554072e+002,1.850896e-003
5.573358e+002,3.003259e-003
5.592643e+002,3.054142e-003
5.611927e+002,1.933361e-003
5.631212e+002,1.285380e-003
5.650497e+002,1.120480e-003
5.669783e+002,1.764621e-003
5.689067e+002,3.098290e-003
5.708352e+002,2.518551e-003
5.727637e+002,8.575930e-004
5.746923e+002,1.276511e-004
5.766207e+002,1.132771e-003
5.785492e+002,2.433143e-003
5.804777e+002,-2.706947e-003
5.824063e+002,-5.852907e-003
5.843347e+002,-7.987232e-004
5.862632e+002,2.398091e-003
5.881917e+002,1.470025e-003
5.901202e+002,-3.183677e-004
5.920487e+002,-2.154588e-003
5.939772e+002,-2.015234e-003
5.959057e+002,-2.100382e-003
5.978342e+002,-1.616315e-003
5.997627e+002,-6.147313e-004
6.016912e+002,-8.418543e-005
6.036197e+002,5.400560e-004
6.055482e+002,1.218855e-003
6.074767e+002,3.225152e-003
6.094052e+002,3.960290e-003
6.113337e+002,3.781302e-003
6.132622e+002,3.267582e-003
6.151907e+002,2.718891e-003
6.171192e+002,2.516184e-003
6.190477e+002,1.667453e-003
6.209762e+002,2.543180e-003
6.229047e+002,1.399781e-003
6.248332e+002,-1.227437e-003
6.267617e+002,-2.822510e-003
6.286902e+002,-3.085028e-003
6.306187e+002,-2.847166e-003
6.325472e+002,-2.576038e-003
6.344756e+002,-1.821661e-003
6.364042e+002,-1.526285e-003
6.383326e+002,-1.382799e-003
6.402612e+002,-1.579639e-003
6.421896e+002,-1.075523e-003
6.441182e+002,-9.559576e-004
6.460466e+002,-1.170075e-003
6.479752e+002,-1.175131e-003
6.499036e+002,-1.545138e-003
6.518322e+002,-1.775861e-003
6.537606e+002,-1.432868e-003
6.556891e+002,-1.157782e-003
6.576177e+002,-8.307699e-004
6.595461e+002,-6.691894e-004
6.614746e+002,-1.228197e-003
6.634031e+002,-1.507564e-003
6.653317e+002,-1.482964e-003
6.672601e+002,-1.829607e-004
6.691886e+002,5.367748e-006
6.711171e+002,-4.797147e-004
6.730457e+002,-4.658396e-005
6.749741e+002,3.626046e-004
6.769026e+002,4.219350e-004
6.788311e+002,4.906940e-004
6.807596e+002,4.901301e-004
6.826881e+002,6.449689e-004
6.846166e+002,3.025529e-004
6.865451e+002,3.353134e-004
6.884736e+002,5.108627e-004
6.904021e+002,5.834514e-004
6.923306e+002,2.814323e-004
6.942591e+002,5.438712e-004
6.961876e+002,7.297273e-004
6.981161e+002,8.488948e-004
7.000446e+002,9.383086e-004
7.019731e+002,6.794808e-004
7.039016e+002,3.794842e-004
7.058301e+002,-3.608147e-005
7.077585e+002,-5.256184e-004
7.096871e+002,-4.631656e-004
7.116156e+002,-1.680565e-004
7.135441e+002,-6.794450e-004
7.154725e+002,-1.423059e-003
7.174011e+002,-1.780316e-003
7.193296e+002,-2.060844e-003
7.212581e+002,-1.888108e-003
7.231865e+002,-1.592778e-003
7.251151e+002,-1.607501e-003
7.270436e+002,-1.530412e-003
7.289720e+002,-1.462688e-003
7.309005e+002,-1.224959e-003
7.328290e+002,-1.016753e-003
7.347576e+002,-1.248384e-003
7.366860e+002,-1.384450e-003
7.386145e+002,-1.126817e-003
7.405430e+002,-4.071590e-004
7.424716e+002,1.328695e-005
7.444000e+002,5.135807e-006
7.463285e+002,-4.525874e-005
7.482570e+002,-1.927642e-004
7.501855e+002,1.126559e-006
7.521140e+002,1.059261e-003
7.540425e+002,1.596313e-003
7.559710e+002,1.402673e-003
7.578995e+002,1.787777e-003
7.598280e+002,2.410019e-003
7.617565e+002,2.592276e-003
7.636850e+002,2.699853e-003
7.656135e+002,3.224451e-003
7.675420e+002,3.610106e-003
7.694705e+002,3.443252e-003
7.713990e+002,3.258568e-003
7.733275e+002,3.583445e-003
7.752560e+002,3.771509e-003
7.771844e+002,3.758575e-003
7.791130e+002,3.486103e-003
7.810415e+002,3.442350e-003
7.829700e+002,3.310215e-003
7.848984e+002,3.072928e-003
7.868270e+002,3.235067e-003
7.887555e+002,3.342269e-003
7.906840e+002,3.242711e-003
7.926124e+002,3.070092e-003
7.945410e+002,2.601475e-003
7.964695e+002,2.360477e-003
7.983979e+002,2.247256e-003
8.003264e+002,1.910297e-003
8.022549e+002,1.685548e-003
8.041835e+002,1.881977e-003
8.061119e+002,1.772140e-003
8.080404e+002,1.558236e-003
8.099689e+002,1.639382e-003
8.118975e+002,1.824077e-003
8.138259e+002,1.922578e-003
8.157545e+002,2.064844e-003
8.176830e+002,2.180516e-003
8.196115e+002,1.624814e-003
8.215399e+002,1.467365e-003
8.234684e+002,1.748120e-003
8.253970e+002,2.007919e-003
8.273254e+002,2.261278e-003
8.292539e+002,2.149214e-003
8.311824e+002,1.929666e-003
8.331110e+002,1.920281e-003
8.350394e+002,1.791503e-003
8.369679e+002,2.032153e-003
8.388964e+002,2.257014e-003
8.408250e+002,2.422080e-003
8.427534e+002,2.076596e-003
8.446819e+002,1.521992e-003
8.466104e+002,1.506664e-003
8.485389e+002,1.590028e-003
8.504674e+002,1.279598e-003
8.523959e+002,1.153568e-003
8.543244e+002,1.468462e-003
8.562529e+002,1.491802e-003
8.581814e+002,1.139582e-003
8.601099e+002,8.300383e-004
8.620384e+002,1.027409e-003
8.639669e+002,1.540546e-003
8.658954e+002,1.669117e-003
8.678239e+002,1.075702e-003
8.697524e+002,7.959459e-004
8.716809e+002,9.246613e-004
8.736094e+002,9.297084e-004
8.755378e+002,8.834563e-004
8.774664e+002,1.191443e-003
8.793949e+002,1.335531e-003
8.813234e+002,1.255871e-003
8.832518e+002,1.387150e-003
8.851804e+002,1.518135e-003
8.871089e+002,1.547928e-003
8.890374e+002,1.134798e-003
8.909658e+002,1.172239e-003
8.928943e+002,1.787910e-003
8.948229e+002,1.612775e-003
8.967513e+002,1.652785e-003
8.986798e+002,2.048531e-003
9.006083e+002,1.826706e-003
9.025369e+002,1.661832e-003
9.044653e+002,1.694197e-003
9.063938e+002,1.563125e-003
9.083223e+002,1.457890e-003
9.102509e+002,1.410651e-003
9.121793e+002,1.661899e-003
9.141078e+002,1.425843e-003
9.160364e+002,9.656377e-004
9.179648e+002,7.288975e-004
9.198933e+002,6.314635e-004
9.218218e+002,5.277150e-004
9.237504e+002,1.113115e-004
9.256788e+002,-3.574023e-004
9.276073e+002,-6.541694e-004
9.295358e+002,-6.966474e-004
9.314644e+002,-7.538075e-004
9.333928e+002,-9.492792e-004
9.353213e+002,-1.091289e-003
9.372498e+002,-1.221391e-003
9.391783e+002,-1.728571e-003
9.411068e+002,-1.862804e-003
9.430353e+002,-1.800015e-003
9.449637e+002,-1.927431e-003
9.468923e+002,-1.986507e-003
9.488208e+002,-1.882071e-003
9.507493e+002,-1.938251e-003
9.526777e+002,-2.084818e-003
9.546063e+002,-1.957580e-003
9.565348e+002,-2.027965e-003
9.584633e+002,-2.314035e-003
9.603917e+002,-2.298116e-003
9.623203e+002,-2.040134e-003
9.642488e+002,-1.912653e-003
9.661772e+002,-2.000822e-003
9.681057e+002,-2.050819e-003
9.700343e+002,-2.288855e-003
9.719628e+002,-2.336446e-003
9.738912e+002,-2.312091e-003
9.758197e+002,-2.469075e-003
9.777483e+002,-2.518261e-003
9.796768e+002,-2.311827e-003
9.816052e+002,-2.327482e-003
9.835337e+002,-2.448582e-003
9.854623e+002,-2.404957e-003
9.873907e+002,-2.331536e-003
9.893192e+002,-2.228897e-003
9.912477e+002,-2.343762e-003
9.931763e+002,-2.281966e-003
9.951047e+002,-2.067670e-003
9.970332e+002,-2.055040e-003
9.989617e+002,-2.024634e-003
1.000890e+003,-2.002933e-003
1.002819e+003,-1.841359e-003
1.004747e+003,-1.721740e-003
1.006676e+003,-1.605290e-003
1.008604e+003,-1.531568e-003
1.010533e+003,-1.262062e-003
1.012461e+003,-9.859761e-004
1.014390e+003,-9.453117e-004
1.016318e+003,-6.752104e-004
1.018247e+003,-4.118596e-004
1.020175e+003,-2.131983e-004
1.022104e+003,2.647491e-005
1.024032e+003,3.536179e-004
1.025961e+003,5.948650e-004
1.027889e+003,7.035082e-004
1.029818e+003,9.696559e-004
1.031746e+003,1.232511e-003
1.033675e+003,1.438708e-003
1.035603e+003,1.585638e-003
1.037532e+003,1.845406e-003
1.039460e+003,2.107893e-003
1.041389e+003,2.112821e-003
1.043317e+003,2.212952e-003
1.045246e+003,2.461399e-003
1.047174e+003,2.608409e-003
1.049103e+003,2.446104e-003
1.051031e+003,2.173989e-003
1.052960e+003,2.254750e-003
1.054888e+003,2.221578e-003
1.056817e+003,2.178584e-003
1.058745e+003,2.224342e-003
1.060674e+003,2.127737e-003
1.062602e+003,2.019936e-003
1.064531e+003,1.872958e-003
1.066459e+003,1.956060e-003
1.068388e+003,2.111322e-003
1.070316e+003,2.148748e-003
1.072245e+003,2.057553e-003
1.074173e+003,2.062181e-003
1.076102e+003,2.071303e-003
1.078030e+003,2.069538e-003
1.079959e+003,1.963349e-003
1.081887e+003,1.913925e-003
1.083816e+003,2.296218e-003
1.085744e+003,2.365641e-003
1.087673e+003,2.061215e-003
1.089601e+003,2.095507e-003
1.091530e+003,2.179284e-003
1.093458e+003,2.076297e-003
1.095387e+003,1.974732e-003
1.097315e+003,1.855555e-003
1.099244e+003,1.838884e-003
1.101172e+003,1.948471e-003
1.103101e+003,1.951300e-003
1.105029e+003,2.102399e-003
1.106958e+003,2.128436e-003
1.108886e+003,1.980291e-003
1.110815e+003,1.781822e-003
1.112743e+003,1.682056e-003
1.114672e+003,1.865538e-003
1.116600e+003,2.234899e-003
1.118529e+003,2.404655e-003
1.120457e+003,2.174122e-003
1.122386e+003,2.103464e-003
1.124314e+003,2.095907e-003
1.126243e+003,1.927337e-003
1.128171e+003,1.808439e-003
1.130100e+003,1.730089e-003
1.132028e+003,1.497820e-003
1.133957e+003,1.215532e-003
1.135885e+003,1.221214e-003
1.137814e+003,9.562733e-004
1.139742e+003,4.977018e-005
1.141671e+003,-2.867136e-004
1.143599e+003,-3.865022e-004
1.145528e+003,-6.836134e-004
1.147456e+003,-1.008158e-003
1.149385e+003,-1.194395e-003
1.151313e+003,-1.613311e-003
1.153242e+003,-1.941187e-003
1.155170e+003,-2.023645e-003
1.157099e+003,-2.150698e-003
1.159027e+003,-2.199392e-003
1.160956e+003,-2.348936e-003
1.162884e+003,-2.520138e-003
1.164813e+003,-2.587204e-003
1.166741e+003,-2.527913e-003
1.168670e+003,-2.387097e-003
1.170598e+003,-2.321253e-003
1.172526e+003,-2.349628e-003
1.174455e+003,-2.411184e-003
1.176384e+003,-2.219534e-003
1.178312e+003,-2.028855e-003
1.180240e+003,-1.995413e-003
1.182169e+003,-2.023611e-003
1.184098e+003,-2.115517e-003
1.186026e+003,-2.203711e-003
1.187954e+003,-2.103416e-003
1.189883e+003,-2.016125e-003
1.191812e+003,-1.975821e-003
1.193740e+003,-1.935381e-003
1.195668e+003,-2.212381e-003
1.197597e+003,-2.458829e-003
1.199526e+003,-2.439719e-003
1.201454e+003,-2.257014e-003
1.203382e+003,-2.092435e-003
1.205311e+003,-2.040035e-003
1.207240e+003,-1.883358e-003
1.209168e+003,-1.798564e-003
1.211096e+003,-1.687283e-003
1.213025e+003,-1.470052e-003
1.214953e+003,-1.418865e-003
1.216882e+003,-1.488412e-003
1.218810e+003,-1.476161e-003
1.220739e+003,-1.552137e-003
1.222667e+003,-1.468302e-003
1.224596e+003,-1.230080e-003
1.226524e+003,-1.145919e-003
1.228453e+003,-1.122818e-003
1.230381e+003,-1.084315e-003
1.232310e+003,-9.987366e-004
1.234238e+003,-9.208121e-004
1.236167e+003,-9.392613e-004
1.238095e+003,-9.079501e-004
1.240024e+003,-9.197541e-004
1.241952e+003,-1.098296e-003
1.243881e+003,-1.349208e-003
1.245809e+003,-1.584492e-003
1.247738e+003,-1.778897e-003
1.249666e+003,-1.756952e-003
1.251595e+003,-1.904966e-003
1.253523e+003,-2.162336e-003
1.255452e+003,-2.348277e-003
1.257380e+003,-2.713565e-003
1.259309e+003,-2.993788e-003
1.261237e+003,-3.043277e-003
1.263166e+003,-3.046534e-003
1.265094e+003,-3.019652e-003
1.267023e+003,-2.868133e-003
1.268951e+003,-2.797589e-003
1.270880e+003,-2.835677e-003
1.272808e+003,-2.912173e-003
1.274737e+003,-2.829982e-003
1.276665e+003,-2.822773e-003
1.278594e+003,-2.850556e-003
1.280522e+003,-2.968417e-003
1.282451e+003,-3.131085e-003
1.284379e+003,-3.142434e-003
1.286308e+003,-3.110788e-003
1.288236e+003,-3.048278e-003
1.290165e+003,-3.001390e-003
1.292093e+003,-3.008234e-003
1.294022e+003,-2.917175e-003
1.295950e+003,-2.779844e-003
1.297879e+003,-2.766148e-003
1.299807e+003,-2.793770e-003
1.301736e+003,-2.800618e-003
1.303664e+003,-2.979178e-003
1.305593e+003,-3.084929e-003
1.307521e+003,-2.983456e-003
1.309450e+003,-3.033110e-003
1.311378e+003,-3.234596e-003
1.313307e+003,-3.317631e-003
1.315235e+003,-3.271430e-003
1.317164e+003,-3.185919e-003
1.319092e+003,-3.259920e-003
1.321021e+003,-3.339300e-003
1.322949e+003,-3.245581e-003
1.324878e+003,-3.164901e-003
1.326806e+003,-3.092957e-003
1.328735e+003,-2.942089e-003
1.330663e+003,-2.776848e-003
1.332592e+003,-2.587797e-003
1.334520e+003,-2.667629e-003
1.336449e+003,-2.726802e-003
1.338377e+003,-2.616418e-003
1.340306e+003,-2.676422e-003
1.342234e+003,-2.754262e-003
1.344163e+003,-2.812502e-003
1.346091e+003,-2.971115e-003
1.348020e+003,-2.969930e-003
1.349948e+003,-3.044264e-003
1.351877e+003,-3.163881e-003
1.353805e+003,-3.122960e-003
1.355734e+003,-3.110689e-003
1.357662e+003,-3.184801e-003
1.359591e+003,-3.251698e-003
1.361519e+003,-3.356891e-003
1.363448e+003,-3.630521e-003
1.365376e+003,-3.984096e-003
1.367305e+003,-4.235906e-003
1.369233e+003,-4.497244e-003
1.371162e+003,-4.621346e-003
1.373090e+003,-4.525379e-003
1.375019e+003,-4.765962e-003
1.376947e+003,-5.076534e-003
1.378876e+003,-5.182595e-003
1.380804e+003,-5.291969e-003
1.382733e+003,-5.320445e-003
1.384661e+003,-5.219983e-003
1.386590e+003,-5.140783e-003
1.388518e+003,-5.266175e-003
1.390447e+003,-5.641479e-003
1.392375e+003,-5.715684e-003
1.394304e+003,-5.564318e-003
1.396232e+003,-5.743740e-003
1.398161e+003,-5.794420e-003
1.400089e+003,-5.918806e-003
1.402018e+003,-6.093672e-003
1.403946e+003,-6.101448e-003
1.405875e+003,-6.098213e-003
1.407803e+003,-6.123174e-003
1.409732e+003,-5.986362e-003
1.411660e+003,-5.708032e-003
1.413589e+003,-5.485245e-003
1.415517e+003,-5.224141e-003
1.417446e+003,-4.867348e-003
1.419374e+003,-4.549217e-003
1.421303e+003,-4.527281e-003
1.423231e+003,-4.223503e-003
1.425160e+003,-3.763609e-003
1.427088e+003,-3.497918e-003
1.429017e+003,-3.135855e-003
1.430945e+003,-2.707145e-003
1.432874e+003,-2.238654e-003
1.434802e+003,-1.543883e-003
1.436731e+003,-9.453448e-004
1.438659e+003,-1.046139e-003
1.440588e+003,-9.520894e-004
1.442516e+003,-5.240961e-004
1.444445e+003,-2.163445e-004
1.446373e+003,1.287448e-004
1.448302e+003,3.340201e-004
1.450230e+003,3.025197e-004
1.452159e+003,4.453841e-004
1.454087e+003,8.209755e-004
1.456016e+003,1.450210e-003
1.457944e+003,1.339785e-003
1.459873e+003,5.727017e-004
1.461801e+003,1.174098e-004
1.463730e+003,1.789242e-006
1.465658e+003,-1.643469e-004
1.467587e+003,-6.482142e-004
1.469515e+003,-8.613923e-004
1.471444e+003,-7.074648e-004
1.473372e+003,-8.937650e-004
1.475301e+003,-1.427485e-003
1.477229e+003,-1.961176e-003
1.479158e+003,-2.452964e-003
1.481086e+003,-2.820172e-003
1.483015e+003,-3.232064e-003
1.484943e+003,-3.509323e-003
1.486872e+003,-3.506562e-003
1.488800e+003,-3.434708e-003
1.490729e+003,-3.472313e-003
1.492657e+003,-3.845229e-003
1.494586e+003,-3.948965e-003
1.496514e+003,-3.846083e-003
1.498443e+003,-4.082546e-003
1.500371e+003,-4.441197e-003
1.502300e+003,-4.609151e-003
1.504228e+003,-4.167815e-003
1.506157e+003,-3.399861e-003
1.508085e+003,-3.798361e-003
1.510014e+003,-4.393475e-003
1.511942e+003,-4.625444e-003
1.513871e+003,-4.717621e-003
1.515799e+003,-4.508524e-003
1.517728e+003,-4.275377e-003
1.519656e+003,-4.047029e-003
1.521585e+003,-3.838201e-003
1.523513e+003,-4.044600e-003
1.525442e+003,-4.007537e-003
1.527370e+003,-4.132633e-003
1.529299e+003,-4.170899e-003
1.531227e+003,-4.090292e-003
1.533156e+003,-3.743769e-003
1.535084e+003,-3.779770e-003
1.537013e+003,-3.569664e-003
1.538941e+003,-2.777408e-003
1.540870e+003,-2.538520e-003
1.542798e+003,-2.747677e-003
1.544727e+003,-2.944722e-003
1.546655e+003,-3.199405e-003
1.548584e+003,-3.249396e-003
1.550512e+003,-3.198221e-003
1.552441e+003,-3.064828e-003
1.554369e+003,-2.914937e-003
1.556298e+003,-2.594186e-003
1.558226e+003,-1.648599e-003
1.560155e+003,-1.723060e-003
1.562083e+003,-2.377310e-003
1.564012e+003,-2.388349e-003
1.565940e+003,-2.240401e-003
1.567869e+003,-1.855216e-003
1.569797e+003,-1.471340e-003
1.571726e+003,-1.662627e-003
1.573654e+003,-1.549034e-003
1.575583e+003,-9.687190e-004
1.577511e+003,-1.031529e-003
1.579440e+003,-1.339331e-003
1.581368e+003,-1.327373e-003
1.583297e+003,-1.394887e-003
1.585225e+003,-1.264904e-003
1.587154e+003,-1.228065e-003
1.589082e+003,-1.386564e-003
1.591010e+003,-1.465825e-003
1.592939e+003,-1.511064e-003
1.594868e+003,-1.503271e-003
1.596796e+003,-1.620376e-003
1.598724e+003,-1.878343e-003
1.600653e+003,-2.059360e-003
1.602582e+003,-2.095931e-003
1.604510e+003,-2.236940e-003
1.606438e+003,-2.409504e-003
1.608367e+003,-2.597085e-003
1.610296e+003,-2.867179e-003
1.612224e+003,-3.120196e-003
1.614152e+003,-3.129078e-003
1.616081e+003,-3.025246e-003
1.618010e+003,-3.420572e-003
1.619938e+003,-3.792449e-003
1.621866e+003,-3.818265e-003
1.623795e+003,-4.149633e-003
1.625724e+003,-4.441001e-003
1.627652e+003,-4.519017e-003
1.629580e+003,-4.763013e-003
1.631509e+003,-5.056458e-003
1.633438e+003,-4.873344e-003
1.635366e+003,-4.523608e-003
1.637294e+003,-4.969628e-003
1.639223e+003,-5.457369e-003
1.641151e+003,-5.697861e-003
1.643080e+003,-5.938254e-003
1.645008e+003,-5.759174e-003
1.646937e+003,-5.585678e-003
1.648865e+003,-6.093573e-003
1.650794e+003,-6.030511e-003
1.652722e+003,-5.309022e-003
1.654651e+003,-6.170804e-003
1.656579e+003,-7.026641e-003
1.658508e+003,-7.223286e-003
1.660436e+003,-7.347166e-003
1.662365e+003,-7.375899e-003
1.664293e+003,-7.439646e-003
1.666222e+003,-7.426031e-003
1.668150e+003,-7.098263e-003
1.670079e+003,-6.871851e-003
1.672007e+003,-6.976300e-003
1.673936e+003,-6.643591e-003
1.675864e+003,-6.488795e-003
1.677793e+003,-6.763853e-003
1.679721e+003,-6.676090e-003
1.681650e+003,-6.232376e-003
1.683578e+003,-5.402820e-003
1.685507e+003,-5.441728e-003
1.687435e+003,-5.761462e-003
1.689364e+003,-5.637162e-003
1.691292e+003,-5.504516e-003
1.693221e+003,-5.136820e-003
1.695149e+003,-4.597873e-003
1.697078e+003,-4.650129e-003
1.699006e+003,-4.313894e-003
1.700935e+003,-4.046635e-003
1.702863e+003,-4.586496e-003
1.704792e+003,-4.575578e-003
1.706720e+003,-4.703494e-003
1.708649e+003,-4.959997e-003
1.710577e+003,-5.098999e-003
1.712506e+003,-5.025344e-003
1.714434e+003,-4.738335e-003
1.716363e+003,-4.424504e-003
1.718291e+003,-4.518919e-003
1.720220e+003,-4.942275e-003
1.722148e+003,-5.202174e-003
1.724077e+003,-5.340803e-003
1.726005e+003,-5.353338e-003
1.727934e+003,-5.297533e-003
1.729862e+003,-5.268630e-003
1.731791e+003,-5.050956e-003
1.733719e+003,-4.711164e-003
1.735648e+003,-5.011031e-003
1.737576e+003,-5.190682e-003
1.739505e+003,-5.069788e-003
1.741433e+003,-5.204072e-003
1.743362e+003,-5.197590e-003
1.745290e+003,-5.125000e-003
1.747219e+003,-4.881568e-003
1.749147e+003,-4.576103e-003
1.751076e+003,-4.396559e-003
1.753004e+003,-4.660259e-003
1.754933e+003,-4.794179e-003
1.756861e+003,-4.632460e-003
1.758790e+003,-4.580628e-003
1.760718e+003,-4.442739e-003
1.762647e+003,-4.424438e-003
1.764575e+003,-4.553513e-003
1.766504e+003,-4.435097e-003
1.768432e+003,-4.305135e-003
1.770361e+003,-4.164598e-003
1.772289e+003,-3.990432e-003
1.774218e+003,-4.172705e-003
1.776146e+003,-4.334791e-003
1.778075e+003,-4.378616e-003
1.780003e+003,-4.379994e-003
1.781932e+003,-4.407743e-003
1.783860e+003,-4.383176e-003
1.785789e+003,-4.329247e-003
1.787717e+003,-4.392295e-003
1.789646e+003,-4.251295e-003
1.791574e+003,-3.959997e-003
1.793503e+003,-4.060652e-003
1.795431e+003,-4.236070e-003
1.797360e+003,-4.114483e-003
1.799288e+003,-4.081726e-003
1.801217e+003,-4.173295e-003
1.803145e+003,-4.322817e-003
1.805074e+003,-4.328329e-003
1.807002e+003,-4.270817e-003
1.808931e+003,-4.225964e-003
1.810859e+003,-4.256413e-003
1.812788e+003,-4.350439e-003
1.814716e+003,-4.396034e-003
1.816645e+003,-4.431653e-003
1.818573e+003,-4.526101e-003
1.820502e+003,-4.527805e-003
1.822430e+003,-4.416862e-003
1.824359e+003,-4.289649e-003
1.826287e+003,-4.327115e-003
1.828216e+003,-4.380716e-003
1.830144e+003,-4.376812e-003
1.832073e+003,-4.643769e-003
1.834001e+003,-4.680287e-003
1.835930e+003,-4.575349e-003
1.837858e+003,-4.653342e-003
1.839787e+003,-4.696512e-003
1.841715e+003,-4.646228e-003
1.843644e+003,-4.342861e-003
1.845572e+003,-4.438672e-003
1.847501e+003,-4.702052e-003
1.849429e+003,-4.777302e-003
1.851358e+003,-4.685531e-003
1.853286e+003,-4.586464e-003
1.855215e+003,-4.584824e-003
1.857143e+003,-4.552496e-003
1.859072e+003,-4.604987e-003
1.861000e+003,-4.702478e-003
1.862929e+003,-4.689203e-003
1.864857e+003,-4.548955e-003
1.866786e+003,-4.471697e-003
1.868714e+003,-4.368120e-003
1.870643e+003,-4.491210e-003
1.872571e+003,-4.616429e-003
1.874500e+003,-4.525248e-003
1.876428e+003,-4.493407e-003
1.878357e+003,-4.510000e-003
1.880285e+003,-4.527937e-003
1.882214e+003,-4.495932e-003
1.884142e+003,-4.385439e-003
1.886071e+003,-4.349619e-003
1.887999e+003,-4.316814e-003
1.889928e+003,-4.319373e-003
1.891856e+003,-4.407022e-003
1.893785e+003,-4.279118e-003
1.895713e+003,-4.201156e-003
1.897642e+003,-4.275180e-003
1.899570e+003,-4.282267e-003
1.901499e+003,-4.186192e-003
1.903427e+003,-4.235053e-003
1.905356e+003,-4.284761e-003
1.907284e+003,-4.291880e-003
1.909213e+003,-4.246635e-003
1.911141e+003,-4.251590e-003
1.913070e+003,-4.298442e-003
1.914998e+003,-4.252049e-003
1.916927e+003,-4.082842e-003
1.918855e+003,-3.968205e-003
1.920784e+003,-4.053299e-003
1.922712e+003,-4.126134e-003
1.924641e+003,-4.177463e-003
1.926569e+003,-4.143365e-003
1.928498e+003,-4.216546e-003
1.930426e+003,-4.304774e-003
1.932355e+003,-4.335316e-003
1.934283e+003,-4.414336e-003
1.936212e+003,-4.512066e-003
1.938140e+003,-4.561874e-003
1.940069e+003,-4.500490e-003
1.941997e+003,-4.377600e-003
1.943926e+003,-4.387178e-003
1.945854e+003,-4.461629e-003
1.947783e+003,-4.494030e-003
1.949711e+003,-4.539676e-003
1.951640e+003,-4.549348e-003
1.953568e+003,-4.566168e-003
1.955497e+003,-4.588693e-003
1.957425e+003,-4.642852e-003
1.959354e+003,-4.668191e-003
1.961282e+003,-4.673928e-003
1.963211e+003,-4.706312e-003
1.965139e+003,-4.733451e-003
1.967068e+003,-4.708968e-003
1.968996e+003,-4.798373e-003
1.970925e+003,-4.794965e-003
1.972853e+003,-4.748396e-003
1.974782e+003,-4.716178e-003
1.976710e+003,-4.659406e-003
1.978639e+003,-4.651965e-003
1.980567e+003,-4.657079e-003
1.982496e+003,-4.714703e-003
1.984424e+003,-4.717883e-003
1.986353e+003,-4.637377e-003
1.988281e+003,-4.564267e-003
1.990210e+003,-4.532396e-003
1.992138e+003,-4.483209e-003
1.994067e+003,-4.517607e-003
1.995995e+003,-4.614986e-003
1.997924e+003,-4.622297e-003
1.999852e+003,-4.525248e-003
2.001781e+003,-4.479437e-003
2.003709e+003,-4.431424e-003
2.005638e+003,-4.412335e-003
2.007566e+003,-4.355195e-003
2.009495e+003,-4.330133e-003
2.011423e+003,-4.393213e-003
2.013352e+003,-4.384717e-003
2.015280e+003,-4.396624e-003
2.017208e+003,-4.377075e-003
2.019137e+003,-4.330231e-003
2.021066e+003,-4.324589e-003
2.022994e+003,-4.386620e-003
2.024922e+003,-4.437163e-003
2.026851e+003,-4.387145e-003
2.028780e+003,-4.361461e-003
2.030708e+003,-4.432277e-003
2.032636e+003,-4.428078e-003
2.034565e+003,-4.465631e-003
2.036494e+003,-4.549250e-003
2.038422e+003,-4.602397e-003
2.040350e+003,-4.561611e-003
2.042279e+003,-4.514230e-003
2.044208e+003,-4.549316e-003
2.046136e+003,-4.617642e-003
2.048064e+003,-4.594430e-003
2.049993e+003,-4.494653e-003
2.051921e+003,-4.540463e-003
2.053850e+003,-4.587316e-003
2.055778e+003,-4.549939e-003
2.057707e+003,-4.461958e-003
2.059635e+003,-4.522624e-003
2.061564e+003,-4.570661e-003
2.063492e+003,-4.672453e-003
2.065421e+003,-4.674977e-003
2.067349e+003,-4.544397e-003
2.069278e+003,-4.564365e-003
2.071206e+003,-4.560365e-003
2.073135e+003,-4.540135e-003
2.075063e+003,-4.493013e-003
2.076992e+003,-4.479535e-003
2.078920e+003,-4.540397e-003
2.080849e+003,-4.558627e-003
2.082777e+003,-4.527215e-003
2.084706e+003,-4.500687e-003
2.086634e+003,-4.544233e-003
2.088563e+003,-4.558988e-003
2.090491e+003,-4.506852e-003
2.092420e+003,-4.541577e-003
2.094348e+003,-4.525281e-003
2.096277e+003,-4.488914e-003
2.098205e+003,-4.510886e-003
2.100134e+003,-4.478388e-003
2.102062e+003,-4.322456e-003
2.103991e+003,-4.253788e-003
2.105919e+003,-4.180318e-003
2.107848e+003,-4.078837e-003
2.109776e+003,-4.125019e-003
2.111705e+003,-4.226062e-003
2.113633e+003,-4.210016e-003
2.115562e+003,-4.123312e-003
2.117490e+003,-4.089209e-003
2.119419e+003,-4.119143e-003
2.121347e+003,-4.089603e-003
2.123276e+003,-4.126233e-003
2.125204e+003,-4.144809e-003
2.127133e+003,-4.094527e-003
2.129061e+003,-3.987379e-003
2.130990e+003,-3.955893e-003
2.132918e+003,-4.031239e-003
2.134847e+003,-4.106015e-003
2.136775e+003,-4.095478e-003
2.138704e+003,-4.027957e-003
2.140632e+003,-3.987904e-003
2.142561e+003,-4.043976e-003
2.144489e+003,-4.116190e-003
2.146418e+003,-4.058223e-003
2.148346e+003,-3.991548e-003
2.150275e+003,-4.055039e-003
2.152203e+003,-4.100140e-003
2.154132e+003,-4.025659e-003
2.156060e+003,-4.019913e-003
2.157989e+003,-4.041547e-003
2.159917e+003,-4.078279e-003
2.161846e+003,-4.151832e-003
2.163774e+003,-4.224520e-003
2.165703e+003,-4.190983e-003
2.167631e+003,-4.144809e-003
2.169560e+003,-4.090391e-003
2.171488e+003,-4.096398e-003
2.173417e+003,-4.177397e-003
2.175345e+003,-4.191968e-003
2.177274e+003,-4.141757e-003
2.179202e+003,-4.130598e-003
2.181131e+003,-4.141199e-003
2.183059e+003,-4.093674e-003
2.184988e+003,-4.011706e-003
2.186916e+003,-4.048277e-003
2.188845e+003,-4.121146e-003
2.190773e+003,-4.177004e-003
2.192702e+003,-4.188489e-003
2.194630e+003,-4.044370e-003
2.196559e+003,-3.970011e-003
2.198487e+003,-3.997458e-003
2.200416e+003,-4.041875e-003
2.202344e+003,-4.053398e-003
2.204273e+003,-4.003958e-003
2.206201e+003,-3.990991e-003
2.208130e+003,-4.018009e-003
2.210058e+003,-3.995587e-003
2.211987e+003,-3.926604e-003
2.213915e+003,-3.856724e-003
2.215844e+003,-3.841058e-003
2.217772e+003,-3.804208e-003
2.219701e+003,-3.787949e-003
2.221629e+003,-3.878464e-003
2.223558e+003,-3.910284e-003
2.225486e+003,-3.911499e-003
2.227415e+003,-3.871535e-003
2.229343e+003,-3.778916e-003
2.231272e+003,-3.755759e-003
2.233200e+003,-3.724715e-003
2.235129e+003,-3.631836e-003
2.237057e+003,-3.634924e-003
2.238986e+003,-3.680528e-003
2.240914e+003,-3.720280e-003
2.242843e+003,-3.700274e-003
2.244771e+003,-3.733946e-003
2.246700e+003,-3.752112e-003
2.248628e+003,-3.735129e-003
2.250557e+003,-3.870977e-003
2.252485e+003,-3.941873e-003
2.254414e+003,-3.900335e-003
2.256342e+003,-3.925258e-003
2.258271e+003,-3.967483e-003
2.260199e+003,-3.978941e-003
2.262128e+003,-3.968566e-003
2.264056e+003,-3.969091e-003
2.265985e+003,-3.999756e-003
2.267913e+003,-4.010590e-003
2.269842e+003,-3.960982e-003
2.271770e+003,-3.997097e-003
2.273699e+003,-4.124789e-003
2.275627e+003,-4.203880e-003
2.277556e+003,-4.221501e-003
2.279484e+003,-4.185208e-003
2.281413e+003,-4.153932e-003
2.283341e+003,-4.198498e-003
2.285270e+003,-4.214741e-003
2.287198e+003,-4.238104e-003
2.289127e+003,-4.246767e-003
2.291055e+003,-4.295883e-003
2.292984e+003,-4.336300e-003
2.294912e+003,-4.434835e-003
2.296841e+003,-4.434573e-003
2.298769e+003,-4.315206e-003
2.300698e+003,-4.256413e-003
2.302626e+003,-4.226981e-003
2.304555e+003,-4.271834e-003
2.306483e+003,-4.329116e-003
2.308412e+003,-4.327377e-003
2.310340e+003,-4.304084e-003
2.312269e+003,-4.257758e-003
2.314197e+003,-4.149732e-003
2.316125e+003,-4.046373e-003
2.318054e+003,-4.011969e-003
2.319983e+003,-3.917968e-003
2.321911e+003,-3.803551e-003
2.323840e+003,-3.704347e-003
2.325768e+003,-3.738611e-003
2.327697e+003,-3.687789e-003
2.329625e+003,-3.381845e-003
2.331553e+003,-3.355345e-003
2.333482e+003,-3.482930e-003
2.335411e+003,-3.436154e-003
2.337339e+003,-3.317434e-003
2.339268e+003,-3.361658e-003
2.341196e+003,-3.401669e-003
2.343125e+003,-3.354359e-003
2.345053e+003,-3.462813e-003
2.346981e+003,-3.678426e-003
2.348910e+003,-3.875082e-003
2.350839e+003,-3.821615e-003
2.352767e+003,-3.548762e-003
2.354696e+003,-3.394831e-003
2.356624e+003,-3.336110e-003
2.358552e+003,-3.311943e-003
2.360481e+003,-3.319801e-003
2.362409e+003,-3.254789e-003
2.364338e+003,-3.265050e-003
2.366267e+003,-3.343509e-003
2.368195e+003,-3.415016e-003
2.370124e+003,-3.464391e-003
2.372052e+003,-3.552772e-003
2.373980e+003,-3.636666e-003
2.375909e+003,-3.721365e-003
2.377838e+003,-3.923780e-003
2.379766e+003,-4.196890e-003
2.381695e+003,-4.264255e-003
2.383623e+003,-4.171195e-003
2.385552e+003,-4.140477e-003
2.387480e+003,-4.112087e-003
2.389408e+003,-4.070861e-003
2.391337e+003,-4.106277e-003
2.393266e+003,-4.203617e-003
2.395194e+003,-4.155606e-003
2.397123e+003,-4.065248e-003
2.399051e+003,-4.048014e-003
2.400979e+003,-4.067447e-003
2.402908e+003,-4.154129e-003
2.404836e+003,-4.195052e-003
2.406765e+003,-4.156066e-003
2.408694e+003,-4.157247e-003
2.410622e+003,-4.037542e-003
2.412551e+003,-3.972506e-003
2.414479e+003,-3.960654e-003
2.416407e+003,-3.961671e-003
2.418336e+003,-4.020078e-003
2.420264e+003,-4.113826e-003
2.422193e+003,-4.124756e-003
2.424122e+003,-4.045749e-003
2.426050e+003,-3.991581e-003
2.427979e+003,-3.996112e-003
2.429907e+003,-4.023393e-003
2.431835e+003,-3.991122e-003
2.433764e+003,-3.797639e-003
2.435692e+003,-3.710294e-003
2.437621e+003,-3.764431e-003
2.439550e+003,-3.825064e-003
2.441478e+003,-3.821780e-003
2.443406e+003,-3.744426e-003
2.445335e+003,-3.706450e-003
2.447263e+003,-3.720149e-003
2.449192e+003,-3.704742e-003
2.451121e+003,-3.781183e-003
2.453049e+003,-3.747743e-003
2.454978e+003,-3.630192e-003
2.456906e+003,-3.611759e-003
2.458834e+003,-3.588559e-003
2.460763e+003,-3.584287e-003
2.462691e+003,-3.721627e-003
2.464620e+003,-3.759044e-003
2.466549e+003,-3.695871e-003
2.468477e+003,-3.595953e-003
2.470406e+003,-3.596939e-003
2.472334e+003,-3.699814e-003
2.474262e+003,-3.668964e-003
2.476191e+003,-3.666697e-003
2.478119e+003,-3.692224e-003
2.480048e+003,-3.690155e-003
2.481977e+003,-3.623720e-003
2.483905e+003,-3.610477e-003
2.485833e+003,-3.649710e-003
2.487762e+003,-3.632066e-003
2.489690e+003,-3.724715e-003
2.491619e+003,-3.754904e-003
2.493547e+003,-3.644486e-003
2.495476e+003,-3.608013e-003
2.497405e+003,-3.629733e-003
2.499333e+003,-3.608736e-003
2.501261e+003,-3.593850e-003
2.503190e+003,-3.567264e-003
2.505118e+003,-3.473825e-003
2.507047e+003,-3.527466e-003
2.508975e+003,-3.626972e-003
2.510904e+003,-3.642153e-003
2.512833e+003,-3.602591e-003
2.514761e+003,-3.656446e-003
2.516689e+003,-3.684635e-003
2.518618e+003,-3.590629e-003
2.520546e+003,-3.558884e-003
2.522475e+003,-3.626808e-003
2.524403e+003,-3.667058e-003
2.526332e+003,-3.706351e-003
2.528260e+003,-3.702705e-003
2.530189e+003,-3.691896e-003
2.532117e+003,-3.713152e-003
2.534046e+003,-3.749911e-003
2.535974e+003,-3.678360e-003
2.537903e+003,-3.650334e-003
2.539831e+003,-3.519972e-003
2.541760e+003,-3.449862e-003
2.543688e+003,-3.482634e-003
2.545617e+003,-3.475370e-003
2.547545e+003,-3.368694e-003
2.549474e+003,-3.351630e-003
2.551402e+003,-3.437206e-003
2.553331e+003,-3.485231e-003
2.555259e+003,-3.421000e-003
2.557188e+003,-3.335058e-003
2.559116e+003,-3.328120e-003
2.561045e+003,-3.297704e-003
2.562973e+003,-3.315888e-003
2.564902e+003,-3.210489e-003
2.566830e+003,-3.099010e-003
2.568759e+003,-3.220454e-003
2.570687e+003,-3.272975e-003
2.572616e+003,-3.202168e-003
2.574544e+003,-3.119999e-003
2.576473e+003,-3.198221e-003
2.578401e+003,-3.252224e-003
2.580330e+003,-3.319670e-003
2.582258e+003,-3.308654e-003
2.584187e+003,-3.184900e-003
2.586115e+003,-3.151447e-003
2.588044e+003,-3.186380e-003
2.589972e+003,-3.167105e-003
2.591901e+003,-3.076606e-003
2.593829e+003,-3.132730e-003
2.595758e+003,-3.232590e-003
2.597686e+003,-3.204273e-003
2.599615e+003,-3.211508e-003
2.601543e+003,-3.196050e-003
2.603472e+003,-3.152302e-003
2.605400e+003,-3.183683e-003
2.607329e+003,-3.154539e-003
2.609257e+003,-3.032748e-003
2.611186e+003,-2.976051e-003
2.613114e+003,-2.987964e-003
2.615043e+003,-3.022811e-003
2.616971e+003,-3.062097e-003
2.618900e+003,-2.997737e-003
2.620828e+003,-2.985331e-003
2.622757e+003,-2.939424e-003
2.624685e+003,-2.908355e-003
2.626614e+003,-2.879424e-003
2.628542e+003,-2.836303e-003
2.630471e+003,-2.873861e-003
2.632399e+003,-2.805490e-003
2.634328e+003,-2.738985e-003
2.636256e+003,-2.657289e-003
2.638185e+003,-2.495826e-003
2.640113e+003,-2.450493e-003
2.642042e+003,-2.516317e-003
2.643970e+003,-2.403771e-003
2.645899e+003,-2.345443e-003
2.647827e+003,-2.346827e-003
2.649756e+003,-2.249235e-003
2.651684e+003,-2.223325e-003
2.653613e+003,-2.216139e-003
2.655541e+003,-2.153698e-003
2.657470e+003,-2.197909e-003
2.659398e+003,-2.198305e-003
2.661327e+003,-2.134641e-003
2.663255e+003,-2.118254e-003
2.665184e+003,-2.092040e-003
2.667112e+003,-2.019390e-003
2.669041e+003,-1.907374e-003
2.670969e+003,-1.814732e-003
2.672898e+003,-1.871349e-003
2.674826e+003,-1.911300e-003
2.676755e+003,-1.890583e-003
2.678683e+003,-1.906550e-003
2.680612e+003,-1.818196e-003
2.682540e+003,-1.743587e-003
2.684469e+003,-1.721574e-003
2.686397e+003,-1.615952e-003
2.688326e+003,-1.520507e-003
2.690254e+003,-1.466915e-003
2.692183e+003,-1.493596e-003
2.694111e+003,-1.509743e-003
2.696040e+003,-1.499969e-003
2.697968e+003,-1.472364e-003
2.699897e+003,-1.375434e-003
2.701825e+003,-1.282116e-003
2.703754e+003,-1.220664e-003
2.705682e+003,-1.104807e-003
2.707611e+003,-1.101072e-003
2.709539e+003,-1.131312e-003
2.711468e+003,-1.074267e-003
2.713396e+003,-1.004753e-003
2.715325e+003,-9.062638e-004
2.717253e+003,-8.306045e-004
2.719182e+003,-7.609520e-004
2.721110e+003,-7.658142e-004
2.723039e+003,-7.534106e-004
2.724967e+003,-6.657487e-004
2.726896e+003,-5.556667e-004
2.728824e+003,-4.805752e-004
2.730753e+003,-3.170764e-004
2.732681e+003,-2.353536e-004
2.734610e+003,-2.332341e-004
2.736538e+003,-2.560506e-004
2.738467e+003,-2.447253e-004
2.740395e+003,-7.649976e-005
2.742324e+003,3.273767e-005
2.744252e+003,5.404498e-005
2.746181e+003,1.319266e-004
2.748109e+003,1.999768e-004
2.750038e+003,3.322295e-004
2.751966e+003,4.141410e-004
2.753895e+003,5.180614e-004
2.755823e+003,7.450280e-004
2.757752e+003,9.119773e-004
2.759680e+003,1.033586e-003
2.761609e+003,1.238559e-003
2.763537e+003,1.604694e-003
2.765466e+003,1.761860e-003
2.767394e+003,1.912860e-003
2.769323e+003,2.222377e-003
2.771251e+003,2.629310e-003
2.773180e+003,3.026047e-003
2.775108e+003,3.343304e-003
2.777037e+003,3.814059e-003
2.778965e+003,4.287499e-003
2.780894e+003,4.772881e-003
2.782822e+003,5.231673e-003
2.784750e+003,5.787076e-003
2.786679e+003,6.410304e-003
2.788608e+003,6.834544e-003
2.790536e+003,7.271193e-003
2.792465e+003,7.810826e-003
2.794393e+003,8.388186e-003
2.796322e+003,8.910776e-003
2.798250e+003,9.268139e-003
2.800178e+003,9.484791e-003
2.802107e+003,9.765154e-003
2.804036e+003,1.004695e-002
2.805964e+003,1.020687e-002
2.807893e+003,1.037637e-002
2.809821e+003,1.046363e-002
2.811750e+003,1.035957e-002
2.813678e+003,1.012895e-002
2.815606e+003,1.001986e-002
2.817535e+003,9.828257e-003
2.819464e+003,9.529259e-003
2.821392e+003,9.248981e-003
2.823321e+003,9.017833e-003
2.825249e+003,8.706545e-003
2.827177e+003,8.216954e-003
2.829106e+003,7.675737e-003
2.831034e+003,7.196906e-003
2.832963e+003,6.883151e-003
2.834892e+003,6.580791e-003
2.836820e+003,6.178341e-003
2.838749e+003,5.650198e-003
2.840677e+003,5.049513e-003
2.842605e+003,4.606015e-003
2.844534e+003,4.144303e-003
2.846462e+003,3.525385e-003
2.848391e+003,3.062317e-003
2.850320e+003,2.781445e-003
2.852248e+003,2.635510e-003
2.854177e+003,2.535114e-003
2.856105e+003,2.551246e-003
2.858033e+003,2.617576e-003
2.859962e+003,2.741731e-003
2.861890e+003,2.771808e-003
2.863819e+003,2.787147e-003
2.865748e+003,2.784346e-003
2.867676e+003,2.764171e-003
2.869604e+003,2.889602e-003
2.871533e+003,3.009431e-003
2.873461e+003,3.135166e-003
2.875390e+003,3.178989e-003
2.877319e+003,3.266547e-003
2.879247e+003,3.412794e-003
2.881176e+003,3.449731e-003
2.883104e+003,3.489677e-003
2.885032e+003,3.647527e-003
2.886961e+003,3.605061e-003
2.888889e+003,3.423581e-003
2.890818e+003,3.322970e-003
2.892747e+003,3.094786e-003
2.894675e+003,2.886067e-003
2.896604e+003,2.850545e-003
2.898532e+003,2.875794e-003
2.900460e+003,2.825165e-003
2.902389e+003,2.793817e-003
2.904317e+003,2.724625e-003
2.906246e+003,2.632110e-003
2.908175e+003,2.495156e-003
2.910103e+003,2.441106e-003
2.912031e+003,2.301248e-003
2.913960e+003,1.996335e-003
2.915888e+003,1.827937e-003
2.917817e+003,1.873790e-003
2.919745e+003,2.098537e-003
2.921674e+003,2.241360e-003
2.923603e+003,2.491724e-003
2.925531e+003,2.832302e-003
2.927459e+003,3.010766e-003
2.929388e+003,3.051439e-003
2.931316e+003,3.131729e-003
2.933245e+003,3.284274e-003
2.935173e+003,3.298964e-003
2.937102e+003,3.180157e-003
2.939031e+003,3.164570e-003
2.940959e+003,2.999855e-003
2.942887e+003,2.724692e-003
2.944816e+003,2.539514e-003
2.946744e+003,2.376702e-003
2.948673e+003,2.058852e-003
2.950601e+003,1.557571e-003
2.952530e+003,9.274172e-004
2.954458e+003,3.619745e-004
2.956387e+003,-1.372195e-004
2.958315e+003,-4.242729e-004
2.960244e+003,-9.314585e-004
2.962172e+003,-1.568447e-003
2.964101e+003,-1.957020e-003
2.966029e+003,-2.242807e-003
2.967958e+003,-2.607065e-003
2.969886e+003,-2.945940e-003
2.971815e+003,-3.133618e-003
2.973743e+003,-3.343640e-003
2.975672e+003,-3.634563e-003
2.977600e+003,-3.827987e-003
2.979529e+003,-3.835245e-003
2.981457e+003,-3.833012e-003
2.983386e+003,-3.963116e-003
2.985314e+003,-4.153046e-003
2.987243e+003,-4.242567e-003
2.989171e+003,-4.134339e-003
2.991100e+003,-4.283908e-003
2.993028e+003,-4.334890e-003
2.994957e+003,-4.230032e-003
2.996885e+003,-4.223109e-003
2.998814e+003,-4.182451e-003
3.000742e+003,-4.201812e-003
3.002671e+003,-4.308186e-003
3.004599e+003,-4.249818e-003
3.006528e+003,-4.123607e-003
3.008456e+003,-4.165353e-003
3.010385e+003,-4.269997e-003
3.012313e+003,-4.244470e-003
3.014242e+003,-4.259793e-003
3.016170e+003,-4.211821e-003
3.018099e+003,-4.191771e-003
3.020027e+003,-4.253329e-003
3.021956e+003,-4.261958e-003
3.023884e+003,-4.329378e-003
3.025813e+003,-4.275476e-003
3.027741e+003,-4.231411e-003
3.029670e+003,-4.272818e-003
3.031598e+003,-4.200073e-003
3.033527e+003,-4.257692e-003
3.035455e+003,-4.226325e-003
3.037384e+003,-4.129416e-003
3.039312e+003,-4.122425e-003
3.041241e+003,-4.332397e-003
3.043169e+003,-4.422798e-003
3.045098e+003,-4.278264e-003
3.047026e+003,-4.191509e-003
3.048955e+003,-4.230623e-003
3.050883e+003,-4.172835e-003
3.052812e+003,-4.160496e-003
3.054740e+003,-4.249392e-003
3.056669e+003,-4.220484e-003
3.058597e+003,-4.300607e-003
3.060526e+003,-4.335874e-003
3.062454e+003,-4.214840e-003
3.064383e+003,-4.154950e-003
3.066311e+003,-4.103061e-003
3.068240e+003,-4.043287e-003
3.070168e+003,-4.095675e-003
3.072097e+003,-4.211919e-003
3.074025e+003,-4.279380e-003
3.075954e+003,-4.244896e-003
3.077882e+003,-4.193806e-003
3.079811e+003,-4.031403e-003
3.081739e+003,-3.970044e-003
3.083668e+003,-4.033865e-003
3.085596e+003,-4.115960e-003
3.087525e+003,-4.104735e-003
3.089453e+003,-3.988429e-003
3.091382e+003,-3.946797e-003
3.093310e+003,-3.893866e-003
3.095239e+003,-3.853275e-003
3.097167e+003,-3.837873e-003
3.099096e+003,-3.774351e-003
3.101024e+003,-3.724617e-003
3.102953e+003,-3.702803e-003
3.104881e+003,-3.753361e-003
3.106810e+003,-3.729939e-003
3.108738e+003,-3.653817e-003
3.110667e+003,-3.655098e-003
3.112595e+003,-3.575677e-003
3.114524e+003,-3.465936e-003
3.116452e+003,-3.564997e-003
3.118381e+003,-3.569565e-003
3.120309e+003,-3.512577e-003
3.122238e+003,-3.468303e-003
3.124166e+003,-3.398480e-003
3.126095e+003,-3.297343e-003
3.128023e+003,-3.319834e-003
3.129952e+003,-3.417844e-003
3.131880e+003,-3.514878e-003
3.133809e+003,-3.433360e-003
3.135737e+003,-3.227361e-003
3.137666e+003,-3.097299e-003
3.139594e+003,-3.049923e-003
3.141523e+003,-3.008793e-003
3.143451e+003,-3.055023e-003
3.145380e+003,-3.084666e-003
3.147308e+003,-3.158881e-003
3.149237e+003,-3.134473e-003
3.151165e+003,-3.037223e-003
3.153094e+003,-2.870503e-003
3.155022e+003,-2.774115e-003
3.156951e+003,-2.817111e-003
3.158879e+003,-2.722094e-003
3.160808e+003,-2.643062e-003
3.162736e+003,-2.620502e-003
3.164665e+003,-2.570142e-003
3.166593e+003,-2.563884e-003
3.168522e+003,-2.627912e-003
3.170450e+003,-2.573567e-003
3.172379e+003,-2.477146e-003
3.174307e+003,-2.507324e-003
3.176236e+003,-2.419686e-003
3.178164e+003,-2.304807e-003
3.180093e+003,-2.358329e-003
3.182021e+003,-2.494179e-003
3.183950e+003,-2.361888e-003
3.185878e+003,-2.258069e-003
3.187807e+003,-2.234369e-003
3.189735e+003,-2.164776e-003
3.191664e+003,-2.268419e-003
3.193592e+003,-2.247653e-003
3.195521e+003,-2.253817e-003
3.197449e+003,-2.378397e-003
3.199378e+003,-2.480968e-003
3.201306e+003,-2.500669e-003
3.203235e+003,-2.384724e-003
3.205163e+003,-2.405385e-003
3.207092e+003,-2.545668e-003
3.209020e+003,-2.486206e-003
3.210948e+003,-2.314101e-003
3.212877e+003,-2.152215e-003
3.214806e+003,-2.101503e-003
3.216734e+003,-2.172952e-003
3.218663e+003,-2.104999e-003
3.220591e+003,-2.028394e-003
3.222520e+003,-1.943628e-003
3.224448e+003,-1.966123e-003
3.226376e+003,-2.086764e-003
3.228305e+003,-2.074859e-003
3.230234e+003,-1.878244e-003
3.232162e+003,-1.874087e-003
3.234091e+003,-1.773089e-003
3.236019e+003,-1.687580e-003
3.237948e+003,-1.691046e-003
3.239876e+003,-1.566895e-003
3.241804e+003,-1.392443e-003
3.243733e+003,-1.294802e-003
3.245662e+003,-1.230543e-003
3.247590e+003,-1.133195e-003
3.249519e+003,-1.185837e-003
3.251447e+003,-1.180616e-003
3.253375e+003,-1.114622e-003
3.255304e+003,-1.005480e-003
3.257232e+003,-8.505126e-004
3.259161e+003,-6.686270e-004
3.261090e+003,-6.729278e-004
3.263018e+003,-7.809956e-004
3.264947e+003,-9.045113e-004
3.266875e+003,-9.559576e-004
3.268803e+003,-8.063630e-004
3.270732e+003,-6.205546e-004
3.272660e+003,-6.389504e-004
3.274589e+003,-7.024365e-004
3.276518e+003,-7.735207e-004
3.278446e+003,-7.305540e-004
3.280375e+003,-5.934557e-004
3.282303e+003,-6.381895e-004
3.284231e+003,-6.096028e-004
3.286160e+003,-6.568492e-004
3.288088e+003,-8.095711e-004
3.290017e+003,-1.053312e-003
3.291946e+003,-1.011794e-003
3.293874e+003,-8.459490e-004
3.295802e+003,-9.345665e-004
3.297731e+003,-9.834305e-004
3.299659e+003,-9.690166e-004
3.301588e+003,-1.129858e-003
3.303516e+003,-1.342965e-003
3.305445e+003,-1.508125e-003
3.307374e+003,-1.491516e-003
3.309302e+003,-1.578087e-003
3.311230e+003,-1.661604e-003
3.313159e+003,-1.704644e-003
3.315087e+003,-1.817273e-003
3.317016e+003,-1.790347e-003
3.318944e+003,-1.895366e-003
3.320873e+003,-2.053391e-003
3.322802e+003,-2.084818e-003
3.324730e+003,-2.144796e-003
3.326658e+003,-2.274846e-003
3.328587e+003,-2.314661e-003
3.330515e+003,-2.276231e-003
3.332444e+003,-2.320792e-003
3.334372e+003,-2.333249e-003
3.336301e+003,-2.154456e-003
3.338229e+003,-2.146445e-003
3.340158e+003,-2.245906e-003
3.342086e+003,-2.182117e-003
3.344015e+003,-2.197019e-003
3.345943e+003,-2.162501e-003
3.347872e+003,-2.069550e-003
3.349800e+003,-2.039771e-003
3.351729e+003,-2.062196e-003
3.353657e+003,-2.158677e-003
3.355586e+003,-2.226787e-003
3.357514e+003,-2.139949e-003
3.359443e+003,-2.134443e-003
3.361371e+003,-2.332623e-003
3.363300e+003,-2.416193e-003
3.365229e+003,-2.436226e-003
3.367157e+003,-2.597744e-003
3.369085e+003,-2.781984e-003
3.371014e+003,-2.947256e-003
3.372942e+003,-3.096970e-003
3.374871e+003,-3.149243e-003
3.376799e+003,-3.142039e-003
3.378728e+003,-3.289681e-003
3.380656e+003,-3.508403e-003
3.382585e+003,-3.588756e-003
3.384513e+003,-3.675929e-003
3.386442e+003,-3.824078e-003
3.388370e+003,-3.897182e-003
3.390299e+003,-3.952347e-003
3.392227e+003,-3.945747e-003
3.394156e+003,-4.068268e-003
3.396084e+003,-4.137720e-003
3.398013e+003,-4.199319e-003
3.399941e+003,-4.183862e-003
3.401870e+003,-4.078804e-003
3.403798e+003,-4.049262e-003
3.405727e+003,-4.034785e-003
3.407655e+003,-4.031239e-003
3.409584e+003,-4.162039e-003
3.411512e+003,-4.242928e-003
3.413441e+003,-4.319307e-003
3.415369e+003,-4.328656e-003
3.417298e+003,-4.446576e-003
3.419226e+003,-4.398756e-003
3.421155e+003,-4.195709e-003
3.423083e+003,-4.250212e-003
3.425012e+003,-4.265338e-003
3.426940e+003,-4.307267e-003
3.428869e+003,-4.338892e-003
3.430797e+003,-4.318848e-003
3.432726e+003,-4.243453e-003
3.434654e+003,-4.276755e-003
3.436583e+003,-4.436114e-003
3.438511e+003,-4.530166e-003
3.440440e+003,-4.327935e-003
3.442368e+003,-4.256019e-003
3.444297e+003,-4.347815e-003
3.446225e+003,-4.310515e-003
3.448154e+003,-4.245651e-003
3.450082e+003,-4.207752e-003
3.452011e+003,-4.206012e-003
3.453939e+003,-4.196037e-003
3.455868e+003,-4.179465e-003
3.457796e+003,-4.259235e-003
3.459725e+003,-4.284827e-003
3.461653e+003,-4.173755e-003
3.463582e+003,-4.085139e-003
3.465510e+003,-4.170112e-003
3.467439e+003,-4.240795e-003
3.469367e+003,-4.325311e-003
3.471296e+003,-4.392163e-003
3.473224e+003,-4.290666e-003
3.475153e+003,-4.332397e-003
3.477081e+003,-4.389146e-003
3.479010e+003,-4.263795e-003
3.480938e+003,-4.217826e-003
3.482867e+003,-4.258415e-003
3.484795e+003,-4.226751e-003
3.486724e+003,-4.253099e-003
3.488652e+003,-4.307595e-003
3.490581e+003,-4.144907e-003
3.492509e+003,-4.129154e-003
3.494438e+003,-4.210541e-003
3.496366e+003,-4.134963e-003
3.498295e+003,-4.196168e-003
3.500223e+003,-4.159873e-003
3.502152e+003,-4.200270e-003
3.504080e+003,-4.187603e-003
3.506009e+003,-4.195906e-003
3.507937e+003,-4.153408e-003
3.509866e+003,-4.084778e-003
3.511794e+003,-4.080183e-003
3.513723e+003,-4.128990e-003
3.515651e+003,-4.162334e-003
3.517580e+003,-4.113466e-003
3.519508e+003,-4.085763e-003
3.521437e+003,-4.124592e-003
3.523365e+003,-4.227210e-003
3.525294e+003,-4.231148e-003
3.527222e+003,-4.232526e-003
3.529151e+003,-4.210475e-003
3.531079e+003,-4.343321e-003
3.533008e+003,-4.256839e-003
3.534936e+003,-4.042696e-003
3.536865e+003,-4.062064e-003
3.538793e+003,-4.337613e-003
3.540722e+003,-4.459596e-003
3.542650e+003,-4.345912e-003
3.544579e+003,-4.206899e-003
3.546507e+003,-3.960522e-003
3.548436e+003,-3.917673e-003
3.550364e+003,-3.918329e-003
3.552293e+003,-3.925093e-003
3.554221e+003,-4.020767e-003
3.556150e+003,-4.007701e-003
3.558078e+003,-3.967023e-003
3.560007e+003,-3.934945e-003
3.561935e+003,-4.015744e-003
3.563864e+003,-4.000314e-003
3.565792e+003,-3.788606e-003
3.567721e+003,-3.777471e-003
3.569649e+003,-3.861683e-003
3.571578e+003,-3.969420e-003
3.573506e+003,-4.109757e-003
3.575435e+003,-4.058781e-003
3.577363e+003,-3.937177e-003
3.579292e+003,-3.934189e-003
3.581220e+003,-3.953726e-003
3.583149e+003,-4.013709e-003
3.585077e+003,-3.834457e-003
3.587006e+003,-3.675929e-003
3.588934e+003,-3.877085e-003
3.590863e+003,-4.039446e-003
3.592791e+003,-4.007635e-003
3.594720e+003,-4.008883e-003
3.596648e+003,-3.939049e-003
3.598577e+003,-3.945320e-003
3.600505e+003,-3.888381e-003
3.602434e+003,-3.866937e-003
3.604362e+003,-3.981240e-003
3.606291e+003,-4.038363e-003
3.608219e+003,-3.811663e-003
3.610148e+003,-3.675896e-003
3.612076e+003,-3.691797e-003
3.614005e+003,-3.722810e-003
3.615933e+003,-3.682500e-003
3.617862e+003,-3.605614e-003
3.619790e+003,-3.696693e-003
3.621719e+003,-3.950705e-003
3.623647e+003,-4.220877e-003
3.625576e+003,-4.106343e-003
3.627504e+003,-3.332329e-003
3.629433e+003,-2.951600e-003
3.631361e+003,-3.645899e-003
3.633290e+003,-3.942595e-003
3.635218e+003,-3.925980e-003
3.637146e+003,-3.878563e-003
3.639075e+003,-3.792055e-003
3.641004e+003,-3.849564e-003
3.642932e+003,-3.964265e-003
3.644861e+003,-4.037805e-003
3.646789e+003,-3.782858e-003
3.648718e+003,-3.456699e-003
3.650646e+003,-3.527005e-003
3.652574e+003,-3.958256e-003
3.654503e+003,-3.790610e-003
3.656432e+003,-3.456075e-003
3.658360e+003,-3.804011e-003
3.660289e+003,-4.083629e-003
3.662217e+003,-4.205652e-003
3.664146e+003,-4.395017e-003
3.666074e+003,-4.307136e-003
3.668002e+003,-3.842044e-003
3.669931e+003,-3.598976e-003
3.671860e+003,-3.869138e-003
3.673788e+003,-3.839843e-003
3.675717e+003,-3.565621e-003
3.677645e+003,-3.908380e-003
3.679573e+003,-3.967647e-003
3.681502e+003,-3.991942e-003
3.683430e+003,-4.039249e-003
3.685359e+003,-4.042368e-003
3.687288e+003,-3.873604e-003
3.689216e+003,-3.698434e-003
3.691145e+003,-3.716141e-003
3.693073e+003,-3.946797e-003
3.695001e+003,-4.153014e-003
3.696930e+003,-4.089965e-003
3.698858e+003,-3.946568e-003
3.700787e+003,-3.816328e-003
3.702716e+003,-3.732665e-003
3.704644e+003,-3.770048e-003
3.706573e+003,-3.726062e-003
3.708501e+003,-3.645077e-003
3.710429e+003,-3.375269e-003
3.712358e+003,-3.285669e-003
3.714286e+003,-3.811565e-003
3.716215e+003,-3.997753e-003
3.718144e+003,-3.827166e-003
3.720072e+003,-3.851338e-003
3.722000e+003,-3.705628e-003
3.723929e+003,-3.709571e-003
3.725857e+003,-3.808872e-003
3.727786e+003,-3.964101e-003
3.729714e+003,-3.842996e-003
3.731643e+003,-3.583729e-003
3.733572e+003,-3.355181e-003
3.735500e+003,-2.955780e-003
3.737428e+003,-3.305958e-003
3.739357e+003,-3.725832e-003
3.741285e+003,-3.493086e-003
3.743214e+003,-2.833274e-003
3.745142e+003,-2.680538e-003
3.747071e+003,-3.008234e-003
3.749000e+003,-2.499384e-003
3.750928e+003,-2.431679e-003
3.752856e+003,-2.681888e-003
3.754785e+003,-2.975229e-003
3.756713e+003,-3.198615e-003
3.758642e+003,-3.213515e-003
3.760570e+003,-2.954299e-003
3.762499e+003,-3.113814e-003
3.764427e+003,-3.200424e-003
3.766356e+003,-3.206115e-003
3.768284e+003,-3.293430e-003
3.770213e+003,-3.091707e-003
3.772141e+003,-3.191478e-003
3.774070e+003,-3.312074e-003
3.775998e+003,-3.181150e-003
3.777927e+003,-3.070782e-003
3.779855e+003,-3.088417e-003
3.781784e+003,-3.155493e-003
3.783712e+003,-3.066933e-003
3.785641e+003,-3.010801e-003
3.787569e+003,-3.049726e-003
3.789498e+003,-3.336604e-003
3.791426e+003,-3.297441e-003
3.793355e+003,-3.133848e-003
3.795283e+003,-2.995565e-003
3.797212e+003,-2.906347e-003
3.799140e+003,-2.825406e-003
3.801069e+003,-2.533150e-003
3.802997e+003,-3.055845e-003
3.804926e+003,-3.230420e-003
3.806854e+003,-2.630778e-003
3.808783e+003,-2.724333e-003
3.810711e+003,-3.048936e-003
3.812640e+003,-3.227822e-003
3.814568e+003,-3.096148e-003
3.816497e+003,-2.621786e-003
3.818425e+003,-2.608250e-003
3.820354e+003,-2.330151e-003
3.822282e+003,-2.362580e-003
3.824211e+003,-2.780403e-003
3.826139e+003,-2.850161e-003
3.828068e+003,-2.801539e-003
3.829996e+003,-2.686136e-003
3.831925e+003,-2.787284e-003
3.833853e+003,-2.833472e-003
3.835782e+003,-2.547611e-003
3.837710e+003,-2.397609e-003
3.839639e+003,-2.704938e-003
3.841567e+003,-2.789128e-003
3.843496e+003,-2.723246e-003
3.845424e+003,-2.938963e-003
3.847353e+003,-3.402655e-003
3.849281e+003,-3.284452e-003
3.851210e+003,-2.326328e-003
3.853138e+003,-1.408759e-003
3.855067e+003,-1.953886e-003
3.856995e+003,-2.716299e-003
3.858924e+003,-2.954661e-003
3.860852e+003,-2.784914e-003
3.862781e+003,-2.393753e-003
3.864709e+003,-2.336347e-003
3.866638e+003,-2.795317e-003
3.868566e+003,-2.732103e-003
3.870495e+003,-2.535325e-003
3.872423e+003,-2.626463e-003
3.874352e+003,-2.568627e-003
3.876280e+003,-2.819481e-003
3.878209e+003,-2.815728e-003
3.880137e+003,-2.724892e-003
3.882066e+003,-2.895914e-003
3.883994e+003,-2.740072e-003
3.885923e+003,-2.305071e-003
3.887851e+003,-2.499747e-003
3.889780e+003,-2.445320e-003
3.891708e+003,-2.297853e-003
3.893637e+003,-2.548336e-003
3.895565e+003,-2.815333e-003
3.897494e+003,-2.908980e-003
3.899422e+003,-2.797885e-003
3.901351e+003,-2.686663e-003
3.903279e+003,-2.380770e-003
3.905208e+003,-2.373652e-003
3.907136e+003,-2.827711e-003
3.909065e+003,-2.988523e-003
3.910993e+003,-2.772436e-003
3.912922e+003,-2.743496e-003
3.914850e+003,-2.654852e-003
3.916779e+003,-2.556373e-003
3.918707e+003,-2.530318e-003
3.920636e+003,-2.615496e-003
3.922564e+003,-2.608184e-003
3.924493e+003,-2.503864e-003
3.926421e+003,-2.634433e-003
3.928350e+003,-2.842327e-003
3.930278e+003,-3.030938e-003
3.932207e+003,-3.018829e-003
3.934135e+003,-2.931986e-003
3.936064e+003,-2.809704e-003
3.937992e+003,-2.695554e-003
3.939921e+003,-2.595669e-003
3.941849e+003,-2.547974e-003
3.943778e+003,-2.717220e-003
3.945706e+003,-2.615331e-003
3.947635e+003,-2.307905e-003
3.949563e+003,-2.459125e-003
3.951492e+003,-2.753999e-003
3.953420e+003,-2.797523e-003
3.955349e+003,-2.839825e-003
3.957277e+003,-2.904043e-003
3.959206e+003,-2.885546e-003
3.961134e+003,-2.922573e-003
3.963063e+003,-2.788075e-003
3.964991e+003,-2.745833e-003
3.966920e+003,-2.605550e-003
3.968848e+003,-2.422519e-003
3.970777e+003,-2.390722e-003
3.972705e+003,-2.402090e-003
3.974634e+003,-2.424958e-003
3.976562e+003,-2.552486e-003
3.978491e+003,-2.710898e-003
3.980419e+003,-2.739446e-003
3.982348e+003,-2.565366e-003
3.984276e+003,-2.592078e-003
3.986205e+003,-2.686926e-003
3.988133e+003,-2.536543e-003
3.990062e+003,-2.488381e-003
3.991990e+003,-2.605912e-003
3.993919e+003,-2.743101e-003
3.995847e+003,-2.767037e-003
3.997776e+003,-2.607097e-003
3.999704e+003,-2.596294e-003
4.001633e+003,0.000000e+000
