3.991989e+002,2.534948e-003
4.011274e+002,-1.492606e-003
4.030559e+002,-9.776946e-003
4.049844e+002,-1.572666e-002
4.069129e+002,-1.407371e-002
4.088414e+002,-5.890238e-003
4.107699e+002,-6.268434e-003
4.126984e+002,-1.175248e-002
4.146269e+002,-9.128566e-003
4.165554e+002,-4.291847e-003
4.184839e+002,-4.889923e-003
4.204124e+002,2.185245e-003
4.223409e+002,6.881569e-003
4.242694e+002,4.294962e-003
4.261979e+002,-9.597871e-005
4.281264e+002,5.406396e-003
4.300549e+002,7.896725e-003
4.319834e+002,3.678971e-003
4.339119e+002,3.388249e-003
4.358404e+002,4.933711e-003
4.377689e+002,6.909981e-003
4.396974e+002,2.633076e-003
4.416259e+002,-5.200078e-003
4.435544e+002,-3.175755e-003
4.454829e+002,9.417715e-005
4.474114e+002,2.986010e-003
4.493399e+002,1.557172e-003
4.512684e+002,-1.679571e-004
4.531969e+002,4.974611e-004
4.551254e+002,3.343571e-003
4.570539e+002,4.102122e-003
4.589824e+002,2.126805e-003
4.609109e+002,1.031826e-003
4.628394e+002,6.198499e-004
4.647679e+002,-7.075971e-004
4.666964e+002,5.532932e-004
4.686249e+002,2.688050e-003
4.705533e+002,2.677515e-003
4.724819e+002,1.142671e-003
4.744103e+002,1.731520e-003
4.763389e+002,2.815427e-003
4.782673e+002,2.644044e-003
4.801959e+002,2.183713e-003
4.821243e+002,2.848644e-003
4.840529e+002,2.034949e-003
4.859813e+002,1.127390e-003
4.879099e+002,1.276275e-003
4.898383e+002,1.494728e-003
4.917668e+002,7.012846e-004
4.936953e+002,1.322068e-005
4.956238e+002,3.858516e-004
4.975523e+002,1.444891e-003
4.994808e+002,4.376560e-004
5.014093e+002,7.687166e-006
5.033378e+002,1.122905e-003
5.052663e+002,2.785613e-003
5.071948e+002,2.718190e-003
5.091233e+002,1.502076e-003
5.110518e+002,6.884080e-004
5.129803e+002,1.548298e-004
5.149088e+002,-1.223043e-003
5.168373e+002,-1.072053e-003
5.187658e+002,-1.061740e-003
5.206943e+002,-1.209198e-003
5.226228e+002,-6.692560e-005
5.245513e+002,8.928856e-004
5.264798e+002,4.530460e-004
5.284083e+002,1.056989e-005
5.303368e+002,4.625987e-004
5.322653e+002,4.713886e-004
5.341938e+002,1.450609e-003
5.361223e+002,1.319245e-003
5.380508e+002,5.448664e-004
5.399792e+002,7.227135e-005
5.419078e+002,8.478325e-004
5.438363e+002,1.582977e-003
5.457648e+002,2.207224e-003
5.476932e+002,2.556012e-003
5.496218e+002,2.024363e-003
5.515503e+002,3.136201e-003
5.534788e+002,2.346619e-003
5.554072e+002,1.417200e-003
5.573358e+002,2.409552e-003
5.592643e+002,2.560678e-003
5.611927e+002,2.757069e-003
5.631212e+002,4.018208e-003
5.650497e+002,3.896529e-003
5.669783e+002,3.403210e-003
5.689067e+002,3.747044e-003
5.708352e+002,3.563166e-003
5.727637e+002,2.833836e-003
5.746923e+002,3.004593e-003
5.766207e+002,2.206291e-003
5.785492e+002,7.905352e-004
5.804777e+002,-2.417478e-003
5.824063e+002,-1.346268e-003
5.843347e+002,1.547629e-003
5.862632e+002,2.242659e-003
5.881917e+002,3.380969e-003
5.901202e+002,4.688937e-003
5.920487e+002,5.505578e-003
5.939772e+002,5.788520e-003
5.959057e+002,6.256892e-003
5.978342e+002,7.159716e-003
5.997627e+002,8.316442e-003
6.016912e+002,8.659694e-003
6.036197e+002,9.854660e-003
6.055482e+002,1.234455e-002
6.074767e+002,1.301124e-002
6.094052e+002,1.185371e-002
6.113337e+002,9.956186e-003
6.132622e+002,8.532315e-003
6.151907e+002,9.346878e-003
6.171192e+002,9.886081e-003
6.190477e+002,1.005580e-002
6.209762e+002,1.064828e-002
6.229047e+002,1.009894e-002
6.248332e+002,8.023715e-003
6.267617e+002,5.696222e-003
6.286902e+002,3.530128e-003
6.306187e+002,2.887168e-003
6.325472e+002,2.755935e-003
6.344756e+002,2.250919e-003
6.364042e+002,1.910530e-003
6.383326e+002,1.692833e-003
6.402612e+002,1.672908e-003
6.421896e+002,2.023431e-003
6.441182e+002,1.471687e-003
6.460466e+002,5.905849e-004
6.479752e+002,8.215067e-004
6.499036e+002,7.046697e-004
6.518322e+002,3.277530e-004
6.537606e+002,4.986884e-004
6.556891e+002,4.041914e-004
6.576177e+002,-2.424404e-004
6.595461e+002,-4.500252e-004
6.614746e+002,-4.752134e-004
6.634031e+002,-8.011706e-004
6.653317e+002,-4.238095e-004
6.672601e+002,-6.052021e-004
6.691886e+002,-4.971898e-004
6.711171e+002,-4.434052e-004
6.730457e+002,-3.759086e-004
6.749741e+002,-5.861016e-005
6.769026e+002,1.813805e-004
6.788311e+002,1.950045e-004
6.807596e+002,3.430065e-004
6.826881e+002,6.611626e-004
6.846166e+002,6.373036e-004
6.865451e+002,8.115145e-004
6.884736e+002,1.267701e-003
6.904021e+002,1.317949e-003
6.923306e+002,1.513048e-003
6.942591e+002,2.030355e-003
6.961876e+002,1.582080e-003
6.981161e+002,1.115099e-003
7.000446e+002,1.393665e-003
7.019731e+002,1.924275e-003
7.039016e+002,2.164965e-003
7.058301e+002,2.058053e-003
7.077585e+002,1.935824e-003
7.096871e+002,2.095374e-003
7.116156e+002,3.207995e-003
7.135441e+002,3.504608e-003
7.154725e+002,2.890136e-003
7.174011e+002,2.932299e-003
7.193296e+002,3.318996e-003
7.212581e+002,3.001424e-003
7.231865e+002,3.050371e-003
7.251151e+002,3.714326e-003
7.270436e+002,3.803296e-003
7.289720e+002,4.169358e-003
7.309005e+002,4.663215e-003
7.328290e+002,4.641714e-003
7.347576e+002,4.783534e-003
7.366860e+002,5.433269e-003
7.386145e+002,5.440617e-003
7.405430e+002,5.004328e-003
7.424716e+002,5.004261e-003
7.444000e+002,5.304820e-003
7.463285e+002,5.249548e-003
7.482570e+002,5.111297e-003
7.501855e+002,5.437731e-003
7.521140e+002,6.154009e-003
7.540425e+002,6.719174e-003
7.559710e+002,6.415818e-003
7.578995e+002,5.969647e-003
7.598280e+002,5.964172e-003
7.617565e+002,6.112675e-003
7.636850e+002,6.362186e-003
7.656135e+002,6.520546e-003
7.675420e+002,6.871504e-003
7.694705e+002,7.012134e-003
7.713990e+002,6.579445e-003
7.733275e+002,6.261161e-003
7.752560e+002,6.011774e-003
7.771844e+002,6.013924e-003
7.791130e+002,5.916037e-003
7.810415e+002,5.769951e-003
7.829700e+002,5.807962e-003
7.848984e+002,5.841779e-003
7.868270e+002,5.548063e-003
7.887555e+002,5.197535e-003
7.906840e+002,4.887332e-003
7.926124e+002,4.309753e-003
7.945410e+002,4.033056e-003
7.964695e+002,4.131122e-003
7.983979e+002,4.075163e-003
8.003264e+002,3.661962e-003
8.022549e+002,3.846082e-003
8.041835e+002,4.167652e-003
8.061119e+002,4.448184e-003
8.080404e+002,5.045959e-003
8.099689e+002,4.960220e-003
8.118975e+002,4.834458e-003
8.138259e+002,5.541183e-003
8.157545e+002,5.886984e-003
8.176830e+002,5.452494e-003
8.196115e+002,4.839149e-003
8.215399e+002,4.819147e-003
8.234684e+002,5.388447e-003
8.253970e+002,5.188515e-003
8.273254e+002,4.613884e-003
8.292539e+002,4.539045e-003
8.311824e+002,4.310389e-003
8.331110e+002,4.327590e-003
8.350394e+002,4.335789e-003
8.369679e+002,4.869808e-003
8.388964e+002,4.975738e-003
8.408250e+002,4.649919e-003
8.427534e+002,4.570687e-003
8.446819e+002,4.841662e-003
8.466104e+002,4.800687e-003
8.485389e+002,4.387230e-003
8.504674e+002,4.453071e-003
8.523959e+002,4.652766e-003
8.543244e+002,4.307845e-003
8.562529e+002,4.229178e-003
8.581814e+002,4.392452e-003
8.601099e+002,4.498935e-003
8.620384e+002,4.485544e-003
8.639669e+002,4.212014e-003
8.658954e+002,3.988780e-003
8.678239e+002,4.125838e-003
8.697524e+002,4.072621e-003
8.716809e+002,3.743167e-003
8.736094e+002,3.745741e-003
8.755378e+002,3.994063e-003
8.774664e+002,4.322871e-003
8.793949e+002,4.493780e-003
8.813234e+002,4.329330e-003
8.832518e+002,4.153201e-003
8.851804e+002,3.926921e-003
8.871089e+002,3.967479e-003
8.890374e+002,4.421806e-003
8.909658e+002,4.508577e-003
8.928943e+002,4.769765e-003
8.948229e+002,4.968231e-003
8.967513e+002,4.782462e-003
8.986798e+002,4.689909e-003
9.006083e+002,4.683411e-003
9.025369e+002,4.574337e-003
9.044653e+002,4.373875e-003
9.063938e+002,4.211144e-003
9.083223e+002,4.431112e-003
9.102509e+002,4.440753e-003
9.121793e+002,4.190000e-003
9.141078e+002,4.010683e-003
9.160364e+002,3.968148e-003
9.179648e+002,3.771543e-003
9.198933e+002,3.490379e-003
9.218218e+002,3.074864e-003
9.237504e+002,2.678415e-003
9.256788e+002,2.355114e-003
9.276073e+002,2.110390e-003
9.295358e+002,2.418749e-003
9.314644e+002,2.473095e-003
9.333928e+002,2.427678e-003
9.353213e+002,2.503920e-003
9.372498e+002,2.454268e-003
9.391783e+002,2.419248e-003
9.411068e+002,2.315072e-003
9.430353e+002,2.440073e-003
9.449637e+002,2.459333e-003
9.468923e+002,2.359045e-003
9.488208e+002,2.397092e-003
9.507493e+002,2.445438e-003
9.526777e+002,2.630476e-003
9.546063e+002,2.801987e-003
9.565348e+002,2.860618e-003
9.584633e+002,2.936536e-003
9.603917e+002,3.071627e-003
9.623203e+002,3.070192e-003
9.642488e+002,2.972065e-003
9.661772e+002,3.023811e-003
9.681057e+002,3.294991e-003
9.700343e+002,3.327477e-003
9.719628e+002,2.865421e-003
9.738912e+002,2.535814e-003
9.758197e+002,2.463565e-003
9.777483e+002,2.360244e-003
9.796768e+002,2.441706e-003
9.816052e+002,2.315905e-003
9.835337e+002,1.934259e-003
9.854623e+002,1.728825e-003
9.873907e+002,1.680459e-003
9.893192e+002,1.457425e-003
9.912477e+002,1.185396e-003
9.931763e+002,1.182904e-003
9.951047e+002,1.362220e-003
9.970332e+002,1.498850e-003
9.989617e+002,1.214136e-003
1.000890e+003,1.048466e-003
1.002819e+003,1.265741e-003
1.004747e+003,1.167123e-003
1.006676e+003,1.071417e-003
1.008604e+003,1.202108e-003
1.010533e+003,1.365611e-003
1.012461e+003,1.502342e-003
1.014390e+003,1.616566e-003
1.016318e+003,1.806276e-003
1.018247e+003,2.074932e-003
1.020175e+003,2.212019e-003
1.022104e+003,2.459800e-003
1.024032e+003,2.924961e-003
1.025961e+003,3.262607e-003
1.027889e+003,3.160999e-003
1.029818e+003,3.348713e-003
1.031746e+003,3.878008e-003
1.033675e+003,4.303796e-003
1.035603e+003,4.764941e-003
1.037532e+003,5.143852e-003
1.039460e+003,5.340778e-003
1.041389e+003,5.672219e-003
1.043317e+003,5.874154e-003
1.045246e+003,5.720058e-003
1.047174e+003,5.841409e-003
1.049103e+003,5.976702e-003
1.051031e+003,6.101317e-003
1.052960e+003,6.384815e-003
1.054888e+003,6.560507e-003
1.056817e+003,6.442687e-003
1.058745e+003,6.347661e-003
1.060674e+003,6.187920e-003
1.062602e+003,6.412657e-003
1.064531e+003,6.660895e-003
1.066459e+003,6.525894e-003
1.068388e+003,6.375703e-003
1.070316e+003,6.356908e-003
1.072245e+003,6.330313e-003
1.074173e+003,6.417432e-003
1.076102e+003,6.367129e-003
1.078030e+003,6.056963e-003
1.079959e+003,5.984159e-003
1.081887e+003,6.340937e-003
1.083816e+003,6.548767e-003
1.085744e+003,6.681824e-003
1.087673e+003,6.936915e-003
1.089601e+003,6.978462e-003
1.091530e+003,7.147489e-003
1.093458e+003,7.508730e-003
1.095387e+003,7.615340e-003
1.097315e+003,7.609305e-003
1.099244e+003,7.563617e-003
1.101172e+003,7.775034e-003
1.103101e+003,7.974339e-003
1.105029e+003,7.830090e-003
1.106958e+003,7.759619e-003
1.108886e+003,7.727677e-003
1.110815e+003,7.951323e-003
1.112743e+003,8.271727e-003
1.114672e+003,7.978557e-003
1.116600e+003,7.881035e-003
1.118529e+003,7.958983e-003
1.120457e+003,7.897636e-003
1.122386e+003,8.043831e-003
1.124314e+003,8.087983e-003
1.126243e+003,7.808600e-003
1.128171e+003,7.792744e-003
1.130100e+003,7.773550e-003
1.132028e+003,7.464941e-003
1.133957e+003,7.388328e-003
1.135885e+003,7.382801e-003
1.137814e+003,7.166218e-003
1.139742e+003,6.786582e-003
1.141671e+003,6.430883e-003
1.143599e+003,6.093218e-003
1.145528e+003,5.806518e-003
1.147456e+003,5.412702e-003
1.149385e+003,4.961695e-003
1.151313e+003,4.761289e-003
1.153242e+003,4.596203e-003
1.155170e+003,4.356673e-003
1.157099e+003,4.196022e-003
1.159027e+003,4.019646e-003
1.160956e+003,3.890645e-003
1.162884e+003,3.777358e-003
1.164813e+003,3.843976e-003
1.166741e+003,3.891782e-003
1.168670e+003,3.868112e-003
1.170598e+003,3.829936e-003
1.172526e+003,3.605996e-003
1.174455e+003,3.605061e-003
1.176384e+003,3.666874e-003
1.178312e+003,3.677868e-003
1.180240e+003,3.805802e-003
1.182169e+003,3.834349e-003
1.184098e+003,3.719372e-003
1.186026e+003,3.532300e-003
1.187954e+003,3.185231e-003
1.189883e+003,2.863319e-003
1.191812e+003,2.757736e-003
1.193740e+003,2.880296e-003
1.195668e+003,2.752067e-003
1.197597e+003,2.417549e-003
1.199526e+003,2.305778e-003
1.201454e+003,2.125140e-003
1.203382e+003,2.049430e-003
1.205311e+003,2.037978e-003
1.207240e+003,1.857485e-003
1.209168e+003,1.925007e-003
1.211096e+003,2.147283e-003
1.213025e+003,2.097405e-003
1.214953e+003,1.984352e-003
1.216882e+003,1.925972e-003
1.218810e+003,2.010116e-003
1.220739e+003,2.013278e-003
1.222667e+003,2.165963e-003
1.224596e+003,2.402756e-003
1.226524e+003,2.444772e-003
1.228453e+003,2.462265e-003
1.230381e+003,2.718090e-003
1.232310e+003,2.951314e-003
1.234238e+003,3.083940e-003
1.236167e+003,3.173548e-003
1.238095e+003,3.244146e-003
1.240024e+003,3.330582e-003
1.241952e+003,3.386847e-003
1.243881e+003,3.338796e-003
1.245809e+003,3.482229e-003
1.247738e+003,3.574258e-003
1.249666e+003,3.545361e-003
1.251595e+003,3.602956e-003
1.253523e+003,3.721144e-003
1.255452e+003,3.723182e-003
1.257380e+003,3.714025e-003
1.259309e+003,3.747245e-003
1.261237e+003,3.849024e-003
1.263166e+003,4.057337e-003
1.265094e+003,4.287767e-003
1.267023e+003,4.567774e-003
1.268951e+003,4.880630e-003
1.270880e+003,5.106470e-003
1.272808e+003,5.263265e-003
1.274737e+003,5.610489e-003
1.276665e+003,5.975157e-003
1.278594e+003,6.205229e-003
1.280522e+003,6.356135e-003
1.282451e+003,6.492697e-003
1.284379e+003,6.684280e-003
1.286308e+003,7.097168e-003
1.288236e+003,7.266106e-003
1.290165e+003,7.383003e-003
1.292093e+003,7.726125e-003
1.294022e+003,7.775304e-003
1.295950e+003,7.864739e-003
1.297879e+003,8.107934e-003
1.299807e+003,8.195985e-003
1.301736e+003,8.045587e-003
1.303664e+003,7.879180e-003
1.305593e+003,7.944372e-003
1.307521e+003,7.923348e-003
1.309450e+003,7.582666e-003
1.311378e+003,7.243263e-003
1.313307e+003,7.070595e-003
1.315235e+003,7.012269e-003
1.317164e+003,6.974556e-003
1.319092e+003,6.720588e-003
1.321021e+003,6.209195e-003
1.322949e+003,5.934544e-003
1.324878e+003,5.883726e-003
1.326806e+003,5.859376e-003
1.328735e+003,5.911099e-003
1.330663e+003,5.917582e-003
1.332592e+003,5.946670e-003
1.334520e+003,6.003106e-003
1.336449e+003,6.040802e-003
1.338377e+003,5.968303e-003
1.340306e+003,5.953556e-003
1.342234e+003,6.165133e-003
1.344163e+003,6.311620e-003
1.346091e+003,6.420257e-003
1.348020e+003,6.528921e-003
1.349948e+003,6.582776e-003
1.351877e+003,6.528417e-003
1.353805e+003,6.424831e-003
1.355734e+003,6.226001e-003
1.357662e+003,6.035292e-003
1.359591e+003,5.930177e-003
1.361519e+003,5.701929e-003
1.363448e+003,5.470311e-003
1.365376e+003,5.300225e-003
1.367305e+003,5.090713e-003
1.369233e+003,4.986262e-003
1.371162e+003,4.872052e-003
1.373090e+003,4.900401e-003
1.375019e+003,4.935387e-003
1.376947e+003,4.937733e-003
1.378876e+003,4.993569e-003
1.380804e+003,5.255585e-003
1.382733e+003,5.320115e-003
1.384661e+003,5.168798e-003
1.386590e+003,5.062452e-003
1.388518e+003,4.973191e-003
1.390447e+003,4.889611e-003
1.392375e+003,4.686224e-003
1.394304e+003,4.488490e-003
1.396232e+003,4.437773e-003
1.398161e+003,4.357309e-003
1.400089e+003,4.191874e-003
1.402018e+003,4.009848e-003
1.403946e+003,3.882120e-003
1.405875e+003,3.714192e-003
1.407803e+003,3.554380e-003
1.409732e+003,3.386513e-003
1.411660e+003,3.287379e-003
1.413589e+003,3.293355e-003
1.415517e+003,3.402442e-003
1.417446e+003,3.573356e-003
1.419374e+003,3.872726e-003
1.421303e+003,4.302558e-003
1.423231e+003,4.675037e-003
1.425160e+003,5.178925e-003
1.427088e+003,5.699512e-003
1.429017e+003,6.119295e-003
1.430945e+003,6.400720e-003
1.432874e+003,6.694475e-003
1.434802e+003,7.147084e-003
1.436731e+003,7.595682e-003
1.438659e+003,8.005388e-003
1.440588e+003,8.354508e-003
1.442516e+003,8.695931e-003
1.444445e+003,9.042697e-003
1.446373e+003,9.503418e-003
1.448302e+003,9.921369e-003
1.450230e+003,1.031587e-002
1.452159e+003,1.083732e-002
1.454087e+003,1.125581e-002
1.456016e+003,1.126404e-002
1.457944e+003,1.135637e-002
1.459873e+003,1.157570e-002
1.461801e+003,1.162232e-002
1.463730e+003,1.149744e-002
1.465658e+003,1.131787e-002
1.467587e+003,1.102077e-002
1.469515e+003,1.074340e-002
1.471444e+003,1.039639e-002
1.473372e+003,9.974765e-003
1.475301e+003,9.634368e-003
1.477229e+003,9.167891e-003
1.479158e+003,8.676358e-003
1.481086e+003,8.098144e-003
1.483015e+003,7.561021e-003
1.484943e+003,7.182353e-003
1.486872e+003,6.757100e-003
1.488800e+003,6.342080e-003
1.490729e+003,6.002300e-003
1.492657e+003,5.595586e-003
1.494586e+003,5.359395e-003
1.496514e+003,5.142612e-003
1.498443e+003,4.874900e-003
1.500371e+003,4.698985e-003
1.502300e+003,4.590142e-003
1.504228e+003,4.495152e-003
1.506157e+003,4.248818e-003
1.508085e+003,4.123162e-003
1.510014e+003,4.149721e-003
1.511942e+003,4.102189e-003
1.513871e+003,4.012857e-003
1.515799e+003,3.898335e-003
1.517728e+003,4.022288e-003
1.519656e+003,4.100684e-003
1.521585e+003,4.064628e-003
1.523513e+003,4.255243e-003
1.525442e+003,4.420735e-003
1.527370e+003,4.509448e-003
1.529299e+003,4.559102e-003
1.531227e+003,4.637829e-003
1.533156e+003,4.946714e-003
1.535084e+003,5.298012e-003
1.537013e+003,5.538028e-003
1.538941e+003,5.693033e-003
1.540870e+003,5.800272e-003
1.542798e+003,5.956949e-003
1.544727e+003,6.158848e-003
1.546655e+003,6.346619e-003
1.548584e+003,6.566696e-003
1.550512e+003,6.762586e-003
1.552441e+003,6.904528e-003
1.554369e+003,7.091106e-003
1.556298e+003,7.332857e-003
1.558226e+003,7.425807e-003
1.560155e+003,7.739043e-003
1.562083e+003,8.202603e-003
1.564012e+003,8.511771e-003
1.565940e+003,8.746438e-003
1.567869e+003,9.011946e-003
1.569797e+003,9.081706e-003
1.571726e+003,9.058733e-003
1.573654e+003,9.102380e-003
1.575583e+003,9.095172e-003
1.577511e+003,8.999565e-003
1.579440e+003,8.893494e-003
1.581368e+003,8.807094e-003
1.583297e+003,8.667638e-003
1.585225e+003,8.481294e-003
1.587154e+003,8.402745e-003
1.589082e+003,8.271052e-003
1.591010e+003,8.024255e-003
1.592939e+003,7.819361e-003
1.594868e+003,7.745250e-003
1.596796e+003,7.607483e-003
1.598724e+003,7.453177e-003
1.600653e+003,7.235884e-003
1.602582e+003,7.011461e-003
1.604510e+003,6.801188e-003
1.606438e+003,6.575274e-003
1.608367e+003,6.313738e-003
1.610296e+003,6.182038e-003
1.612224e+003,5.884397e-003
1.614152e+003,5.629286e-003
1.616081e+003,5.324543e-003
1.618010e+003,5.200352e-003
1.619938e+003,5.107274e-003
1.621866e+003,4.915715e-003
1.623795e+003,4.750838e-003
1.625724e+003,4.829466e-003
1.627652e+003,4.794187e-003
1.629580e+003,4.719283e-003
1.631509e+003,4.596772e-003
1.633438e+003,4.429003e-003
1.635366e+003,4.281543e-003
1.637294e+003,4.056199e-003
1.639223e+003,3.830170e-003
1.641151e+003,3.652907e-003
1.643080e+003,3.312452e-003
1.645008e+003,2.903545e-003
1.646937e+003,2.635110e-003
1.648865e+003,2.531648e-003
1.650794e+003,2.367840e-003
1.652722e+003,2.249254e-003
1.654651e+003,2.173289e-003
1.656579e+003,2.105162e-003
1.658508e+003,1.863208e-003
1.660436e+003,1.772473e-003
1.662365e+003,1.820151e-003
1.664293e+003,1.870596e-003
1.666222e+003,1.899648e-003
1.668150e+003,1.762126e-003
1.670079e+003,1.415903e-003
1.672007e+003,1.300368e-003
1.673936e+003,1.202108e-003
1.675864e+003,9.899134e-004
1.677793e+003,8.112158e-004
1.679721e+003,6.523356e-004
1.681650e+003,4.371585e-004
1.683578e+003,1.886399e-004
1.685507e+003,-1.211212e-004
1.687435e+003,-3.635933e-004
1.689364e+003,-5.434557e-004
1.691292e+003,-7.306533e-004
1.693221e+003,-8.180044e-004
1.695149e+003,-8.077851e-004
1.697078e+003,-6.967466e-004
1.699006e+003,-7.435206e-004
1.700935e+003,-8.135728e-004
1.702863e+003,-8.516039e-004
1.704792e+003,-8.177398e-004
1.706720e+003,-6.627382e-004
1.708649e+003,-6.676014e-004
1.710577e+003,-7.661118e-004
1.712506e+003,-8.309683e-004
1.714434e+003,-8.817289e-004
1.716363e+003,-1.015860e-003
1.718291e+003,-1.033810e-003
1.720220e+003,-9.842240e-004
1.722148e+003,-9.728846e-004
1.724077e+003,-1.030967e-003
1.726005e+003,-1.113829e-003
1.727934e+003,-1.233616e-003
1.729862e+003,-1.180914e-003
1.731791e+003,-1.131180e-003
1.733719e+003,-1.245411e-003
1.735648e+003,-1.345211e-003
1.737576e+003,-1.364270e-003
1.739505e+003,-1.269595e-003
1.741433e+003,-1.088380e-003
1.743362e+003,-1.161450e-003
1.745290e+003,-1.241149e-003
1.747219e+003,-1.149785e-003
1.749147e+003,-1.083985e-003
1.751076e+003,-1.049147e-003
1.753004e+003,-1.028521e-003
1.754933e+003,-9.673305e-004
1.756861e+003,-8.334155e-004
1.758790e+003,-8.566635e-004
1.760718e+003,-9.881249e-004
1.762647e+003,-1.003001e-003
1.764575e+003,-9.242838e-004
1.766504e+003,-9.243499e-004
1.768432e+003,-9.548005e-004
1.770361e+003,-9.718597e-004
1.772289e+003,-1.057444e-003
1.774218e+003,-1.081374e-003
1.776146e+003,-1.053113e-003
1.778075e+003,-1.029546e-003
1.780003e+003,-1.038636e-003
1.781932e+003,-1.176948e-003
1.783860e+003,-1.254794e-003
1.785789e+003,-1.190992e-003
1.787717e+003,-1.146514e-003
1.789646e+003,-1.152825e-003
1.791574e+003,-1.221754e-003
1.793503e+003,-1.281786e-003
1.795431e+003,-1.194395e-003
1.797360e+003,-1.065509e-003
1.799288e+003,-1.013745e-003
1.801217e+003,-1.098031e-003
1.803145e+003,-1.099122e-003
1.805074e+003,-9.930506e-004
1.807002e+003,-9.549657e-004
1.808931e+003,-1.046073e-003
1.810859e+003,-1.025546e-003
1.812788e+003,-8.988571e-004
1.814716e+003,-8.883422e-004
1.816645e+003,-9.136041e-004
1.818573e+003,-9.207129e-004
1.820502e+003,-9.602886e-004
1.822430e+003,-9.813809e-004
1.824359e+003,-9.435595e-004
1.826287e+003,-9.948357e-004
1.828216e+003,-1.095090e-003
1.830144e+003,-1.042635e-003
1.832073e+003,-8.861598e-004
1.834001e+003,-8.573910e-004
1.835930e+003,-1.030901e-003
1.837858e+003,-1.101336e-003
1.839787e+003,-1.091752e-003
1.841715e+003,-1.109863e-003
1.843644e+003,-1.122091e-003
1.845572e+003,-1.064781e-003
1.847501e+003,-1.067260e-003
1.849429e+003,-1.095057e-003
1.851358e+003,-1.096842e-003
1.853286e+003,-1.105335e-003
1.855215e+003,-1.018075e-003
1.857143e+003,-1.010141e-003
1.859072e+003,-1.142647e-003
1.861000e+003,-1.160822e-003
1.862929e+003,-1.103716e-003
1.864857e+003,-1.078432e-003
1.866786e+003,-1.115382e-003
1.868714e+003,-1.155766e-003
1.870643e+003,-1.097073e-003
1.872571e+003,-9.652477e-004
1.874500e+003,-8.579862e-004
1.876428e+003,-8.602680e-004
1.878357e+003,-8.622851e-004
1.880285e+003,-9.350955e-004
1.882214e+003,-9.610821e-004
1.884142e+003,-9.491469e-004
1.886071e+003,-9.235564e-004
1.887999e+003,-8.850686e-004
1.889928e+003,-8.813652e-004
1.891856e+003,-9.226306e-004
1.893785e+003,-8.558368e-004
1.895713e+003,-8.364580e-004
1.897642e+003,-8.654927e-004
1.899570e+003,-8.536542e-004
1.901499e+003,-8.285542e-004
1.903427e+003,-8.342423e-004
1.905356e+003,-9.333762e-004
1.907284e+003,-9.526514e-004
1.909213e+003,-9.175057e-004
1.911141e+003,-8.454531e-004
1.913070e+003,-8.243211e-004
1.914998e+003,-9.328472e-004
1.916927e+003,-1.007695e-003
1.918855e+003,-9.558914e-004
1.920784e+003,-9.115872e-004
1.922712e+003,-9.953647e-004
1.924641e+003,-1.003365e-003
1.926569e+003,-9.519571e-004
1.928498e+003,-9.626028e-004
1.930426e+003,-9.744384e-004
1.932355e+003,-9.716944e-004
1.934283e+003,-9.892819e-004
1.936212e+003,-1.023662e-003
1.938140e+003,-1.101667e-003
1.940069e+003,-1.039363e-003
1.941997e+003,-9.271603e-004
1.943926e+003,-8.251809e-004
1.945854e+003,-8.655920e-004
1.947783e+003,-1.000224e-003
1.949711e+003,-1.003629e-003
1.951640e+003,-9.472624e-004
1.953568e+003,-9.712316e-004
1.955497e+003,-1.033545e-003
1.957425e+003,-9.853811e-004
1.959354e+003,-1.006505e-003
1.961282e+003,-9.739755e-004
1.963211e+003,-9.424023e-004
1.965139e+003,-9.608176e-004
1.967068e+003,-9.665040e-004
1.968996e+003,-9.680247e-004
1.970925e+003,-9.835297e-004
1.972853e+003,-9.630657e-004
1.974782e+003,-9.223330e-004
1.976710e+003,-9.921581e-004
1.978639e+003,-1.043759e-003
1.980567e+003,-1.028157e-003
1.982496e+003,-1.006637e-003
1.984424e+003,-1.016918e-003
1.986353e+003,-1.061179e-003
1.988281e+003,-1.086794e-003
1.990210e+003,-1.039363e-003
1.992138e+003,-9.357567e-004
1.994067e+003,-8.732306e-004
1.995995e+003,-9.345004e-004
1.997924e+003,-9.947366e-004
1.999852e+003,-9.756947e-004
2.001781e+003,-9.812487e-004
2.003709e+003,-9.610159e-004
2.005638e+003,-9.663387e-004
2.007566e+003,-1.013745e-003
2.009495e+003,-1.064319e-003
2.011423e+003,-1.117398e-003
2.013352e+003,-1.017116e-003
2.015280e+003,-9.244822e-004
2.017208e+003,-9.645864e-004
2.019137e+003,-1.030372e-003
2.021066e+003,-1.018141e-003
2.022994e+003,-9.686198e-004
2.024922e+003,-9.415757e-004
2.026851e+003,-8.682705e-004
2.028780e+003,-8.493222e-004
2.030708e+003,-8.270329e-004
2.032636e+003,-8.093726e-004
2.034565e+003,-8.262061e-004
2.036494e+003,-8.940957e-004
2.038422e+003,-8.761405e-004
2.040350e+003,-8.398643e-004
2.042279e+003,-8.371855e-004
2.044208e+003,-8.663525e-004
2.046136e+003,-8.966418e-004
2.048064e+003,-7.838400e-004
2.049993e+003,-7.260223e-004
2.051921e+003,-8.345399e-004
2.053850e+003,-9.086445e-004
2.055778e+003,-8.792819e-004
2.057707e+003,-8.434689e-004
2.059635e+003,-7.159332e-004
2.061564e+003,-6.566508e-004
2.063492e+003,-7.802349e-004
2.065421e+003,-8.514717e-004
2.067349e+003,-7.756706e-004
2.069278e+003,-7.586697e-004
2.071206e+003,-8.015013e-004
2.073135e+003,-7.641604e-004
2.075063e+003,-7.161978e-004
2.076992e+003,-7.186788e-004
2.078920e+003,-6.809337e-004
2.080849e+003,-6.449719e-004
2.082777e+003,-6.271388e-004
2.084706e+003,-6.172459e-004
2.086634e+003,-6.523167e-004
2.088563e+003,-6.509603e-004
2.090491e+003,-5.932572e-004
2.092420e+003,-5.262472e-004
2.094348e+003,-5.609944e-004
2.096277e+003,-5.662890e-004
2.098205e+003,-5.018563e-004
2.100134e+003,-5.313767e-004
2.102062e+003,-5.327336e-004
2.103991e+003,-4.568437e-004
2.105919e+003,-3.921631e-004
2.107848e+003,-4.110651e-004
2.109776e+003,-3.850125e-004
2.111705e+003,-3.429013e-004
2.113633e+003,-3.211820e-004
2.115562e+003,-3.452851e-004
2.117490e+003,-3.232348e-004
2.119419e+003,-2.872434e-004
2.121347e+003,-2.708857e-004
2.123276e+003,-3.256186e-004
2.125204e+003,-3.569719e-004
2.127133e+003,-4.203006e-004
2.129061e+003,-3.909713e-004
2.130990e+003,-3.280025e-004
2.132918e+003,-2.656206e-004
2.134847e+003,-2.962498e-004
2.136775e+003,-3.692213e-004
2.138704e+003,-3.414114e-004
2.140632e+003,-2.422748e-004
2.142561e+003,-3.342270e-004
2.144489e+003,-3.518403e-004
2.146418e+003,-2.164439e-004
2.148346e+003,-9.793317e-005
2.150275e+003,-8.189962e-005
2.152203e+003,-9.008211e-005
2.154132e+003,-7.802365e-005
2.156060e+003,-1.295679e-004
2.157989e+003,-1.783239e-004
2.159917e+003,-2.182653e-004
2.161846e+003,-1.974671e-004
2.163774e+003,-1.325159e-004
2.165703e+003,-9.100967e-005
2.167631e+003,-5.198420e-005
2.169560e+003,5.616583e-005
2.171488e+003,1.006397e-004
2.173417e+003,7.939641e-005
2.175345e+003,6.975276e-005
2.177274e+003,-2.551314e-006
2.179202e+003,-1.040396e-005
2.181131e+003,-4.015660e-005
2.183059e+003,-6.089609e-005
2.184988e+003,-8.163460e-005
2.186916e+003,-9.849633e-005
2.188845e+003,-8.557679e-005
2.190773e+003,-1.828960e-005
2.192702e+003,-3.777264e-006
2.194630e+003,-6.957591e-005
2.196559e+003,-1.246986e-004
2.198487e+003,-1.435461e-004
2.200416e+003,-1.904127e-004
2.202344e+003,-1.981295e-004
2.204273e+003,-1.597761e-004
2.206201e+003,-1.365570e-004
2.208130e+003,-1.984607e-004
2.210058e+003,-1.898497e-004
2.211987e+003,-1.708055e-004
2.213915e+003,-1.741176e-004
2.215844e+003,-2.087605e-004
2.217772e+003,-2.082969e-004
2.219701e+003,-1.607366e-004
2.221629e+003,-1.909426e-004
2.223558e+003,-2.116087e-004
2.225486e+003,-2.130990e-004
2.227415e+003,-1.687851e-004
2.229343e+003,-1.251292e-004
2.231272e+003,-1.303960e-004
2.233200e+003,-2.063098e-004
2.235129e+003,-1.680233e-004
2.237057e+003,-1.376501e-004
2.238986e+003,-1.685533e-004
2.240914e+003,-2.046208e-004
2.242843e+003,-2.535670e-004
2.244771e+003,-2.956207e-004
2.246700e+003,-3.038322e-004
2.248628e+003,-3.275059e-004
2.250557e+003,-2.549910e-004
2.252485e+003,-2.801573e-004
2.254414e+003,-2.979385e-004
2.256342e+003,-2.752897e-004
2.258271e+003,-2.536995e-004
2.260199e+003,-2.705877e-004
2.262128e+003,-3.367101e-004
2.264056e+003,-3.082028e-004
2.265985e+003,-2.709850e-004
2.267913e+003,-3.636926e-004
2.269842e+003,-3.697510e-004
2.271770e+003,-3.732271e-004
2.273699e+003,-4.242067e-004
2.275627e+003,-3.528336e-004
2.277556e+003,-3.915672e-004
2.279484e+003,-4.923908e-004
2.281413e+003,-4.768021e-004
2.283341e+003,-4.554204e-004
2.285270e+003,-5.148627e-004
2.287198e+003,-5.321379e-004
2.289127e+003,-5.401464e-004
2.291055e+003,-4.681304e-004
2.292984e+003,-4.566451e-004
2.294912e+003,-5.080121e-004
2.296841e+003,-5.075487e-004
2.298769e+003,-4.878897e-004
2.300698e+003,-5.174772e-004
2.302626e+003,-5.495778e-004
2.304555e+003,-5.036435e-004
2.306483e+003,-4.637283e-004
2.308412e+003,-4.147395e-004
2.310340e+003,-4.634304e-004
2.312269e+003,-5.492138e-004
2.314197e+003,-5.662228e-004
2.316125e+003,-4.915634e-004
2.318054e+003,-5.082437e-004
2.319983e+003,-6.019925e-004
2.321911e+003,-5.958381e-004
2.323840e+003,-5.577515e-004
2.325768e+003,-4.971236e-004
2.327697e+003,-3.925272e-004
2.329625e+003,-5.145649e-004
2.331553e+003,-6.903951e-004
2.333482e+003,-6.516220e-004
2.335411e+003,-6.108270e-004
2.337339e+003,-6.691894e-004
2.339268e+003,-6.293887e-004
2.341196e+003,-5.817421e-004
2.343125e+003,-6.351787e-004
2.345053e+003,-5.869041e-004
2.346981e+003,-5.121490e-004
2.348910e+003,-5.342228e-004
2.350839e+003,-5.442499e-004
2.352767e+003,-5.246587e-004
2.354696e+003,-5.666199e-004
2.356624e+003,-5.815105e-004
2.358552e+003,-5.713518e-004
2.360481e+003,-5.672486e-004
2.362409e+003,-5.588435e-004
2.364338e+003,-6.060293e-004
2.366267e+003,-5.566594e-004
2.368195e+003,-4.670381e-004
2.370124e+003,-3.716049e-004
2.372052e+003,-3.075738e-004
2.373980e+003,-2.291939e-004
2.375909e+003,-1.481833e-004
2.377838e+003,-7.176240e-005
2.379766e+003,-6.801885e-005
2.381695e+003,-5.699017e-006
2.383623e+003,1.556916e-004
2.385552e+003,3.315332e-004
2.387480e+003,3.190986e-004
2.389408e+003,2.928048e-004
2.391337e+003,2.517591e-004
2.393266e+003,2.277900e-004
2.395194e+003,2.598154e-004
2.397123e+003,2.924401e-004
2.399051e+003,2.162534e-004
2.400979e+003,1.898333e-004
2.402908e+003,2.704911e-004
2.404836e+003,2.756301e-004
2.406765e+003,2.479797e-004
2.408694e+003,1.683536e-004
2.410622e+003,1.321255e-004
2.412551e+003,2.563343e-004
2.414479e+003,3.211213e-004
2.416407e+003,3.160812e-004
2.418336e+003,3.008619e-004
2.420264e+003,3.173081e-004
2.422193e+003,3.547453e-004
2.424122e+003,2.971151e-004
2.426050e+003,2.876987e-004
2.427979e+003,3.977906e-004
2.429907e+003,4.833300e-004
2.431835e+003,5.203504e-004
2.433764e+003,5.068157e-004
2.435692e+003,5.235351e-004
2.437621e+003,5.361745e-004
2.439550e+003,6.211440e-004
2.441478e+003,6.688283e-004
2.443406e+003,6.009037e-004
2.445335e+003,5.547861e-004
2.447263e+003,4.896989e-004
2.449192e+003,5.331888e-004
2.451121e+003,7.466876e-004
2.453049e+003,7.329467e-004
2.454978e+003,6.239312e-004
2.456906e+003,6.858858e-004
2.458834e+003,7.112077e-004
2.460763e+003,7.715815e-004
2.462691e+003,8.910926e-004
2.464620e+003,9.068639e-004
2.466549e+003,8.669554e-004
2.468477e+003,8.504552e-004
2.470406e+003,8.636686e-004
2.472334e+003,7.896721e-004
2.474262e+003,8.032488e-004
2.476191e+003,9.181200e-004
2.478119e+003,9.031452e-004
2.480048e+003,8.967039e-004
2.481977e+003,9.475399e-004
2.483905e+003,9.456139e-004
2.485833e+003,9.051706e-004
2.487762e+003,9.556091e-004
2.489690e+003,1.016548e-003
2.491619e+003,1.031394e-003
2.493547e+003,1.150877e-003
2.495476e+003,1.153834e-003
2.497405e+003,1.113271e-003
2.499333e+003,1.172837e-003
2.501261e+003,1.362519e-003
2.503190e+003,1.357367e-003
2.505118e+003,1.153003e-003
2.507047e+003,1.074806e-003
2.508975e+003,1.152738e-003
2.510904e+003,1.250089e-003
2.512833e+003,1.343607e-003
2.514761e+003,1.400014e-003
2.516689e+003,1.353180e-003
2.518618e+003,1.288770e-003
2.520546e+003,1.282456e-003
2.522475e+003,1.269363e-003
2.524403e+003,1.252681e-003
2.526332e+003,1.345901e-003
2.528260e+003,1.418430e-003
2.530189e+003,1.404069e-003
2.532117e+003,1.446554e-003
2.534046e+003,1.439905e-003
2.535974e+003,1.466700e-003
2.537903e+003,1.453169e-003
2.539831e+003,1.441766e-003
2.541760e+003,1.479999e-003
2.543688e+003,1.473948e-003
2.545617e+003,1.419892e-003
2.547545e+003,1.480132e-003
2.549474e+003,1.547828e-003
2.551402e+003,1.543472e-003
2.553331e+003,1.473084e-003
2.555259e+003,1.386684e-003
2.557188e+003,1.351617e-003
2.559116e+003,1.387283e-003
2.561045e+003,1.488344e-003
2.562973e+003,1.549857e-003
2.564902e+003,1.500446e-003
2.566830e+003,1.460450e-003
2.568759e+003,1.484521e-003
2.570687e+003,1.490106e-003
2.572616e+003,1.514810e-003
2.574544e+003,1.605957e-003
2.576473e+003,1.620025e-003
2.578401e+003,1.539748e-003
2.580330e+003,1.515708e-003
2.582258e+003,1.639016e-003
2.584187e+003,1.653617e-003
2.586115e+003,1.680060e-003
2.588044e+003,1.737874e-003
2.589972e+003,1.738938e-003
2.591901e+003,1.724334e-003
2.593829e+003,1.797991e-003
2.595758e+003,1.811400e-003
2.597686e+003,1.797825e-003
2.599615e+003,1.809270e-003
2.601543e+003,1.781023e-003
2.603472e+003,1.715386e-003
2.605400e+003,1.709298e-003
2.607329e+003,1.749517e-003
2.609257e+003,1.826606e-003
2.611186e+003,1.798224e-003
2.613114e+003,1.784250e-003
2.615043e+003,1.757335e-003
2.616971e+003,1.816391e-003
2.618900e+003,1.897385e-003
2.620828e+003,1.930266e-003
2.622757e+003,2.054390e-003
2.624685e+003,2.140457e-003
2.626614e+003,2.099303e-003
2.628542e+003,1.993006e-003
2.630471e+003,1.899514e-003
2.632399e+003,1.933694e-003
2.634328e+003,1.966045e-003
2.636256e+003,1.939518e-003
2.638185e+003,2.020169e-003
2.640113e+003,2.139624e-003
2.642042e+003,2.205992e-003
2.643970e+003,2.215150e-003
2.645899e+003,2.344587e-003
2.647827e+003,2.458334e-003
2.649756e+003,2.425046e-003
2.651684e+003,2.334393e-003
2.653613e+003,2.390162e-003
2.655541e+003,2.540680e-003
2.657470e+003,2.588142e-003
2.659398e+003,2.608509e-003
2.661327e+003,2.630876e-003
2.663255e+003,2.579210e-003
2.665184e+003,2.572943e-003
2.667112e+003,2.742164e-003
2.669041e+003,2.856349e-003
2.670969e+003,2.735162e-003
2.672898e+003,2.728560e-003
2.674826e+003,2.773008e-003
2.676755e+003,2.834203e-003
2.678683e+003,2.878695e-003
2.680612e+003,2.863853e-003
2.682540e+003,2.841840e-003
2.684469e+003,2.882665e-003
2.686397e+003,2.974767e-003
2.688326e+003,2.997153e-003
2.690254e+003,3.014102e-003
2.692183e+003,3.081838e-003
2.694111e+003,3.180825e-003
2.696040e+003,3.248486e-003
2.697968e+003,3.297662e-003
2.699897e+003,3.328779e-003
2.701825e+003,3.357628e-003
2.703754e+003,3.387581e-003
2.705682e+003,3.456912e-003
2.707611e+003,3.533135e-003
2.709539e+003,3.626277e-003
2.711468e+003,3.638339e-003
2.713396e+003,3.706606e-003
2.715325e+003,3.728529e-003
2.717253e+003,3.723382e-003
2.719182e+003,3.764658e-003
2.721110e+003,3.875133e-003
2.723039e+003,3.934744e-003
2.724967e+003,4.018475e-003
2.726896e+003,4.187759e-003
2.728824e+003,4.268828e-003
2.730753e+003,4.275988e-003
2.732681e+003,4.372235e-003
2.734610e+003,4.465725e-003
2.736538e+003,4.516880e-003
2.738467e+003,4.562952e-003
2.740395e+003,4.630427e-003
2.742324e+003,4.602666e-003
2.744252e+003,4.670214e-003
2.746181e+003,4.815495e-003
2.748109e+003,5.013076e-003
2.750038e+003,5.091115e-003
2.751966e+003,5.072040e-003
2.753895e+003,5.149284e-003
2.755823e+003,5.244685e-003
2.757752e+003,5.297408e-003
2.759680e+003,5.467224e-003
2.761609e+003,5.691187e-003
2.763537e+003,5.920974e-003
2.765466e+003,6.135929e-003
2.767394e+003,6.426478e-003
2.769323e+003,6.786615e-003
2.771251e+003,7.187709e-003
2.773180e+003,7.637495e-003
2.775108e+003,8.007413e-003
2.777037e+003,8.343531e-003
2.778965e+003,8.880744e-003
2.780894e+003,9.536643e-003
2.782822e+003,1.012400e-002
2.784750e+003,1.070910e-002
2.786679e+003,1.148683e-002
2.788608e+003,1.218471e-002
2.790536e+003,1.285824e-002
2.792465e+003,1.360182e-002
2.794393e+003,1.430899e-002
2.796322e+003,1.499654e-002
2.798250e+003,1.578979e-002
2.800178e+003,1.653025e-002
2.802107e+003,1.710902e-002
2.804036e+003,1.768766e-002
2.805964e+003,1.819417e-002
2.807893e+003,1.838504e-002
2.809821e+003,1.847441e-002
2.811750e+003,1.868332e-002
2.813678e+003,1.874223e-002
2.815606e+003,1.864077e-002
2.817535e+003,1.844837e-002
2.819464e+003,1.822261e-002
2.821392e+003,1.790818e-002
2.823321e+003,1.749351e-002
2.825249e+003,1.704957e-002
2.827177e+003,1.671977e-002
2.829106e+003,1.626839e-002
2.831034e+003,1.559545e-002
2.832963e+003,1.502840e-002
2.834892e+003,1.451680e-002
2.836820e+003,1.389573e-002
2.838749e+003,1.321785e-002
2.840677e+003,1.262465e-002
2.842605e+003,1.195413e-002
2.844534e+003,1.115357e-002
2.846462e+003,1.038194e-002
2.848391e+003,9.683323e-003
2.850320e+003,9.323079e-003
2.852248e+003,9.168873e-003
2.854177e+003,9.010830e-003
2.856105e+003,8.894712e-003
2.858033e+003,8.826706e-003
2.859962e+003,8.839555e-003
2.861890e+003,8.770172e-003
2.863819e+003,8.718648e-003
2.865748e+003,8.777102e-003
2.867676e+003,8.796882e-003
2.869604e+003,8.795598e-003
2.871533e+003,8.872154e-003
2.873461e+003,9.015701e-003
2.875390e+003,9.226473e-003
2.877319e+003,9.345558e-003
2.879247e+003,9.532274e-003
2.881176e+003,9.669737e-003
2.883104e+003,9.640940e-003
2.885032e+003,9.510903e-003
2.886961e+003,9.523129e-003
2.888889e+003,9.551478e-003
2.890818e+003,9.355952e-003
2.892747e+003,9.110602e-003
2.894675e+003,9.024429e-003
2.896604e+003,9.058429e-003
2.898532e+003,9.030011e-003
2.900460e+003,8.819841e-003
2.902389e+003,8.738561e-003
2.904317e+003,8.714321e-003
2.906246e+003,8.570367e-003
2.908175e+003,8.480922e-003
2.910103e+003,8.418149e-003
2.912031e+003,8.246703e-003
2.913960e+003,7.980413e-003
2.915888e+003,7.803472e-003
2.917817e+003,7.885657e-003
2.919745e+003,8.012644e-003
2.921674e+003,8.155704e-003
2.923603e+003,8.257307e-003
2.925531e+003,8.520523e-003
2.927459e+003,8.977848e-003
2.929388e+003,9.291327e-003
2.931316e+003,9.534136e-003
2.933245e+003,9.759665e-003
2.935173e+003,1.006781e-002
2.937102e+003,1.033121e-002
2.939031e+003,1.047948e-002
2.940959e+003,1.061996e-002
2.942887e+003,1.050012e-002
2.944816e+003,1.028591e-002
2.946744e+003,1.008134e-002
2.948673e+003,9.869167e-003
2.950601e+003,9.501962e-003
2.952530e+003,8.996114e-003
2.954458e+003,8.497817e-003
2.956387e+003,8.066109e-003
2.958315e+003,7.473368e-003
2.960244e+003,6.900488e-003
2.962172e+003,6.375535e-003
2.964101e+003,5.872239e-003
2.966029e+003,5.384891e-003
2.967958e+003,4.821827e-003
2.969886e+003,4.321298e-003
2.971815e+003,3.898602e-003
2.973743e+003,3.545261e-003
2.975672e+003,3.285175e-003
2.977600e+003,3.102528e-003
2.979529e+003,2.909716e-003
2.981457e+003,2.554378e-003
2.983386e+003,2.235266e-003
2.985314e+003,1.968608e-003
2.987243e+003,1.814261e-003
2.989171e+003,1.743429e-003
2.991100e+003,1.636588e-003
2.993028e+003,1.407958e-003
2.994957e+003,1.309607e-003
2.996885e+003,1.290831e-003
2.998814e+003,1.171143e-003
3.000742e+003,1.032357e-003
3.002671e+003,1.015984e-003
3.004599e+003,9.576348e-004
3.006528e+003,8.526131e-004
3.008456e+003,7.861535e-004
3.010385e+003,6.759964e-004
3.012313e+003,7.689261e-004
3.014242e+003,7.753987e-004
3.016170e+003,7.203015e-004
3.018099e+003,7.633498e-004
3.020027e+003,7.646111e-004
3.021956e+003,6.527338e-004
3.023884e+003,5.457954e-004
3.025813e+003,4.317191e-004
3.027741e+003,2.916112e-004
3.029670e+003,3.386293e-004
3.031598e+003,4.717867e-004
3.033527e+003,4.804110e-004
3.035455e+003,4.948405e-004
3.037384e+003,4.863154e-004
3.039312e+003,3.343186e-004
3.041241e+003,1.189012e-004
3.043169e+003,1.176274e-005
3.045098e+003,5.722626e-005
3.047026e+003,1.419363e-004
3.048955e+003,1.033574e-004
3.050883e+003,2.561337e-005
3.052812e+003,-3.856631e-005
3.054740e+003,-7.153050e-005
3.056669e+003,-8.809448e-005
3.058597e+003,-8.882328e-005
3.060526e+003,-8.716691e-005
3.062454e+003,-9.690625e-005
3.064383e+003,-1.881606e-004
3.066311e+003,-2.117080e-004
3.068240e+003,-2.524080e-004
3.070168e+003,-3.230030e-004
3.072097e+003,-3.506816e-004
3.074025e+003,-3.847477e-004
3.075954e+003,-4.347329e-004
3.077882e+003,-4.217240e-004
3.079811e+003,-4.777950e-004
3.081739e+003,-5.386572e-004
3.083668e+003,-6.105292e-004
3.085596e+003,-6.177753e-004
3.087525e+003,-6.008676e-004
3.089453e+003,-5.990477e-004
3.091382e+003,-6.302820e-004
3.093310e+003,-6.446080e-004
3.095239e+003,-6.639953e-004
3.097167e+003,-6.916852e-004
3.099096e+003,-7.325388e-004
3.101024e+003,-8.576886e-004
3.102953e+003,-9.401871e-004
3.104881e+003,-1.009943e-003
3.106810e+003,-9.669999e-004
3.108738e+003,-8.396989e-004
3.110667e+003,-9.357567e-004
3.112595e+003,-9.870009e-004
3.114524e+003,-8.999152e-004
3.116452e+003,-1.001447e-003
3.118381e+003,-1.090496e-003
3.120309e+003,-1.185606e-003
3.122238e+003,-1.228098e-003
3.124166e+003,-1.197502e-003
3.126095e+003,-1.231402e-003
3.128023e+003,-1.215245e-003
3.129952e+003,-1.093603e-003
3.131880e+003,-1.141623e-003
3.133809e+003,-1.160162e-003
3.135737e+003,-1.210487e-003
3.137666e+003,-1.194296e-003
3.139594e+003,-1.135277e-003
3.141523e+003,-1.123975e-003
3.143451e+003,-1.167134e-003
3.145380e+003,-1.219540e-003
3.147308e+003,-1.132369e-003
3.149237e+003,-1.239728e-003
3.151165e+003,-1.326019e-003
3.153094e+003,-1.407834e-003
3.155022e+003,-1.401361e-003
3.156951e+003,-1.298832e-003
3.158879e+003,-1.191256e-003
3.160808e+003,-1.111978e-003
3.162736e+003,-1.174305e-003
3.164665e+003,-1.241479e-003
3.166593e+003,-1.257536e-003
3.168522e+003,-1.254992e-003
3.170450e+003,-1.239365e-003
3.172379e+003,-1.199616e-003
3.174307e+003,-1.130419e-003
3.176236e+003,-1.068715e-003
3.178164e+003,-1.077936e-003
3.180093e+003,-1.123909e-003
3.182021e+003,-1.097899e-003
3.183950e+003,-1.128701e-003
3.185878e+003,-1.166605e-003
3.187807e+003,-1.142350e-003
3.189735e+003,-1.200574e-003
3.191664e+003,-1.323641e-003
3.193592e+003,-1.358225e-003
3.195521e+003,-1.339926e-003
3.197449e+003,-1.283041e-003
3.199378e+003,-1.261236e-003
3.201306e+003,-1.151636e-003
3.203235e+003,-1.076251e-003
3.205163e+003,-1.051362e-003
3.207092e+003,-1.164458e-003
3.209020e+003,-1.070268e-003
3.210948e+003,-8.985596e-004
3.212877e+003,-8.708498e-004
3.214806e+003,-9.660742e-004
3.216734e+003,-1.046668e-003
3.218663e+003,-9.686529e-004
3.220591e+003,-9.065613e-004
3.222520e+003,-7.914470e-004
3.224448e+003,-6.734570e-004
3.226376e+003,-5.735027e-004
3.228305e+003,-4.949061e-004
3.230234e+003,-4.858707e-004
3.232162e+003,-5.697304e-004
3.234091e+003,-5.730395e-004
3.236019e+003,-5.532841e-004
3.237948e+003,-6.103307e-004
3.239876e+003,-4.507865e-004
3.241804e+003,-2.760513e-004
3.243733e+003,-3.412459e-004
3.245662e+003,-3.219435e-004
3.247590e+003,-2.596601e-004
3.249519e+003,-2.940313e-004
3.251447e+003,-3.699165e-004
3.253375e+003,-3.964997e-004
3.255304e+003,-3.142951e-004
3.257232e+003,-1.852153e-005
3.259161e+003,5.749136e-005
3.261090e+003,-1.590405e-005
3.263018e+003,-1.123229e-005
3.264947e+003,-1.335428e-004
3.266875e+003,-5.715246e-005
3.268803e+003,1.130681e-004
3.270732e+003,2.040211e-004
3.272660e+003,2.853115e-004
3.274589e+003,3.166117e-004
3.276518e+003,3.656886e-004
3.278446e+003,3.300410e-004
3.280375e+003,1.531062e-004
3.282303e+003,2.816975e-004
3.284231e+003,3.630357e-004
3.286160e+003,2.976788e-004
3.288088e+003,1.841649e-004
3.290017e+003,9.676217e-005
3.291946e+003,1.547387e-005
3.293874e+003,3.525605e-005
3.295802e+003,1.223812e-004
3.297731e+003,7.319926e-005
3.299659e+003,-7.169614e-005
3.301588e+003,-1.607697e-004
3.303516e+003,-2.942300e-004
3.305445e+003,-3.298235e-004
3.307374e+003,-3.230030e-004
3.309302e+003,-4.448616e-004
3.311230e+003,-6.237309e-004
3.313159e+003,-7.319102e-004
3.315087e+003,-8.379462e-004
3.317016e+003,-9.597596e-004
3.318944e+003,-1.077275e-003
3.320873e+003,-9.939763e-004
3.322802e+003,-1.041280e-003
3.324730e+003,-1.304349e-003
3.326658e+003,-1.399842e-003
3.328587e+003,-1.325656e-003
3.330515e+003,-1.302334e-003
3.332444e+003,-1.379034e-003
3.334372e+003,-1.482600e-003
3.336301e+003,-1.585152e-003
3.338229e+003,-1.608822e-003
3.340158e+003,-1.525823e-003
3.342086e+003,-1.670714e-003
3.344015e+003,-1.706921e-003
3.345943e+003,-1.701211e-003
3.347872e+003,-1.883787e-003
3.349800e+003,-1.864652e-003
3.351729e+003,-1.749989e-003
3.353657e+003,-1.757447e-003
3.355586e+003,-1.882962e-003
3.357514e+003,-2.190590e-003
3.359443e+003,-2.219007e-003
3.361371e+003,-2.097579e-003
3.363300e+003,-2.166523e-003
3.365229e+003,-2.414611e-003
3.367157e+003,-2.487228e-003
3.369085e+003,-2.502745e-003
3.371014e+003,-2.626200e-003
3.372942e+003,-2.615035e-003
3.374871e+003,-2.648364e-003
3.376799e+003,-2.701415e-003
3.378728e+003,-2.754624e-003
3.380656e+003,-2.929715e-003
3.382585e+003,-3.144770e-003
3.384513e+003,-3.257716e-003
3.386442e+003,-3.243345e-003
3.388370e+003,-3.068282e-003
3.390299e+003,-3.085324e-003
3.392227e+003,-3.301387e-003
3.394156e+003,-3.293989e-003
3.396084e+003,-3.196773e-003
3.398013e+003,-3.181545e-003
3.399941e+003,-3.275902e-003
3.401870e+003,-3.411499e-003
3.403798e+003,-3.358436e-003
3.405727e+003,-3.415246e-003
3.407655e+003,-3.458705e-003
3.409584e+003,-3.437634e-003
3.411512e+003,-3.491509e-003
3.413441e+003,-3.545081e-003
3.415369e+003,-3.570847e-003
3.417298e+003,-3.573048e-003
3.419226e+003,-3.657826e-003
3.421155e+003,-3.759011e-003
3.423083e+003,-3.785650e-003
3.425012e+003,-3.744426e-003
3.426940e+003,-3.758025e-003
3.428869e+003,-3.825754e-003
3.430797e+003,-3.788869e-003
3.432726e+003,-3.835607e-003
3.434654e+003,-3.911861e-003
3.436583e+003,-3.905917e-003
3.438511e+003,-3.869171e-003
3.440440e+003,-3.838759e-003
3.442368e+003,-3.871174e-003
3.444297e+003,-3.985704e-003
3.446225e+003,-4.039315e-003
3.448154e+003,-4.103684e-003
3.450082e+003,-3.995915e-003
3.452011e+003,-3.961671e-003
3.453939e+003,-4.099253e-003
3.455868e+003,-4.258972e-003
3.457796e+003,-4.186126e-003
3.459725e+003,-4.076441e-003
3.461653e+003,-4.223470e-003
3.463582e+003,-4.316092e-003
3.465510e+003,-4.231345e-003
3.467439e+003,-4.225767e-003
3.469367e+003,-4.301165e-003
3.471296e+003,-4.179301e-003
3.473224e+003,-4.043418e-003
3.475153e+003,-4.237448e-003
3.477081e+003,-4.325507e-003
3.479010e+003,-4.195709e-003
3.480938e+003,-4.141297e-003
3.482867e+003,-4.192886e-003
3.484795e+003,-4.081397e-003
3.486724e+003,-4.078017e-003
3.488652e+003,-4.181926e-003
3.490581e+003,-4.279019e-003
3.492509e+003,-4.400658e-003
3.494438e+003,-4.184650e-003
3.496366e+003,-3.861650e-003
3.498295e+003,-4.016729e-003
3.500223e+003,-4.220319e-003
3.502152e+003,-4.337940e-003
3.504080e+003,-4.408039e-003
3.506009e+003,-4.231903e-003
3.507937e+003,-4.076540e-003
3.509866e+003,-4.178448e-003
3.511794e+003,-4.308186e-003
3.513723e+003,-4.385078e-003
3.515651e+003,-4.407219e-003
3.517580e+003,-4.320357e-003
3.519508e+003,-4.424602e-003
3.521437e+003,-4.493145e-003
3.523365e+003,-4.589054e-003
3.525294e+003,-4.552135e-003
3.527222e+003,-4.493112e-003
3.529151e+003,-4.464089e-003
3.531079e+003,-4.433293e-003
3.533008e+003,-4.391901e-003
3.534936e+003,-4.424504e-003
3.536865e+003,-4.412761e-003
3.538793e+003,-4.320094e-003
3.540722e+003,-4.199056e-003
3.542650e+003,-4.233248e-003
3.544579e+003,-4.335677e-003
3.546507e+003,-4.511410e-003
3.548436e+003,-4.688580e-003
3.550364e+003,-4.673535e-003
3.552293e+003,-4.533577e-003
3.554221e+003,-4.533183e-003
3.556150e+003,-4.503605e-003
3.558078e+003,-4.468549e-003
3.560007e+003,-4.592955e-003
3.561935e+003,-4.573808e-003
3.563864e+003,-4.565644e-003
3.565792e+003,-4.640786e-003
3.567721e+003,-4.552758e-003
3.569649e+003,-4.575939e-003
3.571578e+003,-4.673829e-003
3.573506e+003,-4.686220e-003
3.575435e+003,-4.492587e-003
3.577363e+003,-4.415878e-003
3.579292e+003,-4.537839e-003
3.581220e+003,-4.747642e-003
3.583149e+003,-4.843954e-003
3.585077e+003,-4.812562e-003
3.587006e+003,-4.913643e-003
3.588934e+003,-4.859354e-003
3.590863e+003,-4.802371e-003
3.592791e+003,-4.941161e-003
3.594720e+003,-4.955280e-003
3.596648e+003,-4.922390e-003
3.598577e+003,-4.737285e-003
3.600505e+003,-4.553775e-003
3.602434e+003,-4.723324e-003
3.604362e+003,-4.833304e-003
3.606291e+003,-4.932414e-003
3.608219e+003,-4.938213e-003
3.610148e+003,-4.823671e-003
3.612076e+003,-4.886286e-003
3.614005e+003,-4.886646e-003
3.615933e+003,-4.931333e-003
3.617862e+003,-4.792179e-003
3.619790e+003,-4.699790e-003
3.621719e+003,-4.943585e-003
3.623647e+003,-5.129911e-003
3.625576e+003,-4.993376e-003
3.627504e+003,-4.785134e-003
3.629433e+003,-4.789886e-003
3.631361e+003,-4.843397e-003
3.633290e+003,-4.873901e-003
3.635218e+003,-4.930875e-003
3.637146e+003,-5.011391e-003
3.639075e+003,-5.059438e-003
3.641004e+003,-4.848213e-003
3.642932e+003,-4.822950e-003
3.644861e+003,-5.044308e-003
3.646789e+003,-5.068510e-003
3.648718e+003,-5.222046e-003
3.650646e+003,-5.345189e-003
3.652574e+003,-5.158955e-003
3.654503e+003,-5.189667e-003
3.656432e+003,-5.185345e-003
3.658360e+003,-5.185771e-003
3.660289e+003,-5.251869e-003
3.662217e+003,-5.323522e-003
3.664146e+003,-5.371731e-003
3.666074e+003,-5.435020e-003
3.668002e+003,-5.503698e-003
3.669931e+003,-5.535792e-003
3.671860e+003,-5.563304e-003
3.673788e+003,-5.582604e-003
3.675717e+003,-5.372909e-003
3.677645e+003,-5.045716e-003
3.679573e+003,-5.186393e-003
3.681502e+003,-5.188324e-003
3.683430e+003,-5.224993e-003
3.685359e+003,-5.313735e-003
3.687288e+003,-5.354811e-003
3.689216e+003,-5.118451e-003
3.691145e+003,-5.052888e-003
3.693073e+003,-5.105549e-003
3.695001e+003,-5.247908e-003
3.696930e+003,-5.239495e-003
3.698858e+003,-5.158857e-003
3.700787e+003,-5.067462e-003
3.702716e+003,-5.067102e-003
3.704644e+003,-5.104108e-003
3.706573e+003,-5.110395e-003
3.708501e+003,-5.253146e-003
3.710429e+003,-5.179681e-003
3.712358e+003,-4.996816e-003
3.714286e+003,-4.935690e-003
3.716215e+003,-5.150147e-003
3.718144e+003,-5.167566e-003
3.720072e+003,-5.077975e-003
3.722000e+003,-5.118188e-003
3.723929e+003,-5.096707e-003
3.725857e+003,-4.896115e-003
3.727786e+003,-4.822655e-003
3.729714e+003,-5.014110e-003
3.731643e+003,-5.182595e-003
3.733572e+003,-5.235272e-003
3.735500e+003,-5.271249e-003
3.737428e+003,-5.224043e-003
3.739357e+003,-5.103354e-003
3.741285e+003,-5.060421e-003
3.743214e+003,-5.163244e-003
3.745142e+003,-4.886384e-003
3.747071e+003,-4.896180e-003
3.749000e+003,-4.882748e-003
3.750928e+003,-4.677566e-003
3.752856e+003,-4.769338e-003
3.754785e+003,-4.876522e-003
3.756713e+003,-4.709132e-003
3.758642e+003,-4.609053e-003
3.760570e+003,-4.676550e-003
3.762499e+003,-4.717621e-003
3.764427e+003,-4.749937e-003
3.766356e+003,-4.693366e-003
3.768284e+003,-4.663242e-003
3.770213e+003,-4.682647e-003
3.772141e+003,-4.805976e-003
3.774070e+003,-4.790180e-003
3.775998e+003,-4.592660e-003
3.777927e+003,-4.688547e-003
3.779855e+003,-4.931038e-003
3.781784e+003,-4.756557e-003
3.783712e+003,-4.580267e-003
3.785641e+003,-4.596660e-003
3.787569e+003,-4.729059e-003
3.789498e+003,-4.768322e-003
3.791426e+003,-4.897360e-003
3.793355e+003,-4.936247e-003
3.795283e+003,-4.759768e-003
3.797212e+003,-4.660455e-003
3.799140e+003,-4.871804e-003
3.801069e+003,-4.904469e-003
3.802997e+003,-4.601316e-003
3.804926e+003,-4.874655e-003
3.806854e+003,-5.167664e-003
3.808783e+003,-5.097263e-003
3.810711e+003,-5.014044e-003
3.812640e+003,-4.948270e-003
3.814568e+003,-4.922423e-003
3.816497e+003,-4.574168e-003
3.818425e+003,-4.430702e-003
3.820354e+003,-4.444379e-003
3.822282e+003,-4.641868e-003
3.824211e+003,-4.708476e-003
3.826139e+003,-4.887433e-003
3.828068e+003,-4.915412e-003
3.829996e+003,-4.751083e-003
3.831925e+003,-4.793916e-003
3.833853e+003,-4.833763e-003
3.835782e+003,-4.773074e-003
3.837710e+003,-4.694283e-003
3.839639e+003,-4.828914e-003
3.841567e+003,-4.888841e-003
3.843496e+003,-4.940997e-003
3.845424e+003,-4.917377e-003
3.847353e+003,-4.949449e-003
3.849281e+003,-4.876654e-003
3.851210e+003,-4.690907e-003
3.853138e+003,-4.685564e-003
3.855067e+003,-4.878554e-003
3.856995e+003,-4.922324e-003
3.858924e+003,-4.862696e-003
3.860852e+003,-4.764291e-003
3.862781e+003,-4.605873e-003
3.864709e+003,-4.471796e-003
3.866638e+003,-4.558955e-003
3.868566e+003,-4.741710e-003
3.870495e+003,-4.660422e-003
3.872423e+003,-4.763504e-003
3.874352e+003,-4.901127e-003
3.876280e+003,-4.941882e-003
3.878209e+003,-5.049515e-003
3.880137e+003,-5.058456e-003
3.882066e+003,-4.967793e-003
3.883994e+003,-5.072735e-003
3.885923e+003,-5.015289e-003
3.887851e+003,-5.007133e-003
3.889780e+003,-4.840939e-003
3.891708e+003,-4.912693e-003
3.893637e+003,-5.374644e-003
3.895565e+003,-5.430275e-003
3.897494e+003,-4.969530e-003
3.899422e+003,-4.603709e-003
3.901351e+003,-4.693234e-003
3.903279e+003,-4.764389e-003
3.905208e+003,-4.690645e-003
3.907136e+003,-4.829602e-003
3.909065e+003,-4.888121e-003
3.910993e+003,-4.928319e-003
3.912922e+003,-4.960980e-003
3.914850e+003,-4.826227e-003
3.916779e+003,-4.914429e-003
3.918707e+003,-5.026982e-003
3.920636e+003,-4.992262e-003
3.922564e+003,-5.105581e-003
3.924493e+003,-5.201257e-003
3.926421e+003,-5.164947e-003
3.928350e+003,-5.128732e-003
3.930278e+003,-5.040541e-003
3.932207e+003,-4.967728e-003
3.934135e+003,-4.610495e-003
3.936064e+003,-4.373762e-003
3.937992e+003,-4.500949e-003
3.939921e+003,-4.771599e-003
3.941849e+003,-4.784446e-003
3.943778e+003,-4.807811e-003
3.945706e+003,-5.021971e-003
3.947635e+003,-4.871346e-003
3.949563e+003,-4.558693e-003
3.951492e+003,-4.527478e-003
3.953420e+003,-4.640557e-003
3.955349e+003,-4.815905e-003
3.957277e+003,-4.905583e-003
3.959206e+003,-4.940539e-003
3.961134e+003,-5.004414e-003
3.963063e+003,-4.792704e-003
3.964991e+003,-4.906468e-003
3.966920e+003,-5.151588e-003
3.968848e+003,-5.128372e-003
3.970777e+003,-4.965893e-003
3.972705e+003,-5.065825e-003
3.974634e+003,-5.148510e-003
3.976562e+003,-4.990559e-003
3.978491e+003,-4.919834e-003
3.980419e+003,-4.689465e-003
3.982348e+003,-4.689399e-003
3.984276e+003,-4.805255e-003
3.986205e+003,-4.965632e-003
3.988133e+003,-4.899457e-003
3.990062e+003,-4.686023e-003
3.991990e+003,-4.750493e-003
3.993919e+003,-4.845789e-003
3.995847e+003,-4.924224e-003
3.997776e+003,-4.914658e-003
3.999704e+003,-4.776417e-003
4.001633e+003,0.000000e+000
