3.991989e+002,4.877338e-002
4.011274e+002,5.468635e-002
4.030559e+002,4.013199e-002
4.049844e+002,3.081030e-002
4.069129e+002,2.616425e-002
4.088414e+002,3.087462e-002
4.107699e+002,3.566318e-002
4.126984e+002,3.194965e-002
4.146269e+002,2.633423e-002
4.165554e+002,2.583224e-002
4.184839e+002,2.686827e-002
4.204124e+002,2.264364e-002
4.223409e+002,1.999760e-002
4.242694e+002,2.075747e-002
4.261979e+002,1.913745e-002
4.281264e+002,1.467875e-002
4.300549e+002,1.541871e-002
4.319834e+002,1.100789e-002
4.339119e+002,7.551546e-003
4.358404e+002,1.364322e-002
4.377689e+002,1.913323e-002
4.396974e+002,1.337719e-002
4.416259e+002,9.080218e-003
4.435544e+002,1.307236e-002
4.454829e+002,1.669845e-002
4.474114e+002,1.578034e-002
4.493399e+002,1.252472e-002
4.512684e+002,8.962221e-003
4.531969e+002,9.764374e-003
4.551254e+002,1.229284e-002
4.570539e+002,1.064848e-002
4.589824e+002,7.033922e-003
4.609109e+002,8.200813e-003
4.628394e+002,8.515252e-003
4.647679e+002,9.153915e-003
4.666964e+002,1.088859e-002
4.686249e+002,1.070954e-002
4.705533e+002,1.122636e-002
4.724819e+002,1.293095e-002
4.744103e+002,1.244776e-002
4.763389e+002,9.646293e-003
4.782673e+002,8.311849e-003
4.801959e+002,8.098043e-003
4.821243e+002,8.272132e-003
4.840529e+002,9.917878e-003
4.859813e+002,1.129529e-002
4.879099e+002,1.047371e-002
4.898383e+002,9.404842e-003
4.917668e+002,9.001899e-003
4.936953e+002,1.017888e-002
4.956238e+002,9.953270e-003
4.975523e+002,8.214894e-003
4.994808e+002,7.730847e-003
5.014093e+002,8.747317e-003
5.033378e+002,8.196829e-003
5.052663e+002,8.709453e-003
5.071948e+002,8.613964e-003
5.091233e+002,6.982301e-003
5.110518e+002,6.423788e-003
5.129803e+002,6.762922e-003
5.149088e+002,6.091807e-003
5.168373e+002,7.272912e-003
5.187658e+002,6.990854e-003
5.206943e+002,6.613793e-003
5.226228e+002,7.087300e-003
5.245513e+002,6.265766e-003
5.264798e+002,5.301735e-003
5.284083e+002,6.302577e-003
5.303368e+002,5.951037e-003
5.322653e+002,5.372244e-003
5.341938e+002,6.225867e-003
5.361223e+002,5.735267e-003
5.380508e+002,4.853791e-003
5.399792e+002,6.387203e-003
5.419078e+002,5.950332e-003
5.438363e+002,5.587330e-003
5.457648e+002,6.733442e-003
5.476932e+002,6.391809e-003
5.496218e+002,6.226236e-003
5.515503e+002,5.864313e-003
5.534788e+002,5.493766e-003
5.554072e+002,5.923158e-003
5.573358e+002,6.100309e-003
5.592643e+002,6.491015e-003
5.611927e+002,6.667826e-003
5.631212e+002,6.124571e-003
5.650497e+002,4.464754e-003
5.669783e+002,5.347923e-003
5.689067e+002,7.223992e-003
5.708352e+002,6.793750e-003
5.727637e+002,7.992158e-003
5.746923e+002,7.301990e-003
5.766207e+002,5.799063e-003
5.785492e+002,7.592007e-003
5.804777e+002,3.742031e-003
5.824063e+002,1.179914e-003
5.843347e+002,5.586155e-003
5.862632e+002,8.113943e-003
5.881917e+002,9.367733e-003
5.901202e+002,7.655907e-003
5.920487e+002,5.269671e-003
5.939772e+002,6.097687e-003
5.959057e+002,6.366793e-003
5.978342e+002,5.583638e-003
5.997627e+002,5.333768e-003
6.016912e+002,5.463063e-003
6.036197e+002,5.841779e-003
6.055482e+002,5.771395e-003
6.074767e+002,6.052629e-003
6.094052e+002,7.310044e-003
6.113337e+002,8.075527e-003
6.132622e+002,7.460053e-003
6.151907e+002,6.774196e-003
6.171192e+002,6.829731e-003
6.190477e+002,6.648513e-003
6.209762e+002,6.996645e-003
6.229047e+002,6.688385e-003
6.248332e+002,5.311328e-003
6.267617e+002,3.651503e-003
6.286902e+002,2.949746e-003
6.306187e+002,3.373590e-003
6.325472e+002,3.903717e-003
6.344756e+002,4.217969e-003
6.364042e+002,3.974300e-003
6.383326e+002,3.633260e-003
6.402612e+002,3.456478e-003
6.421896e+002,3.940128e-003
6.441182e+002,4.062587e-003
6.460466e+002,4.099647e-003
6.479752e+002,4.042588e-003
6.499036e+002,3.646826e-003
6.518322e+002,3.581374e-003
6.537606e+002,3.792934e-003
6.556891e+002,3.696113e-003
6.576177e+002,3.680708e-003
6.595461e+002,3.830037e-003
6.614746e+002,3.041062e-003
6.634031e+002,2.469763e-003
6.653317e+002,3.697784e-003
6.672601e+002,8.511500e-003
6.691886e+002,7.598683e-003
6.711171e+002,3.747947e-003
6.730457e+002,3.311852e-003
6.749741e+002,3.270620e-003
6.769026e+002,3.129793e-003
6.788311e+002,3.240575e-003
6.807596e+002,3.437307e-003
6.826881e+002,3.648831e-003
6.846166e+002,3.460285e-003
6.865451e+002,2.701620e-003
6.884736e+002,2.347951e-003
6.904021e+002,2.296651e-003
6.923306e+002,2.279664e-003
6.942591e+002,2.635243e-003
6.961876e+002,2.978403e-003
6.981161e+002,2.853380e-003
7.000446e+002,2.814059e-003
7.019731e+002,2.507320e-003
7.039016e+002,2.068606e-003
7.058301e+002,1.976995e-003
7.077585e+002,2.324666e-003
7.096871e+002,2.534148e-003
7.116156e+002,2.390395e-003
7.135441e+002,1.834259e-003
7.154725e+002,1.959388e-003
7.174011e+002,2.203327e-003
7.193296e+002,2.388229e-003
7.212581e+002,2.428344e-003
7.231865e+002,2.722825e-003
7.251151e+002,2.680349e-003
7.270436e+002,2.591009e-003
7.289720e+002,2.767906e-003
7.309005e+002,2.651478e-003
7.328290e+002,2.333393e-003
7.347576e+002,2.292021e-003
7.366860e+002,2.245824e-003
7.386145e+002,2.039709e-003
7.405430e+002,2.609109e-003
7.424716e+002,2.995618e-003
7.444000e+002,2.484759e-003
7.463285e+002,2.205958e-003
7.482570e+002,2.112321e-003
7.501855e+002,1.962583e-003
7.521140e+002,2.416450e-003
7.540425e+002,2.554512e-003
7.559710e+002,2.143454e-003
7.578995e+002,2.046867e-003
7.598280e+002,1.945143e-003
7.617565e+002,2.117615e-003
7.636850e+002,2.312540e-003
7.656135e+002,2.413318e-003
7.675420e+002,2.536814e-003
7.694705e+002,2.261911e-003
7.713990e+002,1.952998e-003
7.733275e+002,2.180449e-003
7.752560e+002,2.234466e-003
7.771844e+002,2.004623e-003
7.791130e+002,1.640679e-003
7.810415e+002,1.620158e-003
7.829700e+002,1.537886e-003
7.848984e+002,1.788941e-003
7.868270e+002,2.156174e-003
7.887555e+002,2.421381e-003
7.906840e+002,2.496789e-003
7.926124e+002,2.344387e-003
7.945410e+002,2.101533e-003
7.964695e+002,2.092078e-003
7.983979e+002,2.214784e-003
8.003264e+002,2.165797e-003
8.022549e+002,2.263576e-003
8.041835e+002,2.392360e-003
8.061119e+002,1.913192e-003
8.080404e+002,1.323965e-003
8.099689e+002,1.734348e-003
8.118975e+002,2.081157e-003
8.138259e+002,1.934892e-003
8.157545e+002,1.981622e-003
8.176830e+002,2.537547e-003
8.196115e+002,2.544013e-003
8.215399e+002,1.951866e-003
8.234684e+002,2.074765e-003
8.253970e+002,2.377535e-003
8.273254e+002,2.574277e-003
8.292539e+002,2.133997e-003
8.311824e+002,1.811733e-003
8.331110e+002,2.194036e-003
8.350394e+002,1.999131e-003
8.369679e+002,2.024762e-003
8.388964e+002,2.429811e-003
8.408250e+002,2.676315e-003
8.427534e+002,2.174955e-003
8.446819e+002,1.298208e-003
8.466104e+002,1.415305e-003
8.485389e+002,1.924508e-003
8.504674e+002,1.781223e-003
8.523959e+002,1.777330e-003
8.543244e+002,2.261811e-003
8.562529e+002,2.117881e-003
8.581814e+002,1.933960e-003
8.601099e+002,1.830432e-003
8.620384e+002,1.859182e-003
8.639669e+002,2.138292e-003
8.658954e+002,2.307810e-003
8.678239e+002,2.103731e-003
8.697524e+002,2.089081e-003
8.716809e+002,2.056155e-003
8.736094e+002,2.029756e-003
8.755378e+002,1.902010e-003
8.774664e+002,2.097738e-003
8.793949e+002,2.240361e-003
8.813234e+002,1.885404e-003
8.832518e+002,1.759265e-003
8.851804e+002,1.846737e-003
8.871089e+002,1.823278e-003
8.890374e+002,1.677266e-003
8.909658e+002,1.806076e-003
8.928943e+002,1.988113e-003
8.948229e+002,1.898649e-003
8.967513e+002,1.806143e-003
8.986798e+002,1.840215e-003
9.006083e+002,1.833527e-003
9.025369e+002,1.763656e-003
9.044653e+002,1.984252e-003
9.063938e+002,2.007419e-003
9.083223e+002,1.614837e-003
9.102509e+002,1.323400e-003
9.121793e+002,1.783019e-003
9.141078e+002,2.023564e-003
9.160364e+002,1.730721e-003
9.179648e+002,1.692933e-003
9.198933e+002,1.645635e-003
9.218218e+002,1.621555e-003
9.237504e+002,1.731154e-003
9.256788e+002,1.727295e-003
9.276073e+002,1.580151e-003
9.295358e+002,1.360027e-003
9.314644e+002,1.107126e-003
9.333928e+002,1.106362e-003
9.353213e+002,1.380867e-003
9.372498e+002,1.426341e-003
9.391783e+002,9.976844e-004
9.411068e+002,1.159980e-003
9.430353e+002,1.611245e-003
9.449637e+002,1.613074e-003
9.468923e+002,1.680392e-003
9.488208e+002,1.435450e-003
9.507493e+002,1.270858e-003
9.526777e+002,1.260523e-003
9.546063e+002,1.377543e-003
9.565348e+002,1.387648e-003
9.584633e+002,1.176858e-003
9.603917e+002,1.084339e-003
9.623203e+002,1.273118e-003
9.642488e+002,1.150977e-003
9.661772e+002,1.141974e-003
9.681057e+002,1.306616e-003
9.700343e+002,1.232378e-003
9.719628e+002,1.239622e-003
9.738912e+002,1.214336e-003
9.758197e+002,1.276740e-003
9.777483e+002,1.433688e-003
9.796768e+002,1.469426e-003
9.816052e+002,1.355506e-003
9.835337e+002,1.172405e-003
9.854623e+002,1.149615e-003
9.873907e+002,1.217426e-003
9.893192e+002,1.206062e-003
9.912477e+002,1.102708e-003
9.931763e+002,1.067166e-003
9.951047e+002,9.559080e-004
9.970332e+002,8.103195e-004
9.989617e+002,9.482704e-004
1.000890e+003,1.202208e-003
1.002819e+003,1.240951e-003
1.004747e+003,1.109651e-003
1.006676e+003,1.012530e-003
1.008604e+003,8.966706e-004
1.010533e+003,9.156297e-004
1.012461e+003,9.313023e-004
1.014390e+003,8.973347e-004
1.016318e+003,1.042321e-003
1.018247e+003,1.124234e-003
1.020175e+003,1.040395e-003
1.022104e+003,9.627819e-004
1.024032e+003,9.614536e-004
1.025961e+003,1.039100e-003
1.027889e+003,9.678959e-004
1.029818e+003,9.770282e-004
1.031746e+003,1.093075e-003
1.033675e+003,1.138286e-003
1.035603e+003,8.861124e-004
1.037532e+003,9.489678e-004
1.039460e+003,1.035014e-003
1.041389e+003,8.752556e-004
1.043317e+003,9.556423e-004
1.045246e+003,1.090284e-003
1.047174e+003,9.476727e-004
1.049103e+003,9.210420e-004
1.051031e+003,8.795385e-004
1.052960e+003,8.913251e-004
1.054888e+003,8.079626e-004
1.056817e+003,8.002280e-004
1.058745e+003,1.011002e-003
1.060674e+003,1.060091e-003
1.062602e+003,8.739607e-004
1.064531e+003,7.710837e-004
1.066459e+003,7.542220e-004
1.068388e+003,7.625200e-004
1.070316e+003,7.767265e-004
1.072245e+003,1.124134e-003
1.074173e+003,1.061486e-003
1.076102e+003,8.128424e-004
1.078030e+003,7.565122e-004
1.079959e+003,7.515998e-004
1.081887e+003,6.831645e-004
1.083816e+003,8.091908e-004
1.085744e+003,7.889086e-004
1.087673e+003,7.352368e-004
1.089601e+003,8.251915e-004
1.091530e+003,9.435551e-004
1.093458e+003,9.025476e-004
1.095387e+003,8.162616e-004
1.097315e+003,8.620418e-004
1.099244e+003,1.141243e-003
1.101172e+003,1.192373e-003
1.103101e+003,8.830247e-004
1.105029e+003,9.115456e-004
1.106958e+003,9.616528e-004
1.108886e+003,1.005057e-003
1.110815e+003,8.520156e-004
1.112743e+003,6.374032e-004
1.114672e+003,6.148727e-004
1.116600e+003,9.661359e-004
1.118529e+003,1.190845e-003
1.120457e+003,9.918727e-004
1.122386e+003,8.750564e-004
1.124314e+003,7.848258e-004
1.126243e+003,6.320940e-004
1.128171e+003,3.960661e-004
1.130100e+003,5.260563e-004
1.132028e+003,5.820579e-004
1.133957e+003,5.221418e-004
1.135885e+003,5.916135e-004
1.137814e+003,6.289085e-004
1.139742e+003,3.473173e-004
1.141671e+003,3.749409e-004
1.143599e+003,6.504442e-004
1.145528e+003,7.771248e-004
1.147456e+003,7.501394e-004
1.149385e+003,6.237653e-004
1.151313e+003,4.898647e-004
1.153242e+003,4.267773e-004
1.155170e+003,6.435420e-004
1.157099e+003,6.936847e-004
1.159027e+003,6.551894e-004
1.160956e+003,5.873665e-004
1.162884e+003,5.539898e-004
1.164813e+003,5.109623e-004
1.166741e+003,4.535435e-004
1.168670e+003,5.171989e-004
1.170598e+003,6.312312e-004
1.172526e+003,5.825888e-004
1.174455e+003,4.016377e-004
1.176384e+003,5.167676e-004
1.178312e+003,6.765273e-004
1.180240e+003,6.556872e-004
1.182169e+003,6.157022e-004
1.184098e+003,4.698628e-004
1.186026e+003,3.662856e-004
1.187954e+003,5.633457e-004
1.189883e+003,6.949126e-004
1.191812e+003,7.454927e-004
1.193740e+003,8.059708e-004
1.195668e+003,6.418165e-004
1.197597e+003,5.040955e-004
1.199526e+003,4.762315e-004
1.201454e+003,5.235682e-004
1.203382e+003,6.541276e-004
1.205311e+003,6.019986e-004
1.207240e+003,4.687019e-004
1.209168e+003,3.735812e-004
1.211096e+003,3.906271e-004
1.213025e+003,6.623573e-004
1.214953e+003,6.491168e-004
1.216882e+003,3.607475e-004
1.218810e+003,3.357776e-004
1.220739e+003,4.667117e-004
1.222667e+003,5.190566e-004
1.224596e+003,5.217437e-004
1.226524e+003,4.920540e-004
1.228453e+003,5.150094e-004
1.230381e+003,4.621343e-004
1.232310e+003,4.015382e-004
1.234238e+003,3.775939e-004
1.236167e+003,3.772623e-004
1.238095e+003,4.564624e-004
1.240024e+003,5.361745e-004
1.241952e+003,5.904190e-004
1.243881e+003,4.522831e-004
1.245809e+003,3.883720e-004
1.247738e+003,4.228304e-004
1.249666e+003,5.493783e-004
1.251595e+003,5.726685e-004
1.253523e+003,6.124173e-004
1.255452e+003,6.441061e-004
1.257380e+003,4.498618e-004
1.259309e+003,2.677724e-004
1.261237e+003,3.463225e-004
1.263166e+003,5.499755e-004
1.265094e+003,7.153231e-004
1.267023e+003,7.564126e-004
1.268951e+003,7.075239e-004
1.270880e+003,6.631869e-004
1.272808e+003,4.897652e-004
1.274737e+003,4.568936e-004
1.276665e+003,4.920540e-004
1.278594e+003,5.312315e-004
1.280522e+003,5.682559e-004
1.282451e+003,4.213380e-004
1.284379e+003,3.231108e-004
1.286308e+003,3.989845e-004
1.288236e+003,5.421460e-004
1.290165e+003,4.938785e-004
1.292093e+003,3.010940e-004
1.294022e+003,3.484116e-004
1.295950e+003,5.420134e-004
1.297879e+003,5.338523e-004
1.299807e+003,3.838618e-004
1.301736e+003,3.247687e-004
1.303664e+003,3.058023e-004
1.305593e+003,2.837200e-004
1.307521e+003,4.427307e-004
1.309450e+003,5.540230e-004
1.311378e+003,3.927828e-004
1.313307e+003,2.592518e-004
1.315235e+003,3.347828e-004
1.317164e+003,5.459281e-004
1.319092e+003,4.878413e-004
1.321021e+003,3.850225e-004
1.322949e+003,4.439247e-004
1.324878e+003,4.521173e-004
1.326806e+003,4.359313e-004
1.328735e+003,4.225651e-004
1.330663e+003,4.257823e-004
1.332592e+003,4.921204e-004
1.334520e+003,4.591823e-004
1.336449e+003,4.234606e-004
1.338377e+003,4.697633e-004
1.340306e+003,4.338750e-004
1.342234e+003,3.667498e-004
1.344163e+003,2.928379e-004
1.346091e+003,2.140655e-004
1.348020e+003,3.442002e-004
1.349948e+003,4.032959e-004
1.351877e+003,3.415806e-004
1.353805e+003,4.253843e-004
1.355734e+003,4.244556e-004
1.357662e+003,3.332906e-004
1.359591e+003,4.106586e-004
1.361519e+003,5.418143e-004
1.363448e+003,5.276818e-004
1.365376e+003,4.249863e-004
1.367305e+003,3.529215e-004
1.369233e+003,3.420780e-004
1.371162e+003,3.532862e-004
1.373090e+003,4.063802e-004
1.375019e+003,4.262466e-004
1.376947e+003,4.592154e-004
1.378876e+003,5.049248e-004
1.380804e+003,4.901301e-004
1.382733e+003,4.837281e-004
1.384661e+003,5.057210e-004
1.386590e+003,5.244971e-004
1.388518e+003,4.840598e-004
1.390447e+003,3.718568e-004
1.392375e+003,2.926722e-004
1.394304e+003,3.839281e-004
1.396232e+003,4.106917e-004
1.398161e+003,4.429960e-004
1.400089e+003,4.623001e-004
1.402018e+003,4.009412e-004
1.403946e+003,3.119696e-004
1.405875e+003,2.987067e-004
1.407803e+003,3.075928e-004
1.409732e+003,3.877087e-004
1.411660e+003,4.179219e-004
1.413589e+003,4.082707e-004
1.415517e+003,4.485683e-004
1.417446e+003,6.247276e-004
1.419374e+003,6.949458e-004
1.421303e+003,5.297054e-004
1.423231e+003,5.871675e-004
1.425160e+003,6.782862e-004
1.427088e+003,5.410181e-004
1.429017e+003,4.085691e-004
1.430945e+003,3.291457e-004
1.432874e+003,3.850556e-004
1.434802e+003,5.659666e-004
1.436731e+003,6.113887e-004
1.438659e+003,3.685406e-004
1.440588e+003,3.294110e-004
1.442516e+003,4.842920e-004
1.444445e+003,4.818373e-004
1.446373e+003,4.590496e-004
1.448302e+003,5.388285e-004
1.450230e+003,5.199191e-004
1.452159e+003,3.603165e-004
1.454087e+003,4.095309e-004
1.456016e+003,7.285324e-004
1.457944e+003,7.958463e-004
1.459873e+003,5.889260e-004
1.461801e+003,4.009412e-004
1.463730e+003,3.970278e-004
1.465658e+003,4.778900e-004
1.467587e+003,3.567018e-004
1.469515e+003,3.516614e-004
1.471444e+003,5.438712e-004
1.473372e+003,7.020147e-004
1.475301e+003,5.935710e-004
1.477229e+003,3.765991e-004
1.479158e+003,2.564338e-004
1.481086e+003,3.134949e-004
1.483015e+003,3.008950e-004
1.484943e+003,3.604159e-004
1.486872e+003,4.790841e-004
1.488800e+003,5.045268e-004
1.490729e+003,5.282458e-004
1.492657e+003,5.038965e-004
1.494586e+003,5.118248e-004
1.496514e+003,6.170626e-004
1.498443e+003,5.624167e-004
1.500371e+003,3.898975e-004
1.502300e+003,4.053522e-004
1.504228e+003,5.962917e-004
1.506157e+003,9.134714e-004
1.508085e+003,7.430034e-004
1.510014e+003,4.506910e-004
1.511942e+003,4.011402e-004
1.513871e+003,3.343849e-004
1.515799e+003,4.372249e-004
1.517728e+003,6.028282e-004
1.519656e+003,6.506101e-004
1.521585e+003,5.767494e-004
1.523513e+003,4.312216e-004
1.525442e+003,5.262222e-004
1.527370e+003,4.582203e-004
1.529299e+003,3.938109e-004
1.531227e+003,3.689717e-004
1.533156e+003,5.214119e-004
1.535084e+003,5.101661e-004
1.537013e+003,4.966650e-004
1.538941e+003,6.385646e-004
1.540870e+003,6.532980e-004
1.542798e+003,6.937179e-004
1.544727e+003,6.173613e-004
1.546655e+003,4.304256e-004
1.548584e+003,4.395797e-004
1.550512e+003,4.384852e-004
1.552441e+003,4.496628e-004
1.554369e+003,4.832305e-004
1.556298e+003,6.496477e-004
1.558226e+003,9.960572e-004
1.560155e+003,7.859212e-004
1.562083e+003,4.361303e-004
1.564012e+003,4.335101e-004
1.565940e+003,3.630357e-004
1.567869e+003,3.699002e-004
1.569797e+003,5.518002e-004
1.571726e+003,3.758363e-004
1.573654e+003,2.933353e-004
1.575583e+003,5.459281e-004
1.577511e+003,5.234355e-004
1.579440e+003,3.116049e-004
1.581368e+003,3.323622e-004
1.583297e+003,3.458583e-004
1.585225e+003,3.652575e-004
1.587154e+003,3.830327e-004
1.589082e+003,3.467868e-004
1.591010e+003,2.090930e-004
1.592939e+003,1.508523e-004
1.594868e+003,3.221160e-004
1.596796e+003,4.003111e-004
1.598724e+003,2.911470e-004
1.600653e+003,1.909272e-004
1.602582e+003,2.435703e-004
1.604510e+003,2.994361e-004
1.606438e+003,2.884945e-004
1.608367e+003,2.960210e-004
1.610296e+003,2.729777e-004
1.612224e+003,2.374372e-004
1.614152e+003,2.619041e-004
1.616081e+003,4.506910e-004
1.618010e+003,4.687682e-004
1.619938e+003,4.268767e-004
1.621866e+003,5.005461e-004
1.623795e+003,4.106586e-004
1.625724e+003,2.863725e-004
1.627652e+003,3.150533e-004
1.629580e+003,3.041444e-004
1.631509e+003,2.044189e-004
1.633438e+003,3.389941e-004
1.635366e+003,5.496106e-004
1.637294e+003,4.725496e-004
1.639223e+003,3.829332e-004
1.641151e+003,4.162304e-004
1.643080e+003,3.414811e-004
1.645008e+003,4.134113e-004
1.646937e+003,6.503446e-004
1.648865e+003,4.833632e-004
1.650794e+003,5.496106e-004
1.652722e+003,1.031128e-003
1.654651e+003,7.515667e-004
1.656579e+003,4.038266e-004
1.658508e+003,3.605154e-004
1.660436e+003,3.569340e-004
1.662365e+003,4.496960e-004
1.664293e+003,4.598125e-004
1.666222e+003,3.313011e-004
1.668150e+003,3.786552e-004
1.670079e+003,5.403878e-004
1.672007e+003,5.108959e-004
1.673936e+003,4.904286e-004
1.675864e+003,4.800461e-004
1.677793e+003,2.817307e-004
1.679721e+003,2.085626e-004
1.681650e+003,2.751659e-004
1.683578e+003,6.243626e-004
1.685507e+003,6.263535e-004
1.687435e+003,4.330458e-004
1.689364e+003,3.640969e-004
1.691292e+003,3.311684e-004
1.693221e+003,3.595205e-004
1.695149e+003,5.087397e-004
1.697078e+003,4.829651e-004
1.699006e+003,5.613219e-004
1.700935e+003,6.350472e-004
1.702863e+003,3.288473e-004
1.704792e+003,3.292784e-004
1.706720e+003,3.035807e-004
1.708649e+003,1.651715e-004
1.710577e+003,1.278831e-004
1.712506e+003,2.209608e-004
1.714434e+003,3.772955e-004
1.716363e+003,4.820032e-004
1.718291e+003,4.784539e-004
1.720220e+003,3.239397e-004
1.722148e+003,2.758291e-004
1.724077e+003,2.686345e-004
1.726005e+003,1.984520e-004
1.727934e+003,2.452280e-004
1.729862e+003,3.193970e-004
1.731791e+003,4.394471e-004
1.733719e+003,5.088392e-004
1.735648e+003,3.782904e-004
1.737576e+003,3.357444e-004
1.739505e+003,3.529878e-004
1.741433e+003,1.699115e-004
1.743362e+003,1.825738e-004
1.745290e+003,3.316326e-004
1.747219e+003,3.980559e-004
1.749147e+003,3.629031e-004
1.751076e+003,4.758335e-004
1.753004e+003,3.826679e-004
1.754933e+003,2.364426e-004
1.756861e+003,2.844163e-004
1.758790e+003,2.886271e-004
1.760718e+003,2.738066e-004
1.762647e+003,2.869693e-004
1.764575e+003,2.293813e-004
1.766504e+003,2.404540e-004
1.768432e+003,2.832227e-004
1.770361e+003,3.220497e-004
1.772289e+003,4.355665e-004
1.774218e+003,4.164294e-004
1.776146e+003,2.730440e-004
1.778075e+003,1.508523e-004
1.780003e+003,7.777255e-005
1.781932e+003,1.133663e-004
1.783860e+003,1.572495e-004
1.785789e+003,2.105847e-004
1.787717e+003,2.142976e-004
1.789646e+003,1.605641e-004
1.791574e+003,2.231820e-004
1.793503e+003,2.193696e-004
1.795431e+003,1.911260e-004
1.797360e+003,2.619704e-004
1.799288e+003,2.579257e-004
1.801217e+003,1.551613e-004
1.803145e+003,9.126074e-005
1.805074e+003,1.398813e-004
1.807002e+003,1.291757e-004
1.808931e+003,1.027940e-004
1.810859e+003,1.363017e-004
1.812788e+003,2.068388e-004
1.814716e+003,1.861869e-004
1.816645e+003,1.369977e-004
1.818573e+003,8.963683e-005
1.820502e+003,9.815412e-005
1.822430e+003,1.325232e-004
1.824359e+003,1.830710e-004
1.826287e+003,2.291160e-004
1.828216e+003,2.968499e-004
1.830144e+003,2.757959e-004
1.832073e+003,1.074338e-004
1.834001e+003,1.226795e-004
1.835930e+003,1.536034e-004
1.837858e+003,1.028934e-004
1.839787e+003,1.350422e-004
1.841715e+003,1.382241e-004
1.843644e+003,2.197674e-004
1.845572e+003,1.473389e-004
1.847501e+003,6.882485e-005
1.849429e+003,2.551396e-005
1.851358e+003,9.295093e-005
1.853286e+003,1.864190e-004
1.855215e+003,2.532842e-004
1.857143e+003,2.765916e-004
1.859072e+003,1.999768e-004
1.861000e+003,1.871482e-004
1.862929e+003,2.114466e-004
1.864857e+003,2.245412e-004
1.866786e+003,2.261324e-004
1.868714e+003,2.412828e-004
1.870643e+003,1.708064e-004
1.872571e+003,7.508822e-005
1.874500e+003,1.362023e-004
1.876428e+003,1.796568e-004
1.878357e+003,1.839660e-004
1.880285e+003,1.700109e-004
1.882214e+003,1.144269e-004
1.884142e+003,1.317941e-004
1.886071e+003,9.722616e-005
1.887999e+003,8.208077e-005
1.889928e+003,1.360365e-004
1.891856e+003,4.728485e-005
1.893785e+003,1.420357e-004
1.895713e+003,1.908609e-004
1.897642e+003,6.332377e-005
1.899570e+003,5.411126e-005
1.901499e+003,1.214864e-004
1.903427e+003,9.911522e-005
1.905356e+003,5.377988e-005
1.907284e+003,3.903365e-005
1.909213e+003,6.541152e-005
1.911141e+003,1.209229e-004
1.913070e+003,6.620686e-005
1.914998e+003,1.156532e-004
1.916927e+003,2.118776e-004
1.918855e+003,2.191375e-004
1.920784e+003,1.956674e-004
1.922712e+003,1.925846e-004
1.924641e+003,1.752481e-004
1.926569e+003,2.520575e-004
1.928498e+003,1.635141e-004
1.930426e+003,7.793825e-005
1.932355e+003,7.936328e-005
1.934283e+003,7.359694e-005
1.936212e+003,8.735011e-005
1.938140e+003,3.800640e-005
1.940069e+003,1.044510e-004
1.941997e+003,2.050818e-004
1.943926e+003,1.788944e-004
1.945854e+003,1.354068e-004
1.947783e+003,1.771376e-004
1.949711e+003,1.243367e-004
1.951640e+003,9.957921e-005
1.953568e+003,1.272534e-004
1.955497e+003,9.599992e-005
1.957425e+003,1.192827e-006
1.959354e+003,8.565994e-005
1.961282e+003,1.511507e-004
1.963211e+003,1.218510e-004
1.965139e+003,1.138966e-004
1.967068e+003,9.033278e-005
1.968996e+003,-5.900771e-005
1.970925e+003,-4.648457e-005
1.972853e+003,1.410082e-004
1.974782e+003,1.574484e-004
1.976710e+003,1.171778e-004
1.978639e+003,1.553933e-004
1.980567e+003,1.305346e-004
1.982496e+003,7.475683e-005
1.984424e+003,9.142644e-005
1.986353e+003,9.689474e-005
1.988281e+003,6.242902e-005
1.990210e+003,3.827150e-005
1.992138e+003,1.024294e-004
1.994067e+003,1.025951e-004
1.995995e+003,4.218168e-005
1.997924e+003,2.607727e-005
1.999852e+003,4.715230e-005
2.001781e+003,-1.398234e-005
2.003709e+003,-1.408174e-005
2.005638e+003,4.914056e-005
2.007566e+003,1.103504e-004
2.009495e+003,1.372629e-004
2.011423e+003,1.156863e-004
2.013352e+003,1.163823e-004
2.015280e+003,8.691928e-005
2.017208e+003,1.298054e-004
2.019137e+003,2.233146e-004
2.021066e+003,2.588540e-004
2.022994e+003,1.471401e-004
2.024922e+003,3.283707e-005
2.026851e+003,1.799216e-005
2.028780e+003,6.431793e-005
2.030708e+003,7.883304e-005
2.032636e+003,1.435272e-004
2.034565e+003,1.413065e-004
2.036494e+003,6.488129e-005
2.038422e+003,8.347267e-005
2.040350e+003,7.329868e-005
2.042279e+003,9.026651e-005
2.044208e+003,1.260933e-004
2.046136e+003,9.155900e-005
2.048064e+003,6.365516e-005
2.049993e+003,9.232124e-005
2.051921e+003,4.678778e-005
2.053850e+003,1.421474e-005
2.055778e+003,4.122070e-005
2.057707e+003,1.474715e-004
2.059635e+003,1.913581e-004
2.061564e+003,1.495597e-004
2.063492e+003,-1.391607e-005
2.065421e+003,-1.365101e-005
2.067349e+003,5.384615e-005
2.069278e+003,-4.240950e-005
2.071206e+003,-9.741299e-006
2.073135e+003,1.371634e-004
2.075063e+003,1.865847e-004
2.076992e+003,9.520453e-005
2.078920e+003,5.590072e-005
2.080849e+003,1.071687e-004
2.082777e+003,8.357209e-005
2.084706e+003,-1.308775e-005
2.086634e+003,-9.680687e-005
2.088563e+003,-7.129860e-005
2.090491e+003,2.611041e-005
2.092420e+003,7.170798e-005
2.094348e+003,2.644177e-005
2.096277e+003,-9.100967e-005
2.098205e+003,-1.201937e-004
2.100134e+003,-2.100647e-005
2.102062e+003,5.059862e-005
2.103991e+003,-1.129856e-005
2.105919e+003,-2.485046e-006
2.107848e+003,1.134326e-004
2.109776e+003,7.091263e-005
2.111705e+003,-4.472865e-005
2.113633e+003,-2.279562e-005
2.115562e+003,7.117775e-005
2.117490e+003,5.394557e-005
2.119419e+003,8.350581e-005
2.121347e+003,8.387035e-005
2.123276e+003,-1.192824e-006
2.125204e+003,-3.376227e-005
2.127133e+003,1.355203e-005
2.129061e+003,1.307335e-004
2.130990e+003,2.052145e-004
2.132918e+003,1.339484e-004
2.134847e+003,-3.681036e-005
2.136775e+003,-5.542971e-005
2.138704e+003,6.736672e-005
2.140632e+003,1.450188e-004
2.142561e+003,9.828668e-005
2.144489e+003,1.235917e-005
2.146418e+003,-1.911792e-005
2.148346e+003,5.931398e-005
2.150275e+003,4.880918e-005
2.152203e+003,3.605133e-005
2.154132e+003,5.318339e-005
2.156060e+003,2.170334e-005
2.157989e+003,-5.732151e-006
2.159917e+003,1.862173e-005
2.161846e+003,-9.940098e-006
2.163774e+003,-7.924939e-005
2.165703e+003,-3.700914e-005
2.167631e+003,2.087495e-005
2.169560e+003,4.662210e-005
2.171488e+003,1.660047e-005
2.173417e+003,-2.206671e-005
2.175345e+003,-4.655083e-005
2.177274e+003,-7.024360e-006
2.179202e+003,1.660047e-005
2.181131e+003,-2.680461e-005
2.183059e+003,-1.378354e-005
2.184988e+003,1.567268e-005
2.186916e+003,2.302877e-005
2.188845e+003,3.147745e-006
2.190773e+003,-6.384460e-005
2.192702e+003,-6.434154e-005
2.194630e+003,2.664058e-005
2.196559e+003,1.072350e-004
2.198487e+003,1.070361e-004
2.200416e+003,4.188345e-005
2.202344e+003,6.587547e-005
2.204273e+003,1.071356e-004
2.206201e+003,9.599992e-005
2.208130e+003,8.476515e-005
2.210058e+003,5.686173e-005
2.211987e+003,3.217434e-005
2.213915e+003,2.418852e-005
2.215844e+003,4.277815e-005
2.217772e+003,8.406919e-005
2.219701e+003,1.053459e-004
2.221629e+003,5.262004e-005
2.223558e+003,-2.335887e-005
2.225486e+003,4.788133e-005
2.227415e+003,6.050697e-005
2.229343e+003,9.543652e-005
2.231272e+003,1.118418e-004
2.233200e+003,9.344804e-005
2.235129e+003,1.679226e-004
2.237057e+003,1.731267e-004
2.238986e+003,4.529659e-005
2.240914e+003,-2.928950e-005
2.242843e+003,2.750212e-005
2.244771e+003,1.052133e-004
2.246700e+003,7.687778e-005
2.248628e+003,4.559483e-005
2.250557e+003,-8.100517e-005
2.252485e+003,-8.925393e-005
2.254414e+003,6.720103e-005
2.256342e+003,1.146258e-004
2.258271e+003,4.254619e-005
2.260199e+003,1.064396e-004
2.262128e+003,2.080653e-004
2.264056e+003,1.819440e-004
2.265985e+003,1.679889e-004
2.267913e+003,2.417801e-004
2.269842e+003,2.503004e-004
2.271770e+003,1.777011e-004
2.273699e+003,1.632821e-004
2.275627e+003,1.535703e-004
2.277556e+003,1.436267e-004
2.279484e+003,8.334011e-005
2.281413e+003,1.082293e-004
2.283341e+003,1.356719e-004
2.285270e+003,1.345119e-004
2.287198e+003,1.347439e-004
2.289127e+003,2.592187e-004
2.291055e+003,3.558728e-004
2.292984e+003,3.437360e-004
2.294912e+003,3.683416e-004
2.296841e+003,5.177628e-004
2.298769e+003,7.091169e-004
2.300698e+003,8.347192e-004
2.302626e+003,1.015818e-003
2.304555e+003,1.218290e-003
2.306483e+003,1.451008e-003
2.308412e+003,1.699885e-003
2.310340e+003,2.001727e-003
2.312269e+003,2.463265e-003
2.314197e+003,2.931899e-003
2.316125e+003,3.536108e-003
2.318054e+003,4.175414e-003
2.319983e+003,4.720121e-003
2.321911e+003,5.392103e-003
2.323840e+003,6.049907e-003
2.325768e+003,6.542813e-003
2.327697e+003,7.074569e-003
2.329625e+003,7.723697e-003
2.331553e+003,8.110972e-003
2.333482e+003,8.253559e-003
2.335411e+003,8.328804e-003
2.337339e+003,8.480922e-003
2.339268e+003,8.556646e-003
2.341196e+003,8.394367e-003
2.343125e+003,7.866290e-003
2.345053e+003,6.685895e-003
2.346981e+003,4.757873e-003
2.348910e+003,3.613614e-003
2.350839e+003,4.885422e-003
2.352767e+003,7.377038e-003
2.354696e+003,9.335910e-003
2.356624e+003,1.062060e-002
2.358552e+003,1.122028e-002
2.360481e+003,1.144699e-002
2.362409e+003,1.146890e-002
2.364338e+003,1.117706e-002
2.366267e+003,1.042124e-002
2.368195e+003,9.352296e-003
2.370124e+003,8.135684e-003
2.372052e+003,6.778471e-003
2.373980e+003,5.324678e-003
2.375909e+003,3.824354e-003
2.377838e+003,2.489691e-003
2.379766e+003,1.418762e-003
2.381695e+003,7.404145e-004
2.383623e+003,4.133118e-004
2.385552e+003,1.167469e-004
2.387480e+003,-7.500899e-005
2.389408e+003,-5.082464e-005
2.391337e+003,5.225552e-005
2.393266e+003,5.500285e-006
2.395194e+003,1.776021e-005
2.397123e+003,8.678672e-005
2.399051e+003,1.009380e-004
2.400979e+003,2.965598e-005
2.402908e+003,6.418538e-005
2.404836e+003,9.533710e-005
2.406765e+003,3.359922e-005
2.408694e+003,-2.644016e-005
2.410622e+003,-6.295463e-007
2.412551e+003,7.620896e-006
2.414479e+003,7.697719e-005
2.416407e+003,2.041105e-005
2.418336e+003,-5.648986e-005
2.420264e+003,-1.063141e-004
2.422193e+003,-1.500050e-004
2.424122e+003,-7.437955e-005
2.426050e+003,-1.315401e-005
2.427979e+003,-4.655083e-005
2.429907e+003,4.671925e-006
2.431835e+003,3.820523e-005
2.433764e+003,1.318755e-005
2.435692e+003,3.611625e-006
2.437621e+003,8.416127e-006
2.439550e+003,-4.078609e-005
2.441478e+003,-5.864329e-005
2.443406e+003,1.852232e-005
2.445335e+003,2.203470e-005
2.447263e+003,-2.007876e-005
2.449192e+003,-6.341392e-005
2.451121e+003,-6.407651e-005
2.453049e+003,1.491034e-006
2.454978e+003,6.882485e-005
2.456906e+003,8.970311e-005
2.458834e+003,4.701975e-005
2.460763e+003,-2.113900e-005
2.462691e+003,-8.501363e-005
2.464620e+003,-3.505440e-005
2.466549e+003,1.172961e-005
2.468477e+003,5.649721e-005
2.470406e+003,3.088202e-005
2.472334e+003,-6.295012e-005
2.474262e+003,-5.264680e-005
2.476191e+003,-6.454031e-005
2.478119e+003,-1.014115e-004
2.480048e+003,-4.923439e-005
2.481977e+003,6.657139e-005
2.483905e+003,5.006842e-005
2.485833e+003,-3.816874e-005
2.487762e+003,-3.946085e-005
2.489690e+003,-7.527402e-005
2.491619e+003,-5.642360e-005
2.493547e+003,5.586758e-005
2.495476e+003,8.479829e-005
2.497405e+003,4.320894e-005
2.499333e+003,-3.976067e-006
2.501261e+003,-1.222805e-004
2.503190e+003,-7.610222e-005
2.505118e+003,2.939089e-005
2.507047e+003,6.361782e-006
2.508975e+003,-1.573838e-005
2.510904e+003,-3.661157e-005
2.512833e+003,-7.838806e-005
2.514761e+003,-9.992077e-005
2.516689e+003,-9.349419e-005
2.518618e+003,-5.870955e-005
2.520546e+003,5.354791e-005
2.522475e+003,9.566851e-005
2.524403e+003,9.907190e-006
2.526332e+003,-5.947153e-005
2.528260e+003,-3.353035e-005
2.530189e+003,-9.012365e-006
2.532117e+003,-9.094342e-005
2.534046e+003,-1.756743e-004
2.535974e+003,-1.508000e-004
2.537903e+003,-1.784895e-004
2.539831e+003,-8.494737e-005
2.541760e+003,-8.017697e-005
2.543688e+003,-7.553904e-005
2.545617e+003,-3.982529e-005
2.547545e+003,-5.307749e-005
2.549474e+003,-1.123761e-004
2.551402e+003,-1.451360e-004
2.553331e+003,-1.347352e-004
2.555259e+003,-5.347505e-005
2.557188e+003,-2.753351e-005
2.559116e+003,-9.432236e-005
2.561045e+003,-9.773442e-005
2.562973e+003,-1.194649e-004
2.564902e+003,-6.642867e-005
2.566830e+003,3.843566e-006
2.568759e+003,-8.739880e-005
2.570687e+003,-3.757238e-005
2.572616e+003,7.237077e-005
2.574544e+003,4.585993e-005
2.576473e+003,-3.478935e-005
2.578401e+003,1.891995e-005
2.580330e+003,-2.567812e-005
2.582258e+003,-9.568057e-005
2.584187e+003,-3.376227e-005
2.586115e+003,-1.232411e-004
2.588044e+003,-2.258823e-004
2.589972e+003,-9.034713e-005
2.591901e+003,9.178226e-006
2.593829e+003,-4.390038e-005
2.595758e+003,-1.609685e-004
2.597686e+003,-2.114431e-004
2.599615e+003,-1.896510e-004
2.601543e+003,-1.360933e-004
2.603472e+003,-1.324166e-004
2.605400e+003,-1.377495e-004
2.607329e+003,-1.460634e-004
2.609257e+003,-1.568945e-004
2.611186e+003,-1.514624e-004
2.613114e+003,-1.340065e-004
2.615043e+003,-8.024323e-005
2.616971e+003,-9.978826e-005
2.618900e+003,-6.672683e-005
2.620828e+003,-1.905165e-005
2.622757e+003,3.611761e-005
2.624685e+003,1.514252e-005
2.626614e+003,-5.542971e-005
2.628542e+003,-1.042603e-004
2.630471e+003,-6.609738e-005
2.632399e+003,-4.426482e-005
2.634328e+003,-8.256218e-005
2.636256e+003,-1.289054e-004
2.638185e+003,-7.096731e-005
2.640113e+003,-3.840065e-005
2.642042e+003,-1.046578e-004
2.643970e+003,-5.357444e-005
2.645899e+003,-6.427956e-006
2.647827e+003,-1.006827e-004
2.649756e+003,-7.428016e-005
2.651684e+003,5.507227e-005
2.653613e+003,1.318755e-005
2.655541e+003,-3.091296e-005
2.657470e+003,-9.886072e-005
2.659398e+003,-1.163512e-004
2.661327e+003,-1.454560e-005
2.663255e+003,5.013469e-005
2.665184e+003,-1.235882e-005
2.667112e+003,2.809858e-005
2.669041e+003,1.312128e-005
2.670969e+003,-9.193723e-005
2.672898e+003,-1.754093e-004
2.674826e+003,-6.589860e-005
2.676755e+003,-3.081356e-005
2.678683e+003,-1.336422e-004
2.680612e+003,-1.796156e-004
2.682540e+003,-2.013420e-004
2.684469e+003,-6.821763e-005
2.686397e+003,3.343353e-005
2.688326e+003,-4.774353e-005
2.690254e+003,-5.632783e-007
2.692183e+003,4.413678e-005
2.694111e+003,-2.816302e-005
2.696040e+003,-9.389171e-005
2.697968e+003,-8.100517e-005
2.699897e+003,-3.210570e-005
2.701825e+003,-3.790369e-005
2.703754e+003,-8.574243e-005
2.705682e+003,-9.929136e-005
2.707611e+003,-1.519261e-004
2.709539e+003,-1.939565e-004
2.711468e+003,-1.924330e-004
2.713396e+003,-7.825555e-005
2.715325e+003,-4.042334e-006
2.717253e+003,-7.259061e-005
2.719182e+003,-1.231086e-004
2.721110e+003,-1.196637e-004
2.723039e+003,-4.360221e-005
2.724967e+003,-3.223822e-005
2.726896e+003,-8.845887e-005
2.728824e+003,-1.270173e-004
2.730753e+003,-1.206243e-004
2.732681e+003,-1.257917e-004
2.734610e+003,-1.227774e-004
2.736538e+003,-1.230424e-004
2.738467e+003,-1.267855e-004
2.740395e+003,-9.978826e-005
2.742324e+003,-1.180074e-004
2.744252e+003,-1.166824e-004
2.746181e+003,-1.274811e-004
2.748109e+003,-1.484483e-004
2.750038e+003,-1.527873e-004
2.751966e+003,-7.749361e-005
2.753895e+003,-4.085235e-005
2.755823e+003,-4.028912e-005
2.757752e+003,-9.773442e-005
2.759680e+003,-8.438420e-005
2.761609e+003,-7.931565e-005
2.763537e+003,1.481117e-005
2.765466e+003,-8.747298e-006
2.767394e+003,-9.385859e-005
2.769323e+003,-1.185043e-004
2.771251e+003,-3.184065e-005
2.773180e+003,1.355203e-005
2.775108e+003,-3.369601e-005
2.777037e+003,-1.098917e-004
2.778965e+003,-1.847492e-004
2.780894e+003,-9.495178e-005
2.782822e+003,1.951639e-005
2.784750e+003,8.161681e-005
2.786679e+003,6.925566e-005
2.788608e+003,6.925070e-006
2.790536e+003,1.113318e-005
2.792465e+003,-4.850552e-005
2.794393e+003,-8.246279e-005
2.796322e+003,-2.080768e-005
2.798250e+003,-5.963718e-005
2.800178e+003,-1.545759e-004
2.802107e+003,-1.919362e-004
2.804036e+003,-1.218168e-004
2.805964e+003,-9.230163e-005
2.807893e+003,-2.574439e-005
2.809821e+003,-7.941503e-005
2.811750e+003,-1.323503e-004
2.813678e+003,-1.889223e-004
2.815606e+003,-1.663673e-004
2.817535e+003,-1.617965e-004
2.819464e+003,-8.604058e-005
2.821392e+003,8.482397e-006
2.823321e+003,-3.015187e-006
2.825249e+003,-6.825559e-006
2.827177e+003,-6.232066e-005
2.829106e+003,-1.571926e-004
2.831034e+003,-1.973678e-004
2.832963e+003,-1.626908e-004
2.834892e+003,3.118025e-005
2.836820e+003,8.645531e-005
2.838749e+003,-3.286772e-005
2.840677e+003,-1.351658e-004
2.842605e+003,-7.289482e-007
2.844534e+003,7.979410e-005
2.846462e+003,-3.495501e-005
2.848391e+003,-2.024443e-005
2.850320e+003,-2.713593e-005
2.852248e+003,-1.567212e-005
2.854177e+003,-6.092923e-005
2.856105e+003,-4.824048e-005
2.858033e+003,-1.510886e-005
2.859962e+003,3.558742e-005
2.861890e+003,-3.644592e-005
2.863819e+003,-1.437117e-004
2.865748e+003,-1.338740e-004
2.867676e+003,-9.902635e-005
2.869604e+003,-3.535258e-005
2.871533e+003,-9.200348e-005
2.873461e+003,-2.025343e-004
2.875390e+003,-2.209478e-004
2.877319e+003,-1.401344e-004
2.879247e+003,2.220037e-005
2.881176e+003,-2.796423e-005
2.883104e+003,-1.641813e-004
2.885032e+003,-1.308775e-005
2.886961e+003,8.602448e-005
2.888889e+003,3.711028e-006
2.890818e+003,1.991401e-005
2.892747e+003,2.044418e-005
2.894675e+003,-4.181315e-005
2.896604e+003,-6.036602e-005
2.898532e+003,-6.063106e-005
2.900460e+003,-2.050949e-005
2.902389e+003,-8.219777e-005
2.904317e+003,-9.978826e-005
2.906246e+003,-4.933378e-005
2.908175e+003,-6.738941e-005
2.910103e+003,-1.047241e-004
2.912031e+003,-6.947653e-005
2.913960e+003,-4.509309e-005
2.915888e+003,-8.835949e-005
2.917817e+003,-1.258249e-004
2.919745e+003,-9.409965e-006
2.921674e+003,5.864765e-006
2.923603e+003,8.382993e-006
2.925531e+003,2.896012e-005
2.927459e+003,-2.531367e-005
2.929388e+003,-8.345662e-005
2.931316e+003,-7.769237e-005
2.933245e+003,-1.743826e-004
2.935173e+003,-2.197225e-004
2.937102e+003,-1.987587e-004
2.939031e+003,-2.675412e-004
2.940959e+003,-3.028058e-004
2.942887e+003,-2.689320e-004
2.944816e+003,-1.665329e-004
2.946744e+003,-6.036602e-005
2.948673e+003,-4.674961e-005
2.950601e+003,-1.494419e-004
2.952530e+003,-1.735214e-004
2.954458e+003,-9.064527e-005
2.956387e+003,-8.401980e-005
2.958315e+003,-7.666540e-005
2.960244e+003,-1.314891e-004
2.962172e+003,-1.505681e-004
2.964101e+003,-5.374009e-005
2.966029e+003,1.898622e-005
2.967958e+003,-2.485046e-006
2.969886e+003,-4.241136e-006
2.971815e+003,-1.434680e-005
2.973743e+003,-7.013910e-005
2.975672e+003,-5.327627e-005
2.977600e+003,-4.042334e-006
2.979529e+003,4.559483e-005
2.981457e+003,4.844467e-005
2.983386e+003,4.211541e-005
2.985314e+003,6.348946e-005
2.987243e+003,4.937252e-005
2.989171e+003,1.620888e-004
2.991100e+003,3.724426e-005
2.993028e+003,-4.456300e-005
2.994957e+003,5.106256e-005
2.996885e+003,5.291828e-005
2.998814e+003,1.255798e-005
3.000742e+003,2.796603e-005
3.002671e+003,-2.750038e-005
3.004599e+003,-6.904585e-005
3.006528e+003,1.000660e-005
3.008456e+003,-2.107274e-005
3.010385e+003,-1.435792e-004
3.012313e+003,-1.183718e-004
3.014242e+003,2.183588e-005
3.016170e+003,7.356380e-005
3.018099e+003,3.555428e-005
3.020027e+003,-1.086661e-004
3.021956e+003,-1.712361e-004
3.023884e+003,-7.305441e-005
3.025813e+003,-5.658925e-005
3.027741e+003,-1.798806e-004
3.029670e+003,-2.197225e-004
3.031598e+003,-2.179673e-004
3.033527e+003,-1.430823e-004
3.035455e+003,-5.699017e-006
3.037384e+003,1.118749e-004
3.039312e+003,9.875066e-005
3.041241e+003,-6.089609e-005
3.043169e+003,-1.245330e-004
3.045098e+003,-1.267855e-004
3.047026e+003,-1.624921e-004
3.048955e+003,-1.619290e-004
3.050883e+003,-7.199430e-005
3.052812e+003,-3.343096e-005
3.054740e+003,-1.109186e-004
3.056669e+003,-1.030678e-004
3.058597e+003,-3.618086e-005
3.060526e+003,-1.987997e-005
3.062454e+003,-3.644743e-007
3.064383e+003,-6.808512e-005
3.066311e+003,-5.605918e-005
3.068240e+003,1.405111e-004
3.070168e+003,7.266903e-005
3.072097e+003,-1.886574e-004
3.074025e+003,-1.436454e-004
3.075954e+003,-5.990221e-005
3.077882e+003,-1.049891e-004
3.079811e+003,-1.005833e-004
3.081739e+003,-6.646180e-005
3.083668e+003,-9.001586e-005
3.085596e+003,-2.260147e-004
3.087525e+003,-1.671291e-004
3.089453e+003,-4.989700e-005
3.091382e+003,-7.252436e-005
3.093310e+003,-5.997220e-006
3.095239e+003,2.176961e-005
3.097167e+003,-6.632928e-005
3.099096e+003,-1.256924e-004
3.101024e+003,-1.214524e-004
3.102953e+003,-1.118792e-004
3.104881e+003,-1.089642e-004
3.106810e+003,5.467151e-006
3.108738e+003,5.484030e-005
3.110667e+003,9.885009e-005
3.112595e+003,1.229778e-004
3.114524e+003,5.086373e-005
3.116452e+003,-8.965145e-005
3.118381e+003,-1.142311e-004
3.120309e+003,-4.824048e-005
3.122238e+003,6.626813e-007
3.124166e+003,-1.921770e-006
3.126095e+003,-7.222620e-005
3.128023e+003,-1.432148e-004
3.129952e+003,-1.493426e-004
3.131880e+003,-2.129996e-004
3.133809e+003,-1.507337e-004
3.135737e+003,-8.180024e-005
3.137666e+003,-8.143584e-005
3.139594e+003,-1.249967e-004
3.141523e+003,-5.506528e-005
3.143451e+003,6.213077e-005
3.145380e+003,9.874056e-006
3.147308e+003,-1.779596e-004
3.149237e+003,-1.872663e-004
3.151165e+003,-3.949398e-005
3.153094e+003,1.040865e-004
3.155022e+003,1.040865e-004
3.156951e+003,-1.259075e-005
3.158879e+003,2.051046e-005
3.160808e+003,9.828668e-005
3.162736e+003,4.354031e-005
3.164665e+003,-3.247014e-005
3.166593e+003,-1.608360e-004
3.168522e+003,-2.214115e-004
3.170450e+003,-8.299284e-005
3.172379e+003,5.010156e-005
3.174307e+003,-4.877057e-005
3.176236e+003,-4.691527e-005
3.178164e+003,7.826965e-005
3.180093e+003,7.598300e-005
3.182021e+003,-3.425925e-005
3.183950e+003,-3.406046e-005
3.185878e+003,1.848919e-005
3.187807e+003,1.051470e-004
3.189735e+003,1.375612e-004
3.191664e+003,7.737488e-005
3.193592e+003,3.810582e-005
3.195521e+003,5.367748e-006
3.197449e+003,-6.371208e-005
3.199378e+003,-1.423536e-004
3.201306e+003,-1.289054e-004
3.203235e+003,-9.992077e-005
3.205163e+003,-8.912965e-006
3.207092e+003,4.433561e-005
3.209020e+003,8.254474e-005
3.210948e+003,1.390527e-004
3.212877e+003,9.593364e-005
3.214806e+003,1.915190e-005
3.216734e+003,-6.248630e-005
3.218663e+003,1.318755e-005
3.220591e+003,6.179938e-005
3.222520e+003,-1.119916e-005
3.224448e+003,-1.387763e-004
3.226376e+003,-1.448710e-004
3.228305e+003,-1.004839e-004
3.230234e+003,-4.436421e-005
3.232162e+003,-2.577752e-005
3.234091e+003,2.620982e-005
3.236019e+003,-9.211165e-006
3.237948e+003,-2.143243e-004
3.239876e+003,-1.723291e-004
3.241804e+003,1.045505e-004
3.243733e+003,1.181721e-004
3.245662e+003,6.491443e-005
3.247590e+003,1.171446e-004
3.249519e+003,9.344804e-005
3.251447e+003,7.982724e-005
3.253375e+003,3.578624e-005
3.255304e+003,3.313405e-007
3.257232e+003,9.662961e-005
3.259161e+003,1.836677e-004
3.261090e+003,1.818114e-004
3.263018e+003,1.288111e-004
3.264947e+003,6.133544e-005
3.266875e+003,-4.674961e-005
3.268803e+003,-8.226403e-005
3.270732e+003,-5.413765e-005
3.272660e+003,-8.216465e-005
3.274589e+003,-3.131054e-005
3.276518e+003,-1.547332e-005
3.278446e+003,-8.763069e-005
3.280375e+003,1.187024e-004
3.282303e+003,8.870888e-005
3.284231e+003,1.422677e-004
3.286160e+003,1.208567e-004
3.288088e+003,2.776721e-005
3.290017e+003,-8.458296e-005
3.291946e+003,7.406090e-005
3.293874e+003,1.181721e-004
3.295802e+003,8.009236e-005
3.297731e+003,4.980332e-005
3.299659e+003,2.637550e-005
3.301588e+003,-2.335887e-005
3.303516e+003,-6.672683e-005
3.305445e+003,1.242544e-005
3.307374e+003,1.519130e-004
3.309302e+003,1.255299e-004
3.311230e+003,-7.521362e-006
3.313159e+003,2.438734e-005
3.315087e+003,1.251322e-004
3.317016e+003,1.857560e-004
3.318944e+003,1.020317e-004
3.320873e+003,1.450519e-004
3.322802e+003,2.071371e-004
3.324730e+003,1.424003e-004
3.326658e+003,9.957921e-005
3.328587e+003,8.125226e-005
3.330515e+003,2.491751e-005
3.332444e+003,1.991401e-005
3.334372e+003,7.319926e-005
3.336301e+003,2.783268e-006
3.338229e+003,5.155963e-005
3.340158e+003,3.992835e-005
3.342086e+003,1.530820e-005
3.344015e+003,-5.758314e-005
3.345943e+003,3.976087e-007
3.347872e+003,-1.401547e-005
3.349800e+003,-1.385776e-004
3.351729e+003,-1.444073e-004
3.353657e+003,-8.034262e-005
3.355586e+003,-8.246279e-005
3.357514e+003,-4.052104e-005
3.359443e+003,-3.883136e-005
3.361371e+003,-2.236490e-005
3.363300e+003,9.202298e-005
3.365229e+003,5.248749e-005
3.367157e+003,-1.439104e-004
3.369085e+003,-2.780381e-004
3.371014e+003,-2.187290e-004
3.372942e+003,7.322684e-006
3.374871e+003,-5.062586e-005
3.376799e+003,1.292247e-005
3.378728e+003,1.188018e-004
3.380656e+003,-4.612013e-005
3.382585e+003,-1.815697e-004
3.384513e+003,-3.690975e-005
3.386442e+003,3.727739e-005
3.388370e+003,-3.614773e-005
3.390299e+003,-9.432236e-005
3.392227e+003,-1.520826e-005
3.394156e+003,-8.428482e-005
3.396084e+003,-5.486650e-005
3.398013e+003,-3.661157e-005
3.399941e+003,-1.438110e-004
3.401870e+003,-1.416912e-004
3.403798e+003,-2.799736e-005
3.405727e+003,1.122064e-004
3.407655e+003,1.309323e-004
3.409584e+003,-3.154246e-005
3.411512e+003,-2.025343e-004
3.413441e+003,-2.273725e-004
3.415369e+003,-1.174112e-004
3.417298e+003,-5.506528e-005
3.419226e+003,-2.465103e-005
3.421155e+003,-3.843531e-006
3.423083e+003,5.752450e-005
3.425012e+003,1.652378e-004
3.426940e+003,1.810158e-004
3.428869e+003,2.279682e-005
3.430797e+003,-1.040616e-004
3.432726e+003,-1.075067e-004
3.434654e+003,7.177426e-005
3.436583e+003,8.347267e-005
3.438511e+003,-1.434467e-004
3.440440e+003,-8.630560e-005
3.442368e+003,-1.124755e-004
3.444297e+003,-1.637838e-004
3.446225e+003,-8.117764e-006
3.448154e+003,1.003083e-004
3.450082e+003,1.127366e-004
3.452011e+003,5.460833e-005
3.453939e+003,5.672918e-005
3.455868e+003,4.526346e-005
3.457796e+003,-3.194004e-005
3.459725e+003,-1.121111e-004
3.461653e+003,-3.644592e-005
3.463582e+003,4.247991e-005
3.465510e+003,2.418792e-006
3.467439e+003,-1.288895e-005
3.469367e+003,-4.075296e-005
3.471296e+003,-5.632750e-006
3.473224e+003,9.414401e-005
3.475153e+003,1.143139e-005
3.477081e+003,2.667372e-005
3.479010e+003,7.850163e-005
3.480938e+003,-6.828389e-005
3.482867e+003,-1.548078e-004
3.484795e+003,-9.476232e-006
3.486724e+003,7.465741e-005
3.488652e+003,-5.224924e-005
3.490581e+003,-7.066916e-005
3.492509e+003,-3.936145e-005
3.494438e+003,4.738426e-005
3.496366e+003,1.767066e-004
3.498295e+003,1.497254e-004
3.500223e+003,6.309179e-005
3.502152e+003,-9.591245e-005
3.504080e+003,-3.614773e-005
3.506009e+003,5.189101e-005
3.507937e+003,1.214864e-004
3.509866e+003,1.059756e-004
3.511794e+003,4.191658e-005
3.513723e+003,-4.260828e-005
3.515651e+003,-3.512194e-006
3.517580e+003,6.998473e-005
3.519508e+003,1.036888e-004
3.521437e+003,1.769394e-005
3.523365e+003,-1.420555e-004
3.525294e+003,-1.864384e-004
3.527222e+003,-1.398031e-004
3.529151e+003,-1.258249e-004
3.531079e+003,-1.069104e-004
3.533008e+003,1.091904e-004
3.534936e+003,1.164818e-004
3.536865e+003,1.000660e-005
3.538793e+003,-1.152249e-004
3.540722e+003,-1.533835e-004
3.542650e+003,-1.901146e-004
3.544579e+003,-1.407968e-004
3.546507e+003,1.657681e-004
3.548436e+003,2.661147e-004
3.550364e+003,2.563343e-004
3.552293e+003,2.363763e-004
3.554221e+003,2.322986e-004
3.556150e+003,1.145926e-004
3.558078e+003,1.199469e-005
3.560007e+003,-8.613996e-005
3.561935e+003,-2.143719e-005
3.563864e+003,1.524433e-004
3.565792e+003,2.798408e-004
3.567721e+003,1.115435e-004
3.569649e+003,1.461236e-005
3.571578e+003,1.410745e-004
3.573506e+003,1.824412e-004
3.575435e+003,6.763184e-005
3.577363e+003,-7.753296e-006
3.579292e+003,6.822835e-005
3.581220e+003,1.287448e-004
3.583149e+003,1.110132e-004
3.585077e+003,1.562883e-004
3.587006e+003,2.273922e-004
3.588934e+003,7.041554e-005
3.590863e+003,-5.964086e-006
3.592791e+003,9.888323e-005
3.594720e+003,1.028602e-004
3.596648e+003,7.124403e-005
3.598577e+003,5.162590e-005
3.600505e+003,8.821177e-005
3.602434e+003,1.362685e-004
3.604362e+003,1.121069e-004
3.606291e+003,3.721112e-005
3.608219e+003,8.797979e-005
3.610148e+003,2.952343e-005
3.612076e+003,2.398971e-005
3.614005e+003,8.910657e-005
3.615933e+003,9.301721e-005
3.617862e+003,5.497285e-005
3.619790e+003,-6.301637e-005
3.621719e+003,-3.091296e-005
3.623647e+003,2.491751e-005
3.625576e+003,1.134326e-004
3.627504e+003,4.576565e-004
3.629433e+003,5.901536e-004
3.631361e+003,2.236461e-004
3.633290e+003,6.103719e-005
3.635218e+003,4.970390e-005
3.637146e+003,4.029286e-005
3.639075e+003,1.015014e-004
3.641004e+003,-3.995781e-005
3.642932e+003,-1.796487e-004
3.644861e+003,-1.101567e-004
3.646789e+003,1.513164e-004
3.648718e+003,3.547453e-004
3.650646e+003,2.649543e-004
3.652574e+003,-5.980282e-005
3.654503e+003,4.927311e-005
3.656432e+003,2.573289e-004
3.658360e+003,1.337164e-004
3.660289e+003,1.077321e-004
3.662217e+003,4.082306e-005
3.664146e+003,-9.193723e-005
3.666074e+003,-1.323503e-004
3.668002e+003,-6.693024e-006
3.669931e+003,3.562055e-005
3.671860e+003,-2.697027e-005
3.673788e+003,1.186029e-004
3.675717e+003,1.164155e-004
3.677645e+003,-7.414765e-005
3.679573e+003,-4.598761e-005
3.681502e+003,7.608242e-005
3.683430e+003,5.168941e-006
3.685359e+003,-5.953779e-005
3.687288e+003,2.044520e-004
3.689216e+003,3.385630e-004
3.691145e+003,1.390527e-004
3.693073e+003,4.705059e-006
3.695001e+003,4.042372e-006
3.696930e+003,6.239588e-005
3.698858e+003,9.381260e-005
3.700787e+003,1.980873e-004
3.702716e+003,1.837671e-004
3.704644e+003,1.365006e-004
3.706573e+003,2.626335e-004
3.708501e+003,1.527416e-004
3.710429e+003,2.065073e-004
3.712358e+003,2.246738e-004
3.714286e+003,-2.465135e-004
3.716215e+003,-3.134674e-004
3.718144e+003,2.607727e-005
3.720072e+003,1.666962e-004
3.722000e+003,2.305747e-004
3.723929e+003,1.867173e-004
3.725857e+003,5.205670e-005
3.727786e+003,-1.088648e-004
3.729714e+003,5.964131e-007
3.731643e+003,3.312679e-004
3.733572e+003,4.704930e-004
3.735500e+003,4.146384e-004
3.737428e+003,5.484030e-005
3.739357e+003,-1.981957e-004
3.741285e+003,-2.955456e-005
3.743214e+003,3.746425e-004
3.745142e+003,2.012696e-004
3.747071e+003,-7.659914e-005
3.749000e+003,4.884232e-005
3.750928e+003,-8.733255e-005
3.752856e+003,-2.049851e-004
3.754785e+003,-1.660029e-004
3.756713e+003,-2.213121e-004
3.758642e+003,-2.342939e-004
3.760570e+003,2.982166e-005
3.762499e+003,3.409627e-005
3.764427e+003,-2.766805e-004
3.766356e+003,-2.356516e-004
3.768284e+003,-2.509841e-004
3.770213e+003,-1.972684e-004
3.772141e+003,-1.831926e-004
3.774070e+003,-1.577556e-004
3.775998e+003,-1.646118e-004
3.777927e+003,-1.508331e-004
3.779855e+003,-3.210570e-005
3.781784e+003,-1.353646e-004
3.783712e+003,-2.813825e-004
3.785641e+003,-2.180666e-004
3.787569e+003,-1.672947e-004
3.789498e+003,-3.674336e-004
3.791426e+003,-4.396318e-004
3.793355e+003,-4.673360e-004
3.795283e+003,-4.237102e-004
3.797212e+003,-2.987662e-004
3.799140e+003,-7.282251e-005
3.801069e+003,-2.364795e-004
3.802997e+003,-6.620103e-004
3.804926e+003,-3.891505e-004
3.806854e+003,-1.224130e-004
3.808783e+003,-3.580645e-004
3.810711e+003,-4.378775e-004
3.812640e+003,-5.168815e-004
3.814568e+003,-5.625497e-004
3.816497e+003,-2.036272e-004
3.818425e+003,-1.555365e-004
3.820354e+003,-2.066741e-004
3.822282e+003,-2.499906e-004
3.824211e+003,-4.798140e-004
3.826139e+003,-4.799132e-004
3.828068e+003,-2.890977e-004
3.829996e+003,-1.237711e-004
3.831925e+003,-2.639649e-004
3.833853e+003,-5.748925e-004
3.835782e+003,-4.846792e-004
3.837710e+003,-6.222127e-005
3.839639e+003,-2.037266e-004
3.841567e+003,-2.667465e-004
3.843496e+003,-4.390038e-005
3.845424e+003,-1.581200e-004
3.847353e+003,-6.196282e-004
3.849281e+003,-4.603191e-004
3.851210e+003,2.195022e-004
3.853138e+003,2.764922e-004
3.855067e+003,-1.824639e-004
3.856995e+003,-4.459870e-004
3.858924e+003,-4.880882e-004
3.860852e+003,-3.286647e-004
3.862781e+003,-4.456300e-005
3.864709e+003,-4.996326e-005
3.866638e+003,-3.339952e-004
3.868566e+003,-3.264464e-004
3.870495e+003,-2.685677e-004
3.872423e+003,-2.466129e-004
3.874352e+003,-3.143945e-004
3.876280e+003,-4.162622e-004
3.878209e+003,-3.362797e-004
3.880137e+003,-3.752796e-004
3.882066e+003,-6.615141e-004
3.883994e+003,-6.086101e-004
3.885923e+003,-4.484695e-004
3.887851e+003,-3.264464e-004
3.889780e+003,-1.281104e-004
3.891708e+003,-1.872663e-004
3.893637e+003,-3.277376e-004
3.895565e+003,-4.894452e-004
3.897494e+003,-5.133735e-004
3.899422e+003,-4.262921e-004
3.901351e+003,-3.552173e-004
3.903279e+003,-2.792633e-004
3.905208e+003,-3.462121e-004
3.907136e+003,-5.631784e-004
3.909065e+003,-4.242067e-004
3.910993e+003,-4.078872e-004
3.912922e+003,-5.513979e-004
3.914850e+003,-5.784332e-004
3.916779e+003,-5.022204e-004
3.918707e+003,-5.622519e-004
3.920636e+003,-6.287931e-004
3.922564e+003,-5.515964e-004
3.924493e+003,-4.786224e-004
3.926421e+003,-5.520928e-004
3.928350e+003,-8.143996e-004
3.930278e+003,-8.214769e-004
3.932207e+003,-6.895349e-004
3.934135e+003,-6.715383e-004
3.936064e+003,-6.705127e-004
3.937992e+003,-7.194396e-004
3.939921e+003,-6.299842e-004
3.941849e+003,-5.284314e-004
3.943778e+003,-5.371019e-004
3.945706e+003,-5.246918e-004
3.947635e+003,-4.811710e-004
3.949563e+003,-6.353111e-004
3.951492e+003,-7.909178e-004
3.953420e+003,-6.947949e-004
3.955349e+003,-9.546682e-004
3.957277e+003,-1.057609e-003
3.959206e+003,-1.024488e-003
3.961134e+003,-1.032256e-003
3.963063e+003,-9.257386e-004
3.964991e+003,-6.638960e-004
3.966920e+003,-4.020280e-004
3.968848e+003,-2.836673e-004
3.970777e+003,-4.769675e-004
3.972705e+003,-7.062739e-004
3.974634e+003,-6.993931e-004
3.976562e+003,-7.033297e-004
3.978491e+003,-7.029658e-004
3.980419e+003,-6.371969e-004
3.982348e+003,-5.904777e-004
3.984276e+003,-6.482142e-004
3.986205e+003,-7.101442e-004
3.988133e+003,-5.970293e-004
3.990062e+003,-4.481054e-004
3.991990e+003,-4.391022e-004
3.993919e+003,-7.895287e-004
3.995847e+003,-1.059658e-003
3.997776e+003,-9.844553e-004
3.999704e+003,-9.107937e-004
4.001633e+003,0.000000e+000
