3.991989e+002,-1.584756e-003
4.011274e+002,-1.227023e-002
4.030559e+002,-1.485618e-002
4.049844e+002,-1.082103e-002
4.069129e+002,-6.432417e-003
4.088414e+002,-8.804969e-003
4.107699e+002,-8.259538e-003
4.126984e+002,-6.421546e-003
4.146269e+002,-4.352374e-003
4.165554e+002,-1.927596e-003
4.184839e+002,-4.317995e-003
4.204124e+002,3.426195e-005
4.223409e+002,3.799452e-003
4.242694e+002,4.813083e-003
4.261979e+002,-9.248459e-004
4.281264e+002,3.664335e-003
4.300549e+002,1.144750e-002
4.319834e+002,9.124509e-003
4.339119e+002,7.018128e-003
4.358404e+002,7.742585e-003
4.377689e+002,7.560649e-003
4.396974e+002,1.803947e-003
4.416259e+002,-4.288304e-003
4.435544e+002,4.961673e-004
4.454829e+002,2.484425e-003
4.474114e+002,4.068273e-003
4.493399e+002,4.943262e-003
4.512684e+002,3.999949e-003
4.531969e+002,2.951414e-003
4.551254e+002,2.515018e-003
4.570539e+002,2.961522e-003
4.589824e+002,2.459666e-003
4.609109e+002,5.246630e-004
4.628394e+002,8.374082e-004
4.647679e+002,7.023797e-004
4.666964e+002,-1.886574e-004
4.686249e+002,-3.094609e-005
4.705533e+002,1.540380e-003
4.724819e+002,4.923194e-004
4.744103e+002,-1.450366e-004
4.763389e+002,6.011692e-004
4.782673e+002,-7.151062e-004
4.801959e+002,-1.663749e-003
4.821243e+002,-2.321747e-003
4.840529e+002,-3.828940e-003
4.859813e+002,-4.452217e-003
4.879099e+002,-2.571031e-003
4.898383e+002,-3.164142e-004
4.917668e+002,-1.670780e-003
4.936953e+002,-4.078574e-003
4.956238e+002,-4.459498e-003
4.975523e+002,-4.139558e-003
4.994808e+002,-6.771062e-003
5.014093e+002,-6.347135e-003
5.033378e+002,-5.091074e-003
5.052663e+002,-6.354123e-003
5.071948e+002,-4.984467e-003
5.091233e+002,-5.702865e-003
5.110518e+002,-5.970479e-003
5.129803e+002,-3.939738e-003
5.149088e+002,-4.560332e-003
5.168373e+002,-4.982370e-003
5.187658e+002,-4.403479e-003
5.206943e+002,-5.499347e-003
5.226228e+002,-5.692073e-003
5.245513e+002,-4.056647e-003
5.264798e+002,-4.332397e-003
5.284083e+002,-5.442971e-003
5.303368e+002,-4.839694e-003
5.322653e+002,-4.111365e-003
5.341938e+002,-3.282084e-003
5.361223e+002,-3.244529e-003
5.380508e+002,-4.255232e-003
5.399792e+002,-4.248735e-003
5.419078e+002,-2.444035e-003
5.438363e+002,-2.069517e-003
5.457648e+002,-2.974538e-003
5.476932e+002,-2.866488e-003
5.496218e+002,-2.296798e-003
5.515503e+002,-1.252382e-003
5.534788e+002,-1.865213e-003
5.554072e+002,-2.959005e-003
5.573358e+002,-2.239808e-003
5.592643e+002,-1.555604e-003
5.611927e+002,-1.432438e-003
5.631212e+002,-7.717346e-004
5.650497e+002,-5.025844e-004
5.669783e+002,-1.302268e-003
5.689067e+002,-1.453706e-003
5.708352e+002,-1.181839e-003
5.727637e+002,-1.426131e-003
5.746923e+002,-2.627287e-003
5.766207e+002,-4.046898e-003
5.785492e+002,-3.175558e-003
5.804777e+002,-1.913147e-003
5.824063e+002,-1.861386e-003
5.843347e+002,-2.462749e-003
5.862632e+002,-2.850622e-003
5.881917e+002,-3.217725e-003
5.901202e+002,-3.382272e-003
5.920487e+002,-2.901311e-003
5.939772e+002,-5.263163e-003
5.959057e+002,-6.070147e-003
5.978342e+002,-3.449172e-003
5.997627e+002,-2.223226e-003
6.016912e+002,-1.619913e-003
6.036197e+002,-2.295348e-003
6.055482e+002,-1.644308e-003
6.074767e+002,1.381578e-004
6.094052e+002,8.181565e-005
6.113337e+002,-2.936009e-004
6.132622e+002,-4.046100e-004
6.151907e+002,-9.837942e-004
6.171192e+002,-1.525328e-003
6.190477e+002,-8.420799e-004
6.209762e+002,-1.125417e-004
6.229047e+002,-1.404267e-003
6.248332e+002,-3.387335e-003
6.267617e+002,-4.515181e-003
6.286902e+002,-5.291249e-003
6.306187e+002,-4.409055e-003
6.325472e+002,-3.489109e-003
6.344756e+002,-3.045843e-003
6.364042e+002,-2.976874e-003
6.383326e+002,-2.798807e-003
6.402612e+002,-2.878074e-003
6.421896e+002,-2.862439e-003
6.441182e+002,-2.712380e-003
6.460466e+002,-3.121117e-003
6.479752e+002,-3.196576e-003
6.499036e+002,-2.719394e-003
6.518322e+002,-1.914995e-003
6.537606e+002,-1.288855e-003
6.556891e+002,-1.575446e-003
6.576177e+002,-1.924660e-003
6.595461e+002,-2.138499e-003
6.614746e+002,-2.231896e-003
6.634031e+002,-2.480342e-003
6.653317e+002,-1.787575e-003
6.672601e+002,-1.075887e-003
6.691886e+002,-1.001084e-003
6.711171e+002,-1.037512e-003
6.730457e+002,-1.043462e-003
6.749741e+002,-6.957211e-004
6.769026e+002,-4.856060e-004
6.788311e+002,-5.314760e-004
6.807596e+002,-5.744954e-004
6.826881e+002,-4.193407e-004
6.846166e+002,-5.440268e-005
6.865451e+002,2.720494e-004
6.884736e+002,5.472219e-004
6.904021e+002,4.138425e-004
6.923306e+002,3.135943e-004
6.942591e+002,7.644696e-005
6.961876e+002,-4.003397e-004
6.981161e+002,-3.785901e-004
7.000446e+002,-4.209627e-004
7.019731e+002,-4.308269e-004
7.039016e+002,-4.671043e-004
7.058301e+002,-7.331011e-004
7.077585e+002,-6.571139e-004
7.096871e+002,-5.837606e-004
7.116156e+002,-8.031219e-004
7.135441e+002,-1.503403e-003
7.154725e+002,-2.603606e-003
7.174011e+002,-2.795943e-003
7.193296e+002,-2.584832e-003
7.212581e+002,-2.692426e-003
7.231865e+002,-2.592276e-003
7.251151e+002,-2.642304e-003
7.270436e+002,-2.944920e-003
7.289720e+002,-3.164506e-003
7.309005e+002,-3.078909e-003
7.328290e+002,-3.225355e-003
7.347576e+002,-3.292048e-003
7.366860e+002,-2.588159e-003
7.386145e+002,-1.941648e-003
7.405430e+002,-1.988387e-003
7.424716e+002,-2.441267e-003
7.444000e+002,-2.484493e-003
7.463285e+002,-2.063384e-003
7.482570e+002,-1.881444e-003
7.501855e+002,-1.230477e-003
7.521140e+002,-3.138316e-004
7.540425e+002,1.735245e-004
7.559710e+002,8.784722e-005
7.578995e+002,-1.321185e-004
7.598280e+002,-1.141980e-004
7.617565e+002,-2.955456e-005
7.636850e+002,4.021020e-004
7.656135e+002,1.003496e-003
7.675420e+002,8.721679e-004
7.694705e+002,1.422053e-003
7.713990e+002,1.833227e-003
7.733275e+002,1.907934e-003
7.752560e+002,1.796294e-003
7.771844e+002,1.502441e-003
7.791130e+002,1.591059e-003
7.810415e+002,1.874423e-003
7.829700e+002,1.762425e-003
7.848984e+002,1.956892e-003
7.868270e+002,1.811134e-003
7.887555e+002,1.263714e-003
7.906840e+002,9.191493e-004
7.926124e+002,1.042421e-003
7.945410e+002,1.346565e-003
7.964695e+002,1.303094e-003
7.983979e+002,8.814642e-004
8.003264e+002,5.822238e-004
8.022549e+002,9.642430e-004
8.041835e+002,1.490505e-003
8.061119e+002,1.395360e-003
8.080404e+002,1.387715e-003
8.099689e+002,1.249591e-003
8.118975e+002,9.829062e-004
8.138259e+002,1.229055e-003
8.157545e+002,1.520429e-003
8.176830e+002,9.805815e-004
8.196115e+002,2.085957e-004
8.215399e+002,-3.245923e-004
8.234684e+002,-1.575238e-004
8.253970e+002,-6.646180e-005
8.273254e+002,-3.938514e-004
8.292539e+002,-6.148306e-004
8.311824e+002,-7.692209e-004
8.331110e+002,-9.229282e-004
8.350394e+002,-8.671461e-004
8.369679e+002,-4.757429e-004
8.388964e+002,-4.159974e-004
8.408250e+002,-7.840384e-004
8.427534e+002,-8.788190e-004
8.446819e+002,-7.286355e-004
8.466104e+002,-7.286355e-004
8.485389e+002,-8.042133e-004
8.504674e+002,-1.082134e-003
8.523959e+002,-1.013612e-003
8.543244e+002,-7.204650e-004
8.562529e+002,-9.658758e-004
8.581814e+002,-1.259915e-003
8.601099e+002,-1.103716e-003
8.620384e+002,-1.206258e-003
8.639669e+002,-1.605884e-003
8.658954e+002,-1.434288e-003
8.678239e+002,-1.225058e-003
8.697524e+002,-1.338869e-003
8.716809e+002,-1.360570e-003
8.736094e+002,-1.250763e-003
8.755378e+002,-1.179460e-003
8.774664e+002,-1.124636e-003
8.793949e+002,-1.068979e-003
8.813234e+002,-9.599249e-004
8.832518e+002,-6.380902e-004
8.851804e+002,-7.095819e-004
8.871089e+002,-8.252470e-004
8.890374e+002,-4.367520e-004
8.909658e+002,-4.137133e-004
8.928943e+002,-1.773303e-004
8.948229e+002,2.972478e-004
8.967513e+002,3.520593e-004
8.986798e+002,3.068320e-005
9.006083e+002,-9.577994e-005
9.025369e+002,6.626813e-007
9.044653e+002,1.225470e-004
9.063938e+002,-2.415131e-004
9.083223e+002,-3.348891e-004
9.102509e+002,-2.292271e-004
9.121793e+002,-3.894485e-004
9.141078e+002,-5.014922e-004
9.160364e+002,-6.724646e-004
9.179648e+002,-1.120340e-003
9.198933e+002,-1.361264e-003
9.218218e+002,-1.667413e-003
9.237504e+002,-1.848914e-003
9.256788e+002,-2.136290e-003
9.276073e+002,-2.534073e-003
9.295358e+002,-2.284899e-003
9.314644e+002,-2.018961e-003
9.333928e+002,-2.170183e-003
9.353213e+002,-2.184821e-003
9.372498e+002,-2.124321e-003
9.391783e+002,-2.394017e-003
9.411068e+002,-2.328701e-003
9.430353e+002,-2.092864e-003
9.449637e+002,-2.304214e-003
9.468923e+002,-2.584734e-003
9.488208e+002,-2.538256e-003
9.507493e+002,-2.397246e-003
9.526777e+002,-2.381166e-003
9.546063e+002,-2.366963e-003
9.565348e+002,-2.246367e-003
9.584633e+002,-2.079773e-003
9.603917e+002,-2.344224e-003
9.623203e+002,-2.704148e-003
9.642488e+002,-2.639670e-003
9.661772e+002,-2.299270e-003
9.681057e+002,-2.031494e-003
9.700343e+002,-2.011442e-003
9.719628e+002,-2.039475e-003
9.738912e+002,-2.140213e-003
9.758197e+002,-2.191315e-003
9.777483e+002,-2.189140e-003
9.796768e+002,-2.094183e-003
9.816052e+002,-2.120826e-003
9.835337e+002,-2.138598e-003
9.854623e+002,-1.922945e-003
9.873907e+002,-2.069550e-003
9.893192e+002,-1.940329e-003
9.912477e+002,-1.593570e-003
9.931763e+002,-1.579903e-003
9.951047e+002,-1.568183e-003
9.970332e+002,-1.476359e-003
9.989617e+002,-1.615292e-003
1.000890e+003,-1.360967e-003
1.002819e+003,-9.764220e-004
1.004747e+003,-9.289457e-004
1.006676e+003,-8.317951e-004
1.008604e+003,-6.922476e-004
1.010533e+003,-6.614479e-004
1.012461e+003,-4.081852e-004
1.014390e+003,-1.285742e-004
1.016318e+003,5.649721e-005
1.018247e+003,3.442002e-004
1.020175e+003,3.346833e-004
1.022104e+003,3.783567e-004
1.024032e+003,8.127760e-004
1.025961e+003,1.045178e-003
1.027889e+003,9.510598e-004
1.029818e+003,1.175097e-003
1.031746e+003,1.505434e-003
1.033675e+003,1.787378e-003
1.035603e+003,2.230103e-003
1.037532e+003,2.314073e-003
1.039460e+003,2.410252e-003
1.041389e+003,2.631076e-003
1.043317e+003,2.659546e-003
1.045246e+003,2.668180e-003
1.047174e+003,2.847944e-003
1.049103e+003,2.740097e-003
1.051031e+003,2.658546e-003
1.052960e+003,2.849712e-003
1.054888e+003,2.937837e-003
1.056817e+003,2.831568e-003
1.058745e+003,2.786014e-003
1.060674e+003,2.587476e-003
1.062602e+003,2.620209e-003
1.064531e+003,2.700253e-003
1.066459e+003,2.614309e-003
1.068388e+003,2.507053e-003
1.070316e+003,2.648078e-003
1.072245e+003,2.706621e-003
1.074173e+003,2.723192e-003
1.076102e+003,2.701586e-003
1.078030e+003,2.626476e-003
1.079959e+003,2.648644e-003
1.081887e+003,2.779511e-003
1.083816e+003,2.739563e-003
1.085744e+003,2.980405e-003
1.087673e+003,3.277998e-003
1.089601e+003,3.077533e-003
1.091530e+003,3.100526e-003
1.093458e+003,3.455108e-003
1.095387e+003,3.569614e-003
1.097315e+003,3.579837e-003
1.099244e+003,3.450566e-003
1.101172e+003,3.589693e-003
1.103101e+003,3.611576e-003
1.105029e+003,3.367312e-003
1.106958e+003,3.463792e-003
1.108886e+003,3.588590e-003
1.110815e+003,3.530362e-003
1.112743e+003,3.441248e-003
1.114672e+003,3.474413e-003
1.116600e+003,3.648129e-003
1.118529e+003,3.756302e-003
1.120457e+003,3.704100e-003
1.122386e+003,3.865104e-003
1.124314e+003,3.868346e-003
1.126243e+003,3.524583e-003
1.128171e+003,3.524617e-003
1.130100e+003,3.528525e-003
1.132028e+003,3.191072e-003
1.133957e+003,2.928797e-003
1.135885e+003,2.765772e-003
1.137814e+003,2.679215e-003
1.139742e+003,2.336924e-003
1.141671e+003,1.880945e-003
1.143599e+003,1.566650e-003
1.145528e+003,1.261819e-003
1.147456e+003,9.936660e-004
1.149385e+003,8.481313e-004
1.151313e+003,6.604989e-004
1.153242e+003,3.954691e-004
1.155170e+003,1.859549e-004
1.157099e+003,-7.676479e-005
1.159027e+003,-4.584656e-004
1.160956e+003,-5.844886e-004
1.162884e+003,-6.393805e-004
1.164813e+003,-6.034484e-004
1.166741e+003,-4.511506e-004
1.168670e+003,-2.129334e-004
1.170598e+003,-5.798070e-005
1.172526e+003,-1.857759e-004
1.174455e+003,-2.568785e-004
1.176384e+003,-2.631371e-004
1.178312e+003,-2.675743e-004
1.180240e+003,-1.903134e-004
1.182169e+003,-2.121717e-004
1.184098e+003,-2.068728e-004
1.186026e+003,-9.746940e-005
1.187954e+003,-6.387773e-005
1.189883e+003,-3.260490e-004
1.191812e+003,-3.704793e-004
1.193740e+003,-1.916050e-004
1.195668e+003,-1.563314e-004
1.197597e+003,-1.602067e-004
1.199526e+003,-1.332447e-004
1.201454e+003,-1.095936e-004
1.203382e+003,-1.981370e-005
1.205311e+003,5.159276e-005
1.207240e+003,4.115443e-005
1.209168e+003,2.250716e-004
1.211096e+003,3.827011e-004
1.213025e+003,4.145721e-004
1.214953e+003,5.896559e-004
1.216882e+003,7.468867e-004
1.218810e+003,7.024462e-004
1.220739e+003,7.355023e-004
1.222667e+003,9.840353e-004
1.224596e+003,1.184997e-003
1.226524e+003,1.284948e-003
1.228453e+003,1.422053e-003
1.230381e+003,1.716550e-003
1.232310e+003,1.918917e-003
1.234238e+003,1.893258e-003
1.236167e+003,1.950202e-003
1.238095e+003,1.965046e-003
1.240024e+003,1.967010e-003
1.241952e+003,2.069572e-003
1.243881e+003,1.937088e-003
1.245809e+003,1.883541e-003
1.247738e+003,1.818088e-003
1.249666e+003,1.640147e-003
1.251595e+003,1.535259e-003
1.253523e+003,1.546399e-003
1.255452e+003,1.498817e-003
1.257380e+003,1.400246e-003
1.259309e+003,1.402706e-003
1.261237e+003,1.489275e-003
1.263166e+003,1.541045e-003
1.265094e+003,1.529274e-003
1.267023e+003,1.785980e-003
1.268951e+003,2.197699e-003
1.270880e+003,2.369406e-003
1.272808e+003,2.609376e-003
1.274737e+003,2.903312e-003
1.276665e+003,3.164703e-003
1.278594e+003,3.407017e-003
1.280522e+003,3.615919e-003
1.282451e+003,3.845714e-003
1.284379e+003,4.072053e-003
1.286308e+003,4.489729e-003
1.288236e+003,4.776231e-003
1.290165e+003,4.966018e-003
1.292093e+003,5.247503e-003
1.294022e+003,5.401698e-003
1.295950e+003,5.662383e-003
1.297879e+003,5.754707e-003
1.299807e+003,5.709886e-003
1.301736e+003,5.738725e-003
1.303664e+003,5.770858e-003
1.305593e+003,5.750880e-003
1.307521e+003,5.678195e-003
1.309450e+003,5.392339e-003
1.311378e+003,5.045523e-003
1.313307e+003,5.044920e-003
1.315235e+003,5.007579e-003
1.317164e+003,4.718413e-003
1.319092e+003,4.301788e-003
1.321021e+003,3.850027e-003
1.322949e+003,3.575861e-003
1.324878e+003,3.452770e-003
1.326806e+003,3.380669e-003
1.328735e+003,3.381938e-003
1.330663e+003,3.331417e-003
1.332592e+003,3.212501e-003
1.334520e+003,3.048169e-003
1.336449e+003,2.917222e-003
1.338377e+003,2.784546e-003
1.340306e+003,2.747499e-003
1.342234e+003,2.910917e-003
1.344163e+003,2.864120e-003
1.346091e+003,2.624243e-003
1.348020e+003,2.472995e-003
1.349948e+003,2.446071e-003
1.351877e+003,2.231602e-003
1.353805e+003,2.064045e-003
1.355734e+003,1.960586e-003
1.357662e+003,1.809969e-003
1.359591e+003,1.732285e-003
1.361519e+003,1.675736e-003
1.363448e+003,1.485584e-003
1.365376e+003,1.311302e-003
1.367305e+003,1.168352e-003
1.369233e+003,1.119284e-003
1.371162e+003,9.527865e-004
1.373090e+003,8.364454e-004
1.375019e+003,9.304721e-004
1.376947e+003,1.071285e-003
1.378876e+003,1.158086e-003
1.380804e+003,1.223008e-003
1.382733e+003,1.113737e-003
1.384661e+003,8.892001e-004
1.386590e+003,6.724787e-004
1.388518e+003,5.395252e-004
1.390447e+003,4.229631e-004
1.392375e+003,2.209608e-004
1.394304e+003,1.055116e-004
1.396232e+003,-1.398234e-005
1.398161e+003,-1.116474e-004
1.400089e+003,-1.080367e-004
1.402018e+003,-1.614322e-004
1.403946e+003,-1.888892e-004
1.405875e+003,-1.183387e-004
1.407803e+003,-3.608147e-005
1.409732e+003,-1.285582e-005
1.411660e+003,1.325364e-006
1.413589e+003,1.670940e-004
1.415517e+003,4.518519e-004
1.417446e+003,8.655942e-004
1.419374e+003,1.422851e-003
1.421303e+003,1.963016e-003
1.423231e+003,2.412551e-003
1.425160e+003,2.980371e-003
1.427088e+003,3.416434e-003
1.429017e+003,3.697283e-003
1.430945e+003,3.937319e-003
1.432874e+003,4.178191e-003
1.434802e+003,4.536869e-003
1.436731e+003,4.755628e-003
1.438659e+003,5.085751e-003
1.440588e+003,5.496518e-003
1.442516e+003,5.882181e-003
1.444445e+003,6.195852e-003
1.446373e+003,6.667220e-003
1.448302e+003,7.071740e-003
1.450230e+003,7.284604e-003
1.452159e+003,7.638911e-003
1.454087e+003,7.997119e-003
1.456016e+003,7.945991e-003
1.457944e+003,8.074278e-003
1.459873e+003,8.405076e-003
1.461801e+003,8.532722e-003
1.463730e+003,8.438116e-003
1.465658e+003,8.351468e-003
1.467587e+003,8.291214e-003
1.469515e+003,8.075325e-003
1.471444e+003,7.812074e-003
1.473372e+003,7.627480e-003
1.475301e+003,7.435548e-003
1.477229e+003,7.130344e-003
1.479158e+003,6.850835e-003
1.481086e+003,6.387909e-003
1.483015e+003,5.991919e-003
1.484943e+003,5.582396e-003
1.486872e+003,5.178489e-003
1.488800e+003,4.831644e-003
1.490729e+003,4.444201e-003
1.492657e+003,3.994933e-003
1.494586e+003,3.674326e-003
1.496514e+003,3.415032e-003
1.498443e+003,3.109836e-003
1.500371e+003,2.722725e-003
1.502300e+003,2.398091e-003
1.504228e+003,2.106627e-003
1.506157e+003,1.677532e-003
1.508085e+003,1.645568e-003
1.510014e+003,1.775301e-003
1.511942e+003,1.817589e-003
1.513871e+003,1.801917e-003
1.515799e+003,1.511618e-003
1.517728e+003,1.551752e-003
1.519656e+003,1.636521e-003
1.521585e+003,1.545767e-003
1.523513e+003,1.799788e-003
1.525442e+003,2.072202e-003
1.527370e+003,2.212852e-003
1.529299e+003,2.371105e-003
1.531227e+003,2.556478e-003
1.533156e+003,2.777277e-003
1.535084e+003,3.124921e-003
1.537013e+003,3.385244e-003
1.538941e+003,3.547131e-003
1.540870e+003,3.762451e-003
1.542798e+003,4.078909e-003
1.544727e+003,4.464386e-003
1.546655e+003,4.711847e-003
1.548584e+003,4.962164e-003
1.550512e+003,5.206590e-003
1.552441e+003,5.214068e-003
1.554369e+003,5.224497e-003
1.556298e+003,5.478800e-003
1.558226e+003,5.528934e-003
1.560155e+003,5.888864e-003
1.562083e+003,6.425940e-003
1.564012e+003,6.736471e-003
1.565940e+003,7.042273e-003
1.567869e+003,7.313009e-003
1.569797e+003,7.454592e-003
1.571726e+003,7.631728e-003
1.573654e+003,7.748184e-003
1.575583e+003,7.649298e-003
1.577511e+003,7.619184e-003
1.579440e+003,7.583442e-003
1.581368e+003,7.530171e-003
1.583297e+003,7.412055e-003
1.585225e+003,7.208630e-003
1.587154e+003,7.045506e-003
1.589082e+003,6.633844e-003
1.591010e+003,6.059752e-003
1.592939e+003,5.676583e-003
1.594868e+003,5.293987e-003
1.596796e+003,4.943932e-003
1.598724e+003,4.630829e-003
1.600653e+003,4.091619e-003
1.602582e+003,3.545160e-003
1.604510e+003,3.079135e-003
1.606438e+003,2.645944e-003
1.608367e+003,2.204227e-003
1.610296e+003,1.841479e-003
1.612224e+003,1.492866e-003
1.614152e+003,1.260357e-003
1.616081e+003,8.598174e-004
1.618010e+003,6.270835e-004
1.619938e+003,4.929829e-004
1.621866e+003,2.533836e-004
1.623795e+003,-5.476712e-005
1.625724e+003,-9.799943e-005
1.627652e+003,-1.548078e-004
1.629580e+003,-4.212275e-004
1.631509e+003,-5.163189e-004
1.633438e+003,-6.944310e-004
1.635366e+003,-1.090958e-003
1.637294e+003,-1.265597e-003
1.639223e+003,-1.400238e-003
1.641151e+003,-1.729627e-003
1.643080e+003,-2.131179e-003
1.645008e+003,-2.576269e-003
1.646937e+003,-2.888673e-003
1.648865e+003,-3.091509e-003
1.650794e+003,-3.413537e-003
1.652722e+003,-3.940920e-003
1.654651e+003,-4.243190e-003
1.656579e+003,-4.351882e-003
1.658508e+003,-4.689760e-003
1.660436e+003,-4.975000e-003
1.662365e+003,-5.219329e-003
1.664293e+003,-5.380796e-003
1.666222e+003,-5.444182e-003
1.668150e+003,-5.733375e-003
1.670079e+003,-6.059103e-003
1.672007e+003,-6.031916e-003
1.673936e+003,-6.107982e-003
1.675864e+003,-6.050738e-003
1.677793e+003,-5.889944e-003
1.679721e+003,-5.765288e-003
1.681650e+003,-5.679221e-003
1.683578e+003,-5.790235e-003
1.685507e+003,-5.537297e-003
1.687435e+003,-5.272361e-003
1.689364e+003,-5.222406e-003
1.691292e+003,-5.057048e-003
1.693221e+003,-4.918426e-003
1.695149e+003,-4.898932e-003
1.697078e+003,-4.751116e-003
1.699006e+003,-4.800011e-003
1.700935e+003,-4.818559e-003
1.702863e+003,-4.500162e-003
1.704792e+003,-4.415582e-003
1.706720e+003,-4.367037e-003
1.708649e+003,-4.357853e-003
1.710577e+003,-4.394361e-003
1.712506e+003,-4.464876e-003
1.714434e+003,-4.602135e-003
1.716363e+003,-4.732107e-003
1.718291e+003,-4.818133e-003
1.720220e+003,-4.684581e-003
1.722148e+003,-4.680549e-003
1.724077e+003,-4.774942e-003
1.726005e+003,-4.764324e-003
1.727934e+003,-4.809351e-003
1.729862e+003,-4.818624e-003
1.731791e+003,-4.765569e-003
1.733719e+003,-4.979717e-003
1.735648e+003,-5.085540e-003
1.737576e+003,-4.974378e-003
1.739505e+003,-4.883796e-003
1.741433e+003,-4.750657e-003
1.743362e+003,-4.680451e-003
1.745290e+003,-4.485274e-003
1.747219e+003,-4.385177e-003
1.749147e+003,-4.393213e-003
1.751076e+003,-4.385374e-003
1.753004e+003,-4.358312e-003
1.754933e+003,-4.236824e-003
1.756861e+003,-4.073815e-003
1.758790e+003,-4.040267e-003
1.760718e+003,-4.131090e-003
1.762647e+003,-4.112809e-003
1.764575e+003,-3.975034e-003
1.766504e+003,-3.956714e-003
1.768432e+003,-3.918855e-003
1.770361e+003,-3.827757e-003
1.772289e+003,-3.889301e-003
1.774218e+003,-3.852914e-003
1.776146e+003,-3.806014e-003
1.778075e+003,-3.741962e-003
1.780003e+003,-3.691502e-003
1.781932e+003,-3.748926e-003
1.783860e+003,-3.769719e-003
1.785789e+003,-3.649447e-003
1.787717e+003,-3.522667e-003
1.789646e+003,-3.477967e-003
1.791574e+003,-3.552377e-003
1.793503e+003,-3.686869e-003
1.795431e+003,-3.698631e-003
1.797360e+003,-3.644946e-003
1.799288e+003,-3.584714e-003
1.801217e+003,-3.586620e-003
1.803145e+003,-3.531114e-003
1.805074e+003,-3.479939e-003
1.807002e+003,-3.493974e-003
1.808931e+003,-3.567002e-003
1.810859e+003,-3.541335e-003
1.812788e+003,-3.505576e-003
1.814716e+003,-3.512708e-003
1.816645e+003,-3.585700e-003
1.818573e+003,-3.663740e-003
1.820502e+003,-3.661637e-003
1.822430e+003,-3.706581e-003
1.824359e+003,-3.739400e-003
1.826287e+003,-3.826805e-003
1.828216e+003,-3.875082e-003
1.830144e+003,-3.824538e-003
1.832073e+003,-3.719164e-003
1.834001e+003,-3.641923e-003
1.835930e+003,-3.716700e-003
1.837858e+003,-3.856198e-003
1.839787e+003,-3.950672e-003
1.841715e+003,-3.917213e-003
1.843644e+003,-3.967187e-003
1.845572e+003,-3.966498e-003
1.847501e+003,-3.877282e-003
1.849429e+003,-3.816853e-003
1.851358e+003,-3.802927e-003
1.853286e+003,-3.812156e-003
1.855215e+003,-3.755857e-003
1.857143e+003,-3.744590e-003
1.859072e+003,-3.766763e-003
1.861000e+003,-3.692717e-003
1.862929e+003,-3.601999e-003
1.864857e+003,-3.589841e-003
1.866786e+003,-3.678754e-003
1.868714e+003,-3.764792e-003
1.870643e+003,-3.686639e-003
1.872571e+003,-3.564833e-003
1.874500e+003,-3.514976e-003
1.876428e+003,-3.482108e-003
1.878357e+003,-3.447528e-003
1.880285e+003,-3.462189e-003
1.882214e+003,-3.451506e-003
1.884142e+003,-3.444602e-003
1.886071e+003,-3.356923e-003
1.887999e+003,-3.348901e-003
1.889928e+003,-3.342391e-003
1.891856e+003,-3.292772e-003
1.893785e+003,-3.253967e-003
1.895713e+003,-3.221638e-003
1.897642e+003,-3.208647e-003
1.899570e+003,-3.244397e-003
1.901499e+003,-3.233972e-003
1.903427e+003,-3.176611e-003
1.905356e+003,-3.158026e-003
1.907284e+003,-3.112169e-003
1.909213e+003,-3.105952e-003
1.911141e+003,-3.112893e-003
1.913070e+003,-3.069664e-003
1.914998e+003,-3.099109e-003
1.916927e+003,-3.207857e-003
1.918855e+003,-3.182827e-003
1.920784e+003,-3.126151e-003
1.922712e+003,-3.150427e-003
1.924641e+003,-3.084271e-003
1.926569e+003,-3.049298e-003
1.928498e+003,-3.134934e-003
1.930426e+003,-3.118223e-003
1.932355e+003,-3.092365e-003
1.934283e+003,-3.155954e-003
1.936212e+003,-3.200720e-003
1.938140e+003,-3.190820e-003
1.940069e+003,-3.207562e-003
1.941997e+003,-3.301124e-003
1.943926e+003,-3.332165e-003
1.945854e+003,-3.353964e-003
1.947783e+003,-3.412682e-003
1.949711e+003,-3.381779e-003
1.951640e+003,-3.347849e-003
1.953568e+003,-3.335519e-003
1.955497e+003,-3.307799e-003
1.957425e+003,-3.375467e-003
1.959354e+003,-3.461531e-003
1.961282e+003,-3.403214e-003
1.963211e+003,-3.453445e-003
1.965139e+003,-3.459888e-003
1.967068e+003,-3.412419e-003
1.968996e+003,-3.365472e-003
1.970925e+003,-3.328219e-003
1.972853e+003,-3.367707e-003
1.974782e+003,-3.290700e-003
1.976710e+003,-3.288431e-003
1.978639e+003,-3.306320e-003
1.980567e+003,-3.304741e-003
1.982496e+003,-3.249758e-003
1.984424e+003,-3.241075e-003
1.986353e+003,-3.214797e-003
1.988281e+003,-3.149441e-003
1.990210e+003,-3.159704e-003
1.992138e+003,-3.066538e-003
1.994067e+003,-2.962658e-003
1.995995e+003,-2.997178e-003
1.997924e+003,-2.947750e-003
1.999852e+003,-2.905886e-003
2.001781e+003,-2.956800e-003
2.003709e+003,-2.989214e-003
2.005638e+003,-2.939424e-003
2.007566e+003,-2.903780e-003
2.009495e+003,-2.915859e-003
2.011423e+003,-2.947947e-003
2.013352e+003,-2.880180e-003
2.015280e+003,-2.836763e-003
2.017208e+003,-2.841767e-003
2.019137e+003,-2.873762e-003
2.021066e+003,-2.889528e-003
2.022994e+003,-2.843775e-003
2.024922e+003,-2.803120e-003
2.026851e+003,-2.770988e-003
2.028780e+003,-2.752978e-003
2.030708e+003,-2.740203e-003
2.032636e+003,-2.692261e-003
2.034565e+003,-2.699110e-003
2.036494e+003,-2.739051e-003
2.038422e+003,-2.716661e-003
2.040350e+003,-2.661668e-003
2.042279e+003,-2.649549e-003
2.044208e+003,-2.710372e-003
2.046136e+003,-2.702963e-003
2.048064e+003,-2.654918e-003
2.049993e+003,-2.708989e-003
2.051921e+003,-2.773292e-003
2.053850e+003,-2.745010e-003
2.055778e+003,-2.688046e-003
2.057707e+003,-2.707276e-003
2.059635e+003,-2.590168e-003
2.061564e+003,-2.514933e-003
2.063492e+003,-2.558119e-003
2.065421e+003,-2.628406e-003
2.067349e+003,-2.621260e-003
2.069278e+003,-2.582988e-003
2.071206e+003,-2.547611e-003
2.073135e+003,-2.464429e-003
2.075063e+003,-2.372795e-003
2.076992e+003,-2.443310e-003
2.078920e+003,-2.447429e-003
2.080849e+003,-2.378496e-003
2.082777e+003,-2.385087e-003
2.084706e+003,-2.355989e-003
2.086634e+003,-2.359811e-003
2.088563e+003,-2.346728e-003
2.090491e+003,-2.269803e-003
2.092420e+003,-2.113011e-003
2.094348e+003,-2.044586e-003
2.096277e+003,-2.077695e-003
2.098205e+003,-2.107340e-003
2.100134e+003,-2.114495e-003
2.102062e+003,-2.018763e-003
2.103991e+003,-1.901568e-003
2.105919e+003,-1.859604e-003
2.107848e+003,-1.846242e-003
2.109776e+003,-1.804107e-003
2.111705e+003,-1.677381e-003
2.113633e+003,-1.605752e-003
2.115562e+003,-1.596508e-003
2.117490e+003,-1.534176e-003
2.119419e+003,-1.443237e-003
2.121347e+003,-1.446804e-003
2.123276e+003,-1.439407e-003
2.125204e+003,-1.429598e-003
2.127133e+003,-1.409882e-003
2.129061e+003,-1.246237e-003
2.130990e+003,-1.174206e-003
2.132918e+003,-1.227602e-003
2.134847e+003,-1.301772e-003
2.136775e+003,-1.331436e-003
2.138704e+003,-1.280695e-003
2.140632e+003,-1.263879e-003
2.142561e+003,-1.339694e-003
2.144489e+003,-1.378670e-003
2.146418e+003,-1.308742e-003
2.148346e+003,-1.220994e-003
2.150275e+003,-1.155833e-003
2.152203e+003,-1.187787e-003
2.154132e+003,-1.260212e-003
2.156060e+003,-1.263780e-003
2.157989e+003,-1.295462e-003
2.159917e+003,-1.297015e-003
2.161846e+003,-1.238737e-003
2.163774e+003,-1.224398e-003
2.165703e+003,-1.185870e-003
2.167631e+003,-1.164557e-003
2.169560e+003,-1.108872e-003
2.171488e+003,-1.061674e-003
2.173417e+003,-1.064715e-003
2.175345e+003,-1.124735e-003
2.177274e+003,-1.219177e-003
2.179202e+003,-1.189538e-003
2.181131e+003,-1.112243e-003
2.183059e+003,-1.152561e-003
2.184988e+003,-1.169646e-003
2.186916e+003,-1.080944e-003
2.188845e+003,-1.059989e-003
2.190773e+003,-1.069310e-003
2.192702e+003,-1.037148e-003
2.194630e+003,-1.066798e-003
2.196559e+003,-1.092148e-003
2.198487e+003,-1.087719e-003
2.200416e+003,-1.107219e-003
2.202344e+003,-1.061674e-003
2.204273e+003,-1.014538e-003
2.206201e+003,-1.025678e-003
2.208130e+003,-9.954309e-004
2.210058e+003,-1.003927e-003
2.211987e+003,-9.999598e-004
2.213915e+003,-9.013040e-004
2.215844e+003,-9.626028e-004
2.217772e+003,-1.066732e-003
2.219701e+003,-1.017943e-003
2.221629e+003,-1.018340e-003
2.223558e+003,-1.013480e-003
2.225486e+003,-1.020819e-003
2.227415e+003,-1.033744e-003
2.229343e+003,-9.996622e-004
2.231272e+003,-9.012379e-004
2.233200e+003,-9.151251e-004
2.235129e+003,-9.528167e-004
2.237057e+003,-9.711324e-004
2.238986e+003,-9.656774e-004
2.240914e+003,-9.805874e-004
2.242843e+003,-1.045842e-003
2.244771e+003,-1.019166e-003
2.246700e+003,-1.008687e-003
2.248628e+003,-1.069673e-003
2.250557e+003,-1.081109e-003
2.252485e+003,-1.154907e-003
2.254414e+003,-1.192182e-003
2.256342e+003,-1.140796e-003
2.258271e+003,-1.174867e-003
2.260199e+003,-1.238374e-003
2.262128e+003,-1.248550e-003
2.264056e+003,-1.186597e-003
2.265985e+003,-1.149422e-003
2.267913e+003,-1.263516e-003
2.269842e+003,-1.329322e-003
2.271770e+003,-1.319115e-003
2.273699e+003,-1.343163e-003
2.275627e+003,-1.337217e-003
2.277556e+003,-1.424347e-003
2.279484e+003,-1.581322e-003
2.281413e+003,-1.582577e-003
2.283341e+003,-1.632292e-003
2.285270e+003,-1.687679e-003
2.287198e+003,-1.583237e-003
2.289127e+003,-1.506243e-003
2.291055e+003,-1.487950e-003
2.292984e+003,-1.554911e-003
2.294912e+003,-1.630807e-003
2.296841e+003,-1.548902e-003
2.298769e+003,-1.543883e-003
2.300698e+003,-1.605124e-003
2.302626e+003,-1.622818e-003
2.304555e+003,-1.532525e-003
2.306483e+003,-1.443502e-003
2.308412e+003,-1.425668e-003
2.310340e+003,-1.470118e-003
2.312269e+003,-1.481048e-003
2.314197e+003,-1.409519e-003
2.316125e+003,-1.332328e-003
2.318054e+003,-1.352676e-003
2.319983e+003,-1.338770e-003
2.321911e+003,-1.347919e-003
2.323840e+003,-1.354790e-003
2.325768e+003,-1.288261e-003
2.327697e+003,-1.202227e-003
2.329625e+003,-1.097205e-003
2.331553e+003,-1.145654e-003
2.333482e+003,-1.121629e-003
2.335411e+003,-9.951002e-004
2.337339e+003,-9.565857e-004
2.339268e+003,-1.034834e-003
2.341196e+003,-1.094891e-003
2.343125e+003,-1.126949e-003
2.345053e+003,-1.134749e-003
2.346981e+003,-1.060551e-003
2.348910e+003,-9.855463e-004
2.350839e+003,-8.695271e-004
2.352767e+003,-8.282234e-004
2.354696e+003,-8.673115e-004
2.356624e+003,-7.646234e-004
2.358552e+003,-7.496398e-004
2.360481e+003,-8.538527e-004
2.362409e+003,-8.877139e-004
2.364338e+003,-8.534889e-004
2.366267e+003,-8.408563e-004
2.368195e+003,-8.985596e-004
2.370124e+003,-9.305328e-004
2.372052e+003,-8.466435e-004
2.373980e+003,-8.094718e-004
2.375909e+003,-8.800755e-004
2.377838e+003,-7.958789e-004
2.379766e+003,-6.150953e-004
2.381695e+003,-5.255191e-004
2.383623e+003,-5.405105e-004
2.385552e+003,-4.342364e-004
2.387480e+003,-3.646858e-004
2.389408e+003,-3.443580e-004
2.391337e+003,-3.073751e-004
2.393266e+003,-3.059844e-004
2.395194e+003,-2.604880e-004
2.397123e+003,-2.599581e-004
2.399051e+003,-3.253207e-004
2.400979e+003,-3.501519e-004
2.402908e+003,-3.393256e-004
2.404836e+003,-3.384979e-004
2.406765e+003,-3.399547e-004
2.408694e+003,-3.132687e-004
2.410622e+003,-2.348237e-004
2.412551e+003,-1.413599e-004
2.414479e+003,-1.516280e-004
2.416407e+003,-1.948176e-004
2.418336e+003,-1.566295e-004
2.420264e+003,-1.060160e-004
2.422193e+003,-1.129856e-005
2.424122e+003,3.157789e-005
2.426050e+003,6.087149e-005
2.427979e+003,1.977558e-004
2.429907e+003,2.554723e-004
2.431835e+003,3.241387e-004
2.433764e+003,3.774613e-004
2.435692e+003,4.036607e-004
2.437621e+003,4.057833e-004
2.439550e+003,4.760325e-004
2.441478e+003,5.023374e-004
2.443406e+003,4.715213e-004
2.445335e+003,4.396793e-004
2.447263e+003,4.877086e-004
2.449192e+003,5.590658e-004
2.451121e+003,6.327908e-004
2.453049e+003,6.636847e-004
2.454978e+003,7.045701e-004
2.456906e+003,7.350377e-004
2.458834e+003,7.184097e-004
2.460763e+003,7.999293e-004
2.462691e+003,8.807337e-004
2.464620e+003,9.795189e-004
2.466549e+003,1.006518e-003
2.468477e+003,8.892334e-004
2.470406e+003,8.381053e-004
2.472334e+003,8.610790e-004
2.474262e+003,9.949944e-004
2.476191e+003,1.080054e-003
2.478119e+003,1.011135e-003
2.480048e+003,9.720801e-004
2.481977e+003,1.054411e-003
2.483905e+003,1.099087e-003
2.485833e+003,1.065206e-003
2.487762e+003,1.062283e-003
2.489690e+003,1.148419e-003
2.491619e+003,1.218855e-003
2.493547e+003,1.253013e-003
2.495476e+003,1.218257e-003
2.497405e+003,1.233707e-003
2.499333e+003,1.311635e-003
2.501261e+003,1.384091e-003
2.503190e+003,1.331808e-003
2.505118e+003,1.249624e-003
2.507047e+003,1.255107e-003
2.508975e+003,1.304224e-003
2.510904e+003,1.386318e-003
2.512833e+003,1.477239e-003
2.514761e+003,1.502342e-003
2.516689e+003,1.411914e-003
2.518618e+003,1.382828e-003
2.520546e+003,1.408357e-003
2.522475e+003,1.447850e-003
2.524403e+003,1.472053e-003
2.526332e+003,1.492699e-003
2.528260e+003,1.529573e-003
2.530189e+003,1.549857e-003
2.532117e+003,1.623883e-003
2.534046e+003,1.664560e-003
2.535974e+003,1.719378e-003
2.537903e+003,1.736709e-003
2.539831e+003,1.740535e-003
2.541760e+003,1.778528e-003
2.543688e+003,1.719311e-003
2.545617e+003,1.639980e-003
2.547545e+003,1.689972e-003
2.549474e+003,1.789474e-003
2.551402e+003,1.839350e-003
2.553331e+003,1.849133e-003
2.555259e+003,1.831830e-003
2.557188e+003,1.825940e-003
2.559116e+003,1.765919e-003
2.561045e+003,1.755672e-003
2.562973e+003,1.929334e-003
2.564902e+003,1.976663e-003
2.566830e+003,1.941415e-003
2.568759e+003,2.022499e-003
2.570687e+003,2.051028e-003
2.572616e+003,2.067674e-003
2.574544e+003,2.106328e-003
2.576473e+003,2.011680e-003
2.578401e+003,1.961451e-003
2.580330e+003,1.966677e-003
2.582258e+003,1.934193e-003
2.584187e+003,1.956659e-003
2.586115e+003,2.078594e-003
2.588044e+003,2.149580e-003
2.589972e+003,2.197666e-003
2.591901e+003,2.193270e-003
2.593829e+003,2.209855e-003
2.595758e+003,2.233501e-003
2.597686e+003,2.143187e-003
2.599615e+003,2.180083e-003
2.601543e+003,2.282262e-003
2.603472e+003,2.193304e-003
2.605400e+003,2.112954e-003
2.607329e+003,2.147349e-003
2.609257e+003,2.227739e-003
2.611186e+003,2.321168e-003
2.613114e+003,2.337957e-003
2.615043e+003,2.363376e-003
2.616971e+003,2.479127e-003
2.618900e+003,2.456601e-003
2.620828e+003,2.387396e-003
2.622757e+003,2.457100e-003
2.624685e+003,2.616209e-003
2.626614e+003,2.645544e-003
2.628542e+003,2.574010e-003
2.630471e+003,2.426212e-003
2.632399e+003,2.424779e-003
2.634328e+003,2.372704e-003
2.636256e+003,2.328297e-003
2.638185e+003,2.451802e-003
2.640113e+003,2.561978e-003
2.642042e+003,2.617876e-003
2.643970e+003,2.574243e-003
2.645899e+003,2.646744e-003
2.647827e+003,2.773708e-003
2.649756e+003,2.779811e-003
2.651684e+003,2.729093e-003
2.653613e+003,2.797985e-003
2.655541e+003,2.895773e-003
2.657470e+003,2.879262e-003
2.659398e+003,2.860951e-003
2.661327e+003,2.909716e-003
2.663255e+003,2.919523e-003
2.665184e+003,2.951981e-003
2.667112e+003,3.094619e-003
2.669041e+003,3.131963e-003
2.670969e+003,3.097689e-003
2.672898e+003,3.160598e-003
2.674826e+003,3.159163e-003
2.676755e+003,3.147582e-003
2.678683e+003,3.186699e-003
2.680612e+003,3.223283e-003
2.682540e+003,3.309915e-003
2.684469e+003,3.296994e-003
2.686397e+003,3.298997e-003
2.688326e+003,3.412761e-003
2.690254e+003,3.466063e-003
2.692183e+003,3.473945e-003
2.694111e+003,3.505276e-003
2.696040e+003,3.597577e-003
2.697968e+003,3.676598e-003
2.699897e+003,3.660960e-003
2.701825e+003,3.633093e-003
2.703754e+003,3.667743e-003
2.705682e+003,3.723483e-003
2.707611e+003,3.814995e-003
2.709539e+003,3.875033e-003
2.711468e+003,3.801357e-003
2.713396e+003,3.780801e-003
2.715325e+003,3.807574e-003
2.717253e+003,3.855376e-003
2.719182e+003,3.907061e-003
2.721110e+003,3.994832e-003
2.723039e+003,4.113561e-003
2.724967e+003,4.159690e-003
2.726896e+003,4.202378e-003
2.728824e+003,4.204888e-003
2.730753e+003,4.184881e-003
2.732681e+003,4.231319e-003
2.734610e+003,4.293289e-003
2.736538e+003,4.431145e-003
2.738467e+003,4.461072e-003
2.740395e+003,4.577049e-003
2.742324e+003,4.591716e-003
2.744252e+003,4.575040e-003
2.746181e+003,4.566234e-003
2.748109e+003,4.628887e-003
2.750038e+003,4.815394e-003
2.751966e+003,4.933946e-003
2.753895e+003,4.950233e-003
2.755823e+003,5.017266e-003
2.757752e+003,5.106503e-003
2.759680e+003,5.205986e-003
2.761609e+003,5.426626e-003
2.763537e+003,5.651306e-003
2.765466e+003,5.717406e-003
2.767394e+003,5.878083e-003
2.769323e+003,6.143894e-003
2.771251e+003,6.408824e-003
2.773180e+003,6.786851e-003
2.775108e+003,7.110775e-003
2.777037e+003,7.331577e-003
2.778965e+003,7.594232e-003
2.780894e+003,8.040828e-003
2.782822e+003,8.370789e-003
2.784750e+003,8.637285e-003
2.786679e+003,9.220178e-003
2.788608e+003,9.727201e-003
2.790536e+003,1.005699e-002
2.792465e+003,1.042314e-002
2.794393e+003,1.069236e-002
2.796322e+003,1.093687e-002
2.798250e+003,1.127696e-002
2.800178e+003,1.166456e-002
2.802107e+003,1.205728e-002
2.804036e+003,1.229721e-002
2.805964e+003,1.251790e-002
2.807893e+003,1.259113e-002
2.809821e+003,1.239644e-002
2.811750e+003,1.239071e-002
2.813678e+003,1.248642e-002
2.815606e+003,1.243521e-002
2.817535e+003,1.229564e-002
2.819464e+003,1.210807e-002
2.821392e+003,1.195941e-002
2.823321e+003,1.171511e-002
2.825249e+003,1.138988e-002
2.827177e+003,1.120600e-002
2.829106e+003,1.095668e-002
2.831034e+003,1.054798e-002
2.832963e+003,1.019669e-002
2.834892e+003,9.937947e-003
2.836820e+003,9.502199e-003
2.838749e+003,9.059241e-003
2.840677e+003,8.627754e-003
2.842605e+003,8.186260e-003
2.844534e+003,7.739853e-003
2.846462e+003,7.232414e-003
2.848391e+003,6.750639e-003
2.850320e+003,6.432498e-003
2.852248e+003,6.293735e-003
2.854177e+003,6.224791e-003
2.856105e+003,6.121546e-003
2.858033e+003,6.089018e-003
2.859962e+003,6.125242e-003
2.861890e+003,6.062977e-003
2.863819e+003,6.100981e-003
2.865748e+003,6.221900e-003
2.867676e+003,6.261094e-003
2.869604e+003,6.242774e-003
2.871533e+003,6.230438e-003
2.873461e+003,6.309166e-003
2.875390e+003,6.385790e-003
2.877319e+003,6.410976e-003
2.879247e+003,6.598284e-003
2.881176e+003,6.786346e-003
2.883104e+003,6.755350e-003
2.885032e+003,6.546177e-003
2.886961e+003,6.512642e-003
2.888889e+003,6.530401e-003
2.890818e+003,6.415886e-003
2.892747e+003,6.252589e-003
2.894675e+003,6.122823e-003
2.896604e+003,6.136231e-003
2.898532e+003,6.160126e-003
2.900460e+003,6.067245e-003
2.902389e+003,5.907304e-003
2.904317e+003,5.797855e-003
2.906246e+003,5.742956e-003
2.908175e+003,5.678933e-003
2.910103e+003,5.608441e-003
2.912031e+003,5.477928e-003
2.913960e+003,5.236033e-003
2.915888e+003,4.926539e-003
2.917817e+003,4.831275e-003
2.919745e+003,4.927612e-003
2.921674e+003,5.049747e-003
2.923603e+003,4.993200e-003
2.925531e+003,4.968666e-003
2.927459e+003,5.127222e-003
2.929388e+003,5.260481e-003
2.931316e+003,5.395794e-003
2.933245e+003,5.591693e-003
2.935173e+003,5.773108e-003
2.937102e+003,5.815619e-003
2.939031e+003,5.772805e-003
2.940959e+003,5.778379e-003
2.942887e+003,5.611093e-003
2.944816e+003,5.478666e-003
2.946744e+003,5.410992e-003
2.948673e+003,5.214068e-003
2.950601e+003,4.880094e-003
2.952530e+003,4.557862e-003
2.954458e+003,4.178993e-003
2.956387e+003,3.851765e-003
2.958315e+003,3.533235e-003
2.960244e+003,3.095687e-003
2.962172e+003,2.748733e-003
2.964101e+003,2.478494e-003
2.966029e+003,2.268772e-003
2.967958e+003,2.075065e-003
2.969886e+003,1.803880e-003
2.971815e+003,1.509390e-003
2.973743e+003,1.282390e-003
2.975672e+003,1.181808e-003
2.977600e+003,1.134732e-003
2.979529e+003,1.092178e-003
2.981457e+003,8.997585e-004
2.983386e+003,7.263087e-004
2.985314e+003,5.638102e-004
2.987243e+003,4.684365e-004
2.989171e+003,4.597461e-004
2.991100e+003,5.203835e-004
2.993028e+003,3.863490e-004
2.994957e+003,2.503667e-004
2.996885e+003,2.097228e-004
2.998814e+003,2.655511e-004
3.000742e+003,2.263976e-004
3.002671e+003,8.688614e-005
3.004599e+003,7.936328e-005
3.006528e+003,1.819108e-004
3.008456e+003,9.344804e-005
3.010385e+003,-5.668864e-005
3.012313e+003,9.102875e-005
3.014242e+003,2.456590e-004
3.016170e+003,2.650869e-004
3.018099e+003,2.015017e-004
3.020027e+003,1.774690e-004
3.021956e+003,1.019654e-004
3.023884e+003,-4.830674e-005
3.025813e+003,-1.362258e-004
3.027741e+003,-2.124697e-004
3.029670e+003,-2.816302e-005
3.031598e+003,5.855180e-005
3.033527e+003,-7.305441e-005
3.035455e+003,-5.632421e-005
3.037384e+003,-2.557873e-005
3.039312e+003,-2.165101e-004
3.041241e+003,-4.014652e-004
3.043169e+003,-4.673360e-004
3.045098e+003,-3.859063e-004
3.047026e+003,-2.764156e-004
3.048955e+003,-2.825414e-004
3.050883e+003,-3.439276e-004
3.052812e+003,-4.039480e-004
3.054740e+003,-3.749155e-004
3.056669e+003,-3.127390e-004
3.058597e+003,-4.587634e-004
3.060526e+003,-5.325019e-004
3.062454e+003,-4.734923e-004
3.064383e+003,-4.921591e-004
3.066311e+003,-5.917020e-004
3.068240e+003,-5.390875e-004
3.070168e+003,-5.994778e-004
3.072097e+003,-7.097473e-004
3.074025e+003,-6.630028e-004
3.075954e+003,-5.989153e-004
3.077882e+003,-6.022242e-004
3.079811e+003,-7.195057e-004
3.081739e+003,-8.056685e-004
3.083668e+003,-7.908186e-004
3.085596e+003,-7.578097e-004
3.087525e+003,-7.831785e-004
3.089453e+003,-7.663764e-004
3.091382e+003,-7.266839e-004
3.093310e+003,-7.833108e-004
3.095239e+003,-8.014683e-004
3.097167e+003,-7.380628e-004
3.099096e+003,-8.039487e-004
3.101024e+003,-9.160839e-004
3.102953e+003,-8.774301e-004
3.104881e+003,-9.714960e-004
3.106810e+003,-9.836950e-004
3.108738e+003,-8.167477e-004
3.110667e+003,-8.819603e-004
3.112595e+003,-9.801246e-004
3.114524e+003,-9.499735e-004
3.116452e+003,-9.446836e-004
3.118381e+003,-9.364841e-004
3.120309e+003,-9.930506e-004
3.122238e+003,-1.053775e-003
3.124166e+003,-1.107186e-003
3.126095e+003,-1.111714e-003
3.128023e+003,-1.072846e-003
3.129952e+003,-1.004389e-003
3.131880e+003,-9.578090e-004
3.133809e+003,-1.012786e-003
3.135737e+003,-1.113069e-003
3.137666e+003,-1.060716e-003
3.139594e+003,-9.694794e-004
3.141523e+003,-8.830515e-004
3.143451e+003,-8.975345e-004
3.145380e+003,-9.692810e-004
3.147308e+003,-9.427660e-004
3.149237e+003,-9.772815e-004
3.151165e+003,-1.057543e-003
3.153094e+003,-1.108112e-003
3.155022e+003,-1.099915e-003
3.156951e+003,-1.002142e-003
3.158879e+003,-8.418154e-004
3.160808e+003,-7.523191e-004
3.162736e+003,-8.102655e-004
3.164665e+003,-9.032548e-004
3.166593e+003,-1.006274e-003
3.168522e+003,-9.817114e-004
3.170450e+003,-9.298715e-004
3.172379e+003,-9.254741e-004
3.174307e+003,-8.164500e-004
3.176236e+003,-7.414698e-004
3.178164e+003,-8.706513e-004
3.180093e+003,-8.615576e-004
3.182021e+003,-8.273636e-004
3.183950e+003,-8.508764e-004
3.185878e+003,-9.411790e-004
3.187807e+003,-9.787361e-004
3.189735e+003,-9.086445e-004
3.191664e+003,-9.731490e-004
3.193592e+003,-1.022637e-003
3.195521e+003,-9.280531e-004
3.197449e+003,-7.872136e-004
3.199378e+003,-7.808633e-004
3.201306e+003,-7.604228e-004
3.203235e+003,-7.347550e-004
3.205163e+003,-7.361443e-004
3.207092e+003,-8.144988e-004
3.209020e+003,-9.297723e-004
3.210948e+003,-8.655920e-004
3.212877e+003,-7.615143e-004
3.214806e+003,-6.843081e-004
3.216734e+003,-7.283378e-004
3.218663e+003,-6.721668e-004
3.220591e+003,-4.936816e-004
3.222520e+003,-4.227171e-004
3.224448e+003,-5.349839e-004
3.226376e+003,-4.226178e-004
3.228305e+003,-2.368438e-004
3.230234e+003,-1.792513e-004
3.232162e+003,-1.556027e-004
3.234091e+003,-2.130327e-004
3.236019e+003,-1.451360e-004
3.237948e+003,2.664058e-005
3.239876e+003,1.006066e-004
3.241804e+003,7.982724e-005
3.243733e+003,-3.982529e-005
3.245662e+003,8.774780e-005
3.247590e+003,8.681986e-005
3.249519e+003,1.319598e-004
3.251447e+003,2.144302e-004
3.253375e+003,2.694965e-004
3.255304e+003,3.691043e-004
3.257232e+003,5.171325e-004
3.259161e+003,7.025457e-004
3.261090e+003,7.860208e-004
3.263018e+003,6.900341e-004
3.264947e+003,5.606915e-004
3.266875e+003,5.609569e-004
3.268803e+003,6.832973e-004
3.270732e+003,7.703866e-004
3.272660e+003,8.688146e-004
3.274589e+003,9.439204e-004
3.276518e+003,9.516243e-004
3.278446e+003,9.370800e-004
3.280375e+003,9.170907e-004
3.282303e+003,1.010603e-003
3.284231e+003,9.173895e-004
3.286160e+003,8.520819e-004
3.288088e+003,8.230669e-004
3.290017e+003,7.098470e-004
3.291946e+003,6.753327e-004
3.293874e+003,5.996097e-004
3.295802e+003,5.028681e-004
3.297731e+003,4.661478e-004
3.299659e+003,4.070767e-004
3.301588e+003,2.852784e-004
3.303516e+003,1.411408e-004
3.305445e+003,9.082990e-005
3.307374e+003,-2.153659e-005
3.309302e+003,-4.621952e-005
3.311230e+003,-8.892266e-005
3.313159e+003,-3.667383e-004
3.315087e+003,-5.359767e-004
3.317016e+003,-6.073859e-004
3.318944e+003,-6.180731e-004
3.320873e+003,-5.151937e-004
3.322802e+003,-6.796435e-004
3.324730e+003,-1.007861e-003
3.326658e+003,-1.066897e-003
3.328587e+003,-9.900423e-004
3.330515e+003,-9.512960e-004
3.332444e+003,-9.050734e-004
3.334372e+003,-9.738103e-004
3.336301e+003,-1.034603e-003
3.338229e+003,-1.048420e-003
3.340158e+003,-1.185837e-003
3.342086e+003,-1.290111e-003
3.344015e+003,-1.146315e-003
3.345943e+003,-1.163169e-003
3.347872e+003,-1.310064e-003
3.349800e+003,-1.270586e-003
3.351729e+003,-1.218880e-003
3.353657e+003,-1.409849e-003
3.355586e+003,-1.524238e-003
3.357514e+003,-1.615985e-003
3.359443e+003,-1.695204e-003
3.361371e+003,-1.660086e-003
3.363300e+003,-1.711971e-003
3.365229e+003,-1.933567e-003
3.367157e+003,-2.002834e-003
3.369085e+003,-1.996600e-003
3.371014e+003,-2.074925e-003
3.372942e+003,-2.039969e-003
3.374871e+003,-2.162666e-003
3.376799e+003,-2.258069e-003
3.378728e+003,-2.401892e-003
3.380656e+003,-2.560688e-003
3.382585e+003,-2.746854e-003
3.384513e+003,-2.855757e-003
3.386442e+003,-2.966409e-003
3.388370e+003,-2.896901e-003
3.390299e+003,-2.803185e-003
3.392227e+003,-2.740565e-003
3.394156e+003,-2.688606e-003
3.396084e+003,-2.773720e-003
3.398013e+003,-2.877251e-003
3.399941e+003,-2.891240e-003
3.401870e+003,-2.971576e-003
3.403798e+003,-2.932183e-003
3.405727e+003,-2.985957e-003
3.407655e+003,-2.985298e-003
3.409584e+003,-2.980297e-003
3.411512e+003,-3.191478e-003
3.413441e+003,-3.310890e-003
3.415369e+003,-3.165822e-003
3.417298e+003,-3.075125e-003
3.419226e+003,-3.148881e-003
3.421155e+003,-3.348342e-003
3.423083e+003,-3.391609e-003
3.425012e+003,-3.209206e-003
3.426940e+003,-3.349032e-003
3.428869e+003,-3.507680e-003
3.430797e+003,-3.338182e-003
3.432726e+003,-3.356331e-003
3.434654e+003,-3.517606e-003
3.436583e+003,-3.555236e-003
3.438511e+003,-3.490128e-003
3.440440e+003,-3.427969e-003
3.442368e+003,-3.261663e-003
3.444297e+003,-3.305136e-003
3.446225e+003,-3.528123e-003
3.448154e+003,-3.630554e-003
3.450082e+003,-3.601868e-003
3.452011e+003,-3.627268e-003
3.453939e+003,-3.860139e-003
3.455868e+003,-3.970832e-003
3.457796e+003,-3.768438e-003
3.459725e+003,-3.572753e-003
3.461653e+003,-3.480267e-003
3.463582e+003,-3.567758e-003
3.465510e+003,-3.737396e-003
3.467439e+003,-3.775106e-003
3.469367e+003,-3.653981e-003
3.471296e+003,-3.693046e-003
3.473224e+003,-3.945320e-003
3.475153e+003,-4.065707e-003
3.477081e+003,-3.937111e-003
3.479010e+003,-3.853670e-003
3.480938e+003,-3.754904e-003
3.482867e+003,-3.709374e-003
3.484795e+003,-3.623259e-003
3.486724e+003,-3.553593e-003
3.488652e+003,-3.633084e-003
3.490581e+003,-3.795077e-003
3.492509e+003,-3.791529e-003
3.494438e+003,-3.595953e-003
3.496366e+003,-3.453445e-003
3.498295e+003,-3.566279e-003
3.500223e+003,-3.657924e-003
3.502152e+003,-3.897872e-003
3.504080e+003,-4.102733e-003
3.506009e+003,-3.969026e-003
3.507937e+003,-3.744820e-003
3.509866e+003,-3.657267e-003
3.511794e+003,-3.698697e-003
3.513723e+003,-3.813207e-003
3.515651e+003,-3.907263e-003
3.517580e+003,-3.854556e-003
3.519508e+003,-3.762788e-003
3.521437e+003,-3.660585e-003
3.523365e+003,-3.686147e-003
3.525294e+003,-3.729183e-003
3.527222e+003,-3.702705e-003
3.529151e+003,-3.749287e-003
3.531079e+003,-3.770540e-003
3.533008e+003,-3.801120e-003
3.534936e+003,-3.764890e-003
3.536865e+003,-3.823258e-003
3.538793e+003,-3.764890e-003
3.540722e+003,-3.559443e-003
3.542650e+003,-3.518164e-003
3.544579e+003,-3.637816e-003
3.546507e+003,-3.739531e-003
3.548436e+003,-3.883390e-003
3.550364e+003,-3.897248e-003
3.552293e+003,-3.739334e-003
3.554221e+003,-3.722810e-003
3.556150e+003,-3.805029e-003
3.558078e+003,-3.763609e-003
3.560007e+003,-3.705366e-003
3.561935e+003,-3.558950e-003
3.563864e+003,-3.666072e-003
3.565792e+003,-3.758025e-003
3.567721e+003,-3.765712e-003
3.569649e+003,-3.770179e-003
3.571578e+003,-3.768405e-003
3.573506e+003,-3.655624e-003
3.575435e+003,-3.554119e-003
3.577363e+003,-3.478821e-003
3.579292e+003,-3.454530e-003
3.581220e+003,-3.738348e-003
3.583149e+003,-3.900138e-003
3.585077e+003,-3.752277e-003
3.587006e+003,-3.748433e-003
3.588934e+003,-3.649086e-003
3.590863e+003,-3.614486e-003
3.592791e+003,-3.745280e-003
3.594720e+003,-3.820630e-003
3.596648e+003,-3.667781e-003
3.598577e+003,-3.464917e-003
3.600505e+003,-3.349986e-003
3.602434e+003,-3.423564e-003
3.604362e+003,-3.369943e-003
3.606291e+003,-3.426227e-003
3.608219e+003,-3.458540e-003
3.610148e+003,-3.385231e-003
3.612076e+003,-3.500252e-003
3.614005e+003,-3.550668e-003
3.615933e+003,-3.519972e-003
3.617862e+003,-3.336702e-003
3.619790e+003,-3.307207e-003
3.621719e+003,-3.448711e-003
3.623647e+003,-3.475994e-003
3.625576e+003,-3.442400e-003
3.627504e+003,-3.391247e-003
3.629433e+003,-3.386842e-003
3.631361e+003,-3.396113e-003
3.633290e+003,-3.448383e-003
3.635218e+003,-3.553232e-003
3.637146e+003,-3.671789e-003
3.639075e+003,-3.570781e-003
3.641004e+003,-3.381220e-003
3.642932e+003,-3.373428e-003
3.644861e+003,-3.548138e-003
3.646789e+003,-3.565523e-003
3.648718e+003,-3.785124e-003
3.650646e+003,-3.741042e-003
3.652574e+003,-3.534762e-003
3.654503e+003,-3.629010e-003
3.656432e+003,-3.757927e-003
3.658360e+003,-3.817904e-003
3.660289e+003,-3.780592e-003
3.662217e+003,-3.840861e-003
3.664146e+003,-3.895343e-003
3.666074e+003,-3.919052e-003
3.668002e+003,-4.000577e-003
3.669931e+003,-4.051395e-003
3.671860e+003,-4.213297e-003
3.673788e+003,-4.424176e-003
3.675717e+003,-4.270718e-003
3.677645e+003,-3.945583e-003
3.679573e+003,-4.017550e-003
3.681502e+003,-4.048474e-003
3.683430e+003,-3.996670e-003
3.685359e+003,-3.945320e-003
3.687288e+003,-3.794814e-003
3.689216e+003,-3.646523e-003
3.691145e+003,-3.654803e-003
3.693073e+003,-3.647081e-003
3.695001e+003,-3.778621e-003
3.696930e+003,-3.843948e-003
3.698858e+003,-3.966596e-003
3.700787e+003,-3.833143e-003
3.702716e+003,-3.627728e-003
3.704644e+003,-3.586916e-003
3.706573e+003,-3.626447e-003
3.708501e+003,-3.664199e-003
3.710429e+003,-3.611923e-003
3.712358e+003,-3.665974e-003
3.714286e+003,-3.647804e-003
3.716215e+003,-3.665218e-003
3.718144e+003,-3.654934e-003
3.720072e+003,-3.669982e-003
3.722000e+003,-3.719361e-003
3.723929e+003,-3.690516e-003
3.725857e+003,-3.524639e-003
3.727786e+003,-3.257979e-003
3.729714e+003,-3.277250e-003
3.731643e+003,-3.763938e-003
3.733572e+003,-4.084844e-003
3.735500e+003,-3.876822e-003
3.737428e+003,-3.632986e-003
3.739357e+003,-3.473496e-003
3.741285e+003,-3.379675e-003
3.743214e+003,-3.353898e-003
3.745142e+003,-3.243378e-003
3.747071e+003,-3.252849e-003
3.749000e+003,-3.128881e-003
3.750928e+003,-3.101083e-003
3.752856e+003,-2.953476e-003
3.754785e+003,-3.008168e-003
3.756713e+003,-3.097662e-003
3.758642e+003,-3.018204e-003
3.760570e+003,-2.903155e-003
3.762499e+003,-2.784716e-003
3.764427e+003,-2.884394e-003
3.766356e+003,-2.880543e-003
3.768284e+003,-2.842228e-003
3.770213e+003,-2.774082e-003
3.772141e+003,-2.670494e-003
3.774070e+003,-2.758806e-003
3.775998e+003,-2.752254e-003
3.777927e+003,-2.809243e-003
3.779855e+003,-2.945940e-003
3.781784e+003,-2.772436e-003
3.783712e+003,-2.494179e-003
3.785641e+003,-2.394116e-003
3.787569e+003,-2.587928e-003
3.789498e+003,-2.687223e-003
3.791426e+003,-2.629131e-003
3.793355e+003,-2.662525e-003
3.795283e+003,-2.634631e-003
3.797212e+003,-2.605055e-003
3.799140e+003,-2.863196e-003
3.801069e+003,-2.995170e-003
3.802997e+003,-2.887553e-003
3.804926e+003,-2.957261e-003
3.806854e+003,-2.788832e-003
3.808783e+003,-2.898020e-003
3.810711e+003,-2.868956e-003
3.812640e+003,-2.731840e-003
3.814568e+003,-2.987404e-003
3.816497e+003,-2.661800e-003
3.818425e+003,-2.088478e-003
3.820354e+003,-2.051512e-003
3.822282e+003,-2.291393e-003
3.824211e+003,-2.423508e-003
3.826139e+003,-2.666740e-003
3.828068e+003,-2.646619e-003
3.829996e+003,-2.420476e-003
3.831925e+003,-2.374245e-003
3.833853e+003,-2.461398e-003
3.835782e+003,-2.398070e-003
3.837710e+003,-2.149214e-003
3.839639e+003,-2.315980e-003
3.841567e+003,-2.514670e-003
3.843496e+003,-2.538026e-003
3.845424e+003,-2.468548e-003
3.847353e+003,-2.495365e-003
3.849281e+003,-2.440443e-003
3.851210e+003,-2.549785e-003
3.853138e+003,-2.582197e-003
3.855067e+003,-2.275374e-003
3.856995e+003,-2.391908e-003
3.858924e+003,-2.580748e-003
3.860852e+003,-2.401629e-003
3.862781e+003,-2.150335e-003
3.864709e+003,-2.094809e-003
3.866638e+003,-2.248213e-003
3.868566e+003,-2.332986e-003
3.870495e+003,-2.172491e-003
3.872423e+003,-2.120760e-003
3.874352e+003,-2.204502e-003
3.876280e+003,-2.318781e-003
3.878209e+003,-2.496617e-003
3.880137e+003,-2.573337e-003
3.882066e+003,-2.447396e-003
3.883994e+003,-2.415765e-003
3.885923e+003,-2.324944e-003
3.887851e+003,-2.493817e-003
3.889780e+003,-2.627089e-003
3.891708e+003,-2.648067e-003
3.893637e+003,-2.620008e-003
3.895565e+003,-2.307971e-003
3.897494e+003,-2.259816e-003
3.899422e+003,-2.257805e-003
3.901351e+003,-2.301214e-003
3.903279e+003,-2.385647e-003
3.905208e+003,-2.286317e-003
3.907136e+003,-2.277615e-003
3.909065e+003,-2.351210e-003
3.910993e+003,-2.330580e-003
3.912922e+003,-2.217985e-003
3.914850e+003,-2.097546e-003
3.916779e+003,-2.126068e-003
3.918707e+003,-2.209843e-003
3.920636e+003,-2.145258e-003
3.922564e+003,-2.324911e-003
3.924493e+003,-2.231534e-003
3.926421e+003,-2.112648e-003
3.928350e+003,-2.270001e-003
3.930278e+003,-2.377870e-003
3.932207e+003,-2.248576e-003
3.934135e+003,-2.015663e-003
3.936064e+003,-1.904142e-003
3.937992e+003,-1.849013e-003
3.939921e+003,-1.936931e-003
3.941849e+003,-1.925848e-003
3.943778e+003,-1.872900e-003
3.945706e+003,-2.042113e-003
3.947635e+003,-2.141169e-003
3.949563e+003,-1.949499e-003
3.951492e+003,-1.883061e-003
3.953420e+003,-1.888372e-003
3.955349e+003,-1.926342e-003
3.957277e+003,-2.059459e-003
3.959206e+003,-2.083928e-003
3.961134e+003,-2.125475e-003
3.963063e+003,-2.173315e-003
3.964991e+003,-2.281702e-003
3.966920e+003,-2.394577e-003
3.968848e+003,-2.316507e-003
3.970777e+003,-2.052105e-003
3.972705e+003,-1.970016e-003
3.974634e+003,-2.098568e-003
3.976562e+003,-2.037100e-003
3.978491e+003,-2.100118e-003
3.980419e+003,-2.064142e-003
3.982348e+003,-2.199392e-003
3.984276e+003,-2.094051e-003
3.986205e+003,-2.017312e-003
3.988133e+003,-1.838257e-003
3.990062e+003,-1.839115e-003
3.991990e+003,-1.950522e-003
3.993919e+003,-1.978031e-003
3.995847e+003,-2.076244e-003
3.997776e+003,-2.129728e-003
3.999704e+003,-2.113242e-003
4.001633e+003,0.000000e+000
