3.991989e+002,4.522425e-002
4.011274e+002,5.030359e-002
4.030559e+002,3.367147e-002
4.049844e+002,2.262315e-002
4.069129e+002,2.721339e-002
4.088414e+002,3.106488e-002
4.107699e+002,2.719836e-002
4.126984e+002,2.244419e-002
4.146269e+002,2.115878e-002
4.165554e+002,2.597120e-002
4.184839e+002,3.083983e-002
4.204124e+002,2.961935e-002
4.223409e+002,3.098410e-002
4.242694e+002,3.177643e-002
4.261979e+002,2.709244e-002
4.281264e+002,2.423120e-002
4.300549e+002,2.621053e-002
4.319834e+002,2.023755e-002
4.339119e+002,1.656319e-002
4.358404e+002,1.940953e-002
4.377689e+002,2.125522e-002
4.396974e+002,1.803875e-002
4.416259e+002,1.729820e-002
4.435544e+002,2.000679e-002
4.454829e+002,2.151749e-002
4.474114e+002,2.594855e-002
4.493399e+002,2.444623e-002
4.512684e+002,1.871279e-002
4.531969e+002,1.960184e-002
4.551254e+002,2.157341e-002
4.570539e+002,1.986657e-002
4.589824e+002,1.732500e-002
4.609109e+002,1.865028e-002
4.628394e+002,2.066996e-002
4.647679e+002,2.138322e-002
4.666964e+002,2.120278e-002
4.686249e+002,1.961671e-002
4.705533e+002,1.863576e-002
4.724819e+002,1.981264e-002
4.744103e+002,2.073213e-002
4.763389e+002,2.088070e-002
4.782673e+002,2.014088e-002
4.801959e+002,2.051991e-002
4.821243e+002,2.167074e-002
4.840529e+002,2.089832e-002
4.859813e+002,1.863351e-002
4.879099e+002,1.852087e-002
4.898383e+002,2.041737e-002
4.917668e+002,2.464492e-002
4.936953e+002,2.000603e-002
4.956238e+002,1.110839e-002
4.975523e+002,1.474377e-002
4.994808e+002,2.065804e-002
5.014093e+002,1.955178e-002
5.033378e+002,2.035459e-002
5.052663e+002,2.113783e-002
5.071948e+002,2.054037e-002
5.091233e+002,1.977172e-002
5.110518e+002,1.853018e-002
5.129803e+002,1.907963e-002
5.149088e+002,1.923251e-002
5.168373e+002,1.965831e-002
5.187658e+002,2.006939e-002
5.206943e+002,2.082841e-002
5.226228e+002,2.044627e-002
5.245513e+002,1.976659e-002
5.264798e+002,1.953359e-002
5.284083e+002,1.951702e-002
5.303368e+002,1.834785e-002
5.322653e+002,1.790952e-002
5.341938e+002,1.893088e-002
5.361223e+002,1.957345e-002
5.380508e+002,1.924044e-002
5.399792e+002,2.051230e-002
5.419078e+002,2.097649e-002
5.438363e+002,2.082907e-002
5.457648e+002,2.064446e-002
5.476932e+002,2.045697e-002
5.496218e+002,2.111321e-002
5.515503e+002,2.172637e-002
5.534788e+002,2.133397e-002
5.554072e+002,2.111074e-002
5.573358e+002,2.048892e-002
5.592643e+002,2.213412e-002
5.611927e+002,2.240972e-002
5.631212e+002,2.133950e-002
5.650497e+002,2.167705e-002
5.669783e+002,2.264371e-002
5.689067e+002,2.273898e-002
5.708352e+002,2.221875e-002
5.727637e+002,2.093122e-002
5.746923e+002,1.914524e-002
5.766207e+002,2.085977e-002
5.785492e+002,2.391844e-002
5.804777e+002,2.138378e-002
5.824063e+002,1.776504e-002
5.843347e+002,2.124450e-002
5.862632e+002,2.358129e-002
5.881917e+002,2.266319e-002
5.901202e+002,2.182322e-002
5.920487e+002,2.029931e-002
5.939772e+002,1.993047e-002
5.959057e+002,2.118779e-002
5.978342e+002,2.413395e-002
5.997627e+002,2.615613e-002
6.016912e+002,2.726595e-002
6.036197e+002,2.878608e-002
6.055482e+002,3.045190e-002
6.074767e+002,3.192165e-002
6.094052e+002,3.349860e-002
6.113337e+002,3.412557e-002
6.132622e+002,3.282807e-002
6.151907e+002,3.131868e-002
6.171192e+002,3.050700e-002
6.190477e+002,3.120595e-002
6.209762e+002,3.126381e-002
6.229047e+002,2.798317e-002
6.248332e+002,2.373919e-002
6.267617e+002,1.991052e-002
6.286902e+002,1.821131e-002
6.306187e+002,1.824279e-002
6.325472e+002,1.773971e-002
6.344756e+002,1.751724e-002
6.364042e+002,1.728393e-002
6.383326e+002,1.644138e-002
6.402612e+002,1.640646e-002
6.421896e+002,1.694695e-002
6.441182e+002,1.656236e-002
6.460466e+002,1.587450e-002
6.479752e+002,1.569795e-002
6.499036e+002,1.576034e-002
6.518322e+002,1.571530e-002
6.537606e+002,1.568184e-002
6.556891e+002,1.559109e-002
6.576177e+002,1.512089e-002
6.595461e+002,1.491200e-002
6.614746e+002,1.441557e-002
6.634031e+002,1.392211e-002
6.653317e+002,1.489829e-002
6.672601e+002,1.981767e-002
6.691886e+002,1.864188e-002
6.711171e+002,1.482611e-002
6.730457e+002,1.466192e-002
6.749741e+002,1.477499e-002
6.769026e+002,1.472995e-002
6.788311e+002,1.484908e-002
6.807596e+002,1.498282e-002
6.826881e+002,1.531789e-002
6.846166e+002,1.552825e-002
6.865451e+002,1.549621e-002
6.884736e+002,1.541985e-002
6.904021e+002,1.531549e-002
6.923306e+002,1.578278e-002
6.942591e+002,1.605641e-002
6.961876e+002,1.600608e-002
6.981161e+002,1.589825e-002
7.000446e+002,1.575151e-002
7.019731e+002,1.578969e-002
7.039016e+002,1.612769e-002
7.058301e+002,1.598679e-002
7.077585e+002,1.601660e-002
7.096871e+002,1.671660e-002
7.116156e+002,1.727186e-002
7.135441e+002,1.722525e-002
7.154725e+002,1.706980e-002
7.174011e+002,1.695557e-002
7.193296e+002,1.735720e-002
7.212581e+002,1.831377e-002
7.231865e+002,1.912377e-002
7.251151e+002,1.936591e-002
7.270436e+002,1.942820e-002
7.289720e+002,1.943749e-002
7.309005e+002,1.951411e-002
7.328290e+002,1.983890e-002
7.347576e+002,2.005891e-002
7.366860e+002,1.970615e-002
7.386145e+002,1.899668e-002
7.405430e+002,1.921959e-002
7.424716e+002,1.974301e-002
7.444000e+002,2.017892e-002
7.463285e+002,2.027168e-002
7.482570e+002,1.984282e-002
7.501855e+002,1.982496e-002
7.521140e+002,2.036563e-002
7.540425e+002,2.013616e-002
7.559710e+002,1.996537e-002
7.578995e+002,2.055937e-002
7.598280e+002,2.087274e-002
7.617565e+002,2.085351e-002
7.636850e+002,2.088313e-002
7.656135e+002,2.098170e-002
7.675420e+002,2.084673e-002
7.694705e+002,2.046600e-002
7.713990e+002,2.055649e-002
7.733275e+002,2.072470e-002
7.752560e+002,2.071799e-002
7.771844e+002,2.041265e-002
7.791130e+002,2.019426e-002
7.810415e+002,2.009233e-002
7.829700e+002,1.947291e-002
7.848984e+002,1.908534e-002
7.868270e+002,1.932441e-002
7.887555e+002,1.913832e-002
7.906840e+002,1.873856e-002
7.926124e+002,1.842721e-002
7.945410e+002,1.807598e-002
7.964695e+002,1.760346e-002
7.983979e+002,1.736465e-002
8.003264e+002,1.745184e-002
8.022549e+002,1.762869e-002
8.041835e+002,1.789875e-002
8.061119e+002,1.806828e-002
8.080404e+002,1.803951e-002
8.099689e+002,1.832994e-002
8.118975e+002,1.913655e-002
8.138259e+002,1.942484e-002
8.157545e+002,1.935572e-002
8.176830e+002,1.969010e-002
8.196115e+002,1.948639e-002
8.215399e+002,1.901278e-002
8.234684e+002,1.885412e-002
8.253970e+002,1.849072e-002
8.273254e+002,1.822074e-002
8.292539e+002,1.823073e-002
8.311824e+002,1.799454e-002
8.331110e+002,1.778448e-002
8.350394e+002,1.757372e-002
8.369679e+002,1.777084e-002
8.388964e+002,1.799907e-002
8.408250e+002,1.803619e-002
8.427534e+002,1.787855e-002
8.446819e+002,1.774202e-002
8.466104e+002,1.805433e-002
8.485389e+002,1.816162e-002
8.504674e+002,1.807215e-002
8.523959e+002,1.811426e-002
8.543244e+002,1.823197e-002
8.562529e+002,1.804269e-002
8.581814e+002,1.786654e-002
8.601099e+002,1.802189e-002
8.620384e+002,1.803233e-002
8.639669e+002,1.796287e-002
8.658954e+002,1.792264e-002
8.678239e+002,1.779149e-002
8.697524e+002,1.808034e-002
8.716809e+002,1.806590e-002
8.736094e+002,1.800791e-002
8.755378e+002,1.795345e-002
8.774664e+002,1.824814e-002
8.793949e+002,1.847575e-002
8.813234e+002,1.823899e-002
8.832518e+002,1.809685e-002
8.851804e+002,1.808863e-002
8.871089e+002,1.806707e-002
8.890374e+002,1.787089e-002
8.909658e+002,1.805830e-002
8.928943e+002,1.855722e-002
8.948229e+002,1.842663e-002
8.967513e+002,1.856189e-002
8.986798e+002,1.875548e-002
9.006083e+002,1.840060e-002
9.025369e+002,1.841121e-002
9.044653e+002,1.859546e-002
9.063938e+002,1.819338e-002
9.083223e+002,1.791626e-002
9.102509e+002,1.793998e-002
9.121793e+002,1.806811e-002
9.141078e+002,1.781410e-002
9.160364e+002,1.745753e-002
9.179648e+002,1.708968e-002
9.198933e+002,1.676026e-002
9.218218e+002,1.676298e-002
9.237504e+002,1.662205e-002
9.256788e+002,1.638588e-002
9.276073e+002,1.604596e-002
9.295358e+002,1.583615e-002
9.314644e+002,1.578072e-002
9.333928e+002,1.575863e-002
9.353213e+002,1.577117e-002
9.372498e+002,1.581463e-002
9.391783e+002,1.542637e-002
9.411068e+002,1.532291e-002
9.430353e+002,1.563300e-002
9.449637e+002,1.565697e-002
9.468923e+002,1.581893e-002
9.488208e+002,1.598865e-002
9.507493e+002,1.598194e-002
9.526777e+002,1.580944e-002
9.546063e+002,1.585941e-002
9.565348e+002,1.615413e-002
9.584633e+002,1.595376e-002
9.603917e+002,1.589797e-002
9.623203e+002,1.611982e-002
9.642488e+002,1.611424e-002
9.661772e+002,1.602536e-002
9.681057e+002,1.583762e-002
9.700343e+002,1.568201e-002
9.719628e+002,1.574873e-002
9.738912e+002,1.569765e-002
9.758197e+002,1.539818e-002
9.777483e+002,1.526881e-002
9.796768e+002,1.519977e-002
9.816052e+002,1.485998e-002
9.835337e+002,1.454524e-002
9.854623e+002,1.434574e-002
9.873907e+002,1.427126e-002
9.893192e+002,1.411087e-002
9.912477e+002,1.378100e-002
9.931763e+002,1.343405e-002
9.951047e+002,1.318899e-002
9.970332e+002,1.301677e-002
9.989617e+002,1.314742e-002
1.000890e+003,1.327691e-002
1.002819e+003,1.325730e-002
1.004747e+003,1.309920e-002
1.006676e+003,1.308031e-002
1.008604e+003,1.321720e-002
1.010533e+003,1.340227e-002
1.012461e+003,1.342431e-002
1.014390e+003,1.323192e-002
1.016318e+003,1.339677e-002
1.018247e+003,1.370012e-002
1.020175e+003,1.388954e-002
1.022104e+003,1.417201e-002
1.024032e+003,1.448271e-002
1.025961e+003,1.481284e-002
1.027889e+003,1.483725e-002
1.029818e+003,1.500532e-002
1.031746e+003,1.543619e-002
1.033675e+003,1.569799e-002
1.035603e+003,1.576282e-002
1.037532e+003,1.600470e-002
1.039460e+003,1.628019e-002
1.041389e+003,1.630957e-002
1.043317e+003,1.643233e-002
1.045246e+003,1.664495e-002
1.047174e+003,1.670747e-002
1.049103e+003,1.670837e-002
1.051031e+003,1.649170e-002
1.052960e+003,1.651610e-002
1.054888e+003,1.657771e-002
1.056817e+003,1.665424e-002
1.058745e+003,1.674532e-002
1.060674e+003,1.674473e-002
1.062602e+003,1.653334e-002
1.064531e+003,1.653097e-002
1.066459e+003,1.658732e-002
1.068388e+003,1.657661e-002
1.070316e+003,1.650065e-002
1.072245e+003,1.647989e-002
1.074173e+003,1.648327e-002
1.076102e+003,1.647563e-002
1.078030e+003,1.649634e-002
1.079959e+003,1.630730e-002
1.081887e+003,1.619038e-002
1.083816e+003,1.654164e-002
1.085744e+003,1.687974e-002
1.087673e+003,1.706532e-002
1.089601e+003,1.711432e-002
1.091530e+003,1.726390e-002
1.093458e+003,1.740086e-002
1.095387e+003,1.741011e-002
1.097315e+003,1.741594e-002
1.099244e+003,1.758152e-002
1.101172e+003,1.796464e-002
1.103101e+003,1.805146e-002
1.105029e+003,1.817251e-002
1.106958e+003,1.839565e-002
1.108886e+003,1.867252e-002
1.110815e+003,1.865737e-002
1.112743e+003,1.851071e-002
1.114672e+003,1.830330e-002
1.116600e+003,1.850293e-002
1.118529e+003,1.883537e-002
1.120457e+003,1.874341e-002
1.122386e+003,1.861214e-002
1.124314e+003,1.856593e-002
1.126243e+003,1.838819e-002
1.128171e+003,1.813875e-002
1.130100e+003,1.828940e-002
1.132028e+003,1.830285e-002
1.133957e+003,1.811757e-002
1.135885e+003,1.799078e-002
1.137814e+003,1.757393e-002
1.139742e+003,1.685026e-002
1.141671e+003,1.658539e-002
1.143599e+003,1.652949e-002
1.145528e+003,1.610438e-002
1.147456e+003,1.562499e-002
1.149385e+003,1.538775e-002
1.151313e+003,1.525224e-002
1.153242e+003,1.500439e-002
1.155170e+003,1.494633e-002
1.157099e+003,1.478884e-002
1.159027e+003,1.464722e-002
1.160956e+003,1.439478e-002
1.162884e+003,1.428191e-002
1.164813e+003,1.426955e-002
1.166741e+003,1.422685e-002
1.168670e+003,1.416571e-002
1.170598e+003,1.414048e-002
1.172526e+003,1.423514e-002
1.174455e+003,1.422490e-002
1.176384e+003,1.436519e-002
1.178312e+003,1.425732e-002
1.180240e+003,1.405498e-002
1.182169e+003,1.403537e-002
1.184098e+003,1.392153e-002
1.186026e+003,1.370573e-002
1.187954e+003,1.363652e-002
1.189883e+003,1.350736e-002
1.191812e+003,1.340531e-002
1.193740e+003,1.325573e-002
1.195668e+003,1.293542e-002
1.197597e+003,1.270039e-002
1.199526e+003,1.270131e-002
1.201454e+003,1.274225e-002
1.203382e+003,1.286251e-002
1.205311e+003,1.277713e-002
1.207240e+003,1.270837e-002
1.209168e+003,1.268036e-002
1.211096e+003,1.265085e-002
1.213025e+003,1.279248e-002
1.214953e+003,1.280221e-002
1.216882e+003,1.261671e-002
1.218810e+003,1.237970e-002
1.220739e+003,1.235073e-002
1.222667e+003,1.256585e-002
1.224596e+003,1.280214e-002
1.226524e+003,1.288586e-002
1.228453e+003,1.299106e-002
1.230381e+003,1.309698e-002
1.232310e+003,1.317242e-002
1.234238e+003,1.323073e-002
1.236167e+003,1.334968e-002
1.238095e+003,1.359576e-002
1.240024e+003,1.367663e-002
1.241952e+003,1.360612e-002
1.243881e+003,1.352890e-002
1.245809e+003,1.354462e-002
1.247738e+003,1.356848e-002
1.249666e+003,1.372915e-002
1.251595e+003,1.379116e-002
1.253523e+003,1.374116e-002
1.255452e+003,1.371971e-002
1.257380e+003,1.358862e-002
1.259309e+003,1.370829e-002
1.261237e+003,1.390986e-002
1.263166e+003,1.402223e-002
1.265094e+003,1.437831e-002
1.267023e+003,1.481908e-002
1.268951e+003,1.500511e-002
1.270880e+003,1.514995e-002
1.272808e+003,1.520004e-002
1.274737e+003,1.531494e-002
1.276665e+003,1.547942e-002
1.278594e+003,1.562832e-002
1.280522e+003,1.580443e-002
1.282451e+003,1.594300e-002
1.284379e+003,1.613254e-002
1.286308e+003,1.650873e-002
1.288236e+003,1.683965e-002
1.290165e+003,1.707700e-002
1.292093e+003,1.723173e-002
1.294022e+003,1.739148e-002
1.295950e+003,1.759846e-002
1.297879e+003,1.759756e-002
1.299807e+003,1.745705e-002
1.301736e+003,1.737931e-002
1.303664e+003,1.729951e-002
1.305593e+003,1.716354e-002
1.307521e+003,1.707324e-002
1.309450e+003,1.690555e-002
1.311378e+003,1.651111e-002
1.313307e+003,1.619977e-002
1.315235e+003,1.610785e-002
1.317164e+003,1.602093e-002
1.319092e+003,1.577474e-002
1.321021e+003,1.541192e-002
1.322949e+003,1.523717e-002
1.324878e+003,1.511958e-002
1.326806e+003,1.489194e-002
1.328735e+003,1.479018e-002
1.330663e+003,1.484699e-002
1.332592e+003,1.490257e-002
1.334520e+003,1.479344e-002
1.336449e+003,1.472354e-002
1.338377e+003,1.481877e-002
1.340306e+003,1.469417e-002
1.342234e+003,1.450005e-002
1.344163e+003,1.434772e-002
1.346091e+003,1.432793e-002
1.348020e+003,1.454233e-002
1.349948e+003,1.453856e-002
1.351877e+003,1.447922e-002
1.353805e+003,1.445668e-002
1.355734e+003,1.444774e-002
1.357662e+003,1.438321e-002
1.359591e+003,1.436684e-002
1.361519e+003,1.442657e-002
1.363448e+003,1.437481e-002
1.365376e+003,1.403578e-002
1.367305e+003,1.385700e-002
1.369233e+003,1.389597e-002
1.371162e+003,1.387609e-002
1.373090e+003,1.408708e-002
1.375019e+003,1.404611e-002
1.376947e+003,1.381643e-002
1.378876e+003,1.376024e-002
1.380804e+003,1.376513e-002
1.382733e+003,1.381274e-002
1.384661e+003,1.388105e-002
1.386590e+003,1.395194e-002
1.388518e+003,1.380255e-002
1.390447e+003,1.347387e-002
1.392375e+003,1.328084e-002
1.394304e+003,1.337449e-002
1.396232e+003,1.331196e-002
1.398161e+003,1.324668e-002
1.400089e+003,1.314445e-002
1.402018e+003,1.296563e-002
1.403946e+003,1.282964e-002
1.405875e+003,1.278678e-002
1.407803e+003,1.269967e-002
1.409732e+003,1.267156e-002
1.411660e+003,1.268872e-002
1.413589e+003,1.274239e-002
1.415517e+003,1.290954e-002
1.417446e+003,1.332170e-002
1.419374e+003,1.374741e-002
1.421303e+003,1.389077e-002
1.423231e+003,1.424037e-002
1.425160e+003,1.466017e-002
1.427088e+003,1.493964e-002
1.429017e+003,1.537814e-002
1.430945e+003,1.587450e-002
1.432874e+003,1.625267e-002
1.434802e+003,1.673943e-002
1.436731e+003,1.717013e-002
1.438659e+003,1.724718e-002
1.440588e+003,1.755437e-002
1.442516e+003,1.808801e-002
1.444445e+003,1.843275e-002
1.446373e+003,1.879367e-002
1.448302e+003,1.915816e-002
1.450230e+003,1.942280e-002
1.452159e+003,1.963629e-002
1.454087e+003,2.017076e-002
1.456016e+003,2.110893e-002
1.457944e+003,2.128153e-002
1.459873e+003,2.080512e-002
1.461801e+003,2.062420e-002
1.463730e+003,2.058049e-002
1.465658e+003,2.036132e-002
1.467587e+003,1.993501e-002
1.469515e+003,1.969104e-002
1.471444e+003,1.963678e-002
1.473372e+003,1.926798e-002
1.475301e+003,1.872562e-002
1.477229e+003,1.817496e-002
1.479158e+003,1.753294e-002
1.481086e+003,1.697855e-002
1.483015e+003,1.645050e-002
1.484943e+003,1.600780e-002
1.486872e+003,1.574131e-002
1.488800e+003,1.574055e-002
1.490729e+003,1.544587e-002
1.492657e+003,1.480636e-002
1.494586e+003,1.455045e-002
1.496514e+003,1.452650e-002
1.498443e+003,1.421086e-002
1.500371e+003,1.382639e-002
1.502300e+003,1.362524e-002
1.504228e+003,1.373473e-002
1.506157e+003,1.421329e-002
1.508085e+003,1.390332e-002
1.510014e+003,1.320664e-002
1.511942e+003,1.292818e-002
1.513871e+003,1.291118e-002
1.515799e+003,1.311508e-002
1.517728e+003,1.319141e-002
1.519656e+003,1.327414e-002
1.521585e+003,1.344427e-002
1.523513e+003,1.328822e-002
1.525442e+003,1.325040e-002
1.527370e+003,1.307045e-002
1.529299e+003,1.310862e-002
1.531227e+003,1.329734e-002
1.533156e+003,1.360517e-002
1.535084e+003,1.360062e-002
1.537013e+003,1.373086e-002
1.538941e+003,1.431297e-002
1.540870e+003,1.457395e-002
1.542798e+003,1.442393e-002
1.544727e+003,1.426260e-002
1.546655e+003,1.405587e-002
1.548584e+003,1.408896e-002
1.550512e+003,1.416218e-002
1.552441e+003,1.413688e-002
1.554369e+003,1.434060e-002
1.556298e+003,1.464303e-002
1.558226e+003,1.528477e-002
1.560155e+003,1.530200e-002
1.562083e+003,1.490504e-002
1.564012e+003,1.508065e-002
1.565940e+003,1.528422e-002
1.567869e+003,1.557986e-002
1.569797e+003,1.602688e-002
1.571726e+003,1.591595e-002
1.573654e+003,1.595472e-002
1.575583e+003,1.641657e-002
1.577511e+003,1.637322e-002
1.579440e+003,1.612889e-002
1.581368e+003,1.606525e-002
1.583297e+003,1.587354e-002
1.585225e+003,1.581137e-002
1.587154e+003,1.573842e-002
1.589082e+003,1.552972e-002
1.591010e+003,1.532689e-002
1.592939e+003,1.516062e-002
1.594868e+003,1.509849e-002
1.596796e+003,1.498097e-002
1.598724e+003,1.474641e-002
1.600653e+003,1.448792e-002
1.602582e+003,1.431759e-002
1.604510e+003,1.409208e-002
1.606438e+003,1.386946e-002
1.608367e+003,1.367830e-002
1.610296e+003,1.344581e-002
1.612224e+003,1.324405e-002
1.614152e+003,1.323875e-002
1.616081e+003,1.341796e-002
1.618010e+003,1.313055e-002
1.619938e+003,1.278641e-002
1.621866e+003,1.281634e-002
1.623795e+003,1.259641e-002
1.625724e+003,1.239446e-002
1.627652e+003,1.233143e-002
1.629580e+003,1.212991e-002
1.631509e+003,1.193390e-002
1.633438e+003,1.216399e-002
1.635366e+003,1.244765e-002
1.637294e+003,1.199879e-002
1.639223e+003,1.145890e-002
1.641151e+003,1.116829e-002
1.643080e+003,1.092199e-002
1.645008e+003,1.089657e-002
1.646937e+003,1.083287e-002
1.648865e+003,1.042887e-002
1.650794e+003,1.043892e-002
1.652722e+003,1.095620e-002
1.654651e+003,1.042959e-002
1.656579e+003,9.795077e-003
1.658508e+003,9.623866e-003
1.660436e+003,9.579862e-003
1.662365e+003,9.533899e-003
1.664293e+003,9.363840e-003
1.666222e+003,9.243193e-003
1.668150e+003,9.524077e-003
1.670079e+003,9.686440e-003
1.672007e+003,9.465421e-003
1.673936e+003,9.506906e-003
1.675864e+003,9.440734e-003
1.677793e+003,9.035559e-003
1.679721e+003,8.930156e-003
1.681650e+003,9.051493e-003
1.683578e+003,9.455431e-003
1.685507e+003,9.293831e-003
1.687435e+003,8.900055e-003
1.689364e+003,8.733793e-003
1.691292e+003,8.744138e-003
1.693221e+003,8.951127e-003
1.695149e+003,9.302294e-003
1.697078e+003,9.294711e-003
1.699006e+003,9.485367e-003
1.700935e+003,9.628574e-003
1.702863e+003,9.317358e-003
1.704792e+003,9.428951e-003
1.706720e+003,9.373997e-003
1.708649e+003,9.198247e-003
1.710577e+003,9.056941e-003
1.712506e+003,9.129077e-003
1.714434e+003,9.400101e-003
1.716363e+003,9.734622e-003
1.718291e+003,9.763528e-003
1.720220e+003,9.529294e-003
1.722148e+003,9.417709e-003
1.724077e+003,9.383240e-003
1.726005e+003,9.399797e-003
1.727934e+003,9.456752e-003
1.729862e+003,9.509243e-003
1.731791e+003,9.730285e-003
1.733719e+003,9.946388e-003
1.735648e+003,9.633351e-003
1.737576e+003,9.443172e-003
1.739505e+003,9.553205e-003
1.741433e+003,9.471516e-003
1.743362e+003,9.564315e-003
1.745290e+003,9.591515e-003
1.747219e+003,9.721543e-003
1.749147e+003,9.905335e-003
1.751076e+003,9.990632e-003
1.753004e+003,9.817446e-003
1.754933e+003,9.680036e-003
1.756861e+003,9.745906e-003
1.758790e+003,9.738519e-003
1.760718e+003,9.767255e-003
1.762647e+003,9.789249e-003
1.764575e+003,9.703788e-003
1.766504e+003,9.779624e-003
1.768432e+003,9.833442e-003
1.770361e+003,9.891132e-003
1.772289e+003,1.006862e-002
1.774218e+003,9.978121e-003
1.776146e+003,9.805143e-003
1.778075e+003,9.718866e-003
1.780003e+003,9.687559e-003
1.781932e+003,9.603676e-003
1.783860e+003,9.515407e-003
1.785789e+003,9.626983e-003
1.787717e+003,9.755632e-003
1.789646e+003,9.793993e-003
1.791574e+003,9.922657e-003
1.793503e+003,9.917979e-003
1.795431e+003,9.791621e-003
1.797360e+003,9.799856e-003
1.799288e+003,9.857507e-003
1.801217e+003,9.792468e-003
1.803145e+003,9.659979e-003
1.805074e+003,9.708396e-003
1.807002e+003,9.786266e-003
1.808931e+003,9.727303e-003
1.810859e+003,9.728930e-003
1.812788e+003,9.798670e-003
1.814716e+003,9.743805e-003
1.816645e+003,9.718392e-003
1.818573e+003,9.716088e-003
1.820502e+003,9.778099e-003
1.822430e+003,9.841238e-003
1.824359e+003,9.945981e-003
1.826287e+003,9.984597e-003
1.828216e+003,1.001616e-002
1.830144e+003,9.994599e-003
1.832073e+003,9.754581e-003
1.834001e+003,9.724897e-003
1.835930e+003,9.804228e-003
1.837858e+003,9.838933e-003
1.839787e+003,9.812904e-003
1.841715e+003,9.769153e-003
1.843644e+003,9.912861e-003
1.845572e+003,9.881166e-003
1.847501e+003,9.718629e-003
1.849429e+003,9.646767e-003
1.851358e+003,9.711208e-003
1.853286e+003,9.790367e-003
1.855215e+003,9.808227e-003
1.857143e+003,9.846932e-003
1.859072e+003,9.818327e-003
1.861000e+003,9.792095e-003
1.862929e+003,9.795281e-003
1.864857e+003,9.828765e-003
1.866786e+003,9.857981e-003
1.868714e+003,9.890047e-003
1.870643e+003,9.769424e-003
1.872571e+003,9.685729e-003
1.874500e+003,9.771864e-003
1.876428e+003,9.811921e-003
1.878357e+003,9.842289e-003
1.880285e+003,9.834019e-003
1.882214e+003,9.807583e-003
1.884142e+003,9.888928e-003
1.886071e+003,9.911098e-003
1.887999e+003,9.871506e-003
1.889928e+003,9.874387e-003
1.891856e+003,9.841001e-003
1.893785e+003,9.876353e-003
1.895713e+003,9.837002e-003
1.897642e+003,9.824224e-003
1.899570e+003,9.931167e-003
1.901499e+003,9.969306e-003
1.903427e+003,9.881641e-003
1.905356e+003,9.891776e-003
1.907284e+003,9.867913e-003
1.909213e+003,9.822495e-003
1.911141e+003,9.787926e-003
1.913070e+003,9.808159e-003
1.914998e+003,9.929234e-003
1.916927e+003,1.004000e-002
1.918855e+003,1.003071e-002
1.920784e+003,9.971408e-003
1.922712e+003,9.933031e-003
1.924641e+003,9.887369e-003
1.926569e+003,9.954491e-003
1.928498e+003,9.864659e-003
1.930426e+003,9.845644e-003
1.932355e+003,9.819750e-003
1.934283e+003,9.778269e-003
1.936212e+003,9.818157e-003
1.938140e+003,9.815446e-003
1.940069e+003,9.838629e-003
1.941997e+003,9.951508e-003
1.943926e+003,9.933438e-003
1.945854e+003,9.822597e-003
1.947783e+003,9.796569e-003
1.949711e+003,9.838459e-003
1.951640e+003,9.901911e-003
1.953568e+003,9.904386e-003
1.955497e+003,9.787384e-003
1.957425e+003,9.740179e-003
1.959354e+003,9.843374e-003
1.961282e+003,9.854660e-003
1.963211e+003,9.758817e-003
1.965139e+003,9.710666e-003
1.967068e+003,9.731675e-003
1.968996e+003,9.669500e-003
1.970925e+003,9.707143e-003
1.972853e+003,9.759800e-003
1.974782e+003,9.741060e-003
1.976710e+003,9.766306e-003
1.978639e+003,9.848355e-003
1.980567e+003,9.804397e-003
1.982496e+003,9.713004e-003
1.984424e+003,9.691285e-003
1.986353e+003,9.684509e-003
1.988281e+003,9.661945e-003
1.990210e+003,9.666485e-003
1.992138e+003,9.795315e-003
1.994067e+003,9.794434e-003
1.995995e+003,9.652696e-003
1.997924e+003,9.624679e-003
1.999852e+003,9.706668e-003
2.001781e+003,9.696605e-003
2.003709e+003,9.685153e-003
2.005638e+003,9.738146e-003
2.007566e+003,9.829748e-003
2.009495e+003,9.868286e-003
2.011423e+003,9.797010e-003
2.013352e+003,9.799415e-003
2.015280e+003,9.798873e-003
2.017208e+003,9.853474e-003
2.019137e+003,9.851677e-003
2.021066e+003,9.764070e-003
2.022994e+003,9.720086e-003
2.024922e+003,9.768915e-003
2.026851e+003,9.788571e-003
2.028780e+003,9.858185e-003
2.030708e+003,9.901640e-003
2.032636e+003,9.911945e-003
2.034565e+003,9.832527e-003
2.036494e+003,9.790197e-003
2.038422e+003,9.857710e-003
2.040350e+003,9.868693e-003
2.042279e+003,9.886149e-003
2.044208e+003,9.903166e-003
2.046136e+003,9.808396e-003
2.048064e+003,9.731810e-003
2.049993e+003,9.787655e-003
2.051921e+003,9.804940e-003
2.053850e+003,9.840527e-003
2.055778e+003,9.853135e-003
2.057707e+003,9.898623e-003
2.059635e+003,9.954491e-003
2.061564e+003,9.943133e-003
2.063492e+003,9.803652e-003
2.065421e+003,9.774032e-003
2.067349e+003,9.875743e-003
2.069278e+003,9.793214e-003
2.071206e+003,9.778337e-003
2.073135e+003,9.906589e-003
2.075063e+003,9.974562e-003
2.076992e+003,9.945676e-003
2.078920e+003,9.918318e-003
2.080849e+003,9.960729e-003
2.082777e+003,9.954050e-003
2.084706e+003,9.872861e-003
2.086634e+003,9.796806e-003
2.088563e+003,9.826393e-003
2.090491e+003,9.919946e-003
2.092420e+003,9.907471e-003
2.094348e+003,9.907132e-003
2.096277e+003,9.977307e-003
2.098205e+003,1.001369e-002
2.100134e+003,1.003603e-002
2.102062e+003,1.001138e-002
2.103991e+003,9.970290e-003
2.105919e+003,1.005584e-002
2.107848e+003,1.013896e-002
2.109776e+003,1.003973e-002
2.111705e+003,9.971510e-003
2.113633e+003,1.000494e-002
2.115562e+003,1.007534e-002
2.117490e+003,1.012587e-002
2.119419e+003,1.019411e-002
2.121347e+003,1.014221e-002
2.123276e+003,1.006469e-002
2.125204e+003,1.009836e-002
2.127133e+003,1.016704e-002
2.129061e+003,1.023641e-002
2.130990e+003,1.028632e-002
2.132918e+003,1.025785e-002
2.134847e+003,1.016006e-002
2.136775e+003,1.013797e-002
2.138704e+003,1.020242e-002
2.140632e+003,1.026030e-002
2.142561e+003,1.022328e-002
2.144489e+003,1.011864e-002
2.146418e+003,1.011878e-002
2.148346e+003,1.018149e-002
2.150275e+003,1.025568e-002
2.152203e+003,1.037155e-002
2.154132e+003,1.037671e-002
2.156060e+003,1.025938e-002
2.157989e+003,1.023427e-002
2.159917e+003,1.023926e-002
2.161846e+003,1.025483e-002
2.163774e+003,1.030868e-002
2.165703e+003,1.032445e-002
2.167631e+003,1.039531e-002
2.169560e+003,1.050182e-002
2.171488e+003,1.041974e-002
2.173417e+003,1.032581e-002
2.175345e+003,1.030759e-002
2.177274e+003,1.030281e-002
2.179202e+003,1.041665e-002
2.181131e+003,1.039188e-002
2.183059e+003,1.033562e-002
2.184988e+003,1.042120e-002
2.186916e+003,1.045117e-002
2.188845e+003,1.039962e-002
2.190773e+003,1.036073e-002
2.192702e+003,1.034885e-002
2.194630e+003,1.032086e-002
2.196559e+003,1.035286e-002
2.198487e+003,1.033358e-002
2.200416e+003,1.030199e-002
2.202344e+003,1.030776e-002
2.204273e+003,1.032958e-002
2.206201e+003,1.029368e-002
2.208130e+003,1.031852e-002
2.210058e+003,1.026817e-002
2.211987e+003,1.023434e-002
2.213915e+003,1.025697e-002
2.215844e+003,1.031370e-002
2.217772e+003,1.034200e-002
2.219701e+003,1.029992e-002
2.221629e+003,1.026433e-002
2.223558e+003,1.026135e-002
2.225486e+003,1.024683e-002
2.227415e+003,1.023706e-002
2.229343e+003,1.028839e-002
2.231272e+003,1.028730e-002
2.233200e+003,1.027190e-002
2.235129e+003,1.036388e-002
2.237057e+003,1.033782e-002
2.238986e+003,1.024669e-002
2.240914e+003,1.022712e-002
2.242843e+003,1.032425e-002
2.244771e+003,1.041099e-002
2.246700e+003,1.040464e-002
2.248628e+003,1.034386e-002
2.250557e+003,1.018516e-002
2.252485e+003,1.008456e-002
2.254414e+003,1.020578e-002
2.256342e+003,1.026294e-002
2.258271e+003,1.021287e-002
2.260199e+003,1.028401e-002
2.262128e+003,1.035092e-002
2.264056e+003,1.031916e-002
2.265985e+003,1.029999e-002
2.267913e+003,1.026087e-002
2.269842e+003,1.019981e-002
2.271770e+003,1.023217e-002
2.273699e+003,1.029331e-002
2.275627e+003,1.029419e-002
2.277556e+003,1.027332e-002
2.279484e+003,1.027790e-002
2.281413e+003,1.034909e-002
2.283341e+003,1.021972e-002
2.285270e+003,1.018516e-002
2.287198e+003,1.027410e-002
2.289127e+003,1.044170e-002
2.291055e+003,1.050433e-002
2.292984e+003,1.046841e-002
2.294912e+003,1.050331e-002
2.296841e+003,1.060064e-002
2.298769e+003,1.080043e-002
2.300698e+003,1.105438e-002
2.302626e+003,1.124177e-002
2.304555e+003,1.131974e-002
2.306483e+003,1.152014e-002
2.308412e+003,1.183740e-002
2.310340e+003,1.225181e-002
2.312269e+003,1.276058e-002
2.314197e+003,1.323100e-002
2.316125e+003,1.380617e-002
2.318054e+003,1.442571e-002
2.319983e+003,1.505228e-002
2.321911e+003,1.565216e-002
2.323840e+003,1.631442e-002
2.325768e+003,1.678434e-002
2.327697e+003,1.722870e-002
2.329625e+003,1.786450e-002
2.331553e+003,1.823176e-002
2.333482e+003,1.838629e-002
2.335411e+003,1.857638e-002
2.337339e+003,1.880118e-002
2.339268e+003,1.882513e-002
2.341196e+003,1.857005e-002
2.343125e+003,1.805105e-002
2.345053e+003,1.690399e-002
2.346981e+003,1.493086e-002
2.348910e+003,1.379054e-002
2.350839e+003,1.508442e-002
2.352767e+003,1.751876e-002
2.354696e+003,1.939020e-002
2.356624e+003,2.066725e-002
2.358552e+003,2.136550e-002
2.360481e+003,2.160544e-002
2.362409e+003,2.160290e-002
2.364338e+003,2.125605e-002
2.366267e+003,2.056347e-002
2.368195e+003,1.963154e-002
2.370124e+003,1.844284e-002
2.372052e+003,1.702831e-002
2.373980e+003,1.559271e-002
2.375909e+003,1.418700e-002
2.377838e+003,1.285377e-002
2.379766e+003,1.181652e-002
2.381695e+003,1.123810e-002
2.383623e+003,1.097071e-002
2.385552e+003,1.068730e-002
2.387480e+003,1.048158e-002
2.389408e+003,1.045718e-002
2.391337e+003,1.047978e-002
2.393266e+003,1.037848e-002
2.395194e+003,1.030338e-002
2.397123e+003,1.036884e-002
2.399051e+003,1.044479e-002
2.400979e+003,1.043383e-002
2.402908e+003,1.039653e-002
2.404836e+003,1.043620e-002
2.406765e+003,1.043267e-002
2.408694e+003,1.036259e-002
2.410622e+003,1.041822e-002
2.412551e+003,1.051285e-002
2.414479e+003,1.060370e-002
2.416407e+003,1.059803e-002
2.418336e+003,1.057239e-002
2.420264e+003,1.058451e-002
2.422193e+003,1.061378e-002
2.424122e+003,1.058998e-002
2.426050e+003,1.062814e-002
2.427979e+003,1.067741e-002
2.429907e+003,1.071137e-002
2.431835e+003,1.076820e-002
2.433764e+003,1.078759e-002
2.435692e+003,1.080043e-002
2.437621e+003,1.076911e-002
2.439550e+003,1.071042e-002
2.441478e+003,1.070421e-002
2.443406e+003,1.071195e-002
2.445335e+003,1.073216e-002
2.447263e+003,1.076351e-002
2.449192e+003,1.080926e-002
2.451121e+003,1.079676e-002
2.453049e+003,1.078100e-002
2.454978e+003,1.087979e-002
2.456906e+003,1.096626e-002
2.458834e+003,1.099426e-002
2.460763e+003,1.097941e-002
2.462691e+003,1.086769e-002
2.464620e+003,1.083990e-002
2.466549e+003,1.097438e-002
2.468477e+003,1.101856e-002
2.470406e+003,1.094479e-002
2.472334e+003,1.093011e-002
2.474262e+003,1.094543e-002
2.476191e+003,1.093901e-002
2.478119e+003,1.091336e-002
2.480048e+003,1.085251e-002
2.481977e+003,1.091662e-002
2.483905e+003,1.096443e-002
2.485833e+003,1.097435e-002
2.487762e+003,1.104059e-002
2.489690e+003,1.097075e-002
2.491619e+003,1.094332e-002
2.493547e+003,1.106050e-002
2.495476e+003,1.118771e-002
2.497405e+003,1.119155e-002
2.499333e+003,1.104120e-002
2.501261e+003,1.099151e-002
2.503190e+003,1.101428e-002
2.505118e+003,1.108181e-002
2.507047e+003,1.109803e-002
2.508975e+003,1.109555e-002
2.510904e+003,1.109252e-002
2.512833e+003,1.115548e-002
2.514761e+003,1.117176e-002
2.516689e+003,1.114664e-002
2.518618e+003,1.118451e-002
2.520546e+003,1.125078e-002
2.522475e+003,1.130219e-002
2.524403e+003,1.133549e-002
2.526332e+003,1.128975e-002
2.528260e+003,1.128203e-002
2.530189e+003,1.129216e-002
2.532117e+003,1.126564e-002
2.534046e+003,1.119243e-002
2.535974e+003,1.118407e-002
2.537903e+003,1.119083e-002
2.539831e+003,1.128784e-002
2.541760e+003,1.137437e-002
2.543688e+003,1.138474e-002
2.545617e+003,1.130509e-002
2.547545e+003,1.132406e-002
2.549474e+003,1.139593e-002
2.551402e+003,1.132318e-002
2.553331e+003,1.132345e-002
2.555259e+003,1.140338e-002
2.557188e+003,1.144342e-002
2.559116e+003,1.146737e-002
2.561045e+003,1.146267e-002
2.562973e+003,1.136117e-002
2.564902e+003,1.141246e-002
2.566830e+003,1.149278e-002
2.568759e+003,1.146859e-002
2.570687e+003,1.145604e-002
2.572616e+003,1.151292e-002
2.574544e+003,1.153123e-002
2.576473e+003,1.148468e-002
2.578401e+003,1.144512e-002
2.580330e+003,1.139222e-002
2.582258e+003,1.141284e-002
2.584187e+003,1.152276e-002
2.586115e+003,1.151323e-002
2.588044e+003,1.144403e-002
2.589972e+003,1.153783e-002
2.591901e+003,1.157111e-002
2.593829e+003,1.142148e-002
2.595758e+003,1.138576e-002
2.597686e+003,1.146148e-002
2.599615e+003,1.146131e-002
2.601543e+003,1.147978e-002
2.603472e+003,1.151156e-002
2.605400e+003,1.154331e-002
2.607329e+003,1.157921e-002
2.609257e+003,1.164149e-002
2.611186e+003,1.162362e-002
2.613114e+003,1.164448e-002
2.615043e+003,1.166562e-002
2.616971e+003,1.166694e-002
2.618900e+003,1.172192e-002
2.620828e+003,1.170411e-002
2.622757e+003,1.175317e-002
2.624685e+003,1.174796e-002
2.626614e+003,1.169952e-002
2.628542e+003,1.176365e-002
2.630471e+003,1.181145e-002
2.632399e+003,1.182153e-002
2.634328e+003,1.184897e-002
2.636256e+003,1.189876e-002
2.638185e+003,1.202324e-002
2.640113e+003,1.197362e-002
2.642042e+003,1.184472e-002
2.643970e+003,1.197024e-002
2.645899e+003,1.212640e-002
2.647827e+003,1.214780e-002
2.649756e+003,1.211884e-002
2.651684e+003,1.212933e-002
2.653613e+003,1.216368e-002
2.655541e+003,1.223722e-002
2.657470e+003,1.219759e-002
2.659398e+003,1.221790e-002
2.661327e+003,1.238488e-002
2.663255e+003,1.240626e-002
2.665184e+003,1.231316e-002
2.667112e+003,1.237063e-002
2.669041e+003,1.250272e-002
2.670969e+003,1.255197e-002
2.672898e+003,1.247023e-002
2.674826e+003,1.245590e-002
2.676755e+003,1.250365e-002
2.678683e+003,1.247633e-002
2.680612e+003,1.248939e-002
2.682540e+003,1.262203e-002
2.684469e+003,1.270892e-002
2.686397e+003,1.280599e-002
2.688326e+003,1.291784e-002
2.690254e+003,1.298922e-002
2.692183e+003,1.291678e-002
2.694111e+003,1.280231e-002
2.696040e+003,1.285476e-002
2.697968e+003,1.289794e-002
2.699897e+003,1.300349e-002
2.701825e+003,1.310770e-002
2.703754e+003,1.312266e-002
2.705682e+003,1.324528e-002
2.707611e+003,1.329775e-002
2.709539e+003,1.326762e-002
2.711468e+003,1.330913e-002
2.713396e+003,1.337931e-002
2.715325e+003,1.349154e-002
2.717253e+003,1.353450e-002
2.719182e+003,1.355693e-002
2.721110e+003,1.354028e-002
2.723039e+003,1.364137e-002
2.724967e+003,1.380316e-002
2.726896e+003,1.385656e-002
2.728824e+003,1.387907e-002
2.730753e+003,1.402336e-002
2.732681e+003,1.407295e-002
2.734610e+003,1.407360e-002
2.736538e+003,1.410519e-002
2.738467e+003,1.417762e-002
2.740395e+003,1.431704e-002
2.742324e+003,1.442671e-002
2.744252e+003,1.445623e-002
2.746181e+003,1.449772e-002
2.748109e+003,1.451015e-002
2.750038e+003,1.463011e-002
2.751966e+003,1.479059e-002
2.753895e+003,1.489458e-002
2.755823e+003,1.503389e-002
2.757752e+003,1.519387e-002
2.759680e+003,1.529253e-002
2.761609e+003,1.543406e-002
2.763537e+003,1.577206e-002
2.765466e+003,1.602732e-002
2.767394e+003,1.625367e-002
2.769323e+003,1.658367e-002
2.771251e+003,1.698706e-002
2.773180e+003,1.735969e-002
2.775108e+003,1.776580e-002
2.777037e+003,1.820547e-002
2.778965e+003,1.863448e-002
2.780894e+003,1.927823e-002
2.782822e+003,1.998261e-002
2.784750e+003,2.066326e-002
2.786679e+003,2.131427e-002
2.788608e+003,2.187409e-002
2.790536e+003,2.251017e-002
2.792465e+003,2.326519e-002
2.794393e+003,2.400675e-002
2.796322e+003,2.471229e-002
2.798250e+003,2.543865e-002
2.800178e+003,2.601229e-002
2.802107e+003,2.644211e-002
2.804036e+003,2.695770e-002
2.805964e+003,2.737255e-002
2.807893e+003,2.776695e-002
2.809821e+003,2.803099e-002
2.811750e+003,2.809783e-002
2.813678e+003,2.800296e-002
2.815606e+003,2.788059e-002
2.817535e+003,2.762847e-002
2.819464e+003,2.740784e-002
2.821392e+003,2.711473e-002
2.823321e+003,2.674597e-002
2.825249e+003,2.634725e-002
2.827177e+003,2.586284e-002
2.829106e+003,2.534865e-002
2.831034e+003,2.466767e-002
2.832963e+003,2.407861e-002
2.834892e+003,2.365889e-002
2.836820e+003,2.311347e-002
2.838749e+003,2.243435e-002
2.840677e+003,2.172930e-002
2.842605e+003,2.123264e-002
2.844534e+003,2.071517e-002
2.846462e+003,1.999954e-002
2.848391e+003,1.931852e-002
2.850320e+003,1.879578e-002
2.852248e+003,1.854214e-002
2.854177e+003,1.846600e-002
2.856105e+003,1.841539e-002
2.858033e+003,1.834519e-002
2.859962e+003,1.837253e-002
2.861890e+003,1.824870e-002
2.863819e+003,1.806973e-002
2.865748e+003,1.814894e-002
2.867676e+003,1.818557e-002
2.869604e+003,1.821576e-002
2.871533e+003,1.834674e-002
2.873461e+003,1.847181e-002
2.875390e+003,1.854881e-002
2.877319e+003,1.867674e-002
2.879247e+003,1.889949e-002
2.881176e+003,1.901119e-002
2.883104e+003,1.905920e-002
2.885032e+003,1.916533e-002
2.886961e+003,1.911751e-002
2.888889e+003,1.899038e-002
2.890818e+003,1.886637e-002
2.892747e+003,1.877361e-002
2.894675e+003,1.870971e-002
2.896604e+003,1.864620e-002
2.898532e+003,1.855303e-002
2.900460e+003,1.852468e-002
2.902389e+003,1.850348e-002
2.904317e+003,1.833637e-002
2.906246e+003,1.826874e-002
2.908175e+003,1.826950e-002
2.910103e+003,1.818374e-002
2.912031e+003,1.805640e-002
2.913960e+003,1.790538e-002
2.915888e+003,1.784682e-002
2.917817e+003,1.779076e-002
2.919745e+003,1.797952e-002
2.921674e+003,1.818805e-002
2.923603e+003,1.844968e-002
2.925531e+003,1.866869e-002
2.927459e+003,1.893123e-002
2.929388e+003,1.921551e-002
2.931316e+003,1.942976e-002
2.933245e+003,1.963109e-002
2.935173e+003,1.976080e-002
2.937102e+003,1.983113e-002
2.939031e+003,1.988437e-002
2.940959e+003,1.983588e-002
2.942887e+003,1.976590e-002
2.944816e+003,1.971676e-002
2.946744e+003,1.969766e-002
2.948673e+003,1.955594e-002
2.950601e+003,1.908150e-002
2.952530e+003,1.843102e-002
2.954458e+003,1.792503e-002
2.956387e+003,1.748278e-002
2.958315e+003,1.697321e-002
2.960244e+003,1.630565e-002
2.962172e+003,1.557993e-002
2.964101e+003,1.504380e-002
2.966029e+003,1.467066e-002
2.967958e+003,1.431550e-002
2.969886e+003,1.400375e-002
2.971815e+003,1.360780e-002
2.973743e+003,1.322048e-002
2.975672e+003,1.283002e-002
2.977600e+003,1.260579e-002
2.979529e+003,1.238349e-002
2.981457e+003,1.218583e-002
2.983386e+003,1.202577e-002
2.985314e+003,1.172215e-002
2.987243e+003,1.154583e-002
2.989171e+003,1.145709e-002
2.991100e+003,1.121195e-002
2.993028e+003,1.109837e-002
2.994957e+003,1.116646e-002
2.996885e+003,1.106835e-002
2.998814e+003,1.096820e-002
3.000742e+003,1.093785e-002
3.002671e+003,1.091339e-002
3.004599e+003,1.091026e-002
3.006528e+003,1.087544e-002
3.008456e+003,1.077699e-002
3.010385e+003,1.071280e-002
3.012313e+003,1.064940e-002
3.014242e+003,1.060054e-002
3.016170e+003,1.065738e-002
3.018099e+003,1.069035e-002
3.020027e+003,1.057069e-002
3.021956e+003,1.053393e-002
3.023884e+003,1.053848e-002
3.025813e+003,1.053152e-002
3.027741e+003,1.045419e-002
3.029670e+003,1.038082e-002
3.031598e+003,1.041693e-002
3.033527e+003,1.045901e-002
3.035455e+003,1.053152e-002
3.037384e+003,1.056095e-002
3.039312e+003,1.049255e-002
3.041241e+003,1.035391e-002
3.043169e+003,1.027387e-002
3.045098e+003,1.023095e-002
3.047026e+003,1.015744e-002
3.048955e+003,1.009565e-002
3.050883e+003,1.014069e-002
3.052812e+003,1.021830e-002
3.054740e+003,1.016192e-002
3.056669e+003,1.016816e-002
3.058597e+003,1.016677e-002
3.060526e+003,1.001003e-002
3.062454e+003,1.002444e-002
3.064383e+003,1.006662e-002
3.066311e+003,1.004671e-002
3.068240e+003,1.003678e-002
3.070168e+003,1.003691e-002
3.072097e+003,9.937540e-003
3.074025e+003,9.860219e-003
3.075954e+003,9.867506e-003
3.077882e+003,9.884996e-003
3.079811e+003,9.909064e-003
3.081739e+003,9.828630e-003
3.083668e+003,9.711005e-003
3.085596e+003,9.636638e-003
3.087525e+003,9.674954e-003
3.089453e+003,9.684171e-003
3.091382e+003,9.735741e-003
3.093310e+003,9.757834e-003
3.095239e+003,9.722457e-003
3.097167e+003,9.777591e-003
3.099096e+003,9.750210e-003
3.101024e+003,9.612755e-003
3.102953e+003,9.474496e-003
3.104881e+003,9.498846e-003
3.106810e+003,9.702805e-003
3.108738e+003,9.757529e-003
3.110667e+003,9.729777e-003
3.112595e+003,9.681629e-003
3.114524e+003,9.675666e-003
3.116452e+003,9.601881e-003
3.118381e+003,9.579117e-003
3.120309e+003,9.647106e-003
3.122238e+003,9.747194e-003
3.124166e+003,9.831714e-003
3.126095e+003,9.838222e-003
3.128023e+003,9.686881e-003
3.129952e+003,9.579626e-003
3.131880e+003,9.495561e-003
3.133809e+003,9.540301e-003
3.135737e+003,9.546161e-003
3.137666e+003,9.536067e-003
3.139594e+003,9.607842e-003
3.141523e+003,9.606217e-003
3.143451e+003,9.677022e-003
3.145380e+003,9.596901e-003
3.147308e+003,9.477172e-003
3.149237e+003,9.602050e-003
3.151165e+003,9.649410e-003
3.153094e+003,9.732759e-003
3.155022e+003,9.779895e-003
3.156951e+003,9.718256e-003
3.158879e+003,9.774439e-003
3.160808e+003,9.815548e-003
3.162736e+003,9.793722e-003
3.164665e+003,9.856999e-003
3.166593e+003,9.870489e-003
3.168522e+003,9.770576e-003
3.170450e+003,9.749023e-003
3.172379e+003,9.713716e-003
3.174307e+003,9.736452e-003
3.176236e+003,9.800737e-003
3.178164e+003,9.843271e-003
3.180093e+003,9.839408e-003
3.182021e+003,9.866185e-003
3.183950e+003,9.939065e-003
3.185878e+003,9.870659e-003
3.187807e+003,9.902013e-003
3.189735e+003,9.980190e-003
3.191664e+003,9.939778e-003
3.193592e+003,9.898487e-003
3.195521e+003,9.850559e-003
3.197449e+003,9.855168e-003
3.199378e+003,9.849135e-003
3.201306e+003,9.770203e-003
3.203235e+003,9.846898e-003
3.205163e+003,9.878794e-003
3.207092e+003,9.840153e-003
3.209020e+003,9.902827e-003
3.210948e+003,9.920081e-003
3.212877e+003,9.977579e-003
3.214806e+003,1.000274e-002
3.216734e+003,9.985547e-003
3.218663e+003,1.008059e-002
3.220591e+003,1.012926e-002
3.222520e+003,1.020663e-002
3.224448e+003,1.013255e-002
3.226376e+003,1.007693e-002
3.228305e+003,1.020768e-002
3.230234e+003,1.039212e-002
3.232162e+003,1.038540e-002
3.234091e+003,1.039751e-002
3.236019e+003,1.038550e-002
3.237948e+003,1.033616e-002
3.239876e+003,1.050742e-002
3.241804e+003,1.081371e-002
3.243733e+003,1.091156e-002
3.245662e+003,1.086627e-002
3.247590e+003,1.089949e-002
3.249519e+003,1.097931e-002
3.251447e+003,1.106312e-002
3.253375e+003,1.101462e-002
3.255304e+003,1.105585e-002
3.257232e+003,1.128029e-002
3.259161e+003,1.140675e-002
3.261090e+003,1.145811e-002
3.263018e+003,1.149166e-002
3.264947e+003,1.144417e-002
3.266875e+003,1.134678e-002
3.268803e+003,1.146914e-002
3.270732e+003,1.152242e-002
3.272660e+003,1.148880e-002
3.274589e+003,1.151565e-002
3.276518e+003,1.148530e-002
3.278446e+003,1.159071e-002
3.280375e+003,1.170827e-002
3.282303e+003,1.165908e-002
3.284231e+003,1.174442e-002
3.286160e+003,1.183971e-002
3.288088e+003,1.173747e-002
3.290017e+003,1.153034e-002
3.291946e+003,1.162025e-002
3.293874e+003,1.168046e-002
3.295802e+003,1.153082e-002
3.297731e+003,1.153691e-002
3.299659e+003,1.160919e-002
3.301588e+003,1.141882e-002
3.303516e+003,1.118182e-002
3.305445e+003,1.108076e-002
3.307374e+003,1.121120e-002
3.309302e+003,1.112311e-002
3.311230e+003,1.092535e-002
3.313159e+003,1.087197e-002
3.315087e+003,1.074435e-002
3.317016e+003,1.072397e-002
3.318944e+003,1.066845e-002
3.320873e+003,1.052571e-002
3.322802e+003,1.039527e-002
3.324730e+003,1.030213e-002
3.326658e+003,1.023852e-002
3.328587e+003,1.030997e-002
3.330515e+003,1.019845e-002
3.332444e+003,1.002891e-002
3.334372e+003,9.996464e-003
3.336301e+003,1.002511e-002
3.338229e+003,9.952151e-003
3.340158e+003,9.790536e-003
3.342086e+003,9.851406e-003
3.344015e+003,9.842661e-003
3.345943e+003,9.825715e-003
3.347872e+003,9.789791e-003
3.349800e+003,9.677293e-003
3.351729e+003,9.608181e-003
3.353657e+003,9.636265e-003
3.355586e+003,9.615532e-003
3.357514e+003,9.594462e-003
3.359443e+003,9.562419e-003
3.361371e+003,9.546093e-003
3.363300e+003,9.571869e-003
3.365229e+003,9.516795e-003
3.367157e+003,9.290277e-003
3.369085e+003,9.034849e-003
3.371014e+003,9.000039e-003
3.372942e+003,9.031465e-003
3.374871e+003,8.967429e-003
3.376799e+003,8.984342e-003
3.378728e+003,8.910979e-003
3.380656e+003,8.860216e-003
3.382585e+003,8.808277e-003
3.384513e+003,8.746843e-003
3.386442e+003,8.627145e-003
3.388370e+003,8.541811e-003
3.390299e+003,8.597336e-003
3.392227e+003,8.559350e-003
3.394156e+003,8.490518e-003
3.396084e+003,8.528430e-003
3.398013e+003,8.391394e-003
3.399941e+003,8.330695e-003
3.401870e+003,8.397813e-003
3.403798e+003,8.429568e-003
3.405727e+003,8.438623e-003
3.407655e+003,8.347753e-003
3.409584e+003,8.404907e-003
3.411512e+003,8.486159e-003
3.413441e+003,8.337215e-003
3.415369e+003,8.276489e-003
3.417298e+003,8.297766e-003
3.419226e+003,8.240084e-003
3.421155e+003,8.176503e-003
3.423083e+003,8.123193e-003
3.425012e+003,8.224382e-003
3.426940e+003,8.290909e-003
3.428869e+003,8.297496e-003
3.430797e+003,8.300737e-003
3.432726e+003,8.346671e-003
3.434654e+003,8.359878e-003
3.436583e+003,8.213442e-003
3.438511e+003,8.150843e-003
3.440440e+003,8.281689e-003
3.442368e+003,8.200171e-003
3.444297e+003,8.193959e-003
3.446225e+003,8.345929e-003
3.448154e+003,8.398725e-003
3.450082e+003,8.330425e-003
3.452011e+003,8.299184e-003
3.453939e+003,8.414703e-003
3.455868e+003,8.371430e-003
3.457796e+003,8.238295e-003
3.459725e+003,8.256969e-003
3.461653e+003,8.308708e-003
3.463582e+003,8.374268e-003
3.465510e+003,8.293544e-003
3.467439e+003,8.034988e-003
3.469367e+003,8.122248e-003
3.471296e+003,8.324109e-003
3.473224e+003,8.317219e-003
3.475153e+003,8.105065e-003
3.477081e+003,8.108305e-003
3.479010e+003,8.126738e-003
3.480938e+003,8.026111e-003
3.482867e+003,7.917915e-003
3.484795e+003,8.185687e-003
3.486724e+003,8.405042e-003
3.488652e+003,8.331709e-003
3.490581e+003,8.407136e-003
3.492509e+003,8.365587e-003
3.494438e+003,8.228839e-003
3.496366e+003,8.291990e-003
3.498295e+003,8.351265e-003
3.500223e+003,8.415818e-003
3.502152e+003,8.443015e-003
3.504080e+003,8.525085e-003
3.506009e+003,8.439636e-003
3.507937e+003,8.283784e-003
3.509866e+003,8.219621e-003
3.511794e+003,8.321812e-003
3.513723e+003,8.290200e-003
3.515651e+003,8.299251e-003
3.517580e+003,8.392544e-003
3.519508e+003,8.485281e-003
3.521437e+003,8.424163e-003
3.523365e+003,8.285168e-003
3.525294e+003,8.254774e-003
3.527222e+003,8.361298e-003
3.529151e+003,8.393962e-003
3.531079e+003,8.270815e-003
3.533008e+003,8.392780e-003
3.534936e+003,8.470752e-003
3.536865e+003,8.492883e-003
3.538793e+003,8.336268e-003
3.540722e+003,8.138081e-003
3.542650e+003,8.125826e-003
3.544579e+003,8.320157e-003
3.546507e+003,8.648709e-003
3.548436e+003,8.758135e-003
3.550364e+003,8.742076e-003
3.552293e+003,8.724970e-003
3.554221e+003,8.587873e-003
3.556150e+003,8.428082e-003
3.558078e+003,8.535661e-003
3.560007e+003,8.497377e-003
3.561935e+003,8.345624e-003
3.563864e+003,8.415346e-003
3.565792e+003,8.661858e-003
3.567721e+003,8.693260e-003
3.569649e+003,8.528768e-003
3.571578e+003,8.509001e-003
3.573506e+003,8.529984e-003
3.575435e+003,8.465854e-003
3.577363e+003,8.579119e-003
3.579292e+003,8.630525e-003
3.581220e+003,8.496397e-003
3.583149e+003,8.457373e-003
3.585077e+003,8.591522e-003
3.587006e+003,8.862111e-003
3.588934e+003,8.708033e-003
3.590863e+003,8.425582e-003
3.592791e+003,8.641645e-003
3.594720e+003,8.706918e-003
3.596648e+003,8.659897e-003
3.598577e+003,8.600276e-003
3.600505e+003,8.630457e-003
3.602434e+003,8.719594e-003
3.604362e+003,8.803138e-003
3.606291e+003,8.833231e-003
3.608219e+003,8.912331e-003
3.610148e+003,8.887880e-003
3.612076e+003,8.772775e-003
3.614005e+003,8.684708e-003
3.615933e+003,8.807634e-003
3.617862e+003,8.883044e-003
3.619790e+003,8.755769e-003
3.621719e+003,8.454704e-003
3.623647e+003,8.286756e-003
3.625576e+003,8.526673e-003
3.627504e+003,9.164676e-003
3.629433e+003,9.421365e-003
3.631361e+003,8.805842e-003
3.633290e+003,8.618155e-003
3.635218e+003,8.547556e-003
3.637146e+003,8.512650e-003
3.639075e+003,8.474233e-003
3.641004e+003,8.321509e-003
3.642932e+003,8.332823e-003
3.644861e+003,8.486058e-003
3.646789e+003,8.707188e-003
3.648718e+003,8.949469e-003
3.650646e+003,8.838506e-003
3.652574e+003,8.350184e-003
3.654503e+003,8.450245e-003
3.656432e+003,8.824913e-003
3.658360e+003,8.588987e-003
3.660289e+003,8.371498e-003
3.662217e+003,8.374403e-003
3.664146e+003,8.248493e-003
3.666074e+003,8.106145e-003
3.668002e+003,8.241131e-003
3.669931e+003,8.586284e-003
3.671860e+003,8.712461e-003
3.673788e+003,8.903098e-003
3.675717e+003,8.971320e-003
3.677645e+003,8.686398e-003
3.679573e+003,8.579086e-003
3.681502e+003,8.487510e-003
3.683430e+003,8.615146e-003
3.685359e+003,8.712225e-003
3.687288e+003,8.825657e-003
3.689216e+003,8.735551e-003
3.691145e+003,8.593787e-003
3.693073e+003,8.467678e-003
3.695001e+003,8.530458e-003
3.696930e+003,8.739507e-003
3.698858e+003,8.861367e-003
3.700787e+003,8.959007e-003
3.702716e+003,8.904756e-003
3.704644e+003,8.745017e-003
3.706573e+003,8.730142e-003
3.708501e+003,8.738594e-003
3.710429e+003,8.909694e-003
3.712358e+003,8.956335e-003
3.714286e+003,8.415211e-003
3.716215e+003,8.408218e-003
3.718144e+003,8.701982e-003
3.720072e+003,8.584561e-003
3.722000e+003,8.635899e-003
3.723929e+003,8.659694e-003
3.725857e+003,8.624374e-003
3.727786e+003,8.420717e-003
3.729714e+003,8.537080e-003
3.731643e+003,8.843038e-003
3.733572e+003,8.982008e-003
3.735500e+003,9.084819e-003
3.737428e+003,8.816459e-003
3.739357e+003,8.459332e-003
3.741285e+003,8.642456e-003
3.743214e+003,9.176588e-003
3.745142e+003,8.874420e-003
3.747071e+003,8.595882e-003
3.749000e+003,8.955591e-003
3.750928e+003,8.897721e-003
3.752856e+003,8.657565e-003
3.754785e+003,8.435142e-003
3.756713e+003,8.416899e-003
3.758642e+003,8.505757e-003
3.760570e+003,8.721556e-003
3.762499e+003,8.449332e-003
3.764427e+003,8.268418e-003
3.766356e+003,8.342315e-003
3.768284e+003,8.309856e-003
3.770213e+003,8.337721e-003
3.772141e+003,8.197639e-003
3.774070e+003,8.150066e-003
3.775998e+003,8.208377e-003
3.777927e+003,8.357750e-003
3.779855e+003,8.593584e-003
3.781784e+003,8.620926e-003
3.783712e+003,8.371837e-003
3.785641e+003,8.232825e-003
3.787569e+003,8.299961e-003
3.789498e+003,8.070363e-003
3.791426e+003,7.975148e-003
3.793355e+003,8.086734e-003
3.795283e+003,8.304959e-003
3.797212e+003,8.414636e-003
3.799140e+003,8.632688e-003
3.801069e+003,8.843038e-003
3.802997e+003,8.513934e-003
3.804926e+003,8.600073e-003
3.806854e+003,8.708912e-003
3.808783e+003,8.204629e-003
3.810711e+003,8.195275e-003
3.812640e+003,8.302054e-003
3.814568e+003,8.301716e-003
3.816497e+003,8.432879e-003
3.818425e+003,8.614843e-003
3.820354e+003,8.853420e-003
3.822282e+003,8.660607e-003
3.824211e+003,8.361871e-003
3.826139e+003,8.346942e-003
3.828068e+003,8.367614e-003
3.829996e+003,8.430886e-003
3.831925e+003,8.339713e-003
3.833853e+003,8.375958e-003
3.835782e+003,8.599127e-003
3.837710e+003,8.681260e-003
3.839639e+003,8.494708e-003
3.841567e+003,8.437845e-003
3.843496e+003,8.490214e-003
3.845424e+003,8.272808e-003
3.847353e+003,8.004274e-003
3.849281e+003,8.143854e-003
3.851210e+003,8.681565e-003
3.853138e+003,9.137435e-003
3.855067e+003,8.745220e-003
3.856995e+003,8.413555e-003
3.858924e+003,8.389098e-003
3.860852e+003,8.491430e-003
3.862781e+003,8.620723e-003
3.864709e+003,8.538635e-003
3.866638e+003,8.128358e-003
3.868566e+003,8.337282e-003
3.870495e+003,8.386193e-003
3.872423e+003,8.255247e-003
3.874352e+003,8.304317e-003
3.876280e+003,8.156211e-003
3.878209e+003,8.112728e-003
3.880137e+003,8.198619e-003
3.882066e+003,8.220668e-003
3.883994e+003,8.293374e-003
3.885923e+003,8.374876e-003
3.887851e+003,8.353394e-003
3.889780e+003,8.516705e-003
3.891708e+003,8.454029e-003
3.893637e+003,8.172789e-003
3.895565e+003,7.862681e-003
3.897494e+003,7.882688e-003
3.899422e+003,8.291686e-003
3.901351e+003,8.334748e-003
3.903279e+003,8.110162e-003
3.905208e+003,8.057299e-003
3.907136e+003,7.974305e-003
3.909065e+003,7.968635e-003
3.910993e+003,8.142504e-003
3.912922e+003,8.183526e-003
3.914850e+003,8.225530e-003
3.916779e+003,8.297496e-003
3.918707e+003,8.138554e-003
3.920636e+003,7.980919e-003
3.922564e+003,8.110804e-003
3.924493e+003,8.228266e-003
3.926421e+003,8.145981e-003
3.928350e+003,7.955170e-003
3.930278e+003,7.815988e-003
3.932207e+003,7.847565e-003
3.934135e+003,7.841932e-003
3.936064e+003,7.883127e-003
3.937992e+003,8.078970e-003
3.939921e+003,8.040793e-003
3.941849e+003,8.092945e-003
3.943778e+003,8.018719e-003
3.945706e+003,8.057603e-003
3.947635e+003,8.231271e-003
3.949563e+003,8.299758e-003
3.951492e+003,8.207904e-003
3.953420e+003,7.996039e-003
3.955349e+003,7.762419e-003
3.957277e+003,7.697659e-003
3.959206e+003,7.665148e-003
3.961134e+003,7.639990e-003
3.963063e+003,7.852087e-003
3.964991e+003,7.893688e-003
3.966920e+003,8.010821e-003
3.968848e+003,8.157325e-003
3.970777e+003,7.960974e-003
3.972705e+003,7.987872e-003
3.974634e+003,8.185855e-003
3.976562e+003,7.969580e-003
3.978491e+003,7.700694e-003
3.980419e+003,7.978692e-003
3.982348e+003,8.230191e-003
3.984276e+003,8.146724e-003
3.986205e+003,8.015952e-003
3.988133e+003,8.201623e-003
3.990062e+003,8.462272e-003
3.991990e+003,8.338599e-003
3.993919e+003,7.885894e-003
3.995847e+003,7.665620e-003
3.997776e+003,7.998975e-003
3.999704e+003,8.051730e-003
4.001633e+003,0.000000e+000
