3.991989e+002,1.034207e-002
4.011274e+002,1.856752e-002
4.030559e+002,8.974601e-003
4.049844e+002,1.778005e-004
4.069129e+002,7.430034e-004
4.088414e+002,3.123986e-003
4.107699e+002,3.780266e-003
4.126984e+002,2.452702e-003
4.146269e+002,-1.794500e-004
4.165554e+002,2.396825e-003
4.184839e+002,4.674870e-003
4.204124e+002,4.204888e-003
4.223409e+002,7.819092e-003
4.242694e+002,1.316204e-002
4.261979e+002,8.756681e-003
4.281264e+002,6.554687e-003
4.300549e+002,6.240690e-003
4.319834e+002,-2.606999e-003
4.339119e+002,-4.067316e-003
4.358404e+002,4.249755e-003
4.377689e+002,6.851879e-003
4.396974e+002,3.756034e-003
4.416259e+002,3.187400e-003
4.435544e+002,5.818742e-003
4.454829e+002,6.695855e-003
4.474114e+002,8.459535e-003
4.493399e+002,6.151320e-003
4.512684e+002,2.348318e-003
4.531969e+002,2.510786e-003
4.551254e+002,5.745810e-003
4.570539e+002,6.718165e-003
4.589824e+002,3.597778e-003
4.609109e+002,4.589740e-003
4.628394e+002,5.405322e-003
4.647679e+002,3.645422e-003
4.666964e+002,1.999930e-003
4.686249e+002,9.528529e-004
4.705533e+002,2.469530e-003
4.724819e+002,4.027639e-003
4.744103e+002,3.253761e-003
4.763389e+002,8.689474e-004
4.782673e+002,6.372143e-005
4.801959e+002,1.265907e-003
4.821243e+002,2.871124e-003
4.840529e+002,1.799455e-003
4.859813e+002,6.130809e-004
4.879099e+002,6.113223e-004
4.898383e+002,7.363008e-005
4.917668e+002,-1.267084e-003
4.936953e+002,9.342575e-004
4.956238e+002,1.997833e-003
4.975523e+002,4.571589e-004
4.994808e+002,1.776679e-004
5.014093e+002,2.389290e-004
5.033378e+002,-5.197276e-004
5.052663e+002,-1.016951e-003
5.071948e+002,-1.680022e-003
5.091233e+002,-2.391117e-003
5.110518e+002,-2.490391e-003
5.129803e+002,-2.201535e-003
5.149088e+002,-2.950843e-003
5.168373e+002,-3.296455e-003
5.187658e+002,-3.280736e-003
5.206943e+002,-3.513892e-003
5.226228e+002,-3.512873e-003
5.245513e+002,-3.994470e-003
5.264798e+002,-4.308776e-003
5.284083e+002,-3.181446e-003
5.303368e+002,-2.996256e-003
5.322653e+002,-4.388260e-003
5.341938e+002,-4.600758e-003
5.361223e+002,-4.261335e-003
5.380508e+002,-3.405417e-003
5.399792e+002,-1.729462e-003
5.419078e+002,-1.976546e-003
5.438363e+002,-1.703357e-003
5.457648e+002,-1.172851e-003
5.476932e+002,-2.362810e-003
5.496218e+002,-2.009892e-003
5.515503e+002,-4.198703e-004
5.534788e+002,-1.204587e-004
5.554072e+002,-4.690572e-004
5.573358e+002,-8.136958e-005
5.592643e+002,2.460236e-004
5.611927e+002,-1.326184e-003
5.631212e+002,-1.197997e-003
5.650497e+002,8.605763e-005
5.669783e+002,4.138093e-004
5.689067e+002,9.473739e-004
5.708352e+002,3.226134e-004
5.727637e+002,-1.500497e-003
5.746923e+002,-2.746755e-003
5.766207e+002,-9.760914e-004
5.785492e+002,2.641844e-003
5.804777e+002,4.038039e-003
5.824063e+002,-7.553621e-004
5.843347e+002,-1.590896e-003
5.862632e+002,-1.401547e-005
5.881917e+002,-9.455762e-004
5.901202e+002,-2.318913e-003
5.920487e+002,-4.135816e-003
5.939772e+002,-5.259627e-003
5.959057e+002,-5.783958e-003
5.978342e+002,-3.607816e-003
5.997627e+002,-2.968746e-003
6.016912e+002,-2.819020e-003
6.036197e+002,-1.693059e-003
6.055482e+002,-1.090636e-004
6.074767e+002,-2.690401e-005
6.094052e+002,4.794159e-004
6.113337e+002,1.440137e-003
6.132622e+002,1.319977e-003
6.151907e+002,8.181870e-004
6.171192e+002,4.055511e-004
6.190477e+002,-2.302868e-004
6.209762e+002,3.012929e-004
6.229047e+002,-1.315614e-003
6.248332e+002,-3.859482e-003
6.267617e+002,-5.084001e-003
6.286902e+002,-4.736073e-003
6.306187e+002,-3.450618e-003
6.325472e+002,-3.075981e-003
6.344756e+002,-3.130822e-003
6.364042e+002,-3.095720e-003
6.383326e+002,-3.273271e-003
6.402612e+002,-3.314376e-003
6.421896e+002,-2.236676e-003
6.441182e+002,-2.035550e-003
6.460466e+002,-2.494146e-003
6.479752e+002,-2.425880e-003
6.499036e+002,-2.234632e-003
6.518322e+002,-2.251147e-003
6.537606e+002,-1.782461e-003
6.556891e+002,-1.557618e-003
6.576177e+002,-1.861254e-003
6.595461e+002,-1.872009e-003
6.614746e+002,-2.318550e-003
6.634031e+002,-2.121122e-003
6.653317e+002,-1.317563e-003
6.672601e+002,-4.600543e-004
6.691886e+002,-2.318764e-004
6.711171e+002,-1.240361e-004
6.730457e+002,-1.926648e-004
6.749741e+002,-7.617789e-004
6.769026e+002,-8.240896e-004
6.788311e+002,-3.675329e-004
6.807596e+002,-1.615978e-004
6.826881e+002,-3.772659e-004
6.846166e+002,-4.629008e-004
6.865451e+002,-2.580706e-004
6.884736e+002,-2.771110e-004
6.904021e+002,-4.192083e-004
6.923306e+002,-3.949398e-005
6.942591e+002,4.732462e-004
6.961876e+002,6.903328e-004
6.981161e+002,6.879765e-004
7.000446e+002,-1.235724e-004
7.019731e+002,-6.970113e-004
7.039016e+002,-3.513768e-004
7.058301e+002,-7.067700e-004
7.077585e+002,-9.746368e-004
7.096871e+002,-9.021637e-004
7.116156e+002,-1.470977e-003
7.135441e+002,-2.218612e-003
7.154725e+002,-2.369401e-003
7.174011e+002,-2.462584e-003
7.193296e+002,-2.461761e-003
7.212581e+002,-1.891671e-003
7.231865e+002,-1.689296e-003
7.251151e+002,-1.683553e-003
7.270436e+002,-1.579936e-003
7.289720e+002,-1.679230e-003
7.309005e+002,-1.191851e-003
7.328290e+002,-9.641566e-004
7.347576e+002,-1.481775e-003
7.366860e+002,-1.598357e-003
7.386145e+002,-1.507365e-003
7.405430e+002,-1.080944e-003
7.424716e+002,-7.568175e-004
7.444000e+002,-7.656488e-004
7.463285e+002,-6.240618e-004
7.482570e+002,-5.131087e-004
7.501855e+002,-2.489641e-004
7.521140e+002,5.192225e-004
7.540425e+002,1.147655e-003
7.559710e+002,1.290531e-003
7.578995e+002,1.577623e-003
7.598280e+002,1.890562e-003
7.617565e+002,2.313739e-003
7.636850e+002,2.821096e-003
7.656135e+002,3.415265e-003
7.675420e+002,3.594670e-003
7.694705e+002,3.273791e-003
7.713990e+002,2.966260e-003
7.733275e+002,2.986877e-003
7.752560e+002,2.919590e-003
7.771844e+002,3.215205e-003
7.791130e+002,3.548301e-003
7.810415e+002,3.737887e-003
7.829700e+002,3.253594e-003
7.848984e+002,2.728627e-003
7.868270e+002,2.737829e-003
7.887555e+002,2.565944e-003
7.906840e+002,2.245157e-003
7.926124e+002,1.957125e-003
7.945410e+002,1.964547e-003
7.964695e+002,1.967077e-003
7.983979e+002,2.122376e-003
8.003264e+002,2.265874e-003
8.022549e+002,2.213518e-003
8.041835e+002,1.932396e-003
8.061119e+002,1.260856e-003
8.080404e+002,8.646646e-004
8.099689e+002,1.277172e-003
8.118975e+002,1.836355e-003
8.138259e+002,1.628938e-003
8.157545e+002,1.396191e-003
8.176830e+002,1.582545e-003
8.196115e+002,1.461348e-003
8.215399e+002,1.125463e-003
8.234684e+002,1.390374e-003
8.253970e+002,1.755472e-003
8.273254e+002,2.125573e-003
8.292539e+002,2.088948e-003
8.311824e+002,1.969340e-003
8.331110e+002,2.052693e-003
8.350394e+002,2.049896e-003
8.369679e+002,2.169726e-003
8.388964e+002,2.084553e-003
8.408250e+002,1.997500e-003
8.427534e+002,1.900413e-003
8.446819e+002,1.765653e-003
8.466104e+002,1.813529e-003
8.485389e+002,1.786213e-003
8.504674e+002,1.548759e-003
8.523959e+002,1.441667e-003
8.543244e+002,1.340250e-003
8.562529e+002,1.301930e-003
8.581814e+002,1.391105e-003
8.601099e+002,1.350188e-003
8.620384e+002,1.325892e-003
8.639669e+002,1.553282e-003
8.658954e+002,1.358498e-003
8.678239e+002,1.062416e-003
8.697524e+002,1.107425e-003
8.716809e+002,1.145628e-003
8.736094e+002,9.895149e-004
8.755378e+002,8.095560e-004
8.774664e+002,1.203305e-003
8.793949e+002,1.166658e-003
8.813234e+002,7.095484e-004
8.832518e+002,1.015087e-003
8.851804e+002,1.382396e-003
8.871089e+002,1.471488e-003
8.890374e+002,1.335996e-003
8.909658e+002,1.503638e-003
8.928943e+002,1.982754e-003
8.948229e+002,2.008951e-003
8.967513e+002,1.817955e-003
8.986798e+002,1.792568e-003
9.006083e+002,1.729890e-003
9.025369e+002,1.943645e-003
9.044653e+002,2.134330e-003
9.063938e+002,1.784150e-003
9.083223e+002,1.475843e-003
9.102509e+002,1.376180e-003
9.121793e+002,1.312765e-003
9.141078e+002,1.139515e-003
9.160364e+002,7.028776e-004
9.179648e+002,7.721790e-004
9.198933e+002,6.350140e-004
9.218218e+002,4.213711e-004
9.237504e+002,3.033155e-004
9.256788e+002,2.886071e-005
9.276073e+002,-2.963822e-004
9.295358e+002,-6.444426e-004
9.314644e+002,-1.026306e-003
9.333928e+002,-1.226083e-003
9.353213e+002,-1.380487e-003
9.372498e+002,-1.324367e-003
9.391783e+002,-1.564353e-003
9.411068e+002,-1.748900e-003
9.430353e+002,-1.591127e-003
9.449637e+002,-1.662099e-003
9.468923e+002,-1.794703e-003
9.488208e+002,-1.807110e-003
9.507493e+002,-1.959230e-003
9.526777e+002,-2.367589e-003
9.546063e+002,-2.373421e-003
9.565348e+002,-2.297194e-003
9.584633e+002,-2.482154e-003
9.603917e+002,-2.440839e-003
9.623203e+002,-2.397971e-003
9.642488e+002,-2.419191e-003
9.661772e+002,-2.259585e-003
9.681057e+002,-2.224941e-003
9.700343e+002,-2.495563e-003
9.719628e+002,-2.358625e-003
9.738912e+002,-2.299962e-003
9.758197e+002,-2.438533e-003
9.777483e+002,-2.496189e-003
9.796768e+002,-2.586314e-003
9.816052e+002,-2.784980e-003
9.835337e+002,-2.722588e-003
9.854623e+002,-2.452601e-003
9.873907e+002,-2.256652e-003
9.893192e+002,-2.363305e-003
9.912477e+002,-2.509004e-003
9.931763e+002,-2.366007e-003
9.951047e+002,-2.413788e-003
9.970332e+002,-2.410064e-003
9.989617e+002,-2.177700e-003
1.000890e+003,-1.969752e-003
1.002819e+003,-1.728802e-003
1.004747e+003,-1.693719e-003
1.006676e+003,-1.631005e-003
1.008604e+003,-1.561778e-003
1.010533e+003,-1.479100e-003
1.012461e+003,-1.211181e-003
1.014390e+003,-1.078465e-003
1.016318e+003,-7.838069e-004
1.018247e+003,-4.459870e-004
1.020175e+003,-3.902761e-004
1.022104e+003,-2.597594e-004
1.024032e+003,1.070361e-004
1.025961e+003,4.539747e-004
1.027889e+003,6.312644e-004
1.029818e+003,9.030123e-004
1.031746e+003,1.303127e-003
1.033675e+003,1.583676e-003
1.035603e+003,1.677931e-003
1.037532e+003,1.925872e-003
1.039460e+003,2.291155e-003
1.041389e+003,2.415817e-003
1.043317e+003,2.505753e-003
1.045246e+003,2.719991e-003
1.047174e+003,2.723692e-003
1.049103e+003,2.541513e-003
1.051031e+003,2.336491e-003
1.052960e+003,2.294719e-003
1.054888e+003,2.317137e-003
1.056817e+003,2.240594e-003
1.058745e+003,1.960553e-003
1.060674e+003,1.926505e-003
1.062602e+003,1.891627e-003
1.064531e+003,1.737974e-003
1.066459e+003,1.694230e-003
1.068388e+003,1.762658e-003
1.070316e+003,1.887534e-003
1.072245e+003,2.090646e-003
1.074173e+003,2.060816e-003
1.076102e+003,1.982920e-003
1.078030e+003,2.167329e-003
1.079959e+003,2.101334e-003
1.081887e+003,1.986948e-003
1.083816e+003,2.001927e-003
1.085744e+003,2.016873e-003
1.087673e+003,1.972469e-003
1.089601e+003,1.840015e-003
1.091530e+003,1.843742e-003
1.093458e+003,1.813563e-003
1.095387e+003,1.730056e-003
1.097315e+003,1.534794e-003
1.099244e+003,1.574331e-003
1.101172e+003,1.725865e-003
1.103101e+003,1.652054e-003
1.105029e+003,1.718413e-003
1.106958e+003,1.765653e-003
1.108886e+003,1.944044e-003
1.110815e+003,1.866536e-003
1.112743e+003,1.727628e-003
1.114672e+003,1.673906e-003
1.116600e+003,1.947439e-003
1.118529e+003,2.167895e-003
1.120457e+003,2.030521e-003
1.122386e+003,1.976829e-003
1.124314e+003,2.012512e-003
1.126243e+003,1.996002e-003
1.128171e+003,1.780358e-003
1.130100e+003,1.723902e-003
1.132028e+003,1.530936e-003
1.133957e+003,1.295749e-003
1.135885e+003,1.055242e-003
1.137814e+003,5.580705e-004
1.139742e+003,-7.931565e-005
1.141671e+003,-2.626072e-004
1.143599e+003,-4.288078e-004
1.145528e+003,-8.869203e-004
1.147456e+003,-1.456282e-003
1.149385e+003,-1.768898e-003
1.151313e+003,-2.020874e-003
1.153242e+003,-2.398597e-003
1.155170e+003,-2.448252e-003
1.157099e+003,-2.285031e-003
1.159027e+003,-2.408713e-003
1.160956e+003,-2.594384e-003
1.162884e+003,-2.614146e-003
1.164813e+003,-2.671910e-003
1.166741e+003,-2.658935e-003
1.168670e+003,-2.608810e-003
1.170598e+003,-2.542572e-003
1.172526e+003,-2.433854e-003
1.174455e+003,-2.365282e-003
1.176384e+003,-2.246829e-003
1.178312e+003,-2.220095e-003
1.180240e+003,-2.262222e-003
1.182169e+003,-2.245807e-003
1.184098e+003,-2.311300e-003
1.186026e+003,-2.352660e-003
1.187954e+003,-2.165897e-003
1.189883e+003,-2.148192e-003
1.191812e+003,-2.177700e-003
1.193740e+003,-2.149016e-003
1.195668e+003,-2.294623e-003
1.197597e+003,-2.526562e-003
1.199526e+003,-2.610259e-003
1.201454e+003,-2.436622e-003
1.203382e+003,-2.165600e-003
1.205311e+003,-2.161743e-003
1.207240e+003,-2.061207e-003
1.209168e+003,-1.980933e-003
1.211096e+003,-1.919382e-003
1.213025e+003,-1.717911e-003
1.214953e+003,-1.669757e-003
1.216882e+003,-1.756391e-003
1.218810e+003,-1.829019e-003
1.220739e+003,-1.827105e-003
1.222667e+003,-1.646849e-003
1.224596e+003,-1.387819e-003
1.226524e+003,-1.392146e-003
1.228453e+003,-1.324698e-003
1.230381e+003,-1.286840e-003
1.232310e+003,-1.244948e-003
1.234238e+003,-1.147505e-003
1.236167e+003,-1.089670e-003
1.238095e+003,-9.873976e-004
1.240024e+003,-9.907696e-004
1.241952e+003,-1.172818e-003
1.243881e+003,-1.524403e-003
1.245809e+003,-1.802622e-003
1.247738e+003,-2.000624e-003
1.249666e+003,-2.025491e-003
1.251595e+003,-2.191612e-003
1.253523e+003,-2.459487e-003
1.255452e+003,-2.746327e-003
1.257380e+003,-3.031563e-003
1.259309e+003,-3.294975e-003
1.261237e+003,-3.393417e-003
1.263166e+003,-3.349229e-003
1.265094e+003,-3.300565e-003
1.267023e+003,-3.261531e-003
1.268951e+003,-3.369779e-003
1.270880e+003,-3.415444e-003
1.272808e+003,-3.517441e-003
1.274737e+003,-3.603610e-003
1.276665e+003,-3.650334e-003
1.278594e+003,-3.664199e-003
1.280522e+003,-3.753985e-003
1.282451e+003,-3.993092e-003
1.284379e+003,-4.064427e-003
1.286308e+003,-4.021095e-003
1.288236e+003,-3.987806e-003
1.290165e+003,-3.962722e-003
1.292093e+003,-3.992862e-003
1.294022e+003,-4.003860e-003
1.295950e+003,-4.007766e-003
1.297879e+003,-4.108443e-003
1.299807e+003,-4.143299e-003
1.301736e+003,-4.099319e-003
1.303664e+003,-4.201911e-003
1.305593e+003,-4.326819e-003
1.307521e+003,-4.240532e-003
1.309450e+003,-4.165091e-003
1.311378e+003,-4.276427e-003
1.313307e+003,-4.427455e-003
1.315235e+003,-4.477338e-003
1.317164e+003,-4.225602e-003
1.319092e+003,-4.198695e-003
1.321021e+003,-4.289551e-003
1.322949e+003,-4.157772e-003
1.324878e+003,-3.968468e-003
1.326806e+003,-3.919939e-003
1.328735e+003,-3.707140e-003
1.330663e+003,-3.411959e-003
1.332592e+003,-3.282578e-003
1.334520e+003,-3.337557e-003
1.336449e+003,-3.342851e-003
1.338377e+003,-3.268240e-003
1.340306e+003,-3.273962e-003
1.342234e+003,-3.252882e-003
1.344163e+003,-3.357022e-003
1.346091e+003,-3.498247e-003
1.348020e+003,-3.456634e-003
1.349948e+003,-3.554053e-003
1.351877e+003,-3.710589e-003
1.353805e+003,-3.739531e-003
1.355734e+003,-3.721595e-003
1.357662e+003,-3.768044e-003
1.359591e+003,-3.817149e-003
1.361519e+003,-3.903356e-003
1.363448e+003,-4.177857e-003
1.365376e+003,-4.563414e-003
1.367305e+003,-4.884026e-003
1.369233e+003,-5.189700e-003
1.371162e+003,-5.255241e-003
1.373090e+003,-5.255896e-003
1.375019e+003,-5.528791e-003
1.376947e+003,-5.640171e-003
1.378876e+003,-5.708751e-003
1.380804e+003,-5.837183e-003
1.382733e+003,-5.878536e-003
1.384661e+003,-5.969204e-003
1.386590e+003,-5.967669e-003
1.388518e+003,-6.044921e-003
1.390447e+003,-6.361241e-003
1.392375e+003,-6.504300e-003
1.394304e+003,-6.364670e-003
1.396232e+003,-6.457163e-003
1.398161e+003,-6.486281e-003
1.400089e+003,-6.545851e-003
1.402018e+003,-6.674394e-003
1.403946e+003,-6.716711e-003
1.405875e+003,-6.675405e-003
1.407803e+003,-6.661767e-003
1.409732e+003,-6.629494e-003
1.411660e+003,-6.382464e-003
1.413589e+003,-6.170183e-003
1.415517e+003,-5.934234e-003
1.417446e+003,-5.523328e-003
1.419374e+003,-5.173165e-003
1.421303e+003,-5.165340e-003
1.423231e+003,-4.995407e-003
1.425160e+003,-4.625084e-003
1.427088e+003,-4.318356e-003
1.429017e+003,-3.984884e-003
1.430945e+003,-3.681218e-003
1.432874e+003,-3.212660e-003
1.434802e+003,-2.490687e-003
1.436731e+003,-1.969290e-003
1.438659e+003,-1.963089e-003
1.440588e+003,-1.823311e-003
1.442516e+003,-1.381676e-003
1.444445e+003,-1.011166e-003
1.446373e+003,-7.339611e-004
1.448302e+003,-6.335906e-004
1.450230e+003,-6.371969e-004
1.452159e+003,-6.085109e-004
1.454087e+003,-4.108665e-004
1.456016e+003,8.337325e-005
1.457944e+003,4.771328e-006
1.459873e+003,-5.932241e-004
1.461801e+003,-9.780088e-004
1.463730e+003,-1.205795e-003
1.465658e+003,-1.523148e-003
1.467587e+003,-1.921493e-003
1.469515e+003,-2.072947e-003
1.471444e+003,-2.146675e-003
1.473372e+003,-2.469108e-003
1.475301e+003,-2.858160e-003
1.477229e+003,-3.268667e-003
1.479158e+003,-3.718802e-003
1.481086e+003,-4.014891e-003
1.483015e+003,-4.450577e-003
1.484943e+003,-4.692579e-003
1.486872e+003,-4.613773e-003
1.488800e+003,-4.528560e-003
1.490729e+003,-4.615544e-003
1.492657e+003,-4.860533e-003
1.494586e+003,-4.908565e-003
1.496514e+003,-4.908204e-003
1.498443e+003,-5.132400e-003
1.500371e+003,-5.382989e-003
1.502300e+003,-5.381025e-003
1.504228e+003,-4.997634e-003
1.506157e+003,-4.492751e-003
1.508085e+003,-4.843298e-003
1.510014e+003,-5.327973e-003
1.511942e+003,-5.376804e-003
1.513871e+003,-5.249447e-003
1.515799e+003,-5.082167e-003
1.517728e+003,-5.107088e-003
1.519656e+003,-5.030617e-003
1.521585e+003,-4.769960e-003
1.523513e+003,-4.836024e-003
1.525442e+003,-4.820263e-003
1.527370e+003,-4.899555e-003
1.529299e+003,-4.894477e-003
1.531227e+003,-4.779989e-003
1.533156e+003,-4.545119e-003
1.535084e+003,-4.541839e-003
1.537013e+003,-4.368120e-003
1.538941e+003,-3.836953e-003
1.540870e+003,-3.555894e-003
1.542798e+003,-3.703263e-003
1.544727e+003,-3.953266e-003
1.546655e+003,-4.222387e-003
1.548584e+003,-4.271604e-003
1.550512e+003,-4.343321e-003
1.552441e+003,-4.371138e-003
1.554369e+003,-4.198531e-003
1.556298e+003,-3.951690e-003
1.558226e+003,-3.335058e-003
1.560155e+003,-3.301913e-003
1.562083e+003,-3.677177e-003
1.564012e+003,-3.618101e-003
1.565940e+003,-3.599798e-003
1.567869e+003,-3.313093e-003
1.569797e+003,-2.859674e-003
1.571726e+003,-2.934388e-003
1.573654e+003,-2.932545e-003
1.575583e+003,-2.544383e-003
1.577511e+003,-2.557790e-003
1.579440e+003,-2.732038e-003
1.581368e+003,-2.707639e-003
1.583297e+003,-2.744088e-003
1.585225e+003,-2.573436e-003
1.587154e+003,-2.417214e-003
1.589082e+003,-2.475071e-003
1.591010e+003,-2.626562e-003
1.592939e+003,-2.715410e-003
1.594868e+003,-2.720875e-003
1.596796e+003,-2.749883e-003
1.598724e+003,-2.812403e-003
1.600653e+003,-2.875441e-003
1.602582e+003,-2.926094e-003
1.604510e+003,-3.069105e-003
1.606438e+003,-3.179341e-003
1.608367e+003,-3.299020e-003
1.610296e+003,-3.588986e-003
1.612224e+003,-3.878431e-003
1.614152e+003,-3.905096e-003
1.616081e+003,-3.833505e-003
1.618010e+003,-4.158626e-003
1.619938e+003,-4.481208e-003
1.621866e+003,-4.528166e-003
1.623795e+003,-4.800536e-003
1.625724e+003,-5.071196e-003
1.627652e+003,-5.239789e-003
1.629580e+003,-5.426054e-003
1.631509e+003,-5.635919e-003
1.633438e+003,-5.471078e-003
1.635366e+003,-5.292165e-003
1.637294e+003,-5.641283e-003
1.639223e+003,-5.989107e-003
1.641151e+003,-6.233487e-003
1.643080e+003,-6.431405e-003
1.645008e+003,-6.320946e-003
1.646937e+003,-6.307688e-003
1.648865e+003,-6.663300e-003
1.650794e+003,-6.616801e-003
1.652722e+003,-6.258179e-003
1.654651e+003,-6.937856e-003
1.656579e+003,-7.476645e-003
1.658508e+003,-7.548160e-003
1.660436e+003,-7.568479e-003
1.662365e+003,-7.517451e-003
1.664293e+003,-7.532692e-003
1.666222e+003,-7.580689e-003
1.668150e+003,-7.312013e-003
1.670079e+003,-7.077335e-003
1.672007e+003,-7.097611e-003
1.673936e+003,-6.825732e-003
1.675864e+003,-6.683824e-003
1.677793e+003,-6.912160e-003
1.679721e+003,-6.777782e-003
1.681650e+003,-6.372016e-003
1.683578e+003,-5.713918e-003
1.685507e+003,-5.630555e-003
1.687435e+003,-5.831462e-003
1.689364e+003,-5.709111e-003
1.691292e+003,-5.491789e-003
1.693221e+003,-5.112491e-003
1.695149e+003,-4.659669e-003
1.697078e+003,-4.648392e-003
1.699006e+003,-4.446642e-003
1.700935e+003,-4.374614e-003
1.702863e+003,-4.713032e-003
1.704792e+003,-4.632722e-003
1.706720e+003,-4.701134e-003
1.708649e+003,-4.883927e-003
1.710577e+003,-5.068150e-003
1.712506e+003,-4.994588e-003
1.714434e+003,-4.722700e-003
1.716363e+003,-4.523707e-003
1.718291e+003,-4.654424e-003
1.720220e+003,-4.999731e-003
1.722148e+003,-5.160920e-003
1.724077e+003,-5.274194e-003
1.726005e+003,-5.356840e-003
1.727934e+003,-5.264080e-003
1.729862e+003,-5.115667e-003
1.731791e+003,-4.896410e-003
1.733719e+003,-4.653407e-003
1.735648e+003,-4.941620e-003
1.737576e+003,-5.181711e-003
1.739505e+003,-5.082789e-003
1.741433e+003,-5.142387e-003
1.743362e+003,-5.021021e-003
1.745290e+003,-4.839399e-003
1.747219e+003,-4.706116e-003
1.749147e+003,-4.686744e-003
1.751076e+003,-4.534134e-003
1.753004e+003,-4.526363e-003
1.754933e+003,-4.515148e-003
1.756861e+003,-4.374844e-003
1.758790e+003,-4.411614e-003
1.760718e+003,-4.395115e-003
1.762647e+003,-4.409482e-003
1.764575e+003,-4.545413e-003
1.766504e+003,-4.419715e-003
1.768432e+003,-4.291782e-003
1.770361e+003,-4.215200e-003
1.772289e+003,-4.018568e-003
1.774218e+003,-4.124165e-003
1.776146e+003,-4.305791e-003
1.778075e+003,-4.404299e-003
1.780003e+003,-4.350177e-003
1.781932e+003,-4.305627e-003
1.783860e+003,-4.338072e-003
1.785789e+003,-4.250474e-003
1.787717e+003,-4.177463e-003
1.789646e+003,-4.134635e-003
1.791574e+003,-3.998738e-003
1.793503e+003,-3.981962e-003
1.795431e+003,-4.100041e-003
1.797360e+003,-4.090555e-003
1.799288e+003,-4.020176e-003
1.801217e+003,-4.011345e-003
1.803145e+003,-4.082448e-003
1.805074e+003,-4.092032e-003
1.807002e+003,-4.112021e-003
1.808931e+003,-4.212083e-003
1.810859e+003,-4.268159e-003
1.812788e+003,-4.261138e-003
1.814716e+003,-4.272359e-003
1.816645e+003,-4.260022e-003
1.818573e+003,-4.301427e-003
1.820502e+003,-4.335218e-003
1.822430e+003,-4.287123e-003
1.824359e+003,-4.211657e-003
1.826287e+003,-4.211657e-003
1.828216e+003,-4.208736e-003
1.830144e+003,-4.230984e-003
1.832073e+003,-4.507409e-003
1.834001e+003,-4.626526e-003
1.835930e+003,-4.574661e-003
1.837858e+003,-4.572825e-003
1.839787e+003,-4.561087e-003
1.841715e+003,-4.595021e-003
1.843644e+003,-4.481732e-003
1.845572e+003,-4.508229e-003
1.847501e+003,-4.661340e-003
1.849429e+003,-4.711032e-003
1.851358e+003,-4.633017e-003
1.853286e+003,-4.513345e-003
1.855215e+003,-4.499244e-003
1.857143e+003,-4.502031e-003
1.859072e+003,-4.507049e-003
1.861000e+003,-4.478191e-003
1.862929e+003,-4.434015e-003
1.864857e+003,-4.400101e-003
1.866786e+003,-4.432473e-003
1.868714e+003,-4.367956e-003
1.870643e+003,-4.444477e-003
1.872571e+003,-4.524920e-003
1.874500e+003,-4.428833e-003
1.876428e+003,-4.336432e-003
1.878357e+003,-4.305725e-003
1.880285e+003,-4.336235e-003
1.882214e+003,-4.366119e-003
1.884142e+003,-4.281546e-003
1.886071e+003,-4.279019e-003
1.887999e+003,-4.265239e-003
1.889928e+003,-4.284039e-003
1.891856e+003,-4.386554e-003
1.893785e+003,-4.344961e-003
1.895713e+003,-4.238924e-003
1.897642e+003,-4.251951e-003
1.899570e+003,-4.200073e-003
1.901499e+003,-4.171654e-003
1.903427e+003,-4.236332e-003
1.905356e+003,-4.251295e-003
1.907284e+003,-4.269406e-003
1.909213e+003,-4.261860e-003
1.911141e+003,-4.260022e-003
1.913070e+003,-4.288370e-003
1.914998e+003,-4.208539e-003
1.916927e+003,-4.050673e-003
1.918855e+003,-4.006158e-003
1.920784e+003,-4.030747e-003
1.922712e+003,-4.134963e-003
1.924641e+003,-4.233543e-003
1.926569e+003,-4.234101e-003
1.928498e+003,-4.279446e-003
1.930426e+003,-4.249457e-003
1.932355e+003,-4.284925e-003
1.934283e+003,-4.354539e-003
1.936212e+003,-4.379797e-003
1.938140e+003,-4.397379e-003
1.940069e+003,-4.403053e-003
1.941997e+003,-4.287221e-003
1.943926e+003,-4.323670e-003
1.945854e+003,-4.491013e-003
1.947783e+003,-4.532658e-003
1.949711e+003,-4.513279e-003
1.951640e+003,-4.539216e-003
1.953568e+003,-4.556332e-003
1.955497e+003,-4.564726e-003
1.957425e+003,-4.571808e-003
1.959354e+003,-4.578300e-003
1.961282e+003,-4.570464e-003
1.963211e+003,-4.627083e-003
1.965139e+003,-4.659603e-003
1.967068e+003,-4.648785e-003
1.968996e+003,-4.791000e-003
1.970925e+003,-4.781955e-003
1.972853e+003,-4.671699e-003
1.974782e+003,-4.663536e-003
1.976710e+003,-4.658062e-003
1.978639e+003,-4.640950e-003
1.980567e+003,-4.662946e-003
1.982496e+003,-4.732468e-003
1.984424e+003,-4.658489e-003
1.986353e+003,-4.555971e-003
1.988281e+003,-4.550070e-003
1.990210e+003,-4.582103e-003
1.992138e+003,-4.513509e-003
1.994067e+003,-4.436081e-003
1.995995e+003,-4.553677e-003
1.997924e+003,-4.616822e-003
1.999852e+003,-4.491603e-003
2.001781e+003,-4.457301e-003
2.003709e+003,-4.457071e-003
2.005638e+003,-4.454250e-003
2.007566e+003,-4.455070e-003
2.009495e+003,-4.462088e-003
2.011423e+003,-4.493374e-003
2.013352e+003,-4.406300e-003
2.015280e+003,-4.362674e-003
2.017208e+003,-4.423880e-003
2.019137e+003,-4.401282e-003
2.021066e+003,-4.403906e-003
2.022994e+003,-4.470615e-003
2.024922e+003,-4.498523e-003
2.026851e+003,-4.477076e-003
2.028780e+003,-4.467893e-003
2.030708e+003,-4.456021e-003
2.032636e+003,-4.406038e-003
2.034565e+003,-4.453037e-003
2.036494e+003,-4.498851e-003
2.038422e+003,-4.485209e-003
2.040350e+003,-4.527937e-003
2.042279e+003,-4.603610e-003
2.044208e+003,-4.641147e-003
2.046136e+003,-4.543283e-003
2.048064e+003,-4.461597e-003
2.049993e+003,-4.520887e-003
2.051921e+003,-4.609708e-003
2.053850e+003,-4.627673e-003
2.055778e+003,-4.593217e-003
2.057707e+003,-4.548791e-003
2.059635e+003,-4.595316e-003
2.061564e+003,-4.646654e-003
2.063492e+003,-4.713065e-003
2.065421e+003,-4.731911e-003
2.067349e+003,-4.676288e-003
2.069278e+003,-4.689301e-003
2.071206e+003,-4.588299e-003
2.073135e+003,-4.509902e-003
2.075063e+003,-4.537183e-003
2.076992e+003,-4.572070e-003
2.078920e+003,-4.555775e-003
2.080849e+003,-4.561152e-003
2.082777e+003,-4.611872e-003
2.084706e+003,-4.593939e-003
2.086634e+003,-4.622625e-003
2.088563e+003,-4.604135e-003
2.090491e+003,-4.551414e-003
2.092420e+003,-4.550397e-003
2.094348e+003,-4.476814e-003
2.096277e+003,-4.495506e-003
2.098205e+003,-4.538298e-003
2.100134e+003,-4.491374e-003
2.102062e+003,-4.377501e-003
2.103991e+003,-4.395214e-003
2.105919e+003,-4.390785e-003
2.107848e+003,-4.247948e-003
2.109776e+003,-4.216415e-003
2.111705e+003,-4.309695e-003
2.113633e+003,-4.362183e-003
2.115562e+003,-4.349553e-003
2.117490e+003,-4.248768e-003
2.119419e+003,-4.176216e-003
2.121347e+003,-4.253952e-003
2.123276e+003,-4.322391e-003
2.125204e+003,-4.256872e-003
2.127133e+003,-4.165419e-003
2.129061e+003,-4.046996e-003
2.130990e+003,-4.032979e-003
2.132918e+003,-4.141625e-003
2.134847e+003,-4.189244e-003
2.136775e+003,-4.196365e-003
2.138704e+003,-4.179826e-003
2.140632e+003,-4.197153e-003
2.142561e+003,-4.274065e-003
2.144489e+003,-4.257791e-003
2.146418e+003,-4.167355e-003
2.148346e+003,-4.099089e-003
2.150275e+003,-4.139984e-003
2.152203e+003,-4.164041e-003
2.154132e+003,-4.210804e-003
2.156060e+003,-4.317995e-003
2.157989e+003,-4.394623e-003
2.159917e+003,-4.367496e-003
2.161846e+003,-4.340532e-003
2.163774e+003,-4.363593e-003
2.165703e+003,-4.310417e-003
2.167631e+003,-4.272326e-003
2.169560e+003,-4.286828e-003
2.171488e+003,-4.317109e-003
2.173417e+003,-4.358279e-003
2.175345e+003,-4.331609e-003
2.177274e+003,-4.280922e-003
2.179202e+003,-4.250212e-003
2.181131e+003,-4.331019e-003
2.183059e+003,-4.403020e-003
2.184988e+003,-4.379502e-003
2.186916e+003,-4.341713e-003
2.188845e+003,-4.382520e-003
2.190773e+003,-4.438180e-003
2.192702e+003,-4.424733e-003
2.194630e+003,-4.311171e-003
2.196559e+003,-4.234790e-003
2.198487e+003,-4.177660e-003
2.200416e+003,-4.224126e-003
2.202344e+003,-4.251393e-003
2.204273e+003,-4.220418e-003
2.206201e+003,-4.190327e-003
2.208130e+003,-4.192591e-003
2.210058e+003,-4.225110e-003
2.211987e+003,-4.247652e-003
2.213915e+003,-4.206472e-003
2.215844e+003,-4.078443e-003
2.217772e+003,-4.027464e-003
2.219701e+003,-4.015547e-003
2.221629e+003,-4.001201e-003
2.223558e+003,-3.993551e-003
2.225486e+003,-3.972244e-003
2.227415e+003,-4.018075e-003
2.229343e+003,-4.006979e-003
2.231272e+003,-3.964002e-003
2.233200e+003,-3.900006e-003
2.235129e+003,-3.816032e-003
2.237057e+003,-3.887922e-003
2.238986e+003,-3.951361e-003
2.240914e+003,-3.952544e-003
2.242843e+003,-3.909464e-003
2.244771e+003,-3.898266e-003
2.246700e+003,-3.919939e-003
2.248628e+003,-3.905720e-003
2.250557e+003,-4.035539e-003
2.252485e+003,-4.109920e-003
2.254414e+003,-4.049557e-003
2.256342e+003,-4.027497e-003
2.258271e+003,-4.061144e-003
2.260199e+003,-4.044075e-003
2.262128e+003,-4.001956e-003
2.264056e+003,-4.042794e-003
2.265985e+003,-4.110249e-003
2.267913e+003,-4.161710e-003
2.269842e+003,-4.137818e-003
2.271770e+003,-4.134799e-003
2.273699e+003,-4.199351e-003
2.275627e+003,-4.321636e-003
2.277556e+003,-4.367857e-003
2.279484e+003,-4.300607e-003
2.281413e+003,-4.228786e-003
2.283341e+003,-4.253329e-003
2.285270e+003,-4.330887e-003
2.287198e+003,-4.439098e-003
2.289127e+003,-4.428177e-003
2.291055e+003,-4.386194e-003
2.292984e+003,-4.415943e-003
2.294912e+003,-4.536200e-003
2.296841e+003,-4.501704e-003
2.298769e+003,-4.415517e-003
2.300698e+003,-4.438902e-003
2.302626e+003,-4.340958e-003
2.304555e+003,-4.328197e-003
2.306483e+003,-4.355556e-003
2.308412e+003,-4.434638e-003
2.310340e+003,-4.479732e-003
2.312269e+003,-4.436081e-003
2.314197e+003,-4.314353e-003
2.316125e+003,-4.193871e-003
2.318054e+003,-4.156427e-003
2.319983e+003,-4.149830e-003
2.321911e+003,-4.042335e-003
2.323840e+003,-3.858202e-003
2.325768e+003,-3.871601e-003
2.327697e+003,-3.825983e-003
2.329625e+003,-3.543734e-003
2.331553e+003,-3.487860e-003
2.333482e+003,-3.584254e-003
2.335411e+003,-3.659402e-003
2.337339e+003,-3.567034e-003
2.339268e+003,-3.530194e-003
2.341196e+003,-3.663871e-003
2.343125e+003,-3.755364e-003
2.345053e+003,-3.859844e-003
2.346981e+003,-3.965841e-003
2.348910e+003,-4.076933e-003
2.350839e+003,-4.041547e-003
2.352767e+003,-3.733585e-003
2.354696e+003,-3.504656e-003
2.356624e+003,-3.473726e-003
2.358552e+003,-3.507055e-003
2.360481e+003,-3.416167e-003
2.362409e+003,-3.378393e-003
2.364338e+003,-3.456831e-003
2.366267e+003,-3.525099e-003
2.368195e+003,-3.600258e-003
2.370124e+003,-3.737856e-003
2.372052e+003,-3.856757e-003
2.373980e+003,-3.880270e-003
2.375909e+003,-4.009507e-003
2.377838e+003,-4.104997e-003
2.379766e+003,-4.261039e-003
2.381695e+003,-4.400363e-003
2.383623e+003,-4.295391e-003
2.385552e+003,-4.231050e-003
2.387480e+003,-4.232723e-003
2.389408e+003,-4.165714e-003
2.391337e+003,-4.160529e-003
2.393266e+003,-4.272818e-003
2.395194e+003,-4.286565e-003
2.397123e+003,-4.206997e-003
2.399051e+003,-4.144645e-003
2.400979e+003,-4.250835e-003
2.402908e+003,-4.363659e-003
2.404836e+003,-4.416960e-003
2.406765e+003,-4.418173e-003
2.408694e+003,-4.406464e-003
2.410622e+003,-4.349357e-003
2.412551e+003,-4.317536e-003
2.414479e+003,-4.237907e-003
2.416407e+003,-4.212182e-003
2.418336e+003,-4.203978e-003
2.420264e+003,-4.290568e-003
2.422193e+003,-4.366381e-003
2.424122e+003,-4.294931e-003
2.426050e+003,-4.204733e-003
2.427979e+003,-4.234889e-003
2.429907e+003,-4.263336e-003
2.431835e+003,-4.177922e-003
2.433764e+003,-4.113400e-003
2.435692e+003,-4.059306e-003
2.437621e+003,-4.088126e-003
2.439550e+003,-4.150421e-003
2.441478e+003,-4.068858e-003
2.443406e+003,-3.987609e-003
2.445335e+003,-3.956057e-003
2.447263e+003,-4.000314e-003
2.449192e+003,-4.021719e-003
2.451121e+003,-4.029204e-003
2.453049e+003,-4.016532e-003
2.454978e+003,-4.027858e-003
2.456906e+003,-4.027760e-003
2.458834e+003,-4.000774e-003
2.460763e+003,-3.962985e-003
2.462691e+003,-4.041908e-003
2.464620e+003,-4.028285e-003
2.466549e+003,-3.907822e-003
2.468477e+003,-3.902568e-003
2.470406e+003,-4.012921e-003
2.472334e+003,-4.085730e-003
2.474262e+003,-4.032257e-003
2.476191e+003,-3.941380e-003
2.478119e+003,-3.947421e-003
2.480048e+003,-4.046274e-003
2.481977e+003,-3.996834e-003
2.483905e+003,-3.955171e-003
2.485833e+003,-4.060389e-003
2.487762e+003,-4.146220e-003
2.489690e+003,-4.176905e-003
2.491619e+003,-4.040628e-003
2.493547e+003,-3.914651e-003
2.495476e+003,-3.848612e-003
2.497405e+003,-3.844145e-003
2.499333e+003,-3.986000e-003
2.501261e+003,-4.124657e-003
2.503190e+003,-4.083498e-003
2.505118e+003,-4.025396e-003
2.507047e+003,-4.061341e-003
2.508975e+003,-4.121572e-003
2.510904e+003,-4.111923e-003
2.512833e+003,-4.043287e-003
2.514761e+003,-4.042105e-003
2.516689e+003,-4.064427e-003
2.518618e+003,-4.030747e-003
2.520546e+003,-4.042335e-003
2.522475e+003,-4.104997e-003
2.524403e+003,-4.151832e-003
2.526332e+003,-4.131451e-003
2.528260e+003,-4.028219e-003
2.530189e+003,-4.053398e-003
2.532117e+003,-4.098531e-003
2.534046e+003,-4.102503e-003
2.535974e+003,-4.089472e-003
2.537903e+003,-4.075620e-003
2.539831e+003,-3.916753e-003
2.541760e+003,-3.903980e-003
2.543688e+003,-3.940296e-003
2.545617e+003,-3.920398e-003
2.547545e+003,-3.807328e-003
2.549474e+003,-3.817313e-003
2.551402e+003,-3.861059e-003
2.553331e+003,-3.835574e-003
2.555259e+003,-3.775566e-003
2.557188e+003,-3.768767e-003
2.559116e+003,-3.882208e-003
2.561045e+003,-3.837577e-003
2.562973e+003,-3.748992e-003
2.564902e+003,-3.670771e-003
2.566830e+003,-3.585930e-003
2.568759e+003,-3.643434e-003
2.570687e+003,-3.695871e-003
2.572616e+003,-3.615866e-003
2.574544e+003,-3.534170e-003
2.576473e+003,-3.616950e-003
2.578401e+003,-3.725208e-003
2.580330e+003,-3.806310e-003
2.582258e+003,-3.802401e-003
2.584187e+003,-3.656018e-003
2.586115e+003,-3.615110e-003
2.588044e+003,-3.692882e-003
2.589972e+003,-3.666039e-003
2.591901e+003,-3.635811e-003
2.593829e+003,-3.656906e-003
2.595758e+003,-3.686672e-003
2.597686e+003,-3.730136e-003
2.599615e+003,-3.715583e-003
2.601543e+003,-3.618232e-003
2.603472e+003,-3.556485e-003
2.605400e+003,-3.564833e-003
2.607329e+003,-3.619744e-003
2.609257e+003,-3.530949e-003
2.611186e+003,-3.457981e-003
2.613114e+003,-3.442565e-003
2.615043e+003,-3.449501e-003
2.616971e+003,-3.492889e-003
2.618900e+003,-3.426950e-003
2.620828e+003,-3.405647e-003
2.622757e+003,-3.319177e-003
2.624685e+003,-3.230222e-003
2.626614e+003,-3.222658e-003
2.628542e+003,-3.166249e-003
2.630471e+003,-3.105228e-003
2.632399e+003,-3.158125e-003
2.634328e+003,-3.169177e-003
2.636256e+003,-3.124868e-003
2.638185e+003,-3.023041e-003
2.640113e+003,-2.896243e-003
2.642042e+003,-2.904965e-003
2.643970e+003,-2.850358e-003
2.645899e+003,-2.835118e-003
2.647827e+003,-2.835578e-003
2.649756e+003,-2.732499e-003
2.651684e+003,-2.637924e-003
2.653613e+003,-2.631239e-003
2.655541e+003,-2.625475e-003
2.657470e+003,-2.748665e-003
2.659398e+003,-2.733849e-003
2.661327e+003,-2.567935e-003
2.663255e+003,-2.481067e-003
2.665184e+003,-2.516021e-003
2.667112e+003,-2.409405e-003
2.669041e+003,-2.337929e-003
2.670969e+003,-2.278340e-003
2.672898e+003,-2.201074e-003
2.674826e+003,-2.208986e-003
2.676755e+003,-2.315584e-003
2.678683e+003,-2.366600e-003
2.680612e+003,-2.356878e-003
2.682540e+003,-2.289217e-003
2.684469e+003,-2.232522e-003
2.686397e+003,-2.138037e-003
2.688326e+003,-2.033176e-003
2.690254e+003,-1.953655e-003
2.692183e+003,-1.924231e-003
2.694111e+003,-1.963980e-003
2.696040e+003,-1.944650e-003
2.697968e+003,-1.945013e-003
2.699897e+003,-1.843305e-003
2.701825e+003,-1.732300e-003
2.703754e+003,-1.627803e-003
2.705682e+003,-1.472331e-003
2.707611e+003,-1.451857e-003
2.709539e+003,-1.511856e-003
2.711468e+003,-1.525823e-003
2.713396e+003,-1.478010e-003
2.715325e+003,-1.410410e-003
2.717253e+003,-1.412458e-003
2.719182e+003,-1.293778e-003
2.721110e+003,-1.181641e-003
2.723039e+003,-1.051097e-003
2.724967e+003,-9.059993e-004
2.726896e+003,-9.239863e-004
2.728824e+003,-8.834814e-004
2.730753e+003,-8.037502e-004
2.732681e+003,-6.782540e-004
2.734610e+003,-5.544423e-004
2.736538e+003,-5.469304e-004
2.738467e+003,-5.300861e-004
2.740395e+003,-4.469138e-004
2.742324e+003,-3.633946e-004
2.744252e+003,-2.788990e-004
2.746181e+003,-1.861403e-004
2.748109e+003,-1.474877e-004
2.750038e+003,-6.828389e-005
2.751966e+003,2.412225e-005
2.753895e+003,2.186403e-004
2.755823e+003,4.252184e-004
2.757752e+003,5.139479e-004
2.759680e+003,6.839610e-004
2.761609e+003,9.682944e-004
2.763537e+003,1.233940e-003
2.765466e+003,1.400213e-003
2.767394e+003,1.726696e-003
2.769323e+003,2.073866e-003
2.771251e+003,2.378334e-003
2.773180e+003,2.705787e-003
2.775108e+003,3.108935e-003
2.777037e+003,3.559325e-003
2.778965e+003,4.032187e-003
2.780894e+003,4.552840e-003
2.782822e+003,5.146971e-003
2.784750e+003,5.745306e-003
2.786679e+003,6.320227e-003
2.788608e+003,6.802770e-003
2.790536e+003,7.308797e-003
2.792465e+003,7.838929e-003
2.794393e+003,8.339342e-003
2.796322e+003,8.798978e-003
2.798250e+003,9.169109e-003
2.800178e+003,9.438635e-003
2.802107e+003,9.781555e-003
2.804036e+003,1.014540e-002
2.805964e+003,1.031556e-002
2.807893e+003,1.037468e-002
2.809821e+003,1.040593e-002
2.811750e+003,1.034895e-002
2.813678e+003,1.010141e-002
2.815606e+003,9.939811e-003
2.817535e+003,9.765696e-003
2.819464e+003,9.526821e-003
2.821392e+003,9.261641e-003
2.823321e+003,8.926875e-003
2.825249e+003,8.533262e-003
2.827177e+003,8.072354e-003
2.829106e+003,7.520024e-003
2.831034e+003,6.921226e-003
2.832963e+003,6.479177e-003
2.834892e+003,6.191281e-003
2.836820e+003,5.822402e-003
2.838749e+003,5.365165e-003
2.840677e+003,4.971716e-003
2.842605e+003,4.581000e-003
2.844534e+003,4.018342e-003
2.846462e+003,3.339865e-003
2.848391e+003,2.852880e-003
2.850320e+003,2.565011e-003
2.852248e+003,2.435508e-003
2.854177e+003,2.317670e-003
2.856105e+003,2.273735e-003
2.858033e+003,2.318103e-003
2.859962e+003,2.439207e-003
2.861890e+003,2.399790e-003
2.863819e+003,2.397758e-003
2.865748e+003,2.482459e-003
2.867676e+003,2.566877e-003
2.869604e+003,2.669747e-003
2.871533e+003,2.681982e-003
2.873461e+003,2.890636e-003
2.875390e+003,3.063985e-003
2.877319e+003,3.201586e-003
2.879247e+003,3.285943e-003
2.881176e+003,3.174116e-003
2.883104e+003,3.224251e-003
2.885032e+003,3.388783e-003
2.886961e+003,3.252926e-003
2.888889e+003,3.122084e-003
2.890818e+003,3.052740e-003
2.892747e+003,2.965959e-003
2.894675e+003,2.758503e-003
2.896604e+003,2.639310e-003
2.898532e+003,2.618476e-003
2.900460e+003,2.566577e-003
2.902389e+003,2.513952e-003
2.904317e+003,2.556145e-003
2.906246e+003,2.503087e-003
2.908175e+003,2.326031e-003
2.910103e+003,2.229504e-003
2.912031e+003,2.148848e-003
2.913960e+003,1.967809e-003
2.915888e+003,1.777829e-003
2.917817e+003,1.834225e-003
2.919745e+003,2.000895e-003
2.921674e+003,2.143986e-003
2.923603e+003,2.385164e-003
2.925531e+003,2.637243e-003
2.927459e+003,2.803221e-003
2.929388e+003,2.954150e-003
2.931316e+003,3.123953e-003
2.933245e+003,3.209297e-003
2.935173e+003,3.143076e-003
2.937102e+003,3.180291e-003
2.939031e+003,3.185965e-003
2.940959e+003,2.949379e-003
2.942887e+003,2.709588e-003
2.944816e+003,2.503387e-003
2.946744e+003,2.327830e-003
2.948673e+003,1.912194e-003
2.950601e+003,1.308245e-003
2.952530e+003,7.502722e-004
2.954458e+003,1.519130e-004
2.956387e+003,-4.084831e-004
2.958315e+003,-8.479332e-004
2.960244e+003,-1.404201e-003
2.962172e+003,-1.881510e-003
2.964101e+003,-2.243071e-003
2.966029e+003,-2.698353e-003
2.967958e+003,-3.102728e-003
2.969886e+003,-3.385856e-003
2.971815e+003,-3.610543e-003
2.973743e+003,-3.813601e-003
2.975672e+003,-3.997294e-003
2.977600e+003,-4.073552e-003
2.979529e+003,-4.128235e-003
2.981457e+003,-4.201780e-003
2.983386e+003,-4.326459e-003
2.985314e+003,-4.540331e-003
2.987243e+003,-4.622887e-003
2.989171e+003,-4.556594e-003
2.991100e+003,-4.623346e-003
2.993028e+003,-4.665602e-003
2.994957e+003,-4.662258e-003
2.996885e+003,-4.675796e-003
2.998814e+003,-4.654129e-003
3.000742e+003,-4.666683e-003
3.002671e+003,-4.678812e-003
3.004599e+003,-4.670814e-003
3.006528e+003,-4.551480e-003
3.008456e+003,-4.529281e-003
3.010385e+003,-4.585546e-003
3.012313e+003,-4.642295e-003
3.014242e+003,-4.664356e-003
3.016170e+003,-4.655210e-003
3.018099e+003,-4.518264e-003
3.020027e+003,-4.539315e-003
3.021956e+003,-4.582366e-003
3.023884e+003,-4.599578e-003
3.025813e+003,-4.649834e-003
3.027741e+003,-4.721062e-003
3.029670e+003,-4.691399e-003
3.031598e+003,-4.553709e-003
3.033527e+003,-4.565906e-003
3.035455e+003,-4.529675e-003
3.037384e+003,-4.415943e-003
3.039312e+003,-4.358541e-003
3.041241e+003,-4.427062e-003
3.043169e+003,-4.591283e-003
3.045098e+003,-4.643573e-003
3.047026e+003,-4.553119e-003
3.048955e+003,-4.543741e-003
3.050883e+003,-4.527445e-003
3.052812e+003,-4.518526e-003
3.054740e+003,-4.581906e-003
3.056669e+003,-4.495768e-003
3.058597e+003,-4.493112e-003
3.060526e+003,-4.481897e-003
3.062454e+003,-4.343091e-003
3.064383e+003,-4.351095e-003
3.066311e+003,-4.391639e-003
3.068240e+003,-4.299721e-003
3.070168e+003,-4.326853e-003
3.072097e+003,-4.430178e-003
3.074025e+003,-4.393705e-003
3.075954e+003,-4.259235e-003
3.077882e+003,-4.201878e-003
3.079811e+003,-4.234593e-003
3.081739e+003,-4.255232e-003
3.083668e+003,-4.218384e-003
3.085596e+003,-4.302805e-003
3.087525e+003,-4.368612e-003
3.089453e+003,-4.249359e-003
3.091382e+003,-4.147467e-003
3.093310e+003,-4.039545e-003
3.095239e+003,-3.941052e-003
3.097167e+003,-3.992172e-003
3.099096e+003,-3.993387e-003
3.101024e+003,-3.960982e-003
3.102953e+003,-3.914488e-003
3.104881e+003,-3.900171e-003
3.106810e+003,-3.807295e-003
3.108738e+003,-3.732271e-003
3.110667e+003,-3.773201e-003
3.112595e+003,-3.779770e-003
3.114524e+003,-3.716700e-003
3.116452e+003,-3.703822e-003
3.118381e+003,-3.583794e-003
3.120309e+003,-3.555335e-003
3.122238e+003,-3.618101e-003
3.124166e+003,-3.630718e-003
3.126095e+003,-3.639688e-003
3.128023e+003,-3.540415e-003
3.129952e+003,-3.464556e-003
3.131880e+003,-3.487959e-003
3.133809e+003,-3.389867e-003
3.135737e+003,-3.361855e-003
3.137666e+003,-3.340681e-003
3.139594e+003,-3.219895e-003
3.141523e+003,-3.193747e-003
3.143451e+003,-3.172104e-003
3.145380e+003,-3.185525e-003
3.147308e+003,-3.233807e-003
3.149237e+003,-3.124933e-003
3.151165e+003,-3.002212e-003
3.153094e+003,-2.846079e-003
3.155022e+003,-2.778757e-003
3.156951e+003,-2.922211e-003
3.158879e+003,-2.921783e-003
3.160808e+003,-2.812535e-003
3.162736e+003,-2.681625e-003
3.164665e+003,-2.584503e-003
3.166593e+003,-2.747381e-003
3.168522e+003,-2.837915e-003
3.170450e+003,-2.652546e-003
3.172379e+003,-2.555846e-003
3.174307e+003,-2.536609e-003
3.176236e+003,-2.432865e-003
3.178164e+003,-2.342576e-003
3.180093e+003,-2.475236e-003
3.182021e+003,-2.583778e-003
3.183950e+003,-2.512858e-003
3.185878e+003,-2.478234e-003
3.187807e+003,-2.279725e-003
3.189735e+003,-2.143148e-003
3.191664e+003,-2.317232e-003
3.193592e+003,-2.406670e-003
3.195521e+003,-2.394116e-003
3.197449e+003,-2.456094e-003
3.199378e+003,-2.562335e-003
3.201306e+003,-2.505347e-003
3.203235e+003,-2.406374e-003
3.205163e+003,-2.441564e-003
3.207092e+003,-2.506731e-003
3.209020e+003,-2.377310e-003
3.210948e+003,-2.211557e-003
3.212877e+003,-2.217622e-003
3.214806e+003,-2.277022e-003
3.216734e+003,-2.322835e-003
3.218663e+003,-2.225501e-003
3.220591e+003,-2.110109e-003
3.222520e+003,-2.112121e-003
3.224448e+003,-2.199195e-003
3.226376e+003,-2.190623e-003
3.228305e+003,-2.113374e-003
3.230234e+003,-2.057151e-003
3.232162e+003,-1.972490e-003
3.234091e+003,-1.867225e-003
3.236019e+003,-1.908265e-003
3.237948e+003,-1.934919e-003
3.239876e+003,-1.724710e-003
3.241804e+003,-1.588090e-003
3.243733e+003,-1.559269e-003
3.245662e+003,-1.486365e-003
3.247590e+003,-1.199286e-003
3.249519e+003,-1.128337e-003
3.251447e+003,-1.220201e-003
3.253375e+003,-1.243858e-003
3.255304e+003,-1.152924e-003
3.257232e+003,-9.986706e-004
3.259161e+003,-8.883422e-004
3.261090e+003,-8.388390e-004
3.263018e+003,-9.532135e-004
3.264947e+003,-1.033082e-003
3.266875e+003,-9.934474e-004
3.268803e+003,-8.189966e-004
3.270732e+003,-7.119636e-004
3.272660e+003,-8.587138e-004
3.274589e+003,-8.834814e-004
3.276518e+003,-7.959781e-004
3.278446e+003,-7.796065e-004
3.280375e+003,-6.898327e-004
3.282303e+003,-6.695202e-004
3.284231e+003,-6.682631e-004
3.286160e+003,-7.659133e-004
3.288088e+003,-8.444940e-004
3.290017e+003,-9.505355e-004
3.291946e+003,-8.539518e-004
3.293874e+003,-8.574902e-004
3.295802e+003,-9.805544e-004
3.297731e+003,-1.005943e-003
3.299659e+003,-1.045941e-003
3.301588e+003,-1.192016e-003
3.303516e+003,-1.276896e-003
3.305445e+003,-1.344517e-003
3.307374e+003,-1.429400e-003
3.309302e+003,-1.441322e-003
3.311230e+003,-1.550685e-003
3.313159e+003,-1.738835e-003
3.315087e+003,-1.958372e-003
3.317016e+003,-1.885271e-003
3.318944e+003,-1.858152e-003
3.320873e+003,-1.966123e-003
3.322802e+003,-2.092699e-003
3.324730e+003,-2.167150e-003
3.326658e+003,-2.235127e-003
3.328587e+003,-2.256816e-003
3.330515e+003,-2.275044e-003
3.332444e+003,-2.299039e-003
3.334372e+003,-2.344619e-003
3.336301e+003,-2.277582e-003
3.338229e+003,-2.218018e-003
3.340158e+003,-2.235687e-003
3.342086e+003,-2.086203e-003
3.344015e+003,-2.061174e-003
3.345943e+003,-2.037628e-003
3.347872e+003,-1.939900e-003
3.349800e+003,-1.959692e-003
3.351729e+003,-1.946201e-003
3.353657e+003,-2.004021e-003
3.355586e+003,-2.099756e-003
3.357514e+003,-2.051743e-003
3.359443e+003,-2.159831e-003
3.361371e+003,-2.236412e-003
3.363300e+003,-2.137246e-003
3.365229e+003,-2.170216e-003
3.367157e+003,-2.497440e-003
3.369085e+003,-2.887126e-003
3.371014e+003,-2.959169e-003
3.372942e+003,-2.954496e-003
3.374871e+003,-3.055154e-003
3.376799e+003,-3.039032e-003
3.378728e+003,-3.206345e-003
3.380656e+003,-3.358370e-003
3.382585e+003,-3.433360e-003
3.384513e+003,-3.495617e-003
3.386442e+003,-3.650006e-003
3.388370e+003,-3.739531e-003
3.390299e+003,-3.756383e-003
3.392227e+003,-3.707994e-003
3.394156e+003,-3.833603e-003
3.396084e+003,-3.963641e-003
3.398013e+003,-4.134241e-003
3.399941e+003,-4.246734e-003
3.401870e+003,-4.239515e-003
3.403798e+003,-4.215135e-003
3.405727e+003,-4.176117e-003
3.407655e+003,-4.153572e-003
3.409584e+003,-4.192591e-003
3.411512e+003,-4.206997e-003
3.413441e+003,-4.244667e-003
3.415369e+003,-4.319373e-003
3.417298e+003,-4.378223e-003
3.419226e+003,-4.361297e-003
3.421155e+003,-4.220680e-003
3.423083e+003,-4.194396e-003
3.425012e+003,-4.275279e-003
3.426940e+003,-4.282858e-003
3.428869e+003,-4.186487e-003
3.430797e+003,-4.235807e-003
3.432726e+003,-4.200237e-003
3.434654e+003,-4.091507e-003
3.436583e+003,-4.284170e-003
3.438511e+003,-4.382454e-003
3.440440e+003,-4.169718e-003
3.442368e+003,-4.175395e-003
3.444297e+003,-4.356573e-003
3.446225e+003,-4.430834e-003
3.448154e+003,-4.238564e-003
3.450082e+003,-4.179727e-003
3.452011e+003,-4.300312e-003
3.453939e+003,-4.238629e-003
3.455868e+003,-4.154195e-003
3.457796e+003,-4.115107e-003
3.459725e+003,-4.304183e-003
3.461653e+003,-4.260317e-003
3.463582e+003,-4.053496e-003
3.465510e+003,-4.131222e-003
3.467439e+003,-4.156985e-003
3.469367e+003,-4.202140e-003
3.471296e+003,-4.294931e-003
3.473224e+003,-4.146647e-003
3.475153e+003,-4.091606e-003
3.477081e+003,-4.134602e-003
3.479010e+003,-4.097711e-003
3.480938e+003,-4.119012e-003
3.482867e+003,-4.302313e-003
3.484795e+003,-4.224946e-003
3.486724e+003,-4.119505e-003
3.488652e+003,-4.084319e-003
3.490581e+003,-3.992369e-003
3.492509e+003,-4.032257e-003
3.494438e+003,-4.038593e-003
3.496366e+003,-4.011805e-003
3.498295e+003,-3.986295e-003
3.500223e+003,-4.013184e-003
3.502152e+003,-3.987609e-003
3.504080e+003,-3.935732e-003
3.506009e+003,-4.102831e-003
3.507937e+003,-4.129942e-003
3.509866e+003,-4.131320e-003
3.511794e+003,-4.053726e-003
3.513723e+003,-4.053036e-003
3.515651e+003,-4.071156e-003
3.517580e+003,-3.994372e-003
3.519508e+003,-3.880073e-003
3.521437e+003,-3.910284e-003
3.523365e+003,-4.067250e-003
3.525294e+003,-4.197251e-003
3.527222e+003,-4.002579e-003
3.529151e+003,-3.885853e-003
3.531079e+003,-3.993092e-003
3.533008e+003,-4.057501e-003
3.534936e+003,-3.959439e-003
3.536865e+003,-3.869171e-003
3.538793e+003,-3.965447e-003
3.540722e+003,-3.936356e-003
3.542650e+003,-4.061867e-003
3.544579e+003,-4.055236e-003
3.546507e+003,-3.747152e-003
3.548436e+003,-3.648494e-003
3.550364e+003,-3.831468e-003
3.552293e+003,-3.907723e-003
3.554221e+003,-3.891797e-003
3.556150e+003,-3.964626e-003
3.558078e+003,-3.986197e-003
3.560007e+003,-3.912123e-003
3.561935e+003,-4.010163e-003
3.563864e+003,-4.093345e-003
3.565792e+003,-3.974049e-003
3.567721e+003,-3.856954e-003
3.569649e+003,-3.946305e-003
3.571578e+003,-3.815047e-003
3.573506e+003,-3.656840e-003
3.575435e+003,-3.730202e-003
3.577363e+003,-3.869729e-003
3.579292e+003,-3.989546e-003
3.581220e+003,-3.993715e-003
3.583149e+003,-3.990367e-003
3.585077e+003,-3.935207e-003
3.587006e+003,-3.604793e-003
3.588934e+003,-3.644486e-003
3.590863e+003,-3.819546e-003
3.592791e+003,-3.698434e-003
3.594720e+003,-3.646359e-003
3.596648e+003,-3.604825e-003
3.598577e+003,-3.755299e-003
3.600505e+003,-3.730366e-003
3.602434e+003,-3.730661e-003
3.604362e+003,-3.859121e-003
3.606291e+003,-3.851535e-003
3.608219e+003,-3.549748e-003
3.610148e+003,-3.474417e-003
3.612076e+003,-3.682007e-003
3.614005e+003,-3.779475e-003
3.615933e+003,-3.712955e-003
3.617862e+003,-3.574856e-003
3.619790e+003,-3.703197e-003
3.621719e+003,-3.849170e-003
3.623647e+003,-3.932383e-003
3.625576e+003,-3.785289e-003
3.627504e+003,-3.311581e-003
3.629433e+003,-3.069335e-003
3.631361e+003,-3.583006e-003
3.633290e+003,-3.771263e-003
3.635218e+003,-3.764168e-003
3.637146e+003,-3.777307e-003
3.639075e+003,-3.828940e-003
3.641004e+003,-3.973130e-003
3.642932e+003,-3.967286e-003
3.644861e+003,-3.955597e-003
3.646789e+003,-3.714203e-003
3.648718e+003,-3.478525e-003
3.650646e+003,-3.749846e-003
3.652574e+003,-4.060882e-003
3.654503e+003,-3.829038e-003
3.656432e+003,-3.619579e-003
3.658360e+003,-3.897708e-003
3.660289e+003,-4.049622e-003
3.662217e+003,-3.995193e-003
3.664146e+003,-3.911663e-003
3.666074e+003,-3.969650e-003
3.668002e+003,-3.898233e-003
3.669931e+003,-3.865164e-003
3.671860e+003,-4.066331e-003
3.673788e+003,-3.987806e-003
3.675717e+003,-3.612449e-003
3.677645e+003,-3.766894e-003
3.679573e+003,-3.998509e-003
3.681502e+003,-4.122032e-003
3.683430e+003,-4.160431e-003
3.685359e+003,-4.128399e-003
3.687288e+003,-3.804273e-003
3.689216e+003,-3.692619e-003
3.691145e+003,-3.866412e-003
3.693073e+003,-4.185405e-003
3.695001e+003,-4.259038e-003
3.696930e+003,-3.928344e-003
3.698858e+003,-3.737199e-003
3.700787e+003,-3.737297e-003
3.702716e+003,-3.826279e-003
3.704644e+003,-3.859778e-003
3.706573e+003,-3.807000e-003
3.708501e+003,-3.718638e-003
3.710429e+003,-3.403576e-003
3.712358e+003,-3.552246e-003
3.714286e+003,-4.274426e-003
3.716215e+003,-4.353982e-003
3.718144e+003,-3.941873e-003
3.720072e+003,-3.802730e-003
3.722000e+003,-3.747087e-003
3.723929e+003,-3.667518e-003
3.725857e+003,-3.703756e-003
3.727786e+003,-4.015744e-003
3.729714e+003,-4.014792e-003
3.731643e+003,-3.678262e-003
3.733572e+003,-3.422643e-003
3.735500e+003,-3.355279e-003
3.737428e+003,-3.476520e-003
3.739357e+003,-3.667617e-003
3.741285e+003,-3.683485e-003
3.743214e+003,-3.220619e-003
3.745142e+003,-2.892820e-003
3.747071e+003,-3.169341e-003
3.749000e+003,-2.856876e-003
3.750928e+003,-2.693611e-003
3.752856e+003,-2.958709e-003
3.754785e+003,-3.182893e-003
3.756713e+003,-3.213416e-003
3.758642e+003,-3.148289e-003
3.760570e+003,-3.055779e-003
3.762499e+003,-3.168157e-003
3.764427e+003,-3.185426e-003
3.766356e+003,-3.145164e-003
3.768284e+003,-3.323846e-003
3.770213e+003,-3.185163e-003
3.772141e+003,-3.165427e-003
3.774070e+003,-3.196675e-003
3.775998e+003,-3.193418e-003
3.777927e+003,-3.193320e-003
3.779855e+003,-3.012380e-003
3.781784e+003,-3.108616e-003
3.783712e+003,-3.192465e-003
3.785641e+003,-3.130263e-003
3.787569e+003,-3.095523e-003
3.789498e+003,-3.349986e-003
3.791426e+003,-3.521648e-003
3.793355e+003,-3.419849e-003
3.795283e+003,-3.121775e-003
3.797212e+003,-2.954661e-003
3.799140e+003,-3.018007e-003
3.801069e+003,-2.743924e-003
3.802997e+003,-2.980494e-003
3.804926e+003,-3.147368e-003
3.806854e+003,-2.943735e-003
3.808783e+003,-3.164703e-003
3.810711e+003,-3.213876e-003
3.812640e+003,-3.183255e-003
3.814568e+003,-3.104504e-003
3.816497e+003,-2.848285e-003
3.818425e+003,-3.031662e-003
3.820354e+003,-2.688770e-003
3.822282e+003,-2.607559e-003
3.824211e+003,-3.136085e-003
3.826139e+003,-3.218350e-003
3.828068e+003,-3.183189e-003
3.829996e+003,-3.015012e-003
3.831925e+003,-2.960881e-003
3.833853e+003,-3.085324e-003
3.835782e+003,-2.997210e-003
3.837710e+003,-2.694434e-003
3.839639e+003,-2.862900e-003
3.841567e+003,-2.921322e-003
3.843496e+003,-2.860365e-003
3.845424e+003,-3.052489e-003
3.847353e+003,-3.342226e-003
3.849281e+003,-3.365833e-003
3.851210e+003,-2.814642e-003
3.853138e+003,-2.314958e-003
3.855067e+003,-2.398795e-003
3.856995e+003,-2.710734e-003
3.858924e+003,-2.924975e-003
3.860852e+003,-3.131513e-003
3.862781e+003,-2.997013e-003
3.864709e+003,-2.803844e-003
3.866638e+003,-2.902924e-003
3.868566e+003,-2.770691e-003
3.870495e+003,-2.768255e-003
3.872423e+003,-2.904241e-003
3.874352e+003,-2.574621e-003
3.876280e+003,-2.732301e-003
3.878209e+003,-3.125230e-003
3.880137e+003,-3.133158e-003
3.882066e+003,-3.258374e-003
3.883994e+003,-3.303919e-003
3.885923e+003,-2.848746e-003
3.887851e+003,-2.843973e-003
3.889780e+003,-2.734342e-003
3.891708e+003,-2.657881e-003
3.893637e+003,-2.913028e-003
3.895565e+003,-2.987207e-003
3.897494e+003,-3.027352e-003
3.899422e+003,-3.137664e-003
3.901351e+003,-3.145625e-003
3.903279e+003,-2.970951e-003
3.905208e+003,-2.809769e-003
3.907136e+003,-3.046468e-003
3.909065e+003,-3.083844e-003
3.910993e+003,-3.025246e-003
3.912922e+003,-3.161973e-003
3.914850e+003,-3.234531e-003
3.916779e+003,-3.207003e-003
3.918707e+003,-3.159934e-003
3.920636e+003,-3.065946e-003
3.922564e+003,-2.942879e-003
3.924493e+003,-2.778033e-003
3.926421e+003,-2.784815e-003
3.928350e+003,-3.110985e-003
3.930278e+003,-3.431815e-003
3.932207e+003,-3.297902e-003
3.934135e+003,-3.262386e-003
3.936064e+003,-3.316086e-003
3.937992e+003,-3.122828e-003
3.939921e+003,-3.039954e-003
3.941849e+003,-3.096609e-003
3.943778e+003,-3.205193e-003
3.945706e+003,-3.171677e-003
3.947635e+003,-3.117630e-003
3.949563e+003,-2.965192e-003
3.951492e+003,-2.894795e-003
3.953420e+003,-3.109538e-003
3.955349e+003,-3.297540e-003
3.957277e+003,-3.243279e-003
3.959206e+003,-3.303854e-003
3.961134e+003,-3.376749e-003
3.963063e+003,-3.207825e-003
3.964991e+003,-3.082495e-003
3.966920e+003,-3.034459e-003
3.968848e+003,-2.918492e-003
3.970777e+003,-2.853222e-003
3.972705e+003,-2.783367e-003
3.974634e+003,-3.069499e-003
3.976562e+003,-3.417909e-003
3.978491e+003,-3.247587e-003
3.980419e+003,-3.072592e-003
3.982348e+003,-3.034228e-003
3.984276e+003,-3.061472e-003
3.986205e+003,-3.160855e-003
3.988133e+003,-3.069828e-003
3.990062e+003,-2.715475e-003
3.991990e+003,-2.828435e-003
3.993919e+003,-3.259558e-003
3.995847e+003,-3.417186e-003
3.997776e+003,-3.259821e-003
3.999704e+003,-3.348572e-003
4.001633e+003,0.000000e+000
