3.991989e+002,1.440739e-002
4.011274e+002,1.449888e-002
4.030559e+002,7.109731e-003
4.049844e+002,4.583545e-003
4.069129e+002,8.777305e-003
4.088414e+002,1.268364e-002
4.107699e+002,9.959000e-003
4.126984e+002,8.249708e-003
4.146269e+002,8.471225e-003
4.165554e+002,8.619878e-003
4.184839e+002,1.046278e-002
4.204124e+002,1.025772e-002
4.223409e+002,1.317911e-002
4.242694e+002,1.552581e-002
4.261979e+002,1.126792e-002
4.281264e+002,8.904519e-003
4.300549e+002,8.790356e-003
4.319834e+002,3.325774e-003
4.339119e+002,2.735795e-003
4.358404e+002,9.026594e-003
4.377689e+002,9.877980e-003
4.396974e+002,5.963399e-003
4.416259e+002,5.866765e-003
4.435544e+002,8.017606e-003
4.454829e+002,1.032442e-002
4.474114e+002,1.326858e-002
4.493399e+002,9.263908e-003
4.512684e+002,3.901678e-003
4.531969e+002,3.655346e-003
4.551254e+002,8.797998e-003
4.570539e+002,9.041987e-003
4.589824e+002,4.522706e-003
4.609109e+002,4.746986e-003
4.628394e+002,6.547623e-003
4.647679e+002,5.378115e-003
4.666964e+002,3.023878e-003
4.686249e+002,1.091779e-003
4.705533e+002,2.628343e-003
4.724819e+002,3.629451e-003
4.744103e+002,2.740097e-003
4.763389e+002,2.364742e-003
4.782673e+002,2.792516e-003
4.801959e+002,3.173382e-003
4.821243e+002,4.849167e-003
4.840529e+002,4.796599e-003
4.859813e+002,2.591109e-003
4.879099e+002,1.364680e-003
4.898383e+002,6.701226e-004
4.917668e+002,-7.677325e-004
4.936953e+002,7.533258e-004
4.956238e+002,7.829337e-004
4.975523e+002,7.107763e-004
4.994808e+002,1.667387e-003
5.014093e+002,1.436314e-003
5.033378e+002,-1.849970e-003
5.052663e+002,-6.623164e-003
5.071948e+002,-4.400495e-003
5.091233e+002,-1.453904e-003
5.110518e+002,-1.069111e-003
5.129803e+002,-2.108263e-003
5.149088e+002,-3.361921e-003
5.168373e+002,-1.957679e-003
5.187658e+002,-1.344055e-003
5.206943e+002,-1.336821e-003
5.226228e+002,-2.440971e-003
5.245513e+002,-2.675862e-003
5.264798e+002,-2.021534e-003
5.284083e+002,-1.751474e-003
5.303368e+002,-3.280440e-003
5.322653e+002,-3.357449e-003
5.341938e+002,-2.744121e-003
5.361223e+002,-2.494838e-003
5.380508e+002,-2.097546e-003
5.399792e+002,-1.354889e-003
5.419078e+002,-2.216700e-003
5.438363e+002,-1.520870e-003
5.457648e+002,-7.510952e-004
5.476932e+002,-1.415100e-003
5.496218e+002,-1.566730e-003
5.515503e+002,-1.123430e-004
5.534788e+002,-2.567812e-005
5.554072e+002,1.094224e-004
5.573358e+002,-2.945516e-005
5.592643e+002,2.880635e-004
5.611927e+002,-8.994854e-004
5.631212e+002,-1.676754e-003
5.650497e+002,-2.251477e-003
5.669783e+002,-1.411632e-003
5.689067e+002,-1.850473e-004
5.708352e+002,-3.585279e-004
5.727637e+002,-1.923506e-003
5.746923e+002,-2.967331e-003
5.766207e+002,-1.592382e-003
5.785492e+002,5.327575e-004
5.804777e+002,-1.775135e-003
5.824063e+002,-6.032113e-003
5.843347e+002,-3.975756e-003
5.862632e+002,-1.216600e-003
5.881917e+002,-2.008177e-003
5.901202e+002,-3.524639e-003
5.920487e+002,-5.316747e-003
5.939772e+002,-4.886089e-003
5.959057e+002,-3.756481e-003
5.978342e+002,-3.026167e-003
5.997627e+002,-2.158644e-003
6.016912e+002,-1.181079e-003
6.036197e+002,-9.647187e-004
6.055482e+002,-5.789295e-004
6.074767e+002,5.550515e-004
6.094052e+002,1.228457e-003
6.113337e+002,1.772007e-003
6.132622e+002,1.482492e-003
6.151907e+002,7.392528e-004
6.171192e+002,1.095300e-003
6.190477e+002,1.111345e-003
6.209762e+002,1.549890e-003
6.229047e+002,-2.324393e-004
6.248332e+002,-3.212100e-003
6.267617e+002,-4.803354e-003
6.286902e+002,-4.127349e-003
6.306187e+002,-3.294909e-003
6.325472e+002,-3.157598e-003
6.344756e+002,-2.311102e-003
6.364042e+002,-1.656026e-003
6.383326e+002,-1.738076e-003
6.402612e+002,-1.835816e-003
6.421896e+002,-1.545732e-003
6.441182e+002,-1.510667e-003
6.460466e+002,-1.359216e-003
6.479752e+002,-9.438240e-004
6.499036e+002,-1.367176e-003
6.518322e+002,-1.876133e-003
6.537606e+002,-1.583666e-003
6.556891e+002,-1.509215e-003
6.576177e+002,-1.717515e-003
6.595461e+002,-1.304712e-003
6.614746e+002,-2.196030e-003
6.634031e+002,-2.856152e-003
6.653317e+002,-1.037347e-003
6.672601e+002,4.711881e-003
6.691886e+002,3.355925e-003
6.711171e+002,-8.995516e-004
6.730457e+002,-1.575578e-003
6.749741e+002,-1.888207e-003
6.769026e+002,-1.990861e-003
6.788311e+002,-1.696063e-003
6.807596e+002,-1.754609e-003
6.826881e+002,-1.768073e-003
6.846166e+002,-1.498681e-003
6.865451e+002,-1.808562e-003
6.884736e+002,-2.609996e-003
6.904021e+002,-2.827118e-003
6.923306e+002,-2.897164e-003
6.942591e+002,-2.770560e-003
6.961876e+002,-2.508905e-003
6.981161e+002,-2.562599e-003
7.000446e+002,-2.861781e-003
7.019731e+002,-3.620959e-003
7.039016e+002,-3.868054e-003
7.058301e+002,-3.959570e-003
7.077585e+002,-4.706411e-003
7.096871e+002,-4.530757e-003
7.116156e+002,-4.424635e-003
7.135441e+002,-5.192941e-003
7.154725e+002,-5.495061e-003
7.174011e+002,-5.462375e-003
7.193296e+002,-5.187506e-003
7.212581e+002,-4.963830e-003
7.231865e+002,-4.813283e-003
7.251151e+002,-4.816364e-003
7.270436e+002,-4.566168e-003
7.289720e+002,-4.040431e-003
7.309005e+002,-4.056122e-003
7.328290e+002,-4.359132e-003
7.347576e+002,-4.656030e-003
7.366860e+002,-4.255101e-003
7.386145e+002,-4.305266e-003
7.405430e+002,-4.206177e-003
7.424716e+002,-3.747054e-003
7.444000e+002,-3.434543e-003
7.463285e+002,-2.928168e-003
7.482570e+002,-2.595537e-003
7.501855e+002,-2.722719e-003
7.521140e+002,-2.041783e-003
7.540425e+002,-1.424843e-003
7.559710e+002,-1.120075e-003
7.578995e+002,-1.221812e-004
7.598280e+002,-4.877057e-005
7.617565e+002,-1.165168e-004
7.636850e+002,7.313536e-004
7.656135e+002,1.258928e-003
7.675420e+002,1.410784e-003
7.694705e+002,1.224769e-003
7.713990e+002,1.007747e-003
7.733275e+002,1.060191e-003
7.752560e+002,1.053714e-003
7.771844e+002,8.667562e-004
7.791130e+002,3.935787e-004
7.810415e+002,3.982549e-004
7.829700e+002,2.827585e-004
7.848984e+002,1.398813e-004
7.868270e+002,4.472415e-004
7.887555e+002,5.287766e-004
7.906840e+002,2.739724e-004
7.926124e+002,-1.646118e-004
7.945410e+002,-6.695202e-004
7.964695e+002,-1.101072e-003
7.983979e+002,-1.357829e-003
8.003264e+002,-1.515290e-003
8.022549e+002,-1.699561e-003
8.041835e+002,-1.579738e-003
8.061119e+002,-1.496832e-003
8.080404e+002,-1.680154e-003
8.099689e+002,-1.505054e-003
8.118975e+002,-1.348051e-003
8.138259e+002,-1.197964e-003
8.157545e+002,-1.354360e-003
8.176830e+002,-1.281752e-003
8.196115e+002,-2.129267e-003
8.215399e+002,-2.980033e-003
8.234684e+002,-3.171808e-003
8.253970e+002,-3.150658e-003
8.273254e+002,-2.860991e-003
8.292539e+002,-2.713269e-003
8.311824e+002,-3.108616e-003
8.331110e+002,-3.187662e-003
8.350394e+002,-3.386579e-003
8.369679e+002,-3.319308e-003
8.388964e+002,-3.348046e-003
8.408250e+002,-3.309970e-003
8.427534e+002,-3.335979e-003
8.446819e+002,-3.714039e-003
8.466104e+002,-3.807197e-003
8.485389e+002,-3.490621e-003
8.504674e+002,-3.317467e-003
8.523959e+002,-3.513267e-003
8.543244e+002,-3.397823e-003
8.562529e+002,-3.126677e-003
8.581814e+002,-3.202003e-003
8.601099e+002,-3.163059e-003
8.620384e+002,-3.281032e-003
8.639669e+002,-3.304643e-003
8.658954e+002,-3.132927e-003
8.678239e+002,-3.041237e-003
8.697524e+002,-2.746393e-003
8.716809e+002,-2.521687e-003
8.736094e+002,-2.572382e-003
8.755378e+002,-2.569088e-003
8.774664e+002,-2.045543e-003
8.793949e+002,-1.940824e-003
8.813234e+002,-2.195436e-003
8.832518e+002,-2.111956e-003
8.851804e+002,-2.254048e-003
8.871089e+002,-2.274912e-003
8.890374e+002,-2.464331e-003
8.909658e+002,-2.447429e-003
8.928943e+002,-1.898929e-003
8.948229e+002,-1.944221e-003
8.967513e+002,-2.577718e-003
8.986798e+002,-2.821752e-003
9.006083e+002,-2.701382e-003
9.025369e+002,-2.419653e-003
9.044653e+002,-2.351375e-003
9.063938e+002,-2.636475e-003
9.083223e+002,-3.207660e-003
9.102509e+002,-3.474877e-003
9.121793e+002,-3.426128e-003
9.141078e+002,-3.483127e-003
9.160364e+002,-3.637191e-003
9.179648e+002,-3.535682e-003
9.198933e+002,-3.730300e-003
9.218218e+002,-3.922073e-003
9.237504e+002,-4.349094e-003
9.256788e+002,-4.900047e-003
9.276073e+002,-5.153422e-003
9.295358e+002,-5.295144e-003
9.314644e+002,-5.639615e-003
9.333928e+002,-5.874613e-003
9.353213e+002,-5.782323e-003
9.372498e+002,-5.699595e-003
9.391783e+002,-6.034727e-003
9.411068e+002,-6.038680e-003
9.430353e+002,-5.746389e-003
9.449637e+002,-5.627906e-003
9.468923e+002,-5.662084e-003
9.488208e+002,-5.679057e-003
9.507493e+002,-5.501898e-003
9.526777e+002,-5.308564e-003
9.546063e+002,-5.229805e-003
9.565348e+002,-5.306240e-003
9.584633e+002,-5.248629e-003
9.603917e+002,-4.998126e-003
9.623203e+002,-4.957540e-003
9.642488e+002,-5.006380e-003
9.661772e+002,-4.840120e-003
9.681057e+002,-4.451200e-003
9.700343e+002,-4.233707e-003
9.719628e+002,-4.019749e-003
9.738912e+002,-4.012461e-003
9.758197e+002,-3.964856e-003
9.777483e+002,-3.687198e-003
9.796768e+002,-3.564636e-003
9.816052e+002,-3.625231e-003
9.835337e+002,-3.416627e-003
9.854623e+002,-3.257716e-003
9.873907e+002,-3.112893e-003
9.893192e+002,-3.126973e-003
9.912477e+002,-3.224204e-003
9.931763e+002,-3.101083e-003
9.951047e+002,-3.134802e-003
9.970332e+002,-3.346665e-003
9.989617e+002,-3.118749e-003
1.000890e+003,-2.825340e-003
1.002819e+003,-2.524849e-003
1.004747e+003,-2.560886e-003
1.006676e+003,-2.456028e-003
1.008604e+003,-2.327284e-003
1.010533e+003,-2.263145e-003
1.012461e+003,-1.976514e-003
1.014390e+003,-1.849970e-003
1.016318e+003,-1.759691e-003
1.018247e+003,-1.503073e-003
1.020175e+003,-1.346862e-003
1.022104e+003,-1.187357e-003
1.024032e+003,-9.498412e-004
1.025961e+003,-5.539128e-004
1.027889e+003,-4.346667e-004
1.029818e+003,-3.192616e-004
1.031746e+003,-6.162888e-006
1.033675e+003,2.463883e-004
1.035603e+003,3.562708e-004
1.037532e+003,4.548703e-004
1.039460e+003,6.133463e-004
1.041389e+003,6.582424e-004
1.043317e+003,7.593667e-004
1.045246e+003,9.252590e-004
1.047174e+003,1.097925e-003
1.049103e+003,1.066236e-003
1.051031e+003,7.758303e-004
1.052960e+003,6.817375e-004
1.054888e+003,6.373036e-004
1.056817e+003,7.792492e-004
1.058745e+003,8.977996e-004
1.060674e+003,8.377402e-004
1.062602e+003,5.749578e-004
1.064531e+003,7.215295e-004
1.066459e+003,9.914078e-004
1.068388e+003,9.863599e-004
1.070316e+003,1.006552e-003
1.072245e+003,1.174598e-003
1.074173e+003,1.195364e-003
1.076102e+003,1.218954e-003
1.078030e+003,1.410185e-003
1.079959e+003,1.546232e-003
1.081887e+003,1.675237e-003
1.083816e+003,1.912327e-003
1.085744e+003,2.058785e-003
1.087673e+003,2.256648e-003
1.089601e+003,2.412984e-003
1.091530e+003,2.707954e-003
1.093458e+003,2.976468e-003
1.095387e+003,3.249621e-003
1.097315e+003,3.414330e-003
1.099244e+003,3.473879e-003
1.101172e+003,3.463525e-003
1.103101e+003,3.513359e-003
1.105029e+003,3.665571e-003
1.106958e+003,3.768635e-003
1.108886e+003,3.886433e-003
1.110815e+003,4.049377e-003
1.112743e+003,3.868213e-003
1.114672e+003,3.732139e-003
1.116600e+003,4.180030e-003
1.118529e+003,4.509448e-003
1.120457e+003,4.262236e-003
1.122386e+003,4.090382e-003
1.124314e+003,3.985603e-003
1.126243e+003,3.765794e-003
1.128171e+003,3.508884e-003
1.130100e+003,3.466664e-003
1.132028e+003,3.223884e-003
1.133957e+003,2.862986e-003
1.135885e+003,2.653478e-003
1.137814e+003,2.277832e-003
1.139742e+003,1.544802e-003
1.141671e+003,1.208189e-003
1.143599e+003,1.076466e-003
1.145528e+003,7.112410e-004
1.147456e+003,2.707895e-004
1.149385e+003,-2.219924e-005
1.151313e+003,-3.263470e-004
1.153242e+003,-7.127906e-004
1.155170e+003,-1.081935e-003
1.157099e+003,-1.228362e-003
1.159027e+003,-1.220168e-003
1.160956e+003,-1.441322e-003
1.162884e+003,-1.721112e-003
1.164813e+003,-1.885436e-003
1.166741e+003,-2.115583e-003
1.168670e+003,-2.211557e-003
1.170598e+003,-2.158841e-003
1.172526e+003,-2.198238e-003
1.174455e+003,-2.321154e-003
1.176384e+003,-2.152050e-003
1.178312e+003,-2.088775e-003
1.180240e+003,-2.305895e-003
1.182169e+003,-2.460410e-003
1.184098e+003,-2.463144e-003
1.186026e+003,-2.548698e-003
1.187954e+003,-2.459751e-003
1.189883e+003,-2.482714e-003
1.191812e+003,-2.556011e-003
1.193740e+003,-2.415534e-003
1.195668e+003,-2.430295e-003
1.197597e+003,-2.561677e-003
1.199526e+003,-2.492861e-003
1.201454e+003,-2.375761e-003
1.203382e+003,-2.240797e-003
1.205311e+003,-2.209447e-003
1.207240e+003,-2.072023e-003
1.209168e+003,-1.873988e-003
1.211096e+003,-1.718307e-003
1.213025e+003,-1.553755e-003
1.214953e+003,-1.426362e-003
1.216882e+003,-1.407174e-003
1.218810e+003,-1.411500e-003
1.220739e+003,-1.401130e-003
1.222667e+003,-1.302961e-003
1.224596e+003,-1.080580e-003
1.226524e+003,-9.617763e-004
1.228453e+003,-8.853332e-004
1.230381e+003,-7.929353e-004
1.232310e+003,-7.416352e-004
1.234238e+003,-7.256584e-004
1.236167e+003,-6.544341e-004
1.238095e+003,-5.494785e-004
1.240024e+003,-4.317207e-004
1.241952e+003,-4.201351e-004
1.243881e+003,-7.909840e-004
1.245809e+003,-1.038503e-003
1.247738e+003,-1.082398e-003
1.249666e+003,-9.564204e-004
1.251595e+003,-1.055890e-003
1.253523e+003,-1.273328e-003
1.255452e+003,-1.395647e-003
1.257380e+003,-1.523082e-003
1.259309e+003,-1.387192e-003
1.261237e+003,-1.161847e-003
1.263166e+003,-1.093305e-003
1.265094e+003,-9.241846e-004
1.267023e+003,-5.609613e-004
1.268951e+003,-2.676737e-004
1.270880e+003,2.408911e-005
1.272808e+003,2.235466e-004
1.274737e+003,4.209731e-004
1.276665e+003,6.647797e-004
1.278594e+003,9.129734e-004
1.280522e+003,1.147522e-003
1.282451e+003,1.408789e-003
1.284379e+003,1.831231e-003
1.286308e+003,2.178784e-003
1.288236e+003,2.550279e-003
1.290165e+003,2.946744e-003
1.292093e+003,3.318095e-003
1.294022e+003,3.647761e-003
1.295950e+003,3.985168e-003
1.297879e+003,4.284555e-003
1.299807e+003,4.459499e-003
1.301736e+003,4.482363e-003
1.303664e+003,4.398309e-003
1.305593e+003,4.223925e-003
1.307521e+003,4.224561e-003
1.309450e+003,4.175079e-003
1.311378e+003,3.839463e-003
1.313307e+003,3.542354e-003
1.315235e+003,3.288781e-003
1.317164e+003,3.172647e-003
1.319092e+003,2.780144e-003
1.321021e+003,2.363975e-003
1.322949e+003,2.086950e-003
1.324878e+003,1.782720e-003
1.326806e+003,1.467398e-003
1.328735e+003,1.326225e-003
1.330663e+003,1.300169e-003
1.332592e+003,1.227627e-003
1.334520e+003,1.075536e-003
1.336449e+003,1.062449e-003
1.338377e+003,1.079456e-003
1.340306e+003,1.007515e-003
1.342234e+003,9.879540e-004
1.344163e+003,9.172235e-004
1.346091e+003,8.671546e-004
1.348020e+003,9.078932e-004
1.349948e+003,8.692794e-004
1.351877e+003,7.585369e-004
1.353805e+003,7.579395e-004
1.355734e+003,6.339521e-004
1.357662e+003,5.122892e-004
1.359591e+003,4.762647e-004
1.361519e+003,3.806781e-004
1.363448e+003,2.495710e-004
1.365376e+003,-2.021172e-006
1.367305e+003,-1.726272e-004
1.369233e+003,-1.185043e-004
1.371162e+003,-7.093418e-005
1.373090e+003,1.587150e-005
1.375019e+003,2.282995e-005
1.376947e+003,-6.384460e-005
1.378876e+003,-1.153905e-004
1.380804e+003,-1.411943e-004
1.382733e+003,-2.214777e-004
1.384661e+003,-2.832037e-004
1.386590e+003,-3.150236e-004
1.388518e+003,-4.912324e-004
1.390447e+003,-8.951538e-004
1.392375e+003,-1.184582e-003
1.394304e+003,-1.224067e-003
1.396232e+003,-1.448323e-003
1.398161e+003,-1.514498e-003
1.400089e+003,-1.423158e-003
1.402018e+003,-1.525063e-003
1.403946e+003,-1.658204e-003
1.405875e+003,-1.719033e-003
1.407803e+003,-1.797013e-003
1.409732e+003,-1.898566e-003
1.411660e+003,-1.889560e-003
1.413589e+003,-1.780250e-003
1.415517e+003,-1.513606e-003
1.417446e+003,-1.140598e-003
1.419374e+003,-5.959374e-004
1.421303e+003,-7.428016e-005
1.423231e+003,5.491461e-004
1.425160e+003,1.246700e-003
1.427088e+003,1.768281e-003
1.429017e+003,2.096539e-003
1.430945e+003,2.458300e-003
1.432874e+003,2.893438e-003
1.434802e+003,3.384142e-003
1.436731e+003,3.738321e-003
1.438659e+003,4.005935e-003
1.440588e+003,4.416350e-003
1.442516e+003,5.010093e-003
1.444445e+003,5.561756e-003
1.446373e+003,6.134686e-003
1.448302e+003,6.663183e-003
1.450230e+003,7.077937e-003
1.452159e+003,7.523395e-003
1.454087e+003,8.060472e-003
1.456016e+003,8.708945e-003
1.457944e+003,9.132461e-003
1.459873e+003,9.150598e-003
1.461801e+003,9.195777e-003
1.463730e+003,9.344035e-003
1.465658e+003,9.498575e-003
1.467587e+003,9.438093e-003
1.469515e+003,9.388522e-003
1.471444e+003,9.215677e-003
1.473372e+003,8.809325e-003
1.475301e+003,8.345557e-003
1.477229e+003,7.910188e-003
1.479158e+003,7.361164e-003
1.481086e+003,6.904225e-003
1.483015e+003,6.394432e-003
1.484943e+003,5.752726e-003
1.486872e+003,5.340376e-003
1.488800e+003,5.032350e-003
1.490729e+003,4.630629e-003
1.492657e+003,4.015131e-003
1.494586e+003,3.445256e-003
1.496514e+003,3.108468e-003
1.498443e+003,2.759070e-003
1.500371e+003,2.255516e-003
1.502300e+003,1.840880e-003
1.504228e+003,1.697357e-003
1.506157e+003,1.761727e-003
1.508085e+003,1.357434e-003
1.510014e+003,8.645650e-004
1.511942e+003,5.964908e-004
1.513871e+003,5.577719e-004
1.515799e+003,6.708858e-004
1.517728e+003,8.163612e-004
1.519656e+003,9.116121e-004
1.521585e+003,9.593947e-004
1.523513e+003,9.296752e-004
1.525442e+003,1.049828e-003
1.527370e+003,1.120248e-003
1.529299e+003,1.306683e-003
1.531227e+003,1.593553e-003
1.533156e+003,1.999131e-003
1.535084e+003,2.339290e-003
1.537013e+003,2.691351e-003
1.538941e+003,3.129092e-003
1.540870e+003,3.435270e-003
1.542798e+003,3.817736e-003
1.544727e+003,4.128146e-003
1.546655e+003,4.236806e-003
1.548584e+003,4.552639e-003
1.550512e+003,4.955595e-003
1.552441e+003,5.379356e-003
1.554369e+003,5.940020e-003
1.556298e+003,6.481161e-003
1.558226e+003,7.218163e-003
1.560155e+003,7.876548e-003
1.562083e+003,8.118129e-003
1.564012e+003,8.345388e-003
1.565940e+003,8.426764e-003
1.567869e+003,8.607103e-003
1.569797e+003,9.044829e-003
1.571726e+003,9.110129e-003
1.573654e+003,9.004943e-003
1.575583e+003,9.119738e-003
1.577511e+003,9.074297e-003
1.579440e+003,8.903098e-003
1.581368e+003,8.826706e-003
1.583297e+003,8.697148e-003
1.585225e+003,8.577126e-003
1.587154e+003,8.346739e-003
1.589082e+003,7.886096e-003
1.591010e+003,7.316986e-003
1.592939e+003,6.859958e-003
1.594868e+003,6.475342e-003
1.596796e+003,6.035628e-003
1.598724e+003,5.551989e-003
1.600653e+003,5.055144e-003
1.602582e+003,4.542159e-003
1.604510e+003,3.946915e-003
1.606438e+003,3.449297e-003
1.608367e+003,3.021609e-003
1.610296e+003,2.489424e-003
1.612224e+003,2.053924e-003
1.614152e+003,1.827238e-003
1.616081e+003,1.604428e-003
1.618010e+003,1.420823e-003
1.619938e+003,1.140778e-003
1.621866e+003,9.177880e-004
1.623795e+003,6.144082e-004
1.625724e+003,4.484688e-004
1.627652e+003,3.205576e-004
1.629580e+003,1.015677e-004
1.631509e+003,-1.756412e-004
1.633438e+003,-2.841308e-004
1.635366e+003,-2.908526e-004
1.637294e+003,-4.794168e-004
1.639223e+003,-7.813263e-004
1.641151e+003,-1.047230e-003
1.643080e+003,-1.345475e-003
1.645008e+003,-1.476855e-003
1.646937e+003,-1.621894e-003
1.648865e+003,-1.992774e-003
1.650794e+003,-2.143609e-003
1.652722e+003,-1.961440e-003
1.654651e+003,-2.283845e-003
1.656579e+003,-2.632029e-003
1.658508e+003,-2.681526e-003
1.660436e+003,-2.690120e-003
1.662365e+003,-2.725387e-003
1.664293e+003,-2.897197e-003
1.666222e+003,-3.185557e-003
1.668150e+003,-3.177038e-003
1.670079e+003,-3.209140e-003
1.672007e+003,-3.474811e-003
1.673936e+003,-3.738119e-003
1.675864e+003,-3.977497e-003
1.677793e+003,-4.264977e-003
1.679721e+003,-4.566628e-003
1.681650e+003,-4.911382e-003
1.683578e+003,-5.048238e-003
1.685507e+003,-5.319889e-003
1.687435e+003,-5.630751e-003
1.689364e+003,-5.898280e-003
1.691292e+003,-6.065409e-003
1.693221e+003,-6.131406e-003
1.695149e+003,-6.120691e-003
1.697078e+003,-6.239464e-003
1.699006e+003,-6.259060e-003
1.700935e+003,-6.404112e-003
1.702863e+003,-6.712470e-003
1.704792e+003,-6.773900e-003
1.706720e+003,-6.819176e-003
1.708649e+003,-6.918682e-003
1.710577e+003,-7.036617e-003
1.712506e+003,-7.108954e-003
1.714434e+003,-7.158921e-003
1.716363e+003,-7.173587e-003
1.718291e+003,-7.191969e-003
1.720220e+003,-7.361859e-003
1.722148e+003,-7.557017e-003
1.724077e+003,-7.654856e-003
1.726005e+003,-7.583131e-003
1.727934e+003,-7.556203e-003
1.729862e+003,-7.581861e-003
1.731791e+003,-7.522727e-003
1.733719e+003,-7.502341e-003
1.735648e+003,-7.700333e-003
1.737576e+003,-7.759378e-003
1.739505e+003,-7.757197e-003
1.741433e+003,-7.758499e-003
1.743362e+003,-7.611197e-003
1.745290e+003,-7.580494e-003
1.747219e+003,-7.532594e-003
1.749147e+003,-7.399418e-003
1.751076e+003,-7.293050e-003
1.753004e+003,-7.255123e-003
1.754933e+003,-7.289825e-003
1.756861e+003,-7.280669e-003
1.758790e+003,-7.301066e-003
1.760718e+003,-7.263106e-003
1.762647e+003,-7.237201e-003
1.764575e+003,-7.319050e-003
1.766504e+003,-7.281777e-003
1.768432e+003,-7.221592e-003
1.770361e+003,-7.293963e-003
1.772289e+003,-7.246260e-003
1.774218e+003,-7.182452e-003
1.776146e+003,-7.242284e-003
1.778075e+003,-7.290379e-003
1.780003e+003,-7.238765e-003
1.781932e+003,-7.170719e-003
1.783860e+003,-7.165700e-003
1.785789e+003,-7.151392e-003
1.787717e+003,-7.180920e-003
1.789646e+003,-7.266365e-003
1.791574e+003,-7.121992e-003
1.793503e+003,-6.987386e-003
1.795431e+003,-7.070032e-003
1.797360e+003,-7.150675e-003
1.799288e+003,-7.130565e-003
1.801217e+003,-7.167590e-003
1.803145e+003,-7.198389e-003
1.805074e+003,-7.142005e-003
1.807002e+003,-7.195684e-003
1.808931e+003,-7.282200e-003
1.810859e+003,-7.323318e-003
1.812788e+003,-7.374140e-003
1.814716e+003,-7.347981e-003
1.816645e+003,-7.355050e-003
1.818573e+003,-7.433327e-003
1.820502e+003,-7.486871e-003
1.822430e+003,-7.486448e-003
1.824359e+003,-7.465832e-003
1.826287e+003,-7.412187e-003
1.828216e+003,-7.401503e-003
1.830144e+003,-7.457559e-003
1.832073e+003,-7.624351e-003
1.834001e+003,-7.630537e-003
1.835930e+003,-7.586746e-003
1.837858e+003,-7.599965e-003
1.839787e+003,-7.627704e-003
1.841715e+003,-7.613867e-003
1.843644e+003,-7.487816e-003
1.845572e+003,-7.499084e-003
1.847501e+003,-7.667259e-003
1.849429e+003,-7.678100e-003
1.851358e+003,-7.612467e-003
1.853286e+003,-7.581243e-003
1.855215e+003,-7.536632e-003
1.857143e+003,-7.485341e-003
1.859072e+003,-7.494395e-003
1.861000e+003,-7.477915e-003
1.862929e+003,-7.420103e-003
1.864857e+003,-7.379971e-003
1.866786e+003,-7.437692e-003
1.868714e+003,-7.431731e-003
1.870643e+003,-7.430591e-003
1.872571e+003,-7.457559e-003
1.874500e+003,-7.402220e-003
1.876428e+003,-7.326739e-003
1.878357e+003,-7.249877e-003
1.880285e+003,-7.232345e-003
1.882214e+003,-7.296667e-003
1.884142e+003,-7.274999e-003
1.886071e+003,-7.244403e-003
1.887999e+003,-7.207057e-003
1.889928e+003,-7.194412e-003
1.891856e+003,-7.234789e-003
1.893785e+003,-7.158660e-003
1.895713e+003,-7.188709e-003
1.897642e+003,-7.257665e-003
1.899570e+003,-7.127240e-003
1.901499e+003,-7.082224e-003
1.903427e+003,-7.164788e-003
1.905356e+003,-7.166613e-003
1.907284e+003,-7.169253e-003
1.909213e+003,-7.189133e-003
1.911141e+003,-7.162995e-003
1.913070e+003,-7.130760e-003
1.914998e+003,-7.057254e-003
1.916927e+003,-7.030358e-003
1.918855e+003,-7.021034e-003
1.920784e+003,-6.991853e-003
1.922712e+003,-7.012948e-003
1.924641e+003,-7.095557e-003
1.926569e+003,-7.037302e-003
1.928498e+003,-7.079943e-003
1.930426e+003,-7.099729e-003
1.932355e+003,-7.121895e-003
1.934283e+003,-7.228598e-003
1.936212e+003,-7.336708e-003
1.938140e+003,-7.402285e-003
1.940069e+003,-7.334265e-003
1.941997e+003,-7.209958e-003
1.943926e+003,-7.199138e-003
1.945854e+003,-7.374140e-003
1.947783e+003,-7.497814e-003
1.949711e+003,-7.497944e-003
1.951640e+003,-7.469187e-003
1.953568e+003,-7.382121e-003
1.955497e+003,-7.396259e-003
1.957425e+003,-7.408539e-003
1.959354e+003,-7.397790e-003
1.961282e+003,-7.385183e-003
1.963211e+003,-7.425803e-003
1.965139e+003,-7.389972e-003
1.967068e+003,-7.364465e-003
1.968996e+003,-7.545066e-003
1.970925e+003,-7.502536e-003
1.972853e+003,-7.359839e-003
1.974782e+003,-7.372055e-003
1.976710e+003,-7.333907e-003
1.978639e+003,-7.226545e-003
1.980567e+003,-7.232769e-003
1.982496e+003,-7.295396e-003
1.984424e+003,-7.181474e-003
1.986353e+003,-7.051288e-003
1.988281e+003,-7.109574e-003
1.990210e+003,-7.140180e-003
1.992138e+003,-7.014741e-003
1.994067e+003,-6.932899e-003
1.995995e+003,-7.042192e-003
1.997924e+003,-7.090863e-003
1.999852e+003,-7.006949e-003
2.001781e+003,-7.007144e-003
2.003709e+003,-7.008807e-003
2.005638e+003,-6.963062e-003
2.007566e+003,-6.840867e-003
2.009495e+003,-6.793994e-003
2.011423e+003,-6.858088e-003
2.013352e+003,-6.808673e-003
2.015280e+003,-6.754196e-003
2.017208e+003,-6.726760e-003
2.019137e+003,-6.692666e-003
2.021066e+003,-6.808347e-003
2.022994e+003,-6.931269e-003
2.024922e+003,-6.876025e-003
2.026851e+003,-6.786035e-003
2.028780e+003,-6.825276e-003
2.030708e+003,-6.795430e-003
2.032636e+003,-6.709893e-003
2.034565e+003,-6.764016e-003
2.036494e+003,-6.826906e-003
2.038422e+003,-6.754392e-003
2.040350e+003,-6.740364e-003
2.042279e+003,-6.756512e-003
2.044208e+003,-6.788384e-003
2.046136e+003,-6.795886e-003
2.048064e+003,-6.758111e-003
2.049993e+003,-6.715961e-003
2.051921e+003,-6.774096e-003
2.053850e+003,-6.674361e-003
2.055778e+003,-6.593630e-003
2.057707e+003,-6.588996e-003
2.059635e+003,-6.608870e-003
2.061564e+003,-6.634977e-003
2.063492e+003,-6.697886e-003
2.065421e+003,-6.641568e-003
2.067349e+003,-6.485922e-003
2.069278e+003,-6.503386e-003
2.071206e+003,-6.514092e-003
2.073135e+003,-6.455433e-003
2.075063e+003,-6.368947e-003
2.076992e+003,-6.358662e-003
2.078920e+003,-6.374824e-003
2.080849e+003,-6.331723e-003
2.082777e+003,-6.317583e-003
2.084706e+003,-6.331004e-003
2.086634e+003,-6.367771e-003
2.088563e+003,-6.331821e-003
2.090491e+003,-6.234760e-003
2.092420e+003,-6.208010e-003
2.094348e+003,-6.147676e-003
2.096277e+003,-6.100827e-003
2.098205e+003,-6.066520e-003
2.100134e+003,-6.072042e-003
2.102062e+003,-6.053450e-003
2.103991e+003,-6.016623e-003
2.105919e+003,-5.931619e-003
2.107848e+003,-5.778007e-003
2.109776e+003,-5.754890e-003
2.111705e+003,-5.807498e-003
2.113633e+003,-5.734192e-003
2.115562e+003,-5.610374e-003
2.117490e+003,-5.559477e-003
2.119419e+003,-5.505432e-003
2.121347e+003,-5.504090e-003
2.123276e+003,-5.530852e-003
2.125204e+003,-5.428475e-003
2.127133e+003,-5.407893e-003
2.129061e+003,-5.330199e-003
2.130990e+003,-5.222079e-003
2.132918e+003,-5.258449e-003
2.134847e+003,-5.289907e-003
2.136775e+003,-5.298253e-003
2.138704e+003,-5.228953e-003
2.140632e+003,-5.191140e-003
2.142561e+003,-5.219329e-003
2.144489e+003,-5.273278e-003
2.146418e+003,-5.285422e-003
2.148346e+003,-5.221620e-003
2.150275e+003,-5.226695e-003
2.152203e+003,-5.223126e-003
2.154132e+003,-5.169891e-003
2.156060e+003,-5.209507e-003
2.157989e+003,-5.215793e-003
2.159917e+003,-5.175032e-003
2.161846e+003,-5.265716e-003
2.163774e+003,-5.328268e-003
2.165703e+003,-5.245715e-003
2.167631e+003,-5.149034e-003
2.169560e+003,-5.036251e-003
2.171488e+003,-5.052004e-003
2.173417e+003,-5.136690e-003
2.175345e+003,-5.158202e-003
2.177274e+003,-5.145498e-003
2.179202e+003,-5.123657e-003
2.181131e+003,-5.211079e-003
2.183059e+003,-5.233864e-003
2.184988e+003,-5.114095e-003
2.186916e+003,-5.044406e-003
2.188845e+003,-5.061043e-003
2.190773e+003,-5.171299e-003
2.192702e+003,-5.175981e-003
2.194630e+003,-5.088389e-003
2.196559e+003,-5.032058e-003
2.198487e+003,-5.044340e-003
2.200416e+003,-5.081905e-003
2.202344e+003,-5.060814e-003
2.204273e+003,-4.974083e-003
2.206201e+003,-4.967990e-003
2.208130e+003,-4.965435e-003
2.210058e+003,-4.956001e-003
2.211987e+003,-4.945420e-003
2.213915e+003,-4.924879e-003
2.215844e+003,-4.959702e-003
2.217772e+003,-5.004480e-003
2.219701e+003,-5.026883e-003
2.221629e+003,-4.991116e-003
2.223558e+003,-4.917836e-003
2.225486e+003,-4.908106e-003
2.227415e+003,-4.983942e-003
2.229343e+003,-5.023052e-003
2.231272e+003,-5.000222e-003
2.233200e+003,-4.916493e-003
2.235129e+003,-4.904404e-003
2.237057e+003,-4.979389e-003
2.238986e+003,-5.017320e-003
2.240914e+003,-5.045224e-003
2.242843e+003,-5.012865e-003
2.244771e+003,-5.009688e-003
2.246700e+003,-5.014863e-003
2.248628e+003,-5.048139e-003
2.250557e+003,-5.164521e-003
2.252485e+003,-5.236451e-003
2.254414e+003,-5.165929e-003
2.256342e+003,-5.113931e-003
2.258271e+003,-5.199718e-003
2.260199e+003,-5.170251e-003
2.262128e+003,-5.099621e-003
2.264056e+003,-5.094938e-003
2.265985e+003,-5.103256e-003
2.267913e+003,-5.123198e-003
2.269842e+003,-5.126113e-003
2.271770e+003,-5.189307e-003
2.273699e+003,-5.334715e-003
2.275627e+003,-5.358084e-003
2.277556e+003,-5.330101e-003
2.279484e+003,-5.352618e-003
2.281413e+003,-5.365546e-003
2.283341e+003,-5.394901e-003
2.285270e+003,-5.400006e-003
2.287198e+003,-5.334748e-003
2.289127e+003,-5.239266e-003
2.291055e+003,-5.177782e-003
2.292984e+003,-5.145825e-003
2.294912e+003,-5.080333e-003
2.296841e+003,-4.956623e-003
2.298769e+003,-4.746659e-003
2.300698e+003,-4.616429e-003
2.302626e+003,-4.508852e-003
2.304555e+003,-4.317896e-003
2.306483e+003,-4.072272e-003
2.308412e+003,-3.761014e-003
2.310340e+003,-3.324865e-003
2.312269e+003,-2.757028e-003
2.314197e+003,-2.156336e-003
2.316125e+003,-1.462787e-003
2.318054e+003,-8.377808e-004
2.319983e+003,-1.989243e-004
2.321911e+003,5.793373e-004
2.323840e+003,1.367439e-003
2.325768e+003,1.868166e-003
2.327697e+003,2.490057e-003
2.329625e+003,3.291385e-003
2.331553e+003,3.714493e-003
2.333482e+003,3.857281e-003
2.335411e+003,4.114599e-003
2.337339e+003,4.343620e-003
2.339268e+003,4.475133e-003
2.341196e+003,4.388268e-003
2.343125e+003,3.778093e-003
2.345053e+003,2.388129e-003
2.346981e+003,2.109825e-004
2.348910e+003,-1.074334e-003
2.350839e+003,3.440676e-004
2.352767e+003,3.043397e-003
2.354696e+003,5.205919e-003
2.356624e+003,6.551054e-003
2.358552e+003,7.286255e-003
2.360481e+003,7.554345e-003
2.362409e+003,7.543421e-003
2.364338e+003,7.210078e-003
2.366267e+003,6.550651e-003
2.368195e+003,5.512222e-003
2.370124e+003,4.200706e-003
2.372052e+003,2.681349e-003
2.373980e+003,1.081382e-003
2.375909e+003,-5.291926e-004
2.377838e+003,-1.937888e-003
2.379766e+003,-3.030017e-003
2.381695e+003,-3.741502e-003
2.383623e+003,-4.074340e-003
2.385552e+003,-4.270358e-003
2.387480e+003,-4.378584e-003
2.389408e+003,-4.353719e-003
2.391337e+003,-4.306545e-003
2.393266e+003,-4.284630e-003
2.395194e+003,-4.292766e-003
2.397123e+003,-4.195249e-003
2.399051e+003,-4.086846e-003
2.400979e+003,-4.081266e-003
2.402908e+003,-4.113400e-003
2.404836e+003,-4.081562e-003
2.406765e+003,-4.026019e-003
2.408694e+003,-4.041974e-003
2.410622e+003,-4.038265e-003
2.412551e+003,-4.012921e-003
2.414479e+003,-3.937473e-003
2.416407e+003,-3.842602e-003
2.418336e+003,-3.760062e-003
2.420264e+003,-3.835147e-003
2.422193e+003,-3.873702e-003
2.424122e+003,-3.718408e-003
2.426050e+003,-3.637750e-003
2.427979e+003,-3.653094e-003
2.429907e+003,-3.581593e-003
2.431835e+003,-3.495091e-003
2.433764e+003,-3.424484e-003
2.435692e+003,-3.374250e-003
2.437621e+003,-3.350906e-003
2.439550e+003,-3.386678e-003
2.441478e+003,-3.373099e-003
2.443406e+003,-3.296356e-003
2.445335e+003,-3.129078e-003
2.447263e+003,-3.037979e-003
2.449192e+003,-3.066209e-003
2.451121e+003,-3.078448e-003
2.453049e+003,-3.033143e-003
2.454978e+003,-2.908684e-003
2.456906e+003,-2.779844e-003
2.458834e+003,-2.743924e-003
2.460763e+003,-2.705334e-003
2.462691e+003,-2.746657e-003
2.464620e+003,-2.708528e-003
2.466549e+003,-2.590069e-003
2.468477e+003,-2.567177e-003
2.470406e+003,-2.590728e-003
2.472334e+003,-2.566848e-003
2.474262e+003,-2.526760e-003
2.476191e+003,-2.569121e-003
2.478119e+003,-2.571031e-003
2.480048e+003,-2.439192e-003
2.481977e+003,-2.261860e-003
2.483905e+003,-2.284438e-003
2.485833e+003,-2.356219e-003
2.487762e+003,-2.303983e-003
2.489690e+003,-2.345410e-003
2.491619e+003,-2.340236e-003
2.493547e+003,-2.206150e-003
2.495476e+003,-2.121122e-003
2.497405e+003,-2.158545e-003
2.499333e+003,-2.158083e-003
2.501261e+003,-2.135564e-003
2.503190e+003,-2.127618e-003
2.505118e+003,-2.133289e-003
2.507047e+003,-2.138861e-003
2.508975e+003,-2.141334e-003
2.510904e+003,-2.140873e-003
2.512833e+003,-2.064406e-003
2.514761e+003,-2.083895e-003
2.516689e+003,-2.103779e-003
2.518618e+003,-1.984891e-003
2.520546e+003,-1.875770e-003
2.522475e+003,-1.875770e-003
2.524403e+003,-1.984792e-003
2.526332e+003,-2.133817e-003
2.528260e+003,-2.021995e-003
2.530189e+003,-1.868446e-003
2.532117e+003,-1.862078e-003
2.534046e+003,-1.907935e-003
2.535974e+003,-1.856865e-003
2.537903e+003,-1.853500e-003
2.539831e+003,-1.769822e-003
2.541760e+003,-1.771274e-003
2.543688e+003,-1.809485e-003
2.545617e+003,-1.706525e-003
2.547545e+003,-1.588915e-003
2.549474e+003,-1.658303e-003
2.551402e+003,-1.731640e-003
2.553331e+003,-1.660416e-003
2.555259e+003,-1.531865e-003
2.557188e+003,-1.438053e-003
2.559116e+003,-1.462127e-003
2.561045e+003,-1.376953e-003
2.562973e+003,-1.352147e-003
2.564902e+003,-1.368464e-003
2.566830e+003,-1.276335e-003
2.568759e+003,-1.337911e-003
2.570687e+003,-1.440794e-003
2.572616e+003,-1.301045e-003
2.574544e+003,-1.173578e-003
2.576473e+003,-1.180187e-003
2.578401e+003,-1.152363e-003
2.580330e+003,-1.156427e-003
2.582258e+003,-1.198096e-003
2.584187e+003,-1.110987e-003
2.586115e+003,-1.158608e-003
2.588044e+003,-1.190926e-003
2.589972e+003,-1.116638e-003
2.591901e+003,-1.060584e-003
2.593829e+003,-1.115382e-003
2.595758e+003,-1.112772e-003
2.597686e+003,-1.107814e-003
2.599615e+003,-1.149884e-003
2.601543e+003,-1.093338e-003
2.603472e+003,-1.082134e-003
2.605400e+003,-1.078267e-003
2.607329e+003,-9.900423e-004
2.609257e+003,-9.072226e-004
2.611186e+003,-8.992209e-004
2.613114e+003,-9.074541e-004
2.615043e+003,-9.226306e-004
2.616971e+003,-9.243830e-004
2.618900e+003,-8.655920e-004
2.620828e+003,-8.245526e-004
2.622757e+003,-7.516575e-004
2.624685e+003,-7.437521e-004
2.626614e+003,-7.494414e-004
2.628542e+003,-7.393528e-004
2.630471e+003,-6.452366e-004
2.632399e+003,-6.339545e-004
2.634328e+003,-6.505963e-004
2.636256e+003,-6.330612e-004
2.638185e+003,-5.612592e-004
2.640113e+003,-5.699951e-004
2.642042e+003,-6.318701e-004
2.643970e+003,-5.081444e-004
2.645899e+003,-3.624676e-004
2.647827e+003,-3.556808e-004
2.649756e+003,-3.722008e-004
2.651684e+003,-3.096266e-004
2.653613e+003,-3.188974e-004
2.655541e+003,-2.707863e-004
2.657470e+003,-2.800911e-004
2.659398e+003,-2.409833e-004
2.661327e+003,-8.329099e-005
2.663255e+003,-8.946098e-006
2.665184e+003,-1.941611e-005
2.667112e+003,1.130681e-004
2.669041e+003,2.694633e-004
2.670969e+003,3.048739e-004
2.672898e+003,2.659158e-004
2.674826e+003,2.556049e-004
2.676755e+003,2.750002e-004
2.678683e+003,2.721488e-004
2.680612e+003,3.071286e-004
2.682540e+003,4.348037e-004
2.684469e+003,5.788396e-004
2.686397e+003,6.772242e-004
2.688326e+003,7.619225e-004
2.690254e+003,8.793725e-004
2.692183e+003,8.851163e-004
2.694111e+003,8.680842e-004
2.696040e+003,7.776891e-004
2.697968e+003,8.339224e-004
2.699897e+003,1.012928e-003
2.701825e+003,1.030663e-003
2.703754e+003,1.041126e-003
2.705682e+003,1.148950e-003
2.707611e+003,1.235070e-003
2.709539e+003,1.265275e-003
2.711468e+003,1.306683e-003
2.713396e+003,1.346732e-003
2.715325e+003,1.392368e-003
2.717253e+003,1.432458e-003
2.719182e+003,1.544270e-003
2.721110e+003,1.615535e-003
2.723039e+003,1.680126e-003
2.724967e+003,1.713124e-003
2.726896e+003,1.746024e-003
2.728824e+003,1.821482e-003
2.730753e+003,1.841047e-003
2.732681e+003,1.906969e-003
2.734610e+003,1.930665e-003
2.736538e+003,1.943445e-003
2.738467e+003,1.992540e-003
2.740395e+003,2.052826e-003
2.742324e+003,2.189141e-003
2.744252e+003,2.312940e-003
2.746181e+003,2.359844e-003
2.748109e+003,2.404422e-003
2.750038e+003,2.536414e-003
2.751966e+003,2.648078e-003
2.753895e+003,2.725892e-003
2.755823e+003,2.828833e-003
2.757752e+003,2.995118e-003
2.759680e+003,3.143410e-003
2.761609e+003,3.348780e-003
2.763537e+003,3.645623e-003
2.765466e+003,3.808811e-003
2.767394e+003,3.971659e-003
2.769323e+003,4.256247e-003
2.771251e+003,4.672157e-003
2.773180e+003,5.042473e-003
2.775108e+003,5.411596e-003
2.777037e+003,5.899310e-003
2.778965e+003,6.375636e-003
2.780894e+003,6.879886e-003
2.782822e+003,7.383778e-003
2.784750e+003,7.957499e-003
2.786679e+003,8.554551e-003
2.788608e+003,9.103056e-003
2.790536e+003,9.740586e-003
2.792465e+003,1.037084e-002
2.794393e+003,1.100663e-002
2.796322e+003,1.167222e-002
2.798250e+003,1.221909e-002
2.800178e+003,1.265276e-002
2.802107e+003,1.321344e-002
2.804036e+003,1.378117e-002
2.805964e+003,1.418067e-002
2.807893e+003,1.453595e-002
2.809821e+003,1.484795e-002
2.811750e+003,1.513766e-002
2.813678e+003,1.520471e-002
2.815606e+003,1.517784e-002
2.817535e+003,1.519054e-002
2.819464e+003,1.517702e-002
2.821392e+003,1.501286e-002
2.823321e+003,1.473989e-002
2.825249e+003,1.445500e-002
2.827177e+003,1.406651e-002
2.829106e+003,1.360862e-002
2.831034e+003,1.313707e-002
2.832963e+003,1.274317e-002
2.834892e+003,1.255139e-002
2.836820e+003,1.222492e-002
2.838749e+003,1.155678e-002
2.840677e+003,1.091635e-002
2.842605e+003,1.060010e-002
2.844534e+003,1.016145e-002
2.846462e+003,9.518150e-003
2.848391e+003,9.113275e-003
2.850320e+003,8.851120e-003
2.852248e+003,8.612375e-003
2.854177e+003,8.348124e-003
2.856105e+003,8.079139e-003
2.858033e+003,7.911808e-003
2.859962e+003,7.905633e-003
2.861890e+003,7.788089e-003
2.863819e+003,7.568944e-003
2.865748e+003,7.501752e-003
2.867676e+003,7.475559e-003
2.869604e+003,7.519552e-003
2.871533e+003,7.579902e-003
2.873461e+003,7.720931e-003
2.875390e+003,7.731657e-003
2.877319e+003,7.802595e-003
2.879247e+003,8.050042e-003
2.881176e+003,8.180250e-003
2.883104e+003,8.163268e-003
2.885032e+003,8.200881e-003
2.886961e+003,8.197606e-003
2.888889e+003,8.199260e-003
2.890818e+003,8.114180e-003
2.892747e+003,7.968332e-003
2.894675e+003,7.838052e-003
2.896604e+003,7.857451e-003
2.898532e+003,7.906207e-003
2.900460e+003,7.893182e-003
2.902389e+003,7.856607e-003
2.904317e+003,7.866358e-003
2.906246e+003,7.928781e-003
2.908175e+003,7.961514e-003
2.910103e+003,7.887041e-003
2.912031e+003,7.807655e-003
2.913960e+003,7.659448e-003
2.915888e+003,7.573158e-003
2.917817e+003,7.690948e-003
2.919745e+003,8.042312e-003
2.921674e+003,8.293780e-003
2.923603e+003,8.451291e-003
2.925531e+003,8.652867e-003
2.927459e+003,8.789037e-003
2.929388e+003,8.756546e-003
2.931316e+003,8.752658e-003
2.933245e+003,8.880068e-003
2.935173e+003,8.926164e-003
2.937102e+003,8.897958e-003
2.939031e+003,8.980453e-003
2.940959e+003,8.827686e-003
2.942887e+003,8.630153e-003
2.944816e+003,8.501364e-003
2.946744e+003,8.271862e-003
2.948673e+003,7.969040e-003
2.950601e+003,7.453581e-003
2.952530e+003,7.017320e-003
2.954458e+003,6.642121e-003
2.956387e+003,6.189029e-003
2.958315e+003,5.771630e-003
2.960244e+003,5.200620e-003
2.962172e+003,4.600824e-003
2.964101e+003,4.127176e-003
2.966029e+003,3.697149e-003
2.967958e+003,3.244480e-003
2.969886e+003,2.780044e-003
2.971815e+003,2.405921e-003
2.973743e+003,2.054058e-003
2.975672e+003,1.713024e-003
2.977600e+003,1.422552e-003
2.979529e+003,1.105764e-003
2.981457e+003,8.965379e-004
2.983386e+003,7.065614e-004
2.985314e+003,3.624388e-004
2.987243e+003,2.038885e-004
2.989171e+003,1.606635e-004
2.991100e+003,-1.715342e-004
2.993028e+003,-4.080858e-004
2.994957e+003,-3.897133e-004
2.996885e+003,-4.094100e-004
2.998814e+003,-5.691679e-004
3.000742e+003,-6.934055e-004
3.002671e+003,-8.029565e-004
3.004599e+003,-8.799102e-004
3.006528e+003,-8.152595e-004
3.008456e+003,-8.969394e-004
3.010385e+003,-9.960259e-004
3.012313e+003,-1.094264e-003
3.014242e+003,-1.097767e-003
3.016170e+003,-1.081935e-003
3.018099e+003,-1.077242e-003
3.020027e+003,-1.160095e-003
3.021956e+003,-1.166242e-003
3.023884e+003,-1.251391e-003
3.025813e+003,-1.369654e-003
3.027741e+003,-1.489106e-003
3.029670e+003,-1.485374e-003
3.031598e+003,-1.418865e-003
3.033527e+003,-1.518295e-003
3.035455e+003,-1.523611e-003
3.037384e+003,-1.493068e-003
3.039312e+003,-1.509677e-003
3.041241e+003,-1.636749e-003
3.043169e+003,-1.696987e-003
3.045098e+003,-1.792360e-003
3.047026e+003,-1.825356e-003
3.048955e+003,-1.795165e-003
3.050883e+003,-1.893717e-003
3.052812e+003,-1.972588e-003
3.054740e+003,-1.969653e-003
3.056669e+003,-1.904900e-003
3.058597e+003,-2.046004e-003
3.060526e+003,-2.234830e-003
3.062454e+003,-2.207832e-003
3.064383e+003,-2.236874e-003
3.066311e+003,-2.297984e-003
3.068240e+003,-2.224611e-003
3.070168e+003,-2.342213e-003
3.072097e+003,-2.537927e-003
3.074025e+003,-2.519513e-003
3.075954e+003,-2.502876e-003
3.077882e+003,-2.523367e-003
3.079811e+003,-2.499911e-003
3.081739e+003,-2.576400e-003
3.083668e+003,-2.716035e-003
3.085596e+003,-2.797951e-003
3.087525e+003,-2.854276e-003
3.089453e+003,-2.851642e-003
3.091382e+003,-2.901114e-003
3.093310e+003,-2.754822e-003
3.095239e+003,-2.708165e-003
3.097167e+003,-2.852992e-003
3.099096e+003,-2.893544e-003
3.101024e+003,-2.881530e-003
3.102953e+003,-2.970786e-003
3.104881e+003,-3.113814e-003
3.106810e+003,-3.117926e-003
3.108738e+003,-3.006523e-003
3.110667e+003,-2.989708e-003
3.112595e+003,-3.041434e-003
3.114524e+003,-3.073513e-003
3.116452e+003,-3.140066e-003
3.118381e+003,-3.165888e-003
3.120309e+003,-3.150066e-003
3.122238e+003,-3.102761e-003
3.124166e+003,-3.084765e-003
3.126095e+003,-3.079271e-003
3.128023e+003,-3.129638e-003
3.129952e+003,-3.248968e-003
3.131880e+003,-3.352320e-003
3.133809e+003,-3.340089e-003
3.135737e+003,-3.241273e-003
3.137666e+003,-3.118584e-003
3.139594e+003,-3.156184e-003
3.141523e+003,-3.234169e-003
3.143451e+003,-3.217856e-003
3.145380e+003,-3.256631e-003
3.147308e+003,-3.410578e-003
3.149237e+003,-3.331441e-003
3.151165e+003,-3.197431e-003
3.153094e+003,-3.140033e-003
3.155022e+003,-3.194964e-003
3.156951e+003,-3.305859e-003
3.158879e+003,-3.272811e-003
3.160808e+003,-3.143980e-003
3.162736e+003,-3.123782e-003
3.164665e+003,-3.229861e-003
3.166593e+003,-3.283268e-003
3.168522e+003,-3.310496e-003
3.170450e+003,-3.237984e-003
3.172379e+003,-3.239332e-003
3.174307e+003,-3.342226e-003
3.176236e+003,-3.303295e-003
3.178164e+003,-3.231143e-003
3.180093e+003,-3.213120e-003
3.182021e+003,-3.174374e-003
3.183950e+003,-3.104932e-003
3.185878e+003,-3.170295e-003
3.187807e+003,-3.143322e-003
3.189735e+003,-3.059892e-003
3.191664e+003,-3.160690e-003
3.193592e+003,-3.218547e-003
3.195521e+003,-3.155000e-003
3.197449e+003,-3.180689e-003
3.199378e+003,-3.205259e-003
3.201306e+003,-3.200819e-003
3.203235e+003,-3.151644e-003
3.205163e+003,-3.105886e-003
3.207092e+003,-3.135395e-003
3.209020e+003,-3.016230e-003
3.210948e+003,-2.923758e-003
3.212877e+003,-2.951140e-003
3.214806e+003,-2.984015e-003
3.216734e+003,-2.923890e-003
3.218663e+003,-2.844071e-003
3.220591e+003,-2.765588e-003
3.222520e+003,-2.747216e-003
3.224448e+003,-2.738228e-003
3.226376e+003,-2.729996e-003
3.228305e+003,-2.601202e-003
3.230234e+003,-2.464232e-003
3.232162e+003,-2.406769e-003
3.234091e+003,-2.332261e-003
3.236019e+003,-2.275506e-003
3.237948e+003,-2.293172e-003
3.239876e+003,-2.116440e-003
3.241804e+003,-1.901700e-003
3.243733e+003,-1.825917e-003
3.245662e+003,-1.791040e-003
3.247590e+003,-1.743290e-003
3.249519e+003,-1.768667e-003
3.251447e+003,-1.672595e-003
3.253375e+003,-1.575809e-003
3.255304e+003,-1.466387e-003
3.257232e+003,-1.334343e-003
3.259161e+003,-1.178898e-003
3.261090e+003,-9.631318e-004
3.263018e+003,-1.030504e-003
3.264947e+003,-1.273890e-003
3.266875e+003,-1.401724e-003
3.268803e+003,-1.164854e-003
3.270732e+003,-9.991995e-004
3.272660e+003,-1.060352e-003
3.274589e+003,-1.048883e-003
3.276518e+003,-9.098348e-004
3.278446e+003,-8.355651e-004
3.280375e+003,-8.041140e-004
3.282303e+003,-8.918802e-004
3.284231e+003,-9.215395e-004
3.286160e+003,-9.559906e-004
3.288088e+003,-1.050800e-003
3.290017e+003,-1.139574e-003
3.291946e+003,-1.063426e-003
3.293874e+003,-9.647848e-004
3.295802e+003,-1.039264e-003
3.297731e+003,-1.187324e-003
3.299659e+003,-1.336094e-003
3.301588e+003,-1.401988e-003
3.303516e+003,-1.478572e-003
3.305445e+003,-1.605587e-003
3.307374e+003,-1.632391e-003
3.309302e+003,-1.706987e-003
3.311230e+003,-1.886822e-003
3.313159e+003,-2.116143e-003
3.315087e+003,-2.282460e-003
3.317016e+003,-2.170282e-003
3.318944e+003,-2.199557e-003
3.320873e+003,-2.354011e-003
3.322802e+003,-2.487755e-003
3.324730e+003,-2.774379e-003
3.326658e+003,-2.937943e-003
3.328587e+003,-2.956965e-003
3.330515e+003,-3.094273e-003
3.332444e+003,-3.251797e-003
3.334372e+003,-3.250613e-003
3.336301e+003,-3.236340e-003
3.338229e+003,-3.285636e-003
3.340158e+003,-3.332888e-003
3.342086e+003,-3.307503e-003
3.344015e+003,-3.398382e-003
3.345943e+003,-3.451407e-003
3.347872e+003,-3.511328e-003
3.349800e+003,-3.638144e-003
3.351729e+003,-3.769423e-003
3.353657e+003,-3.948144e-003
3.355586e+003,-4.064854e-003
3.357514e+003,-4.056122e-003
3.359443e+003,-4.098958e-003
3.361371e+003,-4.280397e-003
3.363300e+003,-4.242993e-003
3.365229e+003,-4.281677e-003
3.367157e+003,-4.478715e-003
3.369085e+003,-4.705329e-003
3.371014e+003,-4.868266e-003
3.372942e+003,-4.911480e-003
3.374871e+003,-4.991083e-003
3.376799e+003,-5.005757e-003
3.378728e+003,-5.167566e-003
3.380656e+003,-5.329250e-003
3.382585e+003,-5.470914e-003
3.384513e+003,-5.498888e-003
3.386442e+003,-5.489008e-003
3.388370e+003,-5.611388e-003
3.390299e+003,-5.691713e-003
3.392227e+003,-5.609361e-003
3.394156e+003,-5.597192e-003
3.396084e+003,-5.647562e-003
3.398013e+003,-5.873763e-003
3.399941e+003,-6.014434e-003
3.401870e+003,-6.042438e-003
3.403798e+003,-6.153164e-003
3.405727e+003,-6.116999e-003
3.407655e+003,-6.005806e-003
3.409584e+003,-6.026590e-003
3.411512e+003,-6.105629e-003
3.413441e+003,-6.268401e-003
3.415369e+003,-6.275129e-003
3.417298e+003,-6.242763e-003
3.419226e+003,-6.232964e-003
3.421155e+003,-6.173875e-003
3.423083e+003,-6.188019e-003
3.425012e+003,-6.257264e-003
3.426940e+003,-6.298642e-003
3.428869e+003,-6.225060e-003
3.430797e+003,-6.226693e-003
3.432726e+003,-6.234760e-003
3.434654e+003,-6.291196e-003
3.436583e+003,-6.433690e-003
3.438511e+003,-6.350335e-003
3.440440e+003,-6.224080e-003
3.442368e+003,-6.368229e-003
3.444297e+003,-6.453278e-003
3.446225e+003,-6.441493e-003
3.448154e+003,-6.364506e-003
3.450082e+003,-6.487979e-003
3.452011e+003,-6.608120e-003
3.453939e+003,-6.498718e-003
3.455868e+003,-6.546862e-003
3.457796e+003,-6.720268e-003
3.459725e+003,-6.827722e-003
3.461653e+003,-6.655697e-003
3.463582e+003,-6.457914e-003
3.465510e+003,-6.604041e-003
3.467439e+003,-6.672632e-003
3.469367e+003,-6.832680e-003
3.471296e+003,-6.861349e-003
3.473224e+003,-6.855608e-003
3.475153e+003,-6.840769e-003
3.477081e+003,-6.745715e-003
3.479010e+003,-6.849803e-003
3.480938e+003,-7.065762e-003
3.482867e+003,-7.158465e-003
3.484795e+003,-6.931628e-003
3.486724e+003,-6.838877e-003
3.488652e+003,-6.939976e-003
3.490581e+003,-6.880428e-003
3.492509e+003,-6.975094e-003
3.494438e+003,-7.106412e-003
3.496366e+003,-7.074173e-003
3.498295e+003,-6.972355e-003
3.500223e+003,-6.923312e-003
3.502152e+003,-6.905507e-003
3.504080e+003,-6.917377e-003
3.506009e+003,-6.959671e-003
3.507937e+003,-7.023805e-003
3.509866e+003,-7.069380e-003
3.511794e+003,-7.107520e-003
3.513723e+003,-7.130402e-003
3.515651e+003,-7.170524e-003
3.517580e+003,-7.071989e-003
3.519508e+003,-7.061198e-003
3.521437e+003,-7.162441e-003
3.523365e+003,-7.151751e-003
3.525294e+003,-7.170621e-003
3.527222e+003,-7.239514e-003
3.529151e+003,-7.244174e-003
3.531079e+003,-7.241567e-003
3.533008e+003,-7.129750e-003
3.534936e+003,-7.053635e-003
3.536865e+003,-7.017838e-003
3.538793e+003,-7.174337e-003
3.540722e+003,-7.388832e-003
3.542650e+003,-7.423230e-003
3.544579e+003,-7.137801e-003
3.546507e+003,-6.738276e-003
3.548436e+003,-6.723954e-003
3.550364e+003,-6.819469e-003
3.552293e+003,-6.809586e-003
3.554221e+003,-6.873579e-003
3.556150e+003,-6.989017e-003
3.558078e+003,-6.910268e-003
3.560007e+003,-6.918551e-003
3.561935e+003,-7.244370e-003
3.563864e+003,-7.331365e-003
3.565792e+003,-7.153869e-003
3.567721e+003,-7.151849e-003
3.569649e+003,-7.198845e-003
3.571578e+003,-7.121797e-003
3.573506e+003,-7.007275e-003
3.575435e+003,-7.037432e-003
3.577363e+003,-7.146536e-003
3.579292e+003,-7.171958e-003
3.581220e+003,-7.139756e-003
3.583149e+003,-7.203733e-003
3.585077e+003,-7.115115e-003
3.587006e+003,-6.933095e-003
3.588934e+003,-6.923801e-003
3.590863e+003,-6.990386e-003
3.592791e+003,-7.023805e-003
3.594720e+003,-7.089363e-003
3.596648e+003,-7.131673e-003
3.598577e+003,-7.264084e-003
3.600505e+003,-7.208687e-003
3.602434e+003,-7.070359e-003
3.604362e+003,-7.151229e-003
3.606291e+003,-7.166091e-003
3.608219e+003,-7.132031e-003
3.610148e+003,-7.139724e-003
3.612076e+003,-7.041932e-003
3.614005e+003,-7.064197e-003
3.615933e+003,-7.116907e-003
3.617862e+003,-7.063676e-003
3.619790e+003,-6.993908e-003
3.621719e+003,-7.056080e-003
3.623647e+003,-7.272002e-003
3.625576e+003,-7.248182e-003
3.627504e+003,-6.867741e-003
3.629433e+003,-6.712633e-003
3.631361e+003,-7.133205e-003
3.633290e+003,-7.220028e-003
3.635218e+003,-7.178574e-003
3.637146e+003,-7.180660e-003
3.639075e+003,-7.145623e-003
3.641004e+003,-7.202625e-003
3.642932e+003,-7.335959e-003
3.644861e+003,-7.460198e-003
3.646789e+003,-7.284318e-003
3.648718e+003,-7.001537e-003
3.650646e+003,-7.099860e-003
3.652574e+003,-7.296178e-003
3.654503e+003,-7.251701e-003
3.656432e+003,-7.179128e-003
3.658360e+003,-7.330746e-003
3.660289e+003,-7.393001e-003
3.662217e+003,-7.461110e-003
3.664146e+003,-7.721491e-003
3.666074e+003,-7.850045e-003
3.668002e+003,-7.645903e-003
3.669931e+003,-7.449873e-003
3.671860e+003,-7.574633e-003
3.673788e+003,-7.669148e-003
3.675717e+003,-7.453847e-003
3.677645e+003,-7.468438e-003
3.679573e+003,-7.516735e-003
3.681502e+003,-7.487686e-003
3.683430e+003,-7.519666e-003
3.685359e+003,-7.476645e-003
3.687288e+003,-7.129750e-003
3.689216e+003,-7.056993e-003
3.691145e+003,-7.054320e-003
3.693073e+003,-7.104880e-003
3.695001e+003,-7.258251e-003
3.696930e+003,-7.125513e-003
3.698858e+003,-6.976366e-003
3.700787e+003,-7.034987e-003
3.702716e+003,-7.090113e-003
3.704644e+003,-7.079258e-003
3.706573e+003,-7.037139e-003
3.708501e+003,-7.054678e-003
3.710429e+003,-7.064849e-003
3.712358e+003,-7.042388e-003
3.714286e+003,-7.351727e-003
3.716215e+003,-7.353812e-003
3.718144e+003,-7.024359e-003
3.720072e+003,-6.980245e-003
3.722000e+003,-6.832582e-003
3.723929e+003,-6.709991e-003
3.725857e+003,-6.800322e-003
3.727786e+003,-6.966942e-003
3.729714e+003,-7.032966e-003
3.731643e+003,-6.984615e-003
3.733572e+003,-6.818100e-003
3.735500e+003,-6.775988e-003
3.737428e+003,-6.951030e-003
3.739357e+003,-7.004145e-003
3.741285e+003,-6.824721e-003
3.743214e+003,-6.402838e-003
3.745142e+003,-6.312325e-003
3.747071e+003,-6.752761e-003
3.749000e+003,-6.537691e-003
3.750928e+003,-6.350988e-003
3.752856e+003,-6.372833e-003
3.754785e+003,-6.430752e-003
3.756713e+003,-6.550942e-003
3.758642e+003,-6.605314e-003
3.760570e+003,-6.277382e-003
3.762499e+003,-6.283228e-003
3.764427e+003,-6.597449e-003
3.766356e+003,-6.645288e-003
3.768284e+003,-6.630441e-003
3.770213e+003,-6.441232e-003
3.772141e+003,-6.420338e-003
3.774070e+003,-6.577672e-003
3.775998e+003,-6.454290e-003
3.777927e+003,-6.443452e-003
3.779855e+003,-6.349584e-003
3.781784e+003,-6.320489e-003
3.783712e+003,-6.387819e-003
3.785641e+003,-6.267225e-003
3.787569e+003,-6.235218e-003
3.789498e+003,-6.571797e-003
3.791426e+003,-6.771714e-003
3.793355e+003,-6.545100e-003
3.795283e+003,-6.460133e-003
3.797212e+003,-6.341813e-003
3.799140e+003,-6.222969e-003
3.801069e+003,-6.189751e-003
3.802997e+003,-6.601593e-003
3.804926e+003,-6.723661e-003
3.806854e+003,-6.426965e-003
3.808783e+003,-6.400226e-003
3.810711e+003,-6.524145e-003
3.812640e+003,-6.527736e-003
3.814568e+003,-6.369175e-003
3.816497e+003,-5.931979e-003
3.818425e+003,-5.977015e-003
3.820354e+003,-5.997702e-003
3.822282e+003,-6.029694e-003
3.824211e+003,-6.416061e-003
3.826139e+003,-6.505704e-003
3.828068e+003,-6.320555e-003
3.829996e+003,-6.183021e-003
3.831925e+003,-6.183707e-003
3.833853e+003,-6.354482e-003
3.835782e+003,-6.295475e-003
3.837710e+003,-6.002898e-003
3.839639e+003,-6.221532e-003
3.841567e+003,-6.464769e-003
3.843496e+003,-6.426867e-003
3.845424e+003,-6.456738e-003
3.847353e+003,-6.620521e-003
3.849281e+003,-6.482723e-003
3.851210e+003,-5.931979e-003
3.853138e+003,-5.396275e-003
3.855067e+003,-5.659173e-003
3.856995e+003,-6.091482e-003
3.858924e+003,-6.172405e-003
3.860852e+003,-6.022146e-003
3.862781e+003,-5.718921e-003
3.864709e+003,-5.747075e-003
3.866638e+003,-6.131929e-003
3.868566e+003,-6.093476e-003
3.870495e+003,-5.971950e-003
3.872423e+003,-6.051882e-003
3.874352e+003,-6.014042e-003
3.876280e+003,-6.148754e-003
3.878209e+003,-6.211733e-003
3.880137e+003,-6.112981e-003
3.882066e+003,-6.164728e-003
3.883994e+003,-6.118992e-003
3.885923e+003,-5.928710e-003
3.887851e+003,-6.132027e-003
3.889780e+003,-6.108341e-003
3.891708e+003,-5.880072e-003
3.893637e+003,-6.003062e-003
3.895565e+003,-6.247009e-003
3.897494e+003,-6.276304e-003
3.899422e+003,-6.094586e-003
3.901351e+003,-6.259191e-003
3.903279e+003,-6.312162e-003
3.905208e+003,-6.153817e-003
3.907136e+003,-6.276239e-003
3.909065e+003,-6.353796e-003
3.910993e+003,-6.338155e-003
3.912922e+003,-6.268695e-003
3.914850e+003,-6.034825e-003
3.916779e+003,-5.882164e-003
3.918707e+003,-5.978748e-003
3.920636e+003,-6.143396e-003
3.922564e+003,-6.112882e-003
3.924493e+003,-5.969760e-003
3.926421e+003,-6.069624e-003
3.928350e+003,-6.316113e-003
3.930278e+003,-6.340539e-003
3.932207e+003,-6.241489e-003
3.934135e+003,-6.232246e-003
3.936064e+003,-6.261771e-003
3.937992e+003,-6.159273e-003
3.939921e+003,-6.059789e-003
3.941849e+003,-5.995905e-003
3.943778e+003,-6.121606e-003
3.945706e+003,-6.143657e-003
3.947635e+003,-5.944529e-003
3.949563e+003,-5.904947e-003
3.951492e+003,-6.016623e-003
3.953420e+003,-6.116444e-003
3.955349e+003,-6.284404e-003
3.957277e+003,-6.317518e-003
3.959206e+003,-6.242502e-003
3.961134e+003,-6.103832e-003
3.963063e+003,-5.843100e-003
3.964991e+003,-5.862420e-003
3.966920e+003,-5.882066e-003
3.968848e+003,-5.667284e-003
3.970777e+003,-5.649623e-003
3.972705e+003,-5.724120e-003
3.974634e+003,-5.704435e-003
3.976562e+003,-5.744100e-003
3.978491e+003,-5.799030e-003
3.980419e+003,-5.863139e-003
3.982348e+003,-5.792720e-003
3.984276e+003,-5.782094e-003
3.986205e+003,-5.880955e-003
3.988133e+003,-5.816489e-003
3.990062e+003,-5.700216e-003
3.991990e+003,-5.691517e-003
3.993919e+003,-5.844539e-003
3.995847e+003,-5.975741e-003
3.997776e+003,-5.844833e-003
3.999704e+003,-5.862976e-003
4.001633e+003,0.000000e+000
