3.991989e+002,3.892584e-003
4.011274e+002,1.119944e-002
4.030559e+002,3.221013e-003
4.049844e+002,-4.013659e-004
4.069129e+002,1.949170e-003
4.088414e+002,9.106203e-003
4.107699e+002,4.463583e-003
4.126984e+002,-2.791762e-003
4.146269e+002,3.379934e-003
4.165554e+002,1.394483e-002
4.184839e+002,8.916019e-003
4.204124e+002,2.723025e-003
4.223409e+002,1.137522e-003
4.242694e+002,-2.504721e-003
4.261979e+002,1.673008e-003
4.281264e+002,2.850412e-003
4.300549e+002,-1.039809e-002
4.319834e+002,-5.983715e-003
4.339119e+002,8.505880e-004
4.358404e+002,-2.733849e-003
4.377689e+002,1.825408e-003
4.396974e+002,2.997287e-003
4.416259e+002,3.738134e-004
4.435544e+002,2.599509e-003
4.454829e+002,3.392791e-003
4.474114e+002,5.803160e-003
4.493399e+002,9.086308e-003
4.512684e+002,3.190838e-003
4.531969e+002,-1.817471e-003
4.551254e+002,-7.903556e-004
4.570539e+002,8.120125e-004
4.589824e+002,-2.532359e-004
4.609109e+002,-2.268913e-003
4.628394e+002,-1.066732e-003
4.647679e+002,1.615369e-003
4.666964e+002,2.760470e-003
4.686249e+002,3.074163e-003
4.705533e+002,3.010632e-003
4.724819e+002,2.061249e-003
4.744103e+002,1.884140e-003
4.763389e+002,3.237637e-003
4.782673e+002,2.336491e-003
4.801959e+002,1.944078e-004
4.821243e+002,1.691136e-003
4.840529e+002,2.392494e-003
4.859813e+002,2.540314e-003
4.879099e+002,1.606257e-003
4.898383e+002,1.533896e-003
4.917668e+002,2.488085e-004
4.936953e+002,-3.512775e-004
4.956238e+002,8.826262e-004
4.975523e+002,1.424446e-003
4.994808e+002,-6.650871e-004
5.014093e+002,-1.511988e-003
5.033378e+002,4.284024e-004
5.052663e+002,1.805976e-003
5.071948e+002,2.272835e-003
5.091233e+002,1.938453e-003
5.110518e+002,2.434475e-003
5.129803e+002,1.216828e-003
5.149088e+002,-7.635319e-004
5.168373e+002,1.149572e-004
5.187658e+002,1.935158e-003
5.206943e+002,2.201762e-003
5.226228e+002,1.212674e-003
5.245513e+002,2.368404e-004
5.264798e+002,4.334438e-004
5.284083e+002,2.065477e-003
5.303368e+002,2.275100e-003
5.322653e+002,7.008199e-004
5.341938e+002,-8.246279e-005
5.361223e+002,1.056305e-003
5.380508e+002,1.259261e-003
5.399792e+002,1.639881e-003
5.419078e+002,1.576027e-003
5.438363e+002,7.294950e-004
5.457648e+002,1.092377e-003
5.476932e+002,1.805849e-004
5.496218e+002,6.340849e-004
5.515503e+002,1.690438e-003
5.534788e+002,9.411311e-004
5.554072e+002,9.238753e-005
5.573358e+002,4.198286e-005
5.592643e+002,9.575019e-004
5.611927e+002,2.936369e-003
5.631212e+002,2.600909e-003
5.650497e+002,1.251985e-004
5.669783e+002,1.096544e-004
5.689067e+002,4.294828e-003
5.708352e+002,3.570616e-003
5.727637e+002,-4.979761e-005
5.746923e+002,1.554579e-003
5.766207e+002,-2.854210e-003
5.785492e+002,-3.952773e-003
5.804777e+002,5.082753e-004
5.824063e+002,-2.468811e-003
5.843347e+002,-2.527452e-003
5.862632e+002,4.937699e-003
5.881917e+002,5.682626e-003
5.901202e+002,4.251853e-004
5.920487e+002,-6.692556e-004
5.939772e+002,-1.813346e-003
5.959057e+002,-3.063182e-003
5.978342e+002,-7.355819e-004
5.997627e+002,5.290752e-004
6.016912e+002,4.811076e-004
6.036197e+002,-5.164844e-004
6.055482e+002,2.984083e-004
6.074767e+002,1.615585e-004
6.094052e+002,2.935011e-004
6.113337e+002,1.301166e-003
6.132622e+002,2.037080e-003
6.151907e+002,1.137323e-003
6.171192e+002,8.522148e-004
6.190477e+002,1.234139e-003
6.209762e+002,9.853636e-004
6.229047e+002,-4.859700e-004
6.248332e+002,3.376677e-004
6.267617e+002,1.076433e-003
6.286902e+002,2.437693e-004
6.306187e+002,-1.501706e-004
6.325472e+002,-4.930065e-005
6.344756e+002,5.964131e-007
6.364042e+002,6.594702e-004
6.383326e+002,9.013854e-004
6.402612e+002,4.453443e-005
6.421896e+002,-1.076723e-004
6.441182e+002,3.475163e-004
6.460466e+002,7.237077e-005
6.479752e+002,1.326558e-004
6.499036e+002,7.637481e-004
6.518322e+002,5.535254e-004
6.537606e+002,3.626709e-004
6.556891e+002,6.365404e-004
6.576177e+002,4.922531e-004
6.595461e+002,3.013924e-004
6.614746e+002,1.431958e-004
6.634031e+002,-1.878956e-004
6.653317e+002,-1.123612e-003
6.672601e+002,-1.410212e-003
6.691886e+002,-6.461630e-004
6.711171e+002,-4.340538e-006
6.730457e+002,2.535162e-004
6.749741e+002,3.794511e-004
6.769026e+002,1.573158e-004
6.788311e+002,5.508381e-004
6.807596e+002,-1.061154e-004
6.826881e+002,-1.103914e-003
6.846166e+002,-8.120184e-004
6.865451e+002,-4.252990e-004
6.884736e+002,-1.749456e-004
6.904021e+002,4.602562e-005
6.923306e+002,-1.900153e-004
6.942591e+002,-4.044114e-004
6.961876e+002,-3.289295e-004
6.981161e+002,-1.327147e-004
7.000446e+002,-4.565631e-005
7.019731e+002,3.220497e-004
7.039016e+002,7.629183e-004
7.058301e+002,4.871779e-004
7.077585e+002,-3.250328e-005
7.096871e+002,5.967851e-005
7.116156e+002,1.385887e-004
7.135441e+002,8.652159e-005
7.154725e+002,-9.178032e-006
7.174011e+002,2.237124e-004
7.193296e+002,6.723792e-004
7.212581e+002,3.878414e-004
7.231865e+002,2.888924e-004
7.251151e+002,6.545921e-004
7.270436e+002,1.662984e-004
7.289720e+002,5.119511e-005
7.309005e+002,-3.472053e-004
7.328290e+002,-2.660180e-004
7.347576e+002,1.291757e-004
7.366860e+002,3.217513e-004
7.386145e+002,5.787401e-004
7.405430e+002,4.574906e-004
7.424716e+002,-1.446722e-004
7.444000e+002,-6.137387e-004
7.463285e+002,-6.947287e-004
7.482570e+002,-2.658855e-004
7.501855e+002,1.406768e-004
7.521140e+002,4.380872e-004
7.540425e+002,7.246492e-004
7.559710e+002,9.085573e-004
7.578995e+002,1.730936e-004
7.598280e+002,-1.835569e-004
7.617565e+002,9.152586e-005
7.636850e+002,4.581540e-004
7.656135e+002,6.426129e-004
7.675420e+002,2.333926e-004
7.694705e+002,-1.752106e-004
7.713990e+002,-5.380285e-004
7.733275e+002,-2.053162e-004
7.752560e+002,-4.535813e-005
7.771844e+002,5.752450e-005
7.791130e+002,4.114545e-004
7.810415e+002,4.262466e-004
7.829700e+002,8.569308e-005
7.848984e+002,-8.574243e-005
7.868270e+002,1.077653e-004
7.887555e+002,2.230494e-004
7.906840e+002,4.876754e-004
7.926124e+002,2.506319e-004
7.945410e+002,3.449390e-005
7.964695e+002,-1.820003e-004
7.983979e+002,-2.443942e-004
8.003264e+002,3.399685e-005
8.022549e+002,-8.869077e-005
8.041835e+002,-6.157901e-004
8.061119e+002,-3.787557e-004
8.080404e+002,1.212723e-005
8.099689e+002,5.073118e-005
8.118975e+002,-1.244999e-004
8.138259e+002,-4.052104e-005
8.157545e+002,-3.091296e-005
8.176830e+002,1.548630e-004
8.196115e+002,2.837200e-004
8.215399e+002,2.614400e-004
8.234684e+002,4.787856e-004
8.253970e+002,4.488668e-004
8.273254e+002,5.544875e-004
8.292539e+002,8.995925e-004
8.311824e+002,4.528470e-004
8.331110e+002,2.215576e-004
8.350394e+002,4.853203e-004
8.369679e+002,1.179732e-004
8.388964e+002,-2.853891e-004
8.408250e+002,-1.195643e-004
8.427534e+002,-3.283459e-005
8.446819e+002,2.153766e-005
8.466104e+002,1.665636e-004
8.485389e+002,2.397247e-004
8.504674e+002,1.932807e-004
8.523959e+002,-1.421549e-004
8.543244e+002,-1.277461e-004
8.562529e+002,-2.561186e-005
8.581814e+002,1.271208e-004
8.601099e+002,4.755349e-004
8.620384e+002,5.651372e-004
8.639669e+002,4.028316e-004
8.658954e+002,-1.222805e-004
8.678239e+002,-3.405837e-004
8.697524e+002,-1.388426e-004
8.716809e+002,2.440345e-004
8.736094e+002,8.768824e-004
8.755378e+002,1.039697e-003
8.774664e+002,2.167175e-004
8.793949e+002,2.753526e-005
8.813234e+002,1.476372e-004
8.832518e+002,2.100543e-004
8.851804e+002,2.708890e-004
8.871089e+002,4.656834e-004
8.890374e+002,3.682421e-004
8.909658e+002,1.612270e-004
8.928943e+002,2.269612e-004
8.948229e+002,2.825264e-004
8.967513e+002,5.212297e-005
8.986798e+002,1.253310e-004
9.006083e+002,1.068373e-004
9.025369e+002,1.391853e-004
9.044653e+002,1.732945e-005
9.063938e+002,2.170334e-005
9.083223e+002,-3.094609e-005
9.102509e+002,-1.520917e-004
9.121793e+002,-2.605542e-004
9.141078e+002,-2.100853e-004
9.160364e+002,-6.450719e-005
9.179648e+002,2.204967e-004
9.198933e+002,3.027187e-004
9.218218e+002,8.367151e-005
9.237504e+002,-3.121114e-005
9.256788e+002,1.776679e-004
9.276073e+002,4.481702e-004
9.295358e+002,5.559141e-004
9.314644e+002,2.520575e-004
9.333928e+002,2.378018e-004
9.353213e+002,2.296796e-004
9.372498e+002,2.685681e-004
9.391783e+002,2.205962e-004
9.411068e+002,1.809827e-004
9.430353e+002,2.418792e-006
9.449637e+002,-7.958067e-005
9.468923e+002,1.292247e-005
9.488208e+002,5.493971e-005
9.507493e+002,8.957055e-005
9.526777e+002,5.897899e-006
9.546063e+002,-1.568945e-004
9.565348e+002,-3.840856e-004
9.584633e+002,-2.125691e-004
9.603917e+002,1.491034e-006
9.623203e+002,1.751156e-004
9.642488e+002,1.076870e-005
9.661772e+002,-2.610884e-005
9.681057e+002,1.749513e-005
9.700343e+002,-1.959105e-004
9.719628e+002,-1.900815e-004
9.738912e+002,3.111407e-004
9.758197e+002,4.250857e-004
9.777483e+002,1.210224e-004
9.796768e+002,7.654638e-005
9.816052e+002,2.617668e-005
9.835337e+002,1.040865e-004
9.854623e+002,2.277237e-004
9.873907e+002,2.101869e-004
9.893192e+002,4.278054e-004
9.912477e+002,3.541816e-004
9.931763e+002,2.610753e-004
9.951047e+002,2.310388e-004
9.970332e+002,8.032434e-005
9.989617e+002,1.098201e-004
1.000890e+003,7.459113e-005
1.002819e+003,-1.898539e-005
1.004747e+003,1.583836e-005
1.006676e+003,1.031254e-004
1.008604e+003,1.275185e-004
1.010533e+003,1.776016e-004
1.012461e+003,4.523032e-005
1.014390e+003,-1.046247e-004
1.016318e+003,-1.033770e-005
1.018247e+003,5.633152e-005
1.020175e+003,-1.064797e-004
1.022104e+003,-2.061111e-004
1.024032e+003,-1.171462e-004
1.025961e+003,-1.282098e-004
1.027889e+003,-5.658925e-005
1.029818e+003,-2.998527e-005
1.031746e+003,8.218020e-005
1.033675e+003,3.419785e-004
1.035603e+003,1.281482e-004
1.037532e+003,4.953822e-005
1.039460e+003,3.539495e-004
1.041389e+003,3.786220e-004
1.043317e+003,9.798841e-005
1.045246e+003,-2.353867e-004
1.047174e+003,-4.006707e-004
1.049103e+003,-2.562493e-004
1.051031e+003,8.039062e-005
1.052960e+003,2.408850e-004
1.054888e+003,-1.434680e-005
1.056817e+003,-3.939458e-005
1.058745e+003,-1.442085e-004
1.060674e+003,-7.977944e-005
1.062602e+003,-1.860740e-004
1.064531e+003,-8.935331e-005
1.066459e+003,1.825724e-005
1.068388e+003,-6.477222e-005
1.070316e+003,-8.199901e-005
1.072245e+003,-3.661157e-005
1.074173e+003,-1.411943e-004
1.076102e+003,-2.307504e-004
1.078030e+003,-1.154237e-004
1.079959e+003,2.631971e-004
1.081887e+003,2.414154e-004
1.083816e+003,1.197298e-004
1.085744e+003,-2.799736e-005
1.087673e+003,1.324238e-004
1.089601e+003,3.837623e-004
1.091530e+003,3.251335e-004
1.093458e+003,-7.033787e-005
1.095387e+003,-2.114431e-004
1.097315e+003,-6.169120e-005
1.099244e+003,6.766498e-005
1.101172e+003,1.669614e-004
1.103101e+003,2.302763e-004
1.105029e+003,8.940484e-005
1.106958e+003,1.385025e-005
1.108886e+003,7.485625e-005
1.110815e+003,7.505508e-005
1.112743e+003,-1.033770e-005
1.114672e+003,-1.722936e-005
1.116600e+003,-1.641813e-004
1.118529e+003,-1.267855e-004
1.120457e+003,-3.790369e-005
1.122386e+003,1.981461e-005
1.124314e+003,-1.194649e-004
1.126243e+003,5.414440e-005
1.128171e+003,1.501894e-004
1.130100e+003,3.412940e-005
1.132028e+003,9.835297e-005
1.133957e+003,7.140973e-005
1.135885e+003,-1.073079e-004
1.137814e+003,-2.140594e-004
1.139742e+003,-3.187981e-004
1.141671e+003,-1.422874e-004
1.143599e+003,1.995127e-004
1.145528e+003,3.109086e-004
1.147456e+003,1.626855e-004
1.149385e+003,1.855546e-005
1.151313e+003,-3.001840e-005
1.153242e+003,1.375084e-005
1.155170e+003,8.864260e-005
1.157099e+003,7.939641e-005
1.159027e+003,1.877781e-004
1.160956e+003,2.170822e-004
1.162884e+003,2.028277e-004
1.164813e+003,1.206247e-004
1.166741e+003,1.120075e-004
1.168670e+003,2.502341e-004
1.170598e+003,3.258961e-004
1.172526e+003,2.709221e-004
1.174455e+003,2.730331e-005
1.176384e+003,-9.339482e-005
1.178312e+003,6.335691e-005
1.180240e+003,2.160877e-004
1.182169e+003,2.451988e-005
1.184098e+003,-2.231998e-004
1.186026e+003,-3.033687e-004
1.187954e+003,-1.763036e-004
1.189883e+003,-9.359358e-005
1.191812e+003,2.306190e-005
1.193740e+003,-7.507524e-005
1.195668e+003,-1.108192e-004
1.197597e+003,9.331548e-005
1.199526e+003,1.875460e-004
1.201454e+003,3.876856e-005
1.203382e+003,-4.721344e-005
1.205311e+003,8.211391e-005
1.207240e+003,1.315621e-004
1.209168e+003,4.314266e-005
1.211096e+003,8.453316e-005
1.213025e+003,1.604315e-004
1.214953e+003,1.237401e-004
1.216882e+003,-5.473398e-005
1.218810e+003,1.646793e-005
1.220739e+003,1.271871e-004
1.222667e+003,-1.365101e-005
1.224596e+003,-1.007489e-004
1.226524e+003,9.480683e-005
1.228453e+003,2.457916e-004
1.230381e+003,2.276905e-004
1.232310e+003,1.508192e-004
1.234238e+003,2.058111e-004
1.236167e+003,1.491951e-004
1.238095e+003,9.178226e-006
1.240024e+003,2.123944e-005
1.241952e+003,4.758309e-005
1.243881e+003,1.581776e-004
1.245809e+003,1.510512e-004
1.247738e+003,1.663647e-004
1.249666e+003,2.370393e-004
1.251595e+003,1.950708e-004
1.253523e+003,2.537152e-004
1.255452e+003,1.802866e-004
1.257380e+003,3.581937e-005
1.259309e+003,1.292230e-006
1.261237e+003,1.960321e-004
1.263166e+003,3.569671e-004
1.265094e+003,3.487100e-004
1.267023e+003,1.789275e-004
1.268951e+003,7.459113e-005
1.270880e+003,1.424766e-006
1.272808e+003,-1.111505e-004
1.274737e+003,-1.252449e-005
1.276665e+003,1.865516e-004
1.278594e+003,3.259293e-004
1.280522e+003,2.514939e-004
1.282451e+003,9.082990e-005
1.284379e+003,7.724232e-005
1.286308e+003,8.131855e-005
1.288236e+003,2.040542e-004
1.290165e+003,2.968499e-004
1.292093e+003,2.650538e-004
1.294022e+003,2.700601e-004
1.295950e+003,1.643428e-004
1.297879e+003,1.884410e-004
1.299807e+003,2.743702e-004
1.301736e+003,1.258282e-004
1.303664e+003,1.656024e-004
1.305593e+003,2.449959e-004
1.307521e+003,1.729941e-004
1.309450e+003,2.232483e-004
1.311378e+003,2.296465e-004
1.313307e+003,1.828058e-004
1.315235e+003,2.909480e-004
1.317164e+003,1.944741e-004
1.319092e+003,6.626809e-008
1.321021e+003,6.766498e-005
1.322949e+003,9.450856e-005
1.324878e+003,5.129452e-005
1.326806e+003,4.542914e-005
1.328735e+003,1.878741e-005
1.330663e+003,1.443227e-004
1.332592e+003,3.976103e-006
1.334520e+003,-1.284417e-004
1.336449e+003,-7.951442e-005
1.338377e+003,-1.235724e-004
1.340306e+003,-6.785321e-005
1.342234e+003,6.166683e-005
1.344163e+003,8.267730e-005
1.346091e+003,5.457519e-005
1.348020e+003,1.150235e-004
1.349948e+003,8.002608e-005
1.351877e+003,3.909993e-005
1.353805e+003,1.139826e-005
1.355734e+003,9.271894e-005
1.357662e+003,1.495928e-004
1.359591e+003,5.752450e-005
1.361519e+003,-1.925986e-004
1.363448e+003,-2.400560e-004
1.365376e+003,8.761524e-005
1.367305e+003,1.596029e-004
1.369233e+003,1.257619e-004
1.371162e+003,1.484430e-005
1.373090e+003,-1.408631e-004
1.375019e+003,-5.264680e-005
1.376947e+003,1.067379e-004
1.378876e+003,1.022637e-004
1.380804e+003,1.465434e-004
1.382733e+003,7.071380e-005
1.384661e+003,3.386431e-005
1.386590e+003,-2.820116e-004
1.388518e+003,-3.963342e-004
1.390447e+003,-1.251624e-004
1.392375e+003,-6.626303e-005
1.394304e+003,-2.794951e-004
1.396232e+003,-1.977652e-004
1.398161e+003,-2.530041e-004
1.400089e+003,-2.421754e-004
1.402018e+003,-2.716906e-005
1.403946e+003,-7.222620e-005
1.405875e+003,3.091516e-005
1.407803e+003,1.429969e-004
1.409732e+003,2.336013e-005
1.411660e+003,-8.018364e-006
1.413589e+003,-3.021719e-005
1.415517e+003,-2.420761e-004
1.417446e+003,-6.441448e-004
1.419374e+003,-7.341927e-004
1.421303e+003,-1.429830e-004
1.423231e+003,3.247148e-006
1.425160e+003,1.029597e-004
1.427088e+003,1.971923e-004
1.429017e+003,5.049921e-005
1.430945e+003,1.868800e-005
1.432874e+003,1.407099e-004
1.434802e+003,-1.934928e-004
1.436731e+003,-6.857306e-004
1.438659e+003,-9.395797e-005
1.440588e+003,1.717014e-004
1.442516e+003,1.688507e-004
1.444445e+003,1.471732e-004
1.446373e+003,-6.129365e-005
1.448302e+003,-2.100521e-004
1.450230e+003,-9.675032e-006
1.452159e+003,-8.090579e-005
1.454087e+003,-5.097661e-004
1.456016e+003,-1.610736e-003
1.457944e+003,-1.509644e-003
1.459873e+003,-3.842511e-004
1.461801e+003,-6.039915e-005
1.463730e+003,-3.650830e-004
1.465658e+003,-2.991305e-004
1.467587e+003,-2.915786e-006
1.469515e+003,-2.594945e-004
1.471444e+003,-1.040553e-003
1.473372e+003,-1.171199e-003
1.475301e+003,-7.307194e-004
1.477229e+003,-4.402607e-004
1.479158e+003,-1.428505e-004
1.481086e+003,-4.976448e-005
1.483015e+003,1.328695e-005
1.484943e+003,-1.066454e-004
1.486872e+003,-4.295360e-004
1.488800e+003,-7.760344e-004
1.490729e+003,-6.074851e-004
1.492657e+003,-1.477858e-004
1.494586e+003,-4.015645e-004
1.496514e+003,-8.402280e-004
1.498443e+003,-5.667853e-004
1.500371e+003,-2.009777e-004
1.502300e+003,-9.296416e-005
1.504228e+003,-9.587017e-004
1.506157e+003,-2.294194e-003
1.508085e+003,-1.747712e-003
1.510014e+003,-7.624404e-004
1.511942e+003,-4.796485e-004
1.513871e+003,-4.201351e-004
1.515799e+003,-8.108608e-004
1.517728e+003,-8.950546e-004
1.519656e+003,-1.192182e-003
1.521585e+003,-1.743125e-003
1.523513e+003,-1.124801e-003
1.525442e+003,-8.309683e-004
1.527370e+003,-5.786979e-004
1.529299e+003,-2.846606e-004
1.531227e+003,-4.417502e-004
1.533156e+003,-9.469648e-004
1.535084e+003,-5.950109e-004
1.537013e+003,-8.350029e-004
1.538941e+003,-2.217820e-003
1.540870e+003,-2.425715e-003
1.542798e+003,-1.460674e-003
1.544727e+003,-8.588791e-004
1.546655e+003,-3.392925e-004
1.548584e+003,-2.009446e-004
1.550512e+003,-2.741639e-004
1.552441e+003,-4.641917e-004
1.554369e+003,-8.156894e-004
1.556298e+003,-1.361066e-003
1.558226e+003,-2.842327e-003
1.560155e+003,-2.217326e-003
1.562083e+003,-5.711864e-004
1.564012e+003,-1.680565e-004
1.565940e+003,-1.765685e-004
1.567869e+003,-5.289278e-004
1.569797e+003,-8.239903e-004
1.571726e+003,-2.749255e-004
1.573654e+003,-2.940644e-004
1.575583e+003,-1.004852e-003
1.577511e+003,-7.330019e-004
1.579440e+003,-1.046247e-004
1.581368e+003,3.068320e-005
1.583297e+003,-2.431970e-005
1.585225e+003,-2.872626e-005
1.587154e+003,8.512969e-005
1.589082e+003,1.453834e-004
1.591010e+003,1.469412e-004
1.592939e+003,-2.100647e-005
1.594868e+003,-5.559536e-005
1.596796e+003,6.461619e-005
1.598724e+003,1.372629e-004
1.600653e+003,5.331594e-005
1.602582e+003,-2.945516e-005
1.604510e+003,-3.054851e-005
1.606438e+003,3.933188e-005
1.608367e+003,4.132011e-005
1.610296e+003,2.856248e-005
1.612224e+003,1.355203e-005
1.614152e+003,-3.688902e-004
1.616081e+003,-1.078829e-003
1.618010e+003,-6.410679e-004
1.619938e+003,-1.054860e-004
1.621866e+003,-4.081189e-004
1.623795e+003,-5.093028e-004
1.625724e+003,-2.716142e-004
1.627652e+003,-3.100901e-004
1.629580e+003,-5.165290e-005
1.631509e+003,-1.166303e-005
1.633438e+003,-7.075640e-004
1.635366e+003,-1.531964e-003
1.637294e+003,-8.732306e-004
1.639223e+003,-1.351658e-004
1.641151e+003,2.611041e-005
1.643080e+003,-1.154899e-004
1.645008e+003,-8.432704e-004
1.646937e+003,-1.255884e-003
1.648865e+003,-6.707112e-004
1.650794e+003,-1.116572e-003
1.652722e+003,-2.614310e-003
1.654651e+003,-1.504790e-003
1.656579e+003,-2.189277e-004
1.658508e+003,-3.863257e-005
1.660436e+003,-2.570110e-004
1.662365e+003,-5.308472e-004
1.664293e+003,-2.715479e-004
1.666222e+003,-1.776284e-004
1.668150e+003,-6.832825e-004
1.670079e+003,-8.408894e-004
1.672007e+003,-4.159974e-004
1.673936e+003,-5.785324e-004
1.675864e+003,-6.651863e-004
1.677793e+003,-1.829607e-004
1.679721e+003,-2.241271e-004
1.681650e+003,-7.505660e-004
1.683578e+003,-1.781966e-003
1.685507e+003,-1.317728e-003
1.687435e+003,-4.743859e-004
1.689364e+003,-2.583686e-004
1.691292e+003,-3.276833e-005
1.693221e+003,-2.728725e-004
1.695149e+003,-1.253439e-003
1.697078e+003,-1.337580e-003
1.699006e+003,-1.874384e-003
1.700935e+003,-1.996897e-003
1.702863e+003,-7.912486e-004
1.704792e+003,-6.273373e-004
1.706720e+003,-4.124223e-004
1.708649e+003,-2.247894e-004
1.710577e+003,-2.442286e-004
1.712506e+003,-4.312904e-004
1.714434e+003,-8.239573e-004
1.716363e+003,-1.494521e-003
1.718291e+003,-1.394260e-003
1.720220e+003,-3.644871e-004
1.722148e+003,1.805843e-005
1.724077e+003,-3.323217e-005
1.726005e+003,-8.349698e-006
1.727934e+003,-1.244005e-004
1.729862e+003,-3.307505e-004
1.731791e+003,-7.470598e-004
1.733719e+003,-1.549166e-003
1.735648e+003,-9.627681e-004
1.737576e+003,-4.162622e-004
1.739505e+003,-6.217457e-004
1.741433e+003,-3.989824e-004
1.743362e+003,-2.866805e-004
1.745290e+003,-1.439435e-004
1.747219e+003,-3.065804e-004
1.749147e+003,-5.852496e-004
1.751076e+003,-6.794450e-004
1.753004e+003,-2.565142e-004
1.754933e+003,-1.875644e-004
1.756861e+003,-2.935015e-004
1.758790e+003,-1.755087e-004
1.760718e+003,-4.328461e-004
1.762647e+003,-3.859394e-004
1.764575e+003,-2.209984e-005
1.766504e+003,-2.365789e-004
1.768432e+003,-4.933175e-004
1.770361e+003,-6.999224e-004
1.772289e+003,-9.676280e-004
1.774218e+003,-5.185363e-004
1.776146e+003,-1.841200e-004
1.778075e+003,-8.643811e-005
1.780003e+003,-1.363914e-004
1.781932e+003,-1.383788e-004
1.783860e+003,-1.271498e-004
1.785789e+003,-8.607371e-005
1.787717e+003,-1.104548e-004
1.789646e+003,-3.974266e-004
1.791574e+003,-7.518891e-004
1.793503e+003,-5.709879e-004
1.795431e+003,-1.716335e-004
1.797360e+003,-1.364577e-004
1.799288e+003,-3.771004e-004
1.801217e+003,-4.414523e-004
1.803145e+003,-2.490634e-004
1.805074e+003,-1.241355e-004
1.807002e+003,-2.054262e-005
1.808931e+003,-3.220509e-005
1.810859e+003,-6.480535e-005
1.812788e+003,-9.675032e-006
1.814716e+003,-1.169616e-005
1.816645e+003,-5.927275e-005
1.818573e+003,-2.942203e-005
1.820502e+003,-1.481066e-005
1.822430e+003,-1.212689e-005
1.824359e+003,-2.291277e-004
1.826287e+003,-1.569938e-004
1.828216e+003,-1.982951e-004
1.830144e+003,-4.111975e-004
1.832073e+003,-2.016732e-004
1.834001e+003,-6.801885e-005
1.835930e+003,-6.606425e-005
1.837858e+003,3.197552e-005
1.839787e+003,1.197298e-004
1.841715e+003,-9.130781e-005
1.843644e+003,-5.847202e-004
1.845572e+003,-4.235115e-004
1.847501e+003,-7.308754e-005
1.849429e+003,4.102188e-005
1.851358e+003,1.168463e-004
1.853286e+003,1.024294e-004
1.855215e+003,5.470774e-005
1.857143e+003,3.747622e-005
1.859072e+003,-5.069478e-006
1.861000e+003,-3.250328e-005
1.862929e+003,-2.133780e-005
1.864857e+003,-8.421856e-005
1.866786e+003,-3.208178e-004
1.868714e+003,-4.675677e-004
1.870643e+003,-2.874089e-004
1.872571e+003,-8.620622e-005
1.874500e+003,1.769394e-005
1.876428e+003,5.706056e-005
1.878357e+003,5.881690e-005
1.880285e+003,5.593386e-005
1.882214e+003,4.904115e-005
1.884142e+003,4.281129e-005
1.886071e+003,2.326072e-005
1.887999e+003,-1.491770e-004
1.889928e+003,-2.259816e-004
1.891856e+003,-6.162888e-006
1.893785e+003,6.680336e-005
1.895713e+003,7.462427e-005
1.897642e+003,7.256961e-005
1.899570e+003,6.534524e-005
1.901499e+003,1.001426e-004
1.903427e+003,8.880831e-005
1.905356e+003,2.455302e-005
1.907284e+003,3.220748e-005
1.909213e+003,-7.355694e-006
1.911141e+003,1.028934e-004
1.913070e+003,1.454828e-004
1.914998e+003,6.295472e-007
1.916927e+003,-2.861176e-004
1.918855e+003,-3.283005e-004
1.920784e+003,-1.127074e-004
1.922712e+003,-6.821763e-005
1.924641e+003,-3.240388e-005
1.926569e+003,-4.277394e-005
1.928498e+003,5.626524e-005
1.930426e+003,8.191507e-005
1.932355e+003,-1.115480e-004
1.934283e+003,-2.181660e-004
1.936212e+003,-1.282098e-004
1.938140e+003,-2.107274e-005
1.940069e+003,-9.329544e-005
1.941997e+003,-2.715148e-004
1.943926e+003,-1.858753e-004
1.945854e+003,-2.750117e-006
1.947783e+003,7.933014e-005
1.949711e+003,8.681986e-005
1.951640e+003,8.788036e-005
1.953568e+003,1.464549e-005
1.955497e+003,-5.383948e-005
1.957425e+003,-2.991901e-005
1.959354e+003,-6.656119e-005
1.961282e+003,-9.389171e-005
1.963211e+003,-7.759299e-005
1.965139e+003,-1.832274e-005
1.967068e+003,-6.911211e-005
1.968996e+003,-2.408778e-005
1.970925e+003,5.769019e-005
1.972853e+003,6.289296e-005
1.974782e+003,3.379685e-006
1.976710e+003,-3.001840e-005
1.978639e+003,-2.302755e-005
1.980567e+003,-2.962082e-005
1.982496e+003,-4.194567e-005
1.984424e+003,4.324207e-005
1.986353e+003,6.968647e-005
1.988281e+003,2.813171e-005
1.990210e+003,-3.637965e-005
1.992138e+003,-7.878560e-005
1.994067e+003,-8.501363e-005
1.995995e+003,-8.816073e-005
1.997924e+003,-7.325318e-005
1.999852e+003,-1.257917e-004
2.001781e+003,-1.031671e-004
2.003709e+003,-2.972022e-005
2.005638e+003,2.014596e-005
2.007566e+003,3.691289e-005
2.009495e+003,1.269052e-005
2.011423e+003,6.693591e-005
2.013352e+003,8.880831e-005
2.015280e+003,8.575936e-005
2.017208e+003,4.903865e-006
2.019137e+003,4.698661e-005
2.021066e+003,4.078992e-005
2.022994e+003,4.695347e-005
2.024922e+003,9.845239e-005
2.026851e+003,6.829463e-005
2.028780e+003,8.681205e-006
2.030708e+003,2.551329e-006
2.032636e+003,-3.266893e-005
2.034565e+003,-4.529187e-005
2.036494e+003,-2.236490e-005
2.038422e+003,-3.969276e-005
2.040350e+003,-5.069478e-006
2.042279e+003,4.798074e-005
2.044208e+003,8.907343e-005
2.046136e+003,-2.687088e-005
2.048064e+003,-9.922512e-005
2.049993e+003,-6.155868e-005
2.051921e+003,-2.027756e-005
2.053850e+003,-6.384460e-005
2.055778e+003,-1.309591e-004
2.057707e+003,-1.027696e-004
2.059635e+003,-4.028912e-005
2.061564e+003,-9.369296e-005
2.063492e+003,-1.730909e-004
2.065421e+003,-1.607697e-004
2.067349e+003,-3.117801e-005
2.069278e+003,9.404458e-005
2.071206e+003,5.225552e-005
2.073135e+003,3.909993e-005
2.075063e+003,-5.301443e-007
2.076992e+003,-1.189496e-005
2.078920e+003,-9.542498e-006
2.080849e+003,-7.563843e-005
2.082777e+003,-8.193275e-005
2.084706e+003,-8.123706e-005
2.086634e+003,-1.103555e-004
2.088563e+003,-1.104548e-004
2.090491e+003,-7.242497e-005
2.092420e+003,-1.785888e-005
2.094348e+003,2.021181e-006
2.096277e+003,-9.277521e-007
2.098205e+003,-5.201733e-005
2.100134e+003,-2.431970e-005
2.102062e+003,3.035184e-005
2.103991e+003,3.936502e-005
2.105919e+003,-1.971431e-005
2.107848e+003,-5.347505e-005
2.109776e+003,-2.587691e-005
2.111705e+003,-6.139304e-005
2.113633e+003,-7.739422e-005
2.115562e+003,-2.852747e-005
2.117490e+003,-7.212682e-005
2.119419e+003,-9.478614e-005
2.121347e+003,1.673301e-005
2.123276e+003,5.636466e-005
2.125204e+003,-3.111175e-005
2.127133e+003,-1.116142e-004
2.129061e+003,-1.025046e-004
2.130990e+003,-9.405735e-005
2.132918e+003,-1.044259e-004
2.134847e+003,-1.054528e-004
2.136775e+003,-9.081091e-005
2.138704e+003,-1.351848e-005
2.140632e+003,-1.915105e-005
2.142561e+003,-8.226403e-005
2.144489e+003,-8.892266e-005
2.146418e+003,-1.025046e-004
2.148346e+003,-2.836181e-005
2.150275e+003,-2.190105e-005
2.152203e+003,-1.451029e-004
2.154132e+003,-1.522242e-004
2.156060e+003,-1.271830e-004
2.157989e+003,-8.723317e-005
2.159917e+003,-1.015771e-004
2.161846e+003,-8.219777e-005
2.163774e+003,-4.075296e-005
2.165703e+003,-1.252449e-005
2.167631e+003,1.497684e-005
2.169560e+003,-3.671096e-005
2.171488e+003,-1.248974e-004
2.173417e+003,-1.323503e-004
2.175345e+003,-1.243011e-004
2.177274e+003,-2.200205e-004
2.179202e+003,-2.636007e-004
2.181131e+003,-2.062767e-004
2.183059e+003,-1.544434e-004
2.184988e+003,-9.468676e-005
2.186916e+003,-9.700564e-005
2.188845e+003,-2.499244e-004
2.190773e+003,-2.564480e-004
2.192702e+003,-1.244999e-004
2.194630e+003,-7.613535e-005
2.196559e+003,-1.222143e-004
2.198487e+003,-1.557683e-004
2.200416e+003,-1.279117e-004
2.202344e+003,-7.958067e-005
2.204273e+003,-1.144630e-004
2.206201e+003,-2.092573e-004
2.208130e+003,-2.395924e-004
2.210058e+003,-2.429371e-004
2.211987e+003,-2.197225e-004
2.213915e+003,-1.941883e-004
2.215844e+003,-2.371087e-004
2.217772e+003,-2.395924e-004
2.219701e+003,-2.129996e-004
2.221629e+003,-2.314127e-004
2.223558e+003,-2.509841e-004
2.225486e+003,-1.782246e-004
2.227415e+003,-1.492763e-004
2.229343e+003,-1.952812e-004
2.231272e+003,-3.207184e-004
2.233200e+003,-4.321841e-004
2.235129e+003,-3.861381e-004
2.237057e+003,-3.377364e-004
2.238986e+003,-2.909188e-004
2.240914e+003,-2.811507e-004
2.242843e+003,-2.720115e-004
2.244771e+003,-1.914725e-004
2.246700e+003,-1.986925e-004
2.248628e+003,-1.858753e-004
2.250557e+003,-1.686526e-004
2.252485e+003,-1.455997e-004
2.254414e+003,-1.053535e-004
2.256342e+003,-1.283754e-004
2.258271e+003,-2.040246e-004
2.260199e+003,-1.520255e-004
2.262128e+003,-8.136958e-005
2.264056e+003,-1.866040e-004
2.265985e+003,-3.403189e-004
2.267913e+003,-2.898261e-004
2.269842e+003,-2.014414e-004
2.271770e+003,-1.997523e-004
2.273699e+003,-1.694144e-004
2.275627e+003,-1.734552e-004
2.277556e+003,-2.000173e-004
2.279484e+003,-2.342607e-004
2.281413e+003,-2.069722e-004
2.283341e+003,-2.227030e-004
2.285270e+003,-2.839653e-004
2.287198e+003,-2.618456e-004
2.289127e+003,-2.073365e-004
2.291055e+003,-1.328803e-004
2.292984e+003,-1.278123e-004
2.294912e+003,-2.182653e-004
2.296841e+003,-1.613990e-004
2.298769e+003,-1.555033e-004
2.300698e+003,-3.389283e-004
2.302626e+003,-3.894485e-004
2.304555e+003,-2.427053e-004
2.306483e+003,-2.498913e-004
2.308412e+003,-3.165135e-004
2.310340e+003,-3.485958e-004
2.312269e+003,-4.109327e-004
2.314197e+003,-5.259493e-004
2.316125e+003,-6.074190e-004
2.318054e+003,-7.388236e-004
2.319983e+003,-8.279589e-004
2.321911e+003,-7.809625e-004
2.323840e+003,-7.592982e-004
2.325768e+003,-8.483962e-004
2.327697e+003,-1.021381e-003
2.329625e+003,-1.186399e-003
2.331553e+003,-1.232559e-003
2.333482e+003,-1.201731e-003
2.335411e+003,-1.091025e-003
2.337339e+003,-1.117101e-003
2.339268e+003,-1.233616e-003
2.341196e+003,-1.302400e-003
2.343125e+003,-1.157683e-003
2.345053e+003,-9.175718e-004
2.346981e+003,-6.668735e-004
2.348910e+003,-5.962021e-004
2.350839e+003,-8.938973e-004
2.352767e+003,-1.303358e-003
2.354696e+003,-1.519384e-003
2.356624e+003,-1.538568e-003
2.358552e+003,-1.639521e-003
2.360481e+003,-1.708571e-003
2.362409e+003,-1.662066e-003
2.364338e+003,-1.572772e-003
2.366267e+003,-1.482898e-003
2.368195e+003,-1.505153e-003
2.370124e+003,-1.342040e-003
2.372052e+003,-1.121133e-003
2.373980e+003,-1.003199e-003
2.375909e+003,-7.903556e-004
2.377838e+003,-4.811047e-004
2.379766e+003,-1.976658e-004
2.381695e+003,-9.094342e-005
2.383623e+003,-1.652743e-004
2.385552e+003,-2.933028e-004
2.387480e+003,-3.030045e-004
2.389408e+003,-2.559513e-004
2.391337e+003,-3.168777e-004
2.393266e+003,-3.256186e-004
2.395194e+003,-2.808196e-004
2.397123e+003,-2.399898e-004
2.399051e+003,-2.705214e-004
2.400979e+003,-2.835679e-004
2.402908e+003,-2.680048e-004
2.404836e+003,-2.324062e-004
2.406765e+003,-1.894854e-004
2.408694e+003,-1.269842e-004
2.410622e+003,-1.376832e-004
2.412551e+003,-1.903796e-004
2.414479e+003,-2.352542e-004
2.416407e+003,-1.958112e-004
2.418336e+003,-1.635188e-004
2.420264e+003,-1.570932e-004
2.422193e+003,-1.406975e-004
2.424122e+003,-1.316878e-004
2.426050e+003,-1.594117e-004
2.427979e+003,-1.431817e-004
2.429907e+003,-1.845836e-004
2.431835e+003,-1.712361e-004
2.433764e+003,-2.392281e-004
2.435692e+003,-2.612165e-004
2.437621e+003,-2.439968e-004
2.439550e+003,-2.704883e-004
2.441478e+003,-2.163445e-004
2.443406e+003,-2.255511e-004
2.445335e+003,-3.014151e-004
2.447263e+003,-2.795944e-004
2.449192e+003,-2.810183e-004
2.451121e+003,-3.033687e-004
2.453049e+003,-2.654550e-004
2.454978e+003,-2.980378e-004
2.456906e+003,-3.237645e-004
2.458834e+003,-1.773303e-004
2.460763e+003,-1.803774e-004
2.462691e+003,-1.771647e-004
2.464620e+003,-1.282098e-004
2.466549e+003,-1.223799e-004
2.468477e+003,-1.769329e-004
2.470406e+003,-2.518451e-004
2.472334e+003,-2.818461e-004
2.474262e+003,-2.833692e-004
2.476191e+003,-3.013489e-004
2.478119e+003,-2.731705e-004
2.480048e+003,-2.758195e-004
2.481977e+003,-2.692300e-004
2.483905e+003,-2.020044e-004
2.485833e+003,-1.313235e-004
2.487762e+003,-8.567618e-005
2.489690e+003,-7.712920e-005
2.491619e+003,-1.475208e-004
2.493547e+003,-3.133018e-004
2.495476e+003,-4.225516e-004
2.497405e+003,-3.927258e-004
2.499333e+003,-2.127347e-004
2.501261e+003,-1.455666e-004
2.503190e+003,-2.209147e-004
2.505118e+003,-3.441594e-004
2.507047e+003,-3.987838e-004
2.508975e+003,-2.955544e-004
2.510904e+003,-2.519444e-004
2.512833e+003,-2.672101e-004
2.514761e+003,-2.680379e-004
2.516689e+003,-2.650908e-004
2.518618e+003,-2.657531e-004
2.520546e+003,-1.637838e-004
2.522475e+003,-1.659036e-004
2.524403e+003,-2.557857e-004
2.526332e+003,-1.672284e-004
2.528260e+003,-1.631545e-004
2.530189e+003,-1.415256e-004
2.532117e+003,-1.489782e-004
2.534046e+003,-2.891970e-004
2.535974e+003,-3.062824e-004
2.537903e+003,-3.563098e-004
2.539831e+003,-4.064638e-004
2.541760e+003,-4.016638e-004
2.543688e+003,-2.891970e-004
2.545617e+003,-2.260147e-004
2.547545e+003,-2.636007e-004
2.549474e+003,-2.759520e-004
2.551402e+003,-2.793626e-004
2.553331e+003,-3.339952e-004
2.555259e+003,-3.203874e-004
2.557188e+003,-2.963491e-004
2.559116e+003,-3.135336e-004
2.561045e+003,-3.360148e-004
2.562973e+003,-3.648844e-004
2.564902e+003,-3.720684e-004
2.566830e+003,-2.778725e-004
2.568759e+003,-2.383340e-004
2.570687e+003,-2.523087e-004
2.572616e+003,-3.307505e-004
2.574544e+003,-4.453250e-004
2.576473e+003,-3.997107e-004
2.578401e+003,-3.600178e-004
2.580330e+003,-3.977245e-004
2.582258e+003,-3.993466e-004
2.584187e+003,-4.112306e-004
2.586115e+003,-3.539923e-004
2.588044e+003,-3.026071e-004
2.589972e+003,-3.456493e-004
2.591901e+003,-3.422392e-004
2.593829e+003,-3.202880e-004
2.595758e+003,-3.266450e-004
2.597686e+003,-2.806540e-004
2.599615e+003,-1.900153e-004
2.601543e+003,-2.462486e-004
2.603472e+003,-3.067460e-004
2.605400e+003,-3.510789e-004
2.607329e+003,-3.980555e-004
2.609257e+003,-4.035176e-004
2.611186e+003,-4.032859e-004
2.613114e+003,-3.109510e-004
2.615043e+003,-3.281018e-004
2.616971e+003,-4.465166e-004
2.618900e+003,-4.724332e-004
2.620828e+003,-3.908720e-004
2.622757e+003,-3.804771e-004
2.624685e+003,-4.166594e-004
2.626614e+003,-3.337634e-004
2.628542e+003,-3.226719e-004
2.630471e+003,-4.125878e-004
2.632399e+003,-4.043452e-004
2.634328e+003,-3.012496e-004
2.636256e+003,-3.141958e-004
2.638185e+003,-4.343688e-004
2.640113e+003,-4.773978e-004
2.642042e+003,-4.045107e-004
2.643970e+003,-2.825745e-004
2.645899e+003,-2.399898e-004
2.647827e+003,-3.098915e-004
2.649756e+003,-4.484364e-004
2.651684e+003,-4.344019e-004
2.653613e+003,-3.457155e-004
2.655541e+003,-3.484965e-004
2.657470e+003,-3.808082e-004
2.659398e+003,-3.849132e-004
2.661327e+003,-3.931893e-004
2.663255e+003,-2.846937e-004
2.665184e+003,-2.453214e-004
2.667112e+003,-3.048256e-004
2.669041e+003,-3.014151e-004
2.670969e+003,-3.194603e-004
2.672898e+003,-3.529991e-004
2.674826e+003,-3.816358e-004
2.676755e+003,-3.248903e-004
2.678683e+003,-2.326049e-004
2.680612e+003,-3.104213e-004
2.682540e+003,-3.694861e-004
2.684469e+003,-3.282012e-004
2.686397e+003,-3.257180e-004
2.688326e+003,-3.906072e-004
2.690254e+003,-4.177518e-004
2.692183e+003,-3.228706e-004
2.694111e+003,-2.480368e-004
2.696040e+003,-2.848593e-004
2.697968e+003,-2.765812e-004
2.699897e+003,-2.873427e-004
2.701825e+003,-3.499532e-004
2.703754e+003,-2.948591e-004
2.705682e+003,-2.574745e-004
2.707611e+003,-4.202013e-004
2.709539e+003,-4.841497e-004
2.711468e+003,-3.251551e-004
2.713396e+003,-2.715148e-004
2.715325e+003,-3.128383e-004
2.717253e+003,-3.771997e-004
2.719182e+003,-5.153922e-004
2.721110e+003,-4.510513e-004
2.723039e+003,-2.885347e-004
2.724967e+003,-2.261472e-004
2.726896e+003,-1.885580e-004
2.728824e+003,-3.582300e-004
2.730753e+003,-4.174870e-004
2.732681e+003,-2.564480e-004
2.734610e+003,-2.751242e-004
2.736538e+003,-4.169904e-004
2.738467e+003,-4.719036e-004
2.740395e+003,-4.562479e-004
2.742324e+003,-4.203006e-004
2.744252e+003,-3.945134e-004
2.746181e+003,-4.167587e-004
2.748109e+003,-4.230812e-004
2.750038e+003,-3.963010e-004
2.751966e+003,-3.718366e-004
2.753895e+003,-4.727972e-004
2.755823e+003,-5.475592e-004
2.757752e+003,-4.537986e-004
2.759680e+003,-4.414523e-004
2.761609e+003,-3.319756e-004
2.763537e+003,-2.354529e-004
2.765466e+003,-2.882699e-004
2.767394e+003,-3.923948e-004
2.769323e+003,-4.076555e-004
2.771251e+003,-3.807751e-004
2.773180e+003,-4.214923e-004
2.775108e+003,-4.569099e-004
2.777037e+003,-4.165601e-004
2.778965e+003,-3.856415e-004
2.780894e+003,-3.816358e-004
2.782822e+003,-3.062162e-004
2.784750e+003,-2.800911e-004
2.786679e+003,-3.404182e-004
2.788608e+003,-3.156527e-004
2.790536e+003,-3.360148e-004
2.792465e+003,-3.765707e-004
2.794393e+003,-4.459870e-004
2.796322e+003,-4.419488e-004
2.798250e+003,-4.005383e-004
2.800178e+003,-4.288740e-004
2.802107e+003,-4.323496e-004
2.804036e+003,-4.412868e-004
2.805964e+003,-4.346667e-004
2.807893e+003,-3.809737e-004
2.809821e+003,-3.853767e-004
2.811750e+003,-4.226178e-004
2.813678e+003,-4.694212e-004
2.815606e+003,-4.786886e-004
2.817535e+003,-4.823956e-004
2.819464e+003,-4.096748e-004
2.821392e+003,-3.324722e-004
2.823321e+003,-3.328695e-004
2.825249e+003,-4.256300e-004
2.827177e+003,-4.000087e-004
2.829106e+003,-4.177518e-004
2.831034e+003,-4.029549e-004
2.832963e+003,-3.656789e-004
2.834892e+003,-3.219435e-004
2.836820e+003,-3.407824e-004
2.838749e+003,-4.083838e-004
2.840677e+003,-4.192414e-004
2.842605e+003,-4.993741e-004
2.844534e+003,-6.009668e-004
2.846462e+003,-5.329652e-004
2.848391e+003,-4.587304e-004
2.850320e+003,-4.265900e-004
2.852248e+003,-4.434052e-004
2.854177e+003,-4.793506e-004
2.856105e+003,-4.558838e-004
2.858033e+003,-3.793847e-004
2.859962e+003,-4.029218e-004
2.861890e+003,-4.573733e-004
2.863819e+003,-4.945089e-004
2.865748e+003,-4.665417e-004
2.867676e+003,-4.421143e-004
2.869604e+003,-3.386635e-004
2.871533e+003,-3.828276e-004
2.873461e+003,-5.247580e-004
2.875390e+003,-5.132080e-004
2.877319e+003,-5.035442e-004
2.879247e+003,-5.198931e-004
2.881176e+003,-4.980172e-004
2.883104e+003,-3.879588e-004
2.885032e+003,-3.703800e-004
2.886961e+003,-4.882537e-004
2.888889e+003,-4.262259e-004
2.890818e+003,-3.552835e-004
2.892747e+003,-3.073089e-004
2.894675e+003,-3.230030e-004
2.896604e+003,-4.506872e-004
2.898532e+003,-5.586780e-004
2.900460e+003,-5.493792e-004
2.902389e+003,-5.782016e-004
2.904317e+003,-4.923908e-004
2.906246e+003,-3.514430e-004
2.908175e+003,-4.035176e-004
2.910103e+003,-4.697853e-004
2.912031e+003,-5.271407e-004
2.913960e+003,-4.471786e-004
2.915888e+003,-3.339952e-004
2.917817e+003,-3.888857e-004
2.919745e+003,-3.940500e-004
2.921674e+003,-4.132168e-004
2.923603e+003,-4.050404e-004
2.925531e+003,-4.720691e-004
2.927459e+003,-5.249565e-004
2.929388e+003,-4.451595e-004
2.931316e+003,-4.676670e-004
2.933245e+003,-4.079865e-004
2.935173e+003,-4.000749e-004
2.937102e+003,-3.779611e-004
2.939031e+003,-3.247578e-004
2.940959e+003,-4.581346e-004
2.942887e+003,-4.783246e-004
2.944816e+003,-4.513161e-004
2.946744e+003,-4.284106e-004
2.948673e+003,-4.751472e-004
2.950601e+003,-4.526070e-004
2.952530e+003,-3.519066e-004
2.954458e+003,-3.458479e-004
2.956387e+003,-3.521052e-004
2.958315e+003,-3.717042e-004
2.960244e+003,-4.295360e-004
2.962172e+003,-3.013489e-004
2.964101e+003,-3.120106e-004
2.966029e+003,-4.795492e-004
2.967958e+003,-5.178744e-004
2.969886e+003,-4.160305e-004
2.971815e+003,-4.376789e-004
2.973743e+003,-3.501519e-004
2.975672e+003,-3.761073e-004
2.977600e+003,-3.654141e-004
2.979529e+003,-3.182683e-004
2.981457e+003,-3.127390e-004
2.983386e+003,-3.588259e-004
2.985314e+003,-4.385395e-004
2.987243e+003,-4.517464e-004
2.989171e+003,-4.299663e-004
2.991100e+003,-5.366055e-004
2.993028e+003,-6.037132e-004
2.994957e+003,-5.681752e-004
2.996885e+003,-4.519450e-004
2.998814e+003,-3.938182e-004
3.000742e+003,-4.079203e-004
3.002671e+003,-4.669389e-004
3.004599e+003,-4.945089e-004
3.006528e+003,-4.400621e-004
3.008456e+003,-3.945796e-004
3.010385e+003,-4.793506e-004
3.012313e+003,-5.765471e-004
3.014242e+003,-6.035146e-004
3.016170e+003,-6.071212e-004
3.018099e+003,-5.772419e-004
3.020027e+003,-5.191650e-004
3.021956e+003,-5.224745e-004
3.023884e+003,-4.865989e-004
3.025813e+003,-5.351494e-004
3.027741e+003,-5.194960e-004
3.029670e+003,-3.940500e-004
3.031598e+003,-3.601833e-004
3.033527e+003,-3.300222e-004
3.035455e+003,-4.686600e-004
3.037384e+003,-5.680428e-004
3.039312e+003,-5.416687e-004
3.041241e+003,-4.652177e-004
3.043169e+003,-5.080121e-004
3.045098e+003,-5.130756e-004
3.047026e+003,-5.585788e-004
3.048955e+003,-4.661776e-004
3.050883e+003,-3.646195e-004
3.052812e+003,-4.111975e-004
3.054740e+003,-4.986460e-004
3.056669e+003,-5.003008e-004
3.058597e+003,-3.362466e-004
3.060526e+003,-2.955544e-004
3.062454e+003,-3.362797e-004
3.064383e+003,-4.352956e-004
3.066311e+003,-4.560824e-004
3.068240e+003,-4.227171e-004
3.070168e+003,-4.670381e-004
3.072097e+003,-4.211613e-004
3.074025e+003,-3.390939e-004
3.075954e+003,-3.226388e-004
3.077882e+003,-2.901903e-004
3.079811e+003,-3.067460e-004
3.081739e+003,-4.168249e-004
3.083668e+003,-4.733930e-004
3.085596e+003,-4.898093e-004
3.087525e+003,-4.153353e-004
3.089453e+003,-3.606137e-004
3.091382e+003,-3.701151e-004
3.093310e+003,-4.066293e-004
3.095239e+003,-5.574205e-004
3.097167e+003,-5.578508e-004
3.099096e+003,-4.582008e-004
3.101024e+003,-5.787309e-004
3.102953e+003,-6.580402e-004
3.104881e+003,-5.731388e-004
3.106810e+003,-4.804759e-004
3.108738e+003,-4.530704e-004
3.110667e+003,-3.987838e-004
3.112595e+003,-3.894154e-004
3.114524e+003,-3.797488e-004
3.116452e+003,-3.554821e-004
3.118381e+003,-4.246370e-004
3.120309e+003,-3.913354e-004
3.122238e+003,-3.865022e-004
3.124166e+003,-4.460532e-004
3.126095e+003,-3.993797e-004
3.128023e+003,-4.184138e-004
3.129952e+003,-4.578367e-004
3.131880e+003,-4.585980e-004
3.133809e+003,-5.484195e-004
3.135737e+003,-4.989108e-004
3.137666e+003,-4.244384e-004
3.139594e+003,-4.902726e-004
3.141523e+003,-4.745845e-004
3.143451e+003,-2.987331e-004
3.145380e+003,-2.738990e-004
3.147308e+003,-3.359817e-004
3.149237e+003,-4.074569e-004
3.151165e+003,-5.294242e-004
3.153094e+003,-4.742204e-004
3.155022e+003,-5.074163e-004
3.156951e+003,-6.934055e-004
3.158879e+003,-6.063271e-004
3.160808e+003,-4.939463e-004
3.162736e+003,-5.212500e-004
3.164665e+003,-5.145318e-004
3.166593e+003,-4.082514e-004
3.168522e+003,-3.783253e-004
3.170450e+003,-4.877904e-004
3.172379e+003,-4.224523e-004
3.174307e+003,-3.986845e-004
3.176236e+003,-3.469404e-004
3.178164e+003,-3.433648e-004
3.180093e+003,-3.767363e-004
3.182021e+003,-4.731613e-004
3.183950e+003,-5.348515e-004
3.185878e+003,-4.990100e-004
3.187807e+003,-4.770338e-004
3.189735e+003,-4.967264e-004
3.191664e+003,-5.733704e-004
3.193592e+003,-6.476849e-004
3.195521e+003,-6.049043e-004
3.197449e+003,-4.900079e-004
3.199378e+003,-4.458877e-004
3.201306e+003,-3.966652e-004
3.203235e+003,-4.204993e-004
3.205163e+003,-4.981827e-004
3.207092e+003,-5.350832e-004
3.209020e+003,-4.509189e-004
3.210948e+003,-3.915672e-004
3.212877e+003,-4.016307e-004
3.214806e+003,-3.210164e-004
3.216734e+003,-3.119774e-004
3.218663e+003,-3.675660e-004
3.220591e+003,-4.000087e-004
3.222520e+003,-4.946744e-004
3.224448e+003,-4.970905e-004
3.226376e+003,-5.222759e-004
3.228305e+003,-4.638276e-004
3.230234e+003,-2.960842e-004
3.232162e+003,-2.002491e-004
3.234091e+003,-2.087605e-004
3.236019e+003,-1.757405e-004
3.237948e+003,-2.390294e-004
3.239876e+003,-4.114954e-004
3.241804e+003,-5.101301e-004
3.243733e+003,-5.380285e-004
3.245662e+003,-5.631784e-004
3.247590e+003,-5.226730e-004
3.249519e+003,-5.449118e-004
3.251447e+003,-4.893790e-004
3.253375e+003,-5.538797e-004
3.255304e+003,-5.341235e-004
3.257232e+003,-3.539923e-004
3.259161e+003,-2.887003e-004
3.261090e+003,-3.425371e-004
3.263018e+003,-3.954734e-004
3.264947e+003,-4.200358e-004
3.266875e+003,-4.320186e-004
3.268803e+003,-5.159217e-004
3.270732e+003,-5.149951e-004
3.272660e+003,-4.497604e-004
3.274589e+003,-3.706448e-004
3.276518e+003,-3.499863e-004
3.278446e+003,-4.193076e-004
3.280375e+003,-4.114292e-004
3.282303e+003,-3.771997e-004
3.284231e+003,-3.582631e-004
3.286160e+003,-2.419767e-004
3.288088e+003,-3.506154e-004
3.290017e+003,-4.814688e-004
3.291946e+003,-5.697304e-004
3.293874e+003,-4.617093e-004
3.295802e+003,-3.480661e-004
3.297731e+003,-3.411466e-004
3.299659e+003,-4.410882e-004
3.301588e+003,-3.298235e-004
3.303516e+003,-3.662748e-004
3.305445e+003,-4.348322e-004
3.307374e+003,-4.322503e-004
3.309302e+003,-5.466326e-004
3.311230e+003,-7.401797e-004
3.313159e+003,-7.024035e-004
3.315087e+003,-4.055369e-004
3.317016e+003,-3.209171e-004
3.318944e+003,-4.195062e-004
3.320873e+003,-3.725319e-004
3.322802e+003,-3.360810e-004
3.324730e+003,-3.296580e-004
3.326658e+003,-3.988169e-004
3.328587e+003,-4.199365e-004
3.330515e+003,-3.832580e-004
3.332444e+003,-4.096748e-004
3.334372e+003,-4.437693e-004
3.336301e+003,-4.914972e-004
3.338229e+003,-4.677001e-004
3.340158e+003,-5.135390e-004
3.342086e+003,-5.509676e-004
3.344015e+003,-4.312573e-004
3.345943e+003,-2.357178e-004
3.347872e+003,-1.161193e-004
3.349800e+003,-1.291042e-004
3.351729e+003,-2.131321e-004
3.353657e+003,-2.984020e-004
3.355586e+003,-4.102044e-004
3.357514e+003,-3.515424e-004
3.359443e+003,-2.154835e-004
3.361371e+003,-2.391619e-004
3.363300e+003,-2.798924e-004
3.365229e+003,-2.899255e-004
3.367157e+003,-2.804222e-004
3.369085e+003,-2.668458e-004
3.371014e+003,-3.115470e-004
3.372942e+003,-4.097741e-004
3.374871e+003,-4.144416e-004
3.376799e+003,-4.254645e-004
3.378728e+003,-4.082845e-004
3.380656e+003,-4.031204e-004
3.382585e+003,-3.677315e-004
3.384513e+003,-3.795833e-004
3.386442e+003,-4.424784e-004
3.388370e+003,-4.242729e-004
3.390299e+003,-3.166129e-004
3.392227e+003,-4.285099e-004
3.394156e+003,-4.895445e-004
3.396084e+003,-5.024189e-004
3.398013e+003,-4.700832e-004
3.399941e+003,-4.154677e-004
3.401870e+003,-4.606170e-004
3.403798e+003,-4.858707e-004
3.405727e+003,-3.544558e-004
3.407655e+003,-3.793185e-004
3.409584e+003,-4.363879e-004
3.411512e+003,-3.890844e-004
3.413441e+003,-3.128383e-004
3.415369e+003,-3.555152e-004
3.417298e+003,-2.820116e-004
3.419226e+003,-3.663742e-004
3.421155e+003,-4.738564e-004
3.423083e+003,-3.582631e-004
3.425012e+003,-2.476063e-004
3.426940e+003,-3.091631e-004
3.428869e+003,-4.723670e-004
3.430797e+003,-3.931231e-004
3.432726e+003,-2.909188e-004
3.434654e+003,-2.953558e-004
3.436583e+003,-2.701572e-004
3.438511e+003,-2.525074e-004
3.440440e+003,-3.300222e-004
3.442368e+003,-3.847477e-004
3.444297e+003,-4.246701e-004
3.446225e+003,-4.538979e-004
3.448154e+003,-3.123748e-004
3.450082e+003,-3.066798e-004
3.452011e+003,-5.490483e-004
3.453939e+003,-5.628475e-004
3.455868e+003,-3.241949e-004
3.457796e+003,-2.369431e-004
3.459725e+003,-4.302311e-004
3.461653e+003,-4.716388e-004
3.463582e+003,-2.813825e-004
3.465510e+003,-2.811507e-004
3.467439e+003,-2.954551e-004
3.469367e+003,-2.014414e-004
3.471296e+003,-2.444604e-004
3.473224e+003,-3.732271e-004
3.475153e+003,-3.627656e-004
3.477081e+003,-3.374716e-004
3.479010e+003,-3.877602e-004
3.480938e+003,-4.730289e-004
3.482867e+003,-4.458215e-004
3.484795e+003,-5.235004e-004
3.486724e+003,-3.968969e-004
3.488652e+003,-1.450366e-004
3.490581e+003,-3.190630e-004
3.492509e+003,-4.619741e-004
3.494438e+003,-4.022266e-004
3.496366e+003,-2.951571e-004
3.498295e+003,-2.324393e-004
3.500223e+003,-3.700489e-004
3.502152e+003,-4.115616e-004
3.504080e+003,-2.255511e-004
3.506009e+003,-1.052872e-004
3.507937e+003,-3.374716e-004
3.509866e+003,-3.515424e-004
3.511794e+003,-1.797150e-004
3.513723e+003,-2.717135e-004
3.515651e+003,-4.347329e-004
3.517580e+003,-4.206979e-004
3.519508e+003,-3.420736e-004
3.521437e+003,-3.611103e-004
3.523365e+003,-3.797819e-004
3.525294e+003,-2.385658e-004
3.527222e+003,-2.967133e-004
3.529151e+003,-4.020280e-004
3.531079e+003,-3.267112e-004
3.533008e+003,-2.566467e-004
3.534936e+003,-1.940890e-004
3.536865e+003,-1.871670e-004
3.538793e+003,-2.062767e-004
3.540722e+003,-3.323067e-004
3.542650e+003,-3.843504e-004
3.544579e+003,-4.071590e-004
3.546507e+003,-6.068234e-004
3.548436e+003,-4.244715e-004
3.550364e+003,-2.503549e-004
3.552293e+003,-2.651901e-004
3.554221e+003,-3.573361e-004
3.556150e+003,-4.473441e-004
3.558078e+003,-4.103699e-004
3.560007e+003,-2.832699e-004
3.561935e+003,-3.575347e-004
3.563864e+003,-5.422974e-004
3.565792e+003,-9.108928e-004
3.567721e+003,-9.671652e-004
3.569649e+003,-6.721007e-004
3.571578e+003,-3.533633e-004
3.573506e+003,-3.608147e-005
3.575435e+003,-5.933901e-005
3.577363e+003,-3.890844e-004
3.579292e+003,-5.939521e-004
3.581220e+003,-3.152222e-004
3.583149e+003,-1.804436e-004
3.585077e+003,-6.223744e-004
3.587006e+003,-9.772815e-004
3.588934e+003,-7.080933e-004
3.590863e+003,-3.608454e-004
3.592791e+003,-4.441665e-004
3.594720e+003,-5.052651e-004
3.596648e+003,-4.623712e-004
3.598577e+003,-4.308269e-004
3.600505e+003,-3.968969e-004
3.602434e+003,-2.982033e-004
3.604362e+003,-3.055540e-004
3.606291e+003,-5.050997e-004
3.608219e+003,-7.068362e-004
3.610148e+003,-5.113216e-004
3.612076e+003,-6.275027e-004
3.614005e+003,-7.633335e-004
3.615933e+003,-7.318441e-004
3.617862e+003,-7.905210e-004
3.619790e+003,-7.345896e-004
3.621719e+003,-4.212275e-004
3.623647e+003,-3.489600e-004
3.625576e+003,-6.528129e-004
3.627504e+003,-1.404994e-003
3.629433e+003,-1.259585e-003
3.631361e+003,-4.519781e-004
3.633290e+003,-5.023197e-004
3.635218e+003,-4.360238e-004
3.637146e+003,-2.296576e-004
3.639075e+003,-3.095935e-004
3.641004e+003,-3.745513e-004
3.642932e+003,-2.010771e-004
3.644861e+003,-3.711083e-004
3.646789e+003,-1.045842e-003
3.648718e+003,-1.401955e-003
3.650646e+003,-1.024124e-003
3.652574e+003,-5.224745e-004
3.654503e+003,-6.563199e-004
3.656432e+003,-4.898424e-004
3.658360e+003,1.159183e-004
3.660289e+003,-4.870431e-005
3.662217e+003,-2.316777e-004
3.664146e+003,-1.103349e-005
3.666074e+003,-1.661686e-004
3.668002e+003,-8.497851e-004
3.669931e+003,-1.182368e-003
3.671860e+003,-8.519677e-004
3.673788e+003,-1.282578e-003
3.675717e+003,-1.327902e-003
3.677645e+003,-4.012004e-004
3.679573e+003,-1.522905e-004
3.681502e+003,-1.278955e-005
3.683430e+003,-1.636791e-005
3.685359e+003,-1.708055e-004
3.687288e+003,-7.177526e-004
3.689216e+003,-9.263007e-004
3.691145e+003,-7.919100e-004
3.693073e+003,-4.353949e-004
3.695001e+003,-4.877057e-005
3.696930e+003,-1.782575e-005
3.698858e+003,-2.035610e-004
3.700787e+003,-6.844073e-004
3.702716e+003,-5.174110e-004
3.704644e+003,-6.056480e-005
3.706573e+003,-1.139993e-004
3.708501e+003,-5.330314e-004
3.710429e+003,-9.456093e-004
3.712358e+003,-9.261353e-004
3.714286e+003,-2.989980e-004
3.716215e+003,1.656702e-007
3.718144e+003,2.680626e-005
3.720072e+003,-4.602074e-005
3.722000e+003,-2.124035e-004
3.723929e+003,-3.660431e-004
3.725857e+003,-5.150282e-004
3.727786e+003,-2.726076e-004
3.729714e+003,-3.052891e-004
3.731643e+003,-7.483498e-004
3.733572e+003,-8.901278e-004
3.735500e+003,-1.080184e-003
3.737428e+003,-6.681307e-004
3.739357e+003,-1.874319e-004
3.741285e+003,-4.759415e-004
3.743214e+003,-1.603936e-003
3.745142e+003,-1.517205e-003
3.747071e+003,-8.477017e-004
3.749000e+003,-1.423092e-003
3.750928e+003,-1.596079e-003
3.752856e+003,-1.120340e-003
3.754785e+003,-4.690572e-004
3.756713e+003,-1.848486e-004
3.758642e+003,-2.520107e-004
3.760570e+003,-3.598853e-004
3.762499e+003,-1.695800e-004
3.764427e+003,-2.917466e-004
3.766356e+003,-4.451264e-004
3.768284e+003,-6.656825e-004
3.770213e+003,-5.127116e-004
3.772141e+003,1.028934e-004
3.774070e+003,2.930369e-004
3.775998e+003,7.187368e-005
3.777927e+003,-2.650577e-004
3.779855e+003,-3.526349e-004
3.781784e+003,4.864349e-005
3.783712e+003,-1.409956e-004
3.785641e+003,-1.548078e-004
3.787569e+003,8.581801e-006
3.789498e+003,1.171446e-004
3.791426e+003,2.306410e-004
3.793355e+003,3.284162e-004
3.795283e+003,1.719997e-004
3.797212e+003,-1.307604e-004
3.799140e+003,-3.287309e-004
3.801069e+003,-7.613158e-004
3.802997e+003,-5.851834e-004
3.804926e+003,-3.541909e-004
3.806854e+003,-5.148627e-004
3.808783e+003,-2.262996e-005
3.810711e+003,4.165952e-004
3.812640e+003,3.730838e-004
3.814568e+003,-3.428020e-004
3.816497e+003,-7.360781e-004
3.818425e+003,-7.620435e-004
3.820354e+003,-1.191455e-003
3.822282e+003,-5.229047e-004
3.824211e+003,1.713036e-004
3.826139e+003,9.427658e-005
3.828068e+003,-1.225942e-005
3.829996e+003,-1.518268e-004
3.831925e+003,-2.283991e-004
3.833853e+003,-1.976327e-004
3.835782e+003,-5.630130e-004
3.837710e+003,-9.120831e-004
3.839639e+003,-6.756736e-004
3.841567e+003,-3.967645e-004
3.843496e+003,-2.865811e-004
3.845424e+003,-1.388757e-004
3.847353e+003,-1.167155e-004
3.849281e+003,-4.434714e-004
3.851210e+003,-1.143341e-003
3.853138e+003,-1.901766e-003
3.855067e+003,-9.568833e-004
3.856995e+003,2.203470e-005
3.858924e+003,3.162470e-004
3.860852e+003,1.983194e-004
3.862781e+003,-2.971769e-004
3.864709e+003,-6.283299e-004
3.866638e+003,-4.600543e-004
3.868566e+003,-6.576102e-004
3.870495e+003,-5.899483e-004
3.872423e+003,-4.441665e-004
3.874352e+003,-3.573030e-004
3.876280e+003,3.098143e-005
3.878209e+003,-8.567618e-005
3.880137e+003,-1.276136e-004
3.882066e+003,5.252063e-005
3.883994e+003,-2.321744e-004
3.885923e+003,-3.271748e-004
3.887851e+003,2.588208e-004
3.889780e+003,1.632821e-004
3.891708e+003,-2.432020e-004
3.893637e+003,-1.189680e-004
3.895565e+003,2.269741e-005
3.897494e+003,1.391632e-006
3.899422e+003,-2.188946e-004
3.901351e+003,-3.370743e-004
3.903279e+003,-1.655392e-004
3.905208e+003,3.769970e-004
3.907136e+003,6.672355e-004
3.909065e+003,4.647879e-004
3.910993e+003,2.626335e-004
3.912922e+003,2.870356e-004
3.914850e+003,3.192975e-004
3.916779e+003,2.585888e-004
3.918707e+003,5.392598e-004
3.920636e+003,6.602667e-004
3.922564e+003,4.732793e-004
3.924493e+003,2.860409e-004
3.926421e+003,5.896227e-004
3.928350e+003,6.483536e-004
3.930278e+003,4.468104e-004
3.932207e+003,4.720852e-004
3.934135e+003,7.414766e-004
3.936064e+003,9.182528e-004
3.937992e+003,7.382903e-004
3.939921e+003,4.996173e-004
3.941849e+003,3.586584e-004
3.943778e+003,4.655508e-004
3.945706e+003,5.614877e-004
3.947635e+003,4.540079e-004
3.949563e+003,4.641908e-004
3.951492e+003,5.096022e-004
3.953420e+003,5.739293e-004
3.955349e+003,5.470892e-004
3.957277e+003,5.171989e-004
3.959206e+003,6.337531e-004
3.961134e+003,7.896389e-004
3.963063e+003,7.841618e-004
3.964991e+003,6.238648e-004
3.966920e+003,5.640424e-004
3.968848e+003,7.208657e-004
3.970777e+003,6.986959e-004
3.972705e+003,8.579250e-004
3.974634e+003,8.622078e-004
3.976562e+003,6.775229e-004
3.978491e+003,9.184189e-004
3.980419e+003,1.091181e-003
3.982348e+003,6.874124e-004
3.984276e+003,5.930401e-004
3.986205e+003,5.564781e-004
3.988133e+003,7.049684e-004
3.990062e+003,9.102839e-004
3.991990e+003,9.838360e-004
3.993919e+003,8.022197e-004
3.995847e+003,7.433685e-004
3.997776e+003,8.034480e-004
3.999704e+003,9.502296e-004
4.001633e+003,0.000000e+000
