3.991989e+002,-7.794886e-003
4.011274e+002,-3.094240e-003
4.030559e+002,-3.651353e-003
4.049844e+002,-6.596959e-003
4.069129e+002,-8.837827e-003
4.088414e+002,-2.153335e-003
4.107699e+002,-6.914868e-004
4.126984e+002,-3.673695e-003
4.146269e+002,-1.034956e-002
4.165554e+002,-1.442822e-002
4.184839e+002,-9.789191e-003
4.204124e+002,-5.666074e-003
4.223409e+002,-4.255134e-003
4.242694e+002,-3.433820e-003
4.261979e+002,-7.877281e-003
4.281264e+002,-1.124984e-002
4.300549e+002,-1.224008e-002
4.319834e+002,-1.589554e-002
4.339119e+002,-1.341803e-002
4.358404e+002,-7.116712e-003
4.377689e+002,-6.829875e-003
4.396974e+002,-9.605405e-003
4.416259e+002,-1.052728e-002
4.435544e+002,-9.288684e-003
4.454829e+002,-8.632785e-003
4.474114e+002,-6.416094e-003
4.493399e+002,-7.737050e-003
4.512684e+002,-1.146550e-002
4.531969e+002,-1.141648e-002
4.551254e+002,-8.092210e-003
4.570539e+002,-8.867825e-003
4.589824e+002,-1.205456e-002
4.609109e+002,-1.032080e-002
4.628394e+002,-8.444966e-003
4.647679e+002,-9.435775e-003
4.666964e+002,-9.472085e-003
4.686249e+002,-1.102413e-002
4.705533e+002,-1.171007e-002
4.724819e+002,-9.938574e-003
4.744103e+002,-9.532543e-003
4.763389e+002,-1.057918e-002
4.782673e+002,-1.113505e-002
4.801959e+002,-6.233683e-003
4.821243e+002,-8.506118e-004
4.840529e+002,-4.033045e-003
4.859813e+002,-7.945476e-003
4.879099e+002,-9.551992e-003
4.898383e+002,-1.178406e-002
4.917668e+002,-1.257490e-002
4.936953e+002,-9.013955e-003
4.956238e+002,-9.124315e-003
4.975523e+002,-1.218142e-002
4.994808e+002,-1.053249e-002
5.014093e+002,-1.086753e-002
5.033378e+002,-1.214900e-002
5.052663e+002,-1.367150e-002
5.071948e+002,-1.413892e-002
5.091233e+002,-1.257902e-002
5.110518e+002,-1.234067e-002
5.129803e+002,-1.323674e-002
5.149088e+002,-1.398177e-002
5.168373e+002,-1.351967e-002
5.187658e+002,-1.284424e-002
5.206943e+002,-1.304248e-002
5.226228e+002,-1.399640e-002
5.245513e+002,-1.412352e-002
5.264798e+002,-1.418427e-002
5.284083e+002,-1.307695e-002
5.303368e+002,-1.342481e-002
5.322653e+002,-1.434362e-002
5.341938e+002,-1.436260e-002
5.361223e+002,-1.461817e-002
5.380508e+002,-1.480667e-002
5.399792e+002,-1.405892e-002
5.419078e+002,-1.470857e-002
5.438363e+002,-1.494253e-002
5.457648e+002,-1.369763e-002
5.476932e+002,-1.351283e-002
5.496218e+002,-1.329854e-002
5.515503e+002,-1.251220e-002
5.534788e+002,-1.292693e-002
5.554072e+002,-1.224520e-002
5.573358e+002,-1.180743e-002
5.592643e+002,-1.190861e-002
5.611927e+002,-1.246716e-002
5.631212e+002,-1.283751e-002
5.650497e+002,-1.291487e-002
5.669783e+002,-1.162744e-002
5.689067e+002,-1.022550e-002
5.708352e+002,-1.076602e-002
5.727637e+002,-1.241860e-002
5.746923e+002,-1.428037e-002
5.766207e+002,-1.373946e-002
5.785492e+002,-1.051379e-002
5.804777e+002,-1.059490e-002
5.824063e+002,-1.470438e-002
5.843347e+002,-1.269646e-002
5.862632e+002,-1.000557e-002
5.881917e+002,-1.149299e-002
5.901202e+002,-1.309614e-002
5.920487e+002,-1.442998e-002
5.939772e+002,-1.388281e-002
5.959057e+002,-1.253840e-002
5.978342e+002,-1.210183e-002
5.997627e+002,-1.121836e-002
6.016912e+002,-1.081198e-002
6.036197e+002,-1.028806e-002
6.055482e+002,-8.166289e-003
6.074767e+002,-6.647997e-003
6.094052e+002,-6.067402e-003
6.113337e+002,-5.197623e-003
6.132622e+002,-5.311280e-003
6.151907e+002,-5.777549e-003
6.171192e+002,-6.298185e-003
6.190477e+002,-7.350717e-003
6.209762e+002,-7.815714e-003
6.229047e+002,-9.114841e-003
6.248332e+002,-1.219153e-002
6.267617e+002,-1.452330e-002
6.286902e+002,-1.510468e-002
6.306187e+002,-1.438764e-002
6.325472e+002,-1.354083e-002
6.344756e+002,-1.326345e-002
6.364042e+002,-1.350399e-002
6.383326e+002,-1.410829e-002
6.402612e+002,-1.463233e-002
6.421896e+002,-1.400634e-002
6.441182e+002,-1.385999e-002
6.460466e+002,-1.409607e-002
6.479752e+002,-1.425930e-002
6.499036e+002,-1.482938e-002
6.518322e+002,-1.467449e-002
6.537606e+002,-1.456617e-002
6.556891e+002,-1.472513e-002
6.576177e+002,-1.473545e-002
6.595461e+002,-1.493004e-002
6.614746e+002,-1.546090e-002
6.634031e+002,-1.558514e-002
6.653317e+002,-1.433891e-002
6.672601e+002,-9.819448e-003
6.691886e+002,-1.082552e-002
6.711171e+002,-1.409697e-002
6.730457e+002,-1.432583e-002
6.749741e+002,-1.468532e-002
6.769026e+002,-1.488781e-002
6.788311e+002,-1.424564e-002
6.807596e+002,-1.382311e-002
6.826881e+002,-1.417644e-002
6.846166e+002,-1.390396e-002
6.865451e+002,-1.333906e-002
6.884736e+002,-1.308765e-002
6.904021e+002,-1.312835e-002
6.923306e+002,-1.291317e-002
6.942591e+002,-1.269505e-002
6.961876e+002,-1.244156e-002
6.981161e+002,-1.228985e-002
7.000446e+002,-1.247253e-002
7.019731e+002,-1.255228e-002
7.039016e+002,-1.255791e-002
7.058301e+002,-1.293617e-002
7.077585e+002,-1.281483e-002
7.096871e+002,-1.251564e-002
7.116156e+002,-1.266692e-002
7.135441e+002,-1.340653e-002
7.154725e+002,-1.372062e-002
7.174011e+002,-1.382478e-002
7.193296e+002,-1.374299e-002
7.212581e+002,-1.356868e-002
7.231865e+002,-1.328597e-002
7.251151e+002,-1.330853e-002
7.270436e+002,-1.315372e-002
7.289720e+002,-1.299505e-002
7.309005e+002,-1.261176e-002
7.328290e+002,-1.246873e-002
7.347576e+002,-1.261478e-002
7.366860e+002,-1.284530e-002
7.386145e+002,-1.318255e-002
7.405430e+002,-1.288245e-002
7.424716e+002,-1.216924e-002
7.444000e+002,-1.201395e-002
7.463285e+002,-1.186696e-002
7.482570e+002,-1.208743e-002
7.501855e+002,-1.192392e-002
7.521140e+002,-1.141451e-002
7.540425e+002,-1.109726e-002
7.559710e+002,-1.110857e-002
7.578995e+002,-1.079158e-002
7.598280e+002,-1.076033e-002
7.617565e+002,-1.045063e-002
7.636850e+002,-1.030391e-002
7.656135e+002,-1.028035e-002
7.675420e+002,-9.927467e-003
7.694705e+002,-1.013238e-002
7.713990e+002,-1.044555e-002
7.733275e+002,-1.008823e-002
7.752560e+002,-1.039117e-002
7.771844e+002,-1.074927e-002
7.791130e+002,-1.082856e-002
7.810415e+002,-1.073692e-002
7.829700e+002,-1.122886e-002
7.848984e+002,-1.188901e-002
7.868270e+002,-1.191032e-002
7.887555e+002,-1.168982e-002
7.906840e+002,-1.186986e-002
7.926124e+002,-1.227554e-002
7.945410e+002,-1.272832e-002
7.964695e+002,-1.284646e-002
7.983979e+002,-1.288364e-002
8.003264e+002,-1.283150e-002
8.022549e+002,-1.255588e-002
8.041835e+002,-1.243502e-002
8.061119e+002,-1.287618e-002
8.080404e+002,-1.309942e-002
8.099689e+002,-1.269379e-002
8.118975e+002,-1.176048e-002
8.138259e+002,-1.151952e-002
8.157545e+002,-1.200309e-002
8.176830e+002,-1.204447e-002
8.196115e+002,-1.226298e-002
8.215399e+002,-1.255881e-002
8.234684e+002,-1.259705e-002
8.253970e+002,-1.260452e-002
8.273254e+002,-1.237661e-002
8.292539e+002,-1.242759e-002
8.311824e+002,-1.246561e-002
8.331110e+002,-1.231832e-002
8.350394e+002,-1.228692e-002
8.369679e+002,-1.218370e-002
8.388964e+002,-1.207202e-002
8.408250e+002,-1.204785e-002
8.427534e+002,-1.230846e-002
8.446819e+002,-1.280329e-002
8.466104e+002,-1.296852e-002
8.485389e+002,-1.281213e-002
8.504674e+002,-1.268227e-002
8.523959e+002,-1.291667e-002
8.543244e+002,-1.300299e-002
8.562529e+002,-1.296591e-002
8.581814e+002,-1.295813e-002
8.601099e+002,-1.325165e-002
8.620384e+002,-1.345016e-002
8.639669e+002,-1.338388e-002
8.658954e+002,-1.349156e-002
8.678239e+002,-1.376694e-002
8.697524e+002,-1.383585e-002
8.716809e+002,-1.377404e-002
8.736094e+002,-1.359276e-002
8.755378e+002,-1.365965e-002
8.774664e+002,-1.356678e-002
8.793949e+002,-1.349368e-002
8.813234e+002,-1.364347e-002
8.832518e+002,-1.356116e-002
8.851804e+002,-1.345051e-002
8.871089e+002,-1.354565e-002
8.890374e+002,-1.359434e-002
8.909658e+002,-1.345237e-002
8.928943e+002,-1.327682e-002
8.948229e+002,-1.352333e-002
8.967513e+002,-1.371352e-002
8.986798e+002,-1.361836e-002
9.006083e+002,-1.327675e-002
9.025369e+002,-1.323581e-002
9.044653e+002,-1.292787e-002
9.063938e+002,-1.289512e-002
9.083223e+002,-1.331531e-002
9.102509e+002,-1.352625e-002
9.121793e+002,-1.317005e-002
9.141078e+002,-1.327373e-002
9.160364e+002,-1.345960e-002
9.179648e+002,-1.330436e-002
9.198933e+002,-1.341251e-002
9.218218e+002,-1.357086e-002
9.237504e+002,-1.373150e-002
9.256788e+002,-1.384635e-002
9.276073e+002,-1.392141e-002
9.295358e+002,-1.405196e-002
9.314644e+002,-1.420822e-002
9.333928e+002,-1.407419e-002
9.353213e+002,-1.388467e-002
9.372498e+002,-1.405507e-002
9.391783e+002,-1.447520e-002
9.411068e+002,-1.429672e-002
9.430353e+002,-1.393223e-002
9.449637e+002,-1.388807e-002
9.468923e+002,-1.395735e-002
9.488208e+002,-1.427075e-002
9.507493e+002,-1.422964e-002
9.526777e+002,-1.400317e-002
9.546063e+002,-1.386772e-002
9.565348e+002,-1.385072e-002
9.584633e+002,-1.391554e-002
9.603917e+002,-1.396829e-002
9.623203e+002,-1.395530e-002
9.642488e+002,-1.398068e-002
9.661772e+002,-1.383781e-002
9.681057e+002,-1.371625e-002
9.700343e+002,-1.406713e-002
9.719628e+002,-1.407897e-002
9.738912e+002,-1.381194e-002
9.758197e+002,-1.396110e-002
9.777483e+002,-1.411348e-002
9.796768e+002,-1.411393e-002
9.816052e+002,-1.417484e-002
9.835337e+002,-1.431602e-002
9.854623e+002,-1.442440e-002
9.873907e+002,-1.440985e-002
9.893192e+002,-1.437882e-002
9.912477e+002,-1.468820e-002
9.931763e+002,-1.479870e-002
9.951047e+002,-1.472283e-002
9.970332e+002,-1.475815e-002
9.989617e+002,-1.455807e-002
1.000890e+003,-1.428762e-002
1.002819e+003,-1.407862e-002
1.004747e+003,-1.405687e-002
1.006676e+003,-1.412327e-002
1.008604e+003,-1.402123e-002
1.010533e+003,-1.358079e-002
1.012461e+003,-1.323433e-002
1.014390e+003,-1.300386e-002
1.016318e+003,-1.258932e-002
1.018247e+003,-1.217352e-002
1.020175e+003,-1.175297e-002
1.022104e+003,-1.155101e-002
1.024032e+003,-1.138456e-002
1.025961e+003,-1.108409e-002
1.027889e+003,-1.078370e-002
1.029818e+003,-1.036907e-002
1.031746e+003,-9.761493e-003
1.033675e+003,-9.371736e-003
1.035603e+003,-9.141803e-003
1.037532e+003,-8.726745e-003
1.039460e+003,-8.277840e-003
1.041389e+003,-8.043814e-003
1.043317e+003,-7.680476e-003
1.045246e+003,-7.403751e-003
1.047174e+003,-7.323644e-003
1.049103e+003,-7.147416e-003
1.051031e+003,-7.198389e-003
1.052960e+003,-7.290509e-003
1.054888e+003,-7.293800e-003
1.056817e+003,-7.188807e-003
1.058745e+003,-6.932052e-003
1.060674e+003,-6.713645e-003
1.062602e+003,-6.766397e-003
1.064531e+003,-6.978354e-003
1.066459e+003,-7.003004e-003
1.068388e+003,-6.903877e-003
1.070316e+003,-6.805803e-003
1.072245e+003,-6.651456e-003
1.074173e+003,-6.849803e-003
1.076102e+003,-7.107161e-003
1.078030e+003,-7.147676e-003
1.079959e+003,-7.278388e-003
1.081887e+003,-7.191154e-003
1.083816e+003,-6.968377e-003
1.085744e+003,-7.020316e-003
1.087673e+003,-7.070620e-003
1.089601e+003,-6.894093e-003
1.091530e+003,-6.678114e-003
1.093458e+003,-6.642776e-003
1.095387e+003,-6.690904e-003
1.097315e+003,-6.699942e-003
1.099244e+003,-6.633149e-003
1.101172e+003,-6.478643e-003
1.103101e+003,-6.628091e-003
1.105029e+003,-6.629951e-003
1.106958e+003,-6.705194e-003
1.108886e+003,-6.700594e-003
1.110815e+003,-6.714199e-003
1.112743e+003,-6.847944e-003
1.114672e+003,-6.894093e-003
1.116600e+003,-6.649302e-003
1.118529e+003,-6.493528e-003
1.120457e+003,-6.585374e-003
1.122386e+003,-6.623001e-003
1.124314e+003,-6.625774e-003
1.126243e+003,-6.855511e-003
1.128171e+003,-7.147970e-003
1.130100e+003,-7.262031e-003
1.132028e+003,-7.253591e-003
1.133957e+003,-7.410363e-003
1.135885e+003,-7.582252e-003
1.137814e+003,-7.887368e-003
1.139742e+003,-8.447826e-003
1.141671e+003,-8.675952e-003
1.143599e+003,-8.692548e-003
1.145528e+003,-8.991919e-003
1.147456e+003,-9.364700e-003
1.149385e+003,-9.580935e-003
1.151313e+003,-9.832502e-003
1.153242e+003,-1.008444e-002
1.155170e+003,-1.026569e-002
1.157099e+003,-1.033455e-002
1.159027e+003,-1.036467e-002
1.160956e+003,-1.062115e-002
1.162884e+003,-1.072522e-002
1.164813e+003,-1.082688e-002
1.166741e+003,-1.087929e-002
1.168670e+003,-1.092505e-002
1.170598e+003,-1.089610e-002
1.172526e+003,-1.086924e-002
1.174455e+003,-1.096007e-002
1.176384e+003,-1.082329e-002
1.178312e+003,-1.078825e-002
1.180240e+003,-1.098714e-002
1.182169e+003,-1.110230e-002
1.184098e+003,-1.125588e-002
1.186026e+003,-1.146611e-002
1.187954e+003,-1.149406e-002
1.189883e+003,-1.157727e-002
1.191812e+003,-1.169563e-002
1.193740e+003,-1.167582e-002
1.195668e+003,-1.180315e-002
1.197597e+003,-1.213860e-002
1.199526e+003,-1.228376e-002
1.201454e+003,-1.211849e-002
1.203382e+003,-1.203889e-002
1.205311e+003,-1.211089e-002
1.207240e+003,-1.216402e-002
1.209168e+003,-1.221566e-002
1.211096e+003,-1.215751e-002
1.213025e+003,-1.190816e-002
1.214953e+003,-1.185035e-002
1.216882e+003,-1.205369e-002
1.218810e+003,-1.215542e-002
1.220739e+003,-1.213125e-002
1.222667e+003,-1.195358e-002
1.224596e+003,-1.161805e-002
1.226524e+003,-1.150764e-002
1.228453e+003,-1.146776e-002
1.230381e+003,-1.147024e-002
1.232310e+003,-1.141557e-002
1.234238e+003,-1.133933e-002
1.236167e+003,-1.129763e-002
1.238095e+003,-1.114529e-002
1.240024e+003,-1.101958e-002
1.241952e+003,-1.116483e-002
1.243881e+003,-1.140244e-002
1.245809e+003,-1.149544e-002
1.247738e+003,-1.166079e-002
1.249666e+003,-1.163982e-002
1.251595e+003,-1.160540e-002
1.253523e+003,-1.170972e-002
1.255452e+003,-1.180840e-002
1.257380e+003,-1.201475e-002
1.259309e+003,-1.206487e-002
1.261237e+003,-1.200660e-002
1.263166e+003,-1.192476e-002
1.265094e+003,-1.163463e-002
1.267023e+003,-1.122553e-002
1.268951e+003,-1.090750e-002
1.270880e+003,-1.070644e-002
1.272808e+003,-1.068026e-002
1.274737e+003,-1.071724e-002
1.276665e+003,-1.067043e-002
1.278594e+003,-1.043565e-002
1.280522e+003,-1.019990e-002
1.282451e+003,-1.008930e-002
1.284379e+003,-9.917621e-003
1.286308e+003,-9.659525e-003
1.288236e+003,-9.398844e-003
1.290165e+003,-9.217293e-003
1.292093e+003,-9.035341e-003
1.294022e+003,-8.835652e-003
1.295950e+003,-8.700667e-003
1.297879e+003,-8.619759e-003
1.299807e+003,-8.709468e-003
1.301736e+003,-8.909215e-003
1.303664e+003,-9.092291e-003
1.305593e+003,-9.189493e-003
1.307521e+003,-9.240096e-003
1.309450e+003,-9.321829e-003
1.311378e+003,-9.710917e-003
1.313307e+003,-1.005252e-002
1.315235e+003,-1.022877e-002
1.317164e+003,-1.036283e-002
1.319092e+003,-1.075619e-002
1.321021e+003,-1.105195e-002
1.322949e+003,-1.115711e-002
1.324878e+003,-1.129937e-002
1.326806e+003,-1.142810e-002
1.328735e+003,-1.140237e-002
1.330663e+003,-1.145240e-002
1.332592e+003,-1.151074e-002
1.334520e+003,-1.158763e-002
1.336449e+003,-1.158866e-002
1.338377e+003,-1.144810e-002
1.340306e+003,-1.145178e-002
1.342234e+003,-1.164947e-002
1.344163e+003,-1.183097e-002
1.346091e+003,-1.188662e-002
1.348020e+003,-1.184116e-002
1.349948e+003,-1.185399e-002
1.351877e+003,-1.191041e-002
1.353805e+003,-1.192189e-002
1.355734e+003,-1.186144e-002
1.357662e+003,-1.193711e-002
1.359591e+003,-1.205114e-002
1.361519e+003,-1.206667e-002
1.363448e+003,-1.212384e-002
1.365376e+003,-1.240228e-002
1.367305e+003,-1.255479e-002
1.369233e+003,-1.265295e-002
1.371162e+003,-1.265360e-002
1.373090e+003,-1.243792e-002
1.375019e+003,-1.246667e-002
1.376947e+003,-1.260120e-002
1.378876e+003,-1.260439e-002
1.380804e+003,-1.265476e-002
1.382733e+003,-1.272748e-002
1.384661e+003,-1.277854e-002
1.386590e+003,-1.259428e-002
1.388518e+003,-1.274772e-002
1.390447e+003,-1.319496e-002
1.392375e+003,-1.337109e-002
1.394304e+003,-1.324044e-002
1.396232e+003,-1.337717e-002
1.398161e+003,-1.340403e-002
1.400089e+003,-1.331602e-002
1.402018e+003,-1.342063e-002
1.403946e+003,-1.354437e-002
1.405875e+003,-1.366559e-002
1.407803e+003,-1.385697e-002
1.409732e+003,-1.394711e-002
1.411660e+003,-1.395446e-002
1.413589e+003,-1.387308e-002
1.415517e+003,-1.359379e-002
1.417446e+003,-1.309649e-002
1.419374e+003,-1.254510e-002
1.421303e+003,-1.250379e-002
1.423231e+003,-1.223196e-002
1.425160e+003,-1.169911e-002
1.427088e+003,-1.139159e-002
1.429017e+003,-1.099283e-002
1.430945e+003,-1.066373e-002
1.432874e+003,-1.024314e-002
1.434802e+003,-9.669701e-003
1.436731e+003,-8.991822e-003
1.438659e+003,-8.966409e-003
1.440588e+003,-8.951250e-003
1.442516e+003,-8.568238e-003
1.444445e+003,-8.143104e-003
1.446373e+003,-7.628649e-003
1.448302e+003,-7.195651e-003
1.450230e+003,-7.030064e-003
1.452159e+003,-6.756219e-003
1.454087e+003,-6.228392e-003
1.456016e+003,-5.208623e-003
1.457944e+003,-4.738367e-003
1.459873e+003,-5.220082e-003
1.461801e+003,-5.539162e-003
1.463730e+003,-5.455634e-003
1.465658e+003,-5.426512e-003
1.467587e+003,-5.838850e-003
1.469515e+003,-6.073676e-003
1.471444e+003,-5.907857e-003
1.473372e+003,-6.028322e-003
1.475301e+003,-6.665780e-003
1.477229e+003,-7.250985e-003
1.479158e+003,-7.873669e-003
1.481086e+003,-8.228652e-003
1.483015e+003,-8.688943e-003
1.484943e+003,-9.131356e-003
1.486872e+003,-9.292186e-003
1.488800e+003,-9.400822e-003
1.490729e+003,-9.613054e-003
1.492657e+003,-1.019359e-002
1.494586e+003,-1.056544e-002
1.496514e+003,-1.060479e-002
1.498443e+003,-1.082733e-002
1.500371e+003,-1.121846e-002
1.502300e+003,-1.156917e-002
1.504228e+003,-1.138756e-002
1.506157e+003,-1.064890e-002
1.508085e+003,-1.101283e-002
1.510014e+003,-1.188443e-002
1.511942e+003,-1.222581e-002
1.513871e+003,-1.236318e-002
1.515799e+003,-1.212661e-002
1.517728e+003,-1.198178e-002
1.519656e+003,-1.191464e-002
1.521585e+003,-1.164966e-002
1.523513e+003,-1.193972e-002
1.525442e+003,-1.204524e-002
1.527370e+003,-1.222040e-002
1.529299e+003,-1.232582e-002
1.531227e+003,-1.224662e-002
1.533156e+003,-1.183159e-002
1.535084e+003,-1.185993e-002
1.537013e+003,-1.190835e-002
1.538941e+003,-1.104594e-002
1.540870e+003,-1.053588e-002
1.542798e+003,-1.079427e-002
1.544727e+003,-1.103751e-002
1.546655e+003,-1.132077e-002
1.548584e+003,-1.135467e-002
1.550512e+003,-1.119434e-002
1.552441e+003,-1.102207e-002
1.554369e+003,-1.073179e-002
1.556298e+003,-1.045897e-002
1.558226e+003,-9.451337e-003
1.560155e+003,-9.132394e-003
1.562083e+003,-9.730713e-003
1.564012e+003,-9.720022e-003
1.565940e+003,-9.603493e-003
1.567869e+003,-9.254173e-003
1.569797e+003,-8.686246e-003
1.571726e+003,-8.856365e-003
1.573654e+003,-8.921843e-003
1.575583e+003,-8.265941e-003
1.577511e+003,-8.203422e-003
1.579440e+003,-8.679426e-003
1.581368e+003,-8.715476e-003
1.583297e+003,-8.760387e-003
1.585225e+003,-8.823282e-003
1.587154e+003,-8.989355e-003
1.589082e+003,-9.159192e-003
1.591010e+003,-9.414700e-003
1.592939e+003,-9.626762e-003
1.594868e+003,-9.633860e-003
1.596796e+003,-9.813746e-003
1.598724e+003,-1.016042e-002
1.600653e+003,-1.047311e-002
1.602582e+003,-1.078415e-002
1.604510e+003,-1.115120e-002
1.606438e+003,-1.147473e-002
1.608367e+003,-1.163756e-002
1.610296e+003,-1.188517e-002
1.612224e+003,-1.229091e-002
1.614152e+003,-1.244845e-002
1.616081e+003,-1.208034e-002
1.618010e+003,-1.215413e-002
1.619938e+003,-1.266097e-002
1.621866e+003,-1.272008e-002
1.623795e+003,-1.283851e-002
1.625724e+003,-1.308633e-002
1.627652e+003,-1.327862e-002
1.629580e+003,-1.352208e-002
1.631509e+003,-1.381820e-002
1.633438e+003,-1.373455e-002
1.635366e+003,-1.333096e-002
1.637294e+003,-1.369693e-002
1.639223e+003,-1.447424e-002
1.641151e+003,-1.491964e-002
1.643080e+003,-1.525781e-002
1.645008e+003,-1.513133e-002
1.646937e+003,-1.488586e-002
1.648865e+003,-1.552158e-002
1.650794e+003,-1.586159e-002
1.652722e+003,-1.496465e-002
1.654651e+003,-1.544616e-002
1.656579e+003,-1.650692e-002
1.658508e+003,-1.687962e-002
1.660436e+003,-1.696503e-002
1.662365e+003,-1.681728e-002
1.664293e+003,-1.694017e-002
1.666222e+003,-1.720697e-002
1.668150e+003,-1.694167e-002
1.670079e+003,-1.672633e-002
1.672007e+003,-1.701680e-002
1.673936e+003,-1.700205e-002
1.675864e+003,-1.687694e-002
1.677793e+003,-1.722945e-002
1.679721e+003,-1.726722e-002
1.681650e+003,-1.715254e-002
1.683578e+003,-1.650868e-002
1.685507e+003,-1.653891e-002
1.687435e+003,-1.708390e-002
1.689364e+003,-1.718315e-002
1.691292e+003,-1.717576e-002
1.693221e+003,-1.700785e-002
1.695149e+003,-1.639156e-002
1.697078e+003,-1.620678e-002
1.699006e+003,-1.608691e-002
1.700935e+003,-1.570627e-002
1.702863e+003,-1.622568e-002
1.704792e+003,-1.615175e-002
1.706720e+003,-1.614064e-002
1.708649e+003,-1.629535e-002
1.710577e+003,-1.642165e-002
1.712506e+003,-1.628572e-002
1.714434e+003,-1.601222e-002
1.716363e+003,-1.566712e-002
1.718291e+003,-1.557945e-002
1.720220e+003,-1.604514e-002
1.722148e+003,-1.627030e-002
1.724077e+003,-1.627614e-002
1.726005e+003,-1.625300e-002
1.727934e+003,-1.615006e-002
1.729862e+003,-1.615389e-002
1.731791e+003,-1.604310e-002
1.733719e+003,-1.555681e-002
1.735648e+003,-1.578357e-002
1.737576e+003,-1.623905e-002
1.739505e+003,-1.598418e-002
1.741433e+003,-1.601081e-002
1.743362e+003,-1.601215e-002
1.745290e+003,-1.593851e-002
1.747219e+003,-1.578392e-002
1.749147e+003,-1.559508e-002
1.751076e+003,-1.536496e-002
1.753004e+003,-1.554121e-002
1.754933e+003,-1.566920e-002
1.756861e+003,-1.557484e-002
1.758790e+003,-1.576085e-002
1.760718e+003,-1.567332e-002
1.762647e+003,-1.555343e-002
1.764575e+003,-1.577398e-002
1.766504e+003,-1.567751e-002
1.768432e+003,-1.552264e-002
1.770361e+003,-1.546240e-002
1.772289e+003,-1.515028e-002
1.774218e+003,-1.522316e-002
1.776146e+003,-1.554582e-002
1.778075e+003,-1.575807e-002
1.780003e+003,-1.578967e-002
1.781932e+003,-1.577842e-002
1.783860e+003,-1.581791e-002
1.785789e+003,-1.567307e-002
1.787717e+003,-1.571228e-002
1.789646e+003,-1.572966e-002
1.791574e+003,-1.540033e-002
1.793503e+003,-1.530067e-002
1.795431e+003,-1.560655e-002
1.797360e+003,-1.568361e-002
1.799288e+003,-1.565779e-002
1.801217e+003,-1.567093e-002
1.803145e+003,-1.580111e-002
1.805074e+003,-1.581159e-002
1.807002e+003,-1.582814e-002
1.808931e+003,-1.589673e-002
1.810859e+003,-1.586421e-002
1.812788e+003,-1.582165e-002
1.814716e+003,-1.593550e-002
1.816645e+003,-1.594624e-002
1.818573e+003,-1.591314e-002
1.820502e+003,-1.590532e-002
1.822430e+003,-1.586149e-002
1.824359e+003,-1.569873e-002
1.826287e+003,-1.569349e-002
1.828216e+003,-1.575047e-002
1.830144e+003,-1.575341e-002
1.832073e+003,-1.599072e-002
1.834001e+003,-1.605140e-002
1.835930e+003,-1.598881e-002
1.837858e+003,-1.597600e-002
1.839787e+003,-1.595738e-002
1.841715e+003,-1.598986e-002
1.843644e+003,-1.570595e-002
1.845572e+003,-1.574781e-002
1.847501e+003,-1.608448e-002
1.849429e+003,-1.613879e-002
1.851358e+003,-1.601132e-002
1.853286e+003,-1.590992e-002
1.855215e+003,-1.589564e-002
1.857143e+003,-1.593167e-002
1.859072e+003,-1.597817e-002
1.861000e+003,-1.603067e-002
1.862929e+003,-1.604389e-002
1.864857e+003,-1.591781e-002
1.866786e+003,-1.584338e-002
1.868714e+003,-1.577718e-002
1.870643e+003,-1.586750e-002
1.872571e+003,-1.606251e-002
1.874500e+003,-1.607350e-002
1.876428e+003,-1.600624e-002
1.878357e+003,-1.591819e-002
1.880285e+003,-1.592911e-002
1.882214e+003,-1.600724e-002
1.884142e+003,-1.603518e-002
1.886071e+003,-1.608655e-002
1.887999e+003,-1.604035e-002
1.889928e+003,-1.601860e-002
1.891856e+003,-1.614731e-002
1.893785e+003,-1.610919e-002
1.895713e+003,-1.604495e-002
1.897642e+003,-1.604540e-002
1.899570e+003,-1.599650e-002
1.901499e+003,-1.604255e-002
1.903427e+003,-1.615600e-002
1.905356e+003,-1.610242e-002
1.907284e+003,-1.602026e-002
1.909213e+003,-1.600414e-002
1.911141e+003,-1.609051e-002
1.913070e+003,-1.616608e-002
1.914998e+003,-1.610932e-002
1.916927e+003,-1.599117e-002
1.918855e+003,-1.592838e-002
1.920784e+003,-1.597894e-002
1.922712e+003,-1.598842e-002
1.924641e+003,-1.606047e-002
1.926569e+003,-1.600957e-002
1.928498e+003,-1.597763e-002
1.930426e+003,-1.596926e-002
1.932355e+003,-1.602914e-002
1.934283e+003,-1.616015e-002
1.936212e+003,-1.623861e-002
1.938140e+003,-1.623417e-002
1.940069e+003,-1.613480e-002
1.941997e+003,-1.600829e-002
1.943926e+003,-1.601602e-002
1.945854e+003,-1.613052e-002
1.947783e+003,-1.617575e-002
1.949711e+003,-1.617515e-002
1.951640e+003,-1.618080e-002
1.953568e+003,-1.622089e-002
1.955497e+003,-1.622498e-002
1.957425e+003,-1.626140e-002
1.959354e+003,-1.615903e-002
1.961282e+003,-1.613879e-002
1.963211e+003,-1.620327e-002
1.965139e+003,-1.626337e-002
1.967068e+003,-1.621192e-002
1.968996e+003,-1.634261e-002
1.970925e+003,-1.635244e-002
1.972853e+003,-1.624454e-002
1.974782e+003,-1.622003e-002
1.976710e+003,-1.619038e-002
1.978639e+003,-1.615596e-002
1.980567e+003,-1.619631e-002
1.982496e+003,-1.624473e-002
1.984424e+003,-1.624694e-002
1.986353e+003,-1.616832e-002
1.988281e+003,-1.619654e-002
1.990210e+003,-1.622858e-002
1.992138e+003,-1.607442e-002
1.994067e+003,-1.611855e-002
1.995995e+003,-1.628032e-002
1.997924e+003,-1.630636e-002
1.999852e+003,-1.624502e-002
2.001781e+003,-1.624397e-002
2.003709e+003,-1.616005e-002
2.005638e+003,-1.611216e-002
2.007566e+003,-1.608212e-002
2.009495e+003,-1.602384e-002
2.011423e+003,-1.611459e-002
2.013352e+003,-1.613611e-002
2.015280e+003,-1.608821e-002
2.017208e+003,-1.610204e-002
2.019137e+003,-1.613700e-002
2.021066e+003,-1.616027e-002
2.022994e+003,-1.620212e-002
2.024922e+003,-1.618702e-002
2.026851e+003,-1.614217e-002
2.028780e+003,-1.605185e-002
2.030708e+003,-1.605188e-002
2.032636e+003,-1.604814e-002
2.034565e+003,-1.609479e-002
2.036494e+003,-1.622737e-002
2.038422e+003,-1.623739e-002
2.040350e+003,-1.615590e-002
2.042279e+003,-1.613390e-002
2.044208e+003,-1.622338e-002
2.046136e+003,-1.623819e-002
2.048064e+003,-1.615619e-002
2.049993e+003,-1.609543e-002
2.051921e+003,-1.607429e-002
2.053850e+003,-1.599031e-002
2.055778e+003,-1.599197e-002
2.057707e+003,-1.602196e-002
2.059635e+003,-1.600062e-002
2.061564e+003,-1.597524e-002
2.063492e+003,-1.608646e-002
2.065421e+003,-1.612049e-002
2.067349e+003,-1.605743e-002
2.069278e+003,-1.608994e-002
2.071206e+003,-1.617690e-002
2.073135e+003,-1.611025e-002
2.075063e+003,-1.598996e-002
2.076992e+003,-1.593857e-002
2.078920e+003,-1.599235e-002
2.080849e+003,-1.598798e-002
2.082777e+003,-1.596910e-002
2.084706e+003,-1.604549e-002
2.086634e+003,-1.612416e-002
2.088563e+003,-1.613515e-002
2.090491e+003,-1.608240e-002
2.092420e+003,-1.612177e-002
2.094348e+003,-1.609939e-002
2.096277e+003,-1.605229e-002
2.098205e+003,-1.602196e-002
2.100134e+003,-1.606347e-002
2.102062e+003,-1.605712e-002
2.103991e+003,-1.600947e-002
2.105919e+003,-1.600557e-002
2.107848e+003,-1.597619e-002
2.109776e+003,-1.596757e-002
2.111705e+003,-1.594700e-002
2.113633e+003,-1.584229e-002
2.115562e+003,-1.573950e-002
2.117490e+003,-1.579414e-002
2.119419e+003,-1.575232e-002
2.121347e+003,-1.572691e-002
2.123276e+003,-1.581089e-002
2.125204e+003,-1.585884e-002
2.127133e+003,-1.581169e-002
2.129061e+003,-1.565645e-002
2.130990e+003,-1.561269e-002
2.132918e+003,-1.570493e-002
2.134847e+003,-1.579120e-002
2.136775e+003,-1.570608e-002
2.138704e+003,-1.563334e-002
2.140632e+003,-1.561365e-002
2.142561e+003,-1.563996e-002
2.144489e+003,-1.567214e-002
2.146418e+003,-1.564695e-002
2.148346e+003,-1.557149e-002
2.150275e+003,-1.552699e-002
2.152203e+003,-1.549223e-002
2.154132e+003,-1.551417e-002
2.156060e+003,-1.558782e-002
2.157989e+003,-1.554454e-002
2.159917e+003,-1.550611e-002
2.161846e+003,-1.558255e-002
2.163774e+003,-1.550806e-002
2.165703e+003,-1.534721e-002
2.167631e+003,-1.530570e-002
2.169560e+003,-1.531488e-002
2.171488e+003,-1.535083e-002
2.173417e+003,-1.543743e-002
2.175345e+003,-1.547100e-002
2.177274e+003,-1.535121e-002
2.179202e+003,-1.534382e-002
2.181131e+003,-1.542796e-002
2.183059e+003,-1.542083e-002
2.184988e+003,-1.530630e-002
2.186916e+003,-1.528340e-002
2.188845e+003,-1.542553e-002
2.190773e+003,-1.553114e-002
2.192702e+003,-1.550755e-002
2.194630e+003,-1.543027e-002
2.196559e+003,-1.539928e-002
2.198487e+003,-1.541853e-002
2.200416e+003,-1.544277e-002
2.202344e+003,-1.543113e-002
2.204273e+003,-1.540043e-002
2.206201e+003,-1.542988e-002
2.208130e+003,-1.543861e-002
2.210058e+003,-1.547324e-002
2.211987e+003,-1.551848e-002
2.213915e+003,-1.555378e-002
2.215844e+003,-1.553587e-002
2.217772e+003,-1.556855e-002
2.219701e+003,-1.553098e-002
2.221629e+003,-1.555461e-002
2.223558e+003,-1.563516e-002
2.225486e+003,-1.560540e-002
2.227415e+003,-1.559917e-002
2.229343e+003,-1.568157e-002
2.231272e+003,-1.571618e-002
2.233200e+003,-1.568371e-002
2.235129e+003,-1.563618e-002
2.237057e+003,-1.567489e-002
2.238986e+003,-1.573899e-002
2.240914e+003,-1.581274e-002
2.242843e+003,-1.581389e-002
2.244771e+003,-1.579766e-002
2.246700e+003,-1.582989e-002
2.248628e+003,-1.581526e-002
2.250557e+003,-1.590724e-002
2.252485e+003,-1.597000e-002
2.254414e+003,-1.587654e-002
2.256342e+003,-1.585862e-002
2.258271e+003,-1.589819e-002
2.260199e+003,-1.585970e-002
2.262128e+003,-1.584427e-002
2.264056e+003,-1.584622e-002
2.265985e+003,-1.585482e-002
2.267913e+003,-1.587727e-002
2.269842e+003,-1.584488e-002
2.271770e+003,-1.584184e-002
2.273699e+003,-1.585756e-002
2.275627e+003,-1.587063e-002
2.277556e+003,-1.586874e-002
2.279484e+003,-1.585005e-002
2.281413e+003,-1.578584e-002
2.283341e+003,-1.586124e-002
2.285270e+003,-1.595320e-002
2.287198e+003,-1.596482e-002
2.289127e+003,-1.580239e-002
2.291055e+003,-1.572100e-002
2.292984e+003,-1.575142e-002
2.294912e+003,-1.577024e-002
2.296841e+003,-1.566888e-002
2.298769e+003,-1.537609e-002
2.300698e+003,-1.517943e-002
2.302626e+003,-1.496385e-002
2.304555e+003,-1.477628e-002
2.306483e+003,-1.461596e-002
2.308412e+003,-1.435404e-002
2.310340e+003,-1.402655e-002
2.312269e+003,-1.354154e-002
2.314197e+003,-1.292285e-002
2.316125e+003,-1.230292e-002
2.318054e+003,-1.168111e-002
2.319983e+003,-1.102636e-002
2.321911e+003,-1.027408e-002
2.323840e+003,-9.610008e-003
2.325768e+003,-9.259040e-003
2.327697e+003,-8.630414e-003
2.329625e+003,-7.793128e-003
2.331553e+003,-7.446551e-003
2.333482e+003,-7.382642e-003
2.335411e+003,-7.211001e-003
2.337339e+003,-6.998374e-003
2.339268e+003,-6.947215e-003
2.341196e+003,-7.137898e-003
2.343125e+003,-7.656288e-003
2.345053e+003,-8.938981e-003
2.346981e+003,-1.103428e-002
2.348910e+003,-1.236821e-002
2.350839e+003,-1.108948e-002
2.352767e+003,-8.576717e-003
2.354696e+003,-6.485922e-003
2.356624e+003,-5.129551e-003
2.358552e+003,-4.471632e-003
2.360481e+003,-4.214085e-003
2.362409e+003,-4.135554e-003
2.364338e+003,-4.415058e-003
2.366267e+003,-5.110821e-003
2.368195e+003,-6.176717e-003
2.370124e+003,-7.489151e-003
2.372052e+003,-9.052281e-003
2.373980e+003,-1.062995e-002
2.375909e+003,-1.210415e-002
2.377838e+003,-1.349115e-002
2.379766e+003,-1.469515e-002
2.381695e+003,-1.543567e-002
2.383623e+003,-1.566523e-002
2.385552e+003,-1.579041e-002
2.387480e+003,-1.589823e-002
2.389408e+003,-1.585676e-002
2.391337e+003,-1.580574e-002
2.393266e+003,-1.583443e-002
2.395194e+003,-1.579670e-002
2.397123e+003,-1.574308e-002
2.399051e+003,-1.571199e-002
2.400979e+003,-1.572193e-002
2.402908e+003,-1.575935e-002
2.404836e+003,-1.573356e-002
2.406765e+003,-1.578018e-002
2.408694e+003,-1.584606e-002
2.410622e+003,-1.577699e-002
2.412551e+003,-1.567863e-002
2.414479e+003,-1.563478e-002
2.416407e+003,-1.564456e-002
2.418336e+003,-1.563673e-002
2.420264e+003,-1.565616e-002
2.422193e+003,-1.561864e-002
2.424122e+003,-1.554828e-002
2.426050e+003,-1.557609e-002
2.427979e+003,-1.558744e-002
2.429907e+003,-1.552919e-002
2.431835e+003,-1.549735e-002
2.433764e+003,-1.543621e-002
2.435692e+003,-1.543196e-002
2.437621e+003,-1.541773e-002
2.439550e+003,-1.542429e-002
2.441478e+003,-1.543960e-002
2.443406e+003,-1.540858e-002
2.445335e+003,-1.541581e-002
2.447263e+003,-1.541322e-002
2.449192e+003,-1.541882e-002
2.451121e+003,-1.546310e-002
2.453049e+003,-1.550061e-002
2.454978e+003,-1.543746e-002
2.456906e+003,-1.536096e-002
2.458834e+003,-1.533301e-002
2.460763e+003,-1.529079e-002
2.462691e+003,-1.542857e-002
2.464620e+003,-1.545111e-002
2.466549e+003,-1.524911e-002
2.468477e+003,-1.524770e-002
2.470406e+003,-1.531702e-002
2.472334e+003,-1.531449e-002
2.474262e+003,-1.530739e-002
2.476191e+003,-1.534638e-002
2.478119e+003,-1.533352e-002
2.480048e+003,-1.531398e-002
2.481977e+003,-1.518758e-002
2.483905e+003,-1.519350e-002
2.485833e+003,-1.527000e-002
2.487762e+003,-1.520476e-002
2.489690e+003,-1.523852e-002
2.491619e+003,-1.518032e-002
2.493547e+003,-1.507741e-002
2.495476e+003,-1.502441e-002
2.497405e+003,-1.504851e-002
2.499333e+003,-1.513408e-002
2.501261e+003,-1.514279e-002
2.503190e+003,-1.508983e-002
2.505118e+003,-1.498597e-002
2.507047e+003,-1.502678e-002
2.508975e+003,-1.510868e-002
2.510904e+003,-1.507072e-002
2.512833e+003,-1.499150e-002
2.514761e+003,-1.499842e-002
2.516689e+003,-1.499077e-002
2.518618e+003,-1.492710e-002
2.520546e+003,-1.489153e-002
2.522475e+003,-1.495027e-002
2.524403e+003,-1.503356e-002
2.526332e+003,-1.500732e-002
2.528260e+003,-1.495229e-002
2.530189e+003,-1.495111e-002
2.532117e+003,-1.497851e-002
2.534046e+003,-1.501205e-002
2.535974e+003,-1.496004e-002
2.537903e+003,-1.494288e-002
2.539831e+003,-1.491141e-002
2.541760e+003,-1.494598e-002
2.543688e+003,-1.492694e-002
2.545617e+003,-1.486870e-002
2.547545e+003,-1.483354e-002
2.549474e+003,-1.489851e-002
2.551402e+003,-1.501391e-002
2.553331e+003,-1.497201e-002
2.555259e+003,-1.484404e-002
2.557188e+003,-1.483412e-002
2.559116e+003,-1.488845e-002
2.561045e+003,-1.487001e-002
2.562973e+003,-1.481503e-002
2.564902e+003,-1.481132e-002
2.566830e+003,-1.481868e-002
2.568759e+003,-1.490641e-002
2.570687e+003,-1.491243e-002
2.572616e+003,-1.480786e-002
2.574544e+003,-1.465508e-002
2.576473e+003,-1.463865e-002
2.578401e+003,-1.469256e-002
2.580330e+003,-1.479169e-002
2.582258e+003,-1.488445e-002
2.584187e+003,-1.483053e-002
2.586115e+003,-1.482332e-002
2.588044e+003,-1.489860e-002
2.589972e+003,-1.487049e-002
2.591901e+003,-1.470057e-002
2.593829e+003,-1.472664e-002
2.595758e+003,-1.486899e-002
2.597686e+003,-1.491058e-002
2.599615e+003,-1.483348e-002
2.601543e+003,-1.474032e-002
2.603472e+003,-1.477004e-002
2.605400e+003,-1.481628e-002
2.607329e+003,-1.471312e-002
2.609257e+003,-1.455989e-002
2.611186e+003,-1.452526e-002
2.613114e+003,-1.462170e-002
2.615043e+003,-1.472689e-002
2.616971e+003,-1.472228e-002
2.618900e+003,-1.466837e-002
2.620828e+003,-1.464351e-002
2.622757e+003,-1.452385e-002
2.624685e+003,-1.446549e-002
2.626614e+003,-1.454028e-002
2.628542e+003,-1.454429e-002
2.630471e+003,-1.450074e-002
2.632399e+003,-1.450263e-002
2.634328e+003,-1.453654e-002
2.636256e+003,-1.450039e-002
2.638185e+003,-1.440472e-002
2.640113e+003,-1.436626e-002
2.642042e+003,-1.438389e-002
2.643970e+003,-1.427710e-002
2.645899e+003,-1.420255e-002
2.647827e+003,-1.420912e-002
2.649756e+003,-1.415621e-002
2.651684e+003,-1.413825e-002
2.653613e+003,-1.422528e-002
2.655541e+003,-1.414687e-002
2.657470e+003,-1.409822e-002
2.659398e+003,-1.408006e-002
2.661327e+003,-1.402463e-002
2.663255e+003,-1.403105e-002
2.665184e+003,-1.406091e-002
2.667112e+003,-1.400878e-002
2.669041e+003,-1.393396e-002
2.670969e+003,-1.388611e-002
2.672898e+003,-1.390851e-002
2.674826e+003,-1.388557e-002
2.676755e+003,-1.385566e-002
2.678683e+003,-1.391650e-002
2.680612e+003,-1.384170e-002
2.682540e+003,-1.377940e-002
2.684469e+003,-1.377708e-002
2.686397e+003,-1.366010e-002
2.688326e+003,-1.359418e-002
2.690254e+003,-1.353823e-002
2.692183e+003,-1.357125e-002
2.694111e+003,-1.352699e-002
2.696040e+003,-1.352147e-002
2.697968e+003,-1.351405e-002
2.699897e+003,-1.333626e-002
2.701825e+003,-1.323697e-002
2.703754e+003,-1.327907e-002
2.705682e+003,-1.317027e-002
2.707611e+003,-1.314211e-002
2.709539e+003,-1.317783e-002
2.711468e+003,-1.307836e-002
2.713396e+003,-1.296762e-002
2.715325e+003,-1.294983e-002
2.717253e+003,-1.292526e-002
2.719182e+003,-1.285157e-002
2.721110e+003,-1.280232e-002
2.723039e+003,-1.272623e-002
2.724967e+003,-1.271516e-002
2.726896e+003,-1.269389e-002
2.728824e+003,-1.267191e-002
2.730753e+003,-1.255855e-002
2.732681e+003,-1.246777e-002
2.734610e+003,-1.245679e-002
2.736538e+003,-1.239709e-002
2.738467e+003,-1.230415e-002
2.740395e+003,-1.215480e-002
2.742324e+003,-1.212912e-002
2.744252e+003,-1.209242e-002
2.746181e+003,-1.203480e-002
2.748109e+003,-1.199039e-002
2.750038e+003,-1.183697e-002
2.751966e+003,-1.173559e-002
2.753895e+003,-1.168011e-002
2.755823e+003,-1.149925e-002
2.757752e+003,-1.133879e-002
2.759680e+003,-1.118869e-002
2.761609e+003,-1.099280e-002
2.763537e+003,-1.071084e-002
2.765466e+003,-1.049908e-002
2.767394e+003,-1.030207e-002
2.769323e+003,-1.000476e-002
2.771251e+003,-9.633925e-003
2.773180e+003,-9.336779e-003
2.775108e+003,-8.972802e-003
2.777037e+003,-8.481718e-003
2.778965e+003,-8.002633e-003
2.780894e+003,-7.343485e-003
2.782822e+003,-6.562137e-003
2.784750e+003,-5.815279e-003
2.786679e+003,-5.097263e-003
2.788608e+003,-4.455201e-003
2.790536e+003,-3.720182e-003
2.792465e+003,-3.057161e-003
2.794393e+003,-2.344619e-003
2.796322e+003,-1.534308e-003
2.798250e+003,-8.732968e-004
2.800178e+003,-2.944286e-004
2.802107e+003,3.208891e-004
2.804036e+003,8.320966e-004
2.805964e+003,1.169515e-003
2.807893e+003,1.489408e-003
2.809821e+003,1.793599e-003
2.811750e+003,1.909232e-003
2.813678e+003,1.764688e-003
2.815606e+003,1.644836e-003
2.817535e+003,1.526049e-003
2.819464e+003,1.289734e-003
2.821392e+003,9.529525e-004
2.823321e+003,5.730666e-004
2.825249e+003,1.273859e-004
2.827177e+003,-4.316214e-004
2.829106e+003,-1.030901e-003
2.831034e+003,-1.699495e-003
2.832963e+003,-2.324746e-003
2.834892e+003,-2.761868e-003
2.836820e+003,-3.310331e-003
2.838749e+003,-4.069909e-003
2.840677e+003,-4.790082e-003
2.842605e+003,-5.449647e-003
2.844534e+003,-6.140848e-003
2.846462e+003,-6.937791e-003
2.848391e+003,-7.740826e-003
2.850320e+003,-8.306089e-003
2.852248e+003,-8.529350e-003
2.854177e+003,-8.602056e-003
2.856105e+003,-8.597508e-003
2.858033e+003,-8.662018e-003
2.859962e+003,-8.658023e-003
2.861890e+003,-8.696802e-003
2.863819e+003,-8.713073e-003
2.865748e+003,-8.708623e-003
2.867676e+003,-8.674425e-003
2.869604e+003,-8.614627e-003
2.871533e+003,-8.587438e-003
2.873461e+003,-8.445486e-003
2.875390e+003,-8.243347e-003
2.877319e+003,-8.093055e-003
2.879247e+003,-8.004032e-003
2.881176e+003,-7.873441e-003
2.883104e+003,-7.789678e-003
2.885032e+003,-7.689461e-003
2.886961e+003,-7.765074e-003
2.888889e+003,-7.884960e-003
2.890818e+003,-7.897031e-003
2.892747e+003,-7.945574e-003
2.894675e+003,-8.172467e-003
2.896604e+003,-8.287690e-003
2.898532e+003,-8.358096e-003
2.900460e+003,-8.418417e-003
2.902389e+003,-8.471872e-003
2.904317e+003,-8.561904e-003
2.906246e+003,-8.600984e-003
2.908175e+003,-8.752821e-003
2.910103e+003,-8.903340e-003
2.912031e+003,-9.135833e-003
2.913960e+003,-9.462133e-003
2.915888e+003,-9.645850e-003
2.917817e+003,-9.555979e-003
2.919745e+003,-9.247038e-003
2.921674e+003,-8.994710e-003
2.923603e+003,-8.697874e-003
2.925531e+003,-8.368204e-003
2.927459e+003,-8.029014e-003
2.929388e+003,-7.852323e-003
2.931316e+003,-7.725560e-003
2.933245e+003,-7.521978e-003
2.935173e+003,-7.343224e-003
2.937102e+003,-7.270372e-003
2.939031e+003,-7.125056e-003
2.940959e+003,-7.089494e-003
2.942887e+003,-7.247302e-003
2.944816e+003,-7.394956e-003
2.946744e+003,-7.540247e-003
2.948673e+003,-7.773601e-003
2.950601e+003,-8.259505e-003
2.952530e+003,-8.821107e-003
2.954458e+003,-9.311030e-003
2.956387e+003,-9.859840e-003
2.958315e+003,-1.046334e-002
2.960244e+003,-1.110618e-002
2.962172e+003,-1.164663e-002
2.964101e+003,-1.214030e-002
2.966029e+003,-1.269315e-002
2.967958e+003,-1.322347e-002
2.969886e+003,-1.367766e-002
2.971815e+003,-1.398780e-002
2.973743e+003,-1.429775e-002
2.975672e+003,-1.464566e-002
2.977600e+003,-1.492674e-002
2.979529e+003,-1.521775e-002
2.981457e+003,-1.547369e-002
2.983386e+003,-1.569016e-002
2.985314e+003,-1.592605e-002
2.987243e+003,-1.615714e-002
2.989171e+003,-1.631131e-002
2.991100e+003,-1.650462e-002
2.993028e+003,-1.664751e-002
2.994957e+003,-1.668312e-002
2.996885e+003,-1.682260e-002
2.998814e+003,-1.692647e-002
3.000742e+003,-1.698281e-002
3.002671e+003,-1.699638e-002
3.004599e+003,-1.698080e-002
3.006528e+003,-1.694371e-002
3.008456e+003,-1.702525e-002
3.010385e+003,-1.717213e-002
3.012313e+003,-1.724140e-002
3.014242e+003,-1.726480e-002
3.016170e+003,-1.720474e-002
3.018099e+003,-1.710763e-002
3.020027e+003,-1.729470e-002
3.021956e+003,-1.736408e-002
3.023884e+003,-1.736646e-002
3.025813e+003,-1.752214e-002
3.027741e+003,-1.768686e-002
3.029670e+003,-1.773089e-002
3.031598e+003,-1.766055e-002
3.033527e+003,-1.767990e-002
3.035455e+003,-1.770773e-002
3.037384e+003,-1.768107e-002
3.039312e+003,-1.763446e-002
3.041241e+003,-1.771594e-002
3.043169e+003,-1.787206e-002
3.045098e+003,-1.783416e-002
3.047026e+003,-1.779937e-002
3.048955e+003,-1.780888e-002
3.050883e+003,-1.783832e-002
3.052812e+003,-1.789969e-002
3.054740e+003,-1.799224e-002
3.056669e+003,-1.799762e-002
3.058597e+003,-1.804552e-002
3.060526e+003,-1.813432e-002
3.062454e+003,-1.818824e-002
3.064383e+003,-1.816546e-002
3.066311e+003,-1.812072e-002
3.068240e+003,-1.806831e-002
3.070168e+003,-1.817493e-002
3.072097e+003,-1.834029e-002
3.074025e+003,-1.833105e-002
3.075954e+003,-1.821649e-002
3.077882e+003,-1.825427e-002
3.079811e+003,-1.839295e-002
3.081739e+003,-1.852036e-002
3.083668e+003,-1.858579e-002
3.085596e+003,-1.862741e-002
3.087525e+003,-1.869581e-002
3.089453e+003,-1.865674e-002
3.091382e+003,-1.857725e-002
3.093310e+003,-1.851699e-002
3.095239e+003,-1.855439e-002
3.097167e+003,-1.870473e-002
3.099096e+003,-1.868260e-002
3.101024e+003,-1.865375e-002
3.102953e+003,-1.869635e-002
3.104881e+003,-1.872907e-002
3.106810e+003,-1.868419e-002
3.108738e+003,-1.870885e-002
3.110667e+003,-1.877302e-002
3.112595e+003,-1.871647e-002
3.114524e+003,-1.862518e-002
3.116452e+003,-1.877699e-002
3.118381e+003,-1.892683e-002
3.120309e+003,-1.893723e-002
3.122238e+003,-1.878298e-002
3.124166e+003,-1.872551e-002
3.126095e+003,-1.886265e-002
3.128023e+003,-1.903124e-002
3.129952e+003,-1.909384e-002
3.131880e+003,-1.915932e-002
3.133809e+003,-1.902966e-002
3.135737e+003,-1.895363e-002
3.137666e+003,-1.893996e-002
3.139594e+003,-1.890095e-002
3.141523e+003,-1.888981e-002
3.143451e+003,-1.889980e-002
3.145380e+003,-1.887975e-002
3.147308e+003,-1.898342e-002
3.149237e+003,-1.903765e-002
3.151165e+003,-1.907697e-002
3.153094e+003,-1.901114e-002
3.155022e+003,-1.889606e-002
3.156951e+003,-1.893079e-002
3.158879e+003,-1.896664e-002
3.160808e+003,-1.891969e-002
3.162736e+003,-1.880326e-002
3.164665e+003,-1.879809e-002
3.166593e+003,-1.896474e-002
3.168522e+003,-1.903105e-002
3.170450e+003,-1.894513e-002
3.172379e+003,-1.892010e-002
3.174307e+003,-1.896791e-002
3.176236e+003,-1.887395e-002
3.178164e+003,-1.876121e-002
3.180093e+003,-1.878838e-002
3.182021e+003,-1.892321e-002
3.183950e+003,-1.893086e-002
3.185878e+003,-1.895240e-002
3.187807e+003,-1.894659e-002
3.189735e+003,-1.888248e-002
3.191664e+003,-1.902436e-002
3.193592e+003,-1.912530e-002
3.195521e+003,-1.904266e-002
3.197449e+003,-1.903442e-002
3.199378e+003,-1.911956e-002
3.201306e+003,-1.918579e-002
3.203235e+003,-1.914391e-002
3.205163e+003,-1.913015e-002
3.207092e+003,-1.910323e-002
3.209020e+003,-1.898954e-002
3.210948e+003,-1.899610e-002
3.212877e+003,-1.895849e-002
3.214806e+003,-1.885266e-002
3.216734e+003,-1.890824e-002
3.218663e+003,-1.892972e-002
3.220591e+003,-1.889777e-002
3.222520e+003,-1.886560e-002
3.224448e+003,-1.893888e-002
3.226376e+003,-1.899623e-002
3.228305e+003,-1.886218e-002
3.230234e+003,-1.872075e-002
3.232162e+003,-1.874614e-002
3.234091e+003,-1.867949e-002
3.236019e+003,-1.870330e-002
3.237948e+003,-1.883838e-002
3.239876e+003,-1.875217e-002
3.241804e+003,-1.845155e-002
3.243733e+003,-1.832336e-002
3.245662e+003,-1.837663e-002
3.247590e+003,-1.830192e-002
3.249519e+003,-1.823899e-002
3.251447e+003,-1.818513e-002
3.253375e+003,-1.827905e-002
3.255304e+003,-1.825389e-002
3.257232e+003,-1.803023e-002
3.259161e+003,-1.782894e-002
3.261090e+003,-1.779068e-002
3.263018e+003,-1.793432e-002
3.264947e+003,-1.800127e-002
3.266875e+003,-1.809818e-002
3.268803e+003,-1.801484e-002
3.270732e+003,-1.790723e-002
3.272660e+003,-1.783352e-002
3.274589e+003,-1.774316e-002
3.276518e+003,-1.781730e-002
3.278446e+003,-1.782929e-002
3.280375e+003,-1.773944e-002
3.282303e+003,-1.776076e-002
3.284231e+003,-1.775105e-002
3.286160e+003,-1.791569e-002
3.288088e+003,-1.804348e-002
3.290017e+003,-1.814087e-002
3.291946e+003,-1.800461e-002
3.293874e+003,-1.794786e-002
3.295802e+003,-1.807355e-002
3.297731e+003,-1.813626e-002
3.299659e+003,-1.823778e-002
3.301588e+003,-1.839896e-002
3.303516e+003,-1.856754e-002
3.305445e+003,-1.858262e-002
3.307374e+003,-1.853420e-002
3.309302e+003,-1.873656e-002
3.311230e+003,-1.886805e-002
3.313159e+003,-1.887658e-002
3.315087e+003,-1.899804e-002
3.317016e+003,-1.895275e-002
3.318944e+003,-1.899509e-002
3.320873e+003,-1.920015e-002
3.322802e+003,-1.931514e-002
3.324730e+003,-1.937000e-002
3.326658e+003,-1.940977e-002
3.328587e+003,-1.945970e-002
3.330515e+003,-1.958280e-002
3.332444e+003,-1.980424e-002
3.334372e+003,-1.987546e-002
3.336301e+003,-1.982098e-002
3.338229e+003,-1.972936e-002
3.340158e+003,-1.981880e-002
3.342086e+003,-1.995293e-002
3.344015e+003,-1.999740e-002
3.345943e+003,-1.995784e-002
3.347872e+003,-1.998547e-002
3.349800e+003,-2.007624e-002
3.351729e+003,-2.016827e-002
3.353657e+003,-2.024300e-002
3.355586e+003,-2.022782e-002
3.357514e+003,-2.014350e-002
3.359443e+003,-2.028493e-002
3.361371e+003,-2.041270e-002
3.363300e+003,-2.033796e-002
3.365229e+003,-2.029214e-002
3.367157e+003,-2.049084e-002
3.369085e+003,-2.070012e-002
3.371014e+003,-2.091126e-002
3.372942e+003,-2.098489e-002
3.374871e+003,-2.095777e-002
3.376799e+003,-2.079858e-002
3.378728e+003,-2.079653e-002
3.380656e+003,-2.097766e-002
3.382585e+003,-2.119785e-002
3.384513e+003,-2.134062e-002
3.386442e+003,-2.133052e-002
3.388370e+003,-2.131144e-002
3.390299e+003,-2.137468e-002
3.392227e+003,-2.130364e-002
3.394156e+003,-2.145382e-002
3.396084e+003,-2.155498e-002
3.398013e+003,-2.159414e-002
3.399941e+003,-2.161485e-002
3.401870e+003,-2.164694e-002
3.403798e+003,-2.162547e-002
3.405727e+003,-2.169838e-002
3.407655e+003,-2.166320e-002
3.409584e+003,-2.169252e-002
3.411512e+003,-2.170153e-002
3.413441e+003,-2.174881e-002
3.415369e+003,-2.183534e-002
3.417298e+003,-2.194665e-002
3.419226e+003,-2.198070e-002
3.421155e+003,-2.185790e-002
3.423083e+003,-2.188733e-002
3.425012e+003,-2.197018e-002
3.426940e+003,-2.191234e-002
3.428869e+003,-2.192460e-002
3.430797e+003,-2.192151e-002
3.432726e+003,-2.188755e-002
3.434654e+003,-2.199075e-002
3.436583e+003,-2.219497e-002
3.438511e+003,-2.220923e-002
3.440440e+003,-2.202694e-002
3.442368e+003,-2.209500e-002
3.444297e+003,-2.227883e-002
3.446225e+003,-2.221345e-002
3.448154e+003,-2.203721e-002
3.450082e+003,-2.202477e-002
3.452011e+003,-2.222884e-002
3.453939e+003,-2.234109e-002
3.455868e+003,-2.234294e-002
3.457796e+003,-2.236724e-002
3.459725e+003,-2.248496e-002
3.461653e+003,-2.242728e-002
3.463582e+003,-2.224468e-002
3.465510e+003,-2.234977e-002
3.467439e+003,-2.267825e-002
3.469367e+003,-2.273196e-002
3.471296e+003,-2.259943e-002
3.473224e+003,-2.246293e-002
3.475153e+003,-2.247659e-002
3.477081e+003,-2.251598e-002
3.479010e+003,-2.263620e-002
3.480938e+003,-2.253407e-002
3.482867e+003,-2.247181e-002
3.484795e+003,-2.249616e-002
3.486724e+003,-2.247687e-002
3.488652e+003,-2.242492e-002
3.490581e+003,-2.255819e-002
3.492509e+003,-2.265284e-002
3.494438e+003,-2.262978e-002
3.496366e+003,-2.247643e-002
3.498295e+003,-2.252919e-002
3.500223e+003,-2.259475e-002
3.502152e+003,-2.248411e-002
3.504080e+003,-2.237309e-002
3.506009e+003,-2.245711e-002
3.507937e+003,-2.248854e-002
3.509866e+003,-2.246819e-002
3.511794e+003,-2.255228e-002
3.513723e+003,-2.266847e-002
3.515651e+003,-2.270831e-002
3.517580e+003,-2.264636e-002
3.519508e+003,-2.245787e-002
3.521437e+003,-2.245560e-002
3.523365e+003,-2.251799e-002
3.525294e+003,-2.258226e-002
3.527222e+003,-2.251330e-002
3.529151e+003,-2.247266e-002
3.531079e+003,-2.251428e-002
3.533008e+003,-2.247442e-002
3.534936e+003,-2.237948e-002
3.536865e+003,-2.244173e-002
3.538793e+003,-2.251503e-002
3.540722e+003,-2.259009e-002
3.542650e+003,-2.267347e-002
3.544579e+003,-2.251189e-002
3.546507e+003,-2.213902e-002
3.548436e+003,-2.219377e-002
3.550364e+003,-2.230036e-002
3.552293e+003,-2.235066e-002
3.554221e+003,-2.245419e-002
3.556150e+003,-2.251041e-002
3.558078e+003,-2.239021e-002
3.560007e+003,-2.229580e-002
3.561935e+003,-2.247284e-002
3.563864e+003,-2.247272e-002
3.565792e+003,-2.226309e-002
3.567721e+003,-2.218854e-002
3.569649e+003,-2.235528e-002
3.571578e+003,-2.247832e-002
3.573506e+003,-2.240579e-002
3.575435e+003,-2.238068e-002
3.577363e+003,-2.236453e-002
3.579292e+003,-2.241180e-002
3.581220e+003,-2.238700e-002
3.583149e+003,-2.235921e-002
3.585077e+003,-2.236733e-002
3.587006e+003,-2.221814e-002
3.588934e+003,-2.214572e-002
3.590863e+003,-2.219900e-002
3.592791e+003,-2.217236e-002
3.594720e+003,-2.207002e-002
3.596648e+003,-2.200892e-002
3.598577e+003,-2.225629e-002
3.600505e+003,-2.221685e-002
3.602434e+003,-2.209937e-002
3.604362e+003,-2.223353e-002
3.606291e+003,-2.229986e-002
3.608219e+003,-2.185844e-002
3.610148e+003,-2.186131e-002
3.612076e+003,-2.209153e-002
3.614005e+003,-2.224603e-002
3.615933e+003,-2.239197e-002
3.617862e+003,-2.222358e-002
3.619790e+003,-2.206924e-002
3.621719e+003,-2.232755e-002
3.623647e+003,-2.252998e-002
3.625576e+003,-2.239449e-002
3.627504e+003,-2.179819e-002
3.629433e+003,-2.121290e-002
3.631361e+003,-2.195399e-002
3.633290e+003,-2.236280e-002
3.635218e+003,-2.244179e-002
3.637146e+003,-2.236180e-002
3.639075e+003,-2.234452e-002
3.641004e+003,-2.259531e-002
3.642932e+003,-2.278472e-002
3.644861e+003,-2.290063e-002
3.646789e+003,-2.250298e-002
3.648718e+003,-2.182220e-002
3.650646e+003,-2.177144e-002
3.652574e+003,-2.261664e-002
3.654503e+003,-2.277214e-002
3.656432e+003,-2.228934e-002
3.658360e+003,-2.251934e-002
3.660289e+003,-2.287432e-002
3.662217e+003,-2.297159e-002
3.664146e+003,-2.313272e-002
3.666074e+003,-2.345034e-002
3.668002e+003,-2.303730e-002
3.669931e+003,-2.230665e-002
3.671860e+003,-2.264925e-002
3.673788e+003,-2.272671e-002
3.675717e+003,-2.216071e-002
3.677645e+003,-2.250195e-002
3.679573e+003,-2.284298e-002
3.681502e+003,-2.291238e-002
3.683430e+003,-2.283958e-002
3.685359e+003,-2.304654e-002
3.687288e+003,-2.272916e-002
3.689216e+003,-2.229180e-002
3.691145e+003,-2.252010e-002
3.693073e+003,-2.286784e-002
3.695001e+003,-2.308019e-002
3.696930e+003,-2.290515e-002
3.698858e+003,-2.289022e-002
3.700787e+003,-2.262950e-002
3.702716e+003,-2.262154e-002
3.704644e+003,-2.277416e-002
3.706573e+003,-2.277346e-002
3.708501e+003,-2.277092e-002
3.710429e+003,-2.246661e-002
3.712358e+003,-2.215696e-002
3.714286e+003,-2.278299e-002
3.716215e+003,-2.308459e-002
3.718144e+003,-2.284033e-002
3.720072e+003,-2.266202e-002
3.722000e+003,-2.260041e-002
3.723929e+003,-2.260742e-002
3.725857e+003,-2.259550e-002
3.727786e+003,-2.286900e-002
3.729714e+003,-2.293683e-002
3.731643e+003,-2.238889e-002
3.733572e+003,-2.209175e-002
3.735500e+003,-2.207566e-002
3.737428e+003,-2.242502e-002
3.739357e+003,-2.296041e-002
3.741285e+003,-2.321289e-002
3.743214e+003,-2.224804e-002
3.745142e+003,-2.144234e-002
3.747071e+003,-2.249710e-002
3.749000e+003,-2.224927e-002
3.750928e+003,-2.180443e-002
3.752856e+003,-2.191310e-002
3.754785e+003,-2.264796e-002
3.756713e+003,-2.273539e-002
3.758642e+003,-2.268727e-002
3.760570e+003,-2.266444e-002
3.762499e+003,-2.281361e-002
3.764427e+003,-2.270312e-002
3.766356e+003,-2.269448e-002
3.768284e+003,-2.279230e-002
3.770213e+003,-2.252664e-002
3.772141e+003,-2.254722e-002
3.774070e+003,-2.273897e-002
3.775998e+003,-2.284587e-002
3.777927e+003,-2.264567e-002
3.779855e+003,-2.238855e-002
3.781784e+003,-2.254429e-002
3.783712e+003,-2.265167e-002
3.785641e+003,-2.262286e-002
3.787569e+003,-2.260443e-002
3.789498e+003,-2.288346e-002
3.791426e+003,-2.320353e-002
3.793355e+003,-2.310815e-002
3.795283e+003,-2.271643e-002
3.797212e+003,-2.249779e-002
3.799140e+003,-2.251126e-002
3.801069e+003,-2.204262e-002
3.802997e+003,-2.240859e-002
3.804926e+003,-2.270690e-002
3.806854e+003,-2.232992e-002
3.808783e+003,-2.259874e-002
3.810711e+003,-2.282682e-002
3.812640e+003,-2.293982e-002
3.814568e+003,-2.258440e-002
3.816497e+003,-2.197462e-002
3.818425e+003,-2.233731e-002
3.820354e+003,-2.206124e-002
3.822282e+003,-2.200981e-002
3.824211e+003,-2.261104e-002
3.826139e+003,-2.265381e-002
3.828068e+003,-2.274542e-002
3.829996e+003,-2.254026e-002
3.831925e+003,-2.232516e-002
3.833853e+003,-2.243090e-002
3.835782e+003,-2.227911e-002
3.837710e+003,-2.183512e-002
3.839639e+003,-2.213965e-002
3.841567e+003,-2.245777e-002
3.843496e+003,-2.247914e-002
3.845424e+003,-2.263884e-002
3.847353e+003,-2.288576e-002
3.849281e+003,-2.285379e-002
3.851210e+003,-2.229583e-002
3.853138e+003,-2.118583e-002
3.855067e+003,-2.143713e-002
3.856995e+003,-2.247700e-002
3.858924e+003,-2.293875e-002
3.860852e+003,-2.256187e-002
3.862781e+003,-2.198700e-002
3.864709e+003,-2.192854e-002
3.866638e+003,-2.261123e-002
3.868566e+003,-2.266120e-002
3.870495e+003,-2.235298e-002
3.872423e+003,-2.252183e-002
3.874352e+003,-2.232563e-002
3.876280e+003,-2.275538e-002
3.878209e+003,-2.293972e-002
3.880137e+003,-2.260104e-002
3.882066e+003,-2.286680e-002
3.883994e+003,-2.290977e-002
3.885923e+003,-2.249679e-002
3.887851e+003,-2.282260e-002
3.889780e+003,-2.271554e-002
3.891708e+003,-2.255102e-002
3.893637e+003,-2.289544e-002
3.895565e+003,-2.319781e-002
3.897494e+003,-2.310617e-002
3.899422e+003,-2.285024e-002
3.901351e+003,-2.281641e-002
3.903279e+003,-2.266061e-002
3.905208e+003,-2.264123e-002
3.907136e+003,-2.304475e-002
3.909065e+003,-2.321995e-002
3.910993e+003,-2.319153e-002
3.912922e+003,-2.307510e-002
3.914850e+003,-2.291587e-002
3.916779e+003,-2.280330e-002
3.918707e+003,-2.280097e-002
3.920636e+003,-2.303523e-002
3.922564e+003,-2.311183e-002
3.924493e+003,-2.295990e-002
3.926421e+003,-2.315016e-002
3.928350e+003,-2.332510e-002
3.930278e+003,-2.336146e-002
3.932207e+003,-2.329803e-002
3.934135e+003,-2.335421e-002
3.936064e+003,-2.332516e-002
3.937992e+003,-2.327978e-002
3.939921e+003,-2.332246e-002
3.941849e+003,-2.328864e-002
3.943778e+003,-2.329743e-002
3.945706e+003,-2.321942e-002
3.947635e+003,-2.308079e-002
3.949563e+003,-2.313567e-002
3.951492e+003,-2.325971e-002
3.953420e+003,-2.333709e-002
3.955349e+003,-2.345737e-002
3.957277e+003,-2.346626e-002
3.959206e+003,-2.353079e-002
3.961134e+003,-2.355207e-002
3.963063e+003,-2.324385e-002
3.964991e+003,-2.306586e-002
3.966920e+003,-2.307388e-002
3.968848e+003,-2.300660e-002
3.970777e+003,-2.316941e-002
3.972705e+003,-2.326392e-002
3.974634e+003,-2.323321e-002
3.976562e+003,-2.333530e-002
3.978491e+003,-2.342554e-002
3.980419e+003,-2.347934e-002
3.982348e+003,-2.341876e-002
3.984276e+003,-2.335628e-002
3.986205e+003,-2.350540e-002
3.988133e+003,-2.333979e-002
3.990062e+003,-2.321003e-002
3.991990e+003,-2.354388e-002
3.993919e+003,-2.366523e-002
3.995847e+003,-2.367185e-002
3.997776e+003,-2.328741e-002
3.999704e+003,-2.322438e-002
4.001633e+003,0.000000e+000
