3.991989e+002,-5.017123e-003
4.011274e+002,-6.694540e-004
4.030559e+002,-2.806774e-003
4.049844e+002,-3.700569e-003
4.069129e+002,-2.549456e-003
4.088414e+002,1.400213e-003
4.107699e+002,2.705754e-003
4.126984e+002,3.166673e-003
4.146269e+002,-9.006097e-004
4.165554e+002,2.218580e-003
4.184839e+002,5.646640e-003
4.204124e+002,6.019434e-003
4.223409e+002,8.750596e-003
4.242694e+002,3.425952e-003
4.261979e+002,-6.787833e-004
4.281264e+002,3.248019e-004
4.300549e+002,2.538809e-004
4.319834e+002,-4.441493e-003
4.339119e+002,-2.376717e-003
4.358404e+002,2.060616e-003
4.377689e+002,2.727426e-003
4.396974e+002,2.903178e-003
4.416259e+002,-9.660811e-005
4.435544e+002,2.763467e-005
4.454829e+002,2.879963e-003
4.474114e+002,6.422544e-003
4.493399e+002,4.247647e-003
4.512684e+002,-9.283175e-004
4.531969e+002,-1.800015e-003
4.551254e+002,2.231069e-003
4.570539e+002,2.487025e-003
4.589824e+002,-2.162930e-003
4.609109e+002,-1.105996e-003
4.628394e+002,2.193370e-003
4.647679e+002,1.832699e-004
4.666964e+002,-2.117957e-003
4.686249e+002,-3.204338e-003
4.705533e+002,-2.164677e-003
4.724819e+002,-9.194234e-004
4.744103e+002,5.812285e-004
4.763389e+002,2.958220e-004
4.782673e+002,-3.881243e-004
4.801959e+002,-5.180398e-004
4.821243e+002,-7.918963e-006
4.840529e+002,3.891016e-004
4.859813e+002,-8.025597e-004
4.879099e+002,-2.877152e-003
4.898383e+002,-3.842668e-003
4.917668e+002,-4.306972e-003
4.936953e+002,-1.804371e-003
4.956238e+002,-1.112044e-003
4.975523e+002,-2.595372e-003
4.994808e+002,-2.804535e-003
5.014093e+002,-1.621069e-003
5.033378e+002,-2.440707e-003
5.052663e+002,-5.702113e-003
5.071948e+002,-6.594446e-003
5.091233e+002,-4.899391e-003
5.110518e+002,-5.764013e-003
5.129803e+002,-6.024793e-003
5.149088e+002,-5.591599e-003
5.168373e+002,-4.155934e-003
5.187658e+002,-3.912222e-003
5.206943e+002,-2.810955e-003
5.226228e+002,-3.600356e-003
5.245513e+002,-4.748396e-003
5.264798e+002,-4.642229e-003
5.284083e+002,-4.300870e-003
5.303368e+002,-4.917934e-003
5.322653e+002,-5.319529e-003
5.341938e+002,-5.937862e-003
5.361223e+002,-4.986727e-003
5.380508e+002,-3.925422e-003
5.399792e+002,-2.470360e-003
5.419078e+002,-2.631864e-003
5.438363e+002,-3.614650e-003
5.457648e+002,-3.893767e-003
5.476932e+002,-3.500120e-003
5.496218e+002,-3.212561e-003
5.515503e+002,-2.801638e-003
5.534788e+002,-3.671625e-003
5.554072e+002,-2.572481e-003
5.573358e+002,-2.030801e-003
5.592643e+002,-2.429900e-003
5.611927e+002,-3.770967e-003
5.631212e+002,-3.280999e-003
5.650497e+002,-2.976710e-003
5.669783e+002,-2.341983e-003
5.689067e+002,-1.983704e-003
5.708352e+002,-2.358329e-003
5.727637e+002,-4.090194e-003
5.746923e+002,-4.986989e-003
5.766207e+002,-3.266201e-003
5.785492e+002,-3.622504e-003
5.804777e+002,-1.609189e-002
5.824063e+002,-1.676433e-002
5.843347e+002,-5.717482e-003
5.862632e+002,-2.584635e-003
5.881917e+002,-3.167697e-003
5.901202e+002,-4.740301e-003
5.920487e+002,-6.691622e-003
5.939772e+002,-6.979724e-003
5.959057e+002,-6.050640e-003
5.978342e+002,-5.617079e-003
5.997627e+002,-5.066807e-003
6.016912e+002,-4.957377e-003
6.036197e+002,-4.658947e-003
6.055482e+002,-4.088684e-003
6.074767e+002,-2.874223e-003
6.094052e+002,-2.277978e-003
6.113337e+002,-9.115872e-004
6.132622e+002,-1.060716e-003
6.151907e+002,-1.266522e-003
6.171192e+002,-6.299842e-004
6.190477e+002,-8.009390e-004
6.209762e+002,-6.787833e-004
6.229047e+002,-1.691904e-003
6.248332e+002,-4.903749e-003
6.267617e+002,-6.680267e-003
6.286902e+002,-6.650085e-003
6.306187e+002,-5.672255e-003
6.325472e+002,-4.903323e-003
6.344756e+002,-4.241714e-003
6.364042e+002,-3.816853e-003
6.383326e+002,-3.691962e-003
6.402612e+002,-3.817608e-003
6.421896e+002,-2.881727e-003
6.441182e+002,-2.828534e-003
6.460466e+002,-3.159013e-003
6.479752e+002,-2.752451e-003
6.499036e+002,-2.967759e-003
6.518322e+002,-3.310496e-003
6.537606e+002,-2.932381e-003
6.556891e+002,-3.146447e-003
6.576177e+002,-3.222165e-003
6.595461e+002,-3.109307e-003
6.614746e+002,-3.568119e-003
6.634031e+002,-4.010820e-003
6.653317e+002,-2.537729e-003
6.672601e+002,2.427178e-003
6.691886e+002,1.072447e-003
6.711171e+002,-2.849470e-003
6.730457e+002,-3.073217e-003
6.749741e+002,-3.149079e-003
6.769026e+002,-3.185360e-003
6.788311e+002,-3.235682e-003
6.807596e+002,-3.223349e-003
6.826881e+002,-3.145724e-003
6.846166e+002,-3.364190e-003
6.865451e+002,-3.842963e-003
6.884736e+002,-3.805587e-003
6.904021e+002,-3.512971e-003
6.923306e+002,-3.563617e-003
6.942591e+002,-3.617838e-003
6.961876e+002,-3.679280e-003
6.981161e+002,-3.919610e-003
7.000446e+002,-4.059142e-003
7.019731e+002,-4.358443e-003
7.039016e+002,-4.505212e-003
7.058301e+002,-5.090976e-003
7.077585e+002,-5.513971e-003
7.096871e+002,-5.550219e-003
7.116156e+002,-5.335697e-003
7.135441e+002,-5.976917e-003
7.154725e+002,-6.417008e-003
7.174011e+002,-6.457163e-003
7.193296e+002,-6.304455e-003
7.212581e+002,-6.047732e-003
7.231865e+002,-5.745440e-003
7.251151e+002,-6.110105e-003
7.270436e+002,-6.086320e-003
7.289720e+002,-5.425465e-003
7.309005e+002,-5.211046e-003
7.328290e+002,-5.290365e-003
7.347576e+002,-5.439601e-003
7.366860e+002,-5.638176e-003
7.386145e+002,-5.777092e-003
7.405430e+002,-5.412081e-003
7.424716e+002,-4.460121e-003
7.444000e+002,-4.026545e-003
7.463285e+002,-3.904177e-003
7.482570e+002,-3.793500e-003
7.501855e+002,-3.669226e-003
7.521140e+002,-3.157664e-003
7.540425e+002,-2.681888e-003
7.559710e+002,-2.220029e-003
7.578995e+002,-1.443006e-003
7.598280e+002,-1.139144e-003
7.617565e+002,-9.651816e-004
7.636850e+002,-6.057315e-004
7.656135e+002,1.028934e-004
7.675420e+002,2.633629e-004
7.694705e+002,8.400292e-005
7.713990e+002,-3.114588e-006
7.733275e+002,1.810158e-004
7.752560e+002,2.556381e-004
7.771844e+002,-2.087605e-004
7.791130e+002,-6.681638e-004
7.810415e+002,-4.580353e-004
7.829700e+002,-5.083761e-004
7.848984e+002,-9.273256e-004
7.868270e+002,-1.154379e-003
7.887555e+002,-1.035396e-003
7.906840e+002,-1.173743e-003
7.926124e+002,-1.617702e-003
7.945410e+002,-2.136916e-003
7.964695e+002,-2.310575e-003
7.983979e+002,-2.587039e-003
8.003264e+002,-2.936495e-003
8.022549e+002,-2.926555e-003
8.041835e+002,-2.738820e-003
8.061119e+002,-2.975064e-003
8.080404e+002,-3.128914e-003
8.099689e+002,-2.919381e-003
8.118975e+002,-2.284306e-003
8.138259e+002,-2.084818e-003
8.157545e+002,-2.685082e-003
8.176830e+002,-2.853848e-003
8.196115e+002,-3.247324e-003
8.215399e+002,-3.668044e-003
8.234684e+002,-3.970766e-003
8.253970e+002,-4.180843e-003
8.273254e+002,-4.149666e-003
8.292539e+002,-4.523838e-003
8.311824e+002,-4.643868e-003
8.331110e+002,-4.572202e-003
8.350394e+002,-4.694316e-003
8.369679e+002,-4.501704e-003
8.388964e+002,-4.468713e-003
8.408250e+002,-4.279347e-003
8.427534e+002,-4.026742e-003
8.446819e+002,-4.448479e-003
8.466104e+002,-4.568333e-003
8.485389e+002,-4.517509e-003
8.504674e+002,-4.250409e-003
8.523959e+002,-4.081036e-003
8.543244e+002,-4.267405e-003
8.562529e+002,-4.279347e-003
8.581814e+002,-4.070270e-003
8.601099e+002,-3.857019e-003
8.620384e+002,-3.933894e-003
8.639669e+002,-3.573147e-003
8.658954e+002,-3.276067e-003
8.678239e+002,-3.711476e-003
8.697524e+002,-3.727705e-003
8.716809e+002,-3.569828e-003
8.736094e+002,-3.503210e-003
8.755378e+002,-3.496965e-003
8.774664e+002,-3.126973e-003
8.793949e+002,-3.034788e-003
8.813234e+002,-3.212232e-003
8.832518e+002,-2.907335e-003
8.851804e+002,-2.639439e-003
8.871089e+002,-2.828073e-003
8.890374e+002,-3.036334e-003
8.909658e+002,-2.995565e-003
8.928943e+002,-2.849568e-003
8.948229e+002,-2.967759e-003
8.967513e+002,-2.913555e-003
8.986798e+002,-2.957359e-003
9.006083e+002,-3.051206e-003
9.025369e+002,-2.938864e-003
9.044653e+002,-3.019520e-003
9.063938e+002,-3.620565e-003
9.083223e+002,-4.042237e-003
9.102509e+002,-4.164894e-003
9.121793e+002,-4.261597e-003
9.141078e+002,-4.661635e-003
9.160364e+002,-5.030945e-003
9.179648e+002,-4.806172e-003
9.198933e+002,-4.823474e-003
9.218218e+002,-5.067888e-003
9.237504e+002,-5.257336e-003
9.256788e+002,-5.547405e-003
9.276073e+002,-5.851436e-003
9.295358e+002,-6.065899e-003
9.314644e+002,-6.335021e-003
9.333928e+002,-6.475215e-003
9.353213e+002,-6.392782e-003
9.372498e+002,-6.389223e-003
9.391783e+002,-6.705194e-003
9.411068e+002,-6.535667e-003
9.430353e+002,-6.227117e-003
9.449637e+002,-6.254357e-003
9.468923e+002,-6.288943e-003
9.488208e+002,-6.458534e-003
9.507493e+002,-6.308145e-003
9.526777e+002,-6.118698e-003
9.546063e+002,-6.045836e-003
9.565348e+002,-5.929527e-003
9.584633e+002,-5.807890e-003
9.603917e+002,-5.694395e-003
9.623203e+002,-5.504810e-003
9.642488e+002,-5.368066e-003
9.661772e+002,-5.315732e-003
9.681057e+002,-5.198769e-003
9.700343e+002,-5.128307e-003
9.719628e+002,-5.072440e-003
9.738912e+002,-4.982370e-003
9.758197e+002,-4.942340e-003
9.777483e+002,-4.717031e-003
9.796768e+002,-4.439197e-003
9.816052e+002,-4.393016e-003
9.835337e+002,-4.342172e-003
9.854623e+002,-4.267175e-003
9.873907e+002,-4.144021e-003
9.893192e+002,-4.014431e-003
9.912477e+002,-4.084089e-003
9.931763e+002,-4.032060e-003
9.951047e+002,-3.873998e-003
9.970332e+002,-3.887199e-003
9.989617e+002,-3.831567e-003
1.000890e+003,-3.500022e-003
1.002819e+003,-3.393253e-003
1.004747e+003,-3.402130e-003
1.006676e+003,-3.194471e-003
1.008604e+003,-3.227854e-003
1.010533e+003,-3.202332e-003
1.012461e+003,-2.972497e-003
1.014390e+003,-2.654654e-003
1.016318e+003,-2.271748e-003
1.018247e+003,-2.128047e-003
1.020175e+003,-2.118518e-003
1.022104e+003,-1.857030e-003
1.024032e+003,-1.514894e-003
1.025961e+003,-1.233682e-003
1.027889e+003,-1.128040e-003
1.029818e+003,-9.581727e-004
1.031746e+003,-8.248832e-004
1.033675e+003,-7.200681e-004
1.035603e+003,-5.314098e-004
1.037532e+003,-1.803774e-004
1.039460e+003,1.159183e-004
1.041389e+003,4.728485e-005
1.043317e+003,7.488357e-006
1.045246e+003,1.287117e-004
1.047174e+003,2.210603e-004
1.049103e+003,2.993367e-004
1.051031e+003,1.518799e-004
1.052960e+003,-4.231011e-005
1.054888e+003,-9.707188e-005
1.056817e+003,-7.729483e-005
1.058745e+003,6.859288e-005
1.060674e+003,1.480350e-004
1.062602e+003,2.398904e-004
1.064531e+003,3.371040e-004
1.066459e+003,4.446213e-004
1.068388e+003,3.605154e-004
1.070316e+003,4.370590e-004
1.072245e+003,4.973947e-004
1.074173e+003,4.114214e-004
1.076102e+003,5.623504e-004
1.078030e+003,7.952488e-004
1.079959e+003,7.805105e-004
1.081887e+003,7.605617e-004
1.083816e+003,1.064509e-003
1.085744e+003,1.283619e-003
1.087673e+003,1.461713e-003
1.089601e+003,1.725865e-003
1.091530e+003,2.204326e-003
1.093458e+003,2.423513e-003
1.095387e+003,2.541380e-003
1.097315e+003,2.646511e-003
1.099244e+003,2.632743e-003
1.101172e+003,2.638977e-003
1.103101e+003,2.683916e-003
1.105029e+003,2.872025e-003
1.106958e+003,3.021276e-003
1.108886e+003,3.082372e-003
1.110815e+003,3.088312e-003
1.112743e+003,3.054242e-003
1.114672e+003,2.993350e-003
1.116600e+003,3.365943e-003
1.118529e+003,3.670851e-003
1.120457e+003,3.605996e-003
1.122386e+003,3.447560e-003
1.124314e+003,3.272522e-003
1.126243e+003,2.920290e-003
1.128171e+003,2.702520e-003
1.130100e+003,2.674381e-003
1.132028e+003,2.455134e-003
1.133957e+003,2.020535e-003
1.135885e+003,1.703178e-003
1.137814e+003,1.297577e-003
1.139742e+003,7.179119e-004
1.141671e+003,5.326580e-004
1.143599e+003,2.960873e-004
1.145528e+003,-1.228436e-004
1.147456e+003,-4.963623e-004
1.149385e+003,-9.286151e-004
1.151313e+003,-1.324830e-003
1.153242e+003,-1.616711e-003
1.155170e+003,-1.851026e-003
1.157099e+003,-2.048379e-003
1.159027e+003,-2.291393e-003
1.160956e+003,-2.473391e-003
1.162884e+003,-2.541485e-003
1.164813e+003,-2.746558e-003
1.166741e+003,-2.903122e-003
1.168670e+003,-2.934388e-003
1.170598e+003,-2.859312e-003
1.172526e+003,-2.825703e-003
1.174455e+003,-2.985200e-003
1.176384e+003,-2.844433e-003
1.178312e+003,-2.762855e-003
1.180240e+003,-2.917373e-003
1.182169e+003,-2.999678e-003
1.184098e+003,-3.054891e-003
1.186026e+003,-3.166151e-003
1.187954e+003,-3.136480e-003
1.189883e+003,-3.083811e-003
1.191812e+003,-3.154276e-003
1.193740e+003,-3.223842e-003
1.195668e+003,-3.285011e-003
1.197597e+003,-3.384935e-003
1.199526e+003,-3.308128e-003
1.201454e+003,-3.100458e-003
1.203382e+003,-2.909902e-003
1.205311e+003,-2.836928e-003
1.207240e+003,-2.683666e-003
1.209168e+003,-2.587566e-003
1.211096e+003,-2.542407e-003
1.213025e+003,-2.294194e-003
1.214953e+003,-2.076937e-003
1.216882e+003,-2.123101e-003
1.218810e+003,-2.190887e-003
1.220739e+003,-2.179315e-003
1.222667e+003,-2.014575e-003
1.224596e+003,-1.800675e-003
1.226524e+003,-1.818625e-003
1.228453e+003,-1.727152e-003
1.230381e+003,-1.624601e-003
1.232310e+003,-1.530115e-003
1.234238e+003,-1.400568e-003
1.236167e+003,-1.483063e-003
1.238095e+003,-1.509776e-003
1.240024e+003,-1.451427e-003
1.241952e+003,-1.489106e-003
1.243881e+003,-1.778039e-003
1.245809e+003,-1.978657e-003
1.247738e+003,-2.171172e-003
1.249666e+003,-2.074365e-003
1.251595e+003,-2.117330e-003
1.253523e+003,-2.264859e-003
1.255452e+003,-2.328405e-003
1.257380e+003,-2.514505e-003
1.259309e+003,-2.603310e-003
1.261237e+003,-2.499944e-003
1.263166e+003,-2.538750e-003
1.265094e+003,-2.143148e-003
1.267023e+003,-1.638894e-003
1.268951e+003,-1.628496e-003
1.270880e+003,-1.420252e-003
1.272808e+003,-1.121529e-003
1.274737e+003,-9.232919e-004
1.276665e+003,-8.301415e-004
1.278594e+003,-5.199593e-004
1.280522e+003,-2.010439e-004
1.282451e+003,-6.553419e-005
1.284379e+003,2.239776e-004
1.286308e+003,5.627153e-004
1.288236e+003,9.038756e-004
1.290165e+003,1.258895e-003
1.292093e+003,1.609217e-003
1.294022e+003,1.995536e-003
1.295950e+003,2.396225e-003
1.297879e+003,2.556078e-003
1.299807e+003,2.609176e-003
1.301736e+003,2.670114e-003
1.303664e+003,2.597242e-003
1.305593e+003,2.484025e-003
1.307521e+003,2.482459e-003
1.309450e+003,2.445205e-003
1.311378e+003,2.143920e-003
1.313307e+003,1.816191e-003
1.315235e+003,1.607188e-003
1.317164e+003,1.558835e-003
1.319092e+003,1.175130e-003
1.321021e+003,7.280678e-004
1.322949e+003,5.592649e-004
1.324878e+003,3.291125e-004
1.326806e+003,1.301700e-004
1.328735e+003,5.898259e-005
1.330663e+003,-8.044200e-005
1.332592e+003,-1.246324e-004
1.334520e+003,-1.767673e-004
1.336449e+003,-1.234730e-004
1.338377e+003,-5.662238e-005
1.340306e+003,-1.044591e-004
1.342234e+003,-1.807086e-004
1.344163e+003,-3.146594e-004
1.346091e+003,-4.468145e-004
1.348020e+003,-3.208178e-004
1.349948e+003,-3.504167e-004
1.351877e+003,-5.248573e-004
1.353805e+003,-5.222097e-004
1.355734e+003,-4.821308e-004
1.357662e+003,-5.902130e-004
1.359591e+003,-6.495045e-004
1.361519e+003,-6.425236e-004
1.363448e+003,-8.618883e-004
1.365376e+003,-1.333055e-003
1.367305e+003,-1.496073e-003
1.369233e+003,-1.550222e-003
1.371162e+003,-1.530676e-003
1.373090e+003,-1.355252e-003
1.375019e+003,-1.447729e-003
1.376947e+003,-1.610274e-003
1.378876e+003,-1.702795e-003
1.380804e+003,-1.758272e-003
1.382733e+003,-1.801236e-003
1.384661e+003,-1.794175e-003
1.386590e+003,-1.661076e-003
1.388518e+003,-1.831229e-003
1.390447e+003,-2.336743e-003
1.392375e+003,-2.559437e-003
1.394304e+003,-2.472369e-003
1.396232e+003,-2.639373e-003
1.398161e+003,-2.748237e-003
1.400089e+003,-2.896539e-003
1.402018e+003,-3.064564e-003
1.403946e+003,-3.159934e-003
1.405875e+003,-3.276231e-003
1.407803e+003,-3.365603e-003
1.409732e+003,-3.396738e-003
1.411660e+003,-3.354359e-003
1.413589e+003,-3.252619e-003
1.415517e+003,-2.926062e-003
1.417446e+003,-2.218974e-003
1.419374e+003,-1.481313e-003
1.421303e+003,-1.292324e-003
1.423231e+003,-7.083248e-004
1.425160e+003,-5.460146e-005
1.427088e+003,3.675457e-004
1.429017e+003,8.410932e-004
1.430945e+003,1.144565e-003
1.432874e+003,1.410252e-003
1.434802e+003,2.023497e-003
1.436731e+003,2.659846e-003
1.438659e+003,2.729694e-003
1.440588e+003,2.966893e-003
1.442516e+003,3.593969e-003
1.444445e+003,4.127209e-003
1.446373e+003,4.658191e-003
1.448302e+003,5.194216e-003
1.450230e+003,5.593069e-003
1.452159e+003,5.993062e-003
1.454087e+003,6.617729e-003
1.456016e+003,7.820205e-003
1.457944e+003,8.227726e-003
1.459873e+003,7.618510e-003
1.461801e+003,7.395911e-003
1.463730e+003,7.693342e-003
1.465658e+003,7.772808e-003
1.467587e+003,7.384115e-003
1.469515e+003,7.191145e-003
1.471444e+003,7.458502e-003
1.473372e+003,7.380408e-003
1.475301e+003,6.685626e-003
1.477229e+003,5.900855e-003
1.479158e+003,5.209608e-003
1.481086e+003,4.777906e-003
1.483015e+003,4.160828e-003
1.484943e+003,3.698152e-003
1.486872e+003,3.485469e-003
1.488800e+003,3.347778e-003
1.490729e+003,3.013735e-003
1.492657e+003,2.315305e-003
1.494586e+003,1.998099e-003
1.496514e+003,1.785881e-003
1.498443e+003,1.231946e-003
1.500371e+003,5.697489e-004
1.502300e+003,1.102841e-004
1.504228e+003,3.711936e-004
1.506157e+003,1.015685e-003
1.508085e+003,3.638979e-004
1.510014e+003,-4.524084e-004
1.511942e+003,-6.636314e-004
1.513871e+003,-7.062077e-004
1.515799e+003,-4.226178e-004
1.517728e+003,-2.639649e-004
1.519656e+003,-9.352732e-005
1.521585e+003,1.382572e-004
1.523513e+003,-2.362808e-004
1.525442e+003,-1.973015e-004
1.527370e+003,-1.149599e-004
1.529299e+003,-5.095716e-005
1.531227e+003,2.254694e-004
1.533156e+003,9.371132e-004
1.535084e+003,1.052551e-003
1.537013e+003,1.225566e-003
1.538941e+003,2.257847e-003
1.540870e+003,2.853213e-003
1.542798e+003,2.659079e-003
1.544727e+003,2.459233e-003
1.546655e+003,2.370872e-003
1.548584e+003,2.682582e-003
1.550512e+003,3.179523e-003
1.552441e+003,3.732573e-003
1.554369e+003,4.400016e-003
1.556298e+003,5.176544e-003
1.558226e+003,6.800852e-003
1.560155e+003,7.094844e-003
1.562083e+003,6.396685e-003
1.564012e+003,6.420829e-003
1.565940e+003,6.518932e-003
1.567869e+003,6.844978e-003
1.569797e+003,7.264320e-003
1.571726e+003,6.902205e-003
1.573654e+003,6.907288e-003
1.575583e+003,7.548714e-003
1.577511e+003,7.394192e-003
1.579440e+003,6.892072e-003
1.581368e+003,6.744043e-003
1.583297e+003,6.538979e-003
1.585225e+003,6.428193e-003
1.587154e+003,6.237631e-003
1.589082e+003,5.933772e-003
1.591010e+003,5.589243e-003
1.592939e+003,5.206590e-003
1.594868e+003,4.854695e-003
1.596796e+003,4.451498e-003
1.598724e+003,3.946581e-003
1.600653e+003,3.455843e-003
1.602582e+003,3.012400e-003
1.604510e+003,2.449836e-003
1.606438e+003,2.007619e-003
1.608367e+003,1.693698e-003
1.610296e+003,1.219752e-003
1.612224e+003,7.498407e-004
1.614152e+003,6.869478e-004
1.616081e+003,8.574603e-004
1.618010e+003,4.536430e-004
1.619938e+003,-1.313235e-004
1.621866e+003,-1.995867e-004
1.623795e+003,-3.825958e-004
1.625724e+003,-6.506625e-004
1.627652e+003,-7.314802e-004
1.629580e+003,-9.817776e-004
1.631509e+003,-1.307586e-003
1.633438e+003,-1.062104e-003
1.635366e+003,-7.193073e-004
1.637294e+003,-1.285254e-003
1.639223e+003,-1.901766e-003
1.641151e+003,-2.215974e-003
1.643080e+003,-2.445024e-003
1.645008e+003,-2.153632e-003
1.646937e+003,-1.935876e-003
1.648865e+003,-2.503206e-003
1.650794e+003,-2.402189e-003
1.652722e+003,-1.325656e-003
1.654651e+003,-2.240797e-003
1.656579e+003,-3.346040e-003
1.658508e+003,-3.621025e-003
1.660436e+003,-3.620861e-003
1.662365e+003,-3.505774e-003
1.664293e+003,-3.696495e-003
1.666222e+003,-3.938852e-003
1.668150e+003,-3.653193e-003
1.670079e+003,-3.573837e-003
1.672007e+003,-4.012790e-003
1.673936e+003,-4.105719e-003
1.675864e+003,-4.367300e-003
1.677793e+003,-5.068707e-003
1.679721e+003,-5.320969e-003
1.681650e+003,-5.258809e-003
1.683578e+003,-4.689399e-003
1.685507e+003,-5.229248e-003
1.687435e+003,-6.060181e-003
1.689364e+003,-6.376979e-003
1.691292e+003,-6.669826e-003
1.693221e+003,-6.632399e-003
1.695149e+003,-6.117162e-003
1.697078e+003,-6.330841e-003
1.699006e+003,-6.177860e-003
1.700935e+003,-6.179036e-003
1.702863e+003,-6.924486e-003
1.704792e+003,-6.971573e-003
1.706720e+003,-7.235441e-003
1.708649e+003,-7.556072e-003
1.710577e+003,-7.722565e-003
1.712506e+003,-7.612891e-003
1.714434e+003,-7.339575e-003
1.716363e+003,-7.032183e-003
1.718291e+003,-7.049430e-003
1.720220e+003,-7.766962e-003
1.722148e+003,-8.136762e-003
1.724077e+003,-8.196919e-003
1.726005e+003,-8.230765e-003
1.727934e+003,-8.203974e-003
1.729862e+003,-8.147494e-003
1.731791e+003,-7.787758e-003
1.733719e+003,-7.292594e-003
1.735648e+003,-7.761396e-003
1.737576e+003,-8.119950e-003
1.739505e+003,-7.939197e-003
1.741433e+003,-8.075265e-003
1.743362e+003,-8.018508e-003
1.745290e+003,-7.918993e-003
1.747219e+003,-7.800255e-003
1.749147e+003,-7.595374e-003
1.751076e+003,-7.402839e-003
1.753004e+003,-7.652675e-003
1.754933e+003,-7.852877e-003
1.756861e+003,-7.705834e-003
1.758790e+003,-7.747433e-003
1.760718e+003,-7.556626e-003
1.762647e+003,-7.491073e-003
1.764575e+003,-7.771388e-003
1.766504e+003,-7.731419e-003
1.768432e+003,-7.569227e-003
1.770361e+003,-7.406910e-003
1.772289e+003,-7.269069e-003
1.774218e+003,-7.546694e-003
1.776146e+003,-7.689395e-003
1.778075e+003,-7.798238e-003
1.780003e+003,-7.832050e-003
1.781932e+003,-7.895079e-003
1.783860e+003,-7.869472e-003
1.785789e+003,-7.807838e-003
1.787717e+003,-7.802436e-003
1.789646e+003,-7.662246e-003
1.791574e+003,-7.340227e-003
1.793503e+003,-7.398767e-003
1.795431e+003,-7.687410e-003
1.797360e+003,-7.643527e-003
1.799288e+003,-7.519992e-003
1.801217e+003,-7.628551e-003
1.803145e+003,-7.828991e-003
1.805074e+003,-7.866348e-003
1.807002e+003,-7.933731e-003
1.808931e+003,-7.966980e-003
1.810859e+003,-7.872400e-003
1.812788e+003,-7.894982e-003
1.814716e+003,-8.025371e-003
1.816645e+003,-8.066321e-003
1.818573e+003,-8.099169e-003
1.820502e+003,-8.024753e-003
1.822430e+003,-7.969192e-003
1.824359e+003,-7.897422e-003
1.826287e+003,-7.913950e-003
1.828216e+003,-7.896250e-003
1.830144e+003,-7.864070e-003
1.832073e+003,-8.132243e-003
1.834001e+003,-8.201080e-003
1.835930e+003,-8.130324e-003
1.837858e+003,-8.128438e-003
1.839787e+003,-8.140307e-003
1.841715e+003,-8.091591e-003
1.843644e+003,-7.778353e-003
1.845572e+003,-7.918895e-003
1.847501e+003,-8.193667e-003
1.849429e+003,-8.220783e-003
1.851358e+003,-8.119235e-003
1.853286e+003,-7.959563e-003
1.855215e+003,-7.967696e-003
1.857143e+003,-8.027713e-003
1.859072e+003,-8.058547e-003
1.861000e+003,-8.002536e-003
1.862929e+003,-7.934480e-003
1.864857e+003,-7.830553e-003
1.866786e+003,-7.765172e-003
1.868714e+003,-7.719245e-003
1.870643e+003,-7.812101e-003
1.872571e+003,-7.954000e-003
1.874500e+003,-7.920295e-003
1.876428e+003,-7.843472e-003
1.878357e+003,-7.801525e-003
1.880285e+003,-7.865079e-003
1.882214e+003,-7.965386e-003
1.884142e+003,-7.940498e-003
1.886071e+003,-7.897162e-003
1.887999e+003,-7.742127e-003
1.889928e+003,-7.666055e-003
1.891856e+003,-7.819879e-003
1.893785e+003,-7.802599e-003
1.895713e+003,-7.697925e-003
1.897642e+003,-7.690405e-003
1.899570e+003,-7.642941e-003
1.901499e+003,-7.624188e-003
1.903427e+003,-7.660716e-003
1.905356e+003,-7.729987e-003
1.907284e+003,-7.775098e-003
1.909213e+003,-7.736497e-003
1.911141e+003,-7.732330e-003
1.913070e+003,-7.724030e-003
1.914998e+003,-7.662344e-003
1.916927e+003,-7.558710e-003
1.918855e+003,-7.554672e-003
1.920784e+003,-7.625132e-003
1.922712e+003,-7.704956e-003
1.924641e+003,-7.816039e-003
1.926569e+003,-7.741216e-003
1.928498e+003,-7.771127e-003
1.930426e+003,-7.775228e-003
1.932355e+003,-7.835955e-003
1.934283e+003,-7.908712e-003
1.936212e+003,-7.913494e-003
1.938140e+003,-7.964930e-003
1.940069e+003,-7.884472e-003
1.941997e+003,-7.674747e-003
1.943926e+003,-7.690828e-003
1.945854e+003,-7.884569e-003
1.947783e+003,-7.972445e-003
1.949711e+003,-7.953838e-003
1.951640e+003,-7.942125e-003
1.953568e+003,-7.991215e-003
1.955497e+003,-7.967273e-003
1.957425e+003,-7.931129e-003
1.959354e+003,-7.939458e-003
1.961282e+003,-7.966460e-003
1.963211e+003,-7.998438e-003
1.965139e+003,-7.988874e-003
1.967068e+003,-7.983473e-003
1.968996e+003,-8.149120e-003
1.970925e+003,-8.168728e-003
1.972853e+003,-8.040301e-003
1.974782e+003,-7.897617e-003
1.976710e+003,-7.867617e-003
1.978639e+003,-7.817048e-003
1.980567e+003,-7.777376e-003
1.982496e+003,-7.841747e-003
1.984424e+003,-7.787140e-003
1.986353e+003,-7.679890e-003
1.988281e+003,-7.722663e-003
1.990210e+003,-7.705932e-003
1.992138e+003,-7.617677e-003
1.994067e+003,-7.670775e-003
1.995995e+003,-7.738157e-003
1.997924e+003,-7.684090e-003
1.999852e+003,-7.612272e-003
2.001781e+003,-7.617058e-003
2.003709e+003,-7.587364e-003
2.005638e+003,-7.543992e-003
2.007566e+003,-7.467819e-003
2.009495e+003,-7.417855e-003
2.011423e+003,-7.401210e-003
2.013352e+003,-7.350359e-003
2.015280e+003,-7.347101e-003
2.017208e+003,-7.337328e-003
2.019137e+003,-7.383815e-003
2.021066e+003,-7.428734e-003
2.022994e+003,-7.424011e-003
2.024922e+003,-7.417758e-003
2.026851e+003,-7.417073e-003
2.028780e+003,-7.384011e-003
2.030708e+003,-7.362771e-003
2.032636e+003,-7.293637e-003
2.034565e+003,-7.315890e-003
2.036494e+003,-7.414142e-003
2.038422e+003,-7.475929e-003
2.040350e+003,-7.453977e-003
2.042279e+003,-7.397757e-003
2.044208e+003,-7.432317e-003
2.046136e+003,-7.445899e-003
2.048064e+003,-7.385835e-003
2.049993e+003,-7.317324e-003
2.051921e+003,-7.362315e-003
2.053850e+003,-7.376420e-003
2.055778e+003,-7.375671e-003
2.057707e+003,-7.287642e-003
2.059635e+003,-7.216312e-003
2.061564e+003,-7.196661e-003
2.063492e+003,-7.248182e-003
2.065421e+003,-7.248378e-003
2.067349e+003,-7.142071e-003
2.069278e+003,-7.177368e-003
2.071206e+003,-7.180464e-003
2.073135e+003,-7.094840e-003
2.075063e+003,-7.049527e-003
2.076992e+003,-7.000200e-003
2.078920e+003,-6.983898e-003
2.080849e+003,-6.980442e-003
2.082777e+003,-6.974442e-003
2.084706e+003,-6.968573e-003
2.086634e+003,-6.957780e-003
2.088563e+003,-6.938671e-003
2.090491e+003,-6.854272e-003
2.092420e+003,-6.846379e-003
2.094348e+003,-6.789754e-003
2.096277e+003,-6.745193e-003
2.098205e+003,-6.737754e-003
2.100134e+003,-6.664801e-003
2.102062e+003,-6.586157e-003
2.103991e+003,-6.595066e-003
2.105919e+003,-6.566510e-003
2.107848e+003,-6.505605e-003
2.109776e+003,-6.514125e-003
2.111705e+003,-6.513831e-003
2.113633e+003,-6.444758e-003
2.115562e+003,-6.372539e-003
2.117490e+003,-6.295017e-003
2.119419e+003,-6.241652e-003
2.121347e+003,-6.313860e-003
2.123276e+003,-6.383248e-003
2.125204e+003,-6.322514e-003
2.127133e+003,-6.209970e-003
2.129061e+003,-6.038844e-003
2.130990e+003,-5.919624e-003
2.132918e+003,-6.033681e-003
2.134847e+003,-6.086549e-003
2.136775e+003,-6.027767e-003
2.138704e+003,-5.941718e-003
2.140632e+003,-5.920081e-003
2.142561e+003,-5.961884e-003
2.144489e+003,-6.001918e-003
2.146418e+003,-6.016525e-003
2.148346e+003,-5.940444e-003
2.150275e+003,-5.898508e-003
2.152203e+003,-5.845487e-003
2.154132e+003,-5.858628e-003
2.156060e+003,-5.897920e-003
2.157989e+003,-5.872815e-003
2.159917e+003,-5.847710e-003
2.161846e+003,-5.923546e-003
2.163774e+003,-5.979172e-003
2.165703e+003,-5.942536e-003
2.167631e+003,-5.844539e-003
2.169560e+003,-5.801842e-003
2.171488e+003,-5.827572e-003
2.173417e+003,-5.862911e-003
2.175345e+003,-5.863597e-003
2.177274e+003,-5.847089e-003
2.179202e+003,-5.869972e-003
2.181131e+003,-5.922369e-003
2.183059e+003,-5.901483e-003
2.184988e+003,-5.832475e-003
2.186916e+003,-5.785233e-003
2.188845e+003,-5.838458e-003
2.190773e+003,-5.934266e-003
2.192702e+003,-5.945771e-003
2.194630e+003,-5.843983e-003
2.196559e+003,-5.742040e-003
2.198487e+003,-5.740569e-003
2.200416e+003,-5.750672e-003
2.202344e+003,-5.728110e-003
2.204273e+003,-5.769702e-003
2.206201e+003,-5.757931e-003
2.208130e+003,-5.712937e-003
2.210058e+003,-5.755642e-003
2.211987e+003,-5.747403e-003
2.213915e+003,-5.722747e-003
2.215844e+003,-5.686056e-003
2.217772e+003,-5.679679e-003
2.219701e+003,-5.653515e-003
2.221629e+003,-5.663163e-003
2.223558e+003,-5.663457e-003
2.225486e+003,-5.603015e-003
2.227415e+003,-5.669965e-003
2.229343e+003,-5.765975e-003
2.231272e+003,-5.732197e-003
2.233200e+003,-5.674348e-003
2.235129e+003,-5.633989e-003
2.237057e+003,-5.662705e-003
2.238986e+003,-5.688901e-003
2.240914e+003,-5.723368e-003
2.242843e+003,-5.685631e-003
2.244771e+003,-5.719052e-003
2.246700e+003,-5.753844e-003
2.248628e+003,-5.740993e-003
2.250557e+003,-5.901319e-003
2.252485e+003,-5.946065e-003
2.254414e+003,-5.847710e-003
2.256342e+003,-5.811127e-003
2.258271e+003,-5.839537e-003
2.260199e+003,-5.786966e-003
2.262128e+003,-5.744492e-003
2.264056e+003,-5.808315e-003
2.265985e+003,-5.836758e-003
2.267913e+003,-5.844931e-003
2.269842e+003,-5.851698e-003
2.271770e+003,-5.817764e-003
2.273699e+003,-5.854705e-003
2.275627e+003,-5.911943e-003
2.277556e+003,-5.942340e-003
2.279484e+003,-5.951392e-003
2.281413e+003,-5.935607e-003
2.283341e+003,-6.035380e-003
2.285270e+003,-6.020152e-003
2.287198e+003,-5.968420e-003
2.289127e+003,-5.984074e-003
2.291055e+003,-5.947503e-003
2.292984e+003,-5.881053e-003
2.294912e+003,-5.858269e-003
2.296841e+003,-5.732688e-003
2.298769e+003,-5.465548e-003
2.300698e+003,-5.276813e-003
2.302626e+003,-5.046895e-003
2.304555e+003,-4.829110e-003
2.306483e+003,-4.623641e-003
2.308412e+003,-4.377173e-003
2.310340e+003,-3.999395e-003
2.312269e+003,-3.401505e-003
2.314197e+003,-2.758114e-003
2.316125e+003,-2.184920e-003
2.318054e+003,-1.595881e-003
2.319983e+003,-9.185968e-004
2.321911e+003,-1.420555e-004
2.323840e+003,6.231680e-004
2.325768e+003,1.061420e-003
2.327697e+003,1.608152e-003
2.329625e+003,2.403622e-003
2.331553e+003,2.839572e-003
2.333482e+003,2.866388e-003
2.335411e+003,3.035189e-003
2.337339e+003,3.332085e-003
2.339268e+003,3.408486e-003
2.341196e+003,3.201686e-003
2.343125e+003,2.596276e-003
2.345053e+003,1.292592e-003
2.346981e+003,-6.894688e-004
2.348910e+003,-1.910574e-003
2.350839e+003,-4.784570e-004
2.352767e+003,2.175554e-003
2.354696e+003,4.207464e-003
2.356624e+003,5.560983e-003
2.358552e+003,6.285903e-003
2.360481e+003,6.469760e-003
2.362409e+003,6.491116e-003
2.364338e+003,6.267279e-003
2.366267e+003,5.411864e-003
2.368195e+003,4.322168e-003
2.370124e+003,3.110270e-003
2.372052e+003,1.559400e-003
2.373980e+003,3.737681e-005
2.375909e+003,-1.402319e-003
2.377838e+003,-2.767333e-003
2.379766e+003,-3.895606e-003
2.381695e+003,-4.540299e-003
2.383623e+003,-4.774844e-003
2.385552e+003,-5.040672e-003
2.387480e+003,-5.216775e-003
2.389408e+003,-5.104271e-003
2.391337e+003,-5.038904e-003
2.393266e+003,-5.040770e-003
2.395194e+003,-4.989478e-003
2.397123e+003,-4.974935e-003
2.399051e+003,-4.937623e-003
2.400979e+003,-4.875965e-003
2.402908e+003,-4.934151e-003
2.404836e+003,-4.923799e-003
2.406765e+003,-4.897131e-003
2.408694e+003,-4.926125e-003
2.410622e+003,-4.830028e-003
2.412551e+003,-4.793982e-003
2.414479e+003,-4.762030e-003
2.416407e+003,-4.641016e-003
2.418336e+003,-4.557447e-003
2.420264e+003,-4.608069e-003
2.422193e+003,-4.637016e-003
2.424122e+003,-4.524986e-003
2.426050e+003,-4.459793e-003
2.427979e+003,-4.422897e-003
2.429907e+003,-4.339810e-003
2.431835e+003,-4.234593e-003
2.433764e+003,-4.138180e-003
2.435692e+003,-4.078345e-003
2.437621e+003,-4.071813e-003
2.439550e+003,-4.121835e-003
2.441478e+003,-4.080019e-003
2.443406e+003,-3.911926e-003
2.445335e+003,-3.859285e-003
2.447263e+003,-3.854950e-003
2.449192e+003,-3.803945e-003
2.451121e+003,-3.731384e-003
2.453049e+003,-3.650006e-003
2.454978e+003,-3.618594e-003
2.456906e+003,-3.575316e-003
2.458834e+003,-3.546725e-003
2.460763e+003,-3.559082e-003
2.462691e+003,-3.654343e-003
2.464620e+003,-3.596512e-003
2.466549e+003,-3.489800e-003
2.468477e+003,-3.458935e-003
2.470406e+003,-3.440921e-003
2.472334e+003,-3.500975e-003
2.474262e+003,-3.502848e-003
2.476191e+003,-3.392234e-003
2.478119e+003,-3.324734e-003
2.480048e+003,-3.327528e-003
2.481977e+003,-3.237622e-003
2.483905e+003,-3.164506e-003
2.485833e+003,-3.231571e-003
2.487762e+003,-3.257815e-003
2.489690e+003,-3.170624e-003
2.491619e+003,-3.128059e-003
2.493547e+003,-3.053476e-003
2.495476e+003,-2.895552e-003
2.497405e+003,-2.880016e-003
2.499333e+003,-3.063446e-003
2.501261e+003,-3.087331e-003
2.503190e+003,-3.012446e-003
2.505118e+003,-2.983752e-003
2.507047e+003,-2.973221e-003
2.508975e+003,-3.031925e-003
2.510904e+003,-3.013203e-003
2.512833e+003,-2.878436e-003
2.514761e+003,-2.878272e-003
2.516689e+003,-2.925502e-003
2.518618e+003,-2.866619e-003
2.520546e+003,-2.811679e-003
2.522475e+003,-2.822740e-003
2.524403e+003,-2.821390e-003
2.526332e+003,-2.802165e-003
2.528260e+003,-2.796437e-003
2.530189e+003,-2.781260e-003
2.532117e+003,-2.767432e-003
2.534046e+003,-2.751793e-003
2.535974e+003,-2.682547e-003
2.537903e+003,-2.671416e-003
2.539831e+003,-2.593725e-003
2.541760e+003,-2.616122e-003
2.543688e+003,-2.654391e-003
2.545617e+003,-2.574325e-003
2.547545e+003,-2.466241e-003
2.549474e+003,-2.465418e-003
2.551402e+003,-2.587072e-003
2.553331e+003,-2.549456e-003
2.555259e+003,-2.439356e-003
2.557188e+003,-2.339412e-003
2.559116e+003,-2.335095e-003
2.561045e+003,-2.271616e-003
2.562973e+003,-2.263673e-003
2.564902e+003,-2.268814e-003
2.566830e+003,-2.149214e-003
2.568759e+003,-2.176117e-003
2.570687e+003,-2.263475e-003
2.572616e+003,-2.167545e-003
2.574544e+003,-1.966354e-003
2.576473e+003,-2.047719e-003
2.578401e+003,-2.172557e-003
2.580330e+003,-2.123266e-003
2.582258e+003,-2.109087e-003
2.584187e+003,-2.057085e-003
2.586115e+003,-2.110175e-003
2.588044e+003,-2.135762e-003
2.589972e+003,-2.012167e-003
2.591901e+003,-1.900150e-003
2.593829e+003,-1.990828e-003
2.595758e+003,-2.069814e-003
2.597686e+003,-2.026019e-003
2.599615e+003,-2.043135e-003
2.601543e+003,-2.049203e-003
2.603472e+003,-2.016851e-003
2.605400e+003,-1.951544e-003
2.607329e+003,-1.898137e-003
2.609257e+003,-1.855480e-003
2.611186e+003,-1.799751e-003
2.613114e+003,-1.802358e-003
2.615043e+003,-1.851488e-003
2.616971e+003,-1.854853e-003
2.618900e+003,-1.758965e-003
2.620828e+003,-1.726261e-003
2.622757e+003,-1.668932e-003
2.624685e+003,-1.643648e-003
2.626614e+003,-1.617801e-003
2.628542e+003,-1.570626e-003
2.630471e+003,-1.572144e-003
2.632399e+003,-1.593768e-003
2.634328e+003,-1.545534e-003
2.636256e+003,-1.573696e-003
2.638185e+003,-1.524601e-003
2.640113e+003,-1.422234e-003
2.642042e+003,-1.399115e-003
2.643970e+003,-1.340586e-003
2.645899e+003,-1.306760e-003
2.647827e+003,-1.340619e-003
2.649756e+003,-1.302631e-003
2.651684e+003,-1.190364e-003
2.653613e+003,-1.142184e-003
2.655541e+003,-1.109301e-003
2.657470e+003,-1.145291e-003
2.659398e+003,-1.038900e-003
2.661327e+003,-9.095041e-004
2.663255e+003,-9.481551e-004
2.665184e+003,-9.950672e-004
2.667112e+003,-8.728669e-004
2.669041e+003,-7.753729e-004
2.670969e+003,-7.014772e-004
2.672898e+003,-6.180731e-004
2.674826e+003,-5.419334e-004
2.676755e+003,-5.254860e-004
2.678683e+003,-5.776390e-004
2.680612e+003,-4.856060e-004
2.682540e+003,-3.719360e-004
2.684469e+003,-3.647851e-004
2.686397e+003,-2.903890e-004
2.688326e+003,-1.351990e-004
2.690254e+003,6.564349e-005
2.692183e+003,5.934712e-005
2.694111e+003,-3.071417e-005
2.696040e+003,-5.612543e-005
2.697968e+003,6.266099e-005
2.699897e+003,2.252042e-004
2.701825e+003,2.383986e-004
2.703754e+003,2.946947e-004
2.705682e+003,4.883057e-004
2.707611e+003,4.552020e-004
2.709539e+003,3.832648e-004
2.711468e+003,5.040292e-004
2.713396e+003,6.325585e-004
2.715325e+003,7.490773e-004
2.717253e+003,6.510746e-004
2.719182e+003,6.308994e-004
2.721110e+003,7.073579e-004
2.723039e+003,8.602158e-004
2.724967e+003,9.280813e-004
2.726896e+003,9.305385e-004
2.728824e+003,9.739398e-004
2.730753e+003,1.076400e-003
2.732681e+003,1.164399e-003
2.734610e+003,1.213040e-003
2.736538e+003,1.230119e-003
2.738467e+003,1.274879e-003
2.740395e+003,1.362386e-003
2.742324e+003,1.428469e-003
2.744252e+003,1.518068e-003
2.746181e+003,1.634858e-003
2.748109e+003,1.734181e-003
2.750038e+003,1.844175e-003
2.751966e+003,1.886336e-003
2.753895e+003,1.965046e-003
2.755823e+003,2.081224e-003
2.757752e+003,2.169127e-003
2.759680e+003,2.325732e-003
2.761609e+003,2.526049e-003
2.763537e+003,2.861952e-003
2.765466e+003,3.093017e-003
2.767394e+003,3.254028e-003
2.769323e+003,3.552777e-003
2.771251e+003,4.003460e-003
2.773180e+003,4.376787e-003
2.775108e+003,4.742296e-003
2.777037e+003,5.150558e-003
2.778965e+003,5.504202e-003
2.780894e+003,6.028606e-003
2.782822e+003,6.688822e-003
2.784750e+003,7.317727e-003
2.786679e+003,7.942009e-003
2.788608e+003,8.597133e-003
2.790536e+003,9.297183e-003
2.792465e+003,9.942523e-003
2.794393e+003,1.061120e-002
2.796322e+003,1.132036e-002
2.798250e+003,1.190285e-002
2.800178e+003,1.231803e-002
2.802107e+003,1.275829e-002
2.804036e+003,1.326451e-002
2.805964e+003,1.370197e-002
2.807893e+003,1.416170e-002
2.809821e+003,1.446329e-002
2.811750e+003,1.449152e-002
2.813678e+003,1.454445e-002
2.815606e+003,1.463203e-002
2.817535e+003,1.456655e-002
2.819464e+003,1.450519e-002
2.821392e+003,1.437218e-002
2.823321e+003,1.413729e-002
2.825249e+003,1.381472e-002
2.827177e+003,1.336762e-002
2.829106e+003,1.298485e-002
2.831034e+003,1.254897e-002
2.832963e+003,1.207012e-002
2.834892e+003,1.179494e-002
2.836820e+003,1.136569e-002
2.838749e+003,1.078474e-002
2.840677e+003,1.031970e-002
2.842605e+003,9.925743e-003
2.844534e+003,9.426648e-003
2.846462e+003,8.870531e-003
2.848391e+003,8.399569e-003
2.850320e+003,8.027191e-003
2.852248e+003,7.735468e-003
2.854177e+003,7.527339e-003
2.856105e+003,7.354761e-003
2.858033e+003,7.219174e-003
2.859962e+003,7.206541e-003
2.861890e+003,7.086525e-003
2.863819e+003,6.949372e-003
2.865748e+003,6.957856e-003
2.867676e+003,6.886046e-003
2.869604e+003,6.882410e-003
2.871533e+003,6.995467e-003
2.873461e+003,7.016815e-003
2.875390e+003,6.972301e-003
2.877319e+003,7.028601e-003
2.879247e+003,7.294072e-003
2.881176e+003,7.459749e-003
2.883104e+003,7.527643e-003
2.885032e+003,7.637731e-003
2.886961e+003,7.601819e-003
2.888889e+003,7.524407e-003
2.890818e+003,7.486750e-003
2.892747e+003,7.453850e-003
2.894675e+003,7.288378e-003
2.896604e+003,7.170091e-003
2.898532e+003,7.164870e-003
2.900460e+003,7.244476e-003
2.902389e+003,7.265129e-003
2.904317e+003,7.179860e-003
2.906246e+003,7.243364e-003
2.908175e+003,7.260412e-003
2.910103e+003,7.272171e-003
2.912031e+003,7.262670e-003
2.913960e+003,7.158167e-003
2.915888e+003,7.147859e-003
2.917817e+003,7.249361e-003
2.919745e+003,7.494470e-003
2.921674e+003,7.743394e-003
2.923603e+003,7.894262e-003
2.925531e+003,8.004848e-003
2.927459e+003,8.065974e-003
2.929388e+003,8.127616e-003
2.931316e+003,8.269870e-003
2.933245e+003,8.411494e-003
2.935173e+003,8.423859e-003
2.937102e+003,8.385483e-003
2.939031e+003,8.292024e-003
2.940959e+003,8.160938e-003
2.942887e+003,8.027393e-003
2.944816e+003,7.890956e-003
2.946744e+003,7.712566e-003
2.948673e+003,7.311426e-003
2.950601e+003,6.809805e-003
2.952530e+003,6.438315e-003
2.954458e+003,6.097957e-003
2.956387e+003,5.668325e-003
2.958315e+003,5.197904e-003
2.960244e+003,4.499672e-003
2.962172e+003,3.914951e-003
2.964101e+003,3.501168e-003
2.966029e+003,2.946410e-003
2.967958e+003,2.366208e-003
2.969886e+003,1.915988e-003
2.971815e+003,1.499582e-003
2.973743e+003,1.100981e-003
2.975672e+003,8.204444e-004
2.977600e+003,6.858526e-004
2.979529e+003,4.447208e-004
2.981457e+003,1.068041e-004
2.983386e+003,-2.532359e-004
2.985314e+003,-5.047356e-004
2.987243e+003,-6.417957e-004
2.989171e+003,-7.763652e-004
2.991100e+003,-1.020224e-003
2.993028e+003,-1.165845e-003
2.994957e+003,-1.163301e-003
2.996885e+003,-1.202656e-003
2.998814e+003,-1.291201e-003
3.000742e+003,-1.381973e-003
3.002671e+003,-1.473916e-003
3.004599e+003,-1.578285e-003
3.006528e+003,-1.482270e-003
3.008456e+003,-1.438944e-003
3.010385e+003,-1.465528e-003
3.012313e+003,-1.556165e-003
3.014242e+003,-1.685072e-003
3.016170e+003,-1.790215e-003
3.018099e+003,-1.676490e-003
3.020027e+003,-1.664377e-003
3.021956e+003,-1.743389e-003
3.023884e+003,-1.875638e-003
3.025813e+003,-1.912191e-003
3.027741e+003,-2.025030e-003
3.029670e+003,-2.104537e-003
3.031598e+003,-2.036935e-003
3.033527e+003,-2.023150e-003
3.035455e+003,-2.014014e-003
3.037384e+003,-1.970412e-003
3.039312e+003,-2.018500e-003
3.041241e+003,-2.205458e-003
3.043169e+003,-2.325505e-003
3.045098e+003,-2.335655e-003
3.047026e+003,-2.334337e-003
3.048955e+003,-2.391183e-003
3.050883e+003,-2.415732e-003
3.052812e+003,-2.382319e-003
3.054740e+003,-2.444101e-003
3.056669e+003,-2.506599e-003
3.058597e+003,-2.614014e-003
3.060526e+003,-2.739084e-003
3.062454e+003,-2.713664e-003
3.064383e+003,-2.665719e-003
3.066311e+003,-2.669638e-003
3.068240e+003,-2.665818e-003
3.070168e+003,-2.837487e-003
3.072097e+003,-2.977203e-003
3.074025e+003,-2.958775e-003
3.075954e+003,-2.949757e-003
3.077882e+003,-2.952653e-003
3.079811e+003,-3.027648e-003
3.081739e+003,-3.139671e-003
3.083668e+003,-3.108945e-003
3.085596e+003,-3.234399e-003
3.087525e+003,-3.395521e-003
3.089453e+003,-3.319012e-003
3.091382e+003,-3.232656e-003
3.093310e+003,-3.145427e-003
3.095239e+003,-3.107794e-003
3.097167e+003,-3.238346e-003
3.099096e+003,-3.297540e-003
3.101024e+003,-3.326608e-003
3.102953e+003,-3.342818e-003
3.104881e+003,-3.409691e-003
3.106810e+003,-3.358074e-003
3.108738e+003,-3.323912e-003
3.110667e+003,-3.370765e-003
3.112595e+003,-3.319209e-003
3.114524e+003,-3.338346e-003
3.116452e+003,-3.501764e-003
3.118381e+003,-3.513793e-003
3.120309e+003,-3.537260e-003
3.122238e+003,-3.435234e-003
3.124166e+003,-3.461663e-003
3.126095e+003,-3.525658e-003
3.128023e+003,-3.438981e-003
3.129952e+003,-3.471951e-003
3.131880e+003,-3.509192e-003
3.133809e+003,-3.448120e-003
3.135737e+003,-3.473726e-003
3.137666e+003,-3.510309e-003
3.139594e+003,-3.520071e-003
3.141523e+003,-3.507384e-003
3.143451e+003,-3.408770e-003
3.145380e+003,-3.386152e-003
3.147308e+003,-3.489504e-003
3.149237e+003,-3.472412e-003
3.151165e+003,-3.404036e-003
3.153094e+003,-3.274258e-003
3.155022e+003,-3.289319e-003
3.156951e+003,-3.427574e-003
3.158879e+003,-3.351169e-003
3.160808e+003,-3.246929e-003
3.162736e+003,-3.243016e-003
3.164665e+003,-3.232755e-003
3.166593e+003,-3.293068e-003
3.168522e+003,-3.408409e-003
3.170450e+003,-3.334170e-003
3.172379e+003,-3.230124e-003
3.174307e+003,-3.243378e-003
3.176236e+003,-3.168519e-003
3.178164e+003,-3.099734e-003
3.180093e+003,-3.173190e-003
3.182021e+003,-3.260347e-003
3.183950e+003,-3.201641e-003
3.185878e+003,-3.281723e-003
3.187807e+003,-3.200358e-003
3.189735e+003,-3.120492e-003
3.191664e+003,-3.186972e-003
3.193592e+003,-3.147072e-003
3.195521e+003,-3.178124e-003
3.197449e+003,-3.244825e-003
3.199378e+003,-3.330060e-003
3.201306e+003,-3.331343e-003
3.203235e+003,-3.262024e-003
3.205163e+003,-3.246370e-003
3.207092e+003,-3.243213e-003
3.209020e+003,-3.069137e-003
3.210948e+003,-2.984870e-003
3.212877e+003,-2.969207e-003
3.214806e+003,-2.956899e-003
3.216734e+003,-2.970029e-003
3.218663e+003,-2.912634e-003
3.220591e+003,-2.865171e-003
3.222520e+003,-2.874947e-003
3.224448e+003,-2.770000e-003
3.226376e+003,-2.674874e-003
3.228305e+003,-2.562368e-003
3.230234e+003,-2.487689e-003
3.232162e+003,-2.548962e-003
3.234091e+003,-2.399882e-003
3.236019e+003,-2.303686e-003
3.237948e+003,-2.320001e-003
3.239876e+003,-2.272177e-003
3.241804e+003,-2.017147e-003
3.243733e+003,-1.937063e-003
3.245662e+003,-1.980142e-003
3.247590e+003,-1.747976e-003
3.249519e+003,-1.568117e-003
3.251447e+003,-1.622125e-003
3.253375e+003,-1.782923e-003
3.255304e+003,-1.688009e-003
3.257232e+003,-1.446210e-003
3.259161e+003,-1.397959e-003
3.261090e+003,-1.257536e-003
3.263018e+003,-1.229948e-003
3.264947e+003,-1.350529e-003
3.266875e+003,-1.463877e-003
3.268803e+003,-1.312508e-003
3.270732e+003,-1.125363e-003
3.272660e+003,-1.091785e-003
3.274589e+003,-1.056882e-003
3.276518e+003,-1.013976e-003
3.278446e+003,-9.736780e-004
3.280375e+003,-9.259370e-004
3.282303e+003,-9.359551e-004
3.284231e+003,-8.956167e-004
3.286160e+003,-1.116176e-003
3.288088e+003,-1.351256e-003
3.290017e+003,-1.465891e-003
3.291946e+003,-1.376127e-003
3.293874e+003,-1.369488e-003
3.295802e+003,-1.348745e-003
3.297731e+003,-1.277557e-003
3.299659e+003,-1.340256e-003
3.301588e+003,-1.527804e-003
3.303516e+003,-1.729462e-003
3.305445e+003,-1.876496e-003
3.307374e+003,-2.015103e-003
3.309302e+003,-2.178623e-003
3.311230e+003,-2.317891e-003
3.313159e+003,-2.309355e-003
3.315087e+003,-2.423541e-003
3.317016e+003,-2.476389e-003
3.318944e+003,-2.546623e-003
3.320873e+003,-2.647047e-003
3.322802e+003,-2.673688e-003
3.324730e+003,-2.871590e-003
3.326658e+003,-3.035939e-003
3.328587e+003,-3.029819e-003
3.330515e+003,-3.073941e-003
3.332444e+003,-3.245581e-003
3.334372e+003,-3.246831e-003
3.336301e+003,-3.225717e-003
3.338229e+003,-3.340352e-003
3.340158e+003,-3.480465e-003
3.342086e+003,-3.572030e-003
3.344015e+003,-3.623785e-003
3.345943e+003,-3.572095e-003
3.347872e+003,-3.604530e-003
3.349800e+003,-3.762953e-003
3.351729e+003,-3.859679e-003
3.353657e+003,-3.971226e-003
3.355586e+003,-4.040234e-003
3.357514e+003,-4.050542e-003
3.359443e+003,-4.163909e-003
3.361371e+003,-4.381962e-003
3.363300e+003,-4.370580e-003
3.365229e+003,-4.223864e-003
3.367157e+003,-4.410039e-003
3.369085e+003,-4.766520e-003
3.371014e+003,-4.913577e-003
3.372942e+003,-4.882158e-003
3.374871e+003,-5.004775e-003
3.376799e+003,-5.028423e-003
3.378728e+003,-5.155059e-003
3.380656e+003,-5.332556e-003
3.382585e+003,-5.366658e-003
3.384513e+003,-5.413979e-003
3.386442e+003,-5.552149e-003
3.388370e+003,-5.603277e-003
3.390299e+003,-5.707149e-003
3.392227e+003,-5.660546e-003
3.394156e+003,-5.801123e-003
3.396084e+003,-5.957308e-003
3.398013e+003,-5.949170e-003
3.399941e+003,-5.933286e-003
3.401870e+003,-5.989206e-003
3.403798e+003,-6.035576e-003
3.405727e+003,-5.971754e-003
3.407655e+003,-5.884322e-003
3.409584e+003,-5.917270e-003
3.411512e+003,-6.066716e-003
3.413441e+003,-6.233323e-003
3.415369e+003,-6.186876e-003
3.417298e+003,-6.139116e-003
3.419226e+003,-6.138659e-003
3.421155e+003,-6.181943e-003
3.423083e+003,-6.200660e-003
3.425012e+003,-6.134575e-003
3.426940e+003,-6.082922e-003
3.428869e+003,-6.114418e-003
3.430797e+003,-6.151041e-003
3.432726e+003,-6.216600e-003
3.434654e+003,-6.239398e-003
3.436583e+003,-6.444627e-003
3.438511e+003,-6.597905e-003
3.440440e+003,-6.493136e-003
3.442368e+003,-6.448545e-003
3.444297e+003,-6.499142e-003
3.446225e+003,-6.428957e-003
3.448154e+003,-6.319314e-003
3.450082e+003,-6.420436e-003
3.452011e+003,-6.488795e-003
3.453939e+003,-6.457685e-003
3.455868e+003,-6.485465e-003
3.457796e+003,-6.627145e-003
3.459725e+003,-6.814773e-003
3.461653e+003,-6.676743e-003
3.463582e+003,-6.610469e-003
3.465510e+003,-6.705259e-003
3.467439e+003,-6.779707e-003
3.469367e+003,-6.803356e-003
3.471296e+003,-6.831538e-003
3.473224e+003,-6.832778e-003
3.475153e+003,-6.965214e-003
3.477081e+003,-6.926834e-003
3.479010e+003,-6.918029e-003
3.480938e+003,-6.926345e-003
3.482867e+003,-7.002645e-003
3.484795e+003,-6.973464e-003
3.486724e+003,-6.982007e-003
3.488652e+003,-7.084670e-003
3.490581e+003,-7.138909e-003
3.492509e+003,-7.137181e-003
3.494438e+003,-7.139756e-003
3.496366e+003,-6.958595e-003
3.498295e+003,-6.936585e-003
3.500223e+003,-6.914410e-003
3.502152e+003,-6.870546e-003
3.504080e+003,-6.939389e-003
3.506009e+003,-7.040236e-003
3.507937e+003,-6.990223e-003
3.509866e+003,-6.873481e-003
3.511794e+003,-7.025533e-003
3.513723e+003,-7.258707e-003
3.515651e+003,-7.204548e-003
3.517580e+003,-7.057808e-003
3.519508e+003,-7.096078e-003
3.521437e+003,-7.103674e-003
3.523365e+003,-7.000428e-003
3.525294e+003,-7.098556e-003
3.527222e+003,-7.054874e-003
3.529151e+003,-6.944411e-003
3.531079e+003,-7.031532e-003
3.533008e+003,-7.118798e-003
3.534936e+003,-7.121177e-003
3.536865e+003,-7.096796e-003
3.538793e+003,-7.245445e-003
3.540722e+003,-7.304552e-003
3.542650e+003,-7.341106e-003
3.544579e+003,-7.193891e-003
3.546507e+003,-6.893734e-003
3.548436e+003,-6.994396e-003
3.550364e+003,-7.027456e-003
3.552293e+003,-6.894027e-003
3.554221e+003,-6.985756e-003
3.556150e+003,-7.249714e-003
3.558078e+003,-7.355995e-003
3.560007e+003,-7.341106e-003
3.561935e+003,-7.345407e-003
3.563864e+003,-7.103869e-003
3.565792e+003,-6.620553e-003
3.567721e+003,-6.715145e-003
3.569649e+003,-7.117201e-003
3.571578e+003,-7.181670e-003
3.573506e+003,-7.146047e-003
3.575435e+003,-7.164429e-003
3.577363e+003,-7.096828e-003
3.579292e+003,-7.114985e-003
3.581220e+003,-7.088125e-003
3.583149e+003,-7.031336e-003
3.585077e+003,-6.840214e-003
3.587006e+003,-6.558514e-003
3.588934e+003,-6.783752e-003
3.590863e+003,-7.121503e-003
3.592791e+003,-6.963486e-003
3.594720e+003,-6.821394e-003
3.596648e+003,-6.882776e-003
3.598577e+003,-7.098784e-003
3.600505e+003,-7.058851e-003
3.602434e+003,-6.860697e-003
3.604362e+003,-6.897191e-003
3.606291e+003,-6.974931e-003
3.608219e+003,-6.677265e-003
3.610148e+003,-6.697136e-003
3.612076e+003,-6.671588e-003
3.614005e+003,-6.852902e-003
3.615933e+003,-7.093079e-003
3.617862e+003,-6.938117e-003
3.619790e+003,-6.845759e-003
3.621719e+003,-7.095003e-003
3.623647e+003,-7.210447e-003
3.625576e+003,-6.897843e-003
3.627504e+003,-6.031786e-003
3.629433e+003,-5.744361e-003
3.631361e+003,-6.606129e-003
3.633290e+003,-6.990060e-003
3.635218e+003,-7.192164e-003
3.637146e+003,-7.116940e-003
3.639075e+003,-6.995277e-003
3.641004e+003,-7.175217e-003
3.642932e+003,-7.232541e-003
3.644861e+003,-7.185190e-003
3.646789e+003,-6.668227e-003
3.648718e+003,-6.095370e-003
3.650646e+003,-6.399835e-003
3.652574e+003,-7.283145e-003
3.654503e+003,-7.309113e-003
3.656432e+003,-6.986963e-003
3.658360e+003,-7.264442e-003
3.660289e+003,-7.509864e-003
3.662217e+003,-7.612435e-003
3.664146e+003,-7.623667e-003
3.666074e+003,-7.606444e-003
3.668002e+003,-7.236484e-003
3.669931e+003,-6.798561e-003
3.671860e+003,-7.195032e-003
3.673788e+003,-7.045355e-003
3.675717e+003,-6.680659e-003
3.677645e+003,-7.316607e-003
3.679573e+003,-7.530152e-003
3.681502e+003,-7.551546e-003
3.683430e+003,-7.529566e-003
3.685359e+003,-7.513935e-003
3.687288e+003,-7.024522e-003
3.689216e+003,-6.595817e-003
3.691145e+003,-6.921388e-003
3.693073e+003,-7.411276e-003
3.695001e+003,-7.505370e-003
3.696930e+003,-7.270372e-003
3.698858e+003,-7.130304e-003
3.700787e+003,-6.846118e-003
3.702716e+003,-6.857859e-003
3.704644e+003,-6.959965e-003
3.706573e+003,-6.905637e-003
3.708501e+003,-6.857403e-003
3.710429e+003,-6.528160e-003
3.712358e+003,-6.532762e-003
3.714286e+003,-7.334330e-003
3.716215e+003,-7.629821e-003
3.718144e+003,-7.246618e-003
3.720072e+003,-6.988886e-003
3.722000e+003,-6.899180e-003
3.723929e+003,-6.948649e-003
3.725857e+003,-6.924845e-003
3.727786e+003,-7.009133e-003
3.729714e+003,-7.054809e-003
3.731643e+003,-6.666596e-003
3.733572e+003,-6.308994e-003
3.735500e+003,-6.139868e-003
3.737428e+003,-6.682355e-003
3.739357e+003,-7.233486e-003
3.741285e+003,-7.114104e-003
3.743214e+003,-5.933809e-003
3.745142e+003,-5.556761e-003
3.747071e+003,-6.304161e-003
3.749000e+003,-5.815377e-003
3.750928e+003,-5.638470e-003
3.752856e+003,-6.045706e-003
3.754785e+003,-6.613765e-003
3.756713e+003,-6.657427e-003
3.758642e+003,-6.364017e-003
3.760570e+003,-6.216960e-003
3.762499e+003,-6.613178e-003
3.764427e+003,-6.642580e-003
3.766356e+003,-6.410478e-003
3.768284e+003,-6.367902e-003
3.770213e+003,-6.235675e-003
3.772141e+003,-6.430034e-003
3.774070e+003,-6.588181e-003
3.775998e+003,-6.614288e-003
3.777927e+003,-6.454976e-003
3.779855e+003,-6.340604e-003
3.781784e+003,-6.589877e-003
3.783712e+003,-6.569676e-003
3.785641e+003,-6.447989e-003
3.787569e+003,-6.501395e-003
3.789498e+003,-6.718865e-003
3.791426e+003,-6.822731e-003
3.793355e+003,-6.859262e-003
3.795283e+003,-6.553716e-003
3.797212e+003,-6.336653e-003
3.799140e+003,-6.283914e-003
3.801069e+003,-5.889944e-003
3.802997e+003,-6.329828e-003
3.804926e+003,-6.393239e-003
3.806854e+003,-5.878667e-003
3.808783e+003,-6.287179e-003
3.810711e+003,-6.568403e-003
3.812640e+003,-6.545230e-003
3.814568e+003,-6.314023e-003
3.816497e+003,-5.920735e-003
3.818425e+003,-5.976460e-003
3.820354e+003,-5.506315e-003
3.822282e+003,-5.671601e-003
3.824211e+003,-6.373127e-003
3.826139e+003,-6.321567e-003
3.828068e+003,-6.323135e-003
3.829996e+003,-6.225517e-003
3.831925e+003,-6.229763e-003
3.833853e+003,-6.167897e-003
3.835782e+003,-5.766890e-003
3.837710e+003,-5.452788e-003
3.839639e+003,-5.714049e-003
3.841567e+003,-5.949301e-003
3.843496e+003,-6.076224e-003
3.845424e+003,-6.378285e-003
3.847353e+003,-6.651814e-003
3.849281e+003,-6.328914e-003
3.851210e+003,-5.474056e-003
3.853138e+003,-4.533085e-003
3.855067e+003,-5.107218e-003
3.856995e+003,-6.053254e-003
3.858924e+003,-6.322840e-003
3.860852e+003,-6.050607e-003
3.862781e+003,-5.726867e-003
3.864709e+003,-5.750476e-003
3.866638e+003,-6.078674e-003
3.868566e+003,-5.650931e-003
3.870495e+003,-5.521168e-003
3.872423e+003,-5.806027e-003
3.874352e+003,-5.759926e-003
3.876280e+003,-6.124873e-003
3.878209e+003,-6.276663e-003
3.880137e+003,-6.073316e-003
3.882066e+003,-6.185504e-003
3.883994e+003,-6.088215e-003
3.885923e+003,-5.695343e-003
3.887851e+003,-5.957472e-003
3.889780e+003,-5.901058e-003
3.891708e+003,-5.746748e-003
3.893637e+003,-6.033028e-003
3.895565e+003,-6.332898e-003
3.897494e+003,-6.311085e-003
3.899422e+003,-6.016492e-003
3.901351e+003,-5.974140e-003
3.903279e+003,-5.951327e-003
3.905208e+003,-5.898312e-003
3.907136e+003,-6.302006e-003
3.909065e+003,-6.371167e-003
3.910993e+003,-6.364311e-003
3.912922e+003,-6.434148e-003
3.914850e+003,-6.336294e-003
3.916779e+003,-6.261804e-003
3.918707e+003,-6.184197e-003
3.920636e+003,-6.078054e-003
3.922564e+003,-5.987833e-003
3.924493e+003,-5.879157e-003
3.926421e+003,-6.110988e-003
3.928350e+003,-6.377371e-003
3.930278e+003,-6.464051e-003
3.932207e+003,-6.342270e-003
3.934135e+003,-6.349813e-003
3.936064e+003,-6.361045e-003
3.937992e+003,-6.258342e-003
3.939921e+003,-6.327183e-003
3.941849e+003,-6.256056e-003
3.943778e+003,-6.041719e-003
3.945706e+003,-5.870429e-003
3.947635e+003,-5.845356e-003
3.949563e+003,-6.028681e-003
3.951492e+003,-6.054332e-003
3.953420e+003,-6.074884e-003
3.955349e+003,-6.360556e-003
3.957277e+003,-6.516279e-003
3.959206e+003,-6.458958e-003
3.961134e+003,-6.362025e-003
3.963063e+003,-6.240999e-003
3.964991e+003,-6.169595e-003
3.966920e+003,-6.113830e-003
3.968848e+003,-5.924265e-003
3.970777e+003,-5.895566e-003
3.972705e+003,-5.995643e-003
3.974634e+003,-6.061455e-003
3.976562e+003,-6.171164e-003
3.978491e+003,-6.095207e-003
3.980419e+003,-5.962570e-003
3.982348e+003,-6.007898e-003
3.984276e+003,-6.028681e-003
3.986205e+003,-6.159011e-003
3.988133e+003,-6.142841e-003
3.990062e+003,-5.895697e-003
3.991990e+003,-5.973453e-003
3.993919e+003,-6.174038e-003
3.995847e+003,-6.297010e-003
3.997776e+003,-6.191743e-003
3.999704e+003,-6.162474e-003
4.001633e+003,0.000000e+000
