3.991989e+002,6.118690e-003
4.011274e+002,-3.507417e-003
4.030559e+002,-3.995685e-003
4.049844e+002,-7.090765e-003
4.069129e+002,-7.693856e-003
4.088414e+002,6.005719e-004
4.107699e+002,2.612410e-004
4.126984e+002,-2.321714e-003
4.146269e+002,-2.512166e-003
4.165554e+002,-8.246517e-004
4.184839e+002,6.937179e-004
4.204124e+002,8.723178e-003
4.223409e+002,8.062093e-003
4.242694e+002,4.704881e-003
4.261979e+002,-2.274220e-003
4.281264e+002,1.166060e-003
4.300549e+002,3.745039e-003
4.319834e+002,2.555578e-003
4.339119e+002,6.260623e-003
4.358404e+002,1.261848e-002
4.377689e+002,1.156920e-002
4.396974e+002,5.195288e-003
4.416259e+002,-1.260113e-003
4.435544e+002,1.388612e-003
4.454829e+002,2.440706e-003
4.474114e+002,8.028744e-003
4.493399e+002,9.863812e-003
4.512684e+002,5.596559e-003
4.531969e+002,3.673457e-003
4.551254e+002,6.723246e-003
4.570539e+002,6.865680e-003
4.589824e+002,5.140600e-003
4.609109e+002,4.467433e-003
4.628394e+002,5.428740e-003
4.647679e+002,4.031083e-003
4.666964e+002,3.446491e-003
4.686249e+002,5.241298e-003
4.705533e+002,7.461334e-003
4.724819e+002,6.493067e-003
4.744103e+002,5.768843e-003
4.763389e+002,6.146380e-003
4.782673e+002,4.901004e-003
4.801959e+002,3.153289e-003
4.821243e+002,5.087762e-003
4.840529e+002,5.360301e-003
4.859813e+002,3.472276e-003
4.879099e+002,3.268683e-003
4.898383e+002,4.508912e-003
4.917668e+002,4.230248e-003
4.936953e+002,1.555776e-003
4.956238e+002,-5.054264e-003
4.975523e+002,-6.146402e-003
4.994808e+002,-4.581841e-003
5.014093e+002,5.537244e-004
5.033378e+002,2.953016e-003
5.052663e+002,4.690344e-003
5.071948e+002,4.105166e-003
5.091233e+002,1.701115e-003
5.110518e+002,9.219717e-004
5.129803e+002,1.618329e-003
5.149088e+002,1.549258e-003
5.168373e+002,1.114766e-003
5.187658e+002,1.212076e-003
5.206943e+002,9.758991e-004
5.226228e+002,6.703216e-004
5.245513e+002,3.069628e-004
5.264798e+002,9.331285e-004
5.284083e+002,2.081191e-003
5.303368e+002,2.956051e-003
5.322653e+002,1.704409e-003
5.341938e+002,1.556108e-003
5.361223e+002,8.290756e-004
5.380508e+002,-1.077717e-004
5.399792e+002,2.100212e-004
5.419078e+002,1.305121e-003
5.438363e+002,1.577623e-003
5.457648e+002,1.221978e-003
5.476932e+002,1.043451e-003
5.496218e+002,1.008179e-003
5.515503e+002,2.026793e-003
5.534788e+002,2.158904e-003
5.554072e+002,1.272287e-003
5.573358e+002,7.476169e-004
5.592643e+002,1.061021e-003
5.611927e+002,1.270825e-003
5.631212e+002,1.723503e-003
5.650497e+002,1.942380e-003
5.669783e+002,1.212442e-003
5.689067e+002,1.545201e-003
5.708352e+002,1.729191e-003
5.727637e+002,1.030697e-003
5.746923e+002,5.366058e-004
5.766207e+002,2.743585e-005
5.785492e+002,3.828337e-004
5.804777e+002,1.034715e-003
5.824063e+002,1.577524e-003
5.843347e+002,2.152577e-003
5.862632e+002,2.001627e-003
5.881917e+002,1.801718e-003
5.901202e+002,1.847535e-003
5.920487e+002,2.461699e-003
5.939772e+002,2.726726e-003
5.959057e+002,2.619409e-003
5.978342e+002,2.658412e-003
5.997627e+002,2.141556e-003
6.016912e+002,8.563978e-004
6.036197e+002,4.888364e-004
6.055482e+002,1.238924e-003
6.074767e+002,2.304512e-003
6.094052e+002,2.120778e-003
6.113337e+002,7.610595e-004
6.132622e+002,-1.054860e-004
6.151907e+002,1.307335e-004
6.171192e+002,3.909919e-004
6.190477e+002,8.923913e-005
6.209762e+002,-4.092114e-004
6.229047e+002,-3.643878e-004
6.248332e+002,-1.496076e-004
6.267617e+002,1.459800e-004
6.286902e+002,1.068627e-003
6.306187e+002,1.738439e-003
6.325472e+002,1.703444e-003
6.344756e+002,1.375516e-003
6.364042e+002,1.213173e-003
6.383326e+002,1.265142e-003
6.402612e+002,1.210083e-003
6.421896e+002,1.672509e-003
6.441182e+002,1.773404e-003
6.460466e+002,9.522552e-004
6.479752e+002,1.194965e-003
6.499036e+002,1.728859e-003
6.518322e+002,1.444127e-003
6.537606e+002,1.534162e-003
6.556891e+002,1.605658e-003
6.576177e+002,1.439406e-003
6.595461e+002,1.236299e-003
6.614746e+002,1.162737e-003
6.634031e+002,1.106827e-003
6.653317e+002,1.621854e-003
6.672601e+002,1.872193e-003
6.691886e+002,2.300415e-003
6.711171e+002,2.484692e-003
6.730457e+002,2.068406e-003
6.749741e+002,2.232068e-003
6.769026e+002,2.688617e-003
6.788311e+002,2.378901e-003
6.807596e+002,2.082789e-003
6.826881e+002,2.369872e-003
6.846166e+002,2.582043e-003
6.865451e+002,2.732494e-003
6.884736e+002,2.870757e-003
6.904021e+002,2.805222e-003
6.923306e+002,2.769607e-003
6.942591e+002,2.867922e-003
6.961876e+002,2.598242e-003
6.981161e+002,2.214817e-003
7.000446e+002,2.508253e-003
7.019731e+002,2.968261e-003
7.039016e+002,3.133498e-003
7.058301e+002,2.771341e-003
7.077585e+002,2.497622e-003
7.096871e+002,2.810391e-003
7.116156e+002,3.234098e-003
7.135441e+002,3.027215e-003
7.154725e+002,2.336958e-003
7.174011e+002,1.814827e-003
7.193296e+002,2.005189e-003
7.212581e+002,2.043505e-003
7.231865e+002,2.297284e-003
7.251151e+002,2.712122e-003
7.270436e+002,2.874826e-003
7.289720e+002,3.181692e-003
7.309005e+002,3.528692e-003
7.328290e+002,3.106900e-003
7.347576e+002,2.954283e-003
7.366860e+002,3.732640e-003
7.386145e+002,4.011519e-003
7.405430e+002,3.894323e-003
7.424716e+002,3.733108e-003
7.444000e+002,3.949824e-003
7.463285e+002,4.114130e-003
7.482570e+002,4.012389e-003
7.501855e+002,4.357911e-003
7.521140e+002,4.561311e-003
7.540425e+002,4.273211e-003
7.559710e+002,3.989081e-003
7.578995e+002,4.548253e-003
7.598280e+002,5.121221e-003
7.617565e+002,4.965650e-003
7.636850e+002,4.908946e-003
7.656135e+002,5.086522e-003
7.675420e+002,5.240057e-003
7.694705e+002,5.612939e-003
7.713990e+002,5.355437e-003
7.733275e+002,4.732112e-003
7.752560e+002,4.392819e-003
7.771844e+002,4.322536e-003
7.791130e+002,4.168890e-003
7.810415e+002,4.141727e-003
7.829700e+002,4.430409e-003
7.848984e+002,4.802630e-003
7.868270e+002,4.801725e-003
7.887555e+002,4.589438e-003
7.906840e+002,4.224694e-003
7.926124e+002,4.331371e-003
7.945410e+002,4.971280e-003
7.964695e+002,5.461218e-003
7.983979e+002,5.644760e-003
8.003264e+002,5.429243e-003
8.022549e+002,5.395626e-003
8.041835e+002,5.649191e-003
8.061119e+002,5.723080e-003
8.080404e+002,6.130821e-003
8.099689e+002,6.179080e-003
8.118975e+002,6.053905e-003
8.138259e+002,6.612817e-003
8.157545e+002,7.132399e-003
8.176830e+002,6.706589e-003
8.196115e+002,5.853634e-003
8.215399e+002,5.282483e-003
8.234684e+002,5.188146e-003
8.253970e+002,4.559168e-003
8.273254e+002,3.767064e-003
8.292539e+002,3.542655e-003
8.311824e+002,3.532700e-003
8.331110e+002,3.406816e-003
8.350394e+002,3.575394e-003
8.369679e+002,3.777626e-003
8.388964e+002,3.190037e-003
8.408250e+002,2.734162e-003
8.427534e+002,2.874393e-003
8.446819e+002,3.372889e-003
8.466104e+002,3.419807e-003
8.485389e+002,3.332118e-003
8.504674e+002,3.016638e-003
8.523959e+002,3.135033e-003
8.543244e+002,3.200351e-003
8.562529e+002,3.127657e-003
8.581814e+002,2.985843e-003
8.601099e+002,3.309047e-003
8.620384e+002,3.522980e-003
8.639669e+002,3.119548e-003
8.658954e+002,3.278465e-003
8.678239e+002,3.628950e-003
8.697524e+002,3.282438e-003
8.716809e+002,3.011099e-003
8.736094e+002,2.859551e-003
8.755378e+002,2.800853e-003
8.774664e+002,3.157160e-003
8.793949e+002,3.334890e-003
8.813234e+002,3.055343e-003
8.832518e+002,2.640144e-003
8.851804e+002,2.390528e-003
8.871089e+002,2.434276e-003
8.890374e+002,2.858650e-003
8.909658e+002,2.950780e-003
8.928943e+002,2.757502e-003
8.948229e+002,2.564844e-003
8.967513e+002,2.632476e-003
8.986798e+002,2.530682e-003
9.006083e+002,2.253750e-003
9.025369e+002,2.400290e-003
9.044653e+002,2.455568e-003
9.063938e+002,2.425446e-003
9.083223e+002,2.425279e-003
9.102509e+002,2.154176e-003
9.121793e+002,1.858949e-003
9.141078e+002,1.805976e-003
9.160364e+002,2.043072e-003
9.179648e+002,2.312773e-003
9.198933e+002,2.327497e-003
9.218218e+002,2.331495e-003
9.237504e+002,2.194735e-003
9.256788e+002,1.992540e-003
9.276073e+002,1.981356e-003
9.295358e+002,2.282661e-003
9.314644e+002,2.420614e-003
9.333928e+002,2.485858e-003
9.353213e+002,2.586009e-003
9.372498e+002,2.746099e-003
9.391783e+002,2.649611e-003
9.411068e+002,2.684550e-003
9.430353e+002,2.850512e-003
9.449637e+002,3.013635e-003
9.468923e+002,3.044432e-003
9.488208e+002,2.825265e-003
9.507493e+002,2.874826e-003
9.526777e+002,2.943008e-003
9.546063e+002,2.982006e-003
9.565348e+002,3.090180e-003
9.584633e+002,3.095854e-003
9.603917e+002,2.873025e-003
9.623203e+002,2.691951e-003
9.642488e+002,2.863686e-003
9.661772e+002,3.113774e-003
9.681057e+002,3.319464e-003
9.700343e+002,3.243612e-003
9.719628e+002,2.957519e-003
9.738912e+002,2.636777e-003
9.758197e+002,2.551779e-003
9.777483e+002,2.523483e-003
9.796768e+002,2.637710e-003
9.816052e+002,2.665946e-003
9.835337e+002,2.476894e-003
9.854623e+002,2.538081e-003
9.873907e+002,2.694985e-003
9.893192e+002,2.657445e-003
9.912477e+002,2.661179e-003
9.931763e+002,2.896007e-003
9.951047e+002,3.241743e-003
9.970332e+002,3.056678e-003
9.989617e+002,2.665913e-003
1.000890e+003,3.012200e-003
1.002819e+003,3.543123e-003
1.004747e+003,3.599214e-003
1.006676e+003,3.769771e-003
1.008604e+003,4.094663e-003
1.010533e+003,4.265682e-003
1.012461e+003,4.631131e-003
1.014390e+003,4.954288e-003
1.016318e+003,5.119746e-003
1.018247e+003,5.444777e-003
1.020175e+003,5.522659e-003
1.022104e+003,5.704212e-003
1.024032e+003,6.064153e-003
1.025961e+003,6.239412e-003
1.027889e+003,6.170342e-003
1.029818e+003,6.319017e-003
1.031746e+003,6.699455e-003
1.033675e+003,6.859318e-003
1.035603e+003,7.103432e-003
1.037532e+003,7.243802e-003
1.039460e+003,7.431267e-003
1.041389e+003,7.609507e-003
1.043317e+003,7.382801e-003
1.045246e+003,7.224935e-003
1.047174e+003,7.482975e-003
1.049103e+003,7.740055e-003
1.051031e+003,7.766028e-003
1.052960e+003,8.067864e-003
1.054888e+003,8.051223e-003
1.056817e+003,7.712600e-003
1.058745e+003,7.725451e-003
1.060674e+003,7.846992e-003
1.062602e+003,8.096727e-003
1.064531e+003,8.206249e-003
1.066459e+003,8.097402e-003
1.068388e+003,8.152396e-003
1.070316e+003,8.187982e-003
1.072245e+003,8.199699e-003
1.074173e+003,8.308539e-003
1.076102e+003,8.387341e-003
1.078030e+003,8.382307e-003
1.079959e+003,8.288207e-003
1.081887e+003,8.348023e-003
1.083816e+003,8.547184e-003
1.085744e+003,8.728418e-003
1.087673e+003,8.962627e-003
1.089601e+003,8.938747e-003
1.091530e+003,9.092296e-003
1.093458e+003,9.403827e-003
1.095387e+003,9.348199e-003
1.097315e+003,9.357577e-003
1.099244e+003,9.432845e-003
1.101172e+003,9.504637e-003
1.103101e+003,9.576306e-003
1.105029e+003,9.362553e-003
1.106958e+003,9.443308e-003
1.108886e+003,9.576204e-003
1.110815e+003,9.654255e-003
1.112743e+003,9.813108e-003
1.114672e+003,9.628744e-003
1.116600e+003,9.566179e-003
1.118529e+003,9.661098e-003
1.120457e+003,9.598324e-003
1.122386e+003,9.591482e-003
1.124314e+003,9.801347e-003
1.126243e+003,9.597308e-003
1.128171e+003,9.395530e-003
1.130100e+003,9.500133e-003
1.132028e+003,9.332287e-003
1.133957e+003,9.144135e-003
1.135885e+003,9.049937e-003
1.137814e+003,8.793501e-003
1.139742e+003,8.448893e-003
1.141671e+003,8.170223e-003
1.143599e+003,8.082380e-003
1.145528e+003,7.989593e-003
1.147456e+003,7.599087e-003
1.149385e+003,7.192628e-003
1.151313e+003,7.014323e-003
1.153242e+003,6.787591e-003
1.155170e+003,6.370727e-003
1.157099e+003,6.191079e-003
1.159027e+003,5.968404e-003
1.160956e+003,5.932495e-003
1.162884e+003,5.881576e-003
1.164813e+003,5.704011e-003
1.166741e+003,5.490377e-003
1.168670e+003,5.488934e-003
1.170598e+003,5.526115e-003
1.172526e+003,5.442227e-003
1.174455e+003,5.325382e-003
1.176384e+003,5.350070e-003
1.178312e+003,5.390292e-003
1.180240e+003,5.285132e-003
1.182169e+003,5.110526e-003
1.184098e+003,5.084946e-003
1.186026e+003,5.039859e-003
1.187954e+003,4.848128e-003
1.189883e+003,4.416551e-003
1.191812e+003,4.229312e-003
1.193740e+003,4.428200e-003
1.195668e+003,4.500308e-003
1.197597e+003,4.399413e-003
1.199526e+003,4.471718e-003
1.201454e+003,4.401824e-003
1.203382e+003,4.427296e-003
1.205311e+003,4.404133e-003
1.207240e+003,4.217969e-003
1.209168e+003,4.417020e-003
1.211096e+003,4.630930e-003
1.213025e+003,4.709804e-003
1.214953e+003,4.700158e-003
1.216882e+003,4.611138e-003
1.218810e+003,4.564626e-003
1.220739e+003,4.581201e-003
1.222667e+003,4.734256e-003
1.224596e+003,4.791272e-003
1.226524e+003,4.643254e-003
1.228453e+003,4.594763e-003
1.230381e+003,4.694597e-003
1.232310e+003,4.655779e-003
1.234238e+003,4.684885e-003
1.236167e+003,4.793953e-003
1.238095e+003,4.714627e-003
1.240024e+003,4.858951e-003
1.241952e+003,5.221881e-003
1.243881e+003,5.230935e-003
1.245809e+003,5.358859e-003
1.247738e+003,5.608173e-003
1.249666e+003,5.703004e-003
1.251595e+003,5.872945e-003
1.253523e+003,6.227816e-003
1.255452e+003,6.477630e-003
1.257380e+003,6.862819e-003
1.259309e+003,7.171034e-003
1.261237e+003,7.399551e-003
1.263166e+003,7.826615e-003
1.265094e+003,8.235931e-003
1.267023e+003,8.486362e-003
1.268951e+003,8.759487e-003
1.270880e+003,9.017460e-003
1.272808e+003,9.386796e-003
1.274737e+003,9.935913e-003
1.276665e+003,1.058696e-002
1.278594e+003,1.098108e-002
1.280522e+003,1.098468e-002
1.282451e+003,1.124459e-002
1.284379e+003,1.181346e-002
1.286308e+003,1.265235e-002
1.288236e+003,1.333239e-002
1.290165e+003,1.374290e-002
1.292093e+003,1.407319e-002
1.294022e+003,1.406131e-002
1.295950e+003,1.412497e-002
1.297879e+003,1.435457e-002
1.299807e+003,1.477592e-002
1.301736e+003,1.487325e-002
1.303664e+003,1.472138e-002
1.305593e+003,1.460034e-002
1.307521e+003,1.446833e-002
1.309450e+003,1.429495e-002
1.311378e+003,1.395187e-002
1.313307e+003,1.355054e-002
1.315235e+003,1.328610e-002
1.317164e+003,1.300653e-002
1.319092e+003,1.240050e-002
1.321021e+003,1.174333e-002
1.322949e+003,1.134658e-002
1.324878e+003,1.111139e-002
1.326806e+003,1.088702e-002
1.328735e+003,1.075977e-002
1.330663e+003,1.054730e-002
1.332592e+003,1.037189e-002
1.334520e+003,1.029412e-002
1.336449e+003,1.022305e-002
1.338377e+003,1.027119e-002
1.340306e+003,1.023695e-002
1.342234e+003,1.018956e-002
1.344163e+003,1.019988e-002
1.346091e+003,1.010616e-002
1.348020e+003,1.005302e-002
1.349948e+003,9.983784e-003
1.351877e+003,9.832155e-003
1.353805e+003,9.729167e-003
1.355734e+003,9.628710e-003
1.357662e+003,9.463084e-003
1.359591e+003,9.418149e-003
1.361519e+003,9.343290e-003
1.363448e+003,9.204948e-003
1.365376e+003,9.042697e-003
1.367305e+003,8.928397e-003
1.369233e+003,8.935940e-003
1.371162e+003,8.873541e-003
1.373090e+003,8.870193e-003
1.375019e+003,9.024869e-003
1.376947e+003,9.160311e-003
1.378876e+003,9.230027e-003
1.380804e+003,9.317663e-003
1.382733e+003,9.179803e-003
1.384661e+003,8.976122e-003
1.386590e+003,8.794244e-003
1.388518e+003,8.691976e-003
1.390447e+003,8.577396e-003
1.392375e+003,8.298036e-003
1.394304e+003,8.139668e-003
1.396232e+003,8.093857e-003
1.398161e+003,8.023883e-003
1.400089e+003,7.984463e-003
1.402018e+003,7.917105e-003
1.403946e+003,7.832654e-003
1.405875e+003,7.696951e-003
1.407803e+003,7.608023e-003
1.409732e+003,7.439592e-003
1.411660e+003,7.315098e-003
1.413589e+003,7.250742e-003
1.415517e+003,7.406056e-003
1.417446e+003,7.766399e-003
1.419374e+003,8.265750e-003
1.421303e+003,8.941453e-003
1.423231e+003,9.540876e-003
1.425160e+003,1.025738e-002
1.427088e+003,1.094149e-002
1.429017e+003,1.140297e-002
1.430945e+003,1.169097e-002
1.432874e+003,1.190938e-002
1.434802e+003,1.226353e-002
1.436731e+003,1.260603e-002
1.438659e+003,1.303903e-002
1.440588e+003,1.349810e-002
1.442516e+003,1.403989e-002
1.444445e+003,1.458382e-002
1.446373e+003,1.524984e-002
1.448302e+003,1.592784e-002
1.450230e+003,1.654377e-002
1.452159e+003,1.721118e-002
1.454087e+003,1.786177e-002
1.456016e+003,1.823926e-002
1.457944e+003,1.870117e-002
1.459873e+003,1.912959e-002
1.461801e+003,1.944470e-002
1.463730e+003,1.965969e-002
1.465658e+003,1.983546e-002
1.467587e+003,1.976319e-002
1.469515e+003,1.956516e-002
1.471444e+003,1.946421e-002
1.473372e+003,1.932330e-002
1.475301e+003,1.896099e-002
1.477229e+003,1.843430e-002
1.479158e+003,1.792675e-002
1.481086e+003,1.734351e-002
1.483015e+003,1.681289e-002
1.484943e+003,1.622423e-002
1.486872e+003,1.565525e-002
1.488800e+003,1.515616e-002
1.490729e+003,1.454579e-002
1.492657e+003,1.396050e-002
1.494586e+003,1.358469e-002
1.496514e+003,1.311142e-002
1.498443e+003,1.251364e-002
1.500371e+003,1.197975e-002
1.502300e+003,1.162004e-002
1.504228e+003,1.125224e-002
1.506157e+003,1.088155e-002
1.508085e+003,1.066577e-002
1.510014e+003,1.045226e-002
1.511942e+003,1.023997e-002
1.513871e+003,1.004658e-002
1.515799e+003,9.912081e-003
1.517728e+003,9.860354e-003
1.519656e+003,9.806228e-003
1.521585e+003,9.874252e-003
1.523513e+003,1.006557e-002
1.525442e+003,1.031696e-002
1.527370e+003,1.046057e-002
1.529299e+003,1.048169e-002
1.531227e+003,1.066169e-002
1.533156e+003,1.108049e-002
1.535084e+003,1.153783e-002
1.537013e+003,1.175633e-002
1.538941e+003,1.194661e-002
1.540870e+003,1.230624e-002
1.542798e+003,1.268391e-002
1.544727e+003,1.306618e-002
1.546655e+003,1.336796e-002
1.548584e+003,1.373688e-002
1.550512e+003,1.415485e-002
1.552441e+003,1.436714e-002
1.554369e+003,1.465736e-002
1.556298e+003,1.501780e-002
1.558226e+003,1.540484e-002
1.560155e+003,1.593977e-002
1.562083e+003,1.644438e-002
1.564012e+003,1.693163e-002
1.565940e+003,1.740069e-002
1.567869e+003,1.762903e-002
1.569797e+003,1.788314e-002
1.571726e+003,1.822478e-002
1.573654e+003,1.834173e-002
1.575583e+003,1.840682e-002
1.577511e+003,1.853585e-002
1.579440e+003,1.854702e-002
1.581368e+003,1.853083e-002
1.583297e+003,1.832825e-002
1.585225e+003,1.801026e-002
1.587154e+003,1.775382e-002
1.589082e+003,1.738228e-002
1.591010e+003,1.687334e-002
1.592939e+003,1.633417e-002
1.594868e+003,1.574509e-002
1.596796e+003,1.518347e-002
1.598724e+003,1.457700e-002
1.600653e+003,1.384459e-002
1.602582e+003,1.326536e-002
1.604510e+003,1.276443e-002
1.606438e+003,1.222529e-002
1.608367e+003,1.169526e-002
1.610296e+003,1.126214e-002
1.612224e+003,1.065476e-002
1.614152e+003,1.019889e-002
1.616081e+003,9.856050e-003
1.618010e+003,9.650561e-003
1.619938e+003,9.395158e-003
1.621866e+003,9.213579e-003
1.623795e+003,8.999768e-003
1.625724e+003,8.846047e-003
1.627652e+003,8.627787e-003
1.629580e+003,8.397610e-003
1.631509e+003,8.218844e-003
1.633438e+003,8.055780e-003
1.635366e+003,7.806339e-003
1.637294e+003,7.475896e-003
1.639223e+003,7.203812e-003
1.641151e+003,6.895068e-003
1.643080e+003,6.362220e-003
1.645008e+003,5.880266e-003
1.646937e+003,5.607636e-003
1.648865e+003,5.378182e-003
1.650794e+003,5.016998e-003
1.652722e+003,4.772981e-003
1.654651e+003,4.549726e-003
1.656579e+003,4.312664e-003
1.658508e+003,3.932070e-003
1.660436e+003,3.643484e-003
1.662365e+003,3.385878e-003
1.664293e+003,3.172146e-003
1.666222e+003,3.056678e-003
1.668150e+003,2.789915e-003
1.670079e+003,2.504120e-003
1.672007e+003,2.372904e-003
1.673936e+003,2.060217e-003
1.675864e+003,1.874223e-003
1.677793e+003,1.627142e-003
1.679721e+003,1.369965e-003
1.681650e+003,1.203803e-003
1.683578e+003,1.124599e-003
1.685507e+003,1.054245e-003
1.687435e+003,8.310674e-004
1.689364e+003,6.535302e-004
1.691292e+003,6.975676e-004
1.693221e+003,7.042715e-004
1.695149e+003,6.522361e-004
1.697078e+003,7.372614e-004
1.699006e+003,6.650120e-004
1.700935e+003,6.728770e-004
1.702863e+003,7.327475e-004
1.704792e+003,7.168166e-004
1.706720e+003,7.630843e-004
1.708649e+003,7.360334e-004
1.710577e+003,6.345495e-004
1.712506e+003,5.386958e-004
1.714434e+003,5.486485e-004
1.716363e+003,5.162368e-004
1.718291e+003,5.148104e-004
1.720220e+003,5.050907e-004
1.722148e+003,4.484356e-004
1.724077e+003,3.906271e-004
1.726005e+003,3.554417e-004
1.727934e+003,3.729843e-004
1.729862e+003,4.682043e-004
1.731791e+003,4.045562e-004
1.733719e+003,2.648548e-004
1.735648e+003,1.968939e-004
1.737576e+003,1.713368e-004
1.739505e+003,3.567350e-004
1.741433e+003,4.922199e-004
1.743362e+003,3.441671e-004
1.745290e+003,4.346710e-004
1.747219e+003,4.891682e-004
1.749147e+003,4.395134e-004
1.751076e+003,3.410169e-004
1.753004e+003,2.963857e-004
1.754933e+003,2.700601e-004
1.756861e+003,2.809018e-004
1.758790e+003,2.847810e-004
1.760718e+003,2.703916e-004
1.762647e+003,3.375682e-004
1.764575e+003,4.122173e-004
1.766504e+003,4.299281e-004
1.768432e+003,4.952717e-004
1.770361e+003,3.846577e-004
1.772289e+003,3.054707e-004
1.774218e+003,3.055370e-004
1.776146e+003,2.704580e-004
1.778075e+003,2.765585e-004
1.780003e+003,3.137270e-004
1.781932e+003,3.015250e-004
1.783860e+003,2.545772e-004
1.785789e+003,3.157828e-004
1.787717e+003,3.429070e-004
1.789646e+003,3.643953e-004
1.791574e+003,2.383323e-004
1.793503e+003,7.906502e-005
1.795431e+003,6.213077e-005
1.797360e+003,1.553933e-004
1.799288e+003,3.458251e-004
1.801217e+003,4.245219e-004
1.803145e+003,3.341528e-004
1.805074e+003,2.681703e-004
1.807002e+003,2.474824e-004
1.808931e+003,1.553270e-004
1.810859e+003,2.146622e-004
1.812788e+003,3.249345e-004
1.814716e+003,2.836869e-004
1.816645e+003,2.358127e-004
1.818573e+003,2.013691e-004
1.820502e+003,1.970265e-004
1.822430e+003,1.634147e-004
1.824359e+003,1.375943e-004
1.826287e+003,1.972254e-004
1.828216e+003,1.853582e-004
1.830144e+003,1.619231e-004
1.832073e+003,2.382328e-004
1.834001e+003,2.710879e-004
1.835930e+003,2.130047e-004
1.837858e+003,2.423437e-004
1.839787e+003,2.167839e-004
1.841715e+003,1.542664e-004
1.843644e+003,9.321605e-005
1.845572e+003,9.215554e-005
1.847501e+003,1.927172e-004
1.849429e+003,2.451285e-004
1.851358e+003,2.444323e-004
1.853286e+003,1.786292e-004
1.855215e+003,1.486979e-004
1.857143e+003,1.704750e-004
1.859072e+003,1.592714e-004
1.861000e+003,1.180726e-004
1.862929e+003,2.053139e-004
1.864857e+003,3.552096e-004
1.866786e+003,2.443660e-004
1.868714e+003,2.170822e-004
1.870643e+003,3.242050e-004
1.872571e+003,3.694360e-004
1.874500e+003,3.954691e-004
1.876428e+003,3.607144e-004
1.878357e+003,3.241387e-004
1.880285e+003,2.751991e-004
1.882214e+003,2.413823e-004
1.884142e+003,2.517260e-004
1.886071e+003,2.322654e-004
1.887999e+003,2.451948e-004
1.889928e+003,2.820291e-004
1.891856e+003,2.995688e-004
1.893785e+003,3.347165e-004
1.895713e+003,3.528883e-004
1.897642e+003,3.727853e-004
1.899570e+003,4.185852e-004
1.901499e+003,4.688014e-004
1.903427e+003,4.464455e-004
1.905356e+003,2.962199e-004
1.907284e+003,3.250008e-004
1.909213e+003,4.871779e-004
1.911141e+003,5.076781e-004
1.913070e+003,5.177296e-004
1.914998e+003,4.762647e-004
1.916927e+003,4.300276e-004
1.918855e+003,4.534109e-004
1.920784e+003,4.792500e-004
1.922712e+003,4.521173e-004
1.924641e+003,4.539084e-004
1.926569e+003,4.282034e-004
1.928498e+003,3.757368e-004
1.930426e+003,4.979918e-004
1.932355e+003,5.421129e-004
1.934283e+003,5.452314e-004
1.936212e+003,5.275159e-004
1.938140e+003,5.331888e-004
1.940069e+003,5.082421e-004
1.941997e+003,4.601773e-004
1.943926e+003,4.810412e-004
1.945854e+003,4.758335e-004
1.947783e+003,4.207078e-004
1.949711e+003,4.646552e-004
1.951640e+003,4.919214e-004
1.953568e+003,4.555668e-004
1.955497e+003,4.423990e-004
1.957425e+003,4.798803e-004
1.959354e+003,5.251938e-004
1.961282e+003,5.524306e-004
1.963211e+003,4.765300e-004
1.965139e+003,5.230375e-004
1.967068e+003,5.605588e-004
1.968996e+003,5.655354e-004
1.970925e+003,6.098956e-004
1.972853e+003,6.295721e-004
1.974782e+003,6.052835e-004
1.976710e+003,5.363404e-004
1.978639e+003,4.988211e-004
1.980567e+003,5.286439e-004
1.982496e+003,5.301699e-004
1.984424e+003,5.073796e-004
1.986353e+003,5.556486e-004
1.988281e+003,6.579105e-004
1.990210e+003,6.533312e-004
1.992138e+003,6.942156e-004
1.994067e+003,7.968422e-004
1.995995e+003,7.683287e-004
1.997924e+003,7.633166e-004
1.999852e+003,7.933899e-004
2.001781e+003,7.600638e-004
2.003709e+003,7.285324e-004
2.005638e+003,7.479820e-004
2.007566e+003,7.326480e-004
2.009495e+003,6.829322e-004
2.011423e+003,6.528002e-004
2.013352e+003,7.383898e-004
2.015280e+003,7.703866e-004
2.017208e+003,7.821703e-004
2.019137e+003,7.916638e-004
2.021066e+003,8.014563e-004
2.022994e+003,8.674534e-004
2.024922e+003,8.586886e-004
2.026851e+003,7.692912e-004
2.028780e+003,7.486126e-004
2.030708e+003,8.209423e-004
2.032636e+003,9.655381e-004
2.034565e+003,1.040063e-003
2.036494e+003,1.032357e-003
2.038422e+003,1.064907e-003
2.040350e+003,1.082744e-003
2.042279e+003,1.137323e-003
2.044208e+003,1.136924e-003
2.046136e+003,1.133569e-003
2.048064e+003,1.206494e-003
2.049993e+003,1.247231e-003
2.051921e+003,1.216263e-003
2.053850e+003,1.236266e-003
2.055778e+003,1.290365e-003
2.057707e+003,1.301399e-003
2.059635e+003,1.382363e-003
2.061564e+003,1.412812e-003
2.063492e+003,1.407759e-003
2.065421e+003,1.431627e-003
2.067349e+003,1.436547e-003
2.069278e+003,1.476209e-003
2.071206e+003,1.547463e-003
2.073135e+003,1.576327e-003
2.075063e+003,1.587035e-003
2.076992e+003,1.592455e-003
2.078920e+003,1.695959e-003
2.080849e+003,1.770776e-003
2.082777e+003,1.836056e-003
2.084706e+003,1.917952e-003
2.086634e+003,1.849266e-003
2.088563e+003,1.790505e-003
2.090491e+003,1.957790e-003
2.092420e+003,2.049863e-003
2.094348e+003,1.969606e-003
2.096277e+003,2.042539e-003
2.098205e+003,2.162434e-003
2.100134e+003,2.112521e-003
2.102062e+003,2.095141e-003
2.103991e+003,2.209155e-003
2.105919e+003,2.324099e-003
2.107848e+003,2.297984e-003
2.109776e+003,2.279364e-003
2.111705e+003,2.389529e-003
2.113633e+003,2.467031e-003
2.115562e+003,2.452269e-003
2.117490e+003,2.563744e-003
2.119419e+003,2.625743e-003
2.121347e+003,2.602942e-003
2.123276e+003,2.611709e-003
2.125204e+003,2.579076e-003
2.127133e+003,2.589576e-003
2.129061e+003,2.659746e-003
2.130990e+003,2.745298e-003
2.132918e+003,2.873659e-003
2.134847e+003,2.864620e-003
2.136775e+003,2.799319e-003
2.138704e+003,2.779778e-003
2.140632e+003,2.831768e-003
2.142561e+003,2.870824e-003
2.144489e+003,2.849345e-003
2.146418e+003,2.982640e-003
2.148346e+003,3.089647e-003
2.150275e+003,3.050171e-003
2.152203e+003,3.026013e-003
2.154132e+003,3.072595e-003
2.156060e+003,3.104297e-003
2.157989e+003,3.056644e-003
2.159917e+003,3.019507e-003
2.161846e+003,3.126656e-003
2.163774e+003,3.220479e-003
2.165703e+003,3.287980e-003
2.167631e+003,3.323537e-003
2.169560e+003,3.416902e-003
2.171488e+003,3.461120e-003
2.173417e+003,3.406115e-003
2.175345e+003,3.358230e-003
2.177274e+003,3.349815e-003
2.179202e+003,3.379801e-003
2.181131e+003,3.358497e-003
2.183059e+003,3.337661e-003
2.184988e+003,3.284808e-003
2.186916e+003,3.226321e-003
2.188845e+003,3.269418e-003
2.190773e+003,3.370384e-003
2.192702e+003,3.469604e-003
2.194630e+003,3.375961e-003
2.196559e+003,3.276562e-003
2.198487e+003,3.182026e-003
2.200416e+003,3.159163e-003
2.202344e+003,3.191239e-003
2.204273e+003,3.265612e-003
2.206201e+003,3.288214e-003
2.208130e+003,3.249922e-003
2.210058e+003,3.185598e-003
2.211987e+003,3.144111e-003
2.213915e+003,3.178221e-003
2.215844e+003,3.133498e-003
2.217772e+003,3.134098e-003
2.219701e+003,3.205892e-003
2.221629e+003,3.137903e-003
2.223558e+003,3.100325e-003
2.225486e+003,3.081538e-003
2.227415e+003,3.076833e-003
2.229343e+003,3.063618e-003
2.231272e+003,3.013969e-003
2.233200e+003,2.976468e-003
2.235129e+003,2.995018e-003
2.237057e+003,3.033788e-003
2.238986e+003,3.007229e-003
2.240914e+003,2.903912e-003
2.242843e+003,2.858983e-003
2.244771e+003,2.896574e-003
2.246700e+003,2.867889e-003
2.248628e+003,2.854347e-003
2.250557e+003,2.843942e-003
2.252485e+003,2.813426e-003
2.254414e+003,2.789215e-003
2.256342e+003,2.780244e-003
2.258271e+003,2.733061e-003
2.260199e+003,2.745465e-003
2.262128e+003,2.750133e-003
2.264056e+003,2.780478e-003
2.265985e+003,2.811058e-003
2.267913e+003,2.674881e-003
2.269842e+003,2.689951e-003
2.271770e+003,2.729727e-003
2.273699e+003,2.636643e-003
2.275627e+003,2.714023e-003
2.277556e+003,2.731194e-003
2.279484e+003,2.626343e-003
2.281413e+003,2.616109e-003
2.283341e+003,2.560944e-003
2.285270e+003,2.477427e-003
2.287198e+003,2.591442e-003
2.289127e+003,2.613609e-003
2.291055e+003,2.593976e-003
2.292984e+003,2.590676e-003
2.294912e+003,2.491190e-003
2.296841e+003,2.504054e-003
2.298769e+003,2.507120e-003
2.300698e+003,2.458300e-003
2.302626e+003,2.480127e-003
2.304555e+003,2.566844e-003
2.306483e+003,2.595376e-003
2.308412e+003,2.594242e-003
2.310340e+003,2.589376e-003
2.312269e+003,2.554612e-003
2.314197e+003,2.592442e-003
2.316125e+003,2.654178e-003
2.318054e+003,2.592042e-003
2.319983e+003,2.512019e-003
2.321911e+003,2.488491e-003
2.323840e+003,2.666080e-003
2.325768e+003,2.700386e-003
2.327697e+003,2.634210e-003
2.329625e+003,2.658546e-003
2.331553e+003,2.686383e-003
2.333482e+003,2.718824e-003
2.335411e+003,2.827333e-003
2.337339e+003,2.796718e-003
2.339268e+003,2.706121e-003
2.341196e+003,2.710855e-003
2.343125e+003,2.793550e-003
2.345053e+003,2.879196e-003
2.346981e+003,2.974667e-003
2.348910e+003,2.956752e-003
2.350839e+003,3.034589e-003
2.352767e+003,3.014202e-003
2.354696e+003,2.968194e-003
2.356624e+003,3.041595e-003
2.358552e+003,2.989446e-003
2.360481e+003,2.914052e-003
2.362409e+003,3.038225e-003
2.364338e+003,3.152555e-003
2.366267e+003,3.231061e-003
2.368195e+003,3.177387e-003
2.370124e+003,3.174616e-003
2.372052e+003,3.295525e-003
2.373980e+003,3.391154e-003
2.375909e+003,3.383941e-003
2.377838e+003,3.496257e-003
2.379766e+003,3.694342e-003
2.381695e+003,3.796845e-003
2.383623e+003,3.844578e-003
2.385552e+003,3.991455e-003
2.387480e+003,4.047069e-003
2.389408e+003,4.123061e-003
2.391337e+003,4.282012e-003
2.393266e+003,4.293121e-003
2.395194e+003,4.352288e-003
2.397123e+003,4.460336e-003
2.399051e+003,4.464152e-003
2.400979e+003,4.395430e-003
2.402908e+003,4.419028e-003
2.404836e+003,4.508745e-003
2.406765e+003,4.515943e-003
2.408694e+003,4.439715e-003
2.410622e+003,4.438845e-003
2.412551e+003,4.563789e-003
2.414479e+003,4.607823e-003
2.416407e+003,4.574940e-003
2.418336e+003,4.584115e-003
2.420264e+003,4.637862e-003
2.422193e+003,4.754456e-003
2.424122e+003,4.850541e-003
2.426050e+003,4.854193e-003
2.427979e+003,4.854930e-003
2.429907e+003,4.925333e-003
2.431835e+003,5.062754e-003
2.433764e+003,5.169201e-003
2.435692e+003,5.125378e-003
2.437621e+003,5.140231e-003
2.439550e+003,5.208769e-003
2.441478e+003,5.261353e-003
2.443406e+003,5.282751e-003
2.445335e+003,5.286507e-003
2.447263e+003,5.273058e-003
2.449192e+003,5.243411e-003
2.451121e+003,5.312804e-003
2.453049e+003,5.347219e-003
2.454978e+003,5.437161e-003
2.456906e+003,5.510813e-003
2.458834e+003,5.514974e-003
2.460763e+003,5.535914e-003
2.462691e+003,5.651104e-003
2.464620e+003,5.759878e-003
2.466549e+003,5.806048e-003
2.468477e+003,5.789158e-003
2.470406e+003,5.839697e-003
2.472334e+003,5.807660e-003
2.474262e+003,5.897530e-003
2.476191e+003,6.096344e-003
2.478119e+003,6.168326e-003
2.480048e+003,6.160462e-003
2.481977e+003,6.112305e-003
2.483905e+003,6.096612e-003
2.485833e+003,6.118421e-003
2.487762e+003,6.258875e-003
2.489690e+003,6.350788e-003
2.491619e+003,6.332397e-003
2.493547e+003,6.438416e-003
2.495476e+003,6.469188e-003
2.497405e+003,6.442956e-003
2.499333e+003,6.486677e-003
2.501261e+003,6.737683e-003
2.503190e+003,6.788163e-003
2.505118e+003,6.697201e-003
2.507047e+003,6.670013e-003
2.508975e+003,6.729034e-003
2.510904e+003,6.791294e-003
2.512833e+003,6.849153e-003
2.514761e+003,6.941931e-003
2.516689e+003,6.950011e-003
2.518618e+003,6.879583e-003
2.520546e+003,6.891903e-003
2.522475e+003,6.857265e-003
2.524403e+003,6.811387e-003
2.526332e+003,6.909578e-003
2.528260e+003,7.018027e-003
2.530189e+003,7.081911e-003
2.532117e+003,7.111651e-003
2.534046e+003,7.094271e-003
2.535974e+003,7.224227e-003
2.537903e+003,7.245756e-003
2.539831e+003,7.117612e-003
2.541760e+003,7.065746e-003
2.543688e+003,7.009272e-003
2.545617e+003,7.085010e-003
2.547545e+003,7.228674e-003
2.549474e+003,7.284806e-003
2.551402e+003,7.275338e-003
2.553331e+003,7.267723e-003
2.555259e+003,7.295487e-003
2.557188e+003,7.282919e-003
2.559116e+003,7.208090e-003
2.561045e+003,7.263242e-003
2.562973e+003,7.407472e-003
2.564902e+003,7.392204e-003
2.566830e+003,7.339193e-003
2.568759e+003,7.370702e-003
2.570687e+003,7.398675e-003
2.572616e+003,7.431941e-003
2.574544e+003,7.474076e-003
2.576473e+003,7.454929e-003
2.578401e+003,7.459143e-003
2.580330e+003,7.437368e-003
2.582258e+003,7.448424e-003
2.584187e+003,7.498246e-003
2.586115e+003,7.507314e-003
2.588044e+003,7.505393e-003
2.589972e+003,7.577373e-003
2.591901e+003,7.682516e-003
2.593829e+003,7.811602e-003
2.595758e+003,7.787549e-003
2.597686e+003,7.735839e-003
2.599615e+003,7.792744e-003
2.601543e+003,7.849455e-003
2.603472e+003,7.730341e-003
2.605400e+003,7.648522e-003
2.607329e+003,7.780533e-003
2.609257e+003,7.940423e-003
2.611186e+003,7.985982e-003
2.613114e+003,8.042346e-003
2.615043e+003,8.035697e-003
2.616971e+003,8.091528e-003
2.618900e+003,8.126738e-003
2.620828e+003,8.160972e-003
2.622757e+003,8.275172e-003
2.624685e+003,8.430683e-003
2.626614e+003,8.443791e-003
2.628542e+003,8.295841e-003
2.630471e+003,8.146117e-003
2.632399e+003,8.164855e-003
2.634328e+003,8.198112e-003
2.636256e+003,8.227590e-003
2.638185e+003,8.337755e-003
2.640113e+003,8.340896e-003
2.642042e+003,8.320022e-003
2.643970e+003,8.310802e-003
2.645899e+003,8.446359e-003
2.647827e+003,8.574625e-003
2.649756e+003,8.590779e-003
2.651684e+003,8.549888e-003
2.653613e+003,8.609536e-003
2.655541e+003,8.725409e-003
2.657470e+003,8.771625e-003
2.659398e+003,8.788328e-003
2.661327e+003,8.881962e-003
2.663255e+003,8.918115e-003
2.665184e+003,8.928330e-003
2.667112e+003,8.944125e-003
2.669041e+003,8.922546e-003
2.670969e+003,8.885547e-003
2.672898e+003,8.973180e-003
2.674826e+003,9.018610e-003
2.676755e+003,9.078357e-003
2.678683e+003,9.132089e-003
2.680612e+003,9.201970e-003
2.682540e+003,9.288212e-003
2.684469e+003,9.279580e-003
2.686397e+003,9.340683e-003
2.688326e+003,9.427461e-003
2.690254e+003,9.490718e-003
2.692183e+003,9.465725e-003
2.694111e+003,9.467351e-003
2.696040e+003,9.576543e-003
2.697968e+003,9.687999e-003
2.699897e+003,9.701552e-003
2.701825e+003,9.686271e-003
2.703754e+003,9.703585e-003
2.705682e+003,9.815107e-003
2.707611e+003,9.974324e-003
2.709539e+003,1.006862e-002
2.711468e+003,9.992463e-003
2.713396e+003,9.932149e-003
2.715325e+003,9.971985e-003
2.717253e+003,1.005577e-002
2.719182e+003,1.013567e-002
2.721110e+003,1.025989e-002
2.723039e+003,1.027587e-002
2.724967e+003,1.033463e-002
2.726896e+003,1.044825e-002
2.728824e+003,1.047721e-002
2.730753e+003,1.053624e-002
2.732681e+003,1.071053e-002
2.734610e+003,1.081932e-002
2.736538e+003,1.086555e-002
2.738467e+003,1.092718e-002
2.740395e+003,1.101567e-002
2.742324e+003,1.107736e-002
2.744252e+003,1.113607e-002
2.746181e+003,1.113559e-002
2.748109e+003,1.125057e-002
2.750038e+003,1.147087e-002
2.751966e+003,1.146805e-002
2.753895e+003,1.147853e-002
2.755823e+003,1.165047e-002
2.757752e+003,1.181455e-002
2.759680e+003,1.186617e-002
2.761609e+003,1.210119e-002
2.763537e+003,1.241332e-002
2.765466e+003,1.250361e-002
2.767394e+003,1.273290e-002
2.769323e+003,1.309794e-002
2.771251e+003,1.339592e-002
2.773180e+003,1.381267e-002
2.775108e+003,1.419973e-002
2.777037e+003,1.447990e-002
2.778965e+003,1.493258e-002
2.780894e+003,1.556355e-002
2.782822e+003,1.600247e-002
2.784750e+003,1.648034e-002
2.786679e+003,1.718988e-002
2.788608e+003,1.786329e-002
2.790536e+003,1.843053e-002
2.792465e+003,1.913354e-002
2.794393e+003,1.979679e-002
2.796322e+003,2.026883e-002
2.798250e+003,2.085803e-002
2.800178e+003,2.157219e-002
2.802107e+003,2.223468e-002
2.804036e+003,2.274768e-002
2.805964e+003,2.316561e-002
2.807893e+003,2.347600e-002
2.809821e+003,2.366179e-002
2.811750e+003,2.383040e-002
2.813678e+003,2.398612e-002
2.815606e+003,2.401963e-002
2.817535e+003,2.399827e-002
2.819464e+003,2.396687e-002
2.821392e+003,2.374889e-002
2.823321e+003,2.346233e-002
2.825249e+003,2.323279e-002
2.827177e+003,2.300096e-002
2.829106e+003,2.267453e-002
2.831034e+003,2.223182e-002
2.832963e+003,2.177995e-002
2.834892e+003,2.133842e-002
2.836820e+003,2.087305e-002
2.838749e+003,2.045804e-002
2.840677e+003,1.994136e-002
2.842605e+003,1.939321e-002
2.844534e+003,1.883520e-002
2.846462e+003,1.831640e-002
2.848391e+003,1.783602e-002
2.850320e+003,1.746419e-002
2.852248e+003,1.716124e-002
2.854177e+003,1.686941e-002
2.856105e+003,1.659444e-002
2.858033e+003,1.642087e-002
2.859962e+003,1.633771e-002
2.861890e+003,1.618643e-002
2.863819e+003,1.606095e-002
2.865748e+003,1.606858e-002
2.867676e+003,1.604991e-002
2.869604e+003,1.600828e-002
2.871533e+003,1.605999e-002
2.873461e+003,1.621456e-002
2.875390e+003,1.634053e-002
2.877319e+003,1.638196e-002
2.879247e+003,1.658635e-002
2.881176e+003,1.670844e-002
2.883104e+003,1.667817e-002
2.885032e+003,1.664953e-002
2.886961e+003,1.668003e-002
2.888889e+003,1.662054e-002
2.890818e+003,1.654453e-002
2.892747e+003,1.641781e-002
2.894675e+003,1.636018e-002
2.896604e+003,1.633025e-002
2.898532e+003,1.623241e-002
2.900460e+003,1.613859e-002
2.902389e+003,1.606882e-002
2.904317e+003,1.607525e-002
2.906246e+003,1.611837e-002
2.908175e+003,1.606414e-002
2.910103e+003,1.593100e-002
2.912031e+003,1.589921e-002
2.913960e+003,1.586158e-002
2.915888e+003,1.578261e-002
2.917817e+003,1.585848e-002
2.919745e+003,1.593348e-002
2.921674e+003,1.599322e-002
2.923603e+003,1.598201e-002
2.925531e+003,1.606576e-002
2.927459e+003,1.623616e-002
2.929388e+003,1.625759e-002
2.931316e+003,1.643722e-002
2.933245e+003,1.660298e-002
2.935173e+003,1.670007e-002
2.937102e+003,1.674039e-002
2.939031e+003,1.669725e-002
2.940959e+003,1.671977e-002
2.942887e+003,1.664959e-002
2.944816e+003,1.647380e-002
2.946744e+003,1.619626e-002
2.948673e+003,1.591323e-002
2.950601e+003,1.559446e-002
2.952530e+003,1.527026e-002
2.954458e+003,1.488903e-002
2.956387e+003,1.445164e-002
2.958315e+003,1.396108e-002
2.960244e+003,1.341263e-002
2.962172e+003,1.289879e-002
2.964101e+003,1.253587e-002
2.966029e+003,1.204324e-002
2.967958e+003,1.139188e-002
2.969886e+003,1.086735e-002
2.971815e+003,1.045036e-002
2.973743e+003,1.008018e-002
2.975672e+003,9.770440e-003
2.977600e+003,9.431524e-003
2.979529e+003,9.102380e-003
2.981457e+003,8.761381e-003
2.983386e+003,8.454907e-003
2.985314e+003,8.165935e-003
2.987243e+003,7.967960e-003
2.989171e+003,7.805091e-003
2.991100e+003,7.686462e-003
2.993028e+003,7.473705e-003
2.994957e+003,7.301114e-003
2.996885e+003,7.195424e-003
2.998814e+003,7.105251e-003
3.000742e+003,6.991695e-003
3.002671e+003,6.849051e-003
3.004599e+003,6.734351e-003
3.006528e+003,6.742495e-003
3.008456e+003,6.734923e-003
3.010385e+003,6.592800e-003
3.012313e+003,6.563265e-003
3.014242e+003,6.475813e-003
3.016170e+003,6.352637e-003
3.018099e+003,6.381722e-003
3.020027e+003,6.518461e-003
3.021956e+003,6.492563e-003
3.023884e+003,6.409698e-003
3.025813e+003,6.300560e-003
3.027741e+003,6.139256e-003
3.029670e+003,6.169637e-003
3.031598e+003,6.188323e-003
3.033527e+003,6.125242e-003
3.035455e+003,6.091538e-003
3.037384e+003,6.030420e-003
3.039312e+003,5.819716e-003
3.041241e+003,5.747556e-003
3.043169e+003,5.746381e-003
3.045098e+003,5.692428e-003
3.047026e+003,5.720763e-003
3.048955e+003,5.636469e-003
3.050883e+003,5.521215e-003
3.052812e+003,5.413072e-003
3.054740e+003,5.374995e-003
3.056669e+003,5.423640e-003
3.058597e+003,5.390963e-003
3.060526e+003,5.261957e-003
3.062454e+003,5.208836e-003
3.064383e+003,5.243914e-003
3.066311e+003,5.160751e-003
3.068240e+003,5.055211e-003
3.070168e+003,4.887969e-003
3.072097e+003,4.810871e-003
3.074025e+003,4.810938e-003
3.075954e+003,4.812111e-003
3.077882e+003,4.765578e-003
3.079811e+003,4.637326e-003
3.081739e+003,4.541958e-003
3.083668e+003,4.506736e-003
3.085596e+003,4.459834e-003
3.087525e+003,4.435899e-003
3.089453e+003,4.406911e-003
3.091382e+003,4.270902e-003
3.093310e+003,4.243331e-003
3.095239e+003,4.288370e-003
3.097167e+003,4.177956e-003
3.099096e+003,4.052153e-003
3.101024e+003,3.929662e-003
3.102953e+003,3.993094e-003
3.104881e+003,4.034160e-003
3.106810e+003,4.041551e-003
3.108738e+003,4.078307e-003
3.110667e+003,3.904185e-003
3.112595e+003,3.748247e-003
3.114524e+003,3.725822e-003
3.116452e+003,3.734110e-003
3.118381e+003,3.687358e-003
3.120309e+003,3.516165e-003
3.122238e+003,3.399035e-003
3.124166e+003,3.449731e-003
3.126095e+003,3.325507e-003
3.128023e+003,3.283740e-003
3.129952e+003,3.424883e-003
3.131880e+003,3.377029e-003
3.133809e+003,3.338529e-003
3.135737e+003,3.320766e-003
3.137666e+003,3.282338e-003
3.139594e+003,3.289683e-003
3.141523e+003,3.232663e-003
3.143451e+003,3.232630e-003
3.145380e+003,3.239540e-003
3.147308e+003,3.243779e-003
3.149237e+003,3.196880e-003
3.151165e+003,3.135600e-003
3.153094e+003,3.106032e-003
3.155022e+003,3.075965e-003
3.156951e+003,3.137236e-003
3.158879e+003,3.260404e-003
3.160808e+003,3.314823e-003
3.162736e+003,3.226488e-003
3.164665e+003,3.169843e-003
3.166593e+003,3.069291e-003
3.168522e+003,3.083874e-003
3.170450e+003,3.035656e-003
3.172379e+003,2.977102e-003
3.174307e+003,2.996686e-003
3.176236e+003,3.067856e-003
3.178164e+003,3.092984e-003
3.180093e+003,3.110036e-003
3.182021e+003,3.044732e-003
3.183950e+003,3.006795e-003
3.185878e+003,3.010165e-003
3.187807e+003,3.027815e-003
3.189735e+003,3.015870e-003
3.191664e+003,2.916955e-003
3.193592e+003,2.874826e-003
3.195521e+003,2.851913e-003
3.197449e+003,2.964125e-003
3.199378e+003,2.993516e-003
3.201306e+003,3.018640e-003
3.203235e+003,2.988245e-003
3.205163e+003,2.992048e-003
3.207092e+003,2.875427e-003
3.209020e+003,2.975167e-003
3.210948e+003,3.115543e-003
3.212877e+003,3.109903e-003
3.214806e+003,3.168709e-003
3.216734e+003,3.082472e-003
3.218663e+003,2.984675e-003
3.220591e+003,3.042997e-003
3.222520e+003,3.199149e-003
3.224448e+003,3.334322e-003
3.226376e+003,3.454373e-003
3.228305e+003,3.540417e-003
3.230234e+003,3.602488e-003
3.232162e+003,3.635799e-003
3.234091e+003,3.640744e-003
3.236019e+003,3.748515e-003
3.237948e+003,3.862697e-003
3.239876e+003,3.985336e-003
3.241804e+003,4.077036e-003
3.243733e+003,4.040548e-003
3.245662e+003,4.105835e-003
3.247590e+003,4.127176e-003
3.249519e+003,4.221750e-003
3.251447e+003,4.247346e-003
3.253375e+003,4.195420e-003
3.255304e+003,4.297438e-003
3.257232e+003,4.551702e-003
3.259161e+003,4.723906e-003
3.261090e+003,4.705651e-003
3.263018e+003,4.749364e-003
3.264947e+003,4.729366e-003
3.266875e+003,4.713020e-003
3.268803e+003,4.832113e-003
3.270732e+003,4.912398e-003
3.272660e+003,5.006942e-003
3.274589e+003,5.067112e-003
3.276518e+003,5.088466e-003
3.278446e+003,5.159276e-003
3.280375e+003,5.137449e-003
3.282303e+003,5.195825e-003
3.284231e+003,5.246798e-003
3.286160e+003,5.294054e-003
3.288088e+003,5.168731e-003
3.290017e+003,4.936627e-003
3.291946e+003,4.884115e-003
3.293874e+003,4.806214e-003
3.295802e+003,4.696004e-003
3.297731e+003,4.671152e-003
3.299659e+003,4.646168e-003
3.301588e+003,4.633877e-003
3.303516e+003,4.402794e-003
3.305445e+003,4.348808e-003
3.307374e+003,4.259191e-003
3.309302e+003,4.034160e-003
3.311230e+003,3.852802e-003
3.313159e+003,3.754497e-003
3.315087e+003,3.615051e-003
3.317016e+003,3.522579e-003
3.318944e+003,3.373323e-003
3.320873e+003,3.327110e-003
3.322802e+003,3.159497e-003
3.324730e+003,2.801187e-003
3.326658e+003,2.852880e-003
3.328587e+003,2.940806e-003
3.330515e+003,2.795484e-003
3.332444e+003,2.648678e-003
3.334372e+003,2.507820e-003
3.336301e+003,2.493690e-003
3.338229e+003,2.387896e-003
3.340158e+003,2.317337e-003
3.342086e+003,2.276366e-003
3.344015e+003,2.194436e-003
3.345943e+003,2.138326e-003
3.347872e+003,2.047466e-003
3.349800e+003,2.044470e-003
3.351729e+003,2.061015e-003
3.353657e+003,1.828236e-003
3.355586e+003,1.623584e-003
3.357514e+003,1.444692e-003
3.359443e+003,1.345701e-003
3.361371e+003,1.482991e-003
3.363300e+003,1.394861e-003
3.365229e+003,1.169183e-003
3.367157e+003,1.126194e-003
3.369085e+003,9.602581e-004
3.371014e+003,8.210087e-004
3.372942e+003,7.408792e-004
3.374871e+003,6.306008e-004
3.376799e+003,6.386641e-004
3.378728e+003,4.820695e-004
3.380656e+003,3.017240e-004
3.382585e+003,1.205252e-004
3.384513e+003,-7.070228e-005
3.386442e+003,-1.061154e-004
3.388370e+003,5.069804e-005
3.390299e+003,-5.264680e-005
3.392227e+003,-1.932279e-004
3.394156e+003,-2.286641e-004
3.396084e+003,-3.803447e-004
3.398013e+003,-4.521436e-004
3.399941e+003,-3.838207e-004
3.401870e+003,-4.060997e-004
3.403798e+003,-4.432066e-004
3.405727e+003,-6.754751e-004
3.407655e+003,-7.800034e-004
3.409584e+003,-6.199260e-004
3.411512e+003,-6.719353e-004
3.413441e+003,-8.962780e-004
3.415369e+003,-8.149618e-004
3.417298e+003,-7.719000e-004
3.419226e+003,-8.880115e-004
3.421155e+003,-8.565973e-004
3.423083e+003,-8.750493e-004
3.425012e+003,-9.549657e-004
3.426940e+003,-1.030141e-003
3.428869e+003,-9.949019e-004
3.430797e+003,-9.935135e-004
3.432726e+003,-1.122984e-003
3.434654e+003,-1.264408e-003
3.436583e+003,-1.377283e-003
3.438511e+003,-1.342337e-003
3.440440e+003,-1.375731e-003
3.442368e+003,-1.398686e-003
3.444297e+003,-1.404465e-003
3.446225e+003,-1.349042e-003
3.448154e+003,-1.274451e-003
3.450082e+003,-1.390495e-003
3.452011e+003,-1.620178e-003
3.453939e+003,-1.722598e-003
3.455868e+003,-1.802325e-003
3.457796e+003,-1.728175e-003
3.459725e+003,-1.601559e-003
3.461653e+003,-1.560721e-003
3.463582e+003,-1.653253e-003
3.465510e+003,-1.813676e-003
3.467439e+003,-1.749527e-003
3.469367e+003,-1.767809e-003
3.471296e+003,-1.913609e-003
3.473224e+003,-1.913147e-003
3.475153e+003,-1.883556e-003
3.477081e+003,-1.732696e-003
3.479010e+003,-1.655564e-003
3.480938e+003,-1.682860e-003
3.482867e+003,-1.780877e-003
3.484795e+003,-1.739000e-003
3.486724e+003,-1.779887e-003
3.488652e+003,-1.821331e-003
3.490581e+003,-1.858416e-003
3.492509e+003,-1.912026e-003
3.494438e+003,-1.728802e-003
3.496366e+003,-1.572310e-003
3.498295e+003,-1.833308e-003
3.500223e+003,-2.073310e-003
3.502152e+003,-2.131179e-003
3.504080e+003,-2.121617e-003
3.506009e+003,-1.990366e-003
3.507937e+003,-1.983440e-003
3.509866e+003,-1.957679e-003
3.511794e+003,-1.923934e-003
3.513723e+003,-1.977569e-003
3.515651e+003,-2.077662e-003
3.517580e+003,-1.998711e-003
3.519508e+003,-2.025261e-003
3.521437e+003,-2.132894e-003
3.523365e+003,-2.243895e-003
3.525294e+003,-2.253355e-003
3.527222e+003,-2.264134e-003
3.529151e+003,-2.227347e-003
3.531079e+003,-2.272210e-003
3.533008e+003,-2.386965e-003
3.534936e+003,-2.371345e-003
3.536865e+003,-2.265815e-003
3.538793e+003,-2.070012e-003
3.540722e+003,-1.932907e-003
3.542650e+003,-2.074596e-003
3.544579e+003,-2.127255e-003
3.546507e+003,-2.246763e-003
3.548436e+003,-2.379221e-003
3.550364e+003,-2.470491e-003
3.552293e+003,-2.503436e-003
3.554221e+003,-2.562270e-003
3.556150e+003,-2.550971e-003
3.558078e+003,-2.587138e-003
3.560007e+003,-2.616714e-003
3.561935e+003,-2.435337e-003
3.563864e+003,-2.562237e-003
3.565792e+003,-2.647771e-003
3.567721e+003,-2.392303e-003
3.569649e+003,-2.438335e-003
3.571578e+003,-2.658046e-003
3.573506e+003,-2.593165e-003
3.575435e+003,-2.219436e-003
3.577363e+003,-2.142686e-003
3.579292e+003,-2.366666e-003
3.581220e+003,-2.705498e-003
3.583149e+003,-2.905689e-003
3.585077e+003,-2.830904e-003
3.587006e+003,-2.731873e-003
3.588934e+003,-2.611445e-003
3.590863e+003,-2.697102e-003
3.592791e+003,-2.807959e-003
3.594720e+003,-2.691536e-003
3.596648e+003,-2.585754e-003
3.598577e+003,-2.517767e-003
3.600505e+003,-2.417214e-003
3.602434e+003,-2.537367e-003
3.604362e+003,-2.567474e-003
3.606291e+003,-2.739611e-003
3.608219e+003,-2.888245e-003
3.610148e+003,-2.834525e-003
3.612076e+003,-2.869121e-003
3.614005e+003,-2.716002e-003
3.615933e+003,-2.721139e-003
3.617862e+003,-2.773193e-003
3.619790e+003,-2.648232e-003
3.621719e+003,-2.753966e-003
3.623647e+003,-2.892490e-003
3.625576e+003,-2.893083e-003
3.627504e+003,-2.844170e-003
3.629433e+003,-2.550181e-003
3.631361e+003,-2.477575e-003
3.633290e+003,-2.629098e-003
3.635218e+003,-2.731774e-003
3.637146e+003,-2.876165e-003
3.639075e+003,-3.070223e-003
3.641004e+003,-2.991419e-003
3.642932e+003,-2.906577e-003
3.644861e+003,-3.072987e-003
3.646789e+003,-3.074434e-003
3.648718e+003,-3.093352e-003
3.650646e+003,-3.036038e-003
3.652574e+003,-3.004943e-003
3.654503e+003,-3.295698e-003
3.656432e+003,-3.325227e-003
3.658360e+003,-3.372639e-003
3.660289e+003,-3.374447e-003
3.662217e+003,-3.376256e-003
3.664146e+003,-3.338905e-003
3.666074e+003,-3.347257e-003
3.668002e+003,-3.463569e-003
3.669931e+003,-3.507943e-003
3.671860e+003,-3.535682e-003
3.673788e+003,-3.793894e-003
3.675717e+003,-3.523982e-003
3.677645e+003,-3.205555e-003
3.679573e+003,-3.390985e-003
3.681502e+003,-3.471491e-003
3.683430e+003,-3.552607e-003
3.685359e+003,-3.584780e-003
3.687288e+003,-3.421460e-003
3.689216e+003,-3.297639e-003
3.691145e+003,-3.310759e-003
3.693073e+003,-3.347224e-003
3.695001e+003,-3.428330e-003
3.696930e+003,-3.383752e-003
3.698858e+003,-3.509849e-003
3.700787e+003,-3.411532e-003
3.702716e+003,-3.157960e-003
3.704644e+003,-3.078086e-003
3.706573e+003,-3.185919e-003
3.708501e+003,-3.305234e-003
3.710429e+003,-3.024719e-003
3.712358e+003,-2.804403e-003
3.714286e+003,-2.885216e-003
3.716215e+003,-3.174867e-003
3.718144e+003,-3.094273e-003
3.720072e+003,-3.011985e-003
3.722000e+003,-3.049462e-003
3.723929e+003,-2.915859e-003
3.725857e+003,-2.727757e-003
3.727786e+003,-2.573041e-003
3.729714e+003,-2.918459e-003
3.731643e+003,-3.216771e-003
3.733572e+003,-3.210127e-003
3.735500e+003,-3.077922e-003
3.737428e+003,-2.853222e-003
3.739357e+003,-2.730951e-003
3.741285e+003,-2.614475e-003
3.743214e+003,-2.890713e-003
3.745142e+003,-2.554825e-003
3.747071e+003,-2.661603e-003
3.749000e+003,-2.634993e-003
3.750928e+003,-2.425155e-003
3.752856e+003,-2.333744e-003
3.754785e+003,-2.504985e-003
3.756713e+003,-2.427001e-003
3.758642e+003,-2.240599e-003
3.760570e+003,-2.256454e-003
3.762499e+003,-2.410031e-003
3.764427e+003,-2.457313e-003
3.766356e+003,-2.198107e-003
3.768284e+003,-2.068165e-003
3.770213e+003,-1.974007e-003
3.772141e+003,-1.959032e-003
3.774070e+003,-1.900381e-003
3.775998e+003,-1.882830e-003
3.777927e+003,-2.044421e-003
3.779855e+003,-2.252696e-003
3.781784e+003,-2.243730e-003
3.783712e+003,-2.057151e-003
3.785641e+003,-1.889593e-003
3.787569e+003,-2.038749e-003
3.789498e+003,-2.159369e-003
3.791426e+003,-2.226226e-003
3.793355e+003,-2.437314e-003
3.795283e+003,-2.355956e-003
3.797212e+003,-2.267628e-003
3.799140e+003,-2.720349e-003
3.801069e+003,-2.600214e-003
3.802997e+003,-2.135960e-003
3.804926e+003,-2.434678e-003
3.806854e+003,-2.538520e-003
3.808783e+003,-2.471019e-003
3.810711e+003,-2.247950e-003
3.812640e+003,-2.191546e-003
3.814568e+003,-2.474017e-003
3.816497e+003,-2.153731e-003
3.818425e+003,-2.188414e-003
3.820354e+003,-2.103053e-003
3.822282e+003,-1.828854e-003
3.824211e+003,-2.005934e-003
3.826139e+003,-2.282889e-003
3.828068e+003,-2.142191e-003
3.829996e+003,-1.946959e-003
3.831925e+003,-1.978954e-003
3.833853e+003,-2.146478e-003
3.835782e+003,-2.410591e-003
3.837710e+003,-2.298083e-003
3.839639e+003,-2.271748e-003
3.841567e+003,-2.211920e-003
3.843496e+003,-2.077399e-003
3.845424e+003,-2.133916e-003
3.847353e+003,-2.207568e-003
3.849281e+003,-2.147829e-003
3.851210e+003,-2.253619e-003
3.853138e+003,-2.289217e-003
3.855067e+003,-2.080597e-003
3.856995e+003,-2.259025e-003
3.858924e+003,-2.236050e-003
3.860852e+003,-2.118320e-003
3.862781e+003,-2.147137e-003
3.864709e+003,-2.076244e-003
3.866638e+003,-2.074925e-003
3.868566e+003,-2.408515e-003
3.870495e+003,-2.078322e-003
3.872423e+003,-1.939537e-003
3.874352e+003,-2.048939e-003
3.876280e+003,-2.197678e-003
3.878209e+003,-2.310673e-003
3.880137e+003,-2.148588e-003
3.882066e+003,-2.009265e-003
3.883994e+003,-2.308894e-003
3.885923e+003,-2.160292e-003
3.887851e+003,-1.983968e-003
3.889780e+003,-1.969323e-003
3.891708e+003,-2.068066e-003
3.893637e+003,-2.248741e-003
3.895565e+003,-2.224611e-003
3.897494e+003,-1.976019e-003
3.899422e+003,-1.661505e-003
3.901351e+003,-1.883556e-003
3.903279e+003,-2.287503e-003
3.905208e+003,-2.164677e-003
3.907136e+003,-2.121551e-003
3.909065e+003,-2.110208e-003
3.910993e+003,-2.207997e-003
3.912922e+003,-2.237236e-003
3.914850e+003,-2.200513e-003
3.916779e+003,-2.145258e-003
3.918707e+003,-2.139521e-003
3.920636e+003,-2.127486e-003
3.922564e+003,-2.302961e-003
3.924493e+003,-2.114693e-003
3.926421e+003,-2.044619e-003
3.928350e+003,-2.227908e-003
3.930278e+003,-2.150302e-003
3.932207e+003,-2.015960e-003
3.934135e+003,-1.768337e-003
3.936064e+003,-1.633910e-003
3.937992e+003,-1.855942e-003
3.939921e+003,-2.237500e-003
3.941849e+003,-2.309652e-003
3.943778e+003,-2.170348e-003
3.945706e+003,-2.282724e-003
3.947635e+003,-2.231072e-003
3.949563e+003,-1.895432e-003
3.951492e+003,-1.888669e-003
3.953420e+003,-2.156237e-003
3.955349e+003,-2.098734e-003
3.957277e+003,-1.974798e-003
3.959206e+003,-2.065395e-003
3.961134e+003,-2.170480e-003
3.963063e+003,-2.044817e-003
3.964991e+003,-2.068165e-003
3.966920e+003,-2.096260e-003
3.968848e+003,-1.876199e-003
3.970777e+003,-1.794703e-003
3.972705e+003,-1.951049e-003
3.974634e+003,-1.997458e-003
3.976562e+003,-2.025491e-003
3.978491e+003,-2.138301e-003
3.980419e+003,-2.085906e-003
3.982348e+003,-2.105790e-003
3.984276e+003,-1.958405e-003
3.986205e+003,-2.008045e-003
3.988133e+003,-1.829580e-003
3.990062e+003,-1.811696e-003
3.991990e+003,-1.903086e-003
3.993919e+003,-1.886393e-003
3.995847e+003,-2.079245e-003
3.997776e+003,-2.171304e-003
3.999704e+003,-2.034099e-003
4.001633e+003,0.000000e+000
