3.991989e+002,3.219626e-002
4.011274e+002,3.828279e-002
4.030559e+002,2.140226e-002
4.049844e+002,1.165622e-002
4.069129e+002,1.378346e-002
4.088414e+002,2.277093e-002
4.107699e+002,2.946450e-002
4.126984e+002,2.098807e-002
4.146269e+002,1.093469e-002
4.165554e+002,1.051135e-002
4.184839e+002,1.726607e-002
4.204124e+002,1.821027e-002
4.223409e+002,1.775010e-002
4.242694e+002,1.783291e-002
4.261979e+002,1.377536e-002
4.281264e+002,1.344485e-002
4.300549e+002,1.622529e-002
4.319834e+002,1.051624e-002
4.339119e+002,7.149342e-003
4.358404e+002,1.199599e-002
4.377689e+002,1.196221e-002
4.396974e+002,7.533374e-003
4.416259e+002,7.412426e-003
4.435544e+002,9.267191e-003
4.454829e+002,1.327223e-002
4.474114e+002,1.969565e-002
4.493399e+002,1.502374e-002
4.512684e+002,6.696831e-003
4.531969e+002,4.637326e-003
4.551254e+002,1.042670e-002
4.570539e+002,1.221360e-002
4.589824e+002,8.786231e-003
4.609109e+002,8.600479e-003
4.628394e+002,9.941031e-003
4.647679e+002,1.225494e-002
4.666964e+002,1.203898e-002
4.686249e+002,9.604726e-003
4.705533e+002,9.364246e-003
4.724819e+002,1.011139e-002
4.744103e+002,1.023071e-002
4.763389e+002,9.671126e-003
4.782673e+002,9.432404e-003
4.801959e+002,1.052388e-002
4.821243e+002,9.379583e-003
4.840529e+002,8.296954e-003
4.859813e+002,9.478255e-003
4.879099e+002,9.496170e-003
4.898383e+002,7.996849e-003
4.917668e+002,7.832147e-003
4.936953e+002,9.320574e-003
4.956238e+002,9.655372e-003
4.975523e+002,7.959793e-003
4.994808e+002,8.155738e-003
5.014093e+002,9.833680e-003
5.033378e+002,6.770023e-003
5.052663e+002,2.741664e-003
5.071948e+002,7.861163e-003
5.091233e+002,8.640766e-003
5.110518e+002,4.231453e-003
5.129803e+002,3.893387e-003
5.149088e+002,3.357161e-003
5.168373e+002,4.392351e-003
5.187658e+002,5.999277e-003
5.206943e+002,6.304258e-003
5.226228e+002,5.756756e-003
5.245513e+002,5.703843e-003
5.264798e+002,5.389923e-003
5.284083e+002,5.520612e-003
5.303368e+002,5.491518e-003
5.322653e+002,5.259140e-003
5.341938e+002,5.194081e-003
5.361223e+002,4.373808e-003
5.380508e+002,4.288001e-003
5.399792e+002,5.831637e-003
5.419078e+002,5.414246e-003
5.438363e+002,4.601527e-003
5.457648e+002,4.850373e-003
5.476932e+002,3.792834e-003
5.496218e+002,3.374124e-003
5.515503e+002,3.676765e-003
5.534788e+002,3.372054e-003
5.554072e+002,4.622758e-003
5.573358e+002,5.100871e-003
5.592643e+002,4.871114e-003
5.611927e+002,3.663232e-003
5.631212e+002,3.509919e-003
5.650497e+002,4.395230e-003
5.669783e+002,4.990452e-003
5.689067e+002,5.626164e-003
5.708352e+002,5.172956e-003
5.727637e+002,3.724719e-003
5.746923e+002,2.191772e-003
5.766207e+002,3.577665e-003
5.785492e+002,6.515669e-003
5.804777e+002,8.469231e-003
5.824063e+002,4.393656e-003
5.843347e+002,4.096971e-003
5.862632e+002,6.601110e-003
5.881917e+002,5.763572e-003
5.901202e+002,3.688461e-003
5.920487e+002,2.156273e-003
5.939772e+002,3.028516e-003
5.959057e+002,3.213736e-003
5.978342e+002,3.336058e-003
5.997627e+002,4.240018e-003
6.016912e+002,3.817301e-003
6.036197e+002,3.930833e-003
6.055482e+002,3.243512e-003
6.074767e+002,2.748166e-003
6.094052e+002,4.145775e-003
6.113337e+002,5.834928e-003
6.132622e+002,4.942257e-003
6.151907e+002,4.417388e-003
6.171192e+002,4.156646e-003
6.190477e+002,3.820176e-003
6.209762e+002,4.465692e-003
6.229047e+002,3.771777e-003
6.248332e+002,1.713390e-003
6.267617e+002,5.904853e-004
6.286902e+002,9.062995e-004
6.306187e+002,1.612609e-003
6.325472e+002,2.106561e-003
6.344756e+002,2.755402e-003
6.364042e+002,2.536047e-003
6.383326e+002,2.531182e-003
6.402612e+002,2.563911e-003
6.421896e+002,2.640310e-003
6.441182e+002,1.900646e-003
6.460466e+002,1.519299e-003
6.479752e+002,1.679228e-003
6.499036e+002,1.673773e-003
6.518322e+002,1.342976e-003
6.537606e+002,1.593586e-003
6.556891e+002,2.198265e-003
6.576177e+002,2.347218e-003
6.595461e+002,2.343254e-003
6.614746e+002,1.831064e-003
6.634031e+002,1.458588e-003
6.653317e+002,1.349723e-003
6.672601e+002,1.664626e-003
6.691886e+002,1.972269e-003
6.711171e+002,2.140723e-003
6.730457e+002,2.598109e-003
6.749741e+002,2.744331e-003
6.769026e+002,2.325065e-003
6.788311e+002,2.253351e-003
6.807596e+002,2.447171e-003
6.826881e+002,2.687317e-003
6.846166e+002,2.829300e-003
6.865451e+002,2.809424e-003
6.884736e+002,2.933434e-003
6.904021e+002,3.237670e-003
6.923306e+002,3.314690e-003
6.942591e+002,3.230260e-003
6.961876e+002,3.138804e-003
6.981161e+002,2.920991e-003
7.000446e+002,2.733428e-003
7.019731e+002,2.728326e-003
7.039016e+002,2.966460e-003
7.058301e+002,2.818895e-003
7.077585e+002,2.560211e-003
7.096871e+002,2.937603e-003
7.116156e+002,3.369583e-003
7.135441e+002,3.096454e-003
7.154725e+002,2.749300e-003
7.174011e+002,2.994117e-003
7.193296e+002,3.360968e-003
7.212581e+002,3.450766e-003
7.231865e+002,3.724786e-003
7.251151e+002,4.003226e-003
7.270436e+002,4.509649e-003
7.289720e+002,4.750369e-003
7.309005e+002,4.757169e-003
7.328290e+002,4.809498e-003
7.347576e+002,4.750168e-003
7.366860e+002,4.607521e-003
7.386145e+002,4.242361e-003
7.405430e+002,4.679492e-003
7.424716e+002,5.385763e-003
7.444000e+002,5.564339e-003
7.463285e+002,5.543398e-003
7.482570e+002,5.621633e-003
7.501855e+002,5.970587e-003
7.521140e+002,6.972974e-003
7.540425e+002,7.146748e-003
7.559710e+002,6.928464e-003
7.578995e+002,7.234672e-003
7.598280e+002,7.553198e-003
7.617565e+002,8.024795e-003
7.636850e+002,7.614329e-003
7.656135e+002,7.474312e-003
7.675420e+002,7.318569e-003
7.694705e+002,6.715775e-003
7.713990e+002,6.720049e-003
7.733275e+002,7.239018e-003
7.752560e+002,7.580340e-003
7.771844e+002,7.598413e-003
7.791130e+002,6.726140e-003
7.810415e+002,6.562592e-003
7.829700e+002,6.254539e-003
7.848984e+002,6.344837e-003
7.868270e+002,7.308157e-003
7.887555e+002,7.545983e-003
7.906840e+002,7.548647e-003
7.926124e+002,7.059381e-003
7.945410e+002,6.286844e-003
7.964695e+002,6.510254e-003
7.983979e+002,6.652685e-003
8.003264e+002,6.850532e-003
8.022549e+002,7.158908e-003
8.041835e+002,7.345157e-003
8.061119e+002,6.885709e-003
8.080404e+002,6.454323e-003
8.099689e+002,6.785403e-003
8.118975e+002,7.471514e-003
8.138259e+002,7.763937e-003
8.157545e+002,7.360760e-003
8.176830e+002,7.062951e-003
8.196115e+002,6.754610e-003
8.215399e+002,6.751985e-003
8.234684e+002,6.822763e-003
8.253970e+002,6.932437e-003
8.273254e+002,7.306405e-003
8.292539e+002,6.974826e-003
8.311824e+002,6.846493e-003
8.331110e+002,6.984119e-003
8.350394e+002,7.008363e-003
8.369679e+002,7.209168e-003
8.388964e+002,7.579059e-003
8.408250e+002,7.409123e-003
8.427534e+002,6.898940e-003
8.446819e+002,6.634013e-003
8.466104e+002,6.968530e-003
8.485389e+002,7.186530e-003
8.504674e+002,7.033854e-003
8.523959e+002,6.744884e-003
8.543244e+002,6.991493e-003
8.562529e+002,7.345528e-003
8.581814e+002,7.178109e-003
8.601099e+002,7.254415e-003
8.620384e+002,7.055677e-003
8.639669e+002,6.846830e-003
8.658954e+002,6.829630e-003
8.678239e+002,6.437273e-003
8.697524e+002,6.330716e-003
8.716809e+002,6.628192e-003
8.736094e+002,6.675431e-003
8.755378e+002,6.336365e-003
8.774664e+002,6.252757e-003
8.793949e+002,6.213228e-003
8.813234e+002,6.214539e-003
8.832518e+002,6.114993e-003
8.851804e+002,5.960779e-003
8.871089e+002,5.802422e-003
8.890374e+002,5.594277e-003
8.909658e+002,5.680209e-003
8.928943e+002,6.011169e-003
8.948229e+002,5.925374e-003
8.967513e+002,5.689743e-003
8.986798e+002,5.491015e-003
9.006083e+002,5.413910e-003
9.025369e+002,5.346816e-003
9.044653e+002,5.496719e-003
9.063938e+002,5.349701e-003
9.083223e+002,5.237542e-003
9.102509e+002,5.195255e-003
9.121793e+002,5.259308e-003
9.141078e+002,4.998362e-003
9.160364e+002,4.847190e-003
9.179648e+002,4.863273e-003
9.198933e+002,4.885321e-003
9.218218e+002,4.990016e-003
9.237504e+002,4.801357e-003
9.256788e+002,4.453440e-003
9.276073e+002,4.398142e-003
9.295358e+002,4.517148e-003
9.314644e+002,4.646871e-003
9.333928e+002,4.603134e-003
9.353213e+002,4.599786e-003
9.372498e+002,4.382544e-003
9.391783e+002,4.128112e-003
9.411068e+002,4.176284e-003
9.430353e+002,4.573366e-003
9.449637e+002,4.870276e-003
9.468923e+002,4.774656e-003
9.488208e+002,4.231353e-003
9.507493e+002,4.194483e-003
9.526777e+002,4.127543e-003
9.546063e+002,3.961327e-003
9.565348e+002,3.923510e-003
9.584633e+002,3.789291e-003
9.603917e+002,3.613280e-003
9.623203e+002,3.543824e-003
9.642488e+002,3.213269e-003
9.661772e+002,3.124921e-003
9.681057e+002,3.110804e-003
9.700343e+002,2.711189e-003
9.719628e+002,2.535548e-003
9.738912e+002,2.617709e-003
9.758197e+002,2.608076e-003
9.777483e+002,2.448703e-003
9.796768e+002,2.357346e-003
9.816052e+002,2.431343e-003
9.835337e+002,2.549012e-003
9.854623e+002,2.386297e-003
9.873907e+002,2.123242e-003
9.893192e+002,2.148548e-003
9.912477e+002,2.008484e-003
9.931763e+002,1.966877e-003
9.951047e+002,2.132865e-003
9.970332e+002,2.060450e-003
9.989617e+002,2.265241e-003
1.000890e+003,2.600509e-003
1.002819e+003,2.963090e-003
1.004747e+003,3.208329e-003
1.006676e+003,3.331551e-003
1.008604e+003,3.367913e-003
1.010533e+003,3.821780e-003
1.012461e+003,4.067471e-003
1.014390e+003,3.864903e-003
1.016318e+003,4.187391e-003
1.018247e+003,4.758241e-003
1.020175e+003,5.122260e-003
1.022104e+003,5.185799e-003
1.024032e+003,5.390393e-003
1.025961e+003,5.607065e-003
1.027889e+003,5.600789e-003
1.029818e+003,5.729123e-003
1.031746e+003,6.150648e-003
1.033675e+003,6.550045e-003
1.035603e+003,6.583953e-003
1.037532e+003,6.595626e-003
1.039460e+003,6.914224e-003
1.041389e+003,6.915839e-003
1.043317e+003,7.060425e-003
1.045246e+003,7.459008e-003
1.047174e+003,7.651827e-003
1.049103e+003,7.698165e-003
1.051031e+003,7.415021e-003
1.052960e+003,7.300373e-003
1.054888e+003,7.548141e-003
1.056817e+003,7.713241e-003
1.058745e+003,7.555322e-003
1.060674e+003,7.487863e-003
1.062602e+003,7.606404e-003
1.064531e+003,7.542848e-003
1.066459e+003,7.654322e-003
1.068388e+003,7.629436e-003
1.070316e+003,7.648792e-003
1.072245e+003,7.856607e-003
1.074173e+003,7.820205e-003
1.076102e+003,7.682179e-003
1.078030e+003,7.724439e-003
1.079959e+003,7.532262e-003
1.081887e+003,7.564696e-003
1.083816e+003,7.792677e-003
1.085744e+003,7.704843e-003
1.087673e+003,7.597233e-003
1.089601e+003,7.721437e-003
1.091530e+003,7.868889e-003
1.093458e+003,7.739752e-003
1.095387e+003,7.539780e-003
1.097315e+003,7.480346e-003
1.099244e+003,7.431031e-003
1.101172e+003,7.496526e-003
1.103101e+003,7.354290e-003
1.105029e+003,7.327802e-003
1.106958e+003,7.523564e-003
1.108886e+003,7.508730e-003
1.110815e+003,7.192324e-003
1.112743e+003,7.120206e-003
1.114672e+003,7.244139e-003
1.116600e+003,7.577474e-003
1.118529e+003,7.817337e-003
1.120457e+003,7.835386e-003
1.122386e+003,7.810185e-003
1.124314e+003,7.728385e-003
1.126243e+003,7.512607e-003
1.128171e+003,7.413740e-003
1.130100e+003,7.499392e-003
1.132028e+003,7.352571e-003
1.133957e+003,7.179793e-003
1.135885e+003,7.125123e-003
1.137814e+003,6.755216e-003
1.139742e+003,6.000150e-003
1.141671e+003,5.741512e-003
1.143599e+003,5.637577e-003
1.145528e+003,5.217823e-003
1.147456e+003,4.812044e-003
1.149385e+003,4.554481e-003
1.151313e+003,4.208769e-003
1.153242e+003,3.840099e-003
1.155170e+003,3.704535e-003
1.157099e+003,3.617957e-003
1.159027e+003,3.466631e-003
1.160956e+003,3.207795e-003
1.162884e+003,3.062017e-003
1.164813e+003,2.920557e-003
1.166741e+003,2.914987e-003
1.168670e+003,2.792316e-003
1.170598e+003,2.624376e-003
1.172526e+003,2.587776e-003
1.174455e+003,2.728526e-003
1.176384e+003,3.056210e-003
1.178312e+003,3.001090e-003
1.180240e+003,2.743565e-003
1.182169e+003,2.722258e-003
1.184098e+003,2.514252e-003
1.186026e+003,2.259945e-003
1.187954e+003,2.363542e-003
1.189883e+003,2.377701e-003
1.191812e+003,2.232035e-003
1.193740e+003,2.187043e-003
1.195668e+003,1.964713e-003
1.197597e+003,1.778894e-003
1.199526e+003,1.843176e-003
1.201454e+003,1.970039e-003
1.203382e+003,2.104630e-003
1.205311e+003,1.912660e-003
1.207240e+003,1.769379e-003
1.209168e+003,1.826706e-003
1.211096e+003,1.877251e-003
1.213025e+003,2.065676e-003
1.214953e+003,2.149114e-003
1.216882e+003,2.120845e-003
1.218810e+003,1.980890e-003
1.220739e+003,1.866270e-003
1.222667e+003,1.755506e-003
1.224596e+003,1.698521e-003
1.226524e+003,1.777097e-003
1.228453e+003,1.770876e-003
1.230381e+003,1.549358e-003
1.232310e+003,1.429499e-003
1.234238e+003,1.345701e-003
1.236167e+003,1.291562e-003
1.238095e+003,1.396424e-003
1.240024e+003,1.464938e-003
1.241952e+003,1.398784e-003
1.243881e+003,1.198520e-003
1.245809e+003,1.135296e-003
1.247738e+003,1.211478e-003
1.249666e+003,1.470191e-003
1.251595e+003,1.542475e-003
1.253523e+003,1.553814e-003
1.255452e+003,1.597111e-003
1.257380e+003,1.561296e-003
1.259309e+003,1.758766e-003
1.261237e+003,1.867401e-003
1.263166e+003,1.845772e-003
1.265094e+003,1.925739e-003
1.267023e+003,2.060317e-003
1.268951e+003,2.078827e-003
1.270880e+003,2.028091e-003
1.272808e+003,1.870862e-003
1.274737e+003,1.792934e-003
1.276665e+003,1.802982e-003
1.278594e+003,1.775534e-003
1.280522e+003,1.696525e-003
1.282451e+003,1.563823e-003
1.284379e+003,1.518767e-003
1.286308e+003,1.548161e-003
1.288236e+003,1.526448e-003
1.290165e+003,1.407759e-003
1.292093e+003,1.337791e-003
1.294022e+003,1.348493e-003
1.295950e+003,1.298474e-003
1.297879e+003,1.179748e-003
1.299807e+003,1.056703e-003
1.301736e+003,1.078659e-003
1.303664e+003,1.032357e-003
1.305593e+003,8.376406e-004
1.307521e+003,7.089842e-004
1.309450e+003,5.942014e-004
1.311378e+003,4.040587e-004
1.313307e+003,2.041537e-004
1.315235e+003,1.569843e-004
1.317164e+003,3.158159e-004
1.319092e+003,2.710216e-004
1.321021e+003,9.454171e-005
1.322949e+003,1.075001e-004
1.324878e+003,3.037134e-004
1.326806e+003,5.644073e-004
1.328735e+003,7.470527e-004
1.330663e+003,9.426918e-004
1.332592e+003,1.080020e-003
1.334520e+003,1.103273e-003
1.336449e+003,1.240619e-003
1.338377e+003,1.341812e-003
1.340306e+003,1.292658e-003
1.342234e+003,1.370563e-003
1.344163e+003,1.430995e-003
1.346091e+003,1.428236e-003
1.348020e+003,1.403604e-003
1.349948e+003,1.285447e-003
1.351877e+003,1.269330e-003
1.353805e+003,1.401177e-003
1.355734e+003,1.430929e-003
1.357662e+003,1.392967e-003
1.359591e+003,1.318581e-003
1.361519e+003,1.156060e-003
1.363448e+003,9.571366e-004
1.365376e+003,5.625495e-004
1.367305e+003,2.752654e-004
1.369233e+003,2.014022e-004
1.371162e+003,5.858493e-005
1.373090e+003,-1.004177e-004
1.375019e+003,-2.709850e-004
1.376947e+003,-3.809737e-004
1.378876e+003,-5.571889e-004
1.380804e+003,-6.614479e-004
1.382733e+003,-7.139153e-004
1.384661e+003,-7.381951e-004
1.386590e+003,-6.859621e-004
1.388518e+003,-7.224829e-004
1.390447e+003,-1.021149e-003
1.392375e+003,-1.250862e-003
1.394304e+003,-1.241644e-003
1.396232e+003,-1.435708e-003
1.398161e+003,-1.608789e-003
1.400089e+003,-1.679428e-003
1.402018e+003,-1.799751e-003
1.403946e+003,-1.878673e-003
1.405875e+003,-1.862936e-003
1.407803e+003,-1.901601e-003
1.409732e+003,-1.906517e-003
1.411660e+003,-1.751276e-003
1.413589e+003,-1.663717e-003
1.415517e+003,-1.616513e-003
1.417446e+003,-1.471802e-003
1.419374e+003,-1.202392e-003
1.421303e+003,-9.390630e-004
1.423231e+003,-6.682299e-004
1.425160e+003,-2.406852e-004
1.427088e+003,-2.733472e-005
1.429017e+003,2.076675e-004
1.430945e+003,7.419081e-004
1.432874e+003,1.384191e-003
1.434802e+003,1.915755e-003
1.436731e+003,2.365108e-003
1.438659e+003,2.791949e-003
1.440588e+003,3.155558e-003
1.442516e+003,3.607934e-003
1.444445e+003,3.964971e-003
1.446373e+003,4.224192e-003
1.448302e+003,4.515206e-003
1.450230e+003,4.768525e-003
1.452159e+003,4.915313e-003
1.454087e+003,5.074185e-003
1.456016e+003,5.201224e-003
1.457944e+003,5.276613e-003
1.459873e+003,5.127524e-003
1.461801e+003,4.794254e-003
1.463730e+003,4.398911e-003
1.465658e+003,4.180934e-003
1.467587e+003,3.861426e-003
1.469515e+003,3.482396e-003
1.471444e+003,3.159430e-003
1.473372e+003,2.825265e-003
1.475301e+003,2.415150e-003
1.477229e+003,1.888965e-003
1.479158e+003,1.411881e-003
1.481086e+003,1.063711e-003
1.483015e+003,6.558531e-004
1.484943e+003,2.595171e-004
1.486872e+003,9.126074e-005
1.488800e+003,-1.603658e-005
1.490729e+003,-8.127019e-005
1.492657e+003,-2.610509e-004
1.494586e+003,-4.620733e-004
1.496514e+003,-5.087071e-004
1.498443e+003,-6.253191e-004
1.500371e+003,-8.608963e-004
1.502300e+003,-9.076855e-004
1.504228e+003,-8.732968e-004
1.506157e+003,-8.062307e-004
1.508085e+003,-8.386075e-004
1.510014e+003,-1.040751e-003
1.511942e+003,-1.118555e-003
1.513871e+003,-1.071822e-003
1.515799e+003,-1.069376e-003
1.517728e+003,-1.052750e-003
1.519656e+003,-1.014307e-003
1.521585e+003,-9.093058e-004
1.523513e+003,-9.138356e-004
1.525442e+003,-9.089420e-004
1.527370e+003,-8.779262e-004
1.529299e+003,-8.580855e-004
1.531227e+003,-9.434603e-004
1.533156e+003,-9.084791e-004
1.535084e+003,-8.234281e-004
1.537013e+003,-7.528483e-004
1.538941e+003,-6.704465e-004
1.540870e+003,-5.536150e-004
1.542798e+003,-4.868637e-004
1.544727e+003,-4.714402e-004
1.546655e+003,-5.767125e-004
1.548584e+003,-6.275359e-004
1.550512e+003,-5.628144e-004
1.552441e+003,-4.961969e-004
1.554369e+003,-4.251997e-004
1.556298e+003,-3.801461e-004
1.558226e+003,-1.986594e-004
1.560155e+003,-1.557297e-006
1.562083e+003,2.161208e-004
1.564012e+003,4.501272e-004
1.565940e+003,5.570089e-004
1.567869e+003,7.072584e-004
1.569797e+003,1.090783e-003
1.571726e+003,1.195829e-003
1.573654e+003,1.178253e-003
1.575583e+003,1.466401e-003
1.577511e+003,1.724201e-003
1.579440e+003,1.779226e-003
1.581368e+003,1.933893e-003
1.583297e+003,2.062281e-003
1.585225e+003,2.114219e-003
1.587154e+003,2.094608e-003
1.589082e+003,2.167262e-003
1.591010e+003,2.240528e-003
1.592939e+003,2.220145e-003
1.594868e+003,2.417316e-003
1.596796e+003,2.537347e-003
1.598724e+003,2.397891e-003
1.600653e+003,2.267040e-003
1.602582e+003,2.281762e-003
1.604510e+003,2.186976e-003
1.606438e+003,2.057154e-003
1.608367e+003,1.985117e-003
1.610296e+003,1.829733e-003
1.612224e+003,1.534661e-003
1.614152e+003,1.275012e-003
1.616081e+003,1.172804e-003
1.618010e+003,1.029169e-003
1.619938e+003,7.518986e-004
1.621866e+003,6.357108e-004
1.623795e+003,3.156501e-004
1.625724e+003,6.892427e-005
1.627652e+003,-7.262374e-005
1.629580e+003,-1.967054e-004
1.631509e+003,-3.922624e-004
1.633438e+003,-4.588297e-004
1.635366e+003,-5.152930e-004
1.637294e+003,-5.898490e-004
1.639223e+003,-8.013029e-004
1.641151e+003,-1.083257e-003
1.643080e+003,-1.329785e-003
1.645008e+003,-1.350694e-003
1.646937e+003,-1.306529e-003
1.648865e+003,-1.435840e-003
1.650794e+003,-1.540417e-003
1.652722e+003,-1.439043e-003
1.654651e+003,-1.452319e-003
1.656579e+003,-1.565707e-003
1.658508e+003,-1.516082e-003
1.660436e+003,-1.468203e-003
1.662365e+003,-1.442808e-003
1.664293e+003,-1.285254e-003
1.666222e+003,-1.164656e-003
1.668150e+003,-1.040817e-003
1.670079e+003,-8.698247e-004
1.672007e+003,-9.458407e-004
1.673936e+003,-9.671652e-004
1.675864e+003,-8.753139e-004
1.677793e+003,-1.027661e-003
1.679721e+003,-1.255818e-003
1.681650e+003,-1.341445e-003
1.683578e+003,-1.247525e-003
1.685507e+003,-1.125991e-003
1.687435e+003,-1.232889e-003
1.689364e+003,-1.303160e-003
1.691292e+003,-1.269198e-003
1.693221e+003,-1.250103e-003
1.695149e+003,-1.183822e-003
1.697078e+003,-1.022439e-003
1.699006e+003,-1.046437e-003
1.700935e+003,-8.912851e-004
1.702863e+003,-8.643353e-004
1.704792e+003,-8.579532e-004
1.706720e+003,-8.521000e-004
1.708649e+003,-9.075533e-004
1.710577e+003,-9.595281e-004
1.712506e+003,-1.012984e-003
1.714434e+003,-1.087819e-003
1.716363e+003,-1.056981e-003
1.718291e+003,-1.105104e-003
1.720220e+003,-1.106162e-003
1.722148e+003,-1.140499e-003
1.724077e+003,-1.156229e-003
1.726005e+003,-1.098197e-003
1.727934e+003,-1.104146e-003
1.729862e+003,-1.161252e-003
1.731791e+003,-1.093999e-003
1.733719e+003,-1.078928e-003
1.735648e+003,-1.074796e-003
1.737576e+003,-1.066897e-003
1.739505e+003,-1.014439e-003
1.741433e+003,-1.080746e-003
1.743362e+003,-1.134749e-003
1.745290e+003,-1.134848e-003
1.747219e+003,-1.094726e-003
1.749147e+003,-1.048684e-003
1.751076e+003,-9.905051e-004
1.753004e+003,-9.244491e-004
1.754933e+003,-9.920589e-004
1.756861e+003,-1.039793e-003
1.758790e+003,-1.089670e-003
1.760718e+003,-1.104873e-003
1.762647e+003,-1.079853e-003
1.764575e+003,-1.184879e-003
1.766504e+003,-1.204969e-003
1.768432e+003,-1.180022e-003
1.770361e+003,-1.180385e-003
1.772289e+003,-1.148761e-003
1.774218e+003,-1.070863e-003
1.776146e+003,-1.121430e-003
1.778075e+003,-1.147241e-003
1.780003e+003,-1.135740e-003
1.781932e+003,-1.100014e-003
1.783860e+003,-1.157121e-003
1.785789e+003,-1.171199e-003
1.787717e+003,-1.136467e-003
1.789646e+003,-1.201830e-003
1.791574e+003,-1.208373e-003
1.793503e+003,-1.153123e-003
1.795431e+003,-1.235598e-003
1.797360e+003,-1.223472e-003
1.799288e+003,-1.209760e-003
1.801217e+003,-1.217228e-003
1.803145e+003,-1.207910e-003
1.805074e+003,-1.158774e-003
1.807002e+003,-1.163929e-003
1.808931e+003,-1.245180e-003
1.810859e+003,-1.286906e-003
1.812788e+003,-1.344914e-003
1.814716e+003,-1.417313e-003
1.816645e+003,-1.421870e-003
1.818573e+003,-1.335169e-003
1.820502e+003,-1.279209e-003
1.822430e+003,-1.279869e-003
1.824359e+003,-1.353171e-003
1.826287e+003,-1.353336e-003
1.828216e+003,-1.334145e-003
1.830144e+003,-1.264276e-003
1.832073e+003,-1.342866e-003
1.834001e+003,-1.362453e-003
1.835930e+003,-1.335797e-003
1.837858e+003,-1.354261e-003
1.839787e+003,-1.354922e-003
1.841715e+003,-1.421177e-003
1.843644e+003,-1.338406e-003
1.845572e+003,-1.347490e-003
1.847501e+003,-1.461532e-003
1.849429e+003,-1.440496e-003
1.851358e+003,-1.296453e-003
1.853286e+003,-1.262128e-003
1.855215e+003,-1.306463e-003
1.857143e+003,-1.356309e-003
1.859072e+003,-1.368200e-003
1.861000e+003,-1.335565e-003
1.862929e+003,-1.348745e-003
1.864857e+003,-1.299856e-003
1.866786e+003,-1.328563e-003
1.868714e+003,-1.388843e-003
1.870643e+003,-1.414737e-003
1.872571e+003,-1.396572e-003
1.874500e+003,-1.310757e-003
1.876428e+003,-1.339661e-003
1.878357e+003,-1.337118e-003
1.880285e+003,-1.342601e-003
1.882214e+003,-1.362057e-003
1.884142e+003,-1.273725e-003
1.886071e+003,-1.299195e-003
1.887999e+003,-1.394524e-003
1.889928e+003,-1.409750e-003
1.891856e+003,-1.394062e-003
1.893785e+003,-1.361033e-003
1.895713e+003,-1.395911e-003
1.897642e+003,-1.462358e-003
1.899570e+003,-1.430787e-003
1.901499e+003,-1.334641e-003
1.903427e+003,-1.331536e-003
1.905356e+003,-1.352610e-003
1.907284e+003,-1.395185e-003
1.909213e+003,-1.410674e-003
1.911141e+003,-1.330776e-003
1.913070e+003,-1.249078e-003
1.914998e+003,-1.223770e-003
1.916927e+003,-1.232493e-003
1.918855e+003,-1.184846e-003
1.920784e+003,-1.230312e-003
1.922712e+003,-1.290606e-003
1.924641e+003,-1.330776e-003
1.926569e+003,-1.300120e-003
1.928498e+003,-1.328232e-003
1.930426e+003,-1.352907e-003
1.932355e+003,-1.396737e-003
1.934283e+003,-1.471340e-003
1.936212e+003,-1.499474e-003
1.938140e+003,-1.498483e-003
1.940069e+003,-1.425999e-003
1.941997e+003,-1.251424e-003
1.943926e+003,-1.210950e-003
1.945854e+003,-1.365393e-003
1.947783e+003,-1.402054e-003
1.949711e+003,-1.377680e-003
1.951640e+003,-1.456909e-003
1.953568e+003,-1.550916e-003
1.955497e+003,-1.543619e-003
1.957425e+003,-1.524799e-003
1.959354e+003,-1.486200e-003
1.961282e+003,-1.411500e-003
1.963211e+003,-1.430622e-003
1.965139e+003,-1.475435e-003
1.967068e+003,-1.547647e-003
1.968996e+003,-1.653385e-003
1.970925e+003,-1.597532e-003
1.972853e+003,-1.492507e-003
1.974782e+003,-1.434717e-003
1.976710e+003,-1.470580e-003
1.978639e+003,-1.478968e-003
1.980567e+003,-1.485011e-003
1.982496e+003,-1.554250e-003
1.984424e+003,-1.580992e-003
1.986353e+003,-1.477185e-003
1.988281e+003,-1.500398e-003
1.990210e+003,-1.541044e-003
1.992138e+003,-1.471208e-003
1.994067e+003,-1.447762e-003
1.995995e+003,-1.553029e-003
1.997924e+003,-1.670516e-003
1.999852e+003,-1.637343e-003
2.001781e+003,-1.609977e-003
2.003709e+003,-1.614137e-003
2.005638e+003,-1.616150e-003
2.007566e+003,-1.601130e-003
2.009495e+003,-1.578186e-003
2.011423e+003,-1.568183e-003
2.013352e+003,-1.514432e-003
2.015280e+003,-1.536355e-003
2.017208e+003,-1.544676e-003
2.019137e+003,-1.475435e-003
2.021066e+003,-1.471604e-003
2.022994e+003,-1.550585e-003
2.024922e+003,-1.556627e-003
2.026851e+003,-1.565872e-003
2.028780e+003,-1.537940e-003
2.030708e+003,-1.540483e-003
2.032636e+003,-1.519285e-003
2.034565e+003,-1.523677e-003
2.036494e+003,-1.571649e-003
2.038422e+003,-1.534506e-003
2.040350e+003,-1.526714e-003
2.042279e+003,-1.604398e-003
2.044208e+003,-1.627671e-003
2.046136e+003,-1.667677e-003
2.048064e+003,-1.601856e-003
2.049993e+003,-1.486464e-003
2.051921e+003,-1.472859e-003
2.053850e+003,-1.423786e-003
2.055778e+003,-1.426395e-003
2.057707e+003,-1.421342e-003
2.059635e+003,-1.414538e-003
2.061564e+003,-1.386201e-003
2.063492e+003,-1.445912e-003
2.065421e+003,-1.457834e-003
2.067349e+003,-1.343262e-003
2.069278e+003,-1.403078e-003
2.071206e+003,-1.470316e-003
2.073135e+003,-1.418733e-003
2.075063e+003,-1.347490e-003
2.076992e+003,-1.312145e-003
2.078920e+003,-1.310757e-003
2.080849e+003,-1.363147e-003
2.082777e+003,-1.370215e-003
2.084706e+003,-1.404366e-003
2.086634e+003,-1.464240e-003
2.088563e+003,-1.489403e-003
2.090491e+003,-1.463514e-003
2.092420e+003,-1.435080e-003
2.094348e+003,-1.389207e-003
2.096277e+003,-1.371305e-003
2.098205e+003,-1.309733e-003
2.100134e+003,-1.261336e-003
2.102062e+003,-1.238473e-003
2.103991e+003,-1.260576e-003
2.105919e+003,-1.325623e-003
2.107848e+003,-1.290507e-003
2.109776e+003,-1.200806e-003
2.111705e+003,-1.238175e-003
2.113633e+003,-1.336821e-003
2.115562e+003,-1.286080e-003
2.117490e+003,-1.259023e-003
2.119419e+003,-1.158674e-003
2.121347e+003,-1.179790e-003
2.123276e+003,-1.304613e-003
2.125204e+003,-1.326184e-003
2.127133e+003,-1.286014e-003
2.129061e+003,-1.172719e-003
2.130990e+003,-1.090231e-003
2.132918e+003,-1.191289e-003
2.134847e+003,-1.283239e-003
2.136775e+003,-1.278284e-003
2.138704e+003,-1.232757e-003
2.140632e+003,-1.182467e-003
2.142561e+003,-1.200938e-003
2.144489e+003,-1.210454e-003
2.146418e+003,-1.235697e-003
2.148346e+003,-1.189604e-003
2.150275e+003,-1.136930e-003
2.152203e+003,-1.054931e-003
2.154132e+003,-1.110491e-003
2.156060e+003,-1.185606e-003
2.157989e+003,-1.160988e-003
2.159917e+003,-1.125396e-003
2.161846e+003,-1.188976e-003
2.163774e+003,-1.228263e-003
2.165703e+003,-1.194858e-003
2.167631e+003,-1.089835e-003
2.169560e+003,-9.962573e-004
2.171488e+003,-1.077242e-003
2.173417e+003,-1.214419e-003
2.175345e+003,-1.252118e-003
2.177274e+003,-1.147968e-003
2.179202e+003,-1.027331e-003
2.181131e+003,-1.023034e-003
2.183059e+003,-1.037611e-003
2.184988e+003,-1.007100e-003
2.186916e+003,-9.951994e-004
2.188845e+003,-1.051924e-003
2.190773e+003,-1.147340e-003
2.192702e+003,-1.151140e-003
2.194630e+003,-1.124206e-003
2.196559e+003,-1.060947e-003
2.198487e+003,-9.982408e-004
2.200416e+003,-1.012555e-003
2.202344e+003,-1.045015e-003
2.204273e+003,-1.071458e-003
2.206201e+003,-1.093702e-003
2.208130e+003,-1.031992e-003
2.210058e+003,-1.005943e-003
2.211987e+003,-1.093239e-003
2.213915e+003,-1.100775e-003
2.215844e+003,-1.026670e-003
2.217772e+003,-1.005547e-003
2.219701e+003,-1.008026e-003
2.221629e+003,-1.050800e-003
2.223558e+003,-1.067062e-003
2.225486e+003,-1.010406e-003
2.227415e+003,-1.048089e-003
2.229343e+003,-1.084910e-003
2.231272e+003,-1.065674e-003
2.233200e+003,-1.045247e-003
2.235129e+003,-1.077573e-003
2.237057e+003,-1.105468e-003
2.238986e+003,-1.090595e-003
2.240914e+003,-1.122884e-003
2.242843e+003,-1.082068e-003
2.244771e+003,-1.040454e-003
2.246700e+003,-1.067062e-003
2.248628e+003,-1.146051e-003
2.250557e+003,-1.315382e-003
2.252485e+003,-1.368233e-003
2.254414e+003,-1.266159e-003
2.256342e+003,-1.243329e-003
2.258271e+003,-1.241876e-003
2.260199e+003,-1.163268e-003
2.262128e+003,-1.167332e-003
2.264056e+003,-1.275740e-003
2.265985e+003,-1.247261e-003
2.267913e+003,-1.249475e-003
2.269842e+003,-1.265366e-003
2.271770e+003,-1.235532e-003
2.273699e+003,-1.275839e-003
2.275627e+003,-1.313334e-003
2.277556e+003,-1.343328e-003
2.279484e+003,-1.348745e-003
2.281413e+003,-1.257338e-003
2.283341e+003,-1.267844e-003
2.285270e+003,-1.284528e-003
2.287198e+003,-1.340685e-003
2.289127e+003,-1.370876e-003
2.291055e+003,-1.357961e-003
2.292984e+003,-1.445846e-003
2.294912e+003,-1.556462e-003
2.296841e+003,-1.571418e-003
2.298769e+003,-1.473420e-003
2.300698e+003,-1.415298e-003
2.302626e+003,-1.386994e-003
2.304555e+003,-1.420780e-003
2.306483e+003,-1.430589e-003
2.308412e+003,-1.528200e-003
2.310340e+003,-1.627242e-003
2.312269e+003,-1.580035e-003
2.314197e+003,-1.495379e-003
2.316125e+003,-1.467278e-003
2.318054e+003,-1.555241e-003
2.319983e+003,-1.617636e-003
2.321911e+003,-1.616876e-003
2.323840e+003,-1.595716e-003
2.325768e+003,-1.610736e-003
2.327697e+003,-1.565607e-003
2.329625e+003,-1.364104e-003
2.331553e+003,-1.280695e-003
2.333482e+003,-1.365161e-003
2.335411e+003,-1.448290e-003
2.337339e+003,-1.458098e-003
2.339268e+003,-1.408495e-003
2.341196e+003,-1.405555e-003
2.343125e+003,-1.410608e-003
2.345053e+003,-1.518823e-003
2.346981e+003,-1.518922e-003
2.348910e+003,-1.523710e-003
2.350839e+003,-1.605884e-003
2.352767e+003,-1.583963e-003
2.354696e+003,-1.492143e-003
2.356624e+003,-1.466552e-003
2.358552e+003,-1.536190e-003
2.360481e+003,-1.638498e-003
2.362409e+003,-1.615061e-003
2.364338e+003,-1.400436e-003
2.366267e+003,-1.335202e-003
2.368195e+003,-1.480850e-003
2.370124e+003,-1.568117e-003
2.372052e+003,-1.576535e-003
2.373980e+003,-1.499969e-003
2.375909e+003,-1.525262e-003
2.377838e+003,-1.563957e-003
2.379766e+003,-1.550090e-003
2.381695e+003,-1.540747e-003
2.383623e+003,-1.532988e-003
2.385552e+003,-1.506639e-003
2.387480e+003,-1.460311e-003
2.389408e+003,-1.316671e-003
2.391337e+003,-1.264639e-003
2.393266e+003,-1.315614e-003
2.395194e+003,-1.293711e-003
2.397123e+003,-1.268174e-003
2.399051e+003,-1.204606e-003
2.400979e+003,-1.184945e-003
2.402908e+003,-1.263483e-003
2.404836e+003,-1.223307e-003
2.406765e+003,-1.216435e-003
2.408694e+003,-1.311947e-003
2.410622e+003,-1.279770e-003
2.412551e+003,-1.230907e-003
2.414479e+003,-1.138780e-003
2.416407e+003,-1.124074e-003
2.418336e+003,-1.162276e-003
2.420264e+003,-1.170075e-003
2.422193e+003,-1.226909e-003
2.424122e+003,-1.197733e-003
2.426050e+003,-1.128866e-003
2.427979e+003,-1.139871e-003
2.429907e+003,-1.134815e-003
2.431835e+003,-1.113432e-003
2.433764e+003,-1.088678e-003
2.435692e+003,-1.064847e-003
2.437621e+003,-1.109235e-003
2.439550e+003,-1.185705e-003
2.441478e+003,-1.125495e-003
2.443406e+003,-1.065773e-003
2.445335e+003,-1.111218e-003
2.447263e+003,-1.118291e-003
2.449192e+003,-1.098858e-003
2.451121e+003,-1.144993e-003
2.453049e+003,-1.173644e-003
2.454978e+003,-1.066698e-003
2.456906e+003,-1.006571e-003
2.458834e+003,-1.067062e-003
2.460763e+003,-1.118092e-003
2.462691e+003,-1.224629e-003
2.464620e+003,-1.250103e-003
2.466549e+003,-1.108310e-003
2.468477e+003,-1.045478e-003
2.470406e+003,-1.058468e-003
2.472334e+003,-1.080481e-003
2.474262e+003,-1.081605e-003
2.476191e+003,-1.063195e-003
2.478119e+003,-1.051758e-003
2.480048e+003,-1.087984e-003
2.481977e+003,-1.058700e-003
2.483905e+003,-1.041842e-003
2.485833e+003,-1.102262e-003
2.487762e+003,-1.057906e-003
2.489690e+003,-1.005018e-003
2.491619e+003,-9.718597e-004
2.493547e+003,-8.970055e-004
2.495476e+003,-7.951182e-004
2.497405e+003,-8.220722e-004
2.499333e+003,-1.003728e-003
2.501261e+003,-1.024554e-003
2.503190e+003,-9.395258e-004
2.505118e+003,-9.198863e-004
2.507047e+003,-1.036487e-003
2.508975e+003,-1.102956e-003
2.510904e+003,-1.039528e-003
2.512833e+003,-9.534780e-004
2.514761e+003,-1.015761e-003
2.516689e+003,-1.054700e-003
2.518618e+003,-9.136041e-004
2.520546e+003,-8.338124e-004
2.522475e+003,-9.668015e-004
2.524403e+003,-1.029777e-003
2.526332e+003,-9.313263e-004
2.528260e+003,-9.224322e-004
2.530189e+003,-9.591976e-004
2.532117e+003,-9.951664e-004
2.534046e+003,-1.038503e-003
2.535974e+003,-9.658097e-004
2.537903e+003,-9.043460e-004
2.539831e+003,-8.604333e-004
2.541760e+003,-8.610947e-004
2.543688e+003,-8.619214e-004
2.545617e+003,-7.552629e-004
2.547545e+003,-7.025027e-004
2.549474e+003,-7.295286e-004
2.551402e+003,-8.055362e-004
2.553331e+003,-8.221383e-004
2.555259e+003,-6.942325e-004
2.557188e+003,-6.941333e-004
2.559116e+003,-8.295132e-004
2.561045e+003,-8.144326e-004
2.562973e+003,-7.956143e-004
2.564902e+003,-7.073655e-004
2.566830e+003,-6.500669e-004
2.568759e+003,-7.590335e-004
2.570687e+003,-7.908186e-004
2.572616e+003,-7.248645e-004
2.574544e+003,-6.880794e-004
2.576473e+003,-7.044214e-004
2.578401e+003,-6.751112e-004
2.580330e+003,-7.330349e-004
2.582258e+003,-7.815248e-004
2.584187e+003,-7.288009e-004
2.586115e+003,-7.752075e-004
2.588044e+003,-8.241557e-004
2.589972e+003,-7.665418e-004
2.591901e+003,-6.693217e-004
2.593829e+003,-6.358073e-004
2.595758e+003,-7.137168e-004
2.597686e+003,-7.164955e-004
2.599615e+003,-7.123605e-004
2.601543e+003,-6.905936e-004
2.603472e+003,-6.525483e-004
2.605400e+003,-6.427883e-004
2.607329e+003,-6.234993e-004
2.609257e+003,-5.030808e-004
2.611186e+003,-3.861049e-004
2.613114e+003,-3.566740e-004
2.615043e+003,-3.854429e-004
2.616971e+003,-4.273844e-004
2.618900e+003,-3.134012e-004
2.620828e+003,-1.392400e-004
2.622757e+003,-7.537340e-005
2.624685e+003,-1.190012e-004
2.626614e+003,-1.801787e-004
2.628542e+003,-1.803443e-004
2.630471e+003,-5.208359e-005
2.632399e+003,9.277541e-007
2.634328e+003,-1.085004e-004
2.636256e+003,-1.380476e-004
2.638185e+003,5.301450e-007
2.640113e+003,1.484659e-004
2.642042e+003,1.438255e-004
2.643970e+003,2.395257e-004
2.645899e+003,2.448633e-004
2.647827e+003,1.789275e-004
2.649756e+003,2.840184e-004
2.651684e+003,4.467772e-004
2.653613e+003,4.667780e-004
2.655541e+003,5.632461e-004
2.657470e+003,5.557482e-004
2.659398e+003,5.836173e-004
2.661327e+003,6.893372e-004
2.663255e+003,7.008199e-004
2.665184e+003,6.916271e-004
2.667112e+003,7.710837e-004
2.669041e+003,7.741043e-004
2.670969e+003,7.421736e-004
2.672898e+003,7.965102e-004
2.674826e+003,8.758532e-004
2.676755e+003,8.714707e-004
2.678683e+003,8.467369e-004
2.680612e+003,9.081589e-004
2.682540e+003,1.025814e-003
2.684469e+003,1.047536e-003
2.686397e+003,1.080253e-003
2.688326e+003,1.152804e-003
2.690254e+003,1.282622e-003
2.692183e+003,1.285314e-003
2.694111e+003,1.194599e-003
2.696040e+003,1.156425e-003
2.697968e+003,1.313330e-003
2.699897e+003,1.574897e-003
2.701825e+003,1.602233e-003
2.703754e+003,1.600503e-003
2.705682e+003,1.724334e-003
2.707611e+003,1.683020e-003
2.709539e+003,1.688375e-003
2.711468e+003,1.771508e-003
2.713396e+003,1.918185e-003
2.715325e+003,2.021400e-003
2.717253e+003,2.059418e-003
2.719182e+003,2.070770e-003
2.721110e+003,2.059085e-003
2.723039e+003,2.255349e-003
2.724967e+003,2.453002e-003
2.726896e+003,2.539847e-003
2.728824e+003,2.584976e-003
2.730753e+003,2.768106e-003
2.732681e+003,2.916788e-003
2.734610e+003,3.029784e-003
2.736538e+003,3.068090e-003
2.738467e+003,3.139372e-003
2.740395e+003,3.289916e-003
2.742324e+003,3.396130e-003
2.744252e+003,3.481327e-003
2.746181e+003,3.562799e-003
2.748109e+003,3.569313e-003
2.750038e+003,3.626711e-003
2.751966e+003,3.789123e-003
2.753895e+003,4.056367e-003
2.755823e+003,4.304231e-003
2.757752e+003,4.403865e-003
2.759680e+003,4.517550e-003
2.761609e+003,4.800385e-003
2.763537e+003,5.142780e-003
2.765466e+003,5.347353e-003
2.767394e+003,5.569609e-003
2.769323e+003,5.915197e-003
2.771251e+003,6.392415e-003
2.773180e+003,6.886181e-003
2.775108e+003,7.398135e-003
2.777037e+003,7.926621e-003
2.778965e+003,8.528565e-003
2.780894e+003,9.368072e-003
2.782822e+003,1.028479e-002
2.784750e+003,1.104830e-002
2.786679e+003,1.170418e-002
2.788608e+003,1.249447e-002
2.790536e+003,1.333554e-002
2.792465e+003,1.412802e-002
2.794393e+003,1.495830e-002
2.796322e+003,1.577089e-002
2.798250e+003,1.645477e-002
2.800178e+003,1.711660e-002
2.802107e+003,1.780650e-002
2.804036e+003,1.841311e-002
2.805964e+003,1.874998e-002
2.807893e+003,1.914708e-002
2.809821e+003,1.940943e-002
2.811750e+003,1.941137e-002
2.813678e+003,1.935416e-002
2.815606e+003,1.925620e-002
2.817535e+003,1.904245e-002
2.819464e+003,1.881436e-002
2.821392e+003,1.852578e-002
2.823321e+003,1.814684e-002
2.825249e+003,1.772425e-002
2.827177e+003,1.716871e-002
2.829106e+003,1.647645e-002
2.831034e+003,1.586213e-002
2.832963e+003,1.528608e-002
2.834892e+003,1.478699e-002
2.836820e+003,1.428841e-002
2.838749e+003,1.369711e-002
2.840677e+003,1.302288e-002
2.842605e+003,1.245492e-002
2.844534e+003,1.188177e-002
2.846462e+003,1.126203e-002
2.848391e+003,1.079153e-002
2.850320e+003,1.041272e-002
2.852248e+003,1.010908e-002
2.854177e+003,9.898454e-003
2.856105e+003,9.760139e-003
2.858033e+003,9.638670e-003
2.859962e+003,9.607301e-003
2.861890e+003,9.497593e-003
2.863819e+003,9.409210e-003
2.865748e+003,9.418386e-003
2.867676e+003,9.483572e-003
2.869604e+003,9.670144e-003
2.871533e+003,9.767288e-003
2.873461e+003,9.887403e-003
2.875390e+003,1.002715e-002
2.877319e+003,1.017742e-002
2.879247e+003,1.045233e-002
2.881176e+003,1.053692e-002
2.883104e+003,1.054146e-002
2.885032e+003,1.053885e-002
2.886961e+003,1.046156e-002
2.888889e+003,1.037040e-002
2.890818e+003,1.026006e-002
2.892747e+003,1.008795e-002
2.894675e+003,9.888081e-003
2.896604e+003,9.754445e-003
2.898532e+003,9.742483e-003
2.900460e+003,9.799483e-003
2.902389e+003,9.759766e-003
2.904317e+003,9.668653e-003
2.906246e+003,9.722254e-003
2.908175e+003,9.810938e-003
2.910103e+003,9.875709e-003
2.912031e+003,9.872658e-003
2.913960e+003,9.872354e-003
2.915888e+003,9.936998e-003
2.917817e+003,1.001803e-002
2.919745e+003,1.027166e-002
2.921674e+003,1.054024e-002
2.923603e+003,1.077105e-002
2.925531e+003,1.095263e-002
2.927459e+003,1.119821e-002
2.929388e+003,1.145982e-002
2.931316e+003,1.163556e-002
2.933245e+003,1.171194e-002
2.935173e+003,1.176049e-002
2.937102e+003,1.173843e-002
2.939031e+003,1.170530e-002
2.940959e+003,1.149421e-002
2.942887e+003,1.115731e-002
2.944816e+003,1.078959e-002
2.946744e+003,1.040115e-002
2.948673e+003,9.833442e-003
2.950601e+003,9.164033e-003
2.952530e+003,8.542724e-003
2.954458e+003,7.877560e-003
2.956387e+003,7.111785e-003
2.958315e+003,6.409799e-003
2.960244e+003,5.599278e-003
2.962172e+003,4.805779e-003
2.964101e+003,4.143065e-003
2.966029e+003,3.522913e-003
2.967958e+003,2.949746e-003
2.969886e+003,2.342121e-003
2.971815e+003,1.893458e-003
2.973743e+003,1.478868e-003
2.975672e+003,1.081515e-003
2.977600e+003,7.811412e-004
2.979529e+003,5.386627e-004
2.981457e+003,2.596497e-004
2.983386e+003,3.628329e-005
2.985314e+003,-8.835949e-005
2.987243e+003,-1.978314e-004
2.989171e+003,-2.353536e-004
2.991100e+003,-4.868968e-004
2.993028e+003,-6.690901e-004
2.994957e+003,-6.883440e-004
2.996885e+003,-7.669056e-004
2.998814e+003,-7.695186e-004
3.000742e+003,-7.983594e-004
3.002671e+003,-8.606317e-004
3.004599e+003,-8.490576e-004
3.006528e+003,-8.668485e-004
3.008456e+003,-9.414435e-004
3.010385e+003,-9.587017e-004
3.012313e+003,-9.524861e-004
3.014242e+003,-9.738103e-004
3.016170e+003,-9.880257e-004
3.018099e+003,-9.319214e-004
3.020027e+003,-9.577098e-004
3.021956e+003,-9.956292e-004
3.023884e+003,-1.028322e-003
3.025813e+003,-1.096941e-003
3.027741e+003,-1.203780e-003
3.029670e+003,-1.159501e-003
3.031598e+003,-1.099287e-003
3.033527e+003,-1.144035e-003
3.035455e+003,-1.176254e-003
3.037384e+003,-1.101336e-003
3.039312e+003,-1.009018e-003
3.041241e+003,-1.139805e-003
3.043169e+003,-1.320436e-003
3.045098e+003,-1.286278e-003
3.047026e+003,-1.245147e-003
3.048955e+003,-1.239299e-003
3.050883e+003,-1.200707e-003
3.052812e+003,-1.154742e-003
3.054740e+003,-1.266522e-003
3.056669e+003,-1.246270e-003
3.058597e+003,-1.302862e-003
3.060526e+003,-1.331040e-003
3.062454e+003,-1.289912e-003
3.064383e+003,-1.170273e-003
3.066311e+003,-1.037049e-003
3.068240e+003,-1.033479e-003
3.070168e+003,-1.142746e-003
3.072097e+003,-1.224959e-003
3.074025e+003,-1.214849e-003
3.075954e+003,-1.243759e-003
3.077882e+003,-1.258197e-003
3.079811e+003,-1.264243e-003
3.081739e+003,-1.198823e-003
3.083668e+003,-1.159633e-003
3.085596e+003,-1.189736e-003
3.087525e+003,-1.229354e-003
3.089453e+003,-1.188249e-003
3.091382e+003,-1.172917e-003
3.093310e+003,-1.123050e-003
3.095239e+003,-1.115184e-003
3.097167e+003,-1.189340e-003
3.099096e+003,-1.061113e-003
3.101024e+003,-1.021546e-003
3.102953e+003,-1.057146e-003
3.104881e+003,-1.117134e-003
3.106810e+003,-1.041016e-003
3.108738e+003,-1.024753e-003
3.110667e+003,-9.952656e-004
3.112595e+003,-1.007299e-003
3.114524e+003,-9.625037e-004
3.116452e+003,-9.659750e-004
3.118381e+003,-9.975797e-004
3.120309e+003,-1.017612e-003
3.122238e+003,-9.851496e-004
3.124166e+003,-9.704712e-004
3.126095e+003,-9.340044e-004
3.128023e+003,-9.209774e-004
3.129952e+003,-9.328141e-004
3.131880e+003,-1.018075e-003
3.133809e+003,-9.331778e-004
3.135737e+003,-7.750422e-004
3.137666e+003,-6.652856e-004
3.139594e+003,-6.544341e-004
3.141523e+003,-7.314472e-004
3.143451e+003,-6.456336e-004
3.145380e+003,-4.547916e-004
3.147308e+003,-4.961638e-004
3.149237e+003,-5.653955e-004
3.151165e+003,-3.870981e-004
3.153094e+003,-1.943208e-004
3.155022e+003,-2.055812e-004
3.156951e+003,-2.580044e-004
3.158879e+003,-1.602067e-004
3.160808e+003,-3.044912e-005
3.162736e+003,7.720299e-006
3.164665e+003,3.969640e-005
3.166593e+003,1.872114e-005
3.168522e+003,-9.213599e-005
3.170450e+003,-3.710854e-005
3.172379e+003,4.880918e-005
3.174307e+003,2.296250e-005
3.176236e+003,1.336833e-004
3.178164e+003,2.473166e-004
3.180093e+003,3.250340e-004
3.182021e+003,2.605448e-004
3.183950e+003,2.241102e-004
3.185878e+003,3.057028e-004
3.187807e+003,4.219350e-004
3.189735e+003,4.475732e-004
3.191664e+003,3.873439e-004
3.193592e+003,3.282504e-004
3.195521e+003,2.648548e-004
3.197449e+003,1.964630e-004
3.199378e+003,8.628961e-005
3.201306e+003,1.004077e-004
3.203235e+003,1.379258e-004
3.205163e+003,1.191332e-004
3.207092e+003,8.125226e-005
3.209020e+003,2.679714e-004
3.210948e+003,3.390604e-004
3.212877e+003,3.001324e-004
3.214806e+003,3.516945e-004
3.216734e+003,3.416469e-004
3.218663e+003,3.360760e-004
3.220591e+003,3.497380e-004
3.222520e+003,4.082043e-004
3.224448e+003,3.762674e-004
3.226376e+003,3.324285e-004
3.228305e+003,6.079047e-004
3.230234e+003,9.251926e-004
3.232162e+003,8.390349e-004
3.234091e+003,6.672022e-004
3.236019e+003,6.655430e-004
3.237948e+003,7.426715e-004
3.239876e+003,8.602158e-004
3.241804e+003,1.086996e-003
3.243733e+003,1.233940e-003
3.245662e+003,1.360126e-003
3.247590e+003,1.536955e-003
3.249519e+003,1.524187e-003
3.251447e+003,1.512848e-003
3.253375e+003,1.583643e-003
3.255304e+003,1.695660e-003
3.257232e+003,1.904540e-003
3.259161e+003,1.969639e-003
3.261090e+003,2.005222e-003
3.263018e+003,2.001761e-003
3.264947e+003,2.028557e-003
3.266875e+003,2.016440e-003
3.268803e+003,2.086717e-003
3.270732e+003,2.194569e-003
3.272660e+003,2.212186e-003
3.274589e+003,2.208389e-003
3.276518e+003,2.236565e-003
3.278446e+003,2.243925e-003
3.280375e+003,2.243392e-003
3.282303e+003,2.210787e-003
3.284231e+003,2.306211e-003
3.286160e+003,2.241028e-003
3.288088e+003,2.082989e-003
3.290017e+003,1.994471e-003
3.291946e+003,2.119480e-003
3.293874e+003,2.209289e-003
3.295802e+003,2.063712e-003
3.297731e+003,1.894456e-003
3.299659e+003,1.738772e-003
3.301588e+003,1.581647e-003
3.303516e+003,1.488145e-003
3.305445e+003,1.419094e-003
3.307374e+003,1.398418e-003
3.309302e+003,1.276508e-003
3.311230e+003,1.091347e-003
3.313159e+003,9.266203e-004
3.315087e+003,8.447118e-004
3.317016e+003,8.748904e-004
3.318944e+003,7.848258e-004
3.320873e+003,5.104978e-004
3.322802e+003,3.842597e-004
3.324730e+003,3.805786e-004
3.326658e+003,3.521588e-004
3.328587e+003,2.762269e-004
3.330515e+003,1.710716e-004
3.332444e+003,9.924779e-005
3.334372e+003,1.367326e-004
3.336301e+003,2.381002e-004
3.338229e+003,3.235418e-004
3.340158e+003,2.729114e-004
3.342086e+003,2.536157e-004
3.344015e+003,2.171817e-004
3.345943e+003,2.737403e-004
3.347872e+003,4.195138e-004
3.349800e+003,4.185852e-004
3.351729e+003,3.713262e-004
3.353657e+003,3.892674e-004
3.355586e+003,3.575640e-004
3.357514e+003,3.506997e-004
3.359443e+003,2.517260e-004
3.361371e+003,1.518136e-004
3.363300e+003,8.847690e-005
3.365229e+003,-2.713593e-005
3.367157e+003,-2.028324e-004
3.369085e+003,-3.227381e-004
3.371014e+003,-5.255191e-004
3.372942e+003,-6.669397e-004
3.374871e+003,-8.378800e-004
3.376799e+003,-9.510976e-004
3.378728e+003,-1.189009e-003
3.380656e+003,-1.440992e-003
3.382585e+003,-1.572838e-003
3.384513e+003,-1.699099e-003
3.386442e+003,-1.779524e-003
3.388370e+003,-1.858152e-003
3.390299e+003,-2.021501e-003
3.392227e+003,-2.031494e-003
3.394156e+003,-2.094710e-003
3.396084e+003,-2.197777e-003
3.398013e+003,-2.383307e-003
3.399941e+003,-2.534995e-003
3.401870e+003,-2.472369e-003
3.403798e+003,-2.455171e-003
3.405727e+003,-2.484362e-003
3.407655e+003,-2.494179e-003
3.409584e+003,-2.498033e-003
3.411512e+003,-2.508641e-003
3.413441e+003,-2.707869e-003
3.415369e+003,-2.812699e-003
3.417298e+003,-2.800420e-003
3.419226e+003,-2.702205e-003
3.421155e+003,-2.666378e-003
3.423083e+003,-2.749850e-003
3.425012e+003,-2.712479e-003
3.426940e+003,-2.708528e-003
3.428869e+003,-2.767629e-003
3.430797e+003,-2.733322e-003
3.432726e+003,-2.705070e-003
3.434654e+003,-2.756435e-003
3.436583e+003,-2.903155e-003
3.438511e+003,-2.926094e-003
3.440440e+003,-2.835084e-003
3.442368e+003,-2.890581e-003
3.444297e+003,-2.897823e-003
3.446225e+003,-2.805852e-003
3.448154e+003,-2.758312e-003
3.450082e+003,-2.735330e-003
3.452011e+003,-2.724794e-003
3.453939e+003,-2.734145e-003
3.455868e+003,-2.754888e-003
3.457796e+003,-2.761407e-003
3.459725e+003,-2.772338e-003
3.461653e+003,-2.753736e-003
3.463582e+003,-2.771910e-003
3.465510e+003,-2.860036e-003
3.467439e+003,-2.948441e-003
3.469367e+003,-2.902595e-003
3.471296e+003,-2.894893e-003
3.473224e+003,-2.844763e-003
3.475153e+003,-2.882123e-003
3.477081e+003,-2.851083e-003
3.479010e+003,-2.943504e-003
3.480938e+003,-3.039789e-003
3.482867e+003,-3.060419e-003
3.484795e+003,-2.996618e-003
3.486724e+003,-2.877251e-003
3.488652e+003,-2.829093e-003
3.490581e+003,-2.850029e-003
3.492509e+003,-2.831793e-003
3.494438e+003,-2.941266e-003
3.496366e+003,-2.911350e-003
3.498295e+003,-2.845421e-003
3.500223e+003,-2.850655e-003
3.502152e+003,-2.771481e-003
3.504080e+003,-2.841800e-003
3.506009e+003,-2.951732e-003
3.507937e+003,-2.903846e-003
3.509866e+003,-2.821226e-003
3.511794e+003,-2.727757e-003
3.513723e+003,-2.748599e-003
3.515651e+003,-2.823135e-003
3.517580e+003,-2.912173e-003
3.519508e+003,-2.903220e-003
3.521437e+003,-3.000929e-003
3.523365e+003,-3.027286e-003
3.525294e+003,-3.031728e-003
3.527222e+003,-3.068479e-003
3.529151e+003,-2.981744e-003
3.531079e+003,-2.884920e-003
3.533008e+003,-2.866455e-003
3.534936e+003,-2.936330e-003
3.536865e+003,-2.902398e-003
3.538793e+003,-2.954858e-003
3.540722e+003,-3.027977e-003
3.542650e+003,-3.047850e-003
3.544579e+003,-2.947849e-003
3.546507e+003,-2.607888e-003
3.548436e+003,-2.576235e-003
3.550364e+003,-2.806017e-003
3.552293e+003,-2.886928e-003
3.554221e+003,-2.923890e-003
3.556150e+003,-2.922343e-003
3.558078e+003,-2.764666e-003
3.560007e+003,-2.935770e-003
3.561935e+003,-3.204996e-003
3.563864e+003,-3.237589e-003
3.565792e+003,-3.112005e-003
3.567721e+003,-2.999678e-003
3.569649e+003,-3.056964e-003
3.571578e+003,-3.150559e-003
3.573506e+003,-3.101280e-003
3.575435e+003,-3.088976e-003
3.577363e+003,-3.234662e-003
3.579292e+003,-3.300730e-003
3.581220e+003,-3.195589e-003
3.583149e+003,-3.118124e-003
3.585077e+003,-3.216771e-003
3.587006e+003,-3.226539e-003
3.588934e+003,-3.200786e-003
3.590863e+003,-3.159342e-003
3.592791e+003,-3.076441e-003
3.594720e+003,-3.008991e-003
3.596648e+003,-3.033208e-003
3.598577e+003,-3.302209e-003
3.600505e+003,-3.416529e-003
3.602434e+003,-3.314146e-003
3.604362e+003,-3.314146e-003
3.606291e+003,-3.319374e-003
3.608219e+003,-3.192859e-003
3.610148e+003,-3.208121e-003
3.612076e+003,-3.409625e-003
3.614005e+003,-3.382831e-003
3.615933e+003,-3.275804e-003
3.617862e+003,-3.270936e-003
3.619790e+003,-3.305234e-003
3.621719e+003,-3.419192e-003
3.623647e+003,-3.477342e-003
3.625576e+003,-3.540185e-003
3.627504e+003,-3.644584e-003
3.629433e+003,-3.312403e-003
3.631361e+003,-3.315987e-003
3.633290e+003,-3.510342e-003
3.635218e+003,-3.609426e-003
3.637146e+003,-3.602361e-003
3.639075e+003,-3.629535e-003
3.641004e+003,-3.672545e-003
3.642932e+003,-3.606008e-003
3.644861e+003,-3.801843e-003
3.646789e+003,-4.029762e-003
3.648718e+003,-3.742717e-003
3.650646e+003,-3.500712e-003
3.652574e+003,-3.726752e-003
3.654503e+003,-3.881124e-003
3.656432e+003,-3.699354e-003
3.658360e+003,-3.721627e-003
3.660289e+003,-3.822075e-003
3.662217e+003,-3.704085e-003
3.664146e+003,-3.782300e-003
3.666074e+003,-4.101190e-003
3.668002e+003,-4.294341e-003
3.669931e+003,-4.116813e-003
3.671860e+003,-4.044896e-003
3.673788e+003,-4.168471e-003
3.675717e+003,-3.920431e-003
3.677645e+003,-3.865328e-003
3.679573e+003,-3.974772e-003
3.681502e+003,-3.818627e-003
3.683430e+003,-3.805817e-003
3.685359e+003,-4.053398e-003
3.687288e+003,-4.100172e-003
3.689216e+003,-3.684668e-003
3.691145e+003,-3.597432e-003
3.693073e+003,-3.732041e-003
3.695001e+003,-3.773792e-003
3.696930e+003,-3.603314e-003
3.698858e+003,-3.631540e-003
3.700787e+003,-3.694623e-003
3.702716e+003,-3.701522e-003
3.704644e+003,-3.754642e-003
3.706573e+003,-3.662787e-003
3.708501e+003,-3.726752e-003
3.710429e+003,-3.836099e-003
3.712358e+003,-3.591024e-003
3.714286e+003,-3.631375e-003
3.716215e+003,-3.850254e-003
3.718144e+003,-3.785486e-003
3.720072e+003,-3.734571e-003
3.722000e+003,-3.795963e-003
3.723929e+003,-3.820072e-003
3.725857e+003,-3.711049e-003
3.727786e+003,-3.825655e-003
3.729714e+003,-4.055105e-003
3.731643e+003,-3.957272e-003
3.733572e+003,-3.580640e-003
3.735500e+003,-3.575152e-003
3.737428e+003,-3.627137e-003
3.739357e+003,-3.760390e-003
3.741285e+003,-3.748565e-003
3.743214e+003,-3.465574e-003
3.745142e+003,-2.937877e-003
3.747071e+003,-3.319637e-003
3.749000e+003,-3.426424e-003
3.750928e+003,-3.035841e-003
3.752856e+003,-2.703226e-003
3.754785e+003,-2.702831e-003
3.756713e+003,-3.007411e-003
3.758642e+003,-3.034919e-003
3.760570e+003,-2.818197e-003
3.762499e+003,-3.042619e-003
3.764427e+003,-3.088746e-003
3.766356e+003,-2.896243e-003
3.768284e+003,-3.190590e-003
3.770213e+003,-3.052391e-003
3.772141e+003,-2.797885e-003
3.774070e+003,-2.745208e-003
3.775998e+003,-2.841569e-003
3.777927e+003,-2.903583e-003
3.779855e+003,-2.706157e-003
3.781784e+003,-2.802165e-003
3.783712e+003,-3.113058e-003
3.785641e+003,-3.030905e-003
3.787569e+003,-2.903879e-003
3.789498e+003,-3.045448e-003
3.791426e+003,-3.125065e-003
3.793355e+003,-3.182367e-003
3.795283e+003,-3.076507e-003
3.797212e+003,-2.905689e-003
3.799140e+003,-3.099175e-003
3.801069e+003,-3.073612e-003
3.802997e+003,-3.003660e-003
3.804926e+003,-3.070980e-003
3.806854e+003,-2.951831e-003
3.808783e+003,-2.966278e-003
3.810711e+003,-3.061110e-003
3.812640e+003,-3.233676e-003
3.814568e+003,-3.537917e-003
3.816497e+003,-2.856020e-003
3.818425e+003,-2.656926e-003
3.820354e+003,-2.790642e-003
3.822282e+003,-2.663414e-003
3.824211e+003,-2.993459e-003
3.826139e+003,-3.148289e-003
3.828068e+003,-2.995993e-003
3.829996e+003,-2.959005e-003
3.831925e+003,-3.054431e-003
3.833853e+003,-3.146151e-003
3.835782e+003,-3.244463e-003
3.837710e+003,-3.123980e-003
3.839639e+003,-3.073776e-003
3.841567e+003,-3.052555e-003
3.843496e+003,-3.030807e-003
3.845424e+003,-3.105590e-003
3.847353e+003,-3.330225e-003
3.849281e+003,-3.369680e-003
3.851210e+003,-3.287839e-003
3.853138e+003,-3.110788e-003
3.855067e+003,-2.721304e-003
3.856995e+003,-2.948013e-003
3.858924e+003,-3.242522e-003
3.860852e+003,-3.223908e-003
3.862781e+003,-3.062722e-003
3.864709e+003,-3.056306e-003
3.866638e+003,-3.221244e-003
3.868566e+003,-3.363565e-003
3.870495e+003,-3.143618e-003
3.872423e+003,-3.013466e-003
3.874352e+003,-3.043178e-003
3.876280e+003,-3.124933e-003
3.878209e+003,-3.142072e-003
3.880137e+003,-3.253441e-003
3.882066e+003,-3.394469e-003
3.883994e+003,-3.340747e-003
3.885923e+003,-3.034130e-003
3.887851e+003,-3.074599e-003
3.889780e+003,-3.003430e-003
3.891708e+003,-2.847923e-003
3.893637e+003,-2.993262e-003
3.895565e+003,-3.362184e-003
3.897494e+003,-3.561053e-003
3.899422e+003,-3.310759e-003
3.901351e+003,-3.238642e-003
3.903279e+003,-3.279717e-003
3.905208e+003,-3.135361e-003
3.907136e+003,-3.232492e-003
3.909065e+003,-3.321446e-003
3.910993e+003,-3.294909e-003
3.912922e+003,-3.173190e-003
3.914850e+003,-3.240286e-003
3.916779e+003,-3.275442e-003
3.918707e+003,-3.175229e-003
3.920636e+003,-3.214699e-003
3.922564e+003,-3.096543e-003
3.924493e+003,-3.027648e-003
3.926421e+003,-3.101445e-003
3.928350e+003,-3.170855e-003
3.930278e+003,-3.320952e-003
3.932207e+003,-3.312173e-003
3.934135e+003,-3.317664e-003
3.936064e+003,-3.330258e-003
3.937992e+003,-3.190360e-003
3.939921e+003,-3.069763e-003
3.941849e+003,-3.120098e-003
3.943778e+003,-3.275146e-003
3.945706e+003,-3.187991e-003
3.947635e+003,-2.918755e-003
3.949563e+003,-2.954496e-003
3.951492e+003,-3.064005e-003
3.953420e+003,-3.164243e-003
3.955349e+003,-3.330159e-003
3.957277e+003,-3.439178e-003
3.959206e+003,-3.434905e-003
3.961134e+003,-3.530226e-003
3.963063e+003,-3.392234e-003
3.964991e+003,-3.252389e-003
3.966920e+003,-3.197629e-003
3.968848e+003,-3.060320e-003
3.970777e+003,-3.008892e-003
3.972705e+003,-2.987931e-003
3.974634e+003,-2.971477e-003
3.976562e+003,-3.101478e-003
3.978491e+003,-3.166743e-003
3.980419e+003,-3.117532e-003
3.982348e+003,-2.978717e-003
3.984276e+003,-2.977795e-003
3.986205e+003,-3.073941e-003
3.988133e+003,-2.888146e-003
3.990062e+003,-2.758575e-003
3.991990e+003,-3.035117e-003
3.993919e+003,-3.174867e-003
3.995847e+003,-3.238740e-003
3.997776e+003,-3.036663e-003
3.999704e+003,-3.051963e-003
4.001633e+003,0.000000e+000
