3.991989e+002,-8.531912e-004
4.011274e+002,-9.106632e-003
4.030559e+002,-1.756042e-002
4.049844e+002,-1.614536e-002
4.069129e+002,-1.271812e-002
4.088414e+002,-9.485280e-003
4.107699e+002,-1.192637e-002
4.126984e+002,-1.739254e-002
4.146269e+002,-1.472270e-002
4.165554e+002,-6.801007e-003
4.184839e+002,-1.883787e-003
4.204124e+002,4.373373e-003
4.223409e+002,4.961092e-003
4.242694e+002,1.711960e-003
4.261979e+002,-4.669076e-003
4.281264e+002,1.246999e-003
4.300549e+002,6.937857e-003
4.319834e+002,4.741793e-003
4.339119e+002,5.088500e-003
4.358404e+002,5.022026e-003
4.377689e+002,4.002858e-003
4.396974e+002,-7.908848e-004
4.416259e+002,-7.804226e-003
4.435544e+002,-5.042539e-003
4.454829e+002,6.962020e-005
4.474114e+002,1.730489e-003
4.493399e+002,7.885103e-004
4.512684e+002,-1.250003e-003
4.531969e+002,-1.050106e-003
4.551254e+002,-1.439109e-003
4.570539e+002,-3.400551e-003
4.589824e+002,-4.820656e-003
4.609109e+002,-4.438804e-003
4.628394e+002,-2.153797e-003
4.647679e+002,-3.094372e-003
4.666964e+002,-4.445199e-003
4.686249e+002,-2.322637e-003
4.705533e+002,-8.695601e-004
4.724819e+002,-2.605154e-003
4.744103e+002,-3.689202e-003
4.763389e+002,-4.549939e-003
4.782673e+002,-4.847755e-003
4.801959e+002,-5.308629e-003
4.821243e+002,-5.358117e-003
4.840529e+002,-5.795891e-003
4.859813e+002,-6.082236e-003
4.879099e+002,-5.351931e-003
4.898383e+002,-5.408449e-003
4.917668e+002,-6.766299e-003
4.936953e+002,-9.197052e-003
4.956238e+002,-8.566062e-003
4.975523e+002,-6.711165e-003
4.994808e+002,-7.742453e-003
5.014093e+002,-6.931824e-003
5.033378e+002,-4.580726e-003
5.052663e+002,-1.953886e-003
5.071948e+002,-4.411581e-003
5.091233e+002,-1.009894e-002
5.110518e+002,-1.102646e-002
5.129803e+002,-9.370893e-003
5.149088e+002,-7.699910e-003
5.168373e+002,-7.104489e-003
5.187658e+002,-5.949236e-003
5.206943e+002,-6.890147e-003
5.226228e+002,-8.059978e-003
5.245513e+002,-7.895958e-003
5.264798e+002,-7.582480e-003
5.284083e+002,-7.108302e-003
5.303368e+002,-5.852973e-003
5.322653e+002,-5.385836e-003
5.341938e+002,-5.186982e-003
5.361223e+002,-6.474007e-003
5.380508e+002,-6.757296e-003
5.399792e+002,-6.648943e-003
5.419078e+002,-5.979499e-003
5.438363e+002,-5.521332e-003
5.457648e+002,-4.840415e-003
5.476932e+002,-4.208277e-003
5.496218e+002,-5.119662e-003
5.515503e+002,-5.553883e-003
5.534788e+002,-5.915538e-003
5.554072e+002,-6.599896e-003
5.573358e+002,-5.718856e-003
5.592643e+002,-4.946599e-003
5.611927e+002,-4.861451e-003
5.631212e+002,-5.471373e-003
5.650497e+002,-5.791674e-003
5.669783e+002,-5.516621e-003
5.689067e+002,-5.294554e-003
5.708352e+002,-6.132484e-003
5.727637e+002,-6.105466e-003
5.746923e+002,-6.330220e-003
5.766207e+002,-7.272621e-003
5.785492e+002,-6.860240e-003
5.804777e+002,-6.317746e-003
5.824063e+002,-6.557698e-003
5.843347e+002,-6.772465e-003
5.862632e+002,-7.545489e-003
5.881917e+002,-7.762926e-003
5.901202e+002,-6.960356e-003
5.920487e+002,-6.716809e-003
5.939772e+002,-7.876532e-003
5.959057e+002,-7.811646e-003
5.978342e+002,-6.175051e-003
5.997627e+002,-5.421080e-003
6.016912e+002,-6.138136e-003
6.036197e+002,-5.671405e-003
6.055482e+002,-3.906541e-003
6.074767e+002,-2.807399e-003
6.094052e+002,-2.190854e-003
6.113337e+002,-3.120394e-003
6.132622e+002,-4.088783e-003
6.151907e+002,-4.419879e-003
6.171192e+002,-4.530199e-003
6.190477e+002,-4.774582e-003
6.209762e+002,-4.240926e-003
6.229047e+002,-4.467237e-003
6.248332e+002,-6.011623e-003
6.267617e+002,-7.273859e-003
6.286902e+002,-7.269656e-003
6.306187e+002,-6.338613e-003
6.325472e+002,-6.170641e-003
6.344756e+002,-5.726050e-003
6.364042e+002,-5.212519e-003
6.383326e+002,-5.233635e-003
6.402612e+002,-4.917607e-003
6.421896e+002,-4.136243e-003
6.441182e+002,-3.999297e-003
6.460466e+002,-4.185929e-003
6.479752e+002,-4.301067e-003
6.499036e+002,-4.547610e-003
6.518322e+002,-4.446773e-003
6.537606e+002,-4.259891e-003
6.556891e+002,-4.579382e-003
6.576177e+002,-4.682385e-003
6.595461e+002,-4.853521e-003
6.614746e+002,-4.959965e-003
6.634031e+002,-5.006282e-003
6.653317e+002,-4.497506e-003
6.672601e+002,-4.287681e-003
6.691886e+002,-4.503868e-003
6.711171e+002,-5.023150e-003
6.730457e+002,-4.904207e-003
6.749741e+002,-4.552890e-003
6.769026e+002,-4.427258e-003
6.788311e+002,-4.448282e-003
6.807596e+002,-4.440017e-003
6.826881e+002,-4.710049e-003
6.846166e+002,-4.746102e-003
6.865451e+002,-4.911218e-003
6.884736e+002,-4.872001e-003
6.904021e+002,-4.670978e-003
6.923306e+002,-4.708574e-003
6.942591e+002,-4.834681e-003
6.961876e+002,-5.352978e-003
6.981161e+002,-5.992441e-003
7.000446e+002,-6.215980e-003
7.019731e+002,-6.212191e-003
7.039016e+002,-5.987016e-003
7.058301e+002,-6.097363e-003
7.077585e+002,-6.667020e-003
7.096871e+002,-6.723432e-003
7.116156e+002,-6.279211e-003
7.135441e+002,-6.563410e-003
7.154725e+002,-7.464985e-003
7.174011e+002,-7.956147e-003
7.193296e+002,-7.751990e-003
7.212581e+002,-7.480716e-003
7.231865e+002,-7.415966e-003
7.251151e+002,-7.642355e-003
7.270436e+002,-8.013010e-003
7.289720e+002,-7.725658e-003
7.309005e+002,-7.444759e-003
7.328290e+002,-7.571768e-003
7.347576e+002,-7.023935e-003
7.366860e+002,-6.070670e-003
7.386145e+002,-5.647726e-003
7.405430e+002,-5.906745e-003
7.424716e+002,-6.046196e-003
7.444000e+002,-5.877621e-003
7.463285e+002,-5.518420e-003
7.482570e+002,-5.130271e-003
7.501855e+002,-4.137424e-003
7.521140e+002,-3.617838e-003
7.540425e+002,-3.269292e-003
7.559710e+002,-3.054760e-003
7.578995e+002,-2.770461e-003
7.598280e+002,-2.858489e-003
7.617565e+002,-2.851116e-003
7.636850e+002,-2.405385e-003
7.656135e+002,-1.859076e-003
7.675420e+002,-1.616480e-003
7.694705e+002,-1.289912e-003
7.713990e+002,-1.215146e-003
7.733275e+002,-1.488082e-003
7.752560e+002,-1.730023e-003
7.771844e+002,-1.374245e-003
7.791130e+002,-1.212866e-003
7.810415e+002,-1.501686e-003
7.829700e+002,-1.847232e-003
7.848984e+002,-1.751903e-003
7.868270e+002,-1.689759e-003
7.887555e+002,-2.182612e-003
7.906840e+002,-2.631502e-003
7.926124e+002,-3.019586e-003
7.945410e+002,-3.326246e-003
7.964695e+002,-3.304478e-003
7.983979e+002,-3.314803e-003
8.003264e+002,-3.609360e-003
8.022549e+002,-4.085632e-003
8.041835e+002,-3.998476e-003
8.061119e+002,-3.541433e-003
8.080404e+002,-3.043968e-003
8.099689e+002,-3.391872e-003
8.118975e+002,-4.026381e-003
8.138259e+002,-3.770278e-003
8.157545e+002,-3.272054e-003
8.176830e+002,-3.558359e-003
8.196115e+002,-4.197776e-003
8.215399e+002,-4.591840e-003
8.234684e+002,-4.782414e-003
8.253970e+002,-5.233177e-003
8.273254e+002,-5.708849e-003
8.292539e+002,-5.893867e-003
8.311824e+002,-5.983911e-003
8.331110e+002,-5.847350e-003
8.350394e+002,-5.676441e-003
8.369679e+002,-5.266240e-003
8.388964e+002,-5.269906e-003
8.408250e+002,-5.460902e-003
8.427534e+002,-5.758520e-003
8.446819e+002,-5.544428e-003
8.466104e+002,-5.444280e-003
8.485389e+002,-5.446833e-003
8.504674e+002,-5.429195e-003
8.523959e+002,-5.182758e-003
8.543244e+002,-5.035497e-003
8.562529e+002,-5.136559e-003
8.581814e+002,-5.282738e-003
8.601099e+002,-5.009655e-003
8.620384e+002,-4.622199e-003
8.639669e+002,-5.015223e-003
8.658954e+002,-5.274653e-003
8.678239e+002,-4.760325e-003
8.697524e+002,-4.804468e-003
8.716809e+002,-5.147462e-003
8.736094e+002,-5.387243e-003
8.755378e+002,-5.171692e-003
8.774664e+002,-4.724340e-003
8.793949e+002,-4.444116e-003
8.813234e+002,-4.186849e-003
8.832518e+002,-4.139624e-003
8.851804e+002,-4.321275e-003
8.871089e+002,-4.480192e-003
8.890374e+002,-4.186422e-003
8.909658e+002,-4.080117e-003
8.928943e+002,-3.983505e-003
8.948229e+002,-3.773431e-003
8.967513e+002,-3.969288e-003
8.986798e+002,-4.321275e-003
9.006083e+002,-4.361002e-003
9.025369e+002,-4.418075e-003
9.044653e+002,-4.589185e-003
9.063938e+002,-4.697954e-003
9.083223e+002,-4.754131e-003
9.102509e+002,-5.163703e-003
9.121793e+002,-5.556304e-003
9.141078e+002,-5.823223e-003
9.160364e+002,-5.698123e-003
9.179648e+002,-5.724120e-003
9.198933e+002,-5.980447e-003
9.218218e+002,-6.323200e-003
9.237504e+002,-6.819731e-003
9.256788e+002,-7.318659e-003
9.276073e+002,-7.545718e-003
9.295358e+002,-7.434499e-003
9.314644e+002,-7.454335e-003
9.333928e+002,-7.471792e-003
9.353213e+002,-7.434532e-003
9.372498e+002,-7.488695e-003
9.391783e+002,-7.892346e-003
9.411068e+002,-7.920718e-003
9.430353e+002,-7.637862e-003
9.449637e+002,-7.743007e-003
9.468923e+002,-7.909427e-003
9.488208e+002,-7.611653e-003
9.507493e+002,-7.138452e-003
9.526777e+002,-6.921943e-003
9.546063e+002,-7.093829e-003
9.565348e+002,-6.927160e-003
9.584633e+002,-6.684900e-003
9.603917e+002,-6.595784e-003
9.623203e+002,-6.564878e-003
9.642488e+002,-6.328914e-003
9.661772e+002,-5.953942e-003
9.681057e+002,-5.691059e-003
9.700343e+002,-5.564318e-003
9.719628e+002,-5.520809e-003
9.738912e+002,-5.608281e-003
9.758197e+002,-5.608902e-003
9.777483e+002,-5.520809e-003
9.796768e+002,-5.258809e-003
9.816052e+002,-5.009131e-003
9.835337e+002,-4.920784e-003
9.854623e+002,-4.693300e-003
9.873907e+002,-4.610003e-003
9.893192e+002,-4.650982e-003
9.912477e+002,-4.561316e-003
9.931763e+002,-4.542561e-003
9.951047e+002,-4.525478e-003
9.970332e+002,-4.369596e-003
9.989617e+002,-4.248670e-003
1.000890e+003,-4.090424e-003
1.002819e+003,-3.924404e-003
1.004747e+003,-3.816853e-003
1.006676e+003,-3.595592e-003
1.008604e+003,-3.445194e-003
1.010533e+003,-3.341667e-003
1.012461e+003,-3.156480e-003
1.014390e+003,-2.968943e-003
1.016318e+003,-2.810329e-003
1.018247e+003,-2.570109e-003
1.020175e+003,-2.479980e-003
1.022104e+003,-2.357900e-003
1.024032e+003,-1.936766e-003
1.025961e+003,-1.717185e-003
1.027889e+003,-1.787311e-003
1.029818e+003,-1.664905e-003
1.031746e+003,-1.409585e-003
1.033675e+003,-1.247294e-003
1.035603e+003,-9.249451e-004
1.037532e+003,-6.804375e-004
1.039460e+003,-7.447775e-004
1.041389e+003,-5.889887e-004
1.043317e+003,-3.782922e-004
1.045246e+003,-4.877242e-004
1.047174e+003,-3.848139e-004
1.049103e+003,-4.800787e-004
1.051031e+003,-3.837214e-004
1.052960e+003,-1.542447e-004
1.054888e+003,-1.066454e-004
1.056817e+003,-2.234978e-004
1.058745e+003,-4.059673e-004
1.060674e+003,-5.262141e-004
1.062602e+003,-1.988581e-004
1.064531e+003,-6.921149e-005
1.066459e+003,-1.398031e-004
1.068388e+003,-1.315222e-004
1.070316e+003,-1.350665e-004
1.072245e+003,1.360365e-004
1.074173e+003,4.593149e-004
1.076102e+003,3.220497e-004
1.078030e+003,1.422677e-004
1.079959e+003,2.216902e-004
1.081887e+003,5.484163e-004
1.083816e+003,7.807429e-004
1.085744e+003,1.195297e-003
1.087673e+003,1.574996e-003
1.089601e+003,1.593686e-003
1.091530e+003,1.765985e-003
1.093458e+003,2.243892e-003
1.095387e+003,2.318270e-003
1.097315e+003,2.384798e-003
1.099244e+003,2.501854e-003
1.101172e+003,2.853580e-003
1.103101e+003,2.926929e-003
1.105029e+003,2.619243e-003
1.106958e+003,2.636010e-003
1.108886e+003,2.880997e-003
1.110815e+003,3.234032e-003
1.112743e+003,3.363906e-003
1.114672e+003,3.156259e-003
1.116600e+003,3.090714e-003
1.118529e+003,3.249988e-003
1.120457e+003,3.252459e-003
1.122386e+003,3.237604e-003
1.124314e+003,3.139672e-003
1.126243e+003,2.736395e-003
1.128171e+003,2.643444e-003
1.130100e+003,2.657212e-003
1.132028e+003,2.229404e-003
1.133957e+003,1.869864e-003
1.135885e+003,1.675569e-003
1.137814e+003,1.437644e-003
1.139742e+003,1.096031e-003
1.141671e+003,7.047029e-004
1.143599e+003,2.863062e-004
1.145528e+003,-2.308829e-004
1.147456e+003,-7.260554e-004
1.149385e+003,-8.676422e-004
1.151313e+003,-1.121728e-003
1.153242e+003,-1.536058e-003
1.155170e+003,-1.988387e-003
1.157099e+003,-2.157622e-003
1.159027e+003,-2.345245e-003
1.160956e+003,-2.573864e-003
1.162884e+003,-2.728646e-003
1.164813e+003,-2.839134e-003
1.166741e+003,-2.914279e-003
1.168670e+003,-2.821028e-003
1.170598e+003,-2.796963e-003
1.172526e+003,-2.980362e-003
1.174455e+003,-2.912272e-003
1.176384e+003,-2.769802e-003
1.178312e+003,-2.803120e-003
1.180240e+003,-2.797424e-003
1.182169e+003,-2.867804e-003
1.184098e+003,-2.867738e-003
1.186026e+003,-2.810658e-003
1.187954e+003,-2.835545e-003
1.189883e+003,-3.082298e-003
1.191812e+003,-3.249133e-003
1.193740e+003,-3.096247e-003
1.195668e+003,-2.996914e-003
1.197597e+003,-3.024226e-003
1.199526e+003,-3.017579e-003
1.201454e+003,-3.004713e-003
1.203382e+003,-2.954957e-003
1.205311e+003,-2.813127e-003
1.207240e+003,-2.764765e-003
1.209168e+003,-2.525738e-003
1.211096e+003,-2.287372e-003
1.213025e+003,-2.240170e-003
1.214953e+003,-2.136553e-003
1.216882e+003,-2.059162e-003
1.218810e+003,-2.056228e-003
1.220739e+003,-2.019159e-003
1.222667e+003,-1.752959e-003
1.224596e+003,-1.539822e-003
1.226524e+003,-1.608822e-003
1.228453e+003,-1.488643e-003
1.230381e+003,-1.127280e-003
1.232310e+003,-9.588008e-004
1.234238e+003,-9.393605e-004
1.236167e+003,-9.564535e-004
1.238095e+003,-1.034008e-003
1.240024e+003,-1.042305e-003
1.241952e+003,-1.005348e-003
1.243881e+003,-1.153552e-003
1.245809e+003,-1.236094e-003
1.247738e+003,-1.426989e-003
1.249666e+003,-1.551213e-003
1.251595e+003,-1.529950e-003
1.253523e+003,-1.534804e-003
1.255452e+003,-1.617405e-003
1.257380e+003,-1.666126e-003
1.259309e+003,-1.697086e-003
1.261237e+003,-1.533582e-003
1.263166e+003,-1.344154e-003
1.265094e+003,-1.167597e-003
1.267023e+003,-8.217084e-004
1.268951e+003,-5.401133e-004
1.270880e+003,-2.413475e-004
1.272808e+003,1.885736e-004
1.274737e+003,5.249615e-004
1.276665e+003,7.984023e-004
1.278594e+003,1.069989e-003
1.280522e+003,1.369233e-003
1.282451e+003,1.656078e-003
1.284379e+003,1.935324e-003
1.286308e+003,2.479993e-003
1.288236e+003,2.915187e-003
1.290165e+003,3.232897e-003
1.292093e+003,3.639542e-003
1.294022e+003,3.881652e-003
1.295950e+003,4.256581e-003
1.297879e+003,4.582507e-003
1.299807e+003,4.679626e-003
1.301736e+003,4.628150e-003
1.303664e+003,4.574069e-003
1.305593e+003,4.646502e-003
1.307521e+003,4.644225e-003
1.309450e+003,4.437773e-003
1.311378e+003,4.230884e-003
1.313307e+003,3.961293e-003
1.315235e+003,3.733642e-003
1.317164e+003,3.578434e-003
1.319092e+003,3.183795e-003
1.321021e+003,2.618242e-003
1.322949e+003,2.174588e-003
1.324878e+003,1.909199e-003
1.326806e+003,1.758400e-003
1.328735e+003,1.608618e-003
1.330663e+003,1.461813e-003
1.332592e+003,1.342444e-003
1.334520e+003,1.274181e-003
1.336449e+003,1.164332e-003
1.338377e+003,1.076832e-003
1.340306e+003,1.059061e-003
1.342234e+003,1.188287e-003
1.344163e+003,1.165827e-003
1.346091e+003,1.029169e-003
1.348020e+003,1.028272e-003
1.349948e+003,1.009275e-003
1.351877e+003,7.884771e-004
1.353805e+003,6.947467e-004
1.355734e+003,6.730760e-004
1.357662e+003,4.401104e-004
1.359591e+003,2.373045e-004
1.361519e+003,1.297723e-004
1.363448e+003,3.449390e-005
1.365376e+003,-7.795740e-005
1.367305e+003,-1.277461e-004
1.369233e+003,-1.292035e-004
1.371162e+003,-3.597529e-004
1.373090e+003,-3.770011e-004
1.375019e+003,-2.565142e-004
1.376947e+003,-1.476864e-004
1.378876e+003,-2.614197e-005
1.380804e+003,7.058124e-005
1.382733e+003,2.418792e-006
1.384661e+003,-2.337309e-004
1.386590e+003,-6.035477e-004
1.388518e+003,-7.346558e-004
1.390447e+003,-7.588682e-004
1.392375e+003,-1.002869e-003
1.394304e+003,-1.252052e-003
1.396232e+003,-1.401064e-003
1.398161e+003,-1.388150e-003
1.400089e+003,-1.400403e-003
1.402018e+003,-1.481412e-003
1.403946e+003,-1.606973e-003
1.405875e+003,-1.691904e-003
1.407803e+003,-1.669988e-003
1.409732e+003,-1.728571e-003
1.411660e+003,-1.748174e-003
1.413589e+003,-1.694280e-003
1.415517e+003,-1.501620e-003
1.417446e+003,-1.285056e-003
1.419374e+003,-9.223330e-004
1.421303e+003,-1.704412e-004
1.423231e+003,5.194547e-004
1.425160e+003,1.195962e-003
1.427088e+003,1.785747e-003
1.429017e+003,2.204593e-003
1.430945e+003,2.479993e-003
1.432874e+003,2.639777e-003
1.434802e+003,2.897741e-003
1.436731e+003,3.174516e-003
1.438659e+003,3.766529e-003
1.440588e+003,4.342482e-003
1.442516e+003,4.964343e-003
1.444445e+003,5.596090e-003
1.446373e+003,6.103669e-003
1.448302e+003,6.517956e-003
1.450230e+003,7.026143e-003
1.452159e+003,7.657594e-003
1.454087e+003,8.237315e-003
1.456016e+003,8.175693e-003
1.457944e+003,8.581181e-003
1.459873e+003,9.375961e-003
1.461801e+003,9.650527e-003
1.463730e+003,9.589720e-003
1.465658e+003,9.661539e-003
1.467587e+003,9.787419e-003
1.469515e+003,9.675057e-003
1.471444e+003,9.265262e-003
1.473372e+003,8.911892e-003
1.475301e+003,8.737748e-003
1.477229e+003,8.381937e-003
1.479158e+003,7.924664e-003
1.481086e+003,7.308325e-003
1.483015e+003,6.804790e-003
1.484943e+003,6.270170e-003
1.486872e+003,5.706495e-003
1.488800e+003,5.114885e-003
1.490729e+003,4.601025e-003
1.492657e+003,4.249956e-003
1.494586e+003,3.800354e-003
1.496514e+003,3.164870e-003
1.498443e+003,2.669880e-003
1.500371e+003,2.447670e-003
1.502300e+003,2.184945e-003
1.504228e+003,1.514810e-003
1.506157e+003,8.117137e-004
1.508085e+003,8.350179e-004
1.510014e+003,8.720019e-004
1.511942e+003,7.840291e-004
1.513871e+003,8.011243e-004
1.515799e+003,5.966899e-004
1.517728e+003,5.211797e-004
1.519656e+003,3.004971e-004
1.521585e+003,2.076675e-004
1.523513e+003,6.916935e-004
1.525442e+003,1.003729e-003
1.527370e+003,1.297577e-003
1.529299e+003,1.550655e-003
1.531227e+003,1.687843e-003
1.533156e+003,1.882476e-003
1.535084e+003,2.433776e-003
1.537013e+003,2.678548e-003
1.538941e+003,2.629576e-003
1.540870e+003,2.896540e-003
1.542798e+003,3.406382e-003
1.544727e+003,3.990184e-003
1.546655e+003,4.561746e-003
1.548584e+003,4.996585e-003
1.550512e+003,5.405053e-003
1.552441e+003,5.725665e-003
1.554369e+003,6.051654e-003
1.556298e+003,6.370592e-003
1.558226e+003,6.444705e-003
1.560155e+003,7.372320e-003
1.562083e+003,8.455988e-003
1.564012e+003,8.882435e-003
1.565940e+003,9.128806e-003
1.567869e+003,9.156081e-003
1.569797e+003,9.143966e-003
1.571726e+003,9.399763e-003
1.573654e+003,9.373219e-003
1.575583e+003,9.169312e-003
1.577511e+003,9.159803e-003
1.579440e+003,9.205253e-003
1.581368e+003,9.204745e-003
1.583297e+003,9.120144e-003
1.585225e+003,8.972639e-003
1.587154e+003,8.711921e-003
1.589082e+003,8.298001e-003
1.591010e+003,7.758540e-003
1.592939e+003,7.168980e-003
1.594868e+003,6.668331e-003
1.596796e+003,6.170040e-003
1.598724e+003,5.645733e-003
1.600653e+003,4.948055e-003
1.602582e+003,4.352590e-003
1.604510e+003,3.821914e-003
1.606438e+003,3.357829e-003
1.608367e+003,2.822697e-003
1.610296e+003,2.447370e-003
1.612224e+003,2.044470e-003
1.614152e+003,1.558203e-003
1.616081e+003,9.474403e-004
1.618010e+003,7.763282e-004
1.619938e+003,7.282337e-004
1.621866e+003,3.901297e-004
1.623795e+003,1.129686e-004
1.625724e+003,1.026945e-004
1.627652e+003,-2.614197e-005
1.629580e+003,-1.077717e-004
1.631509e+003,-2.632364e-004
1.633438e+003,-6.626389e-004
1.635366e+003,-1.219838e-003
1.637294e+003,-1.289549e-003
1.639223e+003,-1.283140e-003
1.641151e+003,-1.484251e-003
1.643080e+003,-1.857690e-003
1.645008e+003,-2.367852e-003
1.646937e+003,-2.701679e-003
1.648865e+003,-2.716101e-003
1.650794e+003,-2.916846e-003
1.652722e+003,-3.430138e-003
1.654651e+003,-3.387796e-003
1.656579e+003,-3.101116e-003
1.658508e+003,-3.287872e-003
1.660436e+003,-3.483949e-003
1.662365e+003,-3.561513e-003
1.664293e+003,-3.581625e-003
1.666222e+003,-3.605712e-003
1.668150e+003,-3.903914e-003
1.670079e+003,-4.345814e-003
1.672007e+003,-4.502523e-003
1.673936e+003,-4.749937e-003
1.675864e+003,-5.003596e-003
1.677793e+003,-5.249643e-003
1.679721e+003,-5.508605e-003
1.681650e+003,-5.910733e-003
1.683578e+003,-6.538474e-003
1.685507e+003,-6.589192e-003
1.687435e+003,-6.578749e-003
1.689364e+003,-6.756676e-003
1.691292e+003,-6.881244e-003
1.693221e+003,-7.163517e-003
1.695149e+003,-7.552458e-003
1.697078e+003,-7.557342e-003
1.699006e+003,-7.897129e-003
1.700935e+003,-8.115787e-003
1.702863e+003,-7.786033e-003
1.704792e+003,-7.797164e-003
1.706720e+003,-7.754138e-003
1.708649e+003,-7.730084e-003
1.710577e+003,-7.795536e-003
1.712506e+003,-7.972055e-003
1.714434e+003,-8.281546e-003
1.716363e+003,-8.570967e-003
1.718291e+003,-8.567492e-003
1.720220e+003,-8.372104e-003
1.722148e+003,-8.380977e-003
1.724077e+003,-8.412631e-003
1.726005e+003,-8.415979e-003
1.727934e+003,-8.556446e-003
1.729862e+003,-8.549461e-003
1.731791e+003,-8.663057e-003
1.733719e+003,-8.986401e-003
1.735648e+003,-8.833899e-003
1.737576e+003,-8.746262e-003
1.739505e+003,-8.732817e-003
1.741433e+003,-8.611899e-003
1.743362e+003,-8.684006e-003
1.745290e+003,-8.478891e-003
1.747219e+003,-8.357673e-003
1.749147e+003,-8.384909e-003
1.751076e+003,-8.355333e-003
1.753004e+003,-8.163882e-003
1.754933e+003,-8.117707e-003
1.756861e+003,-8.076859e-003
1.758790e+003,-8.001690e-003
1.760718e+003,-8.114974e-003
1.762647e+003,-8.079590e-003
1.764575e+003,-7.960832e-003
1.766504e+003,-7.963922e-003
1.768432e+003,-7.936269e-003
1.770361e+003,-8.114064e-003
1.772289e+003,-8.309892e-003
1.774218e+003,-8.208461e-003
1.776146e+003,-8.126909e-003
1.778075e+003,-8.051749e-003
1.780003e+003,-8.004325e-003
1.781932e+003,-7.992875e-003
1.783860e+003,-7.941247e-003
1.785789e+003,-7.877151e-003
1.787717e+003,-7.813240e-003
1.789646e+003,-7.844807e-003
1.791574e+003,-8.085087e-003
1.793503e+003,-8.134617e-003
1.795431e+003,-7.995542e-003
1.797360e+003,-8.012718e-003
1.799288e+003,-8.054645e-003
1.801217e+003,-8.149315e-003
1.803145e+003,-8.068467e-003
1.805074e+003,-7.922539e-003
1.807002e+003,-7.926411e-003
1.808931e+003,-8.069540e-003
1.810859e+003,-7.986954e-003
1.812788e+003,-7.867422e-003
1.814716e+003,-7.902269e-003
1.816645e+003,-8.011351e-003
1.818573e+003,-8.073866e-003
1.820502e+003,-8.096404e-003
1.822430e+003,-8.109869e-003
1.824359e+003,-8.187555e-003
1.826287e+003,-8.263406e-003
1.828216e+003,-8.373729e-003
1.830144e+003,-8.340317e-003
1.832073e+003,-8.212818e-003
1.834001e+003,-8.196301e-003
1.835930e+003,-8.236390e-003
1.837858e+003,-8.207648e-003
1.839787e+003,-8.238926e-003
1.841715e+003,-8.398722e-003
1.843644e+003,-8.593707e-003
1.845572e+003,-8.516711e-003
1.847501e+003,-8.313956e-003
1.849429e+003,-8.206965e-003
1.851358e+003,-8.164663e-003
1.853286e+003,-8.162159e-003
1.855215e+003,-8.107560e-003
1.857143e+003,-8.104892e-003
1.859072e+003,-8.138584e-003
1.861000e+003,-8.164045e-003
1.862929e+003,-8.120763e-003
1.864857e+003,-8.017954e-003
1.866786e+003,-8.148209e-003
1.868714e+003,-8.323707e-003
1.870643e+003,-8.153119e-003
1.872571e+003,-7.984417e-003
1.874500e+003,-7.912941e-003
1.876428e+003,-7.896803e-003
1.878357e+003,-7.907996e-003
1.880285e+003,-7.873832e-003
1.882214e+003,-7.863452e-003
1.884142e+003,-7.891988e-003
1.886071e+003,-7.895535e-003
1.887999e+003,-7.884602e-003
1.889928e+003,-7.854373e-003
1.891856e+003,-7.850306e-003
1.893785e+003,-7.861012e-003
1.895713e+003,-7.812101e-003
1.897642e+003,-7.824630e-003
1.899570e+003,-7.927127e-003
1.901499e+003,-7.889190e-003
1.903427e+003,-7.781867e-003
1.905356e+003,-7.853136e-003
1.907284e+003,-7.832538e-003
1.909213e+003,-7.801492e-003
1.911141e+003,-7.762633e-003
1.913070e+003,-7.652610e-003
1.914998e+003,-7.689591e-003
1.916927e+003,-7.882324e-003
1.918855e+003,-7.952015e-003
1.920784e+003,-7.896771e-003
1.922712e+003,-7.898235e-003
1.924641e+003,-7.858799e-003
1.926569e+003,-7.861597e-003
1.928498e+003,-7.889743e-003
1.930426e+003,-7.853592e-003
1.932355e+003,-7.860165e-003
1.934283e+003,-7.966264e-003
1.936212e+003,-7.976479e-003
1.938140e+003,-7.920718e-003
1.940069e+003,-7.942711e-003
1.941997e+003,-8.011351e-003
1.943926e+003,-7.973356e-003
1.945854e+003,-7.979537e-003
1.947783e+003,-8.122779e-003
1.949711e+003,-8.104535e-003
1.951640e+003,-8.046058e-003
1.953568e+003,-8.032039e-003
1.955497e+003,-8.010668e-003
1.957425e+003,-7.995673e-003
1.959354e+003,-8.080599e-003
1.961282e+003,-8.106226e-003
1.963211e+003,-8.022215e-003
1.965139e+003,-7.983636e-003
1.967068e+003,-8.034478e-003
1.968996e+003,-8.044334e-003
1.970925e+003,-7.969778e-003
1.972853e+003,-7.959888e-003
1.974782e+003,-7.990467e-003
1.976710e+003,-7.997299e-003
1.978639e+003,-7.931681e-003
1.980567e+003,-7.892964e-003
1.982496e+003,-7.858278e-003
1.984424e+003,-7.879851e-003
1.986353e+003,-7.854016e-003
1.988281e+003,-7.763186e-003
1.990210e+003,-7.735780e-003
1.992138e+003,-7.742388e-003
1.994067e+003,-7.709220e-003
1.995995e+003,-7.640043e-003
1.997924e+003,-7.583880e-003
1.999852e+003,-7.561608e-003
2.001781e+003,-7.603514e-003
2.003709e+003,-7.637113e-003
2.005638e+003,-7.587820e-003
2.007566e+003,-7.578084e-003
2.009495e+003,-7.633141e-003
2.011423e+003,-7.583033e-003
2.013352e+003,-7.411178e-003
2.015280e+003,-7.358341e-003
2.017208e+003,-7.449287e-003
2.019137e+003,-7.541712e-003
2.021066e+003,-7.517451e-003
2.022994e+003,-7.489803e-003
2.024922e+003,-7.452674e-003
2.026851e+003,-7.436323e-003
2.028780e+003,-7.516898e-003
2.030708e+003,-7.507259e-003
2.032636e+003,-7.469057e-003
2.034565e+003,-7.406552e-003
2.036494e+003,-7.376877e-003
2.038422e+003,-7.367201e-003
2.040350e+003,-7.309797e-003
2.042279e+003,-7.302597e-003
2.044208e+003,-7.400689e-003
2.046136e+003,-7.394891e-003
2.048064e+003,-7.333972e-003
2.049993e+003,-7.295331e-003
2.051921e+003,-7.402220e-003
2.053850e+003,-7.417497e-003
2.055778e+003,-7.349609e-003
2.057707e+003,-7.272100e-003
2.059635e+003,-7.118244e-003
2.061564e+003,-7.126784e-003
2.063492e+003,-7.196499e-003
2.065421e+003,-7.193663e-003
2.067349e+003,-7.184179e-003
2.069278e+003,-7.147579e-003
2.071206e+003,-7.095166e-003
2.073135e+003,-7.016111e-003
2.075063e+003,-6.989017e-003
2.076992e+003,-7.023903e-003
2.078920e+003,-6.927095e-003
2.080849e+003,-6.845661e-003
2.082777e+003,-6.827917e-003
2.084706e+003,-6.826646e-003
2.086634e+003,-6.859849e-003
2.088563e+003,-6.828798e-003
2.090491e+003,-6.763200e-003
2.092420e+003,-6.668031e-003
2.094348e+003,-6.671784e-003
2.096277e+003,-6.627602e-003
2.098205e+003,-6.543827e-003
2.100134e+003,-6.580674e-003
2.102062e+003,-6.502439e-003
2.103991e+003,-6.346417e-003
2.105919e+003,-6.263731e-003
2.107848e+003,-6.279733e-003
2.109776e+003,-6.311509e-003
2.111705e+003,-6.264155e-003
2.113633e+003,-6.136013e-003
2.115562e+003,-6.142873e-003
2.117490e+003,-6.090927e-003
2.119419e+003,-6.077792e-003
2.121347e+003,-6.089685e-003
2.123276e+003,-5.977375e-003
2.125204e+003,-5.948615e-003
2.127133e+003,-5.945346e-003
2.129061e+003,-5.893049e-003
2.130990e+003,-5.842479e-003
2.132918e+003,-5.761887e-003
2.134847e+003,-5.784088e-003
2.136775e+003,-5.857190e-003
2.138704e+003,-5.817110e-003
2.140632e+003,-5.752994e-003
2.142561e+003,-5.765909e-003
2.144489e+003,-5.819954e-003
2.146418e+003,-5.845192e-003
2.148346e+003,-5.810669e-003
2.150275e+003,-5.732393e-003
2.152203e+003,-5.742301e-003
2.154132e+003,-5.694166e-003
2.156060e+003,-5.633989e-003
2.157989e+003,-5.689587e-003
2.159917e+003,-5.732230e-003
2.161846e+003,-5.755185e-003
2.163774e+003,-5.718463e-003
2.165703e+003,-5.721210e-003
2.167631e+003,-5.736939e-003
2.169560e+003,-5.687397e-003
2.171488e+003,-5.629083e-003
2.173417e+003,-5.672876e-003
2.175345e+003,-5.711759e-003
2.177274e+003,-5.681706e-003
2.179202e+003,-5.620121e-003
2.181131e+003,-5.652796e-003
2.183059e+003,-5.689980e-003
2.184988e+003,-5.694591e-003
2.186916e+003,-5.706527e-003
2.188845e+003,-5.695245e-003
2.190773e+003,-5.696063e-003
2.192702e+003,-5.639746e-003
2.194630e+003,-5.594412e-003
2.196559e+003,-5.645731e-003
2.198487e+003,-5.682066e-003
2.200416e+003,-5.686056e-003
2.202344e+003,-5.685336e-003
2.204273e+003,-5.621397e-003
2.206201e+003,-5.566248e-003
2.208130e+003,-5.581328e-003
2.210058e+003,-5.589963e-003
2.211987e+003,-5.576683e-003
2.213915e+003,-5.511975e-003
2.215844e+003,-5.528267e-003
2.217772e+003,-5.577043e-003
2.219701e+003,-5.559149e-003
2.221629e+003,-5.574197e-003
2.223558e+003,-5.603636e-003
2.225486e+003,-5.573968e-003
2.227415e+003,-5.558953e-003
2.229343e+003,-5.513447e-003
2.231272e+003,-5.463324e-003
2.233200e+003,-5.502520e-003
2.235129e+003,-5.521986e-003
2.237057e+003,-5.540307e-003
2.238986e+003,-5.573837e-003
2.240914e+003,-5.635167e-003
2.242843e+003,-5.636181e-003
2.244771e+003,-5.613580e-003
2.246700e+003,-5.714212e-003
2.248628e+003,-5.726017e-003
2.250557e+003,-5.601576e-003
2.252485e+003,-5.562977e-003
2.254414e+003,-5.647170e-003
2.256342e+003,-5.642002e-003
2.258271e+003,-5.679580e-003
2.260199e+003,-5.787718e-003
2.262128e+003,-5.863335e-003
2.264056e+003,-5.797330e-003
2.265985e+003,-5.657472e-003
2.267913e+003,-5.741549e-003
2.269842e+003,-5.886152e-003
2.271770e+003,-5.898377e-003
2.273699e+003,-5.902464e-003
2.275627e+003,-5.891121e-003
2.277556e+003,-5.910994e-003
2.279484e+003,-5.979205e-003
2.281413e+003,-5.969695e-003
2.283341e+003,-6.035772e-003
2.285270e+003,-6.073610e-003
2.287198e+003,-6.022571e-003
2.289127e+003,-5.973290e-003
2.291055e+003,-5.979107e-003
2.292984e+003,-5.966231e-003
2.294912e+003,-6.049104e-003
2.296841e+003,-6.126604e-003
2.298769e+003,-6.102036e-003
2.300698e+003,-6.027505e-003
2.302626e+003,-5.989891e-003
2.304555e+003,-6.040902e-003
2.306483e+003,-5.988715e-003
2.308412e+003,-5.839439e-003
2.310340e+003,-5.815606e-003
2.312269e+003,-5.864087e-003
2.314197e+003,-5.890108e-003
2.316125e+003,-5.830579e-003
2.318054e+003,-5.764732e-003
2.319983e+003,-5.699398e-003
2.321911e+003,-5.623490e-003
2.323840e+003,-5.540666e-003
2.325768e+003,-5.467348e-003
2.327697e+003,-5.391530e-003
2.329625e+003,-5.359524e-003
2.331553e+003,-5.380927e-003
2.333482e+003,-5.381156e-003
2.335411e+003,-5.341654e-003
2.337339e+003,-5.326435e-003
2.339268e+003,-5.315536e-003
2.341196e+003,-5.288532e-003
2.343125e+003,-5.310430e-003
2.345053e+003,-5.383087e-003
2.346981e+003,-5.444444e-003
2.348910e+003,-5.475070e-003
2.350839e+003,-5.317205e-003
2.352767e+003,-5.107546e-003
2.354696e+003,-5.013193e-003
2.356624e+003,-4.908138e-003
2.358552e+003,-4.858797e-003
2.360481e+003,-4.879078e-003
2.362409e+003,-4.943225e-003
2.364338e+003,-4.919933e-003
2.366267e+003,-4.893003e-003
2.368195e+003,-4.986105e-003
2.370124e+003,-4.944535e-003
2.372052e+003,-4.843593e-003
2.373980e+003,-4.916395e-003
2.375909e+003,-5.032353e-003
2.377838e+003,-4.956623e-003
2.379766e+003,-4.807713e-003
2.381695e+003,-4.787133e-003
2.383623e+003,-4.822589e-003
2.385552e+003,-4.733648e-003
2.387480e+003,-4.649047e-003
2.389408e+003,-4.601119e-003
2.391337e+003,-4.569513e-003
2.393266e+003,-4.560234e-003
2.395194e+003,-4.491276e-003
2.397123e+003,-4.488750e-003
2.399051e+003,-4.589676e-003
2.400979e+003,-4.661176e-003
2.402908e+003,-4.619478e-003
2.404836e+003,-4.502425e-003
2.406765e+003,-4.431621e-003
2.408694e+003,-4.435852e-003
2.410622e+003,-4.399576e-003
2.412551e+003,-4.352932e-003
2.414479e+003,-4.335677e-003
2.416407e+003,-4.322686e-003
2.418336e+003,-4.303888e-003
2.420264e+003,-4.224323e-003
2.422193e+003,-4.165255e-003
2.424122e+003,-4.172803e-003
2.426050e+003,-4.182320e-003
2.427979e+003,-4.138475e-003
2.429907e+003,-4.079165e-003
2.431835e+003,-3.904275e-003
2.433764e+003,-3.752342e-003
2.435692e+003,-3.710918e-003
2.437621e+003,-3.685555e-003
2.439550e+003,-3.587212e-003
2.441478e+003,-3.603084e-003
2.443406e+003,-3.618035e-003
2.445335e+003,-3.527926e-003
2.447263e+003,-3.461564e-003
2.449192e+003,-3.451867e-003
2.451121e+003,-3.345613e-003
2.453049e+003,-3.275047e-003
2.454978e+003,-3.234892e-003
2.456906e+003,-3.225092e-003
2.458834e+003,-3.154375e-003
2.460763e+003,-3.006029e-003
2.462691e+003,-2.984838e-003
2.464620e+003,-2.960914e-003
2.466549e+003,-2.867804e-003
2.468477e+003,-2.968746e-003
2.470406e+003,-2.989050e-003
2.472334e+003,-2.931031e-003
2.474262e+003,-2.794395e-003
2.476191e+003,-2.708001e-003
2.478119e+003,-2.711524e-003
2.480048e+003,-2.720118e-003
2.481977e+003,-2.693084e-003
2.483905e+003,-2.632589e-003
2.485833e+003,-2.655675e-003
2.487762e+003,-2.654193e-003
2.489690e+003,-2.554199e-003
2.491619e+003,-2.525080e-003
2.493547e+003,-2.449339e-003
2.495476e+003,-2.365051e-003
2.497405e+003,-2.381660e-003
2.499333e+003,-2.382220e-003
2.501261e+003,-2.266540e-003
2.503190e+003,-2.343696e-003
2.505118e+003,-2.485119e-003
2.507047e+003,-2.456555e-003
2.508975e+003,-2.371082e-003
2.510904e+003,-2.299830e-003
2.512833e+003,-2.217721e-003
2.514761e+003,-2.207568e-003
2.516689e+003,-2.244258e-003
2.518618e+003,-2.251345e-003
2.520546e+003,-2.207667e-003
2.522475e+003,-2.145554e-003
2.524403e+003,-2.174700e-003
2.526332e+003,-2.146577e-003
2.528260e+003,-2.068231e-003
2.530189e+003,-2.020083e-003
2.532117e+003,-1.966816e-003
2.534046e+003,-2.054777e-003
2.535974e+003,-2.059195e-003
2.537903e+003,-1.946563e-003
2.539831e+003,-1.919844e-003
2.541760e+003,-1.920768e-003
2.543688e+003,-1.959593e-003
2.545617e+003,-1.984627e-003
2.547545e+003,-1.858251e-003
2.549474e+003,-1.708175e-003
2.551402e+003,-1.704083e-003
2.553331e+003,-1.733422e-003
2.555259e+003,-1.753289e-003
2.557188e+003,-1.739924e-003
2.559116e+003,-1.718010e-003
2.561045e+003,-1.690254e-003
2.562973e+003,-1.533318e-003
2.564902e+003,-1.522950e-003
2.566830e+003,-1.544213e-003
2.568759e+003,-1.414803e-003
2.570687e+003,-1.466816e-003
2.572616e+003,-1.543619e-003
2.574544e+003,-1.527573e-003
2.576473e+003,-1.496469e-003
2.578401e+003,-1.483162e-003
2.580330e+003,-1.456480e-003
2.582258e+003,-1.372428e-003
2.584187e+003,-1.313037e-003
2.586115e+003,-1.298171e-003
2.588044e+003,-1.298369e-003
2.589972e+003,-1.261038e-003
2.591901e+003,-1.307553e-003
2.593829e+003,-1.254959e-003
2.595758e+003,-1.196246e-003
2.597686e+003,-1.181442e-003
2.599615e+003,-1.103220e-003
2.601543e+003,-1.086100e-003
2.603472e+003,-1.183689e-003
2.605400e+003,-1.129858e-003
2.607329e+003,-1.049081e-003
2.609257e+003,-1.025943e-003
2.611186e+003,-9.842240e-004
2.613114e+003,-1.024025e-003
2.615043e+003,-1.143572e-003
2.616971e+003,-1.042933e-003
2.618900e+003,-9.317892e-004
2.620828e+003,-9.513951e-004
2.622757e+003,-8.593420e-004
2.624685e+003,-7.512937e-004
2.626614e+003,-8.232297e-004
2.628542e+003,-9.562551e-004
2.630471e+003,-1.028686e-003
2.632399e+003,-1.017943e-003
2.634328e+003,-9.703059e-004
2.636256e+003,-9.481881e-004
2.638185e+003,-8.922109e-004
2.640113e+003,-8.214769e-004
2.642042e+003,-7.600589e-004
2.643970e+003,-6.886417e-004
2.645899e+003,-6.268741e-004
2.647827e+003,-5.764478e-004
2.649756e+003,-5.412054e-004
2.651684e+003,-5.868379e-004
2.653613e+003,-5.466656e-004
2.655541e+003,-4.835539e-004
2.657470e+003,-4.744521e-004
2.659398e+003,-4.020942e-004
2.661327e+003,-2.926075e-004
2.663255e+003,-2.677730e-004
2.665184e+003,-2.509841e-004
2.667112e+003,-2.199212e-004
2.669041e+003,-1.520255e-004
2.670969e+003,-1.511974e-004
2.672898e+003,-1.165830e-004
2.674826e+003,-2.776544e-005
2.676755e+003,6.491443e-005
2.678683e+003,1.118418e-004
2.680612e+003,1.337164e-004
2.682540e+003,2.220880e-004
2.684469e+003,2.747349e-004
2.686397e+003,3.441008e-004
2.688326e+003,4.003443e-004
2.690254e+003,4.731798e-004
2.692183e+003,5.265207e-004
2.694111e+003,5.710760e-004
2.696040e+003,6.928218e-004
2.697968e+003,8.024521e-004
2.699897e+003,8.347856e-004
2.701825e+003,8.064356e-004
2.703754e+003,8.414251e-004
2.705682e+003,9.304721e-004
2.707611e+003,9.817106e-004
2.709539e+003,1.074639e-003
2.711468e+003,1.098655e-003
2.713396e+003,1.087760e-003
2.715325e+003,1.091680e-003
2.717253e+003,1.118686e-003
2.719182e+003,1.124167e-003
2.721110e+003,1.191609e-003
2.723039e+003,1.315789e-003
2.724967e+003,1.406197e-003
2.726896e+003,1.442730e-003
2.728824e+003,1.429067e-003
2.730753e+003,1.457491e-003
2.732681e+003,1.556773e-003
2.734610e+003,1.663495e-003
2.736538e+003,1.728260e-003
2.738467e+003,1.720476e-003
2.740395e+003,1.857884e-003
2.742324e+003,1.967443e-003
2.744252e+003,1.984784e-003
2.746181e+003,1.980091e-003
2.748109e+003,2.126006e-003
2.750038e+003,2.246390e-003
2.751966e+003,2.295419e-003
2.753895e+003,2.493256e-003
2.755823e+003,2.539880e-003
2.757752e+003,2.548779e-003
2.759680e+003,2.687183e-003
2.761609e+003,2.891137e-003
2.763537e+003,3.090047e-003
2.765466e+003,3.231929e-003
2.767394e+003,3.517067e-003
2.769323e+003,3.890511e-003
2.771251e+003,4.174008e-003
2.773180e+003,4.516613e-003
2.775108e+003,4.944670e-003
2.777037e+003,5.330514e-003
2.778965e+003,5.725665e-003
2.780894e+003,6.283986e-003
2.782822e+003,6.822427e-003
2.784750e+003,7.355503e-003
2.786679e+003,8.015986e-003
2.788608e+003,8.619878e-003
2.790536e+003,9.167112e-003
2.792465e+003,9.805956e-003
2.794393e+003,1.040753e-002
2.796322e+003,1.097428e-002
2.798250e+003,1.160412e-002
2.800178e+003,1.220887e-002
2.802107e+003,1.278709e-002
2.804036e+003,1.324360e-002
2.805964e+003,1.365081e-002
2.807893e+003,1.397100e-002
2.809821e+003,1.413017e-002
2.811750e+003,1.434101e-002
2.813678e+003,1.446637e-002
2.815606e+003,1.443208e-002
2.817535e+003,1.442743e-002
2.819464e+003,1.438893e-002
2.821392e+003,1.426527e-002
2.823321e+003,1.406945e-002
2.825249e+003,1.375090e-002
2.827177e+003,1.349014e-002
2.829106e+003,1.322796e-002
2.831034e+003,1.278593e-002
2.832963e+003,1.243125e-002
2.834892e+003,1.212961e-002
2.836820e+003,1.158346e-002
2.838749e+003,1.113763e-002
2.840677e+003,1.067969e-002
2.842605e+003,1.010616e-002
2.844534e+003,9.578880e-003
2.846462e+003,9.161969e-003
2.848391e+003,8.777474e-003
2.850320e+003,8.422237e-003
2.852248e+003,8.126636e-003
2.854177e+003,7.795005e-003
2.856105e+003,7.469694e-003
2.858033e+003,7.278202e-003
2.859962e+003,7.226957e-003
2.861890e+003,7.151160e-003
2.863819e+003,7.044631e-003
2.865748e+003,7.015906e-003
2.867676e+003,6.974725e-003
2.869604e+003,6.980247e-003
2.871533e+003,7.044967e-003
2.873461e+003,7.132736e-003
2.875390e+003,7.178445e-003
2.877319e+003,7.224025e-003
2.879247e+003,7.442896e-003
2.881176e+003,7.670948e-003
2.883104e+003,7.705180e-003
2.885032e+003,7.584285e-003
2.886961e+003,7.615441e-003
2.888889e+003,7.558829e-003
2.890818e+003,7.441817e-003
2.892747e+003,7.365815e-003
2.894675e+003,7.346370e-003
2.896604e+003,7.376229e-003
2.898532e+003,7.326488e-003
2.900460e+003,7.231336e-003
2.902389e+003,7.186463e-003
2.904317e+003,7.268869e-003
2.906246e+003,7.287906e-003
2.908175e+003,7.131860e-003
2.910103e+003,7.109663e-003
2.912031e+003,7.163455e-003
2.913960e+003,7.175414e-003
2.915888e+003,7.201252e-003
2.917817e+003,7.477885e-003
2.919745e+003,7.654727e-003
2.921674e+003,7.687710e-003
2.923603e+003,7.677693e-003
2.925531e+003,7.700829e-003
2.927459e+003,7.852390e-003
2.929388e+003,8.042852e-003
2.931316e+003,8.108541e-003
2.933245e+003,8.137676e-003
2.935173e+003,8.264871e-003
2.937102e+003,8.273078e-003
2.939031e+003,8.229076e-003
2.940959e+003,8.225260e-003
2.942887e+003,8.047376e-003
2.944816e+003,7.826142e-003
2.946744e+003,7.675771e-003
2.948673e+003,7.512000e-003
2.950601e+003,7.175852e-003
2.952530e+003,6.729404e-003
2.954458e+003,6.271346e-003
2.956387e+003,5.897731e-003
2.958315e+003,5.416091e-003
2.960244e+003,4.831912e-003
2.962172e+003,4.348339e-003
2.964101e+003,3.946815e-003
2.966029e+003,3.506612e-003
2.967958e+003,2.965826e-003
2.969886e+003,2.415283e-003
2.971815e+003,1.925739e-003
2.973743e+003,1.578388e-003
2.975672e+003,1.301266e-003
2.977600e+003,1.135197e-003
2.979529e+003,9.117117e-004
2.981457e+003,5.643078e-004
2.983386e+003,2.157562e-004
2.985314e+003,-9.654186e-005
2.987243e+003,-2.542293e-004
2.989171e+003,-3.465101e-004
2.991100e+003,-4.419157e-004
2.993028e+003,-6.375278e-004
2.994957e+003,-8.585153e-004
2.996885e+003,-9.722234e-004
2.998814e+003,-9.810503e-004
3.000742e+003,-1.029050e-003
3.002671e+003,-1.131907e-003
3.004599e+003,-1.236920e-003
3.006528e+003,-1.290970e-003
3.008456e+003,-1.404630e-003
3.010385e+003,-1.489205e-003
3.012313e+003,-1.390990e-003
3.014242e+003,-1.422333e-003
3.016170e+003,-1.512583e-003
3.018099e+003,-1.618263e-003
3.020027e+003,-1.604860e-003
3.021956e+003,-1.696261e-003
3.023884e+003,-1.808858e-003
3.025813e+003,-1.855414e-003
3.027741e+003,-1.952336e-003
3.029670e+003,-1.855678e-003
3.031598e+003,-1.797178e-003
3.033527e+003,-1.914533e-003
3.035455e+003,-1.937855e-003
3.037384e+003,-1.873725e-003
3.039312e+003,-2.037001e-003
3.041241e+003,-2.214886e-003
3.043169e+003,-2.303027e-003
3.045098e+003,-2.284932e-003
3.047026e+003,-2.305862e-003
3.048955e+003,-2.377738e-003
3.050883e+003,-2.432042e-003
3.052812e+003,-2.460937e-003
3.054740e+003,-2.494805e-003
3.056669e+003,-2.548600e-003
3.058597e+003,-2.607526e-003
3.060526e+003,-2.683271e-003
3.062454e+003,-2.704346e-003
3.064383e+003,-2.683897e-003
3.066311e+003,-2.729305e-003
3.068240e+003,-2.870602e-003
3.070168e+003,-3.024226e-003
3.072097e+003,-3.128914e-003
3.074025e+003,-3.133980e-003
3.075954e+003,-3.013466e-003
3.077882e+003,-3.149901e-003
3.079811e+003,-3.325687e-003
3.081739e+003,-3.342456e-003
3.083668e+003,-3.313422e-003
3.085596e+003,-3.256269e-003
3.087525e+003,-3.310759e-003
3.089453e+003,-3.411071e-003
3.091382e+003,-3.410776e-003
3.093310e+003,-3.454431e-003
3.095239e+003,-3.515798e-003
3.097167e+003,-3.580344e-003
3.099096e+003,-3.623720e-003
3.101024e+003,-3.755463e-003
3.102953e+003,-3.749649e-003
3.104881e+003,-3.704446e-003
3.106810e+003,-3.750536e-003
3.108738e+003,-3.694130e-003
3.110667e+003,-3.759044e-003
3.112595e+003,-3.834194e-003
3.114524e+003,-3.780000e-003
3.116452e+003,-3.841715e-003
3.118381e+003,-3.862767e-003
3.120309e+003,-3.925061e-003
3.122238e+003,-3.986000e-003
3.124166e+003,-4.049032e-003
3.126095e+003,-4.179957e-003
3.128023e+003,-4.213921e-003
3.129952e+003,-4.122590e-003
3.131880e+003,-4.025035e-003
3.133809e+003,-4.013643e-003
3.135737e+003,-4.172705e-003
3.137666e+003,-4.206177e-003
3.139594e+003,-4.115927e-003
3.141523e+003,-4.103258e-003
3.143451e+003,-4.165813e-003
3.145380e+003,-4.242173e-003
3.147308e+003,-4.174903e-003
3.149237e+003,-4.229704e-003
3.151165e+003,-4.290240e-003
3.153094e+003,-4.278822e-003
3.155022e+003,-4.317076e-003
3.156951e+003,-4.410302e-003
3.158879e+003,-4.388358e-003
3.160808e+003,-4.168963e-003
3.162736e+003,-4.171917e-003
3.164665e+003,-4.300246e-003
3.166593e+003,-4.394656e-003
3.168522e+003,-4.355294e-003
3.170450e+003,-4.258776e-003
3.172379e+003,-4.228884e-003
3.174307e+003,-4.240368e-003
3.176236e+003,-4.201911e-003
3.178164e+003,-4.299951e-003
3.180093e+003,-4.282661e-003
3.182021e+003,-4.287188e-003
3.183950e+003,-4.348536e-003
3.185878e+003,-4.399445e-003
3.187807e+003,-4.333315e-003
3.189735e+003,-4.218121e-003
3.191664e+003,-4.267995e-003
3.193592e+003,-4.466089e-003
3.195521e+003,-4.454414e-003
3.197449e+003,-4.305069e-003
3.199378e+003,-4.211296e-003
3.201306e+003,-4.173623e-003
3.203235e+003,-4.233248e-003
3.205163e+003,-4.267634e-003
3.207092e+003,-4.205619e-003
3.209020e+003,-4.066233e-003
3.210948e+003,-4.002579e-003
3.212877e+003,-3.974049e-003
3.214806e+003,-3.984457e-003
3.216734e+003,-4.002875e-003
3.218663e+003,-4.065871e-003
3.220591e+003,-4.014267e-003
3.222520e+003,-3.830122e-003
3.224448e+003,-3.815079e-003
3.226376e+003,-3.707041e-003
3.228305e+003,-3.554678e-003
3.230234e+003,-3.523719e-003
3.232162e+003,-3.510704e-003
3.234091e+003,-3.463208e-003
3.236019e+003,-3.403740e-003
3.237948e+003,-3.336801e-003
3.239876e+003,-3.141941e-003
3.241804e+003,-2.959992e-003
3.243733e+003,-2.927444e-003
3.245662e+003,-2.894465e-003
3.247590e+003,-2.947816e-003
3.249519e+003,-2.841932e-003
3.251447e+003,-2.766082e-003
3.253375e+003,-2.798774e-003
3.255304e+003,-2.785605e-003
3.257232e+003,-2.575807e-003
3.259161e+003,-2.458400e-003
3.261090e+003,-2.492894e-003
3.263018e+003,-2.461299e-003
3.264947e+003,-2.469668e-003
3.266875e+003,-2.508608e-003
3.268803e+003,-2.412173e-003
3.270732e+003,-2.288591e-003
3.272660e+003,-2.210008e-003
3.274589e+003,-2.106186e-003
3.276518e+003,-2.042805e-003
3.278446e+003,-2.115781e-003
3.280375e+003,-2.196129e-003
3.282303e+003,-2.135861e-003
3.284231e+003,-2.119342e-003
3.286160e+003,-2.107274e-003
3.288088e+003,-2.059822e-003
3.290017e+003,-2.156731e-003
3.291946e+003,-2.320001e-003
3.293874e+003,-2.512759e-003
3.295802e+003,-2.500636e-003
3.297731e+003,-2.609436e-003
3.299659e+003,-2.771975e-003
3.301588e+003,-2.744747e-003
3.303516e+003,-2.816650e-003
3.305445e+003,-2.894334e-003
3.307374e+003,-3.018007e-003
3.309302e+003,-3.203976e-003
3.311230e+003,-3.343837e-003
3.313159e+003,-3.404760e-003
3.315087e+003,-3.444767e-003
3.317016e+003,-3.531870e-003
3.318944e+003,-3.751653e-003
3.320873e+003,-3.769095e-003
3.322802e+003,-3.892388e-003
3.324730e+003,-4.235873e-003
3.326658e+003,-4.310548e-003
3.328587e+003,-4.188424e-003
3.330515e+003,-4.164959e-003
3.332444e+003,-4.312090e-003
3.334372e+003,-4.441394e-003
3.336301e+003,-4.437918e-003
3.338229e+003,-4.492030e-003
3.340158e+003,-4.593152e-003
3.342086e+003,-4.723094e-003
3.344015e+003,-4.689825e-003
3.345943e+003,-4.702216e-003
3.347872e+003,-4.939261e-003
3.349800e+003,-4.969202e-003
3.351729e+003,-4.907188e-003
3.353657e+003,-5.169597e-003
3.355586e+003,-5.445098e-003
3.357514e+003,-5.573215e-003
3.359443e+003,-5.547405e-003
3.361371e+003,-5.394901e-003
3.363300e+003,-5.470260e-003
3.365229e+003,-5.669998e-003
3.367157e+003,-5.739228e-003
3.369085e+003,-5.876444e-003
3.371014e+003,-6.010904e-003
3.372942e+003,-6.022702e-003
3.374871e+003,-6.111968e-003
3.376799e+003,-6.164826e-003
3.378728e+003,-6.332637e-003
3.380656e+003,-6.439860e-003
3.382585e+003,-6.531456e-003
3.384513e+003,-6.746171e-003
3.386442e+003,-6.853880e-003
3.388370e+003,-6.774977e-003
3.390299e+003,-6.798333e-003
3.392227e+003,-6.921388e-003
3.394156e+003,-7.022892e-003
3.396084e+003,-7.102989e-003
3.398013e+003,-7.167134e-003
3.399941e+003,-7.045028e-003
3.401870e+003,-6.986897e-003
3.403798e+003,-7.034857e-003
3.405727e+003,-7.094253e-003
3.407655e+003,-7.219930e-003
3.409584e+003,-7.279301e-003
3.411512e+003,-7.254993e-003
3.413441e+003,-7.334265e-003
3.415369e+003,-7.408539e-003
3.417298e+003,-7.448505e-003
3.419226e+003,-7.454596e-003
3.421155e+003,-7.500550e-003
3.423083e+003,-7.527709e-003
3.425012e+003,-7.499117e-003
3.426940e+003,-7.570660e-003
3.428869e+003,-7.545620e-003
3.430797e+003,-7.565971e-003
3.432726e+003,-7.645350e-003
3.434654e+003,-7.835792e-003
3.436583e+003,-7.904255e-003
3.438511e+003,-7.775847e-003
3.440440e+003,-7.754952e-003
3.442368e+003,-7.745708e-003
3.444297e+003,-7.709383e-003
3.446225e+003,-7.683081e-003
3.448154e+003,-7.881934e-003
3.450082e+003,-7.965907e-003
3.452011e+003,-7.984417e-003
3.453939e+003,-8.126812e-003
3.455868e+003,-8.322245e-003
3.457796e+003,-8.229335e-003
3.459725e+003,-7.989166e-003
3.461653e+003,-7.869960e-003
3.463582e+003,-7.910957e-003
3.465510e+003,-8.038479e-003
3.467439e+003,-8.188530e-003
3.469367e+003,-8.268705e-003
3.471296e+003,-8.315581e-003
3.473224e+003,-8.311062e-003
3.475153e+003,-8.417669e-003
3.477081e+003,-8.367944e-003
3.479010e+003,-8.304399e-003
3.480938e+003,-8.243802e-003
3.482867e+003,-8.224198e-003
3.484795e+003,-8.168728e-003
3.486724e+003,-8.221369e-003
3.488652e+003,-8.260220e-003
3.490581e+003,-8.317596e-003
3.492509e+003,-8.449451e-003
3.494438e+003,-8.350458e-003
3.496366e+003,-8.186254e-003
3.498295e+003,-8.369276e-003
3.500223e+003,-8.595851e-003
3.502152e+003,-8.620117e-003
3.504080e+003,-8.610112e-003
3.506009e+003,-8.487761e-003
3.507937e+003,-8.356211e-003
3.509866e+003,-8.357901e-003
3.511794e+003,-8.453188e-003
3.513723e+003,-8.595949e-003
3.515651e+003,-8.694723e-003
3.517580e+003,-8.596858e-003
3.519508e+003,-8.617973e-003
3.521437e+003,-8.579966e-003
3.523365e+003,-8.683356e-003
3.525294e+003,-8.719178e-003
3.527222e+003,-8.594032e-003
3.529151e+003,-8.531527e-003
3.531079e+003,-8.571390e-003
3.533008e+003,-8.589647e-003
3.534936e+003,-8.587178e-003
3.536865e+003,-8.610827e-003
3.538793e+003,-8.513203e-003
3.540722e+003,-8.308006e-003
3.542650e+003,-8.310964e-003
3.544579e+003,-8.449840e-003
3.546507e+003,-8.540331e-003
3.548436e+003,-8.605531e-003
3.550364e+003,-8.659711e-003
3.552293e+003,-8.526718e-003
3.554221e+003,-8.485552e-003
3.556150e+003,-8.520058e-003
3.558078e+003,-8.443601e-003
3.560007e+003,-8.574021e-003
3.561935e+003,-8.506964e-003
3.563864e+003,-8.617973e-003
3.565792e+003,-8.666434e-003
3.567721e+003,-8.585196e-003
3.569649e+003,-8.598450e-003
3.571578e+003,-8.698426e-003
3.573506e+003,-8.740124e-003
3.575435e+003,-8.556510e-003
3.577363e+003,-8.342852e-003
3.579292e+003,-8.327250e-003
3.581220e+003,-8.536628e-003
3.583149e+003,-8.807957e-003
3.585077e+003,-8.836464e-003
3.587006e+003,-8.855684e-003
3.588934e+003,-8.793248e-003
3.590863e+003,-8.675529e-003
3.592791e+003,-8.746684e-003
3.594720e+003,-8.752821e-003
3.596648e+003,-8.567134e-003
3.598577e+003,-8.478014e-003
3.600505e+003,-8.476648e-003
3.602434e+003,-8.536725e-003
3.604362e+003,-8.464918e-003
3.606291e+003,-8.627588e-003
3.608219e+003,-8.790975e-003
3.610148e+003,-8.657957e-003
3.612076e+003,-8.650455e-003
3.614005e+003,-8.655749e-003
3.615933e+003,-8.629699e-003
3.617862e+003,-8.561286e-003
3.619790e+003,-8.522235e-003
3.621719e+003,-8.605597e-003
3.623647e+003,-8.667214e-003
3.625576e+003,-8.633045e-003
3.627504e+003,-8.612906e-003
3.629433e+003,-8.496469e-003
3.631361e+003,-8.501440e-003
3.633290e+003,-8.735253e-003
3.635218e+003,-8.678485e-003
3.637146e+003,-8.524086e-003
3.639075e+003,-8.467225e-003
3.641004e+003,-8.331020e-003
3.642932e+003,-8.292924e-003
3.644861e+003,-8.461831e-003
3.646789e+003,-8.777825e-003
3.648718e+003,-9.136644e-003
3.650646e+003,-9.016714e-003
3.652574e+003,-8.746327e-003
3.654503e+003,-8.798411e-003
3.656432e+003,-8.855456e-003
3.658360e+003,-8.855813e-003
3.660289e+003,-8.869027e-003
3.662217e+003,-8.795489e-003
3.664146e+003,-8.669196e-003
3.666074e+003,-8.796950e-003
3.668002e+003,-9.045077e-003
3.669931e+003,-9.291830e-003
3.671860e+003,-9.288230e-003
3.673788e+003,-9.543628e-003
3.675717e+003,-9.585862e-003
3.677645e+003,-9.158349e-003
3.679573e+003,-9.017427e-003
3.681502e+003,-8.836886e-003
3.683430e+003,-8.759154e-003
3.685359e+003,-8.783313e-003
3.687288e+003,-8.882142e-003
3.689216e+003,-8.936741e-003
3.691145e+003,-8.838087e-003
3.693073e+003,-8.551085e-003
3.695001e+003,-8.725413e-003
3.696930e+003,-8.827957e-003
3.698858e+003,-8.861494e-003
3.700787e+003,-8.882369e-003
3.702716e+003,-8.710280e-003
3.704644e+003,-8.579251e-003
3.706573e+003,-8.727427e-003
3.708501e+003,-8.919700e-003
3.710429e+003,-8.963325e-003
3.712358e+003,-8.962351e-003
3.714286e+003,-8.734149e-003
3.716215e+003,-8.714567e-003
3.718144e+003,-8.716190e-003
3.720072e+003,-8.663057e-003
3.722000e+003,-8.605856e-003
3.723929e+003,-8.558427e-003
3.725857e+003,-8.513982e-003
3.727786e+003,-8.319383e-003
3.729714e+003,-8.619110e-003
3.731643e+003,-8.987116e-003
3.733572e+003,-9.064904e-003
3.735500e+003,-9.005874e-003
3.737428e+003,-8.792793e-003
3.739357e+003,-8.568044e-003
3.741285e+003,-8.406295e-003
3.743214e+003,-8.686539e-003
3.745142e+003,-8.534224e-003
3.747071e+003,-8.497022e-003
3.749000e+003,-8.532209e-003
3.750928e+003,-8.433202e-003
3.752856e+003,-8.218151e-003
3.754785e+003,-8.099462e-003
3.756713e+003,-7.847247e-003
3.758642e+003,-7.751762e-003
3.760570e+003,-7.893908e-003
3.762499e+003,-7.873343e-003
3.764427e+003,-7.770932e-003
3.766356e+003,-7.685848e-003
3.768284e+003,-7.739654e-003
3.770213e+003,-7.719766e-003
3.772141e+003,-7.567860e-003
3.774070e+003,-7.580233e-003
3.775998e+003,-7.567144e-003
3.777927e+003,-7.746099e-003
3.779855e+003,-8.044073e-003
3.781784e+003,-7.904482e-003
3.783712e+003,-7.697925e-003
3.785641e+003,-7.493776e-003
3.787569e+003,-7.434630e-003
3.789498e+003,-7.411536e-003
3.791426e+003,-7.558059e-003
3.793355e+003,-7.801265e-003
3.795283e+003,-7.786131e-003
3.797212e+003,-7.737604e-003
3.799140e+003,-8.055913e-003
3.801069e+003,-8.098128e-003
3.802997e+003,-7.803055e-003
3.804926e+003,-8.054937e-003
3.806854e+003,-8.132243e-003
3.808783e+003,-7.887401e-003
3.810711e+003,-7.780728e-003
3.812640e+003,-7.768263e-003
3.814568e+003,-7.823231e-003
3.816497e+003,-7.511753e-003
3.818425e+003,-7.550960e-003
3.820354e+003,-7.578410e-003
3.822282e+003,-7.424011e-003
3.824211e+003,-7.412252e-003
3.826139e+003,-7.543959e-003
3.828068e+003,-7.548290e-003
3.829996e+003,-7.622560e-003
3.831925e+003,-7.588829e-003
3.833853e+003,-7.514325e-003
3.835782e+003,-7.565516e-003
3.837710e+003,-7.534092e-003
3.839639e+003,-7.547574e-003
3.841567e+003,-7.470783e-003
3.843496e+003,-7.421047e-003
3.845424e+003,-7.406618e-003
3.847353e+003,-7.423458e-003
3.849281e+003,-7.388832e-003
3.851210e+003,-7.521880e-003
3.853138e+003,-7.781542e-003
3.855067e+003,-7.538293e-003
3.856995e+003,-7.282950e-003
3.858924e+003,-7.189785e-003
3.860852e+003,-7.264540e-003
3.862781e+003,-7.286013e-003
3.864709e+003,-7.251180e-003
3.866638e+003,-7.297253e-003
3.868566e+003,-7.540475e-003
3.870495e+003,-7.352346e-003
3.872423e+003,-7.304747e-003
3.874352e+003,-7.304812e-003
3.876280e+003,-7.332636e-003
3.878209e+003,-7.508985e-003
3.880137e+003,-7.413263e-003
3.882066e+003,-7.263269e-003
3.883994e+003,-7.477948e-003
3.885923e+003,-7.262846e-003
3.887851e+003,-7.135487e-003
3.889780e+003,-7.232899e-003
3.891708e+003,-7.350880e-003
3.893637e+003,-7.398018e-003
3.895565e+003,-7.191414e-003
3.897494e+003,-6.982267e-003
3.899422e+003,-6.944769e-003
3.901351e+003,-7.202723e-003
3.903279e+003,-7.085224e-003
3.905208e+003,-6.966388e-003
3.907136e+003,-7.104130e-003
3.909065e+003,-7.137279e-003
3.910993e+003,-7.171338e-003
3.912922e+003,-7.214162e-003
3.914850e+003,-7.187895e-003
3.916779e+003,-7.252321e-003
3.918707e+003,-7.156053e-003
3.920636e+003,-7.175119e-003
3.922564e+003,-7.339119e-003
3.924493e+003,-7.091287e-003
3.926421e+003,-6.806063e-003
3.928350e+003,-6.923900e-003
3.930278e+003,-6.951356e-003
3.932207e+003,-6.809130e-003
3.934135e+003,-6.622707e-003
3.936064e+003,-6.533611e-003
3.937992e+003,-6.543370e-003
3.939921e+003,-6.813011e-003
3.941849e+003,-7.064654e-003
3.943778e+003,-7.005254e-003
3.945706e+003,-7.032966e-003
3.947635e+003,-6.936519e-003
3.949563e+003,-6.707576e-003
3.951492e+003,-6.674002e-003
3.953420e+003,-6.705390e-003
3.955349e+003,-6.713188e-003
3.957277e+003,-6.909779e-003
3.959206e+003,-7.260206e-003
3.961134e+003,-7.156574e-003
3.963063e+003,-6.746432e-003
3.964991e+003,-6.818948e-003
3.966920e+003,-7.005547e-003
3.968848e+003,-6.828244e-003
3.970777e+003,-6.781599e-003
3.972705e+003,-6.987484e-003
3.974634e+003,-6.934693e-003
3.976562e+003,-6.813142e-003
3.978491e+003,-6.783197e-003
3.980419e+003,-6.740169e-003
3.982348e+003,-6.832712e-003
3.984276e+003,-6.826613e-003
3.986205e+003,-6.698571e-003
3.988133e+003,-6.473844e-003
3.990062e+003,-6.541673e-003
3.991990e+003,-6.834669e-003
3.993919e+003,-6.796474e-003
3.995847e+003,-6.771780e-003
3.997776e+003,-6.863926e-003
3.999704e+003,-6.706271e-003
4.001633e+003,0.000000e+000
