3.991989e+002,-2.252177e-002
4.011274e+002,-1.932703e-002
4.030559e+002,-1.060560e-002
4.049844e+002,-8.410390e-003
4.069129e+002,-1.006278e-002
4.088414e+002,-1.375490e-002
4.107699e+002,-1.760150e-002
4.126984e+002,-1.460331e-002
4.146269e+002,-1.120745e-002
4.165554e+002,-1.168266e-002
4.184839e+002,-1.372681e-002
4.204124e+002,-7.131380e-003
4.223409e+002,-5.908739e-003
4.242694e+002,-9.081031e-003
4.261979e+002,-8.576457e-003
4.281264e+002,-8.009139e-003
4.300549e+002,-4.337252e-003
4.319834e+002,-3.356175e-004
4.339119e+002,1.696496e-005
4.358404e+002,-1.842316e-003
4.377689e+002,-2.648693e-003
4.396974e+002,-6.112902e-004
4.416259e+002,-2.859345e-003
4.435544e+002,-4.688809e-003
4.454829e+002,-7.780891e-003
4.474114e+002,-7.830683e-003
4.493399e+002,-6.113732e-003
4.512684e+002,-5.109478e-003
4.531969e+002,-5.431715e-003
4.551254e+002,-5.765877e-003
4.570539e+002,-3.517507e-003
4.589824e+002,-1.715139e-003
4.609109e+002,-1.176221e-003
4.628394e+002,-4.689909e-004
4.647679e+002,-4.903454e-003
4.666964e+002,-9.623586e-003
4.686249e+002,-9.164610e-003
4.705533e+002,-1.057149e-002
4.724819e+002,-1.032540e-002
4.744103e+002,-8.453772e-003
4.763389e+002,-9.035374e-003
4.782673e+002,-6.747052e-003
4.801959e+002,-4.263598e-003
4.821243e+002,-2.590596e-003
4.840529e+002,-2.564180e-003
4.859813e+002,-3.762953e-003
4.879099e+002,-5.898639e-003
4.898383e+002,-6.991234e-003
4.917668e+002,-6.259975e-003
4.936953e+002,-4.547020e-003
4.956238e+002,-4.662586e-003
4.975523e+002,-4.668322e-003
4.994808e+002,-4.666093e-003
5.014093e+002,-5.394606e-003
5.033378e+002,-5.472518e-003
5.052663e+002,-4.078574e-003
5.071948e+002,-5.115209e-003
5.091233e+002,-6.252463e-003
5.110518e+002,-6.785383e-003
5.129803e+002,-6.277970e-003
5.149088e+002,-7.385281e-003
5.168373e+002,-8.633564e-003
5.187658e+002,-8.251572e-003
5.206943e+002,-7.911412e-003
5.226228e+002,-8.253816e-003
5.245513e+002,-9.173499e-003
5.264798e+002,-9.074477e-003
5.284083e+002,-8.096372e-003
5.303368e+002,-7.576717e-003
5.322653e+002,-7.719603e-003
5.341938e+002,-7.934740e-003
5.361223e+002,-8.986694e-003
5.380508e+002,-9.413435e-003
5.399792e+002,-7.648801e-003
5.419078e+002,-6.665062e-003
5.438363e+002,-6.336817e-003
5.457648e+002,-5.518355e-003
5.476932e+002,-5.355989e-003
5.496218e+002,-6.705945e-003
5.515503e+002,-7.376941e-003
5.534788e+002,-7.506705e-003
5.554072e+002,-8.710962e-003
5.573358e+002,-8.384455e-003
5.592643e+002,-6.984126e-003
5.611927e+002,-7.812167e-003
5.631212e+002,-9.567485e-003
5.650497e+002,-9.334509e-003
5.669783e+002,-8.330110e-003
5.689067e+002,-7.918115e-003
5.708352e+002,-9.447770e-003
5.727637e+002,-9.195753e-003
5.746923e+002,-8.263406e-003
5.766207e+002,-5.389469e-003
5.785492e+002,-3.357548e-003
5.804777e+002,-8.342202e-003
5.824063e+002,-9.995923e-003
5.843347e+002,-1.050296e-002
5.862632e+002,-1.205098e-002
5.881917e+002,-1.183436e-002
5.901202e+002,-1.036940e-002
5.920487e+002,-1.007787e-002
5.939772e+002,-8.353155e-003
5.959057e+002,-7.428962e-003
5.978342e+002,-7.721947e-003
5.997627e+002,-7.477590e-003
6.016912e+002,-7.085126e-003
6.036197e+002,-7.428832e-003
6.055482e+002,-6.146826e-003
6.074767e+002,-4.778809e-003
6.094052e+002,-3.446969e-003
6.113337e+002,-2.479222e-003
6.132622e+002,-2.635191e-003
6.151907e+002,-3.852750e-003
6.171192e+002,-4.453693e-003
6.190477e+002,-4.365561e-003
6.209762e+002,-4.441361e-003
6.229047e+002,-6.412665e-003
6.248332e+002,-8.055099e-003
6.267617e+002,-8.821041e-003
6.286902e+002,-8.472229e-003
6.306187e+002,-8.018573e-003
6.325472e+002,-7.456876e-003
6.344756e+002,-7.554640e-003
6.364042e+002,-7.328368e-003
6.383326e+002,-6.666596e-003
6.402612e+002,-6.375706e-003
6.421896e+002,-6.354711e-003
6.441182e+002,-5.894880e-003
6.460466e+002,-5.798965e-003
6.479752e+002,-5.499347e-003
6.499036e+002,-6.286657e-003
6.518322e+002,-6.646724e-003
6.537606e+002,-5.868697e-003
6.556891e+002,-5.748449e-003
6.576177e+002,-5.921192e-003
6.595461e+002,-5.867258e-003
6.614746e+002,-5.990709e-003
6.634031e+002,-5.746356e-003
6.653317e+002,-5.242343e-003
6.672601e+002,-4.499867e-003
6.691886e+002,-4.703396e-003
6.711171e+002,-5.125917e-003
6.730457e+002,-5.056425e-003
6.749741e+002,-5.460542e-003
6.769026e+002,-5.738279e-003
6.788311e+002,-5.236549e-003
6.807596e+002,-5.155845e-003
6.826881e+002,-4.817445e-003
6.846166e+002,-4.879832e-003
6.865451e+002,-5.064711e-003
6.884736e+002,-5.457172e-003
6.904021e+002,-5.750574e-003
6.923306e+002,-6.068219e-003
6.942591e+002,-6.158619e-003
6.961876e+002,-6.558873e-003
6.981161e+002,-6.558090e-003
7.000446e+002,-6.702323e-003
7.019731e+002,-6.742158e-003
7.039016e+002,-6.547482e-003
7.058301e+002,-6.745519e-003
7.077585e+002,-7.181214e-003
7.096871e+002,-7.426356e-003
7.116156e+002,-7.440460e-003
7.135441e+002,-7.252353e-003
7.154725e+002,-7.367071e-003
7.174011e+002,-7.646197e-003
7.193296e+002,-7.727546e-003
7.212581e+002,-7.232802e-003
7.231865e+002,-6.639121e-003
7.251151e+002,-6.485563e-003
7.270436e+002,-6.779609e-003
7.289720e+002,-6.206736e-003
7.309005e+002,-6.049071e-003
7.328290e+002,-6.309158e-003
7.347576e+002,-6.631518e-003
7.366860e+002,-6.048973e-003
7.386145e+002,-6.100892e-003
7.405430e+002,-5.941359e-003
7.424716e+002,-4.898310e-003
7.444000e+002,-4.628460e-003
7.463285e+002,-4.310876e-003
7.482570e+002,-3.528419e-003
7.501855e+002,-3.083647e-003
7.521140e+002,-2.704576e-003
7.540425e+002,-2.310113e-003
7.559710e+002,-1.606940e-003
7.578995e+002,-1.196081e-003
7.598280e+002,-1.300319e-003
7.617565e+002,-1.258858e-003
7.636850e+002,-1.078730e-003
7.656135e+002,-5.977572e-004
7.675420e+002,6.597488e-005
7.694705e+002,-2.139269e-004
7.713990e+002,-5.718482e-004
7.733275e+002,-3.772659e-004
7.752560e+002,-9.700564e-005
7.771844e+002,-4.187941e-005
7.791130e+002,-1.048897e-004
7.810415e+002,5.142707e-005
7.829700e+002,3.923848e-004
7.848984e+002,6.608972e-004
7.868270e+002,1.482670e-004
7.887555e+002,-9.047428e-004
7.906840e+002,-1.423720e-003
7.926124e+002,-1.522224e-003
7.945410e+002,-1.734148e-003
7.964695e+002,-1.898269e-003
7.983979e+002,-2.030306e-003
8.003264e+002,-2.260475e-003
8.022549e+002,-2.462156e-003
8.041835e+002,-2.785144e-003
8.061119e+002,-3.088417e-003
8.080404e+002,-3.272416e-003
8.099689e+002,-3.501928e-003
8.118975e+002,-3.832388e-003
8.138259e+002,-3.844310e-003
8.157545e+002,-3.463372e-003
8.176830e+002,-3.313521e-003
8.196115e+002,-3.120196e-003
8.215399e+002,-3.460743e-003
8.234684e+002,-3.987543e-003
8.253970e+002,-3.548565e-003
8.273254e+002,-3.191675e-003
8.292539e+002,-3.338478e-003
8.311824e+002,-3.212923e-003
8.331110e+002,-2.944459e-003
8.350394e+002,-2.908618e-003
8.369679e+002,-3.017414e-003
8.388964e+002,-2.755645e-003
8.408250e+002,-2.523894e-003
8.427534e+002,-2.523630e-003
8.446819e+002,-2.652151e-003
8.466104e+002,-2.451218e-003
8.485389e+002,-2.076211e-003
8.504674e+002,-2.234369e-003
8.523959e+002,-2.586743e-003
8.543244e+002,-2.679352e-003
8.562529e+002,-2.267990e-003
8.581814e+002,-1.531964e-003
8.601099e+002,-1.394062e-003
8.620384e+002,-1.839478e-003
8.639669e+002,-2.353319e-003
8.658954e+002,-2.389898e-003
8.678239e+002,-2.226128e-003
8.697524e+002,-2.234468e-003
8.716809e+002,-2.318221e-003
8.736094e+002,-2.303489e-003
8.755378e+002,-2.100580e-003
8.774664e+002,-2.155281e-003
8.793949e+002,-2.050918e-003
8.813234e+002,-2.032615e-003
8.832518e+002,-2.000558e-003
8.851804e+002,-2.017312e-003
8.871089e+002,-2.122639e-003
8.890374e+002,-1.779986e-003
8.909658e+002,-1.418237e-003
8.928943e+002,-1.767677e-003
8.948229e+002,-1.798465e-003
8.967513e+002,-1.663056e-003
8.986798e+002,-1.605422e-003
9.006083e+002,-1.689692e-003
9.025369e+002,-1.765928e-003
9.044653e+002,-2.195107e-003
9.063938e+002,-2.574984e-003
9.083223e+002,-2.717220e-003
9.102509e+002,-2.724102e-003
9.121793e+002,-2.751167e-003
9.141078e+002,-3.221277e-003
9.160364e+002,-3.567823e-003
9.179648e+002,-3.687756e-003
9.198933e+002,-3.971882e-003
9.218218e+002,-4.076080e-003
9.237504e+002,-4.604790e-003
9.256788e+002,-4.868331e-003
9.276073e+002,-4.936084e-003
9.295358e+002,-4.901652e-003
9.314644e+002,-5.232424e-003
9.333928e+002,-5.618650e-003
9.353213e+002,-5.963061e-003
9.372498e+002,-6.123892e-003
9.391783e+002,-6.328294e-003
9.411068e+002,-6.129414e-003
9.430353e+002,-6.153981e-003
9.449637e+002,-5.998062e-003
9.468923e+002,-6.247662e-003
9.488208e+002,-6.560635e-003
9.507493e+002,-6.539029e-003
9.526777e+002,-6.317942e-003
9.546063e+002,-6.194193e-003
9.565348e+002,-6.224080e-003
9.584633e+002,-6.276108e-003
9.603917e+002,-6.321142e-003
9.623203e+002,-6.236492e-003
9.642488e+002,-6.283587e-003
9.661772e+002,-6.090502e-003
9.681057e+002,-5.857778e-003
9.700343e+002,-5.772972e-003
9.719628e+002,-5.494602e-003
9.738912e+002,-5.684420e-003
9.758197e+002,-5.528071e-003
9.777483e+002,-5.186491e-003
9.796768e+002,-5.305192e-003
9.816052e+002,-5.363287e-003
9.835337e+002,-5.202795e-003
9.854623e+002,-5.229870e-003
9.873907e+002,-5.184232e-003
9.893192e+002,-4.994391e-003
9.912477e+002,-4.909941e-003
9.931763e+002,-4.760096e-003
9.951047e+002,-4.456415e-003
9.970332e+002,-4.566693e-003
9.989617e+002,-4.489767e-003
1.000890e+003,-4.330690e-003
1.002819e+003,-4.211394e-003
1.004747e+003,-4.080905e-003
1.006676e+003,-4.037903e-003
1.008604e+003,-3.769785e-003
1.010533e+003,-3.488025e-003
1.012461e+003,-3.393417e-003
1.014390e+003,-3.356562e-003
1.016318e+003,-3.132467e-003
1.018247e+003,-2.713928e-003
1.020175e+003,-2.573436e-003
1.022104e+003,-2.436951e-003
1.024032e+003,-2.346333e-003
1.025961e+003,-2.199953e-003
1.027889e+003,-1.879333e-003
1.029818e+003,-1.527705e-003
1.031746e+003,-1.242305e-003
1.033675e+003,-1.174569e-003
1.035603e+003,-1.084513e-003
1.037532e+003,-6.974745e-004
1.039460e+003,-3.120106e-004
1.041389e+003,-5.678803e-005
1.043317e+003,-3.054851e-005
1.045246e+003,-9.405735e-005
1.047174e+003,5.301450e-007
1.049103e+003,6.653825e-005
1.051031e+003,-6.301637e-005
1.052960e+003,-2.660842e-004
1.054888e+003,-5.283321e-004
1.056817e+003,-6.599591e-004
1.058745e+003,-5.697304e-004
1.060674e+003,-5.492138e-004
1.062602e+003,-5.699290e-004
1.064531e+003,-5.148627e-004
1.066459e+003,-3.785901e-004
1.068388e+003,-1.705405e-004
1.070316e+003,-1.655392e-004
1.072245e+003,-3.056533e-004
1.074173e+003,-9.054589e-005
1.076102e+003,2.011702e-004
1.078030e+003,3.771960e-004
1.079959e+003,7.059309e-004
1.081887e+003,7.088846e-004
1.083816e+003,7.030435e-004
1.085744e+003,7.923277e-004
1.087673e+003,9.410315e-004
1.089601e+003,1.076001e-003
1.091530e+003,1.287906e-003
1.093458e+003,1.488211e-003
1.095387e+003,1.372424e-003
1.097315e+003,1.369433e-003
1.099244e+003,1.443395e-003
1.101172e+003,1.433854e-003
1.103101e+003,1.557472e-003
1.105029e+003,1.690072e-003
1.106958e+003,1.774203e-003
1.108886e+003,1.591158e-003
1.110815e+003,1.505301e-003
1.112743e+003,1.566650e-003
1.114672e+003,1.640812e-003
1.116600e+003,1.693298e-003
1.118529e+003,1.742332e-003
1.120457e+003,1.695361e-003
1.122386e+003,1.662996e-003
1.124314e+003,1.686180e-003
1.126243e+003,1.590726e-003
1.128171e+003,1.488411e-003
1.130100e+003,1.468595e-003
1.132028e+003,1.097659e-003
1.133957e+003,5.707774e-004
1.135885e+003,2.414486e-004
1.137814e+003,-9.882759e-005
1.139742e+003,-3.482316e-004
1.141671e+003,-8.703868e-004
1.143599e+003,-1.650909e-003
1.145528e+003,-2.144895e-003
1.147456e+003,-2.491873e-003
1.149385e+003,-2.817078e-003
1.151313e+003,-3.200819e-003
1.153242e+003,-3.649316e-003
1.155170e+003,-3.931562e-003
1.157099e+003,-4.086386e-003
1.159027e+003,-4.364380e-003
1.160956e+003,-4.581480e-003
1.162884e+003,-4.539512e-003
1.164813e+003,-4.505442e-003
1.166741e+003,-4.549414e-003
1.168670e+003,-4.679631e-003
1.170598e+003,-4.659406e-003
1.172526e+003,-4.576726e-003
1.174455e+003,-4.425783e-003
1.176384e+003,-4.281644e-003
1.178312e+003,-4.530953e-003
1.180240e+003,-4.679369e-003
1.182169e+003,-4.491406e-003
1.184098e+003,-4.503769e-003
1.186026e+003,-4.654981e-003
1.187954e+003,-4.676812e-003
1.189883e+003,-4.651146e-003
1.191812e+003,-4.749183e-003
1.193740e+003,-4.835959e-003
1.195668e+003,-4.631575e-003
1.197597e+003,-4.603971e-003
1.199526e+003,-4.731714e-003
1.201454e+003,-4.683073e-003
1.203382e+003,-4.429062e-003
1.205311e+003,-4.440181e-003
1.207240e+003,-4.425553e-003
1.209168e+003,-4.245914e-003
1.211096e+003,-4.006618e-003
1.213025e+003,-3.993551e-003
1.214953e+003,-3.962722e-003
1.216882e+003,-3.974969e-003
1.218810e+003,-3.967122e-003
1.220739e+003,-3.961901e-003
1.222667e+003,-3.822798e-003
1.224596e+003,-3.633347e-003
1.226524e+003,-3.578044e-003
1.228453e+003,-3.549551e-003
1.230381e+003,-3.567560e-003
1.232310e+003,-3.515272e-003
1.234238e+003,-3.514713e-003
1.236167e+003,-3.487564e-003
1.238095e+003,-3.540612e-003
1.240024e+003,-3.782300e-003
1.241952e+003,-4.112645e-003
1.243881e+003,-4.420633e-003
1.245809e+003,-4.613413e-003
1.247738e+003,-4.655079e-003
1.249666e+003,-4.769207e-003
1.251595e+003,-5.104926e-003
1.253523e+003,-5.385345e-003
1.255452e+003,-5.573510e-003
1.257380e+003,-5.758389e-003
1.259309e+003,-5.914852e-003
1.261237e+003,-6.091940e-003
1.263166e+003,-6.195630e-003
1.265094e+003,-6.107982e-003
1.267023e+003,-6.073937e-003
1.268951e+003,-6.022244e-003
1.270880e+003,-6.052339e-003
1.272808e+003,-6.320946e-003
1.274737e+003,-6.461994e-003
1.276665e+003,-6.530869e-003
1.278594e+003,-6.613831e-003
1.280522e+003,-6.784143e-003
1.282451e+003,-6.825797e-003
1.284379e+003,-6.811935e-003
1.286308e+003,-6.799148e-003
1.288236e+003,-6.834767e-003
1.290165e+003,-6.904920e-003
1.292093e+003,-7.086104e-003
1.294022e+003,-7.150414e-003
1.295950e+003,-7.002254e-003
1.297879e+003,-6.989212e-003
1.299807e+003,-7.091450e-003
1.301736e+003,-7.093927e-003
1.303664e+003,-7.253070e-003
1.305593e+003,-7.322015e-003
1.307521e+003,-7.249160e-003
1.309450e+003,-7.354822e-003
1.311378e+003,-7.543503e-003
1.313307e+003,-7.623179e-003
1.315235e+003,-7.512501e-003
1.317164e+003,-7.366908e-003
1.319092e+003,-7.281939e-003
1.321021e+003,-7.283830e-003
1.322949e+003,-7.233160e-003
1.324878e+003,-7.059666e-003
1.326806e+003,-6.987582e-003
1.328735e+003,-6.828505e-003
1.330663e+003,-6.603747e-003
1.332592e+003,-6.524439e-003
1.334520e+003,-6.413482e-003
1.336449e+003,-6.342629e-003
1.338377e+003,-6.218527e-003
1.340306e+003,-6.105074e-003
1.342234e+003,-6.084588e-003
1.344163e+003,-6.046653e-003
1.346091e+003,-6.178611e-003
1.348020e+003,-6.258048e-003
1.349948e+003,-6.198635e-003
1.351877e+003,-6.157705e-003
1.353805e+003,-6.077204e-003
1.355734e+003,-6.155908e-003
1.357662e+003,-6.215261e-003
1.359591e+003,-6.184328e-003
1.361519e+003,-6.285742e-003
1.363448e+003,-6.443093e-003
1.365376e+003,-6.692209e-003
1.367305e+003,-7.034987e-003
1.369233e+003,-7.226480e-003
1.371162e+003,-7.400787e-003
1.373090e+003,-7.630602e-003
1.375019e+003,-7.762828e-003
1.376947e+003,-8.003870e-003
1.378876e+003,-8.165606e-003
1.380804e+003,-8.270525e-003
1.382733e+003,-8.315288e-003
1.384661e+003,-8.321529e-003
1.386590e+003,-8.300498e-003
1.388518e+003,-8.529968e-003
1.390447e+003,-8.792371e-003
1.392375e+003,-8.803411e-003
1.394304e+003,-8.756783e-003
1.396232e+003,-8.826074e-003
1.398161e+003,-8.989095e-003
1.400089e+003,-9.230398e-003
1.402018e+003,-9.390641e-003
1.403946e+003,-9.323191e-003
1.405875e+003,-9.349102e-003
1.407803e+003,-9.405589e-003
1.409732e+003,-9.410161e-003
1.411660e+003,-9.388566e-003
1.413589e+003,-9.292608e-003
1.415517e+003,-9.038489e-003
1.417446e+003,-8.581753e-003
1.419374e+003,-8.200007e-003
1.421303e+003,-8.340479e-003
1.423231e+003,-8.116796e-003
1.425160e+003,-7.731614e-003
1.427088e+003,-7.420591e-003
1.429017e+003,-6.872894e-003
1.430945e+003,-6.414363e-003
1.432874e+003,-5.912727e-003
1.434802e+003,-5.220409e-003
1.436731e+003,-4.684122e-003
1.438659e+003,-4.634951e-003
1.440588e+003,-4.365397e-003
1.442516e+003,-3.909037e-003
1.444445e+003,-3.584714e-003
1.446373e+003,-3.306385e-003
1.448302e+003,-3.016131e-003
1.450230e+003,-2.847429e-003
1.452159e+003,-2.602585e-003
1.454087e+003,-2.359811e-003
1.456016e+003,-1.593768e-003
1.457944e+003,-1.512219e-003
1.459873e+003,-2.226325e-003
1.461801e+003,-2.697167e-003
1.463730e+003,-2.837850e-003
1.465658e+003,-3.118025e-003
1.467587e+003,-3.661998e-003
1.469515e+003,-3.961113e-003
1.471444e+003,-3.891764e-003
1.473372e+003,-4.156296e-003
1.475301e+003,-4.643737e-003
1.477229e+003,-5.333341e-003
1.479158e+003,-5.989075e-003
1.481086e+003,-6.418803e-003
1.483015e+003,-6.903518e-003
1.484943e+003,-7.171143e-003
1.486872e+003,-7.233616e-003
1.488800e+003,-7.204287e-003
1.490729e+003,-7.229054e-003
1.492657e+003,-7.502927e-003
1.494586e+003,-7.559427e-003
1.496514e+003,-7.474593e-003
1.498443e+003,-7.620932e-003
1.500371e+003,-7.924557e-003
1.502300e+003,-8.136210e-003
1.504228e+003,-7.709448e-003
1.506157e+003,-6.806683e-003
1.508085e+003,-7.148067e-003
1.510014e+003,-7.801492e-003
1.511942e+003,-7.917366e-003
1.513871e+003,-7.974332e-003
1.515799e+003,-7.779296e-003
1.517728e+003,-7.579614e-003
1.519656e+003,-7.356060e-003
1.521585e+003,-7.159638e-003
1.523513e+003,-7.515107e-003
1.525442e+003,-7.529142e-003
1.527370e+003,-7.613867e-003
1.529299e+003,-7.756579e-003
1.531227e+003,-7.644210e-003
1.533156e+003,-7.207057e-003
1.535084e+003,-7.212076e-003
1.537013e+003,-7.078411e-003
1.538941e+003,-6.164173e-003
1.540870e+003,-5.823845e-003
1.542798e+003,-6.290184e-003
1.544727e+003,-6.460003e-003
1.546655e+003,-6.713971e-003
1.548584e+003,-6.763722e-003
1.550512e+003,-6.517617e-003
1.552441e+003,-6.290543e-003
1.554369e+003,-5.930279e-003
1.556298e+003,-5.299432e-003
1.558226e+003,-3.940559e-003
1.560155e+003,-3.908281e-003
1.562083e+003,-4.816462e-003
1.564012e+003,-4.963175e-003
1.565940e+003,-4.863712e-003
1.567869e+003,-4.612626e-003
1.569797e+003,-4.477798e-003
1.571726e+003,-4.841038e-003
1.573654e+003,-4.936444e-003
1.575583e+003,-4.466909e-003
1.577511e+003,-4.503409e-003
1.579440e+003,-4.821050e-003
1.581368e+003,-4.870264e-003
1.583297e+003,-4.775335e-003
1.585225e+003,-4.548299e-003
1.587154e+003,-4.444674e-003
1.589082e+003,-4.407743e-003
1.591010e+003,-4.503146e-003
1.592939e+003,-4.534593e-003
1.594868e+003,-4.493210e-003
1.596796e+003,-4.494227e-003
1.598724e+003,-4.576529e-003
1.600653e+003,-4.638295e-003
1.602582e+003,-4.792737e-003
1.604510e+003,-4.883829e-003
1.606438e+003,-4.976278e-003
1.608367e+003,-5.056065e-003
1.610296e+003,-5.219263e-003
1.612224e+003,-5.453017e-003
1.614152e+003,-5.598926e-003
1.616081e+003,-5.292885e-003
1.618010e+003,-5.571514e-003
1.619938e+003,-6.094946e-003
1.621866e+003,-6.124121e-003
1.623795e+003,-6.328653e-003
1.625724e+003,-6.706108e-003
1.627652e+003,-6.793081e-003
1.629580e+003,-6.916660e-003
1.631509e+003,-7.036226e-003
1.633438e+003,-6.816371e-003
1.635366e+003,-6.550909e-003
1.637294e+003,-7.142983e-003
1.639223e+003,-7.556984e-003
1.641151e+003,-7.663874e-003
1.643080e+003,-7.632978e-003
1.645008e+003,-7.271285e-003
1.646937e+003,-7.132455e-003
1.648865e+003,-7.510515e-003
1.650794e+003,-7.211457e-003
1.652722e+003,-6.099487e-003
1.654651e+003,-6.566347e-003
1.656579e+003,-7.162539e-003
1.658508e+003,-7.186167e-003
1.660436e+003,-6.960258e-003
1.662365e+003,-6.542587e-003
1.664293e+003,-6.391149e-003
1.666222e+003,-6.355494e-003
1.668150e+003,-5.839798e-003
1.670079e+003,-5.607921e-003
1.672007e+003,-5.951229e-003
1.673936e+003,-5.872685e-003
1.675864e+003,-5.868075e-003
1.677793e+003,-6.372212e-003
1.679721e+003,-6.498816e-003
1.681650e+003,-6.442766e-003
1.683578e+003,-6.074035e-003
1.685507e+003,-6.467772e-003
1.687435e+003,-7.074107e-003
1.689364e+003,-7.358438e-003
1.691292e+003,-7.555258e-003
1.693221e+003,-7.443913e-003
1.695149e+003,-6.898169e-003
1.697078e+003,-7.074694e-003
1.699006e+003,-6.893375e-003
1.700935e+003,-6.830723e-003
1.702863e+003,-7.613346e-003
1.704792e+003,-7.669440e-003
1.706720e+003,-7.775391e-003
1.708649e+003,-7.983083e-003
1.710577e+003,-8.114259e-003
1.712506e+003,-8.189993e-003
1.714434e+003,-7.979115e-003
1.716363e+003,-7.599965e-003
1.718291e+003,-7.746815e-003
1.720220e+003,-8.501798e-003
1.722148e+003,-8.678062e-003
1.724077e+003,-8.580226e-003
1.726005e+003,-8.741456e-003
1.727934e+003,-8.808509e-003
1.729862e+003,-8.700796e-003
1.731791e+003,-8.451887e-003
1.733719e+003,-7.893322e-003
1.735648e+003,-8.229985e-003
1.737576e+003,-8.639736e-003
1.739505e+003,-8.544262e-003
1.741433e+003,-8.555081e-003
1.743362e+003,-8.554626e-003
1.745290e+003,-8.388160e-003
1.747219e+003,-8.214248e-003
1.749147e+003,-8.054580e-003
1.751076e+003,-7.880893e-003
1.753004e+003,-8.116633e-003
1.754933e+003,-8.165378e-003
1.756861e+003,-8.153835e-003
1.758790e+003,-8.224002e-003
1.760718e+003,-7.996486e-003
1.762647e+003,-7.975406e-003
1.764575e+003,-8.179490e-003
1.766504e+003,-8.182937e-003
1.768432e+003,-8.092242e-003
1.770361e+003,-7.943589e-003
1.772289e+003,-7.667325e-003
1.774218e+003,-7.899862e-003
1.776146e+003,-8.123137e-003
1.778075e+003,-8.202966e-003
1.780003e+003,-8.162257e-003
1.781932e+003,-8.199194e-003
1.783860e+003,-8.173800e-003
1.785789e+003,-8.033340e-003
1.787717e+003,-8.075233e-003
1.789646e+003,-8.068565e-003
1.791574e+003,-7.843439e-003
1.793503e+003,-7.865404e-003
1.795431e+003,-8.095754e-003
1.797360e+003,-8.126226e-003
1.799288e+003,-8.029177e-003
1.801217e+003,-8.007871e-003
1.803145e+003,-8.186092e-003
1.805074e+003,-8.284407e-003
1.807002e+003,-8.254823e-003
1.808931e+003,-8.188432e-003
1.810859e+003,-8.181409e-003
1.812788e+003,-8.290551e-003
1.814716e+003,-8.417538e-003
1.816645e+003,-8.363881e-003
1.818573e+003,-8.358811e-003
1.820502e+003,-8.464788e-003
1.822430e+003,-8.451010e-003
1.824359e+003,-8.330208e-003
1.826287e+003,-8.364629e-003
1.828216e+003,-8.351173e-003
1.830144e+003,-8.347793e-003
1.832073e+003,-8.628270e-003
1.834001e+003,-8.729830e-003
1.835930e+003,-8.676535e-003
1.837858e+003,-8.652728e-003
1.839787e+003,-8.587568e-003
1.841715e+003,-8.466446e-003
1.843644e+003,-8.145608e-003
1.845572e+003,-8.294647e-003
1.847501e+003,-8.545790e-003
1.849429e+003,-8.551182e-003
1.851358e+003,-8.592603e-003
1.853286e+003,-8.524671e-003
1.855215e+003,-8.498094e-003
1.857143e+003,-8.539617e-003
1.859072e+003,-8.568044e-003
1.861000e+003,-8.617518e-003
1.862929e+003,-8.612386e-003
1.864857e+003,-8.498777e-003
1.866786e+003,-8.347077e-003
1.868714e+003,-8.228197e-003
1.870643e+003,-8.347727e-003
1.872571e+003,-8.460044e-003
1.874500e+003,-8.455723e-003
1.876428e+003,-8.393750e-003
1.878357e+003,-8.403240e-003
1.880285e+003,-8.481165e-003
1.882214e+003,-8.466413e-003
1.884142e+003,-8.359006e-003
1.886071e+003,-8.273711e-003
1.887999e+003,-8.309079e-003
1.889928e+003,-8.358746e-003
1.891856e+003,-8.420302e-003
1.893785e+003,-8.391247e-003
1.895713e+003,-8.353936e-003
1.897642e+003,-8.336286e-003
1.899570e+003,-8.371032e-003
1.901499e+003,-8.324455e-003
1.903427e+003,-8.265714e-003
1.905356e+003,-8.257619e-003
1.907284e+003,-8.299133e-003
1.909213e+003,-8.290420e-003
1.911141e+003,-8.345452e-003
1.913070e+003,-8.369114e-003
1.914998e+003,-8.389005e-003
1.916927e+003,-8.257912e-003
1.918855e+003,-8.272671e-003
1.920784e+003,-8.484675e-003
1.922712e+003,-8.448216e-003
1.924641e+003,-8.336513e-003
1.926569e+003,-8.360663e-003
1.928498e+003,-8.502708e-003
1.930426e+003,-8.615862e-003
1.932355e+003,-8.555796e-003
1.934283e+003,-8.545334e-003
1.936212e+003,-8.627328e-003
1.938140e+003,-8.622001e-003
1.940069e+003,-8.631388e-003
1.941997e+003,-8.569245e-003
1.943926e+003,-8.562814e-003
1.945854e+003,-8.630608e-003
1.947783e+003,-8.711416e-003
1.949711e+003,-8.716743e-003
1.951640e+003,-8.641588e-003
1.953568e+003,-8.642204e-003
1.955497e+003,-8.726323e-003
1.957425e+003,-8.857015e-003
1.959354e+003,-8.795294e-003
1.961282e+003,-8.671989e-003
1.963211e+003,-8.720152e-003
1.965139e+003,-8.725673e-003
1.967068e+003,-8.761946e-003
1.968996e+003,-8.801561e-003
1.970925e+003,-8.802080e-003
1.972853e+003,-8.819127e-003
1.974782e+003,-8.852047e-003
1.976710e+003,-8.741586e-003
1.978639e+003,-8.655392e-003
1.980567e+003,-8.743469e-003
1.982496e+003,-8.811204e-003
1.984424e+003,-8.779091e-003
1.986353e+003,-8.716061e-003
1.988281e+003,-8.641165e-003
1.990210e+003,-8.593317e-003
1.992138e+003,-8.573501e-003
1.994067e+003,-8.626061e-003
1.995995e+003,-8.568336e-003
1.997924e+003,-8.487404e-003
1.999852e+003,-8.541371e-003
2.001781e+003,-8.578894e-003
2.003709e+003,-8.505957e-003
2.005638e+003,-8.445129e-003
2.007566e+003,-8.540818e-003
2.009495e+003,-8.636390e-003
2.011423e+003,-8.661368e-003
2.013352e+003,-8.626353e-003
2.015280e+003,-8.576392e-003
2.017208e+003,-8.595591e-003
2.019137e+003,-8.609592e-003
2.021066e+003,-8.597768e-003
2.022994e+003,-8.629796e-003
2.024922e+003,-8.769901e-003
2.026851e+003,-8.755549e-003
2.028780e+003,-8.565899e-003
2.030708e+003,-8.473107e-003
2.032636e+003,-8.590426e-003
2.034565e+003,-8.664616e-003
2.036494e+003,-8.653702e-003
2.038422e+003,-8.598028e-003
2.040350e+003,-8.627815e-003
2.042279e+003,-8.705019e-003
2.044208e+003,-8.661010e-003
2.046136e+003,-8.570382e-003
2.048064e+003,-8.677315e-003
2.049993e+003,-8.803964e-003
2.051921e+003,-8.802372e-003
2.053850e+003,-8.768733e-003
2.055778e+003,-8.682479e-003
2.057707e+003,-8.603160e-003
2.059635e+003,-8.745807e-003
2.061564e+003,-8.850814e-003
2.063492e+003,-8.789969e-003
2.065421e+003,-8.738014e-003
2.067349e+003,-8.722231e-003
2.069278e+003,-8.689689e-003
2.071206e+003,-8.647759e-003
2.073135e+003,-8.698881e-003
2.075063e+003,-8.800651e-003
2.076992e+003,-8.842016e-003
2.078920e+003,-8.803086e-003
2.080849e+003,-8.689884e-003
2.082777e+003,-8.593675e-003
2.084706e+003,-8.550013e-003
2.086634e+003,-8.511772e-003
2.088563e+003,-8.518498e-003
2.090491e+003,-8.486039e-003
2.092420e+003,-8.464268e-003
2.094348e+003,-8.484577e-003
2.096277e+003,-8.521423e-003
2.098205e+003,-8.571130e-003
2.100134e+003,-8.498581e-003
2.102062e+003,-8.460921e-003
2.103991e+003,-8.510408e-003
2.105919e+003,-8.527271e-003
2.107848e+003,-8.513007e-003
2.109776e+003,-8.445389e-003
2.111705e+003,-8.318051e-003
2.113633e+003,-8.365181e-003
2.115562e+003,-8.314410e-003
2.117490e+003,-8.289315e-003
2.119419e+003,-8.350523e-003
2.121347e+003,-8.300791e-003
2.123276e+003,-8.290030e-003
2.125204e+003,-8.352701e-003
2.127133e+003,-8.402330e-003
2.129061e+003,-8.289120e-003
2.130990e+003,-8.224035e-003
2.132918e+003,-8.221402e-003
2.134847e+003,-8.284342e-003
2.136775e+003,-8.352310e-003
2.138704e+003,-8.341519e-003
2.140632e+003,-8.347533e-003
2.142561e+003,-8.372040e-003
2.144489e+003,-8.286878e-003
2.146418e+003,-8.293834e-003
2.148346e+003,-8.356113e-003
2.150275e+003,-8.405125e-003
2.152203e+003,-8.401095e-003
2.154132e+003,-8.406652e-003
2.156060e+003,-8.401517e-003
2.157989e+003,-8.442529e-003
2.159917e+003,-8.533964e-003
2.161846e+003,-8.514827e-003
2.163774e+003,-8.479703e-003
2.165703e+003,-8.469403e-003
2.167631e+003,-8.499393e-003
2.169560e+003,-8.472295e-003
2.171488e+003,-8.459589e-003
2.173417e+003,-8.519538e-003
2.175345e+003,-8.511903e-003
2.177274e+003,-8.538447e-003
2.179202e+003,-8.435282e-003
2.181131e+003,-8.310250e-003
2.183059e+003,-8.364531e-003
2.184988e+003,-8.465276e-003
2.186916e+003,-8.462579e-003
2.188845e+003,-8.370642e-003
2.190773e+003,-8.433852e-003
2.192702e+003,-8.410811e-003
2.194630e+003,-8.387835e-003
2.196559e+003,-8.446331e-003
2.198487e+003,-8.468395e-003
2.200416e+003,-8.396285e-003
2.202344e+003,-8.436549e-003
2.204273e+003,-8.440774e-003
2.206201e+003,-8.431415e-003
2.208130e+003,-8.341877e-003
2.210058e+003,-8.298775e-003
2.211987e+003,-8.339309e-003
2.213915e+003,-8.280376e-003
2.215844e+003,-8.218572e-003
2.217772e+003,-8.177507e-003
2.219701e+003,-8.207778e-003
2.221629e+003,-8.215094e-003
2.223558e+003,-8.179686e-003
2.225486e+003,-8.109055e-003
2.227415e+003,-8.109121e-003
2.229343e+003,-8.108340e-003
2.231272e+003,-8.098844e-003
2.233200e+003,-8.107852e-003
2.235129e+003,-8.146713e-003
2.237057e+003,-8.131462e-003
2.238986e+003,-8.098909e-003
2.240914e+003,-8.107300e-003
2.242843e+003,-8.116828e-003
2.244771e+003,-8.102876e-003
2.246700e+003,-8.120438e-003
2.248628e+003,-8.118064e-003
2.250557e+003,-8.118226e-003
2.252485e+003,-8.111950e-003
2.254414e+003,-8.103429e-003
2.256342e+003,-8.092242e-003
2.258271e+003,-8.089152e-003
2.260199e+003,-8.113641e-003
2.262128e+003,-8.168305e-003
2.264056e+003,-8.223027e-003
2.265985e+003,-8.208461e-003
2.267913e+003,-8.225108e-003
2.269842e+003,-8.219581e-003
2.271770e+003,-8.225011e-003
2.273699e+003,-8.321562e-003
2.275627e+003,-8.360436e-003
2.277556e+003,-8.377987e-003
2.279484e+003,-8.472100e-003
2.281413e+003,-8.449840e-003
2.283341e+003,-8.457575e-003
2.285270e+003,-8.541014e-003
2.287198e+003,-8.486851e-003
2.289127e+003,-8.474472e-003
2.291055e+003,-8.599457e-003
2.292984e+003,-8.622846e-003
2.294912e+003,-8.585683e-003
2.296841e+003,-8.535134e-003
2.298769e+003,-8.521423e-003
2.300698e+003,-8.545887e-003
2.302626e+003,-8.572657e-003
2.304555e+003,-8.593415e-003
2.306483e+003,-8.558687e-003
2.308412e+003,-8.464918e-003
2.310340e+003,-8.434210e-003
2.312269e+003,-8.399274e-003
2.314197e+003,-8.444869e-003
2.316125e+003,-8.476031e-003
2.318054e+003,-8.335344e-003
2.319983e+003,-8.170711e-003
2.321911e+003,-8.067687e-003
2.323840e+003,-7.999966e-003
2.325768e+003,-7.904645e-003
2.327697e+003,-7.674747e-003
2.329625e+003,-7.558450e-003
2.331553e+003,-7.668887e-003
2.333482e+003,-7.668952e-003
2.335411e+003,-7.559622e-003
2.337339e+003,-7.554184e-003
2.339268e+003,-7.618849e-003
2.341196e+003,-7.632327e-003
2.343125e+003,-7.683503e-003
2.345053e+003,-7.799897e-003
2.346981e+003,-8.059816e-003
2.348910e+003,-8.245492e-003
2.350839e+003,-8.104958e-003
2.352767e+003,-7.880339e-003
2.354696e+003,-7.735032e-003
2.356624e+003,-7.585866e-003
2.358552e+003,-7.397431e-003
2.360481e+003,-7.261836e-003
2.362409e+003,-7.180660e-003
2.364338e+003,-7.224818e-003
2.366267e+003,-7.265289e-003
2.368195e+003,-7.355050e-003
2.370124e+003,-7.503611e-003
2.372052e+003,-7.756579e-003
2.373980e+003,-8.058514e-003
2.375909e+003,-8.083038e-003
2.377838e+003,-8.069215e-003
2.379766e+003,-8.185441e-003
2.381695e+003,-8.316848e-003
2.383623e+003,-8.338594e-003
2.385552e+003,-8.381562e-003
2.387480e+003,-8.390174e-003
2.389408e+003,-8.397227e-003
2.391337e+003,-8.352245e-003
2.393266e+003,-8.325039e-003
2.395194e+003,-8.350360e-003
2.397123e+003,-8.360209e-003
2.399051e+003,-8.385462e-003
2.400979e+003,-8.425923e-003
2.402908e+003,-8.390532e-003
2.404836e+003,-8.379222e-003
2.406765e+003,-8.414191e-003
2.408694e+003,-8.445974e-003
2.410622e+003,-8.442724e-003
2.412551e+003,-8.478078e-003
2.414479e+003,-8.376525e-003
2.416407e+003,-8.363979e-003
2.418336e+003,-8.408505e-003
2.420264e+003,-8.311777e-003
2.422193e+003,-8.177117e-003
2.424122e+003,-8.201341e-003
2.426050e+003,-8.273939e-003
2.427979e+003,-8.285609e-003
2.429907e+003,-8.271891e-003
2.431835e+003,-8.199910e-003
2.433764e+003,-8.046091e-003
2.435692e+003,-8.040170e-003
2.437621e+003,-8.083493e-003
2.439550e+003,-8.028363e-003
2.441478e+003,-7.932951e-003
2.443406e+003,-7.999445e-003
2.445335e+003,-8.088632e-003
2.447263e+003,-8.075883e-003
2.449192e+003,-7.934382e-003
2.451121e+003,-7.879884e-003
2.453049e+003,-7.904937e-003
2.454978e+003,-7.928330e-003
2.456906e+003,-7.983896e-003
2.458834e+003,-7.993590e-003
2.460763e+003,-8.005496e-003
2.462691e+003,-7.954683e-003
2.464620e+003,-7.917041e-003
2.466549e+003,-7.943069e-003
2.468477e+003,-7.922637e-003
2.470406e+003,-7.924426e-003
2.472334e+003,-7.917594e-003
2.474262e+003,-7.899114e-003
2.476191e+003,-7.864363e-003
2.478119e+003,-7.933308e-003
2.480048e+003,-7.979765e-003
2.481977e+003,-7.943947e-003
2.483905e+003,-7.976511e-003
2.485833e+003,-7.949119e-003
2.487762e+003,-7.859156e-003
2.489690e+003,-7.845327e-003
2.491619e+003,-7.828015e-003
2.493547e+003,-7.856911e-003
2.495476e+003,-7.922735e-003
2.497405e+003,-7.940434e-003
2.499333e+003,-7.893452e-003
2.501261e+003,-7.909427e-003
2.503190e+003,-7.888767e-003
2.505118e+003,-7.787791e-003
2.507047e+003,-7.784146e-003
2.508975e+003,-7.878908e-003
2.510904e+003,-7.815421e-003
2.512833e+003,-7.795374e-003
2.514761e+003,-7.924785e-003
2.516689e+003,-7.943752e-003
2.518618e+003,-7.947396e-003
2.520546e+003,-7.942223e-003
2.522475e+003,-7.883430e-003
2.524403e+003,-7.899016e-003
2.526332e+003,-7.859482e-003
2.528260e+003,-7.810084e-003
2.530189e+003,-7.887205e-003
2.532117e+003,-7.941442e-003
2.534046e+003,-7.915122e-003
2.535974e+003,-7.920555e-003
2.537903e+003,-7.923516e-003
2.539831e+003,-7.891077e-003
2.541760e+003,-7.848776e-003
2.543688e+003,-7.781282e-003
2.545617e+003,-7.694278e-003
2.547545e+003,-7.701082e-003
2.549474e+003,-7.727676e-003
2.551402e+003,-7.704305e-003
2.553331e+003,-7.728001e-003
2.555259e+003,-7.747823e-003
2.557188e+003,-7.636494e-003
2.559116e+003,-7.526179e-003
2.561045e+003,-7.475017e-003
2.562973e+003,-7.436258e-003
2.564902e+003,-7.389744e-003
2.566830e+003,-7.407660e-003
2.568759e+003,-7.442935e-003
2.570687e+003,-7.461989e-003
2.572616e+003,-7.539693e-003
2.574544e+003,-7.562422e-003
2.576473e+003,-7.381111e-003
2.578401e+003,-7.381111e-003
2.580330e+003,-7.455964e-003
2.582258e+003,-7.402415e-003
2.584187e+003,-7.333418e-003
2.586115e+003,-7.287446e-003
2.588044e+003,-7.380427e-003
2.589972e+003,-7.466353e-003
2.591901e+003,-7.432610e-003
2.593829e+003,-7.387203e-003
2.595758e+003,-7.340846e-003
2.597686e+003,-7.324719e-003
2.599615e+003,-7.344136e-003
2.601543e+003,-7.400656e-003
2.603472e+003,-7.361598e-003
2.605400e+003,-7.342279e-003
2.607329e+003,-7.358405e-003
2.609257e+003,-7.263041e-003
2.611186e+003,-7.256329e-003
2.613114e+003,-7.283830e-003
2.615043e+003,-7.205265e-003
2.616971e+003,-7.175315e-003
2.618900e+003,-7.210707e-003
2.620828e+003,-7.143439e-003
2.622757e+003,-7.121601e-003
2.624685e+003,-7.139919e-003
2.626614e+003,-7.122807e-003
2.628542e+003,-7.138811e-003
2.630471e+003,-7.115734e-003
2.632399e+003,-7.029999e-003
2.634328e+003,-6.986245e-003
2.636256e+003,-6.956443e-003
2.638185e+003,-6.894027e-003
2.640113e+003,-6.793016e-003
2.642042e+003,-6.732208e-003
2.643970e+003,-6.704183e-003
2.645899e+003,-6.631779e-003
2.647827e+003,-6.549375e-003
2.649756e+003,-6.587201e-003
2.651684e+003,-6.626623e-003
2.653613e+003,-6.558905e-003
2.655541e+003,-6.440220e-003
2.657470e+003,-6.436564e-003
2.659398e+003,-6.463496e-003
2.661327e+003,-6.404993e-003
2.663255e+003,-6.296716e-003
2.665184e+003,-6.186582e-003
2.667112e+003,-6.188019e-003
2.669041e+003,-6.115692e-003
2.670969e+003,-6.089228e-003
2.672898e+003,-6.038027e-003
2.674826e+003,-5.916911e-003
2.676755e+003,-5.948582e-003
2.678683e+003,-5.955674e-003
2.680612e+003,-5.886479e-003
2.682540e+003,-5.798605e-003
2.684469e+003,-5.666139e-003
2.686397e+003,-5.553784e-003
2.688326e+003,-5.500524e-003
2.690254e+003,-5.409005e-003
2.692183e+003,-5.398010e-003
2.694111e+003,-5.308466e-003
2.696040e+003,-5.239626e-003
2.697968e+003,-5.204040e-003
2.699897e+003,-5.115634e-003
2.701825e+003,-5.040443e-003
2.703754e+003,-4.996127e-003
2.705682e+003,-5.010376e-003
2.707611e+003,-5.058521e-003
2.709539e+003,-4.966057e-003
2.711468e+003,-4.872165e-003
2.713396e+003,-4.798799e-003
2.715325e+003,-4.765602e-003
2.717253e+003,-4.693824e-003
2.719182e+003,-4.582366e-003
2.721110e+003,-4.499572e-003
2.723039e+003,-4.380224e-003
2.724967e+003,-4.150093e-003
2.726896e+003,-4.143168e-003
2.728824e+003,-4.204569e-003
2.730753e+003,-4.072830e-003
2.732681e+003,-3.980222e-003
2.734610e+003,-3.971948e-003
2.736538e+003,-3.926177e-003
2.738467e+003,-3.790872e-003
2.740395e+003,-3.690023e-003
2.742324e+003,-3.613106e-003
2.744252e+003,-3.549420e-003
2.746181e+003,-3.405417e-003
2.748109e+003,-3.290503e-003
2.750038e+003,-3.227229e-003
2.751966e+003,-3.149177e-003
2.753895e+003,-2.916912e-003
2.755823e+003,-2.703984e-003
2.757752e+003,-2.637924e-003
2.759680e+003,-2.580814e-003
2.761609e+003,-2.330712e-003
2.763537e+003,-1.899853e-003
2.765466e+003,-1.562933e-003
2.767394e+003,-1.405357e-003
2.769323e+003,-1.064021e-003
2.771251e+003,-6.192311e-004
2.773180e+003,-1.507337e-004
2.775108e+003,3.802138e-004
2.777037e+003,9.408987e-004
2.778965e+003,1.576061e-003
2.780894e+003,2.344620e-003
2.782822e+003,3.103162e-003
2.784750e+003,3.818905e-003
2.786679e+003,4.486414e-003
2.788608e+003,5.161455e-003
2.790536e+003,5.942102e-003
2.792465e+003,6.805328e-003
2.794393e+003,7.656144e-003
2.796322e+003,8.418555e-003
2.798250e+003,9.209720e-003
2.800178e+003,9.857812e-003
2.802107e+003,1.036969e-002
2.804036e+003,1.093266e-002
2.805964e+003,1.143223e-002
2.807893e+003,1.166579e-002
2.809821e+003,1.172655e-002
2.811750e+003,1.180124e-002
2.813678e+003,1.182211e-002
2.815606e+003,1.173863e-002
2.817535e+003,1.156747e-002
2.819464e+003,1.136818e-002
2.821392e+003,1.107733e-002
2.823321e+003,1.067327e-002
2.825249e+003,1.010464e-002
2.827177e+003,9.546871e-003
2.829106e+003,9.083567e-003
2.831034e+003,8.549178e-003
2.832963e+003,7.971099e-003
2.834892e+003,7.452570e-003
2.836820e+003,6.962738e-003
2.838749e+003,6.472148e-003
2.840677e+003,5.921411e-003
2.842605e+003,5.307906e-003
2.844534e+003,4.704713e-003
2.846462e+003,4.181034e-003
2.848391e+003,3.660759e-003
2.850320e+003,3.365375e-003
2.852248e+003,3.236669e-003
2.854177e+003,3.081971e-003
2.856105e+003,2.864587e-003
2.858033e+003,2.624709e-003
2.859962e+003,2.481993e-003
2.861890e+003,2.506120e-003
2.863819e+003,2.510352e-003
2.865748e+003,2.409752e-003
2.867676e+003,2.434276e-003
2.869604e+003,2.602342e-003
2.871533e+003,2.773575e-003
2.873461e+003,2.925194e-003
2.875390e+003,3.079602e-003
2.877319e+003,3.265211e-003
2.879247e+003,3.391322e-003
2.881176e+003,3.404412e-003
2.883104e+003,3.353789e-003
2.885032e+003,3.285175e-003
2.886961e+003,3.136802e-003
2.888889e+003,3.113641e-003
2.890818e+003,3.155792e-003
2.892747e+003,3.151987e-003
2.894675e+003,3.077800e-003
2.896604e+003,3.110971e-003
2.898532e+003,3.173415e-003
2.900460e+003,3.111538e-003
2.902389e+003,3.062117e-003
2.904317e+003,3.029750e-003
2.906246e+003,2.949313e-003
2.908175e+003,2.987611e-003
2.910103e+003,3.071860e-003
2.912031e+003,3.144711e-003
2.913960e+003,3.249388e-003
2.915888e+003,3.399269e-003
2.917817e+003,3.648162e-003
2.919745e+003,3.790260e-003
2.921674e+003,3.982527e-003
2.923603e+003,4.385858e-003
2.925531e+003,4.652397e-003
2.927459e+003,4.892861e-003
2.929388e+003,5.143014e-003
2.931316e+003,5.224396e-003
2.933245e+003,5.142478e-003
2.935173e+003,5.130810e-003
2.937102e+003,5.215174e-003
2.939031e+003,5.233853e-003
2.940959e+003,5.028596e-003
2.942887e+003,4.797571e-003
2.944816e+003,4.374545e-003
2.946744e+003,3.894557e-003
2.948673e+003,3.339998e-003
2.950601e+003,2.681249e-003
2.952530e+003,2.011048e-003
2.954458e+003,1.396025e-003
2.956387e+003,6.243626e-004
2.958315e+003,-9.876134e-005
2.960244e+003,-6.565514e-004
2.962172e+003,-1.373287e-003
2.964101e+003,-2.146543e-003
2.966029e+003,-2.854473e-003
2.967958e+003,-3.530588e-003
2.969886e+003,-3.987740e-003
2.971815e+003,-4.317896e-003
2.973743e+003,-4.759047e-003
2.975672e+003,-5.154207e-003
2.977600e+003,-5.416368e-003
2.979529e+003,-5.648740e-003
2.981457e+003,-5.847448e-003
2.983386e+003,-5.991297e-003
2.985314e+003,-6.114908e-003
2.987243e+003,-6.284501e-003
2.989171e+003,-6.450471e-003
2.991100e+003,-6.565172e-003
2.993028e+003,-6.533219e-003
2.994957e+003,-6.541770e-003
2.996885e+003,-6.607859e-003
2.998814e+003,-6.779446e-003
3.000742e+003,-6.884961e-003
3.002671e+003,-6.866730e-003
3.004599e+003,-6.791352e-003
3.006528e+003,-6.800257e-003
3.008456e+003,-6.878928e-003
3.010385e+003,-6.918192e-003
3.012313e+003,-7.011057e-003
3.014242e+003,-7.019208e-003
3.016170e+003,-6.992668e-003
3.018099e+003,-7.005808e-003
3.020027e+003,-6.996027e-003
3.021956e+003,-7.046365e-003
3.023884e+003,-7.103315e-003
3.025813e+003,-6.983180e-003
3.027741e+003,-6.872731e-003
3.029670e+003,-6.905181e-003
3.031598e+003,-6.849738e-003
3.033527e+003,-6.883526e-003
3.035455e+003,-7.035704e-003
3.037384e+003,-6.949726e-003
3.039312e+003,-6.919497e-003
3.041241e+003,-6.988136e-003
3.043169e+003,-6.982137e-003
3.045098e+003,-7.069087e-003
3.047026e+003,-7.136497e-003
3.048955e+003,-7.123981e-003
3.050883e+003,-7.114039e-003
3.052812e+003,-7.108107e-003
3.054740e+003,-7.136725e-003
3.056669e+003,-7.245543e-003
3.058597e+003,-7.184603e-003
3.060526e+003,-7.129685e-003
3.062454e+003,-7.220028e-003
3.064383e+003,-7.128772e-003
3.066311e+003,-7.181572e-003
3.068240e+003,-7.169416e-003
3.070168e+003,-7.100186e-003
3.072097e+003,-7.062013e-003
3.074025e+003,-7.047995e-003
3.075954e+003,-7.130695e-003
3.077882e+003,-7.137475e-003
3.079811e+003,-7.134378e-003
3.081739e+003,-7.231954e-003
3.083668e+003,-7.226480e-003
3.085596e+003,-7.247791e-003
3.087525e+003,-7.276596e-003
3.089453e+003,-7.245543e-003
3.091382e+003,-7.142983e-003
3.093310e+003,-7.038932e-003
3.095239e+003,-7.062959e-003
3.097167e+003,-7.118342e-003
3.099096e+003,-7.039878e-003
3.101024e+003,-6.905637e-003
3.102953e+003,-6.825602e-003
3.104881e+003,-6.862784e-003
3.106810e+003,-6.979528e-003
3.108738e+003,-6.925171e-003
3.110667e+003,-6.809162e-003
3.112595e+003,-6.815490e-003
3.114524e+003,-6.747704e-003
3.116452e+003,-6.689501e-003
3.118381e+003,-6.758209e-003
3.120309e+003,-6.857403e-003
3.122238e+003,-6.773052e-003
3.124166e+003,-6.733480e-003
3.126095e+003,-6.747607e-003
3.128023e+003,-6.654555e-003
3.129952e+003,-6.589453e-003
3.131880e+003,-6.527638e-003
3.133809e+003,-6.487979e-003
3.135737e+003,-6.483670e-003
3.137666e+003,-6.516638e-003
3.139594e+003,-6.623621e-003
3.141523e+003,-6.559069e-003
3.143451e+003,-6.282836e-003
3.145380e+003,-6.305729e-003
3.147308e+003,-6.414657e-003
3.149237e+003,-6.324375e-003
3.151165e+003,-6.170151e-003
3.153094e+003,-6.117881e-003
3.155022e+003,-6.137646e-003
3.156951e+003,-6.053711e-003
3.158879e+003,-6.004238e-003
3.160808e+003,-5.982212e-003
3.162736e+003,-5.980382e-003
3.164665e+003,-6.055835e-003
3.166593e+003,-6.070604e-003
3.168522e+003,-5.956884e-003
3.170450e+003,-5.917826e-003
3.172379e+003,-5.725102e-003
3.174307e+003,-5.536675e-003
3.176236e+003,-5.627840e-003
3.178164e+003,-5.673497e-003
3.180093e+003,-5.556663e-003
3.182021e+003,-5.514691e-003
3.183950e+003,-5.740863e-003
3.185878e+003,-5.844735e-003
3.187807e+003,-5.732459e-003
3.189735e+003,-5.517962e-003
3.191664e+003,-5.401184e-003
3.193592e+003,-5.489891e-003
3.195521e+003,-5.583552e-003
3.197449e+003,-5.417284e-003
3.199378e+003,-5.312524e-003
3.201306e+003,-5.510699e-003
3.203235e+003,-5.545410e-003
3.205163e+003,-5.450923e-003
3.207092e+003,-5.448109e-003
3.209020e+003,-5.393788e-003
3.210948e+003,-5.401511e-003
3.212877e+003,-5.336646e-003
3.214806e+003,-5.320609e-003
3.216734e+003,-5.398468e-003
3.218663e+003,-5.496042e-003
3.220591e+003,-5.354811e-003
3.222520e+003,-5.069722e-003
3.224448e+003,-5.057801e-003
3.226376e+003,-5.109282e-003
3.228305e+003,-5.028750e-003
3.230234e+003,-4.883370e-003
3.232162e+003,-4.840153e-003
3.234091e+003,-4.807942e-003
3.236019e+003,-4.701920e-003
3.237948e+003,-4.757736e-003
3.239876e+003,-4.680287e-003
3.241804e+003,-4.592955e-003
3.243733e+003,-4.530265e-003
3.245662e+003,-4.503966e-003
3.247590e+003,-4.361657e-003
3.249519e+003,-4.220123e-003
3.251447e+003,-4.174280e-003
3.253375e+003,-4.026381e-003
3.255304e+003,-3.903520e-003
3.257232e+003,-3.919118e-003
3.259161e+003,-3.995390e-003
3.261090e+003,-3.924634e-003
3.263018e+003,-3.677243e-003
3.264947e+003,-3.754740e-003
3.266875e+003,-3.807492e-003
3.268803e+003,-3.503571e-003
3.270732e+003,-3.411499e-003
3.272660e+003,-3.632887e-003
3.274589e+003,-3.697087e-003
3.276518e+003,-3.599863e-003
3.278446e+003,-3.651977e-003
3.280375e+003,-3.721168e-003
3.282303e+003,-3.602131e-003
3.284231e+003,-3.583236e-003
3.286160e+003,-3.710294e-003
3.288088e+003,-3.588099e-003
3.290017e+003,-3.550143e-003
3.291946e+003,-3.857578e-003
3.293874e+003,-3.946141e-003
3.295802e+003,-3.891140e-003
3.297731e+003,-3.981174e-003
3.299659e+003,-4.087010e-003
3.301588e+003,-4.234692e-003
3.303516e+003,-4.272523e-003
3.305445e+003,-4.244437e-003
3.307374e+003,-4.444936e-003
3.309302e+003,-4.583087e-003
3.311230e+003,-4.607544e-003
3.313159e+003,-4.685401e-003
3.315087e+003,-4.741284e-003
3.317016e+003,-4.908663e-003
3.318944e+003,-5.237433e-003
3.320873e+003,-5.289088e-003
3.322802e+003,-5.239168e-003
3.324730e+003,-5.191173e-003
3.326658e+003,-5.198703e-003
3.328587e+003,-5.308793e-003
3.330515e+003,-5.366266e-003
3.332444e+003,-5.425171e-003
3.334372e+003,-5.236221e-003
3.336301e+003,-5.069362e-003
3.338229e+003,-5.137573e-003
3.340158e+003,-5.252589e-003
3.342086e+003,-5.310266e-003
3.344015e+003,-5.143206e-003
3.345943e+003,-5.110035e-003
3.347872e+003,-5.085081e-003
3.349800e+003,-5.074078e-003
3.351729e+003,-5.102830e-003
3.353657e+003,-5.195986e-003
3.355586e+003,-5.092286e-003
3.357514e+003,-4.938246e-003
3.359443e+003,-5.000681e-003
3.361371e+003,-5.193694e-003
3.363300e+003,-5.248956e-003
3.365229e+003,-5.289808e-003
3.367157e+003,-5.502454e-003
3.369085e+003,-5.726279e-003
3.371014e+003,-5.679908e-003
3.372942e+003,-5.696161e-003
3.374871e+003,-6.020120e-003
3.376799e+003,-6.265886e-003
3.378728e+003,-6.369110e-003
3.380656e+003,-6.430491e-003
3.382585e+003,-6.607402e-003
3.384513e+003,-6.975714e-003
3.386442e+003,-7.175510e-003
3.388370e+003,-7.328010e-003
3.390299e+003,-7.398604e-003
3.392227e+003,-7.419874e-003
3.394156e+003,-7.519471e-003
3.396084e+003,-7.500126e-003
3.398013e+003,-7.443717e-003
3.399941e+003,-7.544513e-003
3.401870e+003,-7.690307e-003
3.403798e+003,-7.864070e-003
3.405727e+003,-7.964280e-003
3.407655e+003,-7.982465e-003
3.409584e+003,-7.825672e-003
3.411512e+003,-7.763381e-003
3.413441e+003,-7.703588e-003
3.415369e+003,-7.727578e-003
3.417298e+003,-7.866869e-003
3.419226e+003,-7.809401e-003
3.421155e+003,-7.758141e-003
3.423083e+003,-7.800906e-003
3.425012e+003,-7.783072e-003
3.426940e+003,-7.718334e-003
3.428869e+003,-7.695450e-003
3.430797e+003,-7.742225e-003
3.432726e+003,-7.695613e-003
3.434654e+003,-7.675203e-003
3.436583e+003,-7.746554e-003
3.438511e+003,-7.642355e-003
3.440440e+003,-7.618588e-003
3.442368e+003,-7.897942e-003
3.444297e+003,-7.947688e-003
3.446225e+003,-7.618067e-003
3.448154e+003,-7.612435e-003
3.450082e+003,-7.680997e-003
3.452011e+003,-7.645252e-003
3.453939e+003,-7.638122e-003
3.455868e+003,-7.587657e-003
3.457796e+003,-7.624481e-003
3.459725e+003,-7.668757e-003
3.461653e+003,-7.650526e-003
3.463582e+003,-7.713516e-003
3.465510e+003,-7.718236e-003
3.467439e+003,-7.762535e-003
3.469367e+003,-7.813012e-003
3.471296e+003,-7.854666e-003
3.473224e+003,-7.939978e-003
3.475153e+003,-7.851054e-003
3.477081e+003,-7.696101e-003
3.479010e+003,-7.690209e-003
3.480938e+003,-7.679988e-003
3.482867e+003,-7.704305e-003
3.484795e+003,-7.852974e-003
3.486724e+003,-7.933731e-003
3.488652e+003,-7.849037e-003
3.490581e+003,-7.679434e-003
3.492509e+003,-7.738677e-003
3.494438e+003,-7.758467e-003
3.496366e+003,-7.803835e-003
3.498295e+003,-7.871034e-003
3.500223e+003,-7.785350e-003
3.502152e+003,-7.743039e-003
3.504080e+003,-7.769044e-003
3.506009e+003,-7.771290e-003
3.507937e+003,-7.737506e-003
3.509866e+003,-7.662539e-003
3.511794e+003,-7.660163e-003
3.513723e+003,-7.786066e-003
3.515651e+003,-7.835076e-003
3.517580e+003,-7.610286e-003
3.519508e+003,-7.601658e-003
3.521437e+003,-7.683992e-003
3.523365e+003,-7.532920e-003
3.525294e+003,-7.474593e-003
3.527222e+003,-7.584206e-003
3.529151e+003,-7.468177e-003
3.531079e+003,-7.300056e-003
3.533008e+003,-7.536828e-003
3.534936e+003,-7.583424e-003
3.536865e+003,-7.613737e-003
3.538793e+003,-7.684773e-003
3.540722e+003,-7.785773e-003
3.542650e+003,-7.854829e-003
3.544579e+003,-7.734707e-003
3.546507e+003,-7.335698e-003
3.548436e+003,-7.290639e-003
3.550364e+003,-7.377496e-003
3.552293e+003,-7.387398e-003
3.554221e+003,-7.493678e-003
3.556150e+003,-7.378929e-003
3.558078e+003,-7.244532e-003
3.560007e+003,-7.219865e-003
3.561935e+003,-7.363390e-003
3.563864e+003,-7.624481e-003
3.565792e+003,-7.443489e-003
3.567721e+003,-7.177140e-003
3.569649e+003,-7.327293e-003
3.571578e+003,-7.448538e-003
3.573506e+003,-7.521522e-003
3.575435e+003,-7.583424e-003
3.577363e+003,-7.488142e-003
3.579292e+003,-7.410819e-003
3.581220e+003,-7.358243e-003
3.583149e+003,-7.415249e-003
3.585077e+003,-7.220451e-003
3.587006e+003,-6.881146e-003
3.588934e+003,-7.077074e-003
3.590863e+003,-7.435118e-003
3.592791e+003,-7.392284e-003
3.594720e+003,-7.313609e-003
3.596648e+003,-7.357623e-003
3.598577e+003,-7.361696e-003
3.600505e+003,-7.377072e-003
3.602434e+003,-7.559231e-003
3.604362e+003,-7.473844e-003
3.606291e+003,-7.262943e-003
3.608219e+003,-7.052918e-003
3.610148e+003,-7.056439e-003
3.612076e+003,-7.098426e-003
3.614005e+003,-7.009883e-003
3.615933e+003,-7.004243e-003
3.617862e+003,-6.874166e-003
3.619790e+003,-6.941769e-003
3.621719e+003,-7.239384e-003
3.623647e+003,-7.306442e-003
3.625576e+003,-7.288359e-003
3.627504e+003,-6.823156e-003
3.629433e+003,-6.566608e-003
3.631361e+003,-7.155043e-003
3.633290e+003,-7.307191e-003
3.635218e+003,-7.136660e-003
3.637146e+003,-7.217583e-003
3.639075e+003,-7.541321e-003
3.641004e+003,-7.477199e-003
3.642932e+003,-7.426356e-003
3.644861e+003,-7.474561e-003
3.646789e+003,-6.921584e-003
3.648718e+003,-6.285547e-003
3.650646e+003,-6.426672e-003
3.652574e+003,-7.390884e-003
3.654503e+003,-7.617709e-003
3.656432e+003,-7.276140e-003
3.658360e+003,-7.442577e-003
3.660289e+003,-7.522695e-003
3.662217e+003,-7.594202e-003
3.664146e+003,-7.762437e-003
3.666074e+003,-7.724551e-003
3.668002e+003,-7.414174e-003
3.669931e+003,-6.997363e-003
3.671860e+003,-7.203309e-003
3.673788e+003,-6.853978e-003
3.675717e+003,-6.116803e-003
3.677645e+003,-6.972355e-003
3.679573e+003,-7.508789e-003
3.681502e+003,-7.397431e-003
3.683430e+003,-7.358210e-003
3.685359e+003,-7.473030e-003
3.687288e+003,-7.299404e-003
3.689216e+003,-7.175575e-003
3.691145e+003,-7.476841e-003
3.693073e+003,-7.751502e-003
3.695001e+003,-7.880047e-003
3.696930e+003,-7.838233e-003
3.698858e+003,-7.647368e-003
3.700787e+003,-7.485243e-003
3.702716e+003,-7.650266e-003
3.704644e+003,-7.707657e-003
3.706573e+003,-7.356060e-003
3.708501e+003,-7.035411e-003
3.710429e+003,-6.968149e-003
3.712358e+003,-7.098621e-003
3.714286e+003,-7.687475e-003
3.716215e+003,-7.843797e-003
3.718144e+003,-7.405542e-003
3.720072e+003,-7.246618e-003
3.722000e+003,-7.259555e-003
3.723929e+003,-7.384564e-003
3.725857e+003,-7.166678e-003
3.727786e+003,-7.090178e-003
3.729714e+003,-7.186885e-003
3.731643e+003,-6.921812e-003
3.733572e+003,-6.706467e-003
3.735500e+003,-6.449981e-003
3.737428e+003,-6.680724e-003
3.739357e+003,-7.002450e-003
3.741285e+003,-6.953150e-003
3.743214e+003,-6.058645e-003
3.745142e+003,-5.470914e-003
3.747071e+003,-6.094946e-003
3.749000e+003,-5.771926e-003
3.750928e+003,-5.586496e-003
3.752856e+003,-5.834371e-003
3.754785e+003,-6.411000e-003
3.756713e+003,-6.416910e-003
3.758642e+003,-6.363102e-003
3.760570e+003,-6.196741e-003
3.762499e+003,-6.248837e-003
3.764427e+003,-6.144833e-003
3.766356e+003,-6.266964e-003
3.768284e+003,-6.224962e-003
3.770213e+003,-6.134379e-003
3.772141e+003,-6.260595e-003
3.774070e+003,-6.573331e-003
3.775998e+003,-6.542129e-003
3.777927e+003,-6.306708e-003
3.779855e+003,-6.447108e-003
3.781784e+003,-6.746889e-003
3.783712e+003,-6.786133e-003
3.785641e+003,-6.840214e-003
3.787569e+003,-6.889951e-003
3.789498e+003,-6.851923e-003
3.791426e+003,-6.723204e-003
3.793355e+003,-6.553553e-003
3.795283e+003,-6.329110e-003
3.797212e+003,-6.483637e-003
3.799140e+003,-6.660592e-003
3.801069e+003,-5.880301e-003
3.802997e+003,-5.962701e-003
3.804926e+003,-6.308243e-003
3.806854e+003,-6.051882e-003
3.808783e+003,-6.288029e-003
3.810711e+003,-6.482560e-003
3.812640e+003,-6.634128e-003
3.814568e+003,-6.269315e-003
3.816497e+003,-5.780623e-003
3.818425e+003,-6.061161e-003
3.820354e+003,-5.919002e-003
3.822282e+003,-5.857451e-003
3.824211e+003,-6.299165e-003
3.826139e+003,-6.412796e-003
3.828068e+003,-6.338188e-003
3.829996e+003,-6.099487e-003
3.831925e+003,-6.035837e-003
3.833853e+003,-6.195630e-003
3.835782e+003,-6.260334e-003
3.837710e+003,-5.988846e-003
3.839639e+003,-5.942143e-003
3.841567e+003,-6.164826e-003
3.843496e+003,-6.150845e-003
3.845424e+003,-6.361470e-003
3.847353e+003,-6.556066e-003
3.849281e+003,-6.220487e-003
3.851210e+003,-5.711498e-003
3.853138e+003,-4.889267e-003
3.855067e+003,-5.225418e-003
3.856995e+003,-6.103179e-003
3.858924e+003,-6.493528e-003
3.860852e+003,-6.197753e-003
3.862781e+003,-5.806942e-003
3.864709e+003,-5.719117e-003
3.866638e+003,-5.877588e-003
3.868566e+003,-5.805569e-003
3.870495e+003,-5.607005e-003
3.872423e+003,-5.974368e-003
3.874352e+003,-6.190240e-003
3.876280e+003,-6.385697e-003
3.878209e+003,-6.270132e-003
3.880137e+003,-5.899129e-003
3.882066e+003,-6.013061e-003
3.883994e+003,-6.183968e-003
3.885923e+003,-5.752929e-003
3.887851e+003,-6.133497e-003
3.889780e+003,-6.246943e-003
3.891708e+003,-5.923742e-003
3.893637e+003,-5.944072e-003
3.895565e+003,-5.984369e-003
3.897494e+003,-5.717319e-003
3.899422e+003,-5.737495e-003
3.901351e+003,-5.919460e-003
3.903279e+003,-5.805308e-003
3.905208e+003,-5.725461e-003
3.907136e+003,-5.956753e-003
3.909065e+003,-6.229763e-003
3.910993e+003,-6.114091e-003
3.912922e+003,-5.800697e-003
3.914850e+003,-5.657832e-003
3.916779e+003,-5.729941e-003
3.918707e+003,-6.012342e-003
3.920636e+003,-6.127486e-003
3.922564e+003,-6.252202e-003
3.924493e+003,-6.006689e-003
3.926421e+003,-5.846206e-003
3.928350e+003,-6.058351e-003
3.930278e+003,-6.056652e-003
3.932207e+003,-5.914198e-003
3.934135e+003,-5.989172e-003
3.936064e+003,-6.149767e-003
3.937992e+003,-6.082203e-003
3.939921e+003,-5.881347e-003
3.941849e+003,-5.869514e-003
3.943778e+003,-6.126604e-003
3.945706e+003,-6.068971e-003
3.947635e+003,-5.819398e-003
3.949563e+003,-5.760252e-003
3.951492e+003,-5.939725e-003
3.953420e+003,-6.004075e-003
3.955349e+003,-5.995512e-003
3.957277e+003,-6.075440e-003
3.959206e+003,-6.194029e-003
3.961134e+003,-6.178775e-003
3.963063e+003,-6.093835e-003
3.964991e+003,-6.131243e-003
3.966920e+003,-6.203992e-003
3.968848e+003,-6.231233e-003
3.970777e+003,-6.285090e-003
3.972705e+003,-6.363462e-003
3.974634e+003,-6.253704e-003
3.976562e+003,-6.025021e-003
3.978491e+003,-5.942960e-003
3.980419e+003,-5.985186e-003
3.982348e+003,-6.181225e-003
3.984276e+003,-6.281954e-003
3.986205e+003,-6.167439e-003
3.988133e+003,-6.111184e-003
3.990062e+003,-6.170772e-003
3.991990e+003,-6.119710e-003
3.993919e+003,-6.146402e-003
3.995847e+003,-6.343543e-003
3.997776e+003,-6.437641e-003
3.999704e+003,-6.420599e-003
4.001633e+003,0.000000e+000
