3.991989e+002,8.953054e-003
4.011274e+002,1.422699e-002
4.030559e+002,7.948252e-003
4.049844e+002,7.101142e-003
4.069129e+002,1.433471e-002
4.088414e+002,2.143324e-002
4.107699e+002,1.745795e-002
4.126984e+002,1.407062e-002
4.146269e+002,1.253765e-002
4.165554e+002,1.019889e-002
4.184839e+002,2.230465e-002
4.204124e+002,2.301672e-002
4.223409e+002,1.625050e-002
4.242694e+002,2.046061e-002
4.261979e+002,2.592481e-002
4.281264e+002,1.677552e-002
4.300549e+002,9.505077e-003
4.319834e+002,8.619574e-003
4.339119e+002,1.031139e-002
4.358404e+002,1.654270e-002
4.377689e+002,1.033891e-002
4.396974e+002,6.927387e-003
4.416259e+002,9.279817e-003
4.435544e+002,8.314348e-003
4.454829e+002,9.296709e-003
4.474114e+002,1.402893e-002
4.493399e+002,1.126897e-002
4.512684e+002,4.425589e-003
4.531969e+002,3.942803e-003
4.551254e+002,9.393940e-003
4.570539e+002,9.359710e-003
4.589824e+002,4.471483e-003
4.609109e+002,4.583579e-003
4.628394e+002,6.214943e-003
4.647679e+002,5.750376e-003
4.666964e+002,5.617504e-003
4.686249e+002,4.497395e-003
4.705533e+002,4.932303e-003
4.724819e+002,5.696927e-003
4.744103e+002,3.575861e-003
4.763389e+002,2.997587e-003
4.782673e+002,4.860693e-003
4.801959e+002,5.801616e-003
4.821243e+002,7.104174e-003
4.840529e+002,9.292410e-003
4.859813e+002,7.445761e-003
4.879099e+002,3.961895e-003
4.898383e+002,2.417482e-003
4.917668e+002,3.140139e-003
4.936953e+002,6.865815e-003
4.956238e+002,8.234648e-003
4.975523e+002,5.581289e-003
4.994808e+002,5.650299e-003
5.014093e+002,6.637612e-003
5.033378e+002,4.233394e-003
5.052663e+002,1.145396e-003
5.071948e+002,3.198215e-003
5.091233e+002,4.933108e-003
5.110518e+002,3.918395e-003
5.129803e+002,3.588523e-003
5.149088e+002,4.124299e-003
5.168373e+002,4.965918e-003
5.187658e+002,4.854361e-003
5.206943e+002,5.114583e-003
5.226228e+002,3.816298e-003
5.245513e+002,3.231728e-003
5.264798e+002,4.314404e-003
5.284083e+002,4.870980e-003
5.303368e+002,3.626043e-003
5.322653e+002,3.401841e-003
5.341938e+002,4.154171e-003
5.361223e+002,3.773748e-003
5.380508e+002,2.987344e-003
5.399792e+002,3.798984e-003
5.419078e+002,3.740360e-003
5.438363e+002,3.690633e-003
5.457648e+002,3.388149e-003
5.476932e+002,2.611576e-003
5.496218e+002,2.682683e-003
5.515503e+002,3.439110e-003
5.534788e+002,3.278699e-003
5.554072e+002,4.053457e-003
5.573358e+002,4.324879e-003
5.592643e+002,4.291046e-003
5.611927e+002,3.891080e-003
5.631212e+002,2.881864e-003
5.650497e+002,3.162834e-003
5.669783e+002,5.146836e-003
5.689067e+002,5.107274e-003
5.708352e+002,4.812614e-003
5.727637e+002,4.559604e-003
5.746923e+002,1.996601e-003
5.766207e+002,3.210031e-003
5.785492e+002,5.289560e-003
5.804777e+002,4.339413e-004
5.824063e+002,-2.507093e-003
5.843347e+002,2.424613e-003
5.862632e+002,6.195616e-003
5.881917e+002,5.729392e-003
5.901202e+002,3.269184e-003
5.920487e+002,2.198732e-003
5.939772e+002,1.924441e-003
5.959057e+002,1.951699e-003
5.978342e+002,2.840040e-003
5.997627e+002,3.358530e-003
6.016912e+002,2.255549e-003
6.036197e+002,2.187242e-003
6.055482e+002,3.165104e-003
6.074767e+002,3.682780e-003
6.094052e+002,4.842734e-003
6.113337e+002,6.741418e-003
6.132622e+002,5.726034e-003
6.151907e+002,4.853523e-003
6.171192e+002,4.784605e-003
6.190477e+002,4.079043e-003
6.209762e+002,4.069076e-003
6.229047e+002,4.134100e-003
6.248332e+002,3.941264e-003
6.267617e+002,3.601018e-003
6.286902e+002,2.751834e-003
6.306187e+002,2.407387e-003
6.325472e+002,2.597842e-003
6.344756e+002,3.081471e-003
6.364042e+002,2.494090e-003
6.383326e+002,1.901378e-003
6.402612e+002,1.909465e-003
6.421896e+002,2.794050e-003
6.441182e+002,2.923893e-003
6.460466e+002,2.902111e-003
6.479752e+002,2.911484e-003
6.499036e+002,2.606442e-003
6.518322e+002,2.468330e-003
6.537606e+002,2.980572e-003
6.556891e+002,2.824198e-003
6.576177e+002,2.607476e-003
6.595461e+002,2.694352e-003
6.614746e+002,1.988113e-003
6.634031e+002,1.662631e-003
6.653317e+002,3.175117e-003
6.672601e+002,7.742990e-003
6.691886e+002,6.697100e-003
6.711171e+002,3.073929e-003
6.730457e+002,2.567777e-003
6.749741e+002,2.475228e-003
6.769026e+002,2.380866e-003
6.788311e+002,2.225308e-003
6.807596e+002,2.294319e-003
6.826881e+002,2.251885e-003
6.846166e+002,2.379634e-003
6.865451e+002,2.108958e-003
6.884736e+002,1.942380e-003
6.904021e+002,1.741899e-003
6.923306e+002,1.728825e-003
6.942591e+002,1.836422e-003
6.961876e+002,2.241560e-003
6.981161e+002,2.058153e-003
7.000446e+002,1.861145e-003
7.019731e+002,1.577025e-003
7.039016e+002,1.802483e-003
7.058301e+002,1.639847e-003
7.077585e+002,1.197556e-003
7.096871e+002,7.955143e-004
7.116156e+002,8.355159e-004
7.135441e+002,1.096862e-003
7.154725e+002,1.423017e-003
7.174011e+002,1.530371e-003
7.193296e+002,1.745692e-003
7.212581e+002,1.613972e-003
7.231865e+002,1.747621e-003
7.251151e+002,1.798823e-003
7.270436e+002,2.109191e-003
7.289720e+002,2.338857e-003
7.309005e+002,2.194336e-003
7.328290e+002,2.122077e-003
7.347576e+002,1.856686e-003
7.366860e+002,1.383726e-003
7.386145e+002,1.174233e-003
7.405430e+002,1.670514e-003
7.424716e+002,2.264309e-003
7.444000e+002,2.035448e-003
7.463285e+002,1.651322e-003
7.482570e+002,1.402473e-003
7.501855e+002,1.445224e-003
7.521140e+002,1.650723e-003
7.540425e+002,1.641976e-003
7.559710e+002,1.341347e-003
7.578995e+002,1.563790e-003
7.598280e+002,1.472851e-003
7.617565e+002,1.371959e-003
7.636850e+002,1.169316e-003
7.656135e+002,1.719178e-003
7.675420e+002,2.112587e-003
7.694705e+002,1.899947e-003
7.713990e+002,1.460749e-003
7.733275e+002,1.466335e-003
7.752560e+002,1.617631e-003
7.771844e+002,1.751746e-003
7.791130e+002,1.666223e-003
7.810415e+002,1.857551e-003
7.829700e+002,1.531236e-003
7.848984e+002,1.408623e-003
7.868270e+002,1.564654e-003
7.887555e+002,1.867767e-003
7.906840e+002,2.047766e-003
7.926124e+002,1.739870e-003
7.945410e+002,1.660203e-003
7.964695e+002,1.657209e-003
7.983979e+002,1.463276e-003
8.003264e+002,1.471986e-003
8.022549e+002,1.780125e-003
8.041835e+002,1.935258e-003
8.061119e+002,1.492234e-003
8.080404e+002,1.323067e-003
8.099689e+002,1.253744e-003
8.118975e+002,1.271822e-003
8.138259e+002,1.326923e-003
8.157545e+002,1.646399e-003
8.176830e+002,1.825108e-003
8.196115e+002,1.710064e-003
8.215399e+002,1.440204e-003
8.234684e+002,1.461248e-003
8.253970e+002,1.857352e-003
8.273254e+002,1.962583e-003
8.292539e+002,1.820517e-003
8.311824e+002,1.575395e-003
8.331110e+002,1.801418e-003
8.350394e+002,1.923110e-003
8.369679e+002,1.777330e-003
8.388964e+002,1.637353e-003
8.408250e+002,1.731320e-003
8.427534e+002,1.620291e-003
8.446819e+002,1.077795e-003
8.466104e+002,1.088690e-003
8.485389e+002,1.216396e-003
8.504674e+002,1.228557e-003
8.523959e+002,1.266073e-003
8.543244e+002,1.521726e-003
8.562529e+002,1.683320e-003
8.581814e+002,1.639781e-003
8.601099e+002,1.557704e-003
8.620384e+002,1.469659e-003
8.639669e+002,1.596612e-003
8.658954e+002,1.956759e-003
8.678239e+002,1.594850e-003
8.697524e+002,1.754009e-003
8.716809e+002,1.994204e-003
8.736094e+002,1.854057e-003
8.755378e+002,1.816790e-003
8.774664e+002,2.037845e-003
8.793949e+002,1.909931e-003
8.813234e+002,1.532200e-003
8.832518e+002,1.383792e-003
8.851804e+002,1.370796e-003
8.871089e+002,1.469127e-003
8.890374e+002,1.369699e-003
8.909658e+002,1.482925e-003
8.928943e+002,1.590493e-003
8.948229e+002,1.475976e-003
8.967513e+002,1.669117e-003
8.986798e+002,1.681723e-003
9.006083e+002,1.549325e-003
9.025369e+002,1.487945e-003
9.044653e+002,1.563856e-003
9.063938e+002,1.466368e-003
9.083223e+002,1.225035e-003
9.102509e+002,9.750357e-004
9.121793e+002,1.249059e-003
9.141078e+002,1.231680e-003
9.160364e+002,1.294320e-003
9.179648e+002,1.426075e-003
9.198933e+002,1.394462e-003
9.218218e+002,1.591557e-003
9.237504e+002,1.666356e-003
9.256788e+002,1.250654e-003
9.276073e+002,1.006851e-003
9.295358e+002,1.114567e-003
9.314644e+002,1.167920e-003
9.333928e+002,1.262650e-003
9.353213e+002,1.262285e-003
9.372498e+002,1.225866e-003
9.391783e+002,1.029302e-003
9.411068e+002,9.946291e-004
9.430353e+002,1.412313e-003
9.449637e+002,1.379770e-003
9.468923e+002,1.360558e-003
9.488208e+002,1.340849e-003
9.507493e+002,1.335298e-003
9.526777e+002,1.209485e-003
9.546063e+002,1.316553e-003
9.565348e+002,1.350454e-003
9.584633e+002,1.180977e-003
9.603917e+002,1.033952e-003
9.623203e+002,9.937325e-004
9.642488e+002,1.021497e-003
9.661772e+002,1.060755e-003
9.681057e+002,1.019338e-003
9.700343e+002,9.419944e-004
9.719628e+002,9.169911e-004
9.738912e+002,8.333580e-004
9.758197e+002,7.605617e-004
9.777483e+002,1.013028e-003
9.796768e+002,1.078027e-003
9.816052e+002,1.090949e-003
9.835337e+002,1.147721e-003
9.854623e+002,1.168784e-003
9.873907e+002,1.095699e-003
9.893192e+002,1.027641e-003
9.912477e+002,7.448621e-004
9.931763e+002,9.430238e-004
9.951047e+002,1.165694e-003
9.970332e+002,8.949441e-004
9.989617e+002,8.714042e-004
1.000890e+003,9.714491e-004
1.002819e+003,8.128756e-004
1.004747e+003,7.323161e-004
1.006676e+003,7.964438e-004
1.008604e+003,7.110086e-004
1.010533e+003,6.514728e-004
1.012461e+003,7.587361e-004
1.014390e+003,5.951304e-004
1.016318e+003,7.418417e-004
1.018247e+003,9.758327e-004
1.020175e+003,8.804349e-004
1.022104e+003,8.971023e-004
1.024032e+003,9.432895e-004
1.025961e+003,9.214737e-004
1.027889e+003,8.488948e-004
1.029818e+003,7.561139e-004
1.031746e+003,8.697442e-004
1.033675e+003,9.938985e-004
1.035603e+003,8.991940e-004
1.037532e+003,8.835226e-004
1.039460e+003,8.604150e-004
1.041389e+003,9.048717e-004
1.043317e+003,9.882196e-004
1.045246e+003,1.068029e-003
1.047174e+003,1.130380e-003
1.049103e+003,1.135429e-003
1.051031e+003,9.218389e-004
1.052960e+003,8.406284e-004
1.054888e+003,9.204111e-004
1.056817e+003,8.231333e-004
1.058745e+003,6.515061e-004
1.060674e+003,6.695252e-004
1.062602e+003,8.530447e-004
1.064531e+003,9.380429e-004
1.066459e+003,9.529858e-004
1.068388e+003,8.851495e-004
1.070316e+003,8.429855e-004
1.072245e+003,9.423929e-004
1.074173e+003,8.831907e-004
1.076102e+003,8.467037e-004
1.078030e+003,9.449830e-004
1.079959e+003,8.364122e-004
1.081887e+003,5.975857e-004
1.083816e+003,7.664035e-004
1.085744e+003,9.579668e-004
1.087673e+003,8.816966e-004
1.089601e+003,8.624402e-004
1.091530e+003,9.288119e-004
1.093458e+003,8.118133e-004
1.095387e+003,7.147589e-004
1.097315e+003,8.035807e-004
1.099244e+003,1.040461e-003
1.101172e+003,1.256835e-003
1.103101e+003,1.073311e-003
1.105029e+003,9.388731e-004
1.106958e+003,8.356487e-004
1.108886e+003,9.951605e-004
1.110815e+003,9.190165e-004
1.112743e+003,7.064951e-004
1.114672e+003,8.568295e-004
1.116600e+003,1.198520e-003
1.118529e+003,1.245437e-003
1.120457e+003,9.624498e-004
1.122386e+003,7.518654e-004
1.124314e+003,7.990662e-004
1.126243e+003,7.535582e-004
1.128171e+003,6.229689e-004
1.130100e+003,6.735075e-004
1.132028e+003,7.346726e-004
1.133957e+003,8.513848e-004
1.135885e+003,9.598929e-004
1.137814e+003,7.131327e-004
1.139742e+003,4.011402e-004
1.141671e+003,8.228345e-004
1.143599e+003,1.029999e-003
1.145528e+003,7.703534e-004
1.147456e+003,6.214094e-004
1.149385e+003,7.067274e-004
1.151313e+003,8.453426e-004
1.153242e+003,7.150244e-004
1.155170e+003,7.090837e-004
1.157099e+003,7.843942e-004
1.159027e+003,7.918961e-004
1.160956e+003,6.912952e-004
1.162884e+003,7.304906e-004
1.164813e+003,6.601671e-004
1.166741e+003,6.876779e-004
1.168670e+003,7.186752e-004
1.170598e+003,7.156219e-004
1.172526e+003,7.672001e-004
1.174455e+003,7.012514e-004
1.176384e+003,6.951117e-004
1.178312e+003,7.153895e-004
1.180240e+003,6.725782e-004
1.182169e+003,6.404560e-004
1.184098e+003,6.009037e-004
1.186026e+003,5.515016e-004
1.187954e+003,7.217618e-004
1.189883e+003,7.707517e-004
1.191812e+003,7.497080e-004
1.193740e+003,8.033816e-004
1.195668e+003,6.478559e-004
1.197597e+003,5.994106e-004
1.199526e+003,6.375359e-004
1.201454e+003,6.282780e-004
1.203382e+003,7.352036e-004
1.205311e+003,7.626860e-004
1.207240e+003,6.521033e-004
1.209168e+003,5.409849e-004
1.211096e+003,5.487148e-004
1.213025e+003,6.449357e-004
1.214953e+003,6.622577e-004
1.216882e+003,5.840818e-004
1.218810e+003,4.444886e-004
1.220739e+003,4.116204e-004
1.222667e+003,4.769281e-004
1.224596e+003,5.972540e-004
1.226524e+003,6.127491e-004
1.228453e+003,6.376354e-004
1.230381e+003,5.797023e-004
1.232310e+003,5.724694e-004
1.234238e+003,5.978512e-004
1.236167e+003,5.133508e-004
1.238095e+003,4.828988e-004
1.240024e+003,6.078052e-004
1.241952e+003,6.678328e-004
1.243881e+003,5.448996e-004
1.245809e+003,5.442693e-004
1.247738e+003,5.413499e-004
1.249666e+003,6.670032e-004
1.251595e+003,7.006872e-004
1.253523e+003,5.288429e-004
1.255452e+003,4.787856e-004
1.257380e+003,4.758003e-004
1.259309e+003,5.723368e-004
1.261237e+003,5.723036e-004
1.263166e+003,5.205494e-004
1.265094e+003,5.815602e-004
1.267023e+003,5.120570e-004
1.268951e+003,4.320839e-004
1.270880e+003,4.726159e-004
1.272808e+003,4.318518e-004
1.274737e+003,5.036311e-004
1.276665e+003,6.003065e-004
1.278594e+003,5.649050e-004
1.280522e+003,5.357764e-004
1.282451e+003,4.963001e-004
1.284379e+003,4.495965e-004
1.286308e+003,4.096636e-004
1.288236e+003,4.624992e-004
1.290165e+003,5.539898e-004
1.292093e+003,5.959600e-004
1.294022e+003,6.766601e-004
1.295950e+003,6.323262e-004
1.297879e+003,6.440729e-004
1.299807e+003,6.220067e-004
1.301736e+003,5.749578e-004
1.303664e+003,5.045931e-004
1.305593e+003,5.943673e-004
1.307521e+003,8.732635e-004
1.309450e+003,9.213408e-004
1.311378e+003,7.003222e-004
1.313307e+003,6.378345e-004
1.315235e+003,6.337863e-004
1.317164e+003,6.934855e-004
1.319092e+003,6.067434e-004
1.321021e+003,4.784871e-004
1.322949e+003,5.367053e-004
1.324878e+003,5.811621e-004
1.326806e+003,4.112224e-004
1.328735e+003,3.670483e-004
1.330663e+003,4.714218e-004
1.332592e+003,5.259567e-004
1.334520e+003,4.862491e-004
1.336449e+003,5.222413e-004
1.338377e+003,5.538571e-004
1.340306e+003,4.832637e-004
1.342234e+003,3.715584e-004
1.344163e+003,3.851551e-004
1.346091e+003,3.796832e-004
1.348020e+003,4.375234e-004
1.349948e+003,3.989182e-004
1.351877e+003,4.637928e-004
1.353805e+003,5.597294e-004
1.355734e+003,5.405205e-004
1.357662e+003,5.077777e-004
1.359591e+003,6.309989e-004
1.361519e+003,6.708194e-004
1.363448e+003,6.320608e-004
1.365376e+003,5.100335e-004
1.367305e+003,4.771934e-004
1.369233e+003,4.584194e-004
1.371162e+003,5.128531e-004
1.373090e+003,6.754322e-004
1.375019e+003,5.382314e-004
1.376947e+003,4.830978e-004
1.378876e+003,6.006051e-004
1.380804e+003,5.465252e-004
1.382733e+003,5.111945e-004
1.384661e+003,6.019986e-004
1.386590e+003,7.334777e-004
1.388518e+003,6.981649e-004
1.390447e+003,5.644073e-004
1.392375e+003,5.801668e-004
1.394304e+003,6.576783e-004
1.396232e+003,4.973615e-004
1.398161e+003,6.207458e-004
1.400089e+003,7.038068e-004
1.402018e+003,5.087728e-004
1.403946e+003,5.094363e-004
1.405875e+003,5.058869e-004
1.407803e+003,3.862827e-004
1.409732e+003,4.961673e-004
1.411660e+003,5.801668e-004
1.413589e+003,5.328902e-004
1.415517e+003,5.532932e-004
1.417446e+003,7.699883e-004
1.419374e+003,9.202119e-004
1.421303e+003,8.081949e-004
1.423231e+003,7.515003e-004
1.425160e+003,6.740716e-004
1.427088e+003,5.715405e-004
1.429017e+003,5.484826e-004
1.430945e+003,4.987216e-004
1.432874e+003,4.886705e-004
1.434802e+003,7.457250e-004
1.436731e+003,9.303725e-004
1.438659e+003,6.642820e-004
1.440588e+003,5.684550e-004
1.442516e+003,6.568818e-004
1.444445e+003,6.735406e-004
1.446373e+003,7.112410e-004
1.448302e+003,7.563131e-004
1.450230e+003,6.843260e-004
1.452159e+003,6.218076e-004
1.454087e+003,6.738393e-004
1.456016e+003,1.074208e-003
1.457944e+003,1.244872e-003
1.459873e+003,8.826594e-004
1.461801e+003,6.243294e-004
1.463730e+003,6.556872e-004
1.465658e+003,6.876779e-004
1.467587e+003,6.088338e-004
1.469515e+003,7.296609e-004
1.471444e+003,1.061353e-003
1.473372e+003,1.143635e-003
1.475301e+003,9.606899e-004
1.477229e+003,7.593999e-004
1.479158e+003,5.868025e-004
1.481086e+003,7.160201e-004
1.483015e+003,6.273489e-004
1.484943e+003,5.324921e-004
1.486872e+003,6.703880e-004
1.488800e+003,8.624402e-004
1.490729e+003,9.948616e-004
1.492657e+003,8.503224e-004
1.494586e+003,8.021866e-004
1.496514e+003,1.017976e-003
1.498443e+003,9.880203e-004
1.500371e+003,7.822698e-004
1.502300e+003,6.940165e-004
1.504228e+003,9.704861e-004
1.506157e+003,1.548493e-003
1.508085e+003,1.360459e-003
1.510014e+003,8.495256e-004
1.511942e+003,6.966715e-004
1.513871e+003,6.728437e-004
1.515799e+003,8.063360e-004
1.517728e+003,9.001901e-004
1.519656e+003,1.033719e-003
1.521585e+003,1.280562e-003
1.523513e+003,9.971531e-004
1.525442e+003,8.423215e-004
1.527370e+003,7.440987e-004
1.529299e+003,7.382239e-004
1.531227e+003,6.687288e-004
1.533156e+003,8.140706e-004
1.535084e+003,7.621549e-004
1.537013e+003,8.475005e-004
1.538941e+003,1.302296e-003
1.540870e+003,1.413277e-003
1.542798e+003,1.263714e-003
1.544727e+003,1.063313e-003
1.546655e+003,7.027116e-004
1.548584e+003,7.175468e-004
1.550512e+003,7.609267e-004
1.552441e+003,6.906315e-004
1.554369e+003,8.630710e-004
1.556298e+003,1.211744e-003
1.558226e+003,1.815792e-003
1.560155e+003,1.475909e-003
1.562083e+003,7.864523e-004
1.564012e+003,8.243284e-004
1.565940e+003,8.108174e-004
1.567869e+003,8.652290e-004
1.569797e+003,1.077529e-003
1.571726e+003,7.961119e-004
1.573654e+003,6.863504e-004
1.575583e+003,9.915406e-004
1.577511e+003,8.753883e-004
1.579440e+003,6.125168e-004
1.581368e+003,6.669036e-004
1.583297e+003,6.324258e-004
1.585225e+003,5.844799e-004
1.587154e+003,5.796691e-004
1.589082e+003,5.630802e-004
1.591010e+003,4.233279e-004
1.592939e+003,4.089671e-004
1.594868e+003,5.260231e-004
1.596796e+003,5.834182e-004
1.598724e+003,5.238668e-004
1.600653e+003,4.672756e-004
1.602582e+003,5.470892e-004
1.604510e+003,5.789723e-004
1.606438e+003,5.291415e-004
1.608367e+003,5.315964e-004
1.610296e+003,4.850217e-004
1.612224e+003,4.421668e-004
1.614152e+003,6.040226e-004
1.616081e+003,9.393048e-004
1.618010e+003,8.569291e-004
1.619938e+003,6.052171e-004
1.621866e+003,6.757641e-004
1.623795e+003,6.030604e-004
1.625724e+003,4.695975e-004
1.627652e+003,5.122229e-004
1.629580e+003,4.595803e-004
1.631509e+003,3.875761e-004
1.633438e+003,6.927554e-004
1.635366e+003,1.115896e-003
1.637294e+003,8.990280e-004
1.639223e+003,5.710096e-004
1.641151e+003,5.052897e-004
1.643080e+003,5.245966e-004
1.645008e+003,8.393337e-004
1.646937e+003,1.107923e-003
1.648865e+003,8.143694e-004
1.650794e+003,9.926034e-004
1.652722e+003,1.752778e-003
1.654651e+003,1.210315e-003
1.656579e+003,6.751667e-004
1.658508e+003,6.646138e-004
1.660436e+003,6.210444e-004
1.662365e+003,7.080549e-004
1.664293e+003,6.610962e-004
1.666222e+003,6.523356e-004
1.668150e+003,9.408323e-004
1.670079e+003,1.032789e-003
1.672007e+003,8.517500e-004
1.673936e+003,8.885029e-004
1.675864e+003,9.171903e-004
1.677793e+003,5.953295e-004
1.679721e+003,5.013754e-004
1.681650e+003,6.961405e-004
1.683578e+003,1.211246e-003
1.685507e+003,1.173668e-003
1.687435e+003,8.388025e-004
1.689364e+003,7.361993e-004
1.691292e+003,6.577115e-004
1.693221e+003,6.883084e-004
1.695149e+003,1.012530e-003
1.697078e+003,9.790871e-004
1.699006e+003,1.133502e-003
1.700935e+003,1.234472e-003
1.702863e+003,8.040123e-004
1.704792e+003,8.277477e-004
1.706720e+003,8.051409e-004
1.708649e+003,6.659744e-004
1.710577e+003,4.869788e-004
1.712506e+003,5.277813e-004
1.714434e+003,7.727765e-004
1.716363e+003,1.077629e-003
1.718291e+003,1.094171e-003
1.720220e+003,8.036140e-004
1.722148e+003,6.385978e-004
1.724077e+003,5.971213e-004
1.726005e+003,5.986143e-004
1.727934e+003,5.943342e-004
1.729862e+003,6.248271e-004
1.731791e+003,8.521483e-004
1.733719e+003,1.082279e-003
1.735648e+003,8.071659e-004
1.737576e+003,6.365072e-004
1.739505e+003,7.713160e-004
1.741433e+003,6.266853e-004
1.743362e+003,5.563786e-004
1.745290e+003,5.368048e-004
1.747219e+003,6.653439e-004
1.749147e+003,7.977384e-004
1.751076e+003,9.281478e-004
1.753004e+003,8.104523e-004
1.754933e+003,7.463556e-004
1.756861e+003,7.852905e-004
1.758790e+003,6.589061e-004
1.760718e+003,7.033754e-004
1.762647e+003,6.917930e-004
1.764575e+003,4.430955e-004
1.766504e+003,5.268193e-004
1.768432e+003,6.699898e-004
1.770361e+003,6.844920e-004
1.772289e+003,7.656732e-004
1.774218e+003,6.349477e-004
1.776146e+003,4.996173e-004
1.778075e+003,4.562965e-004
1.780003e+003,4.281703e-004
1.781932e+003,4.311553e-004
1.783860e+003,4.198787e-004
1.785789e+003,4.500608e-004
1.787717e+003,4.806763e-004
1.789646e+003,4.923858e-004
1.791574e+003,6.513401e-004
1.793503e+003,6.957423e-004
1.795431e+003,5.058869e-004
1.797360e+003,5.155070e-004
1.799288e+003,5.260231e-004
1.801217e+003,4.870120e-004
1.803145e+003,4.126817e-004
1.805074e+003,4.796481e-004
1.807002e+003,5.347148e-004
1.808931e+003,5.230706e-004
1.810859e+003,5.104647e-004
1.812788e+003,5.132512e-004
1.814716e+003,5.186917e-004
1.816645e+003,4.691663e-004
1.818573e+003,4.841925e-004
1.820502e+003,4.485351e-004
1.822430e+003,4.334770e-004
1.824359e+003,5.689526e-004
1.826287e+003,6.356445e-004
1.828216e+003,6.927554e-004
1.830144e+003,7.709177e-004
1.832073e+003,5.831528e-004
1.834001e+003,4.654181e-004
1.835930e+003,4.657166e-004
1.837858e+003,4.690336e-004
1.839787e+003,5.296060e-004
1.841715e+003,5.959268e-004
1.843644e+003,7.592671e-004
1.845572e+003,6.272494e-004
1.847501e+003,4.022015e-004
1.849429e+003,4.003443e-004
1.851358e+003,5.332552e-004
1.853286e+003,5.532932e-004
1.855215e+003,4.875759e-004
1.857143e+003,5.676919e-004
1.859072e+003,6.118200e-004
1.861000e+003,5.264875e-004
1.862929e+003,4.274406e-004
1.864857e+003,5.101329e-004
1.866786e+003,6.083029e-004
1.868714e+003,6.595366e-004
1.870643e+003,5.067161e-004
1.872571e+003,3.305716e-004
1.874500e+003,4.385847e-004
1.876428e+003,4.800793e-004
1.878357e+003,4.641576e-004
1.880285e+003,4.055511e-004
1.882214e+003,4.150364e-004
1.884142e+003,5.292078e-004
1.886071e+003,4.781222e-004
1.887999e+003,4.757008e-004
1.889928e+003,5.238336e-004
1.891856e+003,4.099289e-004
1.893785e+003,3.964309e-004
1.895713e+003,3.895659e-004
1.897642e+003,4.042577e-004
1.899570e+003,4.980582e-004
1.901499e+003,4.818373e-004
1.903427e+003,4.067119e-004
1.905356e+003,4.367937e-004
1.907284e+003,4.591491e-004
1.909213e+003,4.937127e-004
1.911141e+003,5.064508e-004
1.913070e+003,4.747720e-004
1.914998e+003,5.537576e-004
1.916927e+003,6.754654e-004
1.918855e+003,6.872133e-004
1.920784e+003,6.165649e-004
1.922712e+003,6.020650e-004
1.924641e+003,5.706447e-004
1.926569e+003,5.916798e-004
1.928498e+003,5.579710e-004
1.930426e+003,5.942678e-004
1.932355e+003,5.625163e-004
1.934283e+003,4.467109e-004
1.936212e+003,4.130465e-004
1.938140e+003,4.312216e-004
1.940069e+003,5.153411e-004
1.941997e+003,6.204803e-004
1.943926e+003,6.176599e-004
1.945854e+003,5.311652e-004
1.947783e+003,4.853866e-004
1.949711e+003,5.129859e-004
1.951640e+003,5.499755e-004
1.953568e+003,5.671611e-004
1.955497e+003,5.688199e-004
1.957425e+003,5.956945e-004
1.959354e+003,6.081702e-004
1.961282e+003,5.681232e-004
1.963211e+003,5.025032e-004
1.965139e+003,4.789846e-004
1.967068e+003,4.964991e-004
1.968996e+003,3.968620e-004
1.970925e+003,3.799485e-004
1.972853e+003,4.801456e-004
1.974782e+003,5.321272e-004
1.976710e+003,4.919214e-004
1.978639e+003,5.434068e-004
1.980567e+003,5.203504e-004
1.982496e+003,4.197460e-004
1.984424e+003,4.181208e-004
1.986353e+003,5.383641e-004
1.988281e+003,5.762186e-004
1.990210e+003,5.480845e-004
1.992138e+003,5.616868e-004
1.994067e+003,5.053892e-004
1.995995e+003,4.950395e-004
1.997924e+003,4.772598e-004
1.999852e+003,4.715877e-004
2.001781e+003,4.880735e-004
2.003709e+003,4.799134e-004
2.005638e+003,5.073132e-004
2.007566e+003,5.690522e-004
2.009495e+003,5.276818e-004
2.011423e+003,3.751399e-004
2.013352e+003,3.959334e-004
2.015280e+003,5.080099e-004
2.017208e+003,5.626490e-004
2.019137e+003,5.617863e-004
2.021066e+003,5.339518e-004
2.022994e+003,4.879408e-004
2.024922e+003,5.382314e-004
2.026851e+003,5.161373e-004
2.028780e+003,4.944092e-004
2.030708e+003,4.917555e-004
2.032636e+003,5.345821e-004
2.034565e+003,5.630139e-004
2.036494e+003,5.127536e-004
2.038422e+003,5.089056e-004
2.040350e+003,5.352788e-004
2.042279e+003,4.894998e-004
2.044208e+003,4.636601e-004
2.046136e+003,5.086070e-004
2.048064e+003,5.036974e-004
2.049993e+003,5.241322e-004
2.051921e+003,4.872774e-004
2.053850e+003,4.740423e-004
2.055778e+003,5.008778e-004
2.057707e+003,5.822238e-004
2.059635e+003,5.558145e-004
2.061564e+003,4.655508e-004
2.063492e+003,3.547453e-004
2.065421e+003,3.634668e-004
2.067349e+003,5.386295e-004
2.069278e+003,5.273169e-004
2.071206e+003,4.951722e-004
2.073135e+003,5.900208e-004
2.075063e+003,5.998419e-004
2.076992e+003,6.098292e-004
2.078920e+003,6.086015e-004
2.080849e+003,5.759200e-004
2.082777e+003,4.917887e-004
2.084706e+003,3.918874e-004
2.086634e+003,3.498044e-004
2.088563e+003,3.431723e-004
2.090491e+003,4.215038e-004
2.092420e+003,4.935800e-004
2.094348e+003,5.031999e-004
2.096277e+003,4.534109e-004
2.098205e+003,4.244888e-004
2.100134e+003,4.208405e-004
2.102062e+003,4.793163e-004
2.103991e+003,4.688014e-004
2.105919e+003,4.412050e-004
2.107848e+003,5.151753e-004
2.109776e+003,4.761320e-004
2.111705e+003,3.709283e-004
2.113633e+003,3.647269e-004
2.115562e+003,4.458485e-004
2.117490e+003,4.756676e-004
2.119419e+003,5.396579e-004
2.121347e+003,4.801456e-004
2.123276e+003,3.920532e-004
2.125204e+003,4.389496e-004
2.127133e+003,4.580213e-004
2.129061e+003,5.663648e-004
2.130990e+003,6.191531e-004
2.132918e+003,4.724833e-004
2.134847e+003,3.783898e-004
2.136775e+003,4.133781e-004
2.138704e+003,4.829983e-004
2.140632e+003,5.499092e-004
2.142561e+003,5.076781e-004
2.144489e+003,4.041582e-004
2.146418e+003,3.900965e-004
2.148346e+003,4.759661e-004
2.150275e+003,5.082089e-004
2.152203e+003,5.334210e-004
2.154132e+003,5.771475e-004
2.156060e+003,4.928170e-004
2.157989e+003,4.338086e-004
2.159917e+003,4.345715e-004
2.161846e+003,4.182204e-004
2.163774e+003,4.357323e-004
2.165703e+003,5.012759e-004
2.167631e+003,5.204831e-004
2.169560e+003,6.313639e-004
2.171488e+003,5.933387e-004
2.173417e+003,4.639918e-004
2.175345e+003,4.324488e-004
2.177274e+003,4.798139e-004
2.179202e+003,5.341177e-004
2.181131e+003,4.918218e-004
2.183059e+003,4.880403e-004
2.184988e+003,6.015010e-004
2.186916e+003,6.136450e-004
2.188845e+003,5.712751e-004
2.190773e+003,4.586847e-004
2.192702e+003,4.161972e-004
2.194630e+003,4.944092e-004
2.196559e+003,5.369707e-004
2.198487e+003,5.497765e-004
2.200416e+003,4.888033e-004
2.202344e+003,5.023042e-004
2.204273e+003,5.128863e-004
2.206201e+003,4.922531e-004
2.208130e+003,5.306675e-004
2.210058e+003,5.346485e-004
2.211987e+003,5.377338e-004
2.213915e+003,5.967231e-004
2.215844e+003,6.960077e-004
2.217772e+003,6.453007e-004
2.219701e+003,5.233692e-004
2.221629e+003,4.595471e-004
2.223558e+003,4.335765e-004
2.225486e+003,5.177296e-004
2.227415e+003,5.328902e-004
2.229343e+003,4.918218e-004
2.231272e+003,4.442232e-004
2.233200e+003,5.650045e-004
2.235129e+003,6.467940e-004
2.237057e+003,5.551178e-004
2.238986e+003,5.161705e-004
2.240914e+003,5.331225e-004
2.242843e+003,5.230706e-004
2.244771e+003,5.560468e-004
2.246700e+003,5.635779e-004
2.248628e+003,6.133132e-004
2.250557e+003,5.059863e-004
2.252485e+003,4.796149e-004
2.254414e+003,5.780433e-004
2.256342e+003,5.574070e-004
2.258271e+003,5.162700e-004
2.260199e+003,5.685545e-004
2.262128e+003,6.592379e-004
2.264056e+003,6.222057e-004
2.265985e+003,5.956945e-004
2.267913e+003,6.480881e-004
2.269842e+003,6.696911e-004
2.271770e+003,6.952445e-004
2.273699e+003,6.849234e-004
2.275627e+003,6.602003e-004
2.277556e+003,5.770812e-004
2.279484e+003,5.776452e-004
2.281413e+003,7.195381e-004
2.283341e+003,7.543216e-004
2.285270e+003,7.041055e-004
2.287198e+003,6.326913e-004
2.289127e+003,6.861181e-004
2.291055e+003,7.180778e-004
2.292984e+003,7.818383e-004
2.294912e+003,8.147014e-004
2.296841e+003,9.239308e-004
2.298769e+003,1.177754e-003
2.300698e+003,1.325161e-003
2.302626e+003,1.487047e-003
2.304555e+003,1.660435e-003
2.306483e+003,1.938353e-003
2.308412e+003,2.215383e-003
2.310340e+003,2.477694e-003
2.312269e+003,2.912885e-003
2.314197e+003,3.483932e-003
2.316125e+003,4.173708e-003
2.318054e+003,4.826584e-003
2.319983e+003,5.452125e-003
2.321911e+003,6.103669e-003
2.323840e+003,6.715540e-003
2.325768e+003,7.224598e-003
2.327697e+003,7.798445e-003
2.329625e+003,8.517786e-003
2.331553e+003,8.876280e-003
2.333482e+003,8.890247e-003
2.335411e+003,9.011405e-003
2.337339e+003,9.313635e-003
2.339268e+003,9.480186e-003
2.341196e+003,9.243803e-003
2.343125e+003,8.712394e-003
2.345053e+003,7.457457e-003
2.346981e+003,5.347688e-003
2.348910e+003,4.200170e-003
2.350839e+003,5.637811e-003
2.352767e+003,8.192203e-003
2.354696e+003,1.017427e-002
2.356624e+003,1.144298e-002
2.358552e+003,1.208647e-002
2.360481e+003,1.234404e-002
2.362409e+003,1.236815e-002
2.364338e+003,1.201677e-002
2.366267e+003,1.129335e-002
2.368195e+003,1.032646e-002
2.370124e+003,9.053084e-003
2.372052e+003,7.552828e-003
2.373980e+003,6.012211e-003
2.375909e+003,4.561679e-003
2.377838e+003,3.271888e-003
2.379766e+003,2.095707e-003
2.381695e+003,1.281525e-003
2.383623e+003,9.831054e-004
2.385552e+003,7.812740e-004
2.387480e+003,6.236989e-004
2.389408e+003,6.707199e-004
2.391337e+003,7.346062e-004
2.393266e+003,6.402569e-004
2.395194e+003,5.544543e-004
2.397123e+003,6.186885e-004
2.399051e+003,6.445707e-004
2.400979e+003,6.490173e-004
2.402908e+003,6.532980e-004
2.404836e+003,6.218739e-004
2.406765e+003,6.241635e-004
2.408694e+003,5.285775e-004
2.410622e+003,4.993851e-004
2.412551e+003,4.845573e-004
2.414479e+003,5.124219e-004
2.416407e+003,5.562459e-004
2.418336e+003,5.908503e-004
2.420264e+003,6.159345e-004
2.422193e+003,6.024632e-004
2.424122e+003,6.317290e-004
2.426050e+003,6.505769e-004
2.427979e+003,5.304353e-004
2.429907e+003,5.151753e-004
2.431835e+003,5.831528e-004
2.433764e+003,6.951117e-004
2.435692e+003,7.113737e-004
2.437621e+003,6.176267e-004
2.439550e+003,5.108627e-004
2.441478e+003,4.507905e-004
2.443406e+003,4.985557e-004
2.445335e+003,5.794368e-004
2.447263e+003,5.377006e-004
2.449192e+003,4.981245e-004
2.451121e+003,4.852871e-004
2.453049e+003,5.190234e-004
2.454978e+003,5.331556e-004
2.456906e+003,5.434068e-004
2.458834e+003,5.843472e-004
2.460763e+003,6.134791e-004
2.462691e+003,5.373025e-004
2.464620e+003,4.586847e-004
2.466549e+003,5.025696e-004
2.468477e+003,6.138109e-004
2.470406e+003,6.048190e-004
2.472334e+003,4.947078e-004
2.474262e+003,4.616368e-004
2.476191e+003,5.158719e-004
2.478119e+003,5.083748e-004
2.480048e+003,5.220090e-004
2.481977e+003,5.977185e-004
2.483905e+003,5.935710e-004
2.485833e+003,5.360087e-004
2.487762e+003,5.391271e-004
2.489690e+003,5.526296e-004
2.491619e+003,6.417501e-004
2.493547e+003,7.715815e-004
2.495476e+003,7.538569e-004
2.497405e+003,6.454003e-004
2.499333e+003,5.914143e-004
2.501261e+003,5.114599e-004
2.503190e+003,4.987880e-004
2.505118e+003,5.451982e-004
2.507047e+003,5.059532e-004
2.508975e+003,5.864043e-004
2.510904e+003,6.221725e-004
2.512833e+003,6.138109e-004
2.514761e+003,5.649382e-004
2.516689e+003,4.812402e-004
2.518618e+003,5.490466e-004
2.520546e+003,6.357440e-004
2.522475e+003,5.653363e-004
2.524403e+003,4.223330e-004
2.526332e+003,3.914562e-004
2.528260e+003,5.229711e-004
2.530189e+003,5.811289e-004
2.532117e+003,4.431619e-004
2.534046e+003,4.195138e-004
2.535974e+003,5.439044e-004
2.537903e+003,5.640424e-004
2.539831e+003,6.182240e-004
2.541760e+003,5.773134e-004
2.543688e+003,5.509045e-004
2.545617e+003,5.850440e-004
2.547545e+003,6.016337e-004
2.549474e+003,5.534590e-004
2.551402e+003,4.509564e-004
2.553331e+003,4.524821e-004
2.555259e+003,4.998826e-004
2.557188e+003,4.649537e-004
2.559116e+003,4.521504e-004
2.561045e+003,4.618358e-004
2.562973e+003,3.999794e-004
2.564902e+003,5.166349e-004
2.566830e+003,6.644479e-004
2.568759e+003,5.701802e-004
2.570687e+003,5.234024e-004
2.572616e+003,5.697820e-004
2.574544e+003,5.832192e-004
2.576473e+003,5.193551e-004
2.578401e+003,5.261890e-004
2.580330e+003,4.719525e-004
2.582258e+003,4.272416e-004
2.584187e+003,5.498428e-004
2.586115e+003,5.185258e-004
2.588044e+003,4.015382e-004
2.589972e+003,4.058828e-004
2.591901e+003,5.001480e-004
2.593829e+003,5.062186e-004
2.595758e+003,5.011432e-004
2.597686e+003,4.767290e-004
2.599615e+003,4.201108e-004
2.601543e+003,4.339745e-004
2.603472e+003,4.947410e-004
2.605400e+003,5.138483e-004
2.607329e+003,5.430086e-004
2.609257e+003,5.234355e-004
2.611186e+003,5.007783e-004
2.613114e+003,5.131185e-004
2.615043e+003,4.430292e-004
2.616971e+003,3.268909e-004
2.618900e+003,3.807776e-004
2.620828e+003,4.944424e-004
2.622757e+003,5.842809e-004
2.624685e+003,5.669952e-004
2.626614e+003,4.907936e-004
2.628542e+003,5.120570e-004
2.630471e+003,5.836505e-004
2.632399e+003,5.281131e-004
2.634328e+003,4.672756e-004
2.636256e+003,4.553015e-004
2.638185e+003,5.394921e-004
2.640113e+003,5.886273e-004
2.642042e+003,4.799466e-004
2.643970e+003,5.351461e-004
2.645899e+003,6.237653e-004
2.647827e+003,6.173945e-004
2.649756e+003,6.317290e-004
2.651684e+003,6.613286e-004
2.653613e+003,6.092319e-004
2.655541e+003,5.467575e-004
2.657470e+003,4.993851e-004
2.659398e+003,5.169334e-004
2.661327e+003,6.257894e-004
2.663255e+003,5.561131e-004
2.665184e+003,4.468767e-004
2.667112e+003,5.764840e-004
2.669041e+003,6.039231e-004
2.670969e+003,5.985147e-004
2.672898e+003,5.579047e-004
2.674826e+003,4.214043e-004
2.676755e+003,4.155007e-004
2.678683e+003,5.092705e-004
2.680612e+003,5.135830e-004
2.682540e+003,4.757008e-004
2.684469e+003,4.812402e-004
2.686397e+003,5.733653e-004
2.688326e+003,5.629807e-004
2.690254e+003,5.748915e-004
2.692183e+003,5.317291e-004
2.694111e+003,4.824344e-004
2.696040e+003,4.437589e-004
2.697968e+003,4.579218e-004
2.699897e+003,5.847786e-004
2.701825e+003,5.942346e-004
2.703754e+003,5.484163e-004
2.705682e+003,6.210444e-004
2.707611e+003,6.253580e-004
2.709539e+003,6.159677e-004
2.711468e+003,5.770148e-004
2.713396e+003,5.729339e-004
2.715325e+003,5.674265e-004
2.717253e+003,4.610729e-004
2.719182e+003,4.388501e-004
2.721110e+003,4.152354e-004
2.723039e+003,4.522500e-004
2.724967e+003,5.638102e-004
2.726896e+003,5.474542e-004
2.728824e+003,5.369376e-004
2.730753e+003,5.743938e-004
2.732681e+003,4.687351e-004
2.734610e+003,4.137761e-004
2.736538e+003,4.666785e-004
2.738467e+003,4.535435e-004
2.740395e+003,5.404873e-004
2.742324e+003,6.042217e-004
2.744252e+003,5.299377e-004
2.746181e+003,4.382530e-004
2.748109e+003,4.437921e-004
2.750038e+003,5.159383e-004
2.751966e+003,4.833632e-004
2.753895e+003,4.575238e-004
2.755823e+003,5.277150e-004
2.757752e+003,5.025032e-004
2.759680e+003,4.333111e-004
2.761609e+003,5.033325e-004
2.763537e+003,6.835296e-004
2.765466e+003,6.738061e-004
2.767394e+003,6.471258e-004
2.769323e+003,6.538953e-004
2.771251e+003,6.554549e-004
2.773180e+003,6.118200e-004
2.775108e+003,5.311983e-004
2.777037e+003,5.081426e-004
2.778965e+003,4.750705e-004
2.780894e+003,4.669107e-004
2.782822e+003,5.842145e-004
2.784750e+003,5.902531e-004
2.786679e+003,5.555823e-004
2.788608e+003,5.315632e-004
2.790536e+003,5.500419e-004
2.792465e+003,4.875427e-004
2.794393e+003,4.956366e-004
2.796322e+003,5.259899e-004
2.798250e+003,4.881730e-004
2.800178e+003,4.460143e-004
2.802107e+003,4.222335e-004
2.804036e+003,4.507574e-004
2.805964e+003,4.339413e-004
2.807893e+003,4.759330e-004
2.809821e+003,3.957676e-004
2.811750e+003,3.747088e-004
2.813678e+003,3.914562e-004
2.815606e+003,4.694980e-004
2.817535e+003,5.002143e-004
2.819464e+003,5.203504e-004
2.821392e+003,5.244308e-004
2.823321e+003,5.149762e-004
2.825249e+003,5.507386e-004
2.827177e+003,5.464589e-004
2.829106e+003,4.629635e-004
2.831034e+003,3.411827e-004
2.832963e+003,4.217028e-004
2.834892e+003,5.794700e-004
2.836820e+003,5.380655e-004
2.838749e+003,4.235601e-004
2.840677e+003,4.091993e-004
2.842605e+003,5.663980e-004
2.844534e+003,6.293398e-004
2.846462e+003,4.826666e-004
2.848391e+003,4.629635e-004
2.850320e+003,5.299045e-004
2.852248e+003,4.844578e-004
2.854177e+003,4.688346e-004
2.856105e+003,5.157061e-004
2.858033e+003,4.746061e-004
2.859962e+003,5.553501e-004
2.861890e+003,5.540894e-004
2.863819e+003,4.908599e-004
2.865748e+003,5.311652e-004
2.867676e+003,5.282126e-004
2.869604e+003,5.820247e-004
2.871533e+003,5.600280e-004
2.873461e+003,5.113935e-004
2.875390e+003,4.285351e-004
2.877319e+003,4.009744e-004
2.879247e+003,4.810744e-004
2.881176e+003,4.216696e-004
2.883104e+003,4.628972e-004
2.885032e+003,6.683969e-004
2.886961e+003,6.337199e-004
2.888889e+003,5.965572e-004
2.890818e+003,6.425465e-004
2.892747e+003,5.780433e-004
2.894675e+003,5.317291e-004
2.896604e+003,5.751901e-004
2.898532e+003,5.820579e-004
2.900460e+003,5.955950e-004
2.902389e+003,5.830201e-004
2.904317e+003,5.801004e-004
2.906246e+003,5.442693e-004
2.908175e+003,5.166681e-004
2.910103e+003,5.140474e-004
2.912031e+003,5.345821e-004
2.913960e+003,5.727017e-004
2.915888e+003,5.668956e-004
2.917817e+003,5.921443e-004
2.919745e+003,6.616272e-004
2.921674e+003,6.801778e-004
2.923603e+003,6.718482e-004
2.925531e+003,6.320608e-004
2.927459e+003,5.837500e-004
2.929388e+003,5.401224e-004
2.931316e+003,4.657829e-004
2.933245e+003,3.930813e-004
2.935173e+003,4.041582e-004
2.937102e+003,4.664463e-004
2.939031e+003,5.121233e-004
2.940959e+003,3.835301e-004
2.942887e+003,3.231771e-004
2.944816e+003,4.494638e-004
2.946744e+003,5.430750e-004
2.948673e+003,5.569094e-004
2.950601e+003,4.392813e-004
2.952530e+003,4.111229e-004
2.954458e+003,4.960347e-004
2.956387e+003,6.143086e-004
2.958315e+003,6.466612e-004
2.960244e+003,5.393593e-004
2.962172e+003,4.937790e-004
2.964101e+003,5.585682e-004
2.966029e+003,5.622840e-004
2.967958e+003,5.948982e-004
2.969886e+003,6.109573e-004
2.971815e+003,6.374032e-004
2.973743e+003,6.486854e-004
2.975672e+003,6.613617e-004
2.977600e+003,6.931537e-004
2.979529e+003,6.643484e-004
2.981457e+003,7.039396e-004
2.983386e+003,6.553222e-004
2.985314e+003,5.553501e-004
2.987243e+003,5.548524e-004
2.989171e+003,6.674014e-004
2.991100e+003,4.826334e-004
2.993028e+003,4.135108e-004
2.994957e+003,5.744270e-004
2.996885e+003,7.027116e-004
2.998814e+003,7.811745e-004
3.000742e+003,6.842929e-004
3.002671e+003,5.916135e-004
3.004599e+003,5.456958e-004
3.006528e+003,5.893241e-004
3.008456e+003,5.659998e-004
3.010385e+003,5.833187e-004
3.012313e+003,6.645474e-004
3.014242e+003,6.880097e-004
3.016170e+003,6.374363e-004
3.018099e+003,5.634120e-004
3.020027e+003,4.631625e-004
3.021956e+003,4.730803e-004
3.023884e+003,5.450987e-004
3.025813e+003,6.216085e-004
3.027741e+003,5.627485e-004
3.029670e+003,5.252933e-004
3.031598e+003,5.621513e-004
3.033527e+003,5.606583e-004
3.035455e+003,5.857408e-004
3.037384e+003,5.569425e-004
3.039312e+003,5.289093e-004
3.041241e+003,5.420466e-004
3.043169e+003,4.185188e-004
3.045098e+003,3.974921e-004
3.047026e+003,3.738134e-004
3.048955e+003,4.011734e-004
3.050883e+003,5.024037e-004
3.052812e+003,5.705120e-004
3.054740e+003,5.297718e-004
3.056669e+003,6.093979e-004
3.058597e+003,6.329567e-004
3.060526e+003,5.454636e-004
3.062454e+003,4.965654e-004
3.064383e+003,5.217768e-004
3.066311e+003,5.187580e-004
3.068240e+003,6.605985e-004
3.070168e+003,6.074402e-004
3.072097e+003,5.486485e-004
3.074025e+003,5.695167e-004
3.075954e+003,5.446342e-004
3.077882e+003,5.302362e-004
3.079811e+003,5.006456e-004
3.081739e+003,4.513544e-004
3.083668e+003,3.587579e-004
3.085596e+003,3.009613e-004
3.087525e+003,3.095159e-004
3.089453e+003,4.436262e-004
3.091382e+003,4.626982e-004
3.093310e+003,4.187510e-004
3.095239e+003,5.341840e-004
3.097167e+003,5.287434e-004
3.099096e+003,4.923194e-004
3.101024e+003,5.005461e-004
3.102953e+003,5.283121e-004
3.104881e+003,4.269762e-004
3.106810e+003,5.024369e-004
3.108738e+003,5.300704e-004
3.110667e+003,5.738961e-004
3.112595e+003,6.723792e-004
3.114524e+003,6.630542e-004
3.116452e+003,5.077445e-004
3.118381e+003,4.716872e-004
3.120309e+003,5.325253e-004
3.122238e+003,5.977185e-004
3.124166e+003,5.714078e-004
3.126095e+003,5.416484e-004
3.128023e+003,5.609238e-004
3.129952e+003,5.624831e-004
3.131880e+003,5.127868e-004
3.133809e+003,5.015744e-004
3.135737e+003,4.034286e-004
3.137666e+003,4.436594e-004
3.139594e+003,5.709433e-004
3.141523e+003,5.664311e-004
3.143451e+003,5.183931e-004
3.145380e+003,5.140806e-004
3.147308e+003,4.435267e-004
3.149237e+003,4.653517e-004
3.151165e+003,5.757873e-004
3.153094e+003,5.858403e-004
3.155022e+003,5.528618e-004
3.156951e+003,4.862491e-004
3.158879e+003,4.478386e-004
3.160808e+003,5.577056e-004
3.162736e+003,6.473249e-004
3.164665e+003,6.512406e-004
3.166593e+003,5.968889e-004
3.168522e+003,4.804110e-004
3.170450e+003,5.048917e-004
3.172379e+003,5.527955e-004
3.174307e+003,4.814724e-004
3.176236e+003,5.452314e-004
3.178164e+003,6.193853e-004
3.180093e+003,4.941770e-004
3.182021e+003,4.464787e-004
3.183950e+003,5.280136e-004
3.185878e+003,5.405868e-004
3.187807e+003,5.714078e-004
3.189735e+003,6.075397e-004
3.191664e+003,5.271179e-004
3.193592e+003,5.934715e-004
3.195521e+003,6.592047e-004
3.197449e+003,6.080375e-004
3.199378e+003,5.168008e-004
3.201306e+003,4.322829e-004
3.203235e+003,4.292979e-004
3.205163e+003,4.454173e-004
3.207092e+003,5.449991e-004
3.209020e+003,6.653107e-004
3.210948e+003,7.562799e-004
3.212877e+003,6.266189e-004
3.214806e+003,5.640424e-004
3.216734e+003,5.733984e-004
3.218663e+003,5.876983e-004
3.220591e+003,6.300699e-004
3.222520e+003,8.222038e-004
3.224448e+003,7.174804e-004
3.226376e+003,4.968971e-004
3.228305e+003,4.524158e-004
3.230234e+003,6.196176e-004
3.232162e+003,6.543599e-004
3.234091e+003,5.661325e-004
3.236019e+003,3.810097e-004
3.237948e+003,2.427084e-004
3.239876e+003,4.398783e-004
3.241804e+003,7.474842e-004
3.243733e+003,7.094820e-004
3.245662e+003,5.518666e-004
3.247590e+003,6.960742e-004
3.249519e+003,6.463958e-004
3.251447e+003,5.974862e-004
3.253375e+003,5.610897e-004
3.255304e+003,5.896891e-004
3.257232e+003,7.042715e-004
3.259161e+003,7.399166e-004
3.261090e+003,7.316523e-004
3.263018e+003,6.247608e-004
3.264947e+003,5.934383e-004
3.266875e+003,5.798350e-004
3.268803e+003,6.237653e-004
3.270732e+003,6.338194e-004
3.272660e+003,6.321272e-004
3.274589e+003,6.063784e-004
3.276518e+003,5.985480e-004
3.278446e+003,6.807087e-004
3.280375e+003,6.479886e-004
3.282303e+003,6.331226e-004
3.284231e+003,7.419081e-004
3.286160e+003,7.187416e-004
3.288088e+003,6.352131e-004
3.290017e+003,4.970630e-004
3.291946e+003,5.629807e-004
3.293874e+003,7.341415e-004
3.295802e+003,7.108095e-004
3.297731e+003,6.729765e-004
3.299659e+003,7.668350e-004
3.301588e+003,6.350472e-004
3.303516e+003,4.607412e-004
3.305445e+003,5.266866e-004
3.307374e+003,8.068007e-004
3.309302e+003,9.123093e-004
3.311230e+003,6.820694e-004
3.313159e+003,5.117253e-004
3.315087e+003,5.688199e-004
3.317016e+003,8.384041e-004
3.318944e+003,8.922879e-004
3.320873e+003,6.986628e-004
3.322802e+003,6.410533e-004
3.324730e+003,6.121519e-004
3.326658e+003,5.440371e-004
3.328587e+003,5.675260e-004
3.330515e+003,5.300040e-004
3.332444e+003,4.497292e-004
3.334372e+003,5.730666e-004
3.336301e+003,6.148063e-004
3.338229e+003,6.043212e-004
3.340158e+003,6.102938e-004
3.342086e+003,6.784521e-004
3.344015e+003,7.131327e-004
3.345943e+003,7.318514e-004
3.347872e+003,6.111896e-004
3.349800e+003,5.635779e-004
3.351729e+003,4.988211e-004
3.353657e+003,5.399897e-004
3.355586e+003,5.382314e-004
3.357514e+003,5.614546e-004
3.359443e+003,5.448664e-004
3.361371e+003,4.838276e-004
3.363300e+003,5.683223e-004
3.365229e+003,6.991606e-004
3.367157e+003,5.792378e-004
3.369085e+003,3.883720e-004
3.371014e+003,4.485019e-004
3.372942e+003,6.234666e-004
3.374871e+003,5.075787e-004
3.376799e+003,6.104265e-004
3.378728e+003,7.464552e-004
3.380656e+003,6.748681e-004
3.382585e+003,5.054224e-004
3.384513e+003,5.588668e-004
3.386442e+003,6.210112e-004
3.388370e+003,6.027618e-004
3.390299e+003,5.875324e-004
3.392227e+003,6.684301e-004
3.394156e+003,6.386309e-004
3.396084e+003,7.275036e-004
3.398013e+003,7.406469e-004
3.399941e+003,5.955618e-004
3.401870e+003,5.405537e-004
3.403798e+003,6.532648e-004
3.405727e+003,7.794484e-004
3.407655e+003,8.547047e-004
3.409584e+003,7.406469e-004
3.411512e+003,5.250610e-004
3.413441e+003,3.684079e-004
3.415369e+003,4.475732e-004
3.417298e+003,5.421460e-004
3.419226e+003,5.020720e-004
3.421155e+003,5.127536e-004
3.423083e+003,5.744601e-004
3.425012e+003,6.764278e-004
3.426940e+003,8.034148e-004
3.428869e+003,7.621881e-004
3.430797e+003,6.997248e-004
3.432726e+003,6.068430e-004
3.434654e+003,6.115878e-004
3.436583e+003,4.930824e-004
3.438511e+003,3.775276e-004
3.440440e+003,4.836285e-004
3.442368e+003,4.742413e-004
3.444297e+003,5.313642e-004
3.446225e+003,7.845934e-004
3.448154e+003,8.674866e-004
3.450082e+003,7.104776e-004
3.452011e+003,7.145598e-004
3.453939e+003,8.384041e-004
3.455868e+003,8.197804e-004
3.457796e+003,8.383045e-004
3.459725e+003,8.371758e-004
3.461653e+003,8.049750e-004
3.463582e+003,8.766168e-004
3.465510e+003,7.672333e-004
3.467439e+003,5.414162e-004
3.469367e+003,5.334874e-004
3.471296e+003,7.840291e-004
3.473224e+003,9.421605e-004
3.475153e+003,7.841951e-004
3.477081e+003,8.582238e-004
3.479010e+003,8.319305e-004
3.480938e+003,7.145598e-004
3.482867e+003,6.683305e-004
3.484795e+003,7.235872e-004
3.486724e+003,6.957754e-004
3.488652e+003,6.496477e-004
3.490581e+003,7.512016e-004
3.492509e+003,8.860460e-004
3.494438e+003,8.860460e-004
3.496366e+003,8.181870e-004
3.498295e+003,8.121452e-004
3.500223e+003,9.300404e-004
3.502152e+003,9.101179e-004
3.504080e+003,8.279469e-004
3.506009e+003,6.742707e-004
3.507937e+003,6.282448e-004
3.509866e+003,7.199696e-004
3.511794e+003,8.777124e-004
3.513723e+003,8.931512e-004
3.515651e+003,8.703750e-004
3.517580e+003,8.014230e-004
3.519508e+003,7.696232e-004
3.521437e+003,7.561139e-004
3.523365e+003,7.700879e-004
3.525294e+003,7.541556e-004
3.527222e+003,6.926559e-004
3.529151e+003,6.886071e-004
3.531079e+003,7.095815e-004
3.533008e+003,7.612586e-004
3.534936e+003,7.208657e-004
3.536865e+003,6.607644e-004
3.538793e+003,6.830318e-004
3.540722e+003,7.096479e-004
3.542650e+003,7.121370e-004
3.544579e+003,7.957799e-004
3.546507e+003,1.003729e-003
3.548436e+003,1.009242e-003
3.550364e+003,8.367110e-004
3.552293e+003,7.516331e-004
3.554221e+003,8.069003e-004
3.556150e+003,7.421072e-004
3.558078e+003,7.936222e-004
3.560007e+003,8.334244e-004
3.561935e+003,8.333249e-004
3.563864e+003,8.745583e-004
3.565792e+003,1.041391e-003
3.567721e+003,1.050293e-003
3.569649e+003,8.849835e-004
3.571578e+003,8.768160e-004
3.573506e+003,9.304721e-004
3.575435e+003,8.109170e-004
3.577363e+003,8.389021e-004
3.579292e+003,8.159960e-004
3.581220e+003,7.516663e-004
3.583149e+003,7.411779e-004
3.585077e+003,9.860942e-004
3.587006e+003,1.240486e-003
3.588934e+003,1.167954e-003
3.590863e+003,1.062482e-003
3.592791e+003,1.018176e-003
3.594720e+003,9.080592e-004
3.596648e+003,9.279817e-004
3.598577e+003,9.075612e-004
3.600505e+003,1.010105e-003
3.602434e+003,1.094337e-003
3.604362e+003,9.807475e-004
3.606291e+003,9.164266e-004
3.608219e+003,1.158585e-003
3.610148e+003,1.125098e-003
3.612076e+003,1.007482e-003
3.614005e+003,9.464773e-004
3.615933e+003,1.064442e-003
3.617862e+003,1.141343e-003
3.619790e+003,8.608466e-004
3.621719e+003,6.966715e-004
3.623647e+003,8.976999e-004
3.625576e+003,1.206494e-003
3.627504e+003,1.691768e-003
3.629433e+003,1.723935e-003
3.631361e+003,1.215532e-003
3.633290e+003,9.919059e-004
3.635218e+003,8.754547e-004
3.637146e+003,9.623170e-004
3.639075e+003,9.034108e-004
3.641004e+003,7.432357e-004
3.642932e+003,8.263534e-004
3.644861e+003,8.701427e-004
3.646789e+003,1.152937e-003
3.648718e+003,1.395028e-003
3.650646e+003,1.248129e-003
3.652574e+003,8.918231e-004
3.654503e+003,1.007083e-003
3.656432e+003,1.149615e-003
3.658360e+003,9.561736e-004
3.660289e+003,9.119773e-004
3.662217e+003,8.441806e-004
3.664146e+003,6.275148e-004
3.666074e+003,7.238195e-004
3.668002e+003,9.737073e-004
3.669931e+003,1.145628e-003
3.671860e+003,1.086298e-003
3.673788e+003,1.248627e-003
3.675717e+003,1.300468e-003
3.677645e+003,9.298744e-004
3.679573e+003,8.880049e-004
3.681502e+003,1.117258e-003
3.683430e+003,1.199949e-003
3.685359e+003,1.173901e-003
3.687288e+003,1.381399e-003
3.689216e+003,1.382662e-003
3.691145e+003,1.118221e-003
3.693073e+003,9.835372e-004
3.695001e+003,1.079589e-003
3.696930e+003,1.190313e-003
3.698858e+003,1.070089e-003
3.700787e+003,1.112076e-003
3.702716e+003,9.938985e-004
3.704644e+003,9.139363e-004
3.706573e+003,1.086631e-003
3.708501e+003,1.249956e-003
3.710429e+003,1.373621e-003
3.712358e+003,1.043849e-003
3.714286e+003,6.574128e-004
3.716215e+003,7.770252e-004
3.718144e+003,1.027209e-003
3.720072e+003,1.138153e-003
3.722000e+003,1.178751e-003
3.723929e+003,1.158452e-003
3.725857e+003,1.182439e-003
3.727786e+003,9.413303e-004
3.729714e+003,8.959402e-004
3.731643e+003,1.195795e-003
3.733572e+003,1.325294e-003
3.735500e+003,1.451673e-003
3.737428e+003,1.153203e-003
3.739357e+003,9.585646e-004
3.741285e+003,1.260291e-003
3.743214e+003,1.777031e-003
3.745142e+003,1.616400e-003
3.747071e+003,1.197191e-003
3.749000e+003,1.574165e-003
3.750928e+003,1.557272e-003
3.752856e+003,1.209418e-003
3.754785e+003,1.058065e-003
3.756713e+003,1.115829e-003
3.758642e+003,1.066003e-003
3.760570e+003,9.496983e-004
3.762499e+003,8.643990e-004
3.764427e+003,8.628386e-004
3.766356e+003,8.752223e-004
3.768284e+003,8.978327e-004
3.770213e+003,9.799505e-004
3.772141e+003,8.430519e-004
3.774070e+003,6.714168e-004
3.775998e+003,7.170489e-004
3.777927e+003,8.667230e-004
3.779855e+003,1.082910e-003
3.781784e+003,9.941310e-004
3.783712e+003,9.205107e-004
3.785641e+003,1.136725e-003
3.787569e+003,1.169382e-003
3.789498e+003,7.486459e-004
3.791426e+003,4.866139e-004
3.793355e+003,5.959268e-004
3.795283e+003,8.504220e-004
3.797212e+003,9.698552e-004
3.799140e+003,1.114135e-003
3.801069e+003,1.162073e-003
3.802997e+003,7.663703e-004
3.804926e+003,8.732967e-004
3.806854e+003,1.212043e-003
3.808783e+003,9.603910e-004
3.810711e+003,8.205771e-004
3.812640e+003,7.794152e-004
3.814568e+003,7.578399e-004
3.816497e+003,9.573691e-004
3.818425e+003,1.056305e-003
3.820354e+003,1.482958e-003
3.822282e+003,1.472119e-003
3.824211e+003,1.026545e-003
3.826139e+003,8.554351e-004
3.828068e+003,8.392673e-004
3.829996e+003,9.784229e-004
3.831925e+003,1.040461e-003
3.833853e+003,8.693790e-004
3.835782e+003,1.083475e-003
3.837710e+003,1.444127e-003
3.839639e+003,1.217060e-003
3.841567e+003,1.103638e-003
3.843496e+003,1.184997e-003
3.845424e+003,9.248605e-004
3.847353e+003,5.490466e-004
3.849281e+003,6.791822e-004
3.851210e+003,1.468230e-003
3.853138e+003,2.040974e-003
3.855067e+003,1.530105e-003
3.856995e+003,9.397033e-004
3.858924e+003,9.725782e-004
3.860852e+003,1.244773e-003
3.862781e+003,1.403072e-003
3.864709e+003,1.394762e-003
3.866638e+003,1.113139e-003
3.868566e+003,1.357766e-003
3.870495e+003,1.531668e-003
3.872423e+003,1.362154e-003
3.874352e+003,1.275976e-003
3.876280e+003,1.135662e-003
3.878209e+003,1.109352e-003
3.880137e+003,1.114202e-003
3.882066e+003,9.014186e-004
3.883994e+003,1.018774e-003
3.885923e+003,1.315457e-003
3.887851e+003,1.252083e-003
3.889780e+003,1.473350e-003
3.891708e+003,1.563258e-003
3.893637e+003,1.285281e-003
3.895565e+003,1.039232e-003
3.897494e+003,9.286458e-004
3.899422e+003,1.039664e-003
3.901351e+003,9.933340e-004
3.903279e+003,9.544801e-004
3.905208e+003,8.911591e-004
3.907136e+003,6.512738e-004
3.909065e+003,6.490173e-004
3.910993e+003,6.913284e-004
3.912922e+003,6.557536e-004
3.914850e+003,8.959402e-004
3.916779e+003,1.098755e-003
3.918707e+003,8.227349e-004
3.920636e+003,6.600012e-004
3.922564e+003,9.498976e-004
3.924493e+003,1.168718e-003
3.926421e+003,1.006186e-003
3.928350e+003,8.356155e-004
3.930278e+003,7.982695e-004
3.932207e+003,8.473345e-004
3.934135e+003,6.242630e-004
3.936064e+003,5.827878e-004
3.937992e+003,9.152977e-004
3.939921e+003,9.232335e-004
3.941849e+003,6.071748e-004
3.943778e+003,4.228968e-004
3.945706e+003,6.524352e-004
3.947635e+003,1.085069e-003
3.949563e+003,1.160611e-003
3.951492e+003,9.782237e-004
3.953420e+003,8.829250e-004
3.955349e+003,6.216749e-004
3.957277e+003,5.389944e-004
3.959206e+003,5.475205e-004
3.961134e+003,5.551842e-004
3.963063e+003,7.173145e-004
3.964991e+003,8.120789e-004
3.966920e+003,7.719467e-004
3.968848e+003,9.304389e-004
3.970777e+003,9.877547e-004
3.972705e+003,1.101579e-003
3.974634e+003,9.743715e-004
3.976562e+003,6.248271e-004
3.978491e+003,7.019815e-004
3.980419e+003,9.088562e-004
3.982348e+003,1.066003e-003
3.984276e+003,1.024054e-003
3.986205e+003,7.173477e-004
3.988133e+003,7.074575e-004
3.990062e+003,9.604906e-004
3.991990e+003,9.029792e-004
3.993919e+003,5.643741e-004
3.995847e+003,4.307904e-004
3.997776e+003,6.461967e-004
3.999704e+003,6.604989e-004
4.001633e+003,0.000000e+000
