3.991989e+002,-8.289179e-004
4.011274e+002,5.452977e-004
4.030559e+002,-6.782773e-003
4.049844e+002,-7.737799e-003
4.069129e+002,-7.073618e-003
4.088414e+002,-1.564518e-003
4.107699e+002,-4.038852e-005
4.126984e+002,-3.879843e-003
4.146269e+002,-9.469979e-003
4.165554e+002,-8.455852e-003
4.184839e+002,-2.082642e-003
4.204124e+002,-7.024360e-006
4.223409e+002,-3.519841e-003
4.242694e+002,-2.912008e-003
4.261979e+002,-4.606889e-003
4.281264e+002,-7.042388e-003
4.300549e+002,-8.961247e-003
4.319834e+002,-1.611775e-002
4.339119e+002,-1.429845e-002
4.358404e+002,-4.202994e-003
4.377689e+002,-2.032615e-003
4.396974e+002,-5.635167e-003
4.416259e+002,-1.031776e-002
4.435544e+002,-1.046062e-002
4.454829e+002,-7.036487e-003
4.474114e+002,-2.586940e-003
4.493399e+002,-4.926780e-003
4.512684e+002,-9.289235e-003
4.531969e+002,-8.678582e-003
4.551254e+002,-7.237787e-003
4.570539e+002,-8.753731e-003
4.589824e+002,-1.167034e-002
4.609109e+002,-1.078806e-002
4.628394e+002,-8.486137e-003
4.647679e+002,-8.402719e-003
4.666964e+002,-8.040821e-003
4.686249e+002,-1.017087e-002
4.705533e+002,-1.080668e-002
4.724819e+002,-9.551278e-003
4.744103e+002,-9.012073e-003
4.763389e+002,-8.990523e-003
4.782673e+002,-9.484858e-003
4.801959e+002,-9.593154e-003
4.821243e+002,-8.506412e-003
4.840529e+002,-8.143071e-003
4.859813e+002,-9.420568e-003
4.879099e+002,-9.039300e-003
4.898383e+002,-8.510863e-003
4.917668e+002,-1.223222e-002
4.936953e+002,-1.394586e-002
4.956238e+002,-1.040537e-002
4.975523e+002,-9.372515e-003
4.994808e+002,-9.578732e-003
5.014093e+002,-9.638623e-003
5.033378e+002,-9.291181e-003
5.052663e+002,-8.945181e-003
5.071948e+002,-1.067951e-002
5.091233e+002,-1.196251e-002
5.110518e+002,-1.222355e-002
5.129803e+002,-1.165663e-002
5.149088e+002,-1.269003e-002
5.168373e+002,-1.357963e-002
5.187658e+002,-1.360034e-002
5.206943e+002,-1.213692e-002
5.226228e+002,-1.268497e-002
5.245513e+002,-1.433763e-002
5.264798e+002,-1.474400e-002
5.284083e+002,-1.395469e-002
5.303368e+002,-1.477417e-002
5.322653e+002,-1.519117e-002
5.341938e+002,-1.477897e-002
5.361223e+002,-1.519248e-002
5.380508e+002,-1.543867e-002
5.399792e+002,-1.371208e-002
5.419078e+002,-1.400779e-002
5.438363e+002,-1.419463e-002
5.457648e+002,-1.459469e-002
5.476932e+002,-1.500645e-002
5.496218e+002,-1.435164e-002
5.515503e+002,-1.334860e-002
5.534788e+002,-1.425520e-002
5.554072e+002,-1.343599e-002
5.573358e+002,-1.254197e-002
5.592643e+002,-1.220477e-002
5.611927e+002,-1.318345e-002
5.631212e+002,-1.367981e-002
5.650497e+002,-1.300791e-002
5.669783e+002,-1.164556e-002
5.689067e+002,-1.113738e-002
5.708352e+002,-1.177403e-002
5.727637e+002,-1.348369e-002
5.746923e+002,-1.467203e-002
5.766207e+002,-1.252562e-002
5.785492e+002,-1.139769e-002
5.804777e+002,-1.974421e-002
5.824063e+002,-2.146492e-002
5.843347e+002,-1.393075e-002
5.862632e+002,-1.140282e-002
5.881917e+002,-1.171330e-002
5.901202e+002,-1.292517e-002
5.920487e+002,-1.444434e-002
5.939772e+002,-1.463089e-002
5.959057e+002,-1.445161e-002
5.978342e+002,-1.340235e-002
5.997627e+002,-1.207035e-002
6.016912e+002,-1.158317e-002
6.036197e+002,-1.062975e-002
6.055482e+002,-8.678582e-003
6.074767e+002,-6.681115e-003
6.094052e+002,-5.537330e-003
6.113337e+002,-4.910858e-003
6.132622e+002,-6.808575e-003
6.151907e+002,-8.487014e-003
6.171192e+002,-8.002406e-003
6.190477e+002,-7.093634e-003
6.209762e+002,-6.932247e-003
6.229047e+002,-9.669571e-003
6.248332e+002,-1.373205e-002
6.267617e+002,-1.573129e-002
6.286902e+002,-1.589031e-002
6.306187e+002,-1.555052e-002
6.325472e+002,-1.500296e-002
6.344756e+002,-1.400483e-002
6.364042e+002,-1.348758e-002
6.383326e+002,-1.386910e-002
6.402612e+002,-1.450683e-002
6.421896e+002,-1.395193e-002
6.441182e+002,-1.419729e-002
6.460466e+002,-1.443773e-002
6.479752e+002,-1.429188e-002
6.499036e+002,-1.475236e-002
6.518322e+002,-1.480962e-002
6.537606e+002,-1.463003e-002
6.556891e+002,-1.488291e-002
6.576177e+002,-1.497700e-002
6.595461e+002,-1.512967e-002
6.614746e+002,-1.616985e-002
6.634031e+002,-1.642053e-002
6.653317e+002,-1.474070e-002
6.672601e+002,-1.002733e-002
6.691886e+002,-1.103240e-002
6.711171e+002,-1.459600e-002
6.730457e+002,-1.503996e-002
6.749741e+002,-1.503372e-002
6.769026e+002,-1.508692e-002
6.788311e+002,-1.463003e-002
6.807596e+002,-1.415935e-002
6.826881e+002,-1.416907e-002
6.846166e+002,-1.414187e-002
6.865451e+002,-1.420967e-002
6.884736e+002,-1.442116e-002
6.904021e+002,-1.426001e-002
6.923306e+002,-1.368861e-002
6.942591e+002,-1.333212e-002
6.961876e+002,-1.312523e-002
6.981161e+002,-1.306380e-002
7.000446e+002,-1.288149e-002
7.019731e+002,-1.282696e-002
7.039016e+002,-1.299852e-002
7.058301e+002,-1.309408e-002
7.077585e+002,-1.306997e-002
7.096871e+002,-1.297090e-002
7.116156e+002,-1.315497e-002
7.135441e+002,-1.370431e-002
7.154725e+002,-1.391044e-002
7.174011e+002,-1.398629e-002
7.193296e+002,-1.387247e-002
7.212581e+002,-1.323166e-002
7.231865e+002,-1.290346e-002
7.251151e+002,-1.313777e-002
7.270436e+002,-1.316134e-002
7.289720e+002,-1.288905e-002
7.309005e+002,-1.260452e-002
7.328290e+002,-1.291381e-002
7.347576e+002,-1.324166e-002
7.366860e+002,-1.351938e-002
7.386145e+002,-1.401051e-002
7.405430e+002,-1.350284e-002
7.424716e+002,-1.288136e-002
7.444000e+002,-1.282278e-002
7.463285e+002,-1.256991e-002
7.482570e+002,-1.256293e-002
7.501855e+002,-1.241284e-002
7.521140e+002,-1.172643e-002
7.540425e+002,-1.176542e-002
7.559710e+002,-1.191954e-002
7.578995e+002,-1.136057e-002
7.598280e+002,-1.123121e-002
7.617565e+002,-1.089005e-002
7.636850e+002,-1.072952e-002
7.656135e+002,-1.052582e-002
7.675420e+002,-1.023663e-002
7.694705e+002,-1.029174e-002
7.713990e+002,-1.064324e-002
7.733275e+002,-1.086966e-002
7.752560e+002,-1.064628e-002
7.771844e+002,-1.027333e-002
7.791130e+002,-1.071740e-002
7.810415e+002,-1.134034e-002
7.829700e+002,-1.172794e-002
7.848984e+002,-1.192869e-002
7.868270e+002,-1.196521e-002
7.887555e+002,-1.174084e-002
7.906840e+002,-1.178335e-002
7.926124e+002,-1.238244e-002
7.945410e+002,-1.290284e-002
7.964695e+002,-1.303425e-002
7.983979e+002,-1.296080e-002
8.003264e+002,-1.283977e-002
8.022549e+002,-1.285450e-002
8.041835e+002,-1.303746e-002
8.061119e+002,-1.290667e-002
8.080404e+002,-1.267709e-002
8.099689e+002,-1.272269e-002
8.118975e+002,-1.245524e-002
8.138259e+002,-1.200003e-002
8.157545e+002,-1.222748e-002
8.176830e+002,-1.237903e-002
8.196115e+002,-1.269762e-002
8.215399e+002,-1.303158e-002
8.234684e+002,-1.279997e-002
8.253970e+002,-1.239944e-002
8.273254e+002,-1.213699e-002
8.292539e+002,-1.228553e-002
8.311824e+002,-1.237181e-002
8.331110e+002,-1.213331e-002
8.350394e+002,-1.212377e-002
8.369679e+002,-1.209029e-002
8.388964e+002,-1.190113e-002
8.408250e+002,-1.173923e-002
8.427534e+002,-1.202039e-002
8.446819e+002,-1.243869e-002
8.466104e+002,-1.248995e-002
8.485389e+002,-1.266332e-002
8.504674e+002,-1.298357e-002
8.523959e+002,-1.303949e-002
8.543244e+002,-1.287940e-002
8.562529e+002,-1.285958e-002
8.581814e+002,-1.288577e-002
8.601099e+002,-1.320810e-002
8.620384e+002,-1.369477e-002
8.639669e+002,-1.363692e-002
8.658954e+002,-1.341691e-002
8.678239e+002,-1.355689e-002
8.697524e+002,-1.349889e-002
8.716809e+002,-1.347650e-002
8.736094e+002,-1.356733e-002
8.755378e+002,-1.368771e-002
8.774664e+002,-1.339654e-002
8.793949e+002,-1.350868e-002
8.813234e+002,-1.375407e-002
8.832518e+002,-1.378074e-002
8.851804e+002,-1.378367e-002
8.871089e+002,-1.374784e-002
8.890374e+002,-1.391230e-002
8.909658e+002,-1.360847e-002
8.928943e+002,-1.311527e-002
8.948229e+002,-1.314346e-002
8.967513e+002,-1.318991e-002
8.986798e+002,-1.318901e-002
9.006083e+002,-1.321524e-002
9.025369e+002,-1.340441e-002
9.044653e+002,-1.333925e-002
9.063938e+002,-1.330812e-002
9.083223e+002,-1.366302e-002
9.102509e+002,-1.367872e-002
9.121793e+002,-1.330024e-002
9.141078e+002,-1.341768e-002
9.160364e+002,-1.361868e-002
9.179648e+002,-1.350961e-002
9.198933e+002,-1.356945e-002
9.218218e+002,-1.341807e-002
9.237504e+002,-1.344929e-002
9.256788e+002,-1.373169e-002
9.276073e+002,-1.389959e-002
9.295358e+002,-1.414828e-002
9.314644e+002,-1.429422e-002
9.333928e+002,-1.413927e-002
9.353213e+002,-1.402845e-002
9.372498e+002,-1.402514e-002
9.391783e+002,-1.429153e-002
9.411068e+002,-1.426626e-002
9.430353e+002,-1.377083e-002
9.449637e+002,-1.372258e-002
9.468923e+002,-1.393810e-002
9.488208e+002,-1.424853e-002
9.507493e+002,-1.419594e-002
9.526777e+002,-1.397275e-002
9.546063e+002,-1.375657e-002
9.565348e+002,-1.392854e-002
9.584633e+002,-1.417959e-002
9.603917e+002,-1.414242e-002
9.623203e+002,-1.416195e-002
9.642488e+002,-1.429214e-002
9.661772e+002,-1.418096e-002
9.681057e+002,-1.414751e-002
9.700343e+002,-1.417314e-002
9.719628e+002,-1.390181e-002
9.738912e+002,-1.398918e-002
9.758197e+002,-1.420159e-002
9.777483e+002,-1.424840e-002
9.796768e+002,-1.434789e-002
9.816052e+002,-1.452109e-002
9.835337e+002,-1.456755e-002
9.854623e+002,-1.455025e-002
9.873907e+002,-1.452676e-002
9.893192e+002,-1.462455e-002
9.912477e+002,-1.490148e-002
9.931763e+002,-1.488800e-002
9.951047e+002,-1.476629e-002
9.970332e+002,-1.491621e-002
9.989617e+002,-1.458460e-002
1.000890e+003,-1.421663e-002
1.002819e+003,-1.413254e-002
1.004747e+003,-1.421063e-002
1.006676e+003,-1.415836e-002
1.008604e+003,-1.398934e-002
1.010533e+003,-1.382584e-002
1.012461e+003,-1.358429e-002
1.014390e+003,-1.329401e-002
1.016318e+003,-1.289567e-002
1.018247e+003,-1.253180e-002
1.020175e+003,-1.223518e-002
1.022104e+003,-1.188640e-002
1.024032e+003,-1.141674e-002
1.025961e+003,-1.102281e-002
1.027889e+003,-1.079149e-002
1.029818e+003,-1.036768e-002
1.031746e+003,-9.846982e-003
1.033675e+003,-9.525282e-003
1.035603e+003,-9.244443e-003
1.037532e+003,-8.779870e-003
1.039460e+003,-8.442041e-003
1.041389e+003,-8.339699e-003
1.043317e+003,-7.902009e-003
1.045246e+003,-7.549039e-003
1.047174e+003,-7.343680e-003
1.049103e+003,-7.297775e-003
1.051031e+003,-7.488077e-003
1.052960e+003,-7.407529e-003
1.054888e+003,-7.388929e-003
1.056817e+003,-7.361468e-003
1.058745e+003,-7.112475e-003
1.060674e+003,-6.928465e-003
1.062602e+003,-6.806977e-003
1.064531e+003,-6.917671e-003
1.066459e+003,-7.114561e-003
1.068388e+003,-7.139659e-003
1.070316e+003,-7.126132e-003
1.072245e+003,-7.074368e-003
1.074173e+003,-7.192522e-003
1.076102e+003,-7.325762e-003
1.078030e+003,-7.234333e-003
1.079959e+003,-7.307582e-003
1.081887e+003,-7.485439e-003
1.083816e+003,-7.319343e-003
1.085744e+003,-7.274901e-003
1.087673e+003,-7.235571e-003
1.089601e+003,-7.053342e-003
1.091530e+003,-6.889853e-003
1.093458e+003,-6.909975e-003
1.095387e+003,-6.960779e-003
1.097315e+003,-6.931595e-003
1.099244e+003,-6.966649e-003
1.101172e+003,-6.938802e-003
1.103101e+003,-6.996222e-003
1.105029e+003,-7.093927e-003
1.106958e+003,-7.006232e-003
1.108886e+003,-6.796897e-003
1.110815e+003,-6.877167e-003
1.112743e+003,-7.045485e-003
1.114672e+003,-7.202984e-003
1.116600e+003,-6.995929e-003
1.118529e+003,-6.825830e-003
1.120457e+003,-6.966388e-003
1.122386e+003,-6.970399e-003
1.124314e+003,-6.918388e-003
1.126243e+003,-7.169807e-003
1.128171e+003,-7.436258e-003
1.130100e+003,-7.382121e-003
1.132028e+003,-7.409744e-003
1.133957e+003,-7.561999e-003
1.135885e+003,-7.618425e-003
1.137814e+003,-7.977455e-003
1.139742e+003,-8.622228e-003
1.141671e+003,-8.759251e-003
1.143599e+003,-8.871267e-003
1.145528e+003,-9.311192e-003
1.147456e+003,-9.584047e-003
1.149385e+003,-9.785336e-003
1.151313e+003,-1.012283e-002
1.153242e+003,-1.037651e-002
1.155170e+003,-1.045884e-002
1.157099e+003,-1.062840e-002
1.159027e+003,-1.083198e-002
1.160956e+003,-1.097041e-002
1.162884e+003,-1.102575e-002
1.164813e+003,-1.117422e-002
1.166741e+003,-1.126421e-002
1.168670e+003,-1.123018e-002
1.170598e+003,-1.113169e-002
1.172526e+003,-1.104852e-002
1.174455e+003,-1.117335e-002
1.176384e+003,-1.124852e-002
1.178312e+003,-1.121323e-002
1.180240e+003,-1.113860e-002
1.182169e+003,-1.122760e-002
1.184098e+003,-1.148244e-002
1.186026e+003,-1.160182e-002
1.187954e+003,-1.156007e-002
1.189883e+003,-1.173691e-002
1.191812e+003,-1.176335e-002
1.193740e+003,-1.174561e-002
1.195668e+003,-1.205475e-002
1.197597e+003,-1.238283e-002
1.199526e+003,-1.242250e-002
1.201454e+003,-1.235284e-002
1.203382e+003,-1.231291e-002
1.205311e+003,-1.235156e-002
1.207240e+003,-1.228244e-002
1.209168e+003,-1.220226e-002
1.211096e+003,-1.212252e-002
1.213025e+003,-1.205233e-002
1.214953e+003,-1.210405e-002
1.216882e+003,-1.219743e-002
1.218810e+003,-1.228244e-002
1.220739e+003,-1.229278e-002
1.222667e+003,-1.215480e-002
1.224596e+003,-1.201375e-002
1.226524e+003,-1.202252e-002
1.228453e+003,-1.186015e-002
1.230381e+003,-1.179067e-002
1.232310e+003,-1.177677e-002
1.234238e+003,-1.167547e-002
1.236167e+003,-1.161940e-002
1.238095e+003,-1.147160e-002
1.240024e+003,-1.149022e-002
1.241952e+003,-1.159198e-002
1.243881e+003,-1.170698e-002
1.245809e+003,-1.182826e-002
1.247738e+003,-1.189081e-002
1.249666e+003,-1.189504e-002
1.251595e+003,-1.202523e-002
1.253523e+003,-1.216682e-002
1.255452e+003,-1.220261e-002
1.257380e+003,-1.241358e-002
1.259309e+003,-1.257516e-002
1.261237e+003,-1.256911e-002
1.263166e+003,-1.245392e-002
1.265094e+003,-1.217771e-002
1.267023e+003,-1.194855e-002
1.268951e+003,-1.185151e-002
1.270880e+003,-1.170530e-002
1.272808e+003,-1.162818e-002
1.274737e+003,-1.154623e-002
1.276665e+003,-1.138769e-002
1.278594e+003,-1.125937e-002
1.280522e+003,-1.111881e-002
1.282451e+003,-1.108883e-002
1.284379e+003,-1.109281e-002
1.286308e+003,-1.100323e-002
1.288236e+003,-1.075826e-002
1.290165e+003,-1.053456e-002
1.292093e+003,-1.040916e-002
1.294022e+003,-1.021676e-002
1.295950e+003,-1.016213e-002
1.297879e+003,-1.022777e-002
1.299807e+003,-1.023874e-002
1.301736e+003,-1.026984e-002
1.303664e+003,-1.048614e-002
1.305593e+003,-1.073557e-002
1.307521e+003,-1.081320e-002
1.309450e+003,-1.089238e-002
1.311378e+003,-1.111134e-002
1.313307e+003,-1.146973e-002
1.315235e+003,-1.178528e-002
1.317164e+003,-1.188594e-002
1.319092e+003,-1.202736e-002
1.321021e+003,-1.217185e-002
1.322949e+003,-1.232966e-002
1.324878e+003,-1.243270e-002
1.326806e+003,-1.249665e-002
1.328735e+003,-1.249694e-002
1.330663e+003,-1.248815e-002
1.332592e+003,-1.239754e-002
1.334520e+003,-1.240553e-002
1.336449e+003,-1.249121e-002
1.338377e+003,-1.252494e-002
1.340306e+003,-1.259331e-002
1.342234e+003,-1.269550e-002
1.344163e+003,-1.267612e-002
1.346091e+003,-1.263461e-002
1.348020e+003,-1.263773e-002
1.349948e+003,-1.274161e-002
1.351877e+003,-1.281355e-002
1.353805e+003,-1.280078e-002
1.355734e+003,-1.282793e-002
1.357662e+003,-1.292028e-002
1.359591e+003,-1.300100e-002
1.361519e+003,-1.298733e-002
1.363448e+003,-1.302447e-002
1.365376e+003,-1.331085e-002
1.367305e+003,-1.349352e-002
1.369233e+003,-1.348498e-002
1.371162e+003,-1.352037e-002
1.373090e+003,-1.353075e-002
1.375019e+003,-1.361219e-002
1.376947e+003,-1.363290e-002
1.378876e+003,-1.366331e-002
1.380804e+003,-1.376877e-002
1.382733e+003,-1.387424e-002
1.384661e+003,-1.392915e-002
1.386590e+003,-1.392427e-002
1.388518e+003,-1.403595e-002
1.390447e+003,-1.424443e-002
1.392375e+003,-1.432253e-002
1.394304e+003,-1.437898e-002
1.396232e+003,-1.449158e-002
1.398161e+003,-1.449497e-002
1.400089e+003,-1.442911e-002
1.402018e+003,-1.455320e-002
1.403946e+003,-1.477849e-002
1.405875e+003,-1.479700e-002
1.407803e+003,-1.476382e-002
1.409732e+003,-1.483444e-002
1.411660e+003,-1.478320e-002
1.413589e+003,-1.473276e-002
1.415517e+003,-1.458223e-002
1.417446e+003,-1.434507e-002
1.419374e+003,-1.394066e-002
1.421303e+003,-1.356518e-002
1.423231e+003,-1.319525e-002
1.425160e+003,-1.277176e-002
1.427088e+003,-1.252726e-002
1.429017e+003,-1.221566e-002
1.430945e+003,-1.180150e-002
1.432874e+003,-1.133879e-002
1.434802e+003,-1.090579e-002
1.436731e+003,-1.045250e-002
1.438659e+003,-1.019236e-002
1.440588e+003,-9.984590e-003
1.442516e+003,-9.633601e-003
1.444445e+003,-9.258909e-003
1.446373e+003,-8.832405e-003
1.448302e+003,-8.344022e-003
1.450230e+003,-8.130714e-003
1.452159e+003,-8.002341e-003
1.454087e+003,-7.711075e-003
1.456016e+003,-7.186819e-003
1.457944e+003,-6.778663e-003
1.459873e+003,-6.864154e-003
1.461801e+003,-7.030423e-003
1.463730e+003,-7.143374e-003
1.465658e+003,-7.180203e-003
1.467587e+003,-7.471988e-003
1.469515e+003,-7.792835e-003
1.471444e+003,-7.955269e-003
1.473372e+003,-8.232781e-003
1.475301e+003,-8.663154e-003
1.477229e+003,-9.016129e-003
1.479158e+003,-9.461517e-003
1.481086e+003,-9.899711e-003
1.483015e+003,-1.033759e-002
1.484943e+003,-1.075532e-002
1.486872e+003,-1.101561e-002
1.488800e+003,-1.128784e-002
1.490729e+003,-1.149651e-002
1.492657e+003,-1.187131e-002
1.494586e+003,-1.218357e-002
1.496514e+003,-1.229439e-002
1.498443e+003,-1.250837e-002
1.500371e+003,-1.279534e-002
1.502300e+003,-1.300155e-002
1.504228e+003,-1.302801e-002
1.506157e+003,-1.271612e-002
1.508085e+003,-1.288136e-002
1.510014e+003,-1.339005e-002
1.511942e+003,-1.365894e-002
1.513871e+003,-1.370697e-002
1.515799e+003,-1.350065e-002
1.517728e+003,-1.340994e-002
1.519656e+003,-1.355092e-002
1.521585e+003,-1.338475e-002
1.523513e+003,-1.339182e-002
1.525442e+003,-1.338513e-002
1.527370e+003,-1.345562e-002
1.529299e+003,-1.349237e-002
1.531227e+003,-1.350075e-002
1.533156e+003,-1.328418e-002
1.535084e+003,-1.316522e-002
1.537013e+003,-1.326647e-002
1.538941e+003,-1.306820e-002
1.540870e+003,-1.273115e-002
1.542798e+003,-1.266728e-002
1.544727e+003,-1.273340e-002
1.546655e+003,-1.284321e-002
1.548584e+003,-1.280927e-002
1.550512e+003,-1.264858e-002
1.552441e+003,-1.266081e-002
1.554369e+003,-1.259888e-002
1.556298e+003,-1.246706e-002
1.558226e+003,-1.197740e-002
1.560155e+003,-1.158666e-002
1.562083e+003,-1.165573e-002
1.564012e+003,-1.143849e-002
1.565940e+003,-1.115746e-002
1.567869e+003,-1.096860e-002
1.569797e+003,-1.068174e-002
1.571726e+003,-1.068814e-002
1.573654e+003,-1.074168e-002
1.575583e+003,-1.043788e-002
1.577511e+003,-1.026534e-002
1.579440e+003,-1.031342e-002
1.581368e+003,-1.020527e-002
1.583297e+003,-1.030517e-002
1.585225e+003,-1.029129e-002
1.587154e+003,-1.030074e-002
1.589082e+003,-1.049953e-002
1.591010e+003,-1.074905e-002
1.592939e+003,-1.090883e-002
1.594868e+003,-1.090766e-002
1.596796e+003,-1.104503e-002
1.598724e+003,-1.129424e-002
1.600653e+003,-1.151629e-002
1.602582e+003,-1.165924e-002
1.604510e+003,-1.193817e-002
1.606438e+003,-1.224501e-002
1.608367e+003,-1.242894e-002
1.610296e+003,-1.262911e-002
1.612224e+003,-1.288364e-002
1.614152e+003,-1.301917e-002
1.616081e+003,-1.305180e-002
1.618010e+003,-1.319293e-002
1.619938e+003,-1.362683e-002
1.621866e+003,-1.370206e-002
1.623795e+003,-1.372775e-002
1.625724e+003,-1.392080e-002
1.627652e+003,-1.418359e-002
1.629580e+003,-1.438994e-002
1.631509e+003,-1.460203e-002
1.633438e+003,-1.473061e-002
1.635366e+003,-1.462769e-002
1.637294e+003,-1.477433e-002
1.639223e+003,-1.512407e-002
1.641151e+003,-1.539915e-002
1.643080e+003,-1.580430e-002
1.645008e+003,-1.596006e-002
1.646937e+003,-1.591532e-002
1.648865e+003,-1.626902e-002
1.650794e+003,-1.668198e-002
1.652722e+003,-1.645020e-002
1.654651e+003,-1.657116e-002
1.656579e+003,-1.705583e-002
1.658508e+003,-1.723299e-002
1.660436e+003,-1.725573e-002
1.662365e+003,-1.718016e-002
1.664293e+003,-1.717098e-002
1.666222e+003,-1.736226e-002
1.668150e+003,-1.726458e-002
1.670079e+003,-1.706284e-002
1.672007e+003,-1.714834e-002
1.673936e+003,-1.722016e-002
1.675864e+003,-1.717044e-002
1.677793e+003,-1.730967e-002
1.679721e+003,-1.731839e-002
1.681650e+003,-1.733291e-002
1.683578e+003,-1.702114e-002
1.685507e+003,-1.683510e-002
1.687435e+003,-1.717805e-002
1.689364e+003,-1.724114e-002
1.691292e+003,-1.711735e-002
1.693221e+003,-1.704866e-002
1.695149e+003,-1.669537e-002
1.697078e+003,-1.644800e-002
1.699006e+003,-1.650000e-002
1.700935e+003,-1.614444e-002
1.702863e+003,-1.624847e-002
1.704792e+003,-1.626733e-002
1.706720e+003,-1.617052e-002
1.708649e+003,-1.620828e-002
1.710577e+003,-1.629810e-002
1.712506e+003,-1.617943e-002
1.714434e+003,-1.593573e-002
1.716363e+003,-1.577139e-002
1.718291e+003,-1.577913e-002
1.720220e+003,-1.596891e-002
1.722148e+003,-1.603463e-002
1.724077e+003,-1.598277e-002
1.726005e+003,-1.599654e-002
1.727934e+003,-1.597514e-002
1.729862e+003,-1.589938e-002
1.731791e+003,-1.593078e-002
1.733719e+003,-1.577600e-002
1.735648e+003,-1.574139e-002
1.737576e+003,-1.597782e-002
1.739505e+003,-1.602010e-002
1.741433e+003,-1.604616e-002
1.743362e+003,-1.595457e-002
1.745290e+003,-1.580555e-002
1.747219e+003,-1.569940e-002
1.749147e+003,-1.562893e-002
1.751076e+003,-1.541313e-002
1.753004e+003,-1.540990e-002
1.754933e+003,-1.552718e-002
1.756861e+003,-1.543126e-002
1.758790e+003,-1.546301e-002
1.760718e+003,-1.542208e-002
1.762647e+003,-1.527515e-002
1.764575e+003,-1.546595e-002
1.766504e+003,-1.553687e-002
1.768432e+003,-1.542582e-002
1.770361e+003,-1.536832e-002
1.772289e+003,-1.525131e-002
1.774218e+003,-1.531078e-002
1.776146e+003,-1.547084e-002
1.778075e+003,-1.556276e-002
1.780003e+003,-1.555317e-002
1.781932e+003,-1.554396e-002
1.783860e+003,-1.562695e-002
1.785789e+003,-1.552564e-002
1.787717e+003,-1.544015e-002
1.789646e+003,-1.548878e-002
1.791574e+003,-1.542086e-002
1.793503e+003,-1.525400e-002
1.795431e+003,-1.529735e-002
1.797360e+003,-1.536327e-002
1.799288e+003,-1.543513e-002
1.801217e+003,-1.550905e-002
1.803145e+003,-1.560173e-002
1.805074e+003,-1.552628e-002
1.807002e+003,-1.544475e-002
1.808931e+003,-1.547804e-002
1.810859e+003,-1.550298e-002
1.812788e+003,-1.551461e-002
1.814716e+003,-1.557877e-002
1.816645e+003,-1.557983e-002
1.818573e+003,-1.557500e-002
1.820502e+003,-1.554463e-002
1.822430e+003,-1.555541e-002
1.824359e+003,-1.554073e-002
1.826287e+003,-1.549236e-002
1.828216e+003,-1.554751e-002
1.830144e+003,-1.547992e-002
1.832073e+003,-1.559600e-002
1.834001e+003,-1.565060e-002
1.835930e+003,-1.564031e-002
1.837858e+003,-1.570295e-002
1.839787e+003,-1.576711e-002
1.841715e+003,-1.586245e-002
1.843644e+003,-1.562218e-002
1.845572e+003,-1.556449e-002
1.847501e+003,-1.580798e-002
1.849429e+003,-1.582651e-002
1.851358e+003,-1.568722e-002
1.853286e+003,-1.560355e-002
1.855215e+003,-1.560502e-002
1.857143e+003,-1.559773e-002
1.859072e+003,-1.562388e-002
1.861000e+003,-1.560949e-002
1.862929e+003,-1.562535e-002
1.864857e+003,-1.565571e-002
1.866786e+003,-1.570359e-002
1.868714e+003,-1.570365e-002
1.870643e+003,-1.568300e-002
1.872571e+003,-1.572516e-002
1.874500e+003,-1.567802e-002
1.876428e+003,-1.565629e-002
1.878357e+003,-1.566495e-002
1.880285e+003,-1.569879e-002
1.882214e+003,-1.575785e-002
1.884142e+003,-1.571221e-002
1.886071e+003,-1.572931e-002
1.887999e+003,-1.568166e-002
1.889928e+003,-1.568122e-002
1.891856e+003,-1.582855e-002
1.893785e+003,-1.584517e-002
1.895713e+003,-1.583274e-002
1.897642e+003,-1.581319e-002
1.899570e+003,-1.573765e-002
1.901499e+003,-1.571416e-002
1.903427e+003,-1.575462e-002
1.905356e+003,-1.577440e-002
1.907284e+003,-1.570819e-002
1.909213e+003,-1.569381e-002
1.911141e+003,-1.574708e-002
1.913070e+003,-1.580079e-002
1.914998e+003,-1.573340e-002
1.916927e+003,-1.567978e-002
1.918855e+003,-1.567044e-002
1.920784e+003,-1.575107e-002
1.922712e+003,-1.577344e-002
1.924641e+003,-1.574452e-002
1.926569e+003,-1.563932e-002
1.928498e+003,-1.571218e-002
1.930426e+003,-1.576181e-002
1.932355e+003,-1.583980e-002
1.934283e+003,-1.594301e-002
1.936212e+003,-1.594726e-002
1.938140e+003,-1.590123e-002
1.940069e+003,-1.586615e-002
1.941997e+003,-1.579232e-002
1.943926e+003,-1.575721e-002
1.945854e+003,-1.583922e-002
1.947783e+003,-1.588063e-002
1.949711e+003,-1.591790e-002
1.951640e+003,-1.591682e-002
1.953568e+003,-1.588781e-002
1.955497e+003,-1.588701e-002
1.957425e+003,-1.592238e-002
1.959354e+003,-1.589021e-002
1.961282e+003,-1.583306e-002
1.963211e+003,-1.586833e-002
1.965139e+003,-1.594611e-002
1.967068e+003,-1.598207e-002
1.968996e+003,-1.611079e-002
1.970925e+003,-1.616733e-002
1.972853e+003,-1.607362e-002
1.974782e+003,-1.601091e-002
1.976710e+003,-1.603891e-002
1.978639e+003,-1.597370e-002
1.980567e+003,-1.589724e-002
1.982496e+003,-1.598462e-002
1.984424e+003,-1.592285e-002
1.986353e+003,-1.584584e-002
1.988281e+003,-1.592020e-002
1.990210e+003,-1.592765e-002
1.992138e+003,-1.585970e-002
1.994067e+003,-1.591337e-002
1.995995e+003,-1.601161e-002
1.997924e+003,-1.602978e-002
1.999852e+003,-1.595971e-002
2.001781e+003,-1.593486e-002
2.003709e+003,-1.586290e-002
2.005638e+003,-1.580609e-002
2.007566e+003,-1.579117e-002
2.009495e+003,-1.579140e-002
2.011423e+003,-1.590276e-002
2.013352e+003,-1.588171e-002
2.015280e+003,-1.578552e-002
2.017208e+003,-1.576321e-002
2.019137e+003,-1.576734e-002
2.021066e+003,-1.583354e-002
2.022994e+003,-1.590423e-002
2.024922e+003,-1.598890e-002
2.026851e+003,-1.597795e-002
2.028780e+003,-1.588066e-002
2.030708e+003,-1.584002e-002
2.032636e+003,-1.577913e-002
2.034565e+003,-1.581926e-002
2.036494e+003,-1.593790e-002
2.038422e+003,-1.593627e-002
2.040350e+003,-1.592359e-002
2.042279e+003,-1.586884e-002
2.044208e+003,-1.580009e-002
2.046136e+003,-1.588053e-002
2.048064e+003,-1.593439e-002
2.049993e+003,-1.588286e-002
2.051921e+003,-1.584287e-002
2.053850e+003,-1.578756e-002
2.055778e+003,-1.578507e-002
2.057707e+003,-1.577893e-002
2.059635e+003,-1.579996e-002
2.061564e+003,-1.583315e-002
2.063492e+003,-1.593812e-002
2.065421e+003,-1.592854e-002
2.067349e+003,-1.581907e-002
2.069278e+003,-1.584344e-002
2.071206e+003,-1.581737e-002
2.073135e+003,-1.575673e-002
2.075063e+003,-1.575162e-002
2.076992e+003,-1.579986e-002
2.078920e+003,-1.580130e-002
2.080849e+003,-1.573068e-002
2.082777e+003,-1.575478e-002
2.084706e+003,-1.586750e-002
2.086634e+003,-1.592056e-002
2.088563e+003,-1.585606e-002
2.090491e+003,-1.579021e-002
2.092420e+003,-1.584961e-002
2.094348e+003,-1.583165e-002
2.096277e+003,-1.583363e-002
2.098205e+003,-1.585172e-002
2.100134e+003,-1.580450e-002
2.102062e+003,-1.576721e-002
2.103991e+003,-1.578277e-002
2.105919e+003,-1.576654e-002
2.107848e+003,-1.565984e-002
2.109776e+003,-1.567447e-002
2.111705e+003,-1.575727e-002
2.113633e+003,-1.574564e-002
2.115562e+003,-1.569442e-002
2.117490e+003,-1.574113e-002
2.119419e+003,-1.569710e-002
2.121347e+003,-1.569247e-002
2.123276e+003,-1.569221e-002
2.125204e+003,-1.562397e-002
2.127133e+003,-1.559473e-002
2.129061e+003,-1.553047e-002
2.130990e+003,-1.546560e-002
2.132918e+003,-1.550617e-002
2.134847e+003,-1.560857e-002
2.136775e+003,-1.559527e-002
2.138704e+003,-1.550959e-002
2.140632e+003,-1.549118e-002
2.142561e+003,-1.552858e-002
2.144489e+003,-1.555080e-002
2.146418e+003,-1.559875e-002
2.148346e+003,-1.546483e-002
2.150275e+003,-1.535540e-002
2.152203e+003,-1.540068e-002
2.154132e+003,-1.544689e-002
2.156060e+003,-1.546090e-002
2.157989e+003,-1.543896e-002
2.159917e+003,-1.538780e-002
2.161846e+003,-1.542796e-002
2.163774e+003,-1.543912e-002
2.165703e+003,-1.539090e-002
2.167631e+003,-1.529095e-002
2.169560e+003,-1.518032e-002
2.171488e+003,-1.518826e-002
2.173417e+003,-1.530675e-002
2.175345e+003,-1.530909e-002
2.177274e+003,-1.522793e-002
2.179202e+003,-1.520016e-002
2.181131e+003,-1.523762e-002
2.183059e+003,-1.526334e-002
2.184988e+003,-1.524165e-002
2.186916e+003,-1.525506e-002
2.188845e+003,-1.528980e-002
2.190773e+003,-1.534932e-002
2.192702e+003,-1.535057e-002
2.194630e+003,-1.530883e-002
2.196559e+003,-1.527914e-002
2.198487e+003,-1.526641e-002
2.200416e+003,-1.528829e-002
2.202344e+003,-1.524041e-002
2.204273e+003,-1.520083e-002
2.206201e+003,-1.525771e-002
2.208130e+003,-1.526792e-002
2.210058e+003,-1.529479e-002
2.211987e+003,-1.531839e-002
2.213915e+003,-1.535428e-002
2.215844e+003,-1.529543e-002
2.217772e+003,-1.528519e-002
2.219701e+003,-1.536371e-002
2.221629e+003,-1.539893e-002
2.223558e+003,-1.539905e-002
2.225486e+003,-1.538258e-002
2.227415e+003,-1.537945e-002
2.229343e+003,-1.537155e-002
2.231272e+003,-1.539883e-002
2.233200e+003,-1.540839e-002
2.235129e+003,-1.539208e-002
2.237057e+003,-1.542281e-002
2.238986e+003,-1.552168e-002
2.240914e+003,-1.560949e-002
2.242843e+003,-1.558354e-002
2.244771e+003,-1.555649e-002
2.246700e+003,-1.557590e-002
2.248628e+003,-1.555068e-002
2.250557e+003,-1.559556e-002
2.252485e+003,-1.565226e-002
2.254414e+003,-1.569774e-002
2.256342e+003,-1.566619e-002
2.258271e+003,-1.564305e-002
2.260199e+003,-1.569780e-002
2.262128e+003,-1.573001e-002
2.264056e+003,-1.576440e-002
2.265985e+003,-1.571199e-002
2.267913e+003,-1.564063e-002
2.269842e+003,-1.563868e-002
2.271770e+003,-1.562100e-002
2.273699e+003,-1.567888e-002
2.275627e+003,-1.579906e-002
2.277556e+003,-1.586564e-002
2.279484e+003,-1.580788e-002
2.281413e+003,-1.575836e-002
2.283341e+003,-1.584782e-002
2.285270e+003,-1.588941e-002
2.287198e+003,-1.593387e-002
2.289127e+003,-1.582037e-002
2.291055e+003,-1.569905e-002
2.292984e+003,-1.574168e-002
2.294912e+003,-1.575286e-002
2.296841e+003,-1.563133e-002
2.298769e+003,-1.543445e-002
2.300698e+003,-1.526315e-002
2.302626e+003,-1.508557e-002
2.304555e+003,-1.493737e-002
2.306483e+003,-1.475152e-002
2.308412e+003,-1.452843e-002
2.310340e+003,-1.421047e-002
2.312269e+003,-1.377619e-002
2.314197e+003,-1.329488e-002
2.316125e+003,-1.273707e-002
2.318054e+003,-1.218979e-002
2.319983e+003,-1.156498e-002
2.321911e+003,-1.078619e-002
2.323840e+003,-1.006683e-002
2.325768e+003,-9.667075e-003
2.327697e+003,-9.188487e-003
2.329625e+003,-8.536498e-003
2.331553e+003,-8.211030e-003
2.333482e+003,-8.091168e-003
2.335411e+003,-7.967175e-003
2.337339e+003,-7.770216e-003
2.339268e+003,-7.660000e-003
2.341196e+003,-7.801232e-003
2.343125e+003,-8.306284e-003
2.345053e+003,-9.511473e-003
2.346981e+003,-1.147941e-002
2.348910e+003,-1.264983e-002
2.350839e+003,-1.142729e-002
2.352767e+003,-9.041215e-003
2.354696e+003,-7.111921e-003
2.356624e+003,-5.841106e-003
2.358552e+003,-5.143860e-003
2.360481e+003,-4.940244e-003
2.362409e+003,-4.938082e-003
2.364338e+003,-5.233602e-003
2.366267e+003,-5.898214e-003
2.368195e+003,-6.825014e-003
2.370124e+003,-7.932561e-003
2.372052e+003,-9.283721e-003
2.373980e+003,-1.074430e-002
2.375909e+003,-1.221076e-002
2.377838e+003,-1.352368e-002
2.379766e+003,-1.452657e-002
2.381695e+003,-1.512858e-002
2.383623e+003,-1.535793e-002
2.385552e+003,-1.553098e-002
2.387480e+003,-1.572318e-002
2.389408e+003,-1.569167e-002
2.391337e+003,-1.564775e-002
2.393266e+003,-1.566284e-002
2.395194e+003,-1.559942e-002
2.397123e+003,-1.554917e-002
2.399051e+003,-1.551506e-002
2.400979e+003,-1.551688e-002
2.402908e+003,-1.558888e-002
2.404836e+003,-1.558792e-002
2.406765e+003,-1.557535e-002
2.408694e+003,-1.559453e-002
2.410622e+003,-1.554917e-002
2.412551e+003,-1.552414e-002
2.414479e+003,-1.548801e-002
2.416407e+003,-1.547263e-002
2.418336e+003,-1.545300e-002
2.420264e+003,-1.547928e-002
2.422193e+003,-1.553897e-002
2.424122e+003,-1.549095e-002
2.426050e+003,-1.547618e-002
2.427979e+003,-1.553613e-002
2.429907e+003,-1.554339e-002
2.431835e+003,-1.546649e-002
2.433764e+003,-1.543880e-002
2.435692e+003,-1.540794e-002
2.437621e+003,-1.542077e-002
2.439550e+003,-1.551276e-002
2.441478e+003,-1.551871e-002
2.443406e+003,-1.546304e-002
2.445335e+003,-1.540529e-002
2.447263e+003,-1.532373e-002
2.449192e+003,-1.533583e-002
2.451121e+003,-1.541188e-002
2.453049e+003,-1.545226e-002
2.454978e+003,-1.540244e-002
2.456906e+003,-1.530195e-002
2.458834e+003,-1.529949e-002
2.460763e+003,-1.538479e-002
2.462691e+003,-1.548331e-002
2.464620e+003,-1.550486e-002
2.466549e+003,-1.544126e-002
2.468477e+003,-1.543772e-002
2.470406e+003,-1.549207e-002
2.472334e+003,-1.549290e-002
2.474262e+003,-1.542697e-002
2.476191e+003,-1.542972e-002
2.478119e+003,-1.543650e-002
2.480048e+003,-1.536845e-002
2.481977e+003,-1.526200e-002
2.483905e+003,-1.530473e-002
2.485833e+003,-1.536950e-002
2.487762e+003,-1.538850e-002
2.489690e+003,-1.540439e-002
2.491619e+003,-1.535793e-002
2.493547e+003,-1.525861e-002
2.495476e+003,-1.517242e-002
2.497405e+003,-1.509844e-002
2.499333e+003,-1.516423e-002
2.501261e+003,-1.525160e-002
2.503190e+003,-1.518013e-002
2.505118e+003,-1.508413e-002
2.507047e+003,-1.511012e-002
2.508975e+003,-1.519146e-002
2.510904e+003,-1.518486e-002
2.512833e+003,-1.508717e-002
2.514761e+003,-1.505792e-002
2.516689e+003,-1.508352e-002
2.518618e+003,-1.507623e-002
2.520546e+003,-1.503753e-002
2.522475e+003,-1.502316e-002
2.524403e+003,-1.507968e-002
2.526332e+003,-1.519936e-002
2.528260e+003,-1.515092e-002
2.530189e+003,-1.502966e-002
2.532117e+003,-1.503692e-002
2.534046e+003,-1.515828e-002
2.535974e+003,-1.513693e-002
2.537903e+003,-1.509568e-002
2.539831e+003,-1.504598e-002
2.541760e+003,-1.503507e-002
2.543688e+003,-1.504576e-002
2.545617e+003,-1.498984e-002
2.547545e+003,-1.489841e-002
2.549474e+003,-1.490683e-002
2.551402e+003,-1.497095e-002
2.553331e+003,-1.502502e-002
2.555259e+003,-1.493452e-002
2.557188e+003,-1.491346e-002
2.559116e+003,-1.507786e-002
2.561045e+003,-1.514746e-002
2.562973e+003,-1.508586e-002
2.564902e+003,-1.494758e-002
2.566830e+003,-1.481311e-002
2.568759e+003,-1.491086e-002
2.570687e+003,-1.497134e-002
2.572616e+003,-1.487392e-002
2.574544e+003,-1.475748e-002
2.576473e+003,-1.485304e-002
2.578401e+003,-1.494835e-002
2.580330e+003,-1.501321e-002
2.582258e+003,-1.496948e-002
2.584187e+003,-1.488957e-002
2.586115e+003,-1.498946e-002
2.588044e+003,-1.509466e-002
2.589972e+003,-1.503267e-002
2.591901e+003,-1.495664e-002
2.593829e+003,-1.499407e-002
2.595758e+003,-1.509456e-002
2.597686e+003,-1.509037e-002
2.599615e+003,-1.505321e-002
2.601543e+003,-1.494377e-002
2.603472e+003,-1.489111e-002
2.605400e+003,-1.490705e-002
2.607329e+003,-1.485438e-002
2.609257e+003,-1.483994e-002
2.611186e+003,-1.480382e-002
2.613114e+003,-1.474124e-002
2.615043e+003,-1.478803e-002
2.616971e+003,-1.483773e-002
2.618900e+003,-1.479178e-002
2.620828e+003,-1.475883e-002
2.622757e+003,-1.469932e-002
2.624685e+003,-1.466597e-002
2.626614e+003,-1.469102e-002
2.628542e+003,-1.468003e-002
2.630471e+003,-1.459318e-002
2.632399e+003,-1.456281e-002
2.634328e+003,-1.457764e-002
2.636256e+003,-1.454314e-002
2.638185e+003,-1.445716e-002
2.640113e+003,-1.446863e-002
2.642042e+003,-1.451516e-002
2.643970e+003,-1.443408e-002
2.645899e+003,-1.438235e-002
2.647827e+003,-1.447760e-002
2.649756e+003,-1.433051e-002
2.651684e+003,-1.419148e-002
2.653613e+003,-1.421181e-002
2.655541e+003,-1.420886e-002
2.657470e+003,-1.431253e-002
2.659398e+003,-1.427636e-002
2.661327e+003,-1.407044e-002
2.663255e+003,-1.404288e-002
2.665184e+003,-1.417510e-002
2.667112e+003,-1.413440e-002
2.669041e+003,-1.402380e-002
2.670969e+003,-1.399787e-002
2.672898e+003,-1.407140e-002
2.674826e+003,-1.406348e-002
2.676755e+003,-1.398254e-002
2.678683e+003,-1.397436e-002
2.680612e+003,-1.393980e-002
2.682540e+003,-1.383724e-002
2.684469e+003,-1.379493e-002
2.686397e+003,-1.371394e-002
2.688326e+003,-1.360310e-002
2.690254e+003,-1.356919e-002
2.692183e+003,-1.361897e-002
2.694111e+003,-1.372588e-002
2.696040e+003,-1.377529e-002
2.697968e+003,-1.368611e-002
2.699897e+003,-1.353968e-002
2.701825e+003,-1.349156e-002
2.703754e+003,-1.342205e-002
2.705682e+003,-1.326325e-002
2.707611e+003,-1.322803e-002
2.709539e+003,-1.322973e-002
2.711468e+003,-1.320961e-002
2.713396e+003,-1.315944e-002
2.715325e+003,-1.307775e-002
2.717253e+003,-1.308730e-002
2.719182e+003,-1.302286e-002
2.721110e+003,-1.287788e-002
2.723039e+003,-1.280052e-002
2.724967e+003,-1.268700e-002
2.726896e+003,-1.262360e-002
2.728824e+003,-1.256747e-002
2.730753e+003,-1.252420e-002
2.732681e+003,-1.250605e-002
2.734610e+003,-1.243779e-002
2.736538e+003,-1.238234e-002
2.738467e+003,-1.230025e-002
2.740395e+003,-1.216299e-002
2.742324e+003,-1.206851e-002
2.744252e+003,-1.203835e-002
2.746181e+003,-1.196431e-002
2.748109e+003,-1.191035e-002
2.750038e+003,-1.179486e-002
2.751966e+003,-1.165134e-002
2.753895e+003,-1.152368e-002
2.755823e+003,-1.144678e-002
2.757752e+003,-1.136738e-002
2.759680e+003,-1.124077e-002
2.761609e+003,-1.104090e-002
2.763537e+003,-1.076275e-002
2.765466e+003,-1.050797e-002
2.767394e+003,-1.023172e-002
2.769323e+003,-9.894853e-003
2.771251e+003,-9.436131e-003
2.773180e+003,-9.050561e-003
2.775108e+003,-8.713137e-003
2.777037e+003,-8.286130e-003
2.778965e+003,-7.774870e-003
2.780894e+003,-7.022925e-003
2.782822e+003,-6.195989e-003
2.784750e+003,-5.594020e-003
2.786679e+003,-4.938803e-003
2.788608e+003,-4.289419e-003
2.790536e+003,-3.578044e-003
2.792465e+003,-2.782083e-003
2.794393e+003,-2.044257e-003
2.796322e+003,-1.301673e-003
2.798250e+003,-6.097020e-004
2.800178e+003,-1.878659e-005
2.802107e+003,6.967711e-004
2.804036e+003,1.294785e-003
2.805964e+003,1.584773e-003
2.807893e+003,1.913392e-003
2.809821e+003,2.188042e-003
2.811750e+003,2.303713e-003
2.813678e+003,2.220812e-003
2.815606e+003,2.098004e-003
2.817535e+003,1.915056e-003
2.819464e+003,1.716218e-003
2.821392e+003,1.345801e-003
2.823321e+003,9.191493e-004
2.825249e+003,4.423990e-004
2.827177e+003,-1.797812e-004
2.829106e+003,-8.384092e-004
2.831034e+003,-1.462787e-003
2.832963e+003,-2.061273e-003
2.834892e+003,-2.517042e-003
2.836820e+003,-3.102662e-003
2.838749e+003,-3.895869e-003
2.840677e+003,-4.685564e-003
2.842605e+003,-5.315928e-003
2.844534e+003,-5.968682e-003
2.846462e+003,-6.888320e-003
2.848391e+003,-7.746261e-003
2.850320e+003,-8.171166e-003
2.852248e+003,-8.325527e-003
2.854177e+003,-8.406749e-003
2.856105e+003,-8.500530e-003
2.858033e+003,-8.626970e-003
2.859962e+003,-8.540526e-003
2.861890e+003,-8.513755e-003
2.863819e+003,-8.594779e-003
2.865748e+003,-8.629894e-003
2.867676e+003,-8.570480e-003
2.869604e+003,-8.416141e-003
2.871533e+003,-8.326893e-003
2.873461e+003,-8.191327e-003
2.875390e+003,-8.014962e-003
2.877319e+003,-7.909168e-003
2.879247e+003,-7.715600e-003
2.881176e+003,-7.589220e-003
2.883104e+003,-7.533018e-003
2.885032e+003,-7.441568e-003
2.886961e+003,-7.541354e-003
2.888889e+003,-7.655768e-003
2.890818e+003,-7.758857e-003
2.892747e+003,-7.869570e-003
2.894675e+003,-8.065150e-003
2.896604e+003,-8.121511e-003
2.898532e+003,-8.099202e-003
2.900460e+003,-8.164663e-003
2.902389e+003,-8.250857e-003
2.904317e+003,-8.316296e-003
2.906246e+003,-8.392774e-003
2.908175e+003,-8.545530e-003
2.910103e+003,-8.713592e-003
2.912031e+003,-8.987862e-003
2.913960e+003,-9.274997e-003
2.915888e+003,-9.410485e-003
2.917817e+003,-9.357566e-003
2.919745e+003,-9.089532e-003
2.921674e+003,-8.742300e-003
2.923603e+003,-8.355301e-003
2.925531e+003,-8.076175e-003
2.927459e+003,-7.795179e-003
2.929388e+003,-7.454889e-003
2.931316e+003,-7.150773e-003
2.933245e+003,-6.920475e-003
2.935173e+003,-6.799083e-003
2.937102e+003,-6.691524e-003
2.939031e+003,-6.670120e-003
2.940959e+003,-6.759742e-003
2.942887e+003,-6.810924e-003
2.944816e+003,-6.874818e-003
2.946744e+003,-7.009068e-003
2.948673e+003,-7.336122e-003
2.950601e+003,-7.914796e-003
2.952530e+003,-8.445421e-003
2.954458e+003,-8.942065e-003
2.956387e+003,-9.615549e-003
2.958315e+003,-1.019926e-002
2.960244e+003,-1.086026e-002
2.962172e+003,-1.153797e-002
2.964101e+003,-1.207695e-002
2.966029e+003,-1.254165e-002
2.967958e+003,-1.297154e-002
2.969886e+003,-1.339644e-002
2.971815e+003,-1.377509e-002
2.973743e+003,-1.414418e-002
2.975672e+003,-1.456973e-002
2.977600e+003,-1.492399e-002
2.979529e+003,-1.513562e-002
2.981457e+003,-1.536144e-002
2.983386e+003,-1.559361e-002
2.985314e+003,-1.587203e-002
2.987243e+003,-1.601177e-002
2.989171e+003,-1.610587e-002
2.991100e+003,-1.638285e-002
2.993028e+003,-1.648628e-002
2.994957e+003,-1.649381e-002
2.996885e+003,-1.657999e-002
2.998814e+003,-1.665073e-002
3.000742e+003,-1.671676e-002
3.002671e+003,-1.680083e-002
3.004599e+003,-1.685422e-002
3.006528e+003,-1.681055e-002
3.008456e+003,-1.686075e-002
3.010385e+003,-1.695681e-002
3.012313e+003,-1.701843e-002
3.014242e+003,-1.704009e-002
3.016170e+003,-1.709205e-002
3.018099e+003,-1.703576e-002
3.020027e+003,-1.712646e-002
3.021956e+003,-1.718860e-002
3.023884e+003,-1.729664e-002
3.025813e+003,-1.736443e-002
3.027741e+003,-1.734415e-002
3.029670e+003,-1.731871e-002
3.031598e+003,-1.729527e-002
3.033527e+003,-1.738315e-002
3.035455e+003,-1.742373e-002
3.037384e+003,-1.737706e-002
3.039312e+003,-1.736627e-002
3.041241e+003,-1.745123e-002
3.043169e+003,-1.755963e-002
3.045098e+003,-1.757847e-002
3.047026e+003,-1.761238e-002
3.048955e+003,-1.769898e-002
3.050883e+003,-1.763386e-002
3.052812e+003,-1.764643e-002
3.054740e+003,-1.773957e-002
3.056669e+003,-1.769138e-002
3.058597e+003,-1.775465e-002
3.060526e+003,-1.788707e-002
3.062454e+003,-1.790758e-002
3.064383e+003,-1.789588e-002
3.066311e+003,-1.781368e-002
3.068240e+003,-1.768123e-002
3.070168e+003,-1.773954e-002
3.072097e+003,-1.791305e-002
3.074025e+003,-1.796621e-002
3.075954e+003,-1.800340e-002
3.077882e+003,-1.796328e-002
3.079811e+003,-1.801510e-002
3.081739e+003,-1.807234e-002
3.083668e+003,-1.801424e-002
3.085596e+003,-1.798757e-002
3.087525e+003,-1.808557e-002
3.089453e+003,-1.816962e-002
3.091382e+003,-1.820769e-002
3.093310e+003,-1.816927e-002
3.095239e+003,-1.810130e-002
3.097167e+003,-1.804085e-002
3.099096e+003,-1.804727e-002
3.101024e+003,-1.816346e-002
3.102953e+003,-1.821261e-002
3.104881e+003,-1.822110e-002
3.106810e+003,-1.819520e-002
3.108738e+003,-1.818878e-002
3.110667e+003,-1.812771e-002
3.112595e+003,-1.801920e-002
3.114524e+003,-1.806697e-002
3.116452e+003,-1.818904e-002
3.118381e+003,-1.824731e-002
3.120309e+003,-1.833839e-002
3.122238e+003,-1.827949e-002
3.124166e+003,-1.823165e-002
3.126095e+003,-1.830967e-002
3.128023e+003,-1.830430e-002
3.129952e+003,-1.824791e-002
3.131880e+003,-1.827463e-002
3.133809e+003,-1.827269e-002
3.135737e+003,-1.831139e-002
3.137666e+003,-1.830113e-002
3.139594e+003,-1.826564e-002
3.141523e+003,-1.822135e-002
3.143451e+003,-1.820826e-002
3.145380e+003,-1.821983e-002
3.147308e+003,-1.830767e-002
3.149237e+003,-1.839353e-002
3.151165e+003,-1.832644e-002
3.153094e+003,-1.813553e-002
3.155022e+003,-1.807225e-002
3.156951e+003,-1.816610e-002
3.158879e+003,-1.817795e-002
3.160808e+003,-1.813854e-002
3.162736e+003,-1.814141e-002
3.164665e+003,-1.816222e-002
3.166593e+003,-1.819133e-002
3.168522e+003,-1.823581e-002
3.170450e+003,-1.818144e-002
3.172379e+003,-1.817032e-002
3.174307e+003,-1.827254e-002
3.176236e+003,-1.815923e-002
3.178164e+003,-1.807762e-002
3.180093e+003,-1.807308e-002
3.182021e+003,-1.812151e-002
3.183950e+003,-1.810896e-002
3.185878e+003,-1.807692e-002
3.187807e+003,-1.797177e-002
3.189735e+003,-1.807711e-002
3.191664e+003,-1.831901e-002
3.193592e+003,-1.830262e-002
3.195521e+003,-1.823457e-002
3.197449e+003,-1.829598e-002
3.199378e+003,-1.840099e-002
3.201306e+003,-1.833874e-002
3.203235e+003,-1.819311e-002
3.205163e+003,-1.822891e-002
3.207092e+003,-1.836824e-002
3.209020e+003,-1.832822e-002
3.210948e+003,-1.817808e-002
3.212877e+003,-1.802495e-002
3.214806e+003,-1.803837e-002
3.216734e+003,-1.818418e-002
3.218663e+003,-1.819257e-002
3.220591e+003,-1.814541e-002
3.222520e+003,-1.812145e-002
3.224448e+003,-1.816765e-002
3.226376e+003,-1.817439e-002
3.228305e+003,-1.805661e-002
3.230234e+003,-1.798096e-002
3.232162e+003,-1.803017e-002
3.234091e+003,-1.798557e-002
3.236019e+003,-1.789597e-002
3.237948e+003,-1.781387e-002
3.239876e+003,-1.775331e-002
3.241804e+003,-1.760348e-002
3.243733e+003,-1.755317e-002
3.245662e+003,-1.754840e-002
3.247590e+003,-1.732454e-002
3.249519e+003,-1.724827e-002
3.251447e+003,-1.735185e-002
3.253375e+003,-1.743411e-002
3.255304e+003,-1.735997e-002
3.257232e+003,-1.719318e-002
3.259161e+003,-1.706498e-002
3.261090e+003,-1.705481e-002
3.263018e+003,-1.709540e-002
3.264947e+003,-1.711365e-002
3.266875e+003,-1.712123e-002
3.268803e+003,-1.708240e-002
3.270732e+003,-1.708320e-002
3.272660e+003,-1.708957e-002
3.274589e+003,-1.703047e-002
3.276518e+003,-1.701142e-002
3.278446e+003,-1.700122e-002
3.280375e+003,-1.701974e-002
3.282303e+003,-1.707061e-002
3.284231e+003,-1.700524e-002
3.286160e+003,-1.698249e-002
3.288088e+003,-1.711808e-002
3.290017e+003,-1.734612e-002
3.291946e+003,-1.727862e-002
3.293874e+003,-1.716041e-002
3.295802e+003,-1.733113e-002
3.297731e+003,-1.741103e-002
3.299659e+003,-1.742755e-002
3.301588e+003,-1.749188e-002
3.303516e+003,-1.765002e-002
3.305445e+003,-1.767687e-002
3.307374e+003,-1.763128e-002
3.309302e+003,-1.771136e-002
3.311230e+003,-1.790818e-002
3.313159e+003,-1.808627e-002
3.315087e+003,-1.814659e-002
3.317016e+003,-1.812901e-002
3.318944e+003,-1.815577e-002
3.320873e+003,-1.826698e-002
3.322802e+003,-1.846485e-002
3.324730e+003,-1.855484e-002
3.326658e+003,-1.854830e-002
3.328587e+003,-1.858465e-002
3.330515e+003,-1.870711e-002
3.332444e+003,-1.881731e-002
3.334372e+003,-1.891995e-002
3.336301e+003,-1.890126e-002
3.338229e+003,-1.888515e-002
3.340158e+003,-1.897397e-002
3.342086e+003,-1.885793e-002
3.344015e+003,-1.889527e-002
3.345943e+003,-1.894466e-002
3.347872e+003,-1.892585e-002
3.349800e+003,-1.899230e-002
3.351729e+003,-1.905078e-002
3.353657e+003,-1.907957e-002
3.355586e+003,-1.914318e-002
3.357514e+003,-1.913481e-002
3.359443e+003,-1.923635e-002
3.361371e+003,-1.937510e-002
3.363300e+003,-1.932437e-002
3.365229e+003,-1.926719e-002
3.367157e+003,-1.946452e-002
3.369085e+003,-1.982614e-002
3.371014e+003,-2.000357e-002
3.372942e+003,-1.983969e-002
3.374871e+003,-1.977065e-002
3.376799e+003,-1.978625e-002
3.378728e+003,-1.987125e-002
3.380656e+003,-2.009744e-002
3.382585e+003,-2.026172e-002
3.384513e+003,-2.024866e-002
3.386442e+003,-2.026311e-002
3.388370e+003,-2.036319e-002
3.390299e+003,-2.048543e-002
3.392227e+003,-2.046600e-002
3.394156e+003,-2.051616e-002
3.396084e+003,-2.056837e-002
3.398013e+003,-2.059952e-002
3.399941e+003,-2.057576e-002
3.401870e+003,-2.055440e-002
3.403798e+003,-2.065245e-002
3.405727e+003,-2.073187e-002
3.407655e+003,-2.075594e-002
3.409584e+003,-2.062761e-002
3.411512e+003,-2.061163e-002
3.413441e+003,-2.079741e-002
3.415369e+003,-2.088679e-002
3.417298e+003,-2.085218e-002
3.419226e+003,-2.087094e-002
3.421155e+003,-2.086330e-002
3.423083e+003,-2.089822e-002
3.425012e+003,-2.093810e-002
3.426940e+003,-2.105920e-002
3.428869e+003,-2.116689e-002
3.430797e+003,-2.117548e-002
3.432726e+003,-2.107483e-002
3.434654e+003,-2.095117e-002
3.436583e+003,-2.104408e-002
3.438511e+003,-2.120022e-002
3.440440e+003,-2.106186e-002
3.442368e+003,-2.110100e-002
3.444297e+003,-2.129932e-002
3.446225e+003,-2.113066e-002
3.448154e+003,-2.095585e-002
3.450082e+003,-2.098319e-002
3.452011e+003,-2.104724e-002
3.453939e+003,-2.109740e-002
3.455868e+003,-2.121590e-002
3.457796e+003,-2.129409e-002
3.459725e+003,-2.129484e-002
3.461653e+003,-2.116311e-002
3.463582e+003,-2.112063e-002
3.465510e+003,-2.127550e-002
3.467439e+003,-2.134737e-002
3.469367e+003,-2.134027e-002
3.471296e+003,-2.139784e-002
3.473224e+003,-2.138478e-002
3.475153e+003,-2.135989e-002
3.477081e+003,-2.125812e-002
3.479010e+003,-2.128128e-002
3.480938e+003,-2.149693e-002
3.482867e+003,-2.149743e-002
3.484795e+003,-2.126613e-002
3.486724e+003,-2.131118e-002
3.488652e+003,-2.155744e-002
3.490581e+003,-2.144221e-002
3.492509e+003,-2.127456e-002
3.494438e+003,-2.130882e-002
3.496366e+003,-2.135472e-002
3.498295e+003,-2.143531e-002
3.500223e+003,-2.139903e-002
3.502152e+003,-2.132614e-002
3.504080e+003,-2.130958e-002
3.506009e+003,-2.143366e-002
3.507937e+003,-2.150405e-002
3.509866e+003,-2.147369e-002
3.511794e+003,-2.148280e-002
3.513723e+003,-2.147138e-002
3.515651e+003,-2.143521e-002
3.517580e+003,-2.134472e-002
3.519508e+003,-2.136005e-002
3.521437e+003,-2.142272e-002
3.523365e+003,-2.144243e-002
3.525294e+003,-2.148192e-002
3.527222e+003,-2.144174e-002
3.529151e+003,-2.137204e-002
3.531079e+003,-2.145811e-002
3.533008e+003,-2.150118e-002
3.534936e+003,-2.141944e-002
3.536865e+003,-2.138143e-002
3.538793e+003,-2.158613e-002
3.540722e+003,-2.171934e-002
3.542650e+003,-2.166134e-002
3.544579e+003,-2.142051e-002
3.546507e+003,-2.119072e-002
3.548436e+003,-2.126171e-002
3.550364e+003,-2.126689e-002
3.552293e+003,-2.117014e-002
3.554221e+003,-2.126276e-002
3.556150e+003,-2.134251e-002
3.558078e+003,-2.125903e-002
3.560007e+003,-2.126487e-002
3.561935e+003,-2.140493e-002
3.563864e+003,-2.152114e-002
3.565792e+003,-2.140509e-002
3.567721e+003,-2.125802e-002
3.569649e+003,-2.138888e-002
3.571578e+003,-2.131948e-002
3.573506e+003,-2.107069e-002
3.575435e+003,-2.101883e-002
3.577363e+003,-2.110551e-002
3.579292e+003,-2.117557e-002
3.581220e+003,-2.128522e-002
3.583149e+003,-2.130169e-002
3.585077e+003,-2.129494e-002
3.587006e+003,-2.117557e-002
3.588934e+003,-2.114840e-002
3.590863e+003,-2.123262e-002
3.592791e+003,-2.113347e-002
3.594720e+003,-2.111444e-002
3.596648e+003,-2.107044e-002
3.598577e+003,-2.120274e-002
3.600505e+003,-2.123755e-002
3.602434e+003,-2.118419e-002
3.604362e+003,-2.136522e-002
3.606291e+003,-2.144984e-002
3.608219e+003,-2.124499e-002
3.610148e+003,-2.122521e-002
3.612076e+003,-2.125802e-002
3.614005e+003,-2.129803e-002
3.615933e+003,-2.142420e-002
3.617862e+003,-2.124288e-002
3.619790e+003,-2.110141e-002
3.621719e+003,-2.134983e-002
3.623647e+003,-2.160290e-002
3.625576e+003,-2.149434e-002
3.627504e+003,-2.107344e-002
3.629433e+003,-2.060628e-002
3.631361e+003,-2.102388e-002
3.633290e+003,-2.122429e-002
3.635218e+003,-2.122161e-002
3.637146e+003,-2.119252e-002
3.639075e+003,-2.128818e-002
3.641004e+003,-2.153745e-002
3.642932e+003,-2.169321e-002
3.644861e+003,-2.176302e-002
3.646789e+003,-2.150907e-002
3.648718e+003,-2.118248e-002
3.650646e+003,-2.113903e-002
3.652574e+003,-2.154690e-002
3.654503e+003,-2.168940e-002
3.656432e+003,-2.133910e-002
3.658360e+003,-2.157002e-002
3.660289e+003,-2.177818e-002
3.662217e+003,-2.187643e-002
3.664146e+003,-2.198662e-002
3.666074e+003,-2.215517e-002
3.668002e+003,-2.216112e-002
3.669931e+003,-2.172300e-002
3.671860e+003,-2.170097e-002
3.673788e+003,-2.165438e-002
3.675717e+003,-2.109178e-002
3.677645e+003,-2.152250e-002
3.679573e+003,-2.182132e-002
3.681502e+003,-2.186096e-002
3.683430e+003,-2.183704e-002
3.685359e+003,-2.211924e-002
3.687288e+003,-2.202555e-002
3.689216e+003,-2.153410e-002
3.691145e+003,-2.145539e-002
3.693073e+003,-2.160725e-002
3.695001e+003,-2.179888e-002
3.696930e+003,-2.172649e-002
3.698858e+003,-2.175662e-002
3.700787e+003,-2.157843e-002
3.702716e+003,-2.146895e-002
3.704644e+003,-2.175647e-002
3.706573e+003,-2.178360e-002
3.708501e+003,-2.186568e-002
3.710429e+003,-2.197554e-002
3.712358e+003,-2.174550e-002
3.714286e+003,-2.195547e-002
3.716215e+003,-2.213020e-002
3.718144e+003,-2.179687e-002
3.720072e+003,-2.157099e-002
3.722000e+003,-2.152846e-002
3.723929e+003,-2.170500e-002
3.725857e+003,-2.182444e-002
3.727786e+003,-2.186279e-002
3.729714e+003,-2.191593e-002
3.731643e+003,-2.160838e-002
3.733572e+003,-2.149030e-002
3.735500e+003,-2.133402e-002
3.737428e+003,-2.140411e-002
3.739357e+003,-2.178852e-002
3.741285e+003,-2.191978e-002
3.743214e+003,-2.150844e-002
3.745142e+003,-2.090697e-002
3.747071e+003,-2.172089e-002
3.749000e+003,-2.161463e-002
3.750928e+003,-2.117971e-002
3.752856e+003,-2.114499e-002
3.754785e+003,-2.150049e-002
3.756713e+003,-2.159795e-002
3.758642e+003,-2.167020e-002
3.760570e+003,-2.145956e-002
3.762499e+003,-2.154183e-002
3.764427e+003,-2.163319e-002
3.766356e+003,-2.161765e-002
3.768284e+003,-2.173683e-002
3.770213e+003,-2.141436e-002
3.772141e+003,-2.143354e-002
3.774070e+003,-2.166784e-002
3.775998e+003,-2.164227e-002
3.777927e+003,-2.149592e-002
3.779855e+003,-2.135156e-002
3.781784e+003,-2.161163e-002
3.783712e+003,-2.160681e-002
3.785641e+003,-2.145246e-002
3.787569e+003,-2.160463e-002
3.789498e+003,-2.186969e-002
3.791426e+003,-2.204618e-002
3.793355e+003,-2.201176e-002
3.795283e+003,-2.176299e-002
3.797212e+003,-2.164252e-002
3.799140e+003,-2.177648e-002
3.801069e+003,-2.153448e-002
3.802997e+003,-2.169331e-002
3.804926e+003,-2.197654e-002
3.806854e+003,-2.153073e-002
3.808783e+003,-2.160842e-002
3.810711e+003,-2.179617e-002
3.812640e+003,-2.206316e-002
3.814568e+003,-2.210403e-002
3.816497e+003,-2.132279e-002
3.818425e+003,-2.147378e-002
3.820354e+003,-2.133816e-002
3.822282e+003,-2.129371e-002
3.824211e+003,-2.190365e-002
3.826139e+003,-2.187548e-002
3.828068e+003,-2.177424e-002
3.829996e+003,-2.163089e-002
3.831925e+003,-2.148217e-002
3.833853e+003,-2.174711e-002
3.835782e+003,-2.184004e-002
3.837710e+003,-2.137661e-002
3.839639e+003,-2.139411e-002
3.841567e+003,-2.157162e-002
3.843496e+003,-2.163613e-002
3.845424e+003,-2.176825e-002
3.847353e+003,-2.198543e-002
3.849281e+003,-2.211468e-002
3.851210e+003,-2.182003e-002
3.853138e+003,-2.073531e-002
3.855067e+003,-2.069080e-002
3.856995e+003,-2.146161e-002
3.858924e+003,-2.178032e-002
3.860852e+003,-2.168306e-002
3.862781e+003,-2.138601e-002
3.864709e+003,-2.127557e-002
3.866638e+003,-2.166532e-002
3.868566e+003,-2.165558e-002
3.870495e+003,-2.134995e-002
3.872423e+003,-2.153524e-002
3.874352e+003,-2.135314e-002
3.876280e+003,-2.162188e-002
3.878209e+003,-2.191634e-002
3.880137e+003,-2.159581e-002
3.882066e+003,-2.178158e-002
3.883994e+003,-2.211162e-002
3.885923e+003,-2.160715e-002
3.887851e+003,-2.155592e-002
3.889780e+003,-2.155551e-002
3.891708e+003,-2.147709e-002
3.893637e+003,-2.191127e-002
3.895565e+003,-2.232648e-002
3.897494e+003,-2.229790e-002
3.899422e+003,-2.192283e-002
3.901351e+003,-2.188204e-002
3.903279e+003,-2.182901e-002
3.905208e+003,-2.175880e-002
3.907136e+003,-2.199022e-002
3.909065e+003,-2.198225e-002
3.910993e+003,-2.198593e-002
3.912922e+003,-2.206092e-002
3.914850e+003,-2.197554e-002
3.916779e+003,-2.186657e-002
3.918707e+003,-2.200376e-002
3.920636e+003,-2.216471e-002
3.922564e+003,-2.214557e-002
3.924493e+003,-2.207560e-002
3.926421e+003,-2.203853e-002
3.928350e+003,-2.223539e-002
3.930278e+003,-2.234345e-002
3.932207e+003,-2.235141e-002
3.934135e+003,-2.255618e-002
3.936064e+003,-2.256801e-002
3.937992e+003,-2.235805e-002
3.939921e+003,-2.224726e-002
3.941849e+003,-2.222743e-002
3.943778e+003,-2.235484e-002
3.945706e+003,-2.227911e-002
3.947635e+003,-2.204489e-002
3.949563e+003,-2.212592e-002
3.951492e+003,-2.221990e-002
3.953420e+003,-2.220240e-002
3.955349e+003,-2.250833e-002
3.957277e+003,-2.260311e-002
3.959206e+003,-2.252884e-002
3.961134e+003,-2.264227e-002
3.963063e+003,-2.249930e-002
3.964991e+003,-2.231943e-002
3.966920e+003,-2.222166e-002
3.968848e+003,-2.211005e-002
3.970777e+003,-2.226725e-002
3.972705e+003,-2.237674e-002
3.974634e+003,-2.231374e-002
3.976562e+003,-2.247187e-002
3.978491e+003,-2.242999e-002
3.980419e+003,-2.228176e-002
3.982348e+003,-2.232721e-002
3.984276e+003,-2.235427e-002
3.986205e+003,-2.232598e-002
3.988133e+003,-2.220161e-002
3.990062e+003,-2.221615e-002
3.991990e+003,-2.249251e-002
3.993919e+003,-2.273859e-002
3.995847e+003,-2.265947e-002
3.997776e+003,-2.230656e-002
3.999704e+003,-2.223356e-002
4.001633e+003,0.000000e+000
