3.991989e+002,-2.946732e-002
4.011274e+002,-3.239895e-002
4.030559e+002,-3.619201e-002
4.049844e+002,-3.722850e-002
4.069129e+002,-3.042424e-002
4.088414e+002,-2.375333e-002
4.107699e+002,-2.243559e-002
4.126984e+002,-2.105605e-002
4.146269e+002,-1.427796e-002
4.165554e+002,-1.275557e-002
4.184839e+002,-1.390656e-002
4.204124e+002,-6.600679e-003
4.223409e+002,-2.934849e-003
4.242694e+002,-7.197769e-003
4.261979e+002,-1.392870e-002
4.281264e+002,-7.268255e-003
4.300549e+002,-3.426029e-003
4.319834e+002,-5.308629e-003
4.339119e+002,-5.368000e-003
4.358404e+002,-3.713415e-003
4.377689e+002,-2.344125e-003
4.396974e+002,-7.493841e-003
4.416259e+002,-1.297312e-002
4.435544e+002,-6.845465e-003
4.454829e+002,-2.618789e-003
4.474114e+002,-9.727523e-004
4.493399e+002,-1.544610e-003
4.512684e+002,-3.181512e-003
4.531969e+002,-3.488419e-003
4.551254e+002,-4.078345e-003
4.570539e+002,-4.599250e-003
4.589824e+002,-3.991351e-003
4.609109e+002,-3.078053e-003
4.628394e+002,-1.489502e-003
4.647679e+002,-2.491675e-003
4.666964e+002,-2.815531e-003
4.686249e+002,-1.642162e-003
4.705533e+002,5.258904e-004
4.724819e+002,4.123500e-004
4.744103e+002,-5.418010e-004
4.763389e+002,-9.072226e-004
4.782673e+002,-1.207513e-003
4.801959e+002,-5.401133e-004
4.821243e+002,-1.266198e-004
4.840529e+002,-1.971401e-003
4.859813e+002,-9.007691e-003
4.879099e+002,-1.548593e-002
4.898383e+002,-9.052735e-003
4.917668e+002,-3.367432e-004
4.936953e+002,1.893790e-003
4.956238e+002,-8.017659e-004
4.975523e+002,-4.538921e-003
4.994808e+002,-4.387145e-003
5.014093e+002,-1.788664e-003
5.033378e+002,-1.088281e-003
5.052663e+002,2.348418e-003
5.071948e+002,2.171858e-003
5.091233e+002,-2.016686e-003
5.110518e+002,-3.298263e-003
5.129803e+002,-1.942011e-003
5.149088e+002,-1.597433e-003
5.168373e+002,-1.732498e-003
5.187658e+002,-1.667743e-003
5.206943e+002,-2.539541e-003
5.226228e+002,-2.219930e-003
5.245513e+002,-7.803672e-004
5.264798e+002,-1.359117e-003
5.284083e+002,-2.404364e-003
5.303368e+002,-1.494917e-003
5.322653e+002,-1.016786e-003
5.341938e+002,-8.723047e-004
5.361223e+002,-2.041618e-003
5.380508e+002,-1.790149e-003
5.399792e+002,-1.288855e-003
5.419078e+002,-8.283888e-004
5.438363e+002,-1.960219e-003
5.457648e+002,-2.039672e-003
5.476932e+002,-7.200019e-004
5.496218e+002,-1.151074e-003
5.515503e+002,-1.322947e-003
5.534788e+002,-1.287402e-003
5.554072e+002,-1.985320e-003
5.573358e+002,-2.313376e-003
5.592643e+002,-1.713159e-003
5.611927e+002,-1.007398e-003
5.631212e+002,-5.235997e-004
5.650497e+002,-9.797279e-004
5.669783e+002,-1.769690e-003
5.689067e+002,-1.680121e-003
5.708352e+002,-1.842481e-003
5.727637e+002,-1.278383e-003
5.746923e+002,-1.932907e-003
5.766207e+002,-3.471951e-003
5.785492e+002,-8.222376e-004
5.804777e+002,7.084505e-003
5.824063e+002,5.377007e-003
5.843347e+002,-4.470131e-004
5.862632e+002,-1.290771e-003
5.881917e+002,-8.830515e-004
5.901202e+002,2.059106e-004
5.920487e+002,4.986884e-004
5.939772e+002,-3.225395e-004
5.959057e+002,-8.226675e-004
5.978342e+002,-7.686917e-004
5.997627e+002,-1.094726e-003
6.016912e+002,-1.432604e-003
6.036197e+002,-2.353220e-003
6.055482e+002,-2.790083e-003
6.074767e+002,-3.091674e-003
6.094052e+002,-3.316020e-003
6.113337e+002,-4.195906e-003
6.132622e+002,-4.468254e-003
6.151907e+002,-3.537720e-003
6.171192e+002,-2.849470e-003
6.190477e+002,-3.097299e-003
6.209762e+002,-2.627221e-003
6.229047e+002,-2.185184e-003
6.248332e+002,-1.939603e-003
6.267617e+002,-1.454267e-003
6.286902e+002,-7.725946e-004
6.306187e+002,1.097538e-004
6.325472e+002,4.059109e-005
6.344756e+002,-1.027696e-004
6.364042e+002,1.311975e-004
6.383326e+002,3.929486e-004
6.402612e+002,1.198553e-003
6.421896e+002,1.288903e-003
6.441182e+002,8.997917e-004
6.460466e+002,7.397175e-004
6.479752e+002,6.557868e-004
6.499036e+002,4.107249e-004
6.518322e+002,4.036276e-004
6.537606e+002,6.929878e-004
6.556891e+002,7.381907e-004
6.576177e+002,6.783857e-004
6.595461e+002,5.060859e-004
6.614746e+002,6.402901e-004
6.634031e+002,3.821373e-004
6.653317e+002,7.949832e-004
6.672601e+002,2.014077e-003
6.691886e+002,1.857252e-003
6.711171e+002,1.467265e-003
6.730457e+002,1.835257e-003
6.749741e+002,1.803448e-003
6.769026e+002,1.467997e-003
6.788311e+002,1.401376e-003
6.807596e+002,2.133098e-003
6.826881e+002,2.497589e-003
6.846166e+002,1.973634e-003
6.865451e+002,1.715752e-003
6.884736e+002,2.320402e-003
6.904021e+002,2.478660e-003
6.923306e+002,2.316804e-003
6.942591e+002,2.255815e-003
6.961876e+002,2.048565e-003
6.981161e+002,2.073300e-003
7.000446e+002,2.141256e-003
7.019731e+002,2.587243e-003
7.039016e+002,2.630176e-003
7.058301e+002,2.379434e-003
7.077585e+002,1.821681e-003
7.096871e+002,1.919183e-003
7.116156e+002,2.561877e-003
7.135441e+002,2.252551e-003
7.154725e+002,1.820816e-003
7.174011e+002,1.506730e-003
7.193296e+002,1.805943e-003
7.212581e+002,2.132033e-003
7.231865e+002,2.151412e-003
7.251151e+002,2.156806e-003
7.270436e+002,2.220812e-003
7.289720e+002,2.475661e-003
7.309005e+002,2.548579e-003
7.328290e+002,2.266740e-003
7.347576e+002,2.350250e-003
7.366860e+002,2.935702e-003
7.386145e+002,3.059614e-003
7.405430e+002,2.851346e-003
7.424716e+002,3.006061e-003
7.444000e+002,3.070592e-003
7.463285e+002,3.278231e-003
7.482570e+002,3.119614e-003
7.501855e+002,3.634296e-003
7.521140e+002,4.223490e-003
7.540425e+002,3.950526e-003
7.559710e+002,4.003293e-003
7.578995e+002,4.083090e-003
7.598280e+002,4.241524e-003
7.617565e+002,4.122660e-003
7.636850e+002,3.966810e-003
7.656135e+002,4.139586e-003
7.675420e+002,4.456017e-003
7.694705e+002,4.384820e-003
7.713990e+002,4.207531e-003
7.733275e+002,4.266419e-003
7.752560e+002,4.111287e-003
7.771844e+002,4.181469e-003
7.791130e+002,4.393054e-003
7.810415e+002,4.417689e-003
7.829700e+002,4.491536e-003
7.848984e+002,4.707091e-003
7.868270e+002,4.679793e-003
7.887555e+002,4.509984e-003
7.906840e+002,4.389506e-003
7.926124e+002,4.188126e-003
7.945410e+002,4.362730e-003
7.964695e+002,4.601929e-003
7.983979e+002,4.328359e-003
8.003264e+002,4.009613e-003
8.022549e+002,4.173139e-003
8.041835e+002,4.467935e-003
8.061119e+002,4.737640e-003
8.080404e+002,5.661343e-003
8.099689e+002,6.025683e-003
8.118975e+002,5.824283e-003
8.138259e+002,6.151623e-003
8.157545e+002,6.537196e-003
8.176830e+002,5.906027e-003
8.196115e+002,5.027757e-003
8.215399e+002,4.623361e-003
8.234684e+002,4.780552e-003
8.253970e+002,4.470613e-003
8.273254e+002,3.860858e-003
8.292539e+002,3.527990e-003
8.311824e+002,2.918089e-003
8.331110e+002,2.681882e-003
8.350394e+002,3.090247e-003
8.369679e+002,3.267348e-003
8.388964e+002,2.964558e-003
8.408250e+002,2.638077e-003
8.427534e+002,2.381499e-003
8.446819e+002,2.598376e-003
8.466104e+002,2.757869e-003
8.485389e+002,2.710589e-003
8.504674e+002,2.524483e-003
8.523959e+002,2.311541e-003
8.543244e+002,2.293254e-003
8.562529e+002,2.474028e-003
8.581814e+002,2.650911e-003
8.601099e+002,2.926295e-003
8.620384e+002,2.727893e-003
8.639669e+002,2.123042e-003
8.658954e+002,2.265108e-003
8.678239e+002,2.731327e-003
8.697524e+002,2.610909e-003
8.716809e+002,2.296585e-003
8.736094e+002,2.025628e-003
8.755378e+002,2.199198e-003
8.774664e+002,2.445305e-003
8.793949e+002,2.519617e-003
8.813234e+002,2.618176e-003
8.832518e+002,2.402156e-003
8.851804e+002,2.075365e-003
8.871089e+002,1.841180e-003
8.890374e+002,1.943745e-003
8.909658e+002,2.057387e-003
8.928943e+002,2.288857e-003
8.948229e+002,2.531482e-003
8.967513e+002,2.573077e-003
8.986798e+002,2.132332e-003
9.006083e+002,1.761228e-003
9.025369e+002,1.807474e-003
9.044653e+002,2.056654e-003
9.063938e+002,1.825707e-003
9.083223e+002,1.781189e-003
9.102509e+002,1.562393e-003
9.121793e+002,1.086763e-003
9.141078e+002,1.292260e-003
9.160364e+002,1.571538e-003
9.179648e+002,1.643340e-003
9.198933e+002,1.501510e-003
9.218218e+002,1.319844e-003
9.237504e+002,1.448714e-003
9.256788e+002,1.327720e-003
9.276073e+002,1.254675e-003
9.295358e+002,1.749517e-003
9.314644e+002,2.412784e-003
9.333928e+002,2.623243e-003
9.353213e+002,2.364209e-003
9.372498e+002,2.197067e-003
9.391783e+002,1.969706e-003
9.411068e+002,1.837719e-003
9.430353e+002,2.132599e-003
9.449637e+002,2.381699e-003
9.468923e+002,2.299349e-003
9.488208e+002,2.493423e-003
9.507493e+002,2.699219e-003
9.526777e+002,2.738830e-003
9.546063e+002,2.582109e-003
9.565348e+002,2.737563e-003
9.584633e+002,2.811892e-003
9.603917e+002,2.529249e-003
9.623203e+002,2.407087e-003
9.642488e+002,2.540280e-003
9.661772e+002,2.784146e-003
9.681057e+002,2.954383e-003
9.700343e+002,3.116945e-003
9.719628e+002,2.478327e-003
9.738912e+002,1.077430e-003
9.758197e+002,1.121311e-003
9.777483e+002,1.947373e-003
9.796768e+002,2.215849e-003
9.816052e+002,2.321234e-003
9.835337e+002,2.381400e-003
9.854623e+002,2.461132e-003
9.873907e+002,2.259279e-003
9.893192e+002,1.978260e-003
9.912477e+002,1.977794e-003
9.931763e+002,2.290722e-003
9.951047e+002,2.608909e-003
9.970332e+002,2.830468e-003
9.989617e+002,2.826466e-003
1.000890e+003,3.027548e-003
1.002819e+003,3.281203e-003
1.004747e+003,3.529059e-003
1.006676e+003,3.896362e-003
1.008604e+003,4.147012e-003
1.010533e+003,4.319290e-003
1.012461e+003,4.599920e-003
1.014390e+003,4.895844e-003
1.016318e+003,5.171716e-003
1.018247e+003,5.218829e-003
1.020175e+003,5.278324e-003
1.022104e+003,5.368788e-003
1.024032e+003,5.864011e-003
1.025961e+003,6.166713e-003
1.027889e+003,6.142818e-003
1.029818e+003,6.284558e-003
1.031746e+003,6.413061e-003
1.033675e+003,6.431691e-003
1.035603e+003,6.896280e-003
1.037532e+003,7.138798e-003
1.039460e+003,7.186665e-003
1.041389e+003,7.325612e-003
1.043317e+003,7.332453e-003
1.045246e+003,7.308662e-003
1.047174e+003,7.547635e-003
1.049103e+003,7.633651e-003
1.051031e+003,7.657627e-003
1.052960e+003,7.740595e-003
1.054888e+003,7.792610e-003
1.056817e+003,7.730240e-003
1.058745e+003,7.865515e-003
1.060674e+003,7.979435e-003
1.062602e+003,8.140377e-003
1.064531e+003,8.311714e-003
1.066459e+003,8.393995e-003
1.068388e+003,8.236572e-003
1.070316e+003,8.084877e-003
1.072245e+003,8.263386e-003
1.074173e+003,8.481902e-003
1.076102e+003,8.369809e-003
1.078030e+003,8.172992e-003
1.079959e+003,8.403455e-003
1.081887e+003,8.856497e-003
1.083816e+003,8.839048e-003
1.085744e+003,8.901340e-003
1.087673e+003,9.156216e-003
1.089601e+003,9.095849e-003
1.091530e+003,9.060832e-003
1.093458e+003,9.274096e-003
1.095387e+003,9.378128e-003
1.097315e+003,9.569091e-003
1.099244e+003,9.712632e-003
1.101172e+003,9.667637e-003
1.103101e+003,9.617125e-003
1.105029e+003,9.381548e-003
1.106958e+003,9.371695e-003
1.108886e+003,9.445746e-003
1.110815e+003,9.475885e-003
1.112743e+003,9.610146e-003
1.114672e+003,9.556423e-003
1.116600e+003,9.508159e-003
1.118529e+003,9.418827e-003
1.120457e+003,9.324095e-003
1.122386e+003,9.549751e-003
1.124314e+003,9.781319e-003
1.126243e+003,9.557473e-003
1.128171e+003,9.524822e-003
1.130100e+003,9.677835e-003
1.132028e+003,9.293594e-003
1.133957e+003,9.063504e-003
1.135885e+003,9.185523e-003
1.137814e+003,9.098286e-003
1.139742e+003,8.762023e-003
1.141671e+003,8.377984e-003
1.143599e+003,8.157765e-003
1.145528e+003,7.968230e-003
1.147456e+003,7.771054e-003
1.149385e+003,7.491402e-003
1.151313e+003,7.193537e-003
1.153242e+003,6.889985e-003
1.155170e+003,6.736403e-003
1.157099e+003,6.518292e-003
1.159027e+003,6.108138e-003
1.160956e+003,5.910595e-003
1.162884e+003,5.781804e-003
1.164813e+003,5.690045e-003
1.166741e+003,5.670507e-003
1.168670e+003,5.755681e-003
1.170598e+003,5.711128e-003
1.172526e+003,5.522960e-003
1.174455e+003,5.581826e-003
1.176384e+003,5.496618e-003
1.178312e+003,5.315453e-003
1.180240e+003,5.410287e-003
1.182169e+003,5.328233e-003
1.184098e+003,5.186436e-003
1.186026e+003,5.100837e-003
1.187954e+003,4.861531e-003
1.189883e+003,4.505665e-003
1.191812e+003,4.390912e-003
1.193740e+003,4.534994e-003
1.195668e+003,4.614051e-003
1.197597e+003,4.599485e-003
1.199526e+003,4.657320e-003
1.201454e+003,4.560508e-003
1.203382e+003,4.390577e-003
1.205311e+003,4.434192e-003
1.207240e+003,4.500375e-003
1.209168e+003,4.682506e-003
1.211096e+003,4.734022e-003
1.213025e+003,4.867395e-003
1.214953e+003,4.936794e-003
1.216882e+003,4.905327e-003
1.218810e+003,4.881569e-003
1.220739e+003,4.908209e-003
1.222667e+003,5.034730e-003
1.224596e+003,5.089908e-003
1.226524e+003,4.965348e-003
1.228453e+003,4.918530e-003
1.230381e+003,5.029099e-003
1.232310e+003,4.955797e-003
1.234238e+003,4.776599e-003
1.236167e+003,4.860124e-003
1.238095e+003,5.060407e-003
1.240024e+003,5.165379e-003
1.241952e+003,5.405087e-003
1.243881e+003,5.521685e-003
1.245809e+003,5.627506e-003
1.247738e+003,5.766224e-003
1.249666e+003,5.947208e-003
1.251595e+003,6.236791e-003
1.253523e+003,6.603633e-003
1.255452e+003,6.872918e-003
1.257380e+003,7.110438e-003
1.259309e+003,7.444581e-003
1.261237e+003,7.889166e-003
1.263166e+003,8.156751e-003
1.265094e+003,8.458049e-003
1.267023e+003,8.934789e-003
1.268951e+003,9.236492e-003
1.270880e+003,9.560386e-003
1.272808e+003,9.999380e-003
1.274737e+003,1.037403e-002
1.276665e+003,1.080063e-002
1.278594e+003,1.118648e-002
1.280522e+003,1.147033e-002
1.282451e+003,1.195267e-002
1.284379e+003,1.246593e-002
1.286308e+003,1.324880e-002
1.288236e+003,1.377224e-002
1.290165e+003,1.408243e-002
1.292093e+003,1.446942e-002
1.294022e+003,1.473571e-002
1.295950e+003,1.510363e-002
1.297879e+003,1.537542e-002
1.299807e+003,1.551822e-002
1.301736e+003,1.543355e-002
1.303664e+003,1.543547e-002
1.305593e+003,1.541329e-002
1.307521e+003,1.521113e-002
1.309450e+003,1.489925e-002
1.311378e+003,1.443143e-002
1.313307e+003,1.409810e-002
1.315235e+003,1.389853e-002
1.317164e+003,1.365830e-002
1.319092e+003,1.312129e-002
1.321021e+003,1.243773e-002
1.322949e+003,1.200516e-002
1.324878e+003,1.163281e-002
1.326806e+003,1.135600e-002
1.328735e+003,1.124197e-002
1.330663e+003,1.111322e-002
1.332592e+003,1.089993e-002
1.334520e+003,1.075081e-002
1.336449e+003,1.072859e-002
1.338377e+003,1.081629e-002
1.340306e+003,1.084371e-002
1.342234e+003,1.080464e-002
1.344163e+003,1.075641e-002
1.346091e+003,1.066037e-002
1.348020e+003,1.062492e-002
1.349948e+003,1.046275e-002
1.351877e+003,1.026423e-002
1.353805e+003,1.027621e-002
1.355734e+003,1.015605e-002
1.357662e+003,9.893369e-003
1.359591e+003,9.896047e-003
1.361519e+003,9.934523e-003
1.363448e+003,9.758749e-003
1.365376e+003,9.503858e-003
1.367305e+003,9.460375e-003
1.369233e+003,9.542062e-003
1.371162e+003,9.461560e-003
1.373090e+003,9.566856e-003
1.375019e+003,9.719679e-003
1.376947e+003,9.761257e-003
1.378876e+003,9.859608e-003
1.380804e+003,9.958424e-003
1.382733e+003,9.947507e-003
1.384661e+003,9.803143e-003
1.386590e+003,9.630878e-003
1.388518e+003,9.339600e-003
1.390447e+003,9.059749e-003
1.392375e+003,8.944971e-003
1.394304e+003,9.025681e-003
1.396232e+003,8.928972e-003
1.398161e+003,8.945816e-003
1.400089e+003,8.829748e-003
1.402018e+003,8.623563e-003
1.403946e+003,8.635459e-003
1.405875e+003,8.599465e-003
1.407803e+003,8.426697e-003
1.409732e+003,8.085451e-003
1.411660e+003,7.865751e-003
1.413589e+003,7.903068e-003
1.415517e+003,8.194027e-003
1.417446e+003,8.745694e-003
1.419374e+003,9.378331e-003
1.421303e+003,9.691624e-003
1.423231e+003,1.019170e-002
1.425160e+003,1.097527e-002
1.427088e+003,1.155056e-002
1.429017e+003,1.196067e-002
1.430945e+003,1.227706e-002
1.432874e+003,1.250764e-002
1.434802e+003,1.303982e-002
1.436731e+003,1.361679e-002
1.438659e+003,1.379088e-002
1.440588e+003,1.418221e-002
1.442516e+003,1.473276e-002
1.444445e+003,1.527043e-002
1.446373e+003,1.603716e-002
1.448302e+003,1.683397e-002
1.450230e+003,1.735241e-002
1.452159e+003,1.793666e-002
1.454087e+003,1.874212e-002
1.456016e+003,1.972123e-002
1.457944e+003,2.030171e-002
1.459873e+003,2.029251e-002
1.461801e+003,2.032011e-002
1.463730e+003,2.073033e-002
1.465658e+003,2.095771e-002
1.467587e+003,2.077613e-002
1.469515e+003,2.070937e-002
1.471444e+003,2.072810e-002
1.473372e+003,2.049837e-002
1.475301e+003,2.008351e-002
1.477229e+003,1.953775e-002
1.479158e+003,1.892213e-002
1.481086e+003,1.820733e-002
1.483015e+003,1.745184e-002
1.484943e+003,1.696559e-002
1.486872e+003,1.667390e-002
1.488800e+003,1.642562e-002
1.490729e+003,1.578632e-002
1.492657e+003,1.496310e-002
1.494586e+003,1.470308e-002
1.496514e+003,1.443637e-002
1.498443e+003,1.372347e-002
1.500371e+003,1.302449e-002
1.502300e+003,1.255228e-002
1.504228e+003,1.252322e-002
1.506157e+003,1.285766e-002
1.508085e+003,1.241874e-002
1.510014e+003,1.165091e-002
1.511942e+003,1.132995e-002
1.513871e+003,1.114045e-002
1.515799e+003,1.109565e-002
1.517728e+003,1.117377e-002
1.519656e+003,1.130175e-002
1.521585e+003,1.149404e-002
1.523513e+003,1.130083e-002
1.525442e+003,1.142685e-002
1.527370e+003,1.164172e-002
1.529299e+003,1.162515e-002
1.531227e+003,1.175912e-002
1.533156e+003,1.224237e-002
1.535084e+003,1.238448e-002
1.537013e+003,1.280678e-002
1.538941e+003,1.388324e-002
1.540870e+003,1.444609e-002
1.542798e+003,1.442140e-002
1.544727e+003,1.445695e-002
1.546655e+003,1.436639e-002
1.548584e+003,1.462381e-002
1.550512e+003,1.506428e-002
1.552441e+003,1.549277e-002
1.554369e+003,1.604139e-002
1.556298e+003,1.666099e-002
1.558226e+003,1.782169e-002
1.560155e+003,1.806303e-002
1.562083e+003,1.764756e-002
1.564012e+003,1.797254e-002
1.565940e+003,1.841802e-002
1.567869e+003,1.881962e-002
1.569797e+003,1.932753e-002
1.571726e+003,1.935101e-002
1.573654e+003,1.941202e-002
1.575583e+003,1.993227e-002
1.577511e+003,1.977353e-002
1.579440e+003,1.922202e-002
1.581368e+003,1.916581e-002
1.583297e+003,1.906218e-002
1.585225e+003,1.878288e-002
1.587154e+003,1.845280e-002
1.589082e+003,1.800829e-002
1.591010e+003,1.740952e-002
1.592939e+003,1.684902e-002
1.594868e+003,1.626488e-002
1.596796e+003,1.568892e-002
1.598724e+003,1.516487e-002
1.600653e+003,1.450478e-002
1.602582e+003,1.388218e-002
1.604510e+003,1.331224e-002
1.606438e+003,1.277798e-002
1.608367e+003,1.221616e-002
1.610296e+003,1.167889e-002
1.612224e+003,1.115028e-002
1.614152e+003,1.090126e-002
1.616081e+003,1.091101e-002
1.618010e+003,1.043033e-002
1.619938e+003,9.879878e-003
1.621866e+003,9.850050e-003
1.623795e+003,9.730319e-003
1.625724e+003,9.492919e-003
1.627652e+003,9.392111e-003
1.629580e+003,9.083060e-003
1.631509e+003,8.795395e-003
1.633438e+003,8.972030e-003
1.635366e+003,9.322876e-003
1.637294e+003,8.619642e-003
1.639223e+003,7.772909e-003
1.641151e+003,7.364198e-003
1.643080e+003,7.000248e-003
1.645008e+003,6.859554e-003
1.646937e+003,6.808728e-003
1.648865e+003,6.270775e-003
1.650794e+003,6.176056e-003
1.652722e+003,6.867161e-003
1.654651e+003,5.888797e-003
1.656579e+003,4.804774e-003
1.658508e+003,4.360789e-003
1.660436e+003,4.164976e-003
1.662365e+003,4.007239e-003
1.664293e+003,3.807808e-003
1.666222e+003,3.752926e-003
1.668150e+003,3.701560e-003
1.670079e+003,3.363004e-003
1.672007e+003,2.915554e-003
1.673936e+003,2.824931e-003
1.675864e+003,2.712122e-003
1.677793e+003,2.142088e-003
1.679721e+003,1.962949e-003
1.681650e+003,2.022199e-003
1.683578e+003,2.473928e-003
1.685507e+003,2.108492e-003
1.687435e+003,1.456926e-003
1.689364e+003,1.241151e-003
1.691292e+003,1.065704e-003
1.693221e+003,1.050525e-003
1.695149e+003,1.568013e-003
1.697078e+003,1.712459e-003
1.699006e+003,1.817755e-003
1.700935e+003,1.846870e-003
1.702863e+003,1.340682e-003
1.704792e+003,1.377078e-003
1.706720e+003,1.395726e-003
1.708649e+003,1.189416e-003
1.710577e+003,9.656710e-004
1.712506e+003,9.301068e-004
1.714434e+003,1.176226e-003
1.716363e+003,1.464672e-003
1.718291e+003,1.486615e-003
1.720220e+003,1.029800e-003
1.722148e+003,8.032820e-004
1.724077e+003,7.721790e-004
1.726005e+003,7.425055e-004
1.727934e+003,7.233217e-004
1.729862e+003,8.022861e-004
1.731791e+003,1.033254e-003
1.733719e+003,1.543605e-003
1.735648e+003,1.188054e-003
1.737576e+003,7.718139e-004
1.739505e+003,1.039432e-003
1.741433e+003,1.017511e-003
1.743362e+003,8.166931e-004
1.745290e+003,7.593667e-004
1.747219e+003,9.083581e-004
1.749147e+003,1.051787e-003
1.751076e+003,1.032756e-003
1.753004e+003,7.430366e-004
1.754933e+003,7.525292e-004
1.756861e+003,9.223038e-004
1.758790e+003,7.196709e-004
1.760718e+003,7.891410e-004
1.762647e+003,8.442138e-004
1.764575e+003,6.509087e-004
1.766504e+003,7.577071e-004
1.768432e+003,9.852640e-004
1.770361e+003,1.137090e-003
1.772289e+003,1.260158e-003
1.774218e+003,9.497979e-004
1.776146e+003,7.303579e-004
1.778075e+003,7.088514e-004
1.780003e+003,7.417089e-004
1.781932e+003,6.066107e-004
1.783860e+003,6.071416e-004
1.785789e+003,7.035082e-004
1.787717e+003,7.327807e-004
1.789646e+003,8.564643e-004
1.791574e+003,1.058198e-003
1.793503e+003,8.781772e-004
1.795431e+003,5.420134e-004
1.797360e+003,5.486153e-004
1.799288e+003,7.213303e-004
1.801217e+003,7.350708e-004
1.803145e+003,6.535634e-004
1.805074e+003,6.500459e-004
1.807002e+003,6.778216e-004
1.808931e+003,6.308994e-004
1.810859e+003,6.743371e-004
1.812788e+003,6.683969e-004
1.814716e+003,5.988134e-004
1.816645e+003,5.830865e-004
1.818573e+003,5.534259e-004
1.820502e+003,5.425774e-004
1.822430e+003,5.955286e-004
1.824359e+003,7.360334e-004
1.826287e+003,6.636847e-004
1.828216e+003,6.250925e-004
1.830144e+003,7.085527e-004
1.832073e+003,6.381000e-004
1.834001e+003,5.770148e-004
1.835930e+003,5.003802e-004
1.837858e+003,4.645888e-004
1.839787e+003,4.207078e-004
1.841715e+003,5.394257e-004
1.843644e+003,8.005932e-004
1.845572e+003,6.036909e-004
1.847501e+003,4.594476e-004
1.849429e+003,5.077777e-004
1.851358e+003,5.735311e-004
1.853286e+003,5.816266e-004
1.855215e+003,5.703461e-004
1.857143e+003,5.468570e-004
1.859072e+003,4.750042e-004
1.861000e+003,4.676073e-004
1.862929e+003,5.637106e-004
1.864857e+003,7.014173e-004
1.866786e+003,7.659720e-004
1.868714e+003,8.434171e-004
1.870643e+003,7.464884e-004
1.872571e+003,6.442388e-004
1.874500e+003,6.477563e-004
1.876428e+003,6.305012e-004
1.878357e+003,5.717727e-004
1.880285e+003,5.876983e-004
1.882214e+003,5.683886e-004
1.884142e+003,5.190234e-004
1.886071e+003,5.591322e-004
1.887999e+003,6.319944e-004
1.889928e+003,6.805097e-004
1.891856e+003,5.524306e-004
1.893785e+003,5.738629e-004
1.895713e+003,6.946803e-004
1.897642e+003,7.374606e-004
1.899570e+003,6.863836e-004
1.901499e+003,6.973020e-004
1.903427e+003,7.188743e-004
1.905356e+003,6.964392e-004
1.907284e+003,7.773904e-004
1.909213e+003,9.302065e-004
1.911141e+003,9.224034e-004
1.913070e+003,8.526463e-004
1.914998e+003,8.218386e-004
1.916927e+003,9.310698e-004
1.918855e+003,8.853487e-004
1.920784e+003,8.462722e-004
1.922712e+003,8.982976e-004
1.924641e+003,9.010866e-004
1.926569e+003,8.339556e-004
1.928498e+003,7.318846e-004
1.930426e+003,7.302583e-004
1.932355e+003,7.457914e-004
1.934283e+003,8.339556e-004
1.936212e+003,9.492666e-004
1.938140e+003,9.336598e-004
1.940069e+003,9.232667e-004
1.941997e+003,9.440532e-004
1.943926e+003,9.016179e-004
1.945854e+003,8.413920e-004
1.947783e+003,7.604953e-004
1.949711e+003,7.068269e-004
1.951640e+003,6.603662e-004
1.953568e+003,7.097143e-004
1.955497e+003,7.578731e-004
1.957425e+003,7.464884e-004
1.959354e+003,7.260764e-004
1.961282e+003,7.587361e-004
1.963211e+003,7.766601e-004
1.965139e+003,8.558335e-004
1.967068e+003,9.443189e-004
1.968996e+003,9.223038e-004
1.970925e+003,9.053366e-004
1.972853e+003,9.362499e-004
1.974782e+003,1.008345e-003
1.976710e+003,1.013825e-003
1.978639e+003,9.695895e-004
1.980567e+003,9.769285e-004
1.982496e+003,9.955590e-004
1.984424e+003,9.199794e-004
1.986353e+003,9.222705e-004
1.988281e+003,1.014091e-003
1.990210e+003,1.088590e-003
1.992138e+003,1.213007e-003
1.994067e+003,1.256469e-003
1.995995e+003,1.169449e-003
1.997924e+003,1.117058e-003
1.999852e+003,1.231415e-003
2.001781e+003,1.233109e-003
2.003709e+003,1.125231e-003
2.005638e+003,1.110282e-003
2.007566e+003,1.180711e-003
2.009495e+003,1.124234e-003
2.011423e+003,1.058331e-003
2.013352e+003,1.111013e-003
2.015280e+003,1.186825e-003
2.017208e+003,1.225533e-003
2.019137e+003,1.198088e-003
2.021066e+003,1.190147e-003
2.022994e+003,1.190845e-003
2.024922e+003,1.206760e-003
2.026851e+003,1.204866e-003
2.028780e+003,1.269163e-003
2.030708e+003,1.307414e-003
2.032636e+003,1.362154e-003
2.034565e+003,1.422485e-003
2.036494e+003,1.448681e-003
2.038422e+003,1.515941e-003
2.040350e+003,1.606489e-003
2.042279e+003,1.631466e-003
2.044208e+003,1.547961e-003
2.046136e+003,1.536922e-003
2.048064e+003,1.611877e-003
2.049993e+003,1.634093e-003
2.051921e+003,1.542708e-003
2.053850e+003,1.523023e-003
2.055778e+003,1.622387e-003
2.057707e+003,1.747921e-003
2.059635e+003,1.894123e-003
2.061564e+003,1.919050e-003
2.063492e+003,1.954162e-003
2.065421e+003,1.935424e-003
2.067349e+003,1.850131e-003
2.069278e+003,1.864373e-003
2.071206e+003,1.924874e-003
2.073135e+003,2.046501e-003
2.075063e+003,2.120345e-003
2.076992e+003,2.111089e-003
2.078920e+003,2.164732e-003
2.080849e+003,2.218081e-003
2.082777e+003,2.262477e-003
2.084706e+003,2.264975e-003
2.086634e+003,2.210055e-003
2.088563e+003,2.210021e-003
2.090491e+003,2.365108e-003
2.092420e+003,2.466531e-003
2.094348e+003,2.405588e-003
2.096277e+003,2.468930e-003
2.098205e+003,2.547346e-003
2.100134e+003,2.559844e-003
2.102062e+003,2.646344e-003
2.103991e+003,2.734962e-003
2.105919e+003,2.733328e-003
2.107848e+003,2.661946e-003
2.109776e+003,2.663213e-003
2.111705e+003,2.772641e-003
2.113633e+003,2.914987e-003
2.115562e+003,2.969295e-003
2.117490e+003,2.982941e-003
2.119419e+003,3.007629e-003
2.121347e+003,3.039093e-003
2.123276e+003,3.077934e-003
2.125204e+003,3.076465e-003
2.127133e+003,3.021542e-003
2.129061e+003,3.095553e-003
2.130990e+003,3.240074e-003
2.132918e+003,3.335557e-003
2.134847e+003,3.300667e-003
2.136775e+003,3.228724e-003
2.138704e+003,3.284775e-003
2.140632e+003,3.392323e-003
2.142561e+003,3.298597e-003
2.144489e+003,3.269618e-003
2.146418e+003,3.370551e-003
2.148346e+003,3.529928e-003
2.150275e+003,3.630687e-003
2.152203e+003,3.597143e-003
2.154132e+003,3.584447e-003
2.156060e+003,3.596775e-003
2.157989e+003,3.522746e-003
2.159917e+003,3.532500e-003
2.161846e+003,3.612845e-003
2.163774e+003,3.649064e-003
2.165703e+003,3.689296e-003
2.167631e+003,3.731838e-003
2.169560e+003,3.748648e-003
2.171488e+003,3.850695e-003
2.173417e+003,3.882321e-003
2.175345e+003,3.845848e-003
2.177274e+003,3.825591e-003
2.179202e+003,3.874431e-003
2.181131e+003,3.889743e-003
2.183059e+003,3.839798e-003
2.184988e+003,3.785781e-003
2.186916e+003,3.768200e-003
2.188845e+003,3.746242e-003
2.190773e+003,3.846416e-003
2.192702e+003,3.919866e-003
2.194630e+003,3.848055e-003
2.196559e+003,3.744571e-003
2.198487e+003,3.694309e-003
2.200416e+003,3.744270e-003
2.202344e+003,3.797814e-003
2.204273e+003,3.746509e-003
2.206201e+003,3.775219e-003
2.208130e+003,3.775119e-003
2.210058e+003,3.665538e-003
2.211987e+003,3.648597e-003
2.213915e+003,3.742232e-003
2.215844e+003,3.666774e-003
2.217772e+003,3.577097e-003
2.219701e+003,3.643752e-003
2.221629e+003,3.602455e-003
2.223558e+003,3.589191e-003
2.225486e+003,3.661428e-003
2.227415e+003,3.681076e-003
2.229343e+003,3.615385e-003
2.231272e+003,3.551307e-003
2.233200e+003,3.563968e-003
2.235129e+003,3.583311e-003
2.237057e+003,3.550004e-003
2.238986e+003,3.484701e-003
2.240914e+003,3.369716e-003
2.242843e+003,3.355758e-003
2.244771e+003,3.376127e-003
2.246700e+003,3.330816e-003
2.248628e+003,3.344306e-003
2.250557e+003,3.379834e-003
2.252485e+003,3.370351e-003
2.254414e+003,3.385444e-003
2.256342e+003,3.453973e-003
2.258271e+003,3.426486e-003
2.260199e+003,3.345073e-003
2.262128e+003,3.272022e-003
2.264056e+003,3.325808e-003
2.265985e+003,3.362904e-003
2.267913e+003,3.262340e-003
2.269842e+003,3.272289e-003
2.271770e+003,3.316259e-003
2.273699e+003,3.294757e-003
2.275627e+003,3.371720e-003
2.277556e+003,3.368982e-003
2.279484e+003,3.246049e-003
2.281413e+003,3.185731e-003
2.283341e+003,3.120482e-003
2.285270e+003,3.115276e-003
2.287198e+003,3.236669e-003
2.289127e+003,3.283005e-003
2.291055e+003,3.289416e-003
2.292984e+003,3.276929e-003
2.294912e+003,3.268483e-003
2.296841e+003,3.292521e-003
2.298769e+003,3.330749e-003
2.300698e+003,3.340466e-003
2.302626e+003,3.386212e-003
2.304555e+003,3.483999e-003
2.306483e+003,3.568512e-003
2.308412e+003,3.740794e-003
2.310340e+003,3.876604e-003
2.312269e+003,3.938423e-003
2.314197e+003,4.051818e-003
2.316125e+003,4.230048e-003
2.318054e+003,4.344758e-003
2.319983e+003,4.539715e-003
2.321911e+003,4.706589e-003
2.323840e+003,4.779782e-003
2.325768e+003,4.937833e-003
2.327697e+003,5.150961e-003
2.329625e+003,5.273226e-003
2.331553e+003,5.340443e-003
2.333482e+003,5.428874e-003
2.335411e+003,5.513094e-003
2.337339e+003,5.510443e-003
2.339268e+003,5.528028e-003
2.341196e+003,5.605689e-003
2.343125e+003,5.481015e-003
2.345053e+003,5.175471e-003
2.346981e+003,4.800754e-003
2.348910e+003,4.487787e-003
2.350839e+003,4.784941e-003
2.352767e+003,5.454205e-003
2.354696e+003,5.901594e-003
2.356624e+003,6.223749e-003
2.358552e+003,6.425940e-003
2.360481e+003,6.482876e-003
2.362409e+003,6.501038e-003
2.364338e+003,6.351360e-003
2.366267e+003,6.253698e-003
2.368195e+003,6.063381e-003
2.370124e+003,5.824048e-003
2.372052e+003,5.524169e-003
2.373980e+003,5.151900e-003
2.375909e+003,4.827690e-003
2.377838e+003,4.612612e-003
2.379766e+003,4.536501e-003
2.381695e+003,4.470881e-003
2.383623e+003,4.410593e-003
2.385552e+003,4.482732e-003
2.387480e+003,4.501379e-003
2.389408e+003,4.542125e-003
2.391337e+003,4.659095e-003
2.393266e+003,4.692153e-003
2.395194e+003,4.773818e-003
2.397123e+003,4.830169e-003
2.399051e+003,4.755427e-003
2.400979e+003,4.786113e-003
2.402908e+003,4.871081e-003
2.404836e+003,4.963036e-003
2.406765e+003,4.989010e-003
2.408694e+003,4.938370e-003
2.410622e+003,4.943631e-003
2.412551e+003,5.067179e-003
2.414479e+003,5.183150e-003
2.416407e+003,5.189722e-003
2.418336e+003,5.173929e-003
2.420264e+003,5.260347e-003
2.422193e+003,5.305290e-003
2.424122e+003,5.300360e-003
2.426050e+003,5.316325e-003
2.427979e+003,5.442093e-003
2.429907e+003,5.539035e-003
2.431835e+003,5.569945e-003
2.433764e+003,5.650265e-003
2.435692e+003,5.717641e-003
2.437621e+003,5.768541e-003
2.439550e+003,5.899108e-003
2.441478e+003,5.902635e-003
2.443406e+003,5.866161e-003
2.445335e+003,5.904953e-003
2.447263e+003,5.897328e-003
2.449192e+003,5.899444e-003
2.451121e+003,6.049504e-003
2.453049e+003,6.118488e-003
2.454978e+003,6.123126e-003
2.456906e+003,6.134753e-003
2.458834e+003,6.184290e-003
2.460763e+003,6.374930e-003
2.462691e+003,6.507933e-003
2.464620e+003,6.541333e-003
2.466549e+003,6.520849e-003
2.468477e+003,6.445142e-003
2.470406e+003,6.475040e-003
2.472334e+003,6.528719e-003
2.474262e+003,6.637444e-003
2.476191e+003,6.730851e-003
2.478119e+003,6.746802e-003
2.480048e+003,6.770595e-003
2.481977e+003,6.819095e-003
2.483905e+003,6.891533e-003
2.485833e+003,6.988766e-003
2.487762e+003,6.960449e-003
2.489690e+003,6.983075e-003
2.491619e+003,7.023550e-003
2.493547e+003,7.114446e-003
2.495476e+003,7.230561e-003
2.497405e+003,7.263646e-003
2.499333e+003,7.316345e-003
2.501261e+003,7.442491e-003
2.503190e+003,7.379363e-003
2.505118e+003,7.315300e-003
2.507047e+003,7.428335e-003
2.508975e+003,7.506303e-003
2.510904e+003,7.530879e-003
2.512833e+003,7.549388e-003
2.514761e+003,7.633246e-003
2.516689e+003,7.684101e-003
2.518618e+003,7.619859e-003
2.520546e+003,7.615846e-003
2.522475e+003,7.635202e-003
2.524403e+003,7.620769e-003
2.526332e+003,7.700458e-003
2.528260e+003,7.778442e-003
2.530189e+003,7.804012e-003
2.532117e+003,7.833632e-003
2.534046e+003,7.765185e-003
2.535974e+003,7.810657e-003
2.537903e+003,7.874962e-003
2.539831e+003,7.823747e-003
2.541760e+003,7.823713e-003
2.543688e+003,7.891663e-003
2.545617e+003,7.941368e-003
2.547545e+003,8.036676e-003
2.549474e+003,8.108879e-003
2.551402e+003,8.060168e-003
2.553331e+003,8.023681e-003
2.555259e+003,7.936846e-003
2.557188e+003,7.957701e-003
2.559116e+003,8.008763e-003
2.561045e+003,8.110871e-003
2.562973e+003,8.151856e-003
2.564902e+003,8.110804e-003
2.566830e+003,8.146623e-003
2.568759e+003,8.152869e-003
2.570687e+003,8.075088e-003
2.572616e+003,8.115732e-003
2.574544e+003,8.248628e-003
2.576473e+003,8.234817e-003
2.578401e+003,8.186700e-003
2.580330e+003,8.153612e-003
2.582258e+003,8.231406e-003
2.584187e+003,8.347313e-003
2.586115e+003,8.318942e-003
2.588044e+003,8.317996e-003
2.589972e+003,8.399468e-003
2.591901e+003,8.429703e-003
2.593829e+003,8.534580e-003
2.595758e+003,8.519610e-003
2.597686e+003,8.473996e-003
2.599615e+003,8.569217e-003
2.601543e+003,8.608691e-003
2.603472e+003,8.505689e-003
2.605400e+003,8.494573e-003
2.607329e+003,8.570028e-003
2.609257e+003,8.700292e-003
2.611186e+003,8.811387e-003
2.613114e+003,8.826604e-003
2.615043e+003,8.817136e-003
2.616971e+003,8.899649e-003
2.618900e+003,8.894238e-003
2.620828e+003,8.881657e-003
2.622757e+003,9.056907e-003
2.624685e+003,9.207757e-003
2.626614e+003,9.071049e-003
2.628542e+003,8.969121e-003
2.630471e+003,8.898871e-003
2.632399e+003,8.944328e-003
2.634328e+003,8.985966e-003
2.636256e+003,8.931238e-003
2.638185e+003,8.949063e-003
2.640113e+003,9.078830e-003
2.642042e+003,9.233344e-003
2.643970e+003,9.240519e-003
2.645899e+003,9.245359e-003
2.647827e+003,9.279310e-003
2.649756e+003,9.290785e-003
2.651684e+003,9.311705e-003
2.653613e+003,9.402134e-003
2.655541e+003,9.522147e-003
2.657470e+003,9.554933e-003
2.659398e+003,9.533391e-003
2.661327e+003,9.591956e-003
2.663255e+003,9.642126e-003
2.665184e+003,9.674311e-003
2.667112e+003,9.767424e-003
2.669041e+003,9.769830e-003
2.670969e+003,9.670889e-003
2.672898e+003,9.734825e-003
2.674826e+003,9.831816e-003
2.676755e+003,9.864354e-003
2.678683e+003,9.863574e-003
2.680612e+003,9.928184e-003
2.682540e+003,9.968866e-003
2.684469e+003,9.980766e-003
2.686397e+003,1.011379e-002
2.688326e+003,1.024937e-002
2.690254e+003,1.030437e-002
2.692183e+003,1.025636e-002
2.694111e+003,1.023448e-002
2.696040e+003,1.037016e-002
2.697968e+003,1.043101e-002
2.699897e+003,1.043383e-002
2.701825e+003,1.038594e-002
2.703754e+003,1.046529e-002
2.705682e+003,1.059426e-002
2.707611e+003,1.073966e-002
2.709539e+003,1.080692e-002
2.711468e+003,1.077642e-002
2.713396e+003,1.079591e-002
2.715325e+003,1.075841e-002
2.717253e+003,1.073406e-002
2.719182e+003,1.070754e-002
2.721110e+003,1.085438e-002
2.723039e+003,1.106744e-002
2.724967e+003,1.113389e-002
2.726896e+003,1.118961e-002
2.728824e+003,1.123779e-002
2.730753e+003,1.126499e-002
2.732681e+003,1.138834e-002
2.734610e+003,1.144879e-002
2.736538e+003,1.147941e-002
2.738467e+003,1.158945e-002
2.740395e+003,1.175085e-002
2.742324e+003,1.183985e-002
2.744252e+003,1.196684e-002
2.746181e+003,1.204096e-002
2.748109e+003,1.211339e-002
2.750038e+003,1.222492e-002
2.751966e+003,1.225344e-002
2.753895e+003,1.232161e-002
2.755823e+003,1.239150e-002
2.757752e+003,1.249628e-002
2.759680e+003,1.262629e-002
2.761609e+003,1.279449e-002
2.763537e+003,1.309490e-002
2.765466e+003,1.334446e-002
2.767394e+003,1.361341e-002
2.769323e+003,1.384349e-002
2.771251e+003,1.408383e-002
2.773180e+003,1.453671e-002
2.775108e+003,1.497826e-002
2.777037e+003,1.529071e-002
2.778965e+003,1.567040e-002
2.780894e+003,1.623613e-002
2.782822e+003,1.677865e-002
2.784750e+003,1.727893e-002
2.786679e+003,1.798605e-002
2.788608e+003,1.861580e-002
2.790536e+003,1.916488e-002
2.792465e+003,1.983096e-002
2.794393e+003,2.046805e-002
2.796322e+003,2.104037e-002
2.798250e+003,2.161283e-002
2.800178e+003,2.228271e-002
2.802107e+003,2.288377e-002
2.804036e+003,2.341050e-002
2.805964e+003,2.392937e-002
2.807893e+003,2.413521e-002
2.809821e+003,2.425295e-002
2.811750e+003,2.457780e-002
2.813678e+003,2.469675e-002
2.815606e+003,2.466834e-002
2.817535e+003,2.463513e-002
2.819464e+003,2.454305e-002
2.821392e+003,2.436663e-002
2.823321e+003,2.424041e-002
2.825249e+003,2.397261e-002
2.827177e+003,2.361967e-002
2.829106e+003,2.336347e-002
2.831034e+003,2.298982e-002
2.832963e+003,2.261072e-002
2.834892e+003,2.209524e-002
2.836820e+003,2.153657e-002
2.838749e+003,2.117039e-002
2.840677e+003,2.077697e-002
2.842605e+003,2.022623e-002
2.844534e+003,1.963626e-002
2.846462e+003,1.909573e-002
2.848391e+003,1.858440e-002
2.850320e+003,1.823124e-002
2.852248e+003,1.795562e-002
2.854177e+003,1.766257e-002
2.856105e+003,1.735345e-002
2.858033e+003,1.709385e-002
2.859962e+003,1.707989e-002
2.861890e+003,1.695894e-002
2.863819e+003,1.685580e-002
2.865748e+003,1.694603e-002
2.867676e+003,1.695843e-002
2.869604e+003,1.680390e-002
2.871533e+003,1.672397e-002
2.873461e+003,1.690575e-002
2.875390e+003,1.712480e-002
2.877319e+003,1.717168e-002
2.879247e+003,1.728103e-002
2.881176e+003,1.743449e-002
2.883104e+003,1.742797e-002
2.885032e+003,1.736710e-002
2.886961e+003,1.741763e-002
2.888889e+003,1.740790e-002
2.890818e+003,1.735682e-002
2.892747e+003,1.721553e-002
2.894675e+003,1.712666e-002
2.896604e+003,1.707107e-002
2.898532e+003,1.700101e-002
2.900460e+003,1.691574e-002
2.902389e+003,1.687337e-002
2.904317e+003,1.676994e-002
2.906246e+003,1.672603e-002
2.908175e+003,1.676936e-002
2.910103e+003,1.668860e-002
2.912031e+003,1.667338e-002
2.913960e+003,1.678578e-002
2.915888e+003,1.671019e-002
2.917817e+003,1.665101e-002
2.919745e+003,1.663407e-002
2.921674e+003,1.671119e-002
2.923603e+003,1.671977e-002
2.925531e+003,1.683610e-002
2.927459e+003,1.703458e-002
2.929388e+003,1.711174e-002
2.931316e+003,1.718716e-002
2.933245e+003,1.731793e-002
2.935173e+003,1.744718e-002
2.937102e+003,1.746602e-002
2.939031e+003,1.744849e-002
2.940959e+003,1.751935e-002
2.942887e+003,1.735776e-002
2.944816e+003,1.709254e-002
2.946744e+003,1.700546e-002
2.948673e+003,1.678664e-002
2.950601e+003,1.638072e-002
2.952530e+003,1.598528e-002
2.954458e+003,1.565766e-002
2.956387e+003,1.518728e-002
2.958315e+003,1.461089e-002
2.960244e+003,1.424609e-002
2.962172e+003,1.387962e-002
2.964101e+003,1.330363e-002
2.966029e+003,1.261930e-002
2.967958e+003,1.217871e-002
2.969886e+003,1.180325e-002
2.971815e+003,1.127394e-002
2.973743e+003,1.079292e-002
2.975672e+003,1.047317e-002
2.977600e+003,1.022077e-002
2.979529e+003,9.980494e-003
2.981457e+003,9.606488e-003
2.983386e+003,9.218249e-003
2.985314e+003,8.881251e-003
2.987243e+003,8.657903e-003
2.989171e+003,8.502682e-003
2.991100e+003,8.371195e-003
2.993028e+003,8.135212e-003
2.994957e+003,7.985881e-003
2.996885e+003,7.997761e-003
2.998814e+003,7.928680e-003
3.000742e+003,7.742855e-003
3.002671e+003,7.669835e-003
3.004599e+003,7.638675e-003
3.006528e+003,7.608832e-003
3.008456e+003,7.495077e-003
3.010385e+003,7.353582e-003
3.012313e+003,7.387014e-003
3.014242e+003,7.340877e-003
3.016170e+003,7.180905e-003
3.018099e+003,7.148196e-003
3.020027e+003,7.229955e-003
3.021956e+003,7.203543e-003
3.023884e+003,7.153114e-003
3.025813e+003,7.091173e-003
3.027741e+003,6.924458e-003
3.029670e+003,6.946544e-003
3.031598e+003,7.095349e-003
3.033527e+003,7.028568e-003
3.035455e+003,6.947991e-003
3.037384e+003,6.819296e-003
3.039312e+003,6.562390e-003
3.041241e+003,6.378494e-003
3.043169e+003,6.298610e-003
3.045098e+003,6.374123e-003
3.047026e+003,6.415381e-003
3.048955e+003,6.259245e-003
3.050883e+003,6.160529e-003
3.052812e+003,6.083239e-003
3.054740e+003,6.070571e-003
3.056669e+003,6.098729e-003
3.058597e+003,6.042012e-003
3.060526e+003,5.907942e-003
3.062454e+003,5.799601e-003
3.064383e+003,5.725598e-003
3.066311e+003,5.726169e-003
3.068240e+003,5.731205e-003
3.070168e+003,5.605689e-003
3.072097e+003,5.493229e-003
3.074025e+003,5.531451e-003
3.075954e+003,5.549002e-003
3.077882e+003,5.426525e-003
3.079811e+003,5.240929e-003
3.081739e+003,5.186168e-003
3.083668e+003,5.263701e-003
3.085596e+003,5.183720e-003
3.087525e+003,5.066374e-003
3.089453e+003,5.020249e-003
3.091382e+003,4.961360e-003
3.093310e+003,4.891487e-003
3.095239e+003,4.862771e-003
3.097167e+003,4.828796e-003
3.099096e+003,4.729366e-003
3.101024e+003,4.679023e-003
3.102953e+003,4.717608e-003
3.104881e+003,4.625806e-003
3.106810e+003,4.529603e-003
3.108738e+003,4.487017e-003
3.110667e+003,4.427932e-003
3.112595e+003,4.361526e-003
3.114524e+003,4.329832e-003
3.116452e+003,4.336759e-003
3.118381e+003,4.292318e-003
3.120309e+003,4.186353e-003
3.122238e+003,4.087037e-003
3.124166e+003,3.948420e-003
3.126095e+003,3.943271e-003
3.128023e+003,3.992291e-003
3.129952e+003,4.073157e-003
3.131880e+003,4.093960e-003
3.133809e+003,4.063089e-003
3.135737e+003,3.982560e-003
3.137666e+003,4.017907e-003
3.139594e+003,4.009045e-003
3.141523e+003,3.983062e-003
3.143451e+003,3.848088e-003
3.145380e+003,3.704334e-003
3.147308e+003,3.851464e-003
3.149237e+003,3.834750e-003
3.151165e+003,3.690399e-003
3.153094e+003,3.599448e-003
3.155022e+003,3.620564e-003
3.156951e+003,3.743167e-003
3.158879e+003,3.865271e-003
3.160808e+003,3.865839e-003
3.162736e+003,3.690031e-003
3.164665e+003,3.598479e-003
3.166593e+003,3.556719e-003
3.168522e+003,3.540350e-003
3.170450e+003,3.529360e-003
3.172379e+003,3.608569e-003
3.174307e+003,3.714827e-003
3.176236e+003,3.833781e-003
3.178164e+003,3.765326e-003
3.180093e+003,3.726658e-003
3.182021e+003,3.683181e-003
3.183950e+003,3.615017e-003
3.185878e+003,3.655346e-003
3.187807e+003,3.635499e-003
3.189735e+003,3.555282e-003
3.191664e+003,3.476918e-003
3.193592e+003,3.514963e-003
3.195521e+003,3.517134e-003
3.197449e+003,3.534070e-003
3.199378e+003,3.572053e-003
3.201306e+003,3.575227e-003
3.203235e+003,3.560394e-003
3.205163e+003,3.620831e-003
3.207092e+003,3.524717e-003
3.209020e+003,3.487573e-003
3.210948e+003,3.625575e-003
3.212877e+003,3.620864e-003
3.214806e+003,3.665638e-003
3.216734e+003,3.714593e-003
3.218663e+003,3.595773e-003
3.220591e+003,3.613981e-003
3.222520e+003,3.806170e-003
3.224448e+003,3.906927e-003
3.226376e+003,4.018342e-003
3.228305e+003,4.166180e-003
3.230234e+003,4.185852e-003
3.232162e+003,4.158453e-003
3.234091e+003,4.179027e-003
3.236019e+003,4.275286e-003
3.237948e+003,4.411129e-003
3.239876e+003,4.595098e-003
3.241804e+003,4.706723e-003
3.243733e+003,4.684985e-003
3.245662e+003,4.790368e-003
3.247590e+003,4.825781e-003
3.249519e+003,4.949496e-003
3.251447e+003,4.936593e-003
3.253375e+003,4.834089e-003
3.255304e+003,4.916821e-003
3.257232e+003,5.100233e-003
3.259161e+003,5.232847e-003
3.261090e+003,5.270878e-003
3.263018e+003,5.372814e-003
3.264947e+003,5.337759e-003
3.266875e+003,5.291069e-003
3.268803e+003,5.510544e-003
3.270732e+003,5.677120e-003
3.272660e+003,5.782039e-003
3.274589e+003,5.818507e-003
3.276518e+003,5.797150e-003
3.278446e+003,5.783282e-003
3.280375e+003,5.730668e-003
3.282303e+003,5.832208e-003
3.284231e+003,5.854137e-003
3.286160e+003,5.812026e-003
3.288088e+003,5.771899e-003
3.290017e+003,5.656375e-003
3.291946e+003,5.469640e-003
3.293874e+003,5.381670e-003
3.295802e+003,5.448904e-003
3.297731e+003,5.445649e-003
3.299659e+003,5.286641e-003
3.301588e+003,5.171045e-003
3.303516e+003,5.060474e-003
3.305445e+003,5.043110e-003
3.307374e+003,4.840422e-003
3.309302e+003,4.681502e-003
3.311230e+003,4.563655e-003
3.313159e+003,4.339705e-003
3.315087e+003,4.139686e-003
3.317016e+003,4.028374e-003
3.318944e+003,3.873996e-003
3.320873e+003,3.885898e-003
3.322802e+003,3.813858e-003
3.324730e+003,3.440948e-003
3.326658e+003,3.340733e-003
3.328587e+003,3.371085e-003
3.330515e+003,3.352052e-003
3.332444e+003,3.321768e-003
3.334372e+003,3.171980e-003
3.336301e+003,3.028449e-003
3.338229e+003,2.900910e-003
3.340158e+003,2.862786e-003
3.342086e+003,2.853981e-003
3.344015e+003,2.831001e-003
3.345943e+003,2.781245e-003
3.347872e+003,2.529282e-003
3.349800e+003,2.435608e-003
3.351729e+003,2.560111e-003
3.353657e+003,2.492357e-003
3.355586e+003,2.267340e-003
3.357514e+003,2.004856e-003
3.359443e+003,1.974899e-003
3.361371e+003,2.055756e-003
3.363300e+003,1.918850e-003
3.365229e+003,1.745924e-003
3.367157e+003,1.776798e-003
3.369085e+003,1.642608e-003
3.371014e+003,1.440935e-003
3.372942e+003,1.408956e-003
3.374871e+003,1.327189e-003
3.376799e+003,1.189051e-003
3.378728e+003,1.006718e-003
3.380656e+003,7.563463e-004
3.382585e+003,6.023637e-004
3.384513e+003,5.132181e-004
3.386442e+003,4.600446e-004
3.388370e+003,5.077113e-004
3.390299e+003,4.943761e-004
3.392227e+003,4.955039e-004
3.394156e+003,3.990177e-004
3.396084e+003,1.687182e-004
3.398013e+003,4.751681e-005
3.399941e+003,9.523767e-005
3.401870e+003,1.327884e-004
3.403798e+003,1.229115e-004
3.405727e+003,2.412225e-005
3.407655e+003,4.178403e-005
3.409584e+003,2.872816e-005
3.411512e+003,-2.101846e-004
3.413441e+003,-3.595543e-004
3.415369e+003,-2.304855e-004
3.417298e+003,-1.196305e-004
3.419226e+003,-1.283754e-004
3.421155e+003,-2.438643e-004
3.423083e+003,-2.055812e-004
3.425012e+003,-2.727400e-004
3.426940e+003,-4.432066e-004
3.428869e+003,-3.739885e-004
3.430797e+003,-2.680048e-004
3.432726e+003,-4.593924e-004
3.434654e+003,-7.460675e-004
3.436583e+003,-8.214108e-004
3.438511e+003,-6.718360e-004
3.440440e+003,-5.355134e-004
3.442368e+003,-5.144656e-004
3.444297e+003,-7.178849e-004
3.446225e+003,-7.644250e-004
3.448154e+003,-7.847330e-004
3.450082e+003,-8.588129e-004
3.452011e+003,-1.025777e-003
3.453939e+003,-1.171529e-003
3.455868e+003,-1.251556e-003
3.457796e+003,-1.058733e-003
3.459725e+003,-9.228952e-004
3.461653e+003,-8.979313e-004
3.463582e+003,-1.013480e-003
3.465510e+003,-1.080382e-003
3.467439e+003,-1.016786e-003
3.469367e+003,-1.086530e-003
3.471296e+003,-1.112408e-003
3.473224e+003,-1.093603e-003
3.475153e+003,-1.289020e-003
3.477081e+003,-1.384384e-003
3.479010e+003,-1.301045e-003
3.480938e+003,-1.138219e-003
3.482867e+003,-1.207084e-003
3.484795e+003,-1.232889e-003
3.486724e+003,-1.219441e-003
3.488652e+003,-1.283702e-003
3.490581e+003,-1.352610e-003
3.492509e+003,-1.475369e-003
3.494438e+003,-1.265531e-003
3.496366e+003,-1.077936e-003
3.498295e+003,-1.208604e-003
3.500223e+003,-1.287303e-003
3.502152e+003,-1.218384e-003
3.504080e+003,-1.402913e-003
3.506009e+003,-1.502248e-003
3.507937e+003,-1.168357e-003
3.509866e+003,-1.047428e-003
3.511794e+003,-1.182368e-003
3.513723e+003,-1.380058e-003
3.515651e+003,-1.576535e-003
3.517580e+003,-1.460145e-003
3.519508e+003,-1.328827e-003
3.521437e+003,-1.343890e-003
3.523365e+003,-1.461433e-003
3.525294e+003,-1.537544e-003
3.527222e+003,-1.341908e-003
3.529151e+003,-1.217162e-003
3.531079e+003,-1.316637e-003
3.533008e+003,-1.474279e-003
3.534936e+003,-1.489138e-003
3.536865e+003,-1.520870e-003
3.538793e+003,-1.427782e-003
3.540722e+003,-1.322055e-003
3.542650e+003,-1.283404e-003
3.544579e+003,-1.161054e-003
3.546507e+003,-1.269198e-003
3.548436e+003,-1.576040e-003
3.550364e+003,-1.597796e-003
3.552293e+003,-1.510932e-003
3.554221e+003,-1.732003e-003
3.556150e+003,-1.811135e-003
3.558078e+003,-1.628694e-003
3.560007e+003,-1.476756e-003
3.561935e+003,-1.367407e-003
3.563864e+003,-1.596343e-003
3.565792e+003,-1.490525e-003
3.567721e+003,-1.063063e-003
3.569649e+003,-1.349472e-003
3.571578e+003,-1.782362e-003
3.573506e+003,-1.709000e-003
3.575435e+003,-1.595254e-003
3.577363e+003,-1.630972e-003
3.579292e+003,-1.686920e-003
3.581220e+003,-1.817009e-003
3.583149e+003,-1.890880e-003
3.585077e+003,-1.677744e-003
3.587006e+003,-1.487454e-003
3.588934e+003,-1.543256e-003
3.590863e+003,-1.680781e-003
3.592791e+003,-1.746326e-003
3.594720e+003,-1.769129e-003
3.596648e+003,-1.608987e-003
3.598577e+003,-1.443270e-003
3.600505e+003,-1.601922e-003
3.602434e+003,-1.947223e-003
3.604362e+003,-1.880323e-003
3.606291e+003,-1.654375e-003
3.608219e+003,-1.386994e-003
3.610148e+003,-1.303160e-003
3.612076e+003,-1.343229e-003
3.614005e+003,-1.429796e-003
3.615933e+003,-1.617537e-003
3.617862e+003,-1.273328e-003
3.619790e+003,-1.119976e-003
3.621719e+003,-1.608161e-003
3.623647e+003,-1.797376e-003
3.625576e+003,-1.713885e-003
3.627504e+003,-1.195882e-003
3.629433e+003,-8.251478e-004
3.631361e+003,-1.467212e-003
3.633290e+003,-1.911762e-003
3.635218e+003,-1.961176e-003
3.637146e+003,-2.009232e-003
3.639075e+003,-2.170743e-003
3.641004e+003,-2.139883e-003
3.642932e+003,-2.104438e-003
3.644861e+003,-2.180634e-003
3.646789e+003,-1.824696e-003
3.648718e+003,-1.544312e-003
3.650646e+003,-1.573069e-003
3.652574e+003,-2.064835e-003
3.654503e+003,-2.164413e-003
3.656432e+003,-1.956195e-003
3.658360e+003,-2.209909e-003
3.660289e+003,-2.373355e-003
3.662217e+003,-2.410789e-003
3.664146e+003,-2.439719e-003
3.666074e+003,-2.594713e-003
3.668002e+003,-2.453260e-003
3.669931e+003,-2.043432e-003
3.671860e+003,-2.271748e-003
3.673788e+003,-2.054513e-003
3.675717e+003,-1.421309e-003
3.677645e+003,-1.840171e-003
3.679573e+003,-2.226128e-003
3.681502e+003,-2.448483e-003
3.683430e+003,-2.562072e-003
3.685359e+003,-2.541287e-003
3.687288e+003,-2.003658e-003
3.689216e+003,-1.711508e-003
3.691145e+003,-1.971962e-003
3.693073e+003,-2.281603e-003
3.695001e+003,-2.535325e-003
3.696930e+003,-2.472271e-003
3.698858e+003,-2.549555e-003
3.700787e+003,-2.243434e-003
3.702716e+003,-1.945739e-003
3.704644e+003,-2.040596e-003
3.706573e+003,-2.180337e-003
3.708501e+003,-2.020511e-003
3.710429e+003,-1.658600e-003
3.712358e+003,-1.599017e-003
3.714286e+003,-1.980867e-003
3.716215e+003,-2.362283e-003
3.718144e+003,-2.257805e-003
3.720072e+003,-1.966816e-003
3.722000e+003,-1.855744e-003
3.723929e+003,-1.835519e-003
3.725857e+003,-1.755962e-003
3.727786e+003,-1.743026e-003
3.729714e+003,-1.876199e-003
3.731643e+003,-1.649589e-003
3.733572e+003,-1.493695e-003
3.735500e+003,-1.295462e-003
3.737428e+003,-1.475897e-003
3.739357e+003,-1.719759e-003
3.741285e+003,-1.655960e-003
3.743214e+003,-1.175594e-003
3.745142e+003,-7.117982e-004
3.747071e+003,-1.182202e-003
3.749000e+003,-9.332770e-004
3.750928e+003,-6.853997e-004
3.752856e+003,-7.809625e-004
3.754785e+003,-1.228428e-003
3.756713e+003,-1.142647e-003
3.758642e+003,-1.083423e-003
3.760570e+003,-1.172752e-003
3.762499e+003,-1.271676e-003
3.764427e+003,-1.210388e-003
3.766356e+003,-1.244717e-003
3.768284e+003,-1.213395e-003
3.770213e+003,-1.087852e-003
3.772141e+003,-1.176122e-003
3.774070e+003,-1.172454e-003
3.775998e+003,-1.164821e-003
3.777927e+003,-1.189604e-003
3.779855e+003,-1.099188e-003
3.781784e+003,-1.225058e-003
3.783712e+003,-1.206456e-003
3.785641e+003,-9.637930e-004
3.787569e+003,-1.178336e-003
3.789498e+003,-1.460046e-003
3.791426e+003,-1.349703e-003
3.793355e+003,-1.445087e-003
3.795283e+003,-1.262690e-003
3.797212e+003,-1.140499e-003
3.799140e+003,-1.213923e-003
3.801069e+003,-7.419328e-004
3.802997e+003,-8.933351e-004
3.804926e+003,-1.305703e-003
3.806854e+003,-1.040090e-003
3.808783e+003,-1.332956e-003
3.810711e+003,-1.421606e-003
3.812640e+003,-1.349042e-003
3.814568e+003,-1.200442e-003
3.816497e+003,-8.828531e-004
3.818425e+003,-8.117538e-004
3.820354e+003,-2.581037e-004
3.822282e+003,-3.485958e-004
3.824211e+003,-9.141662e-004
3.826139e+003,-1.059361e-003
3.828068e+003,-1.103881e-003
3.829996e+003,-1.035925e-003
3.831925e+003,-8.672454e-004
3.833853e+003,-9.246475e-004
3.835782e+003,-7.034621e-004
3.837710e+003,-3.589583e-004
3.839639e+003,-5.874666e-004
3.841567e+003,-8.281242e-004
3.843496e+003,-7.693863e-004
3.845424e+003,-8.132420e-004
3.847353e+003,-1.234343e-003
3.849281e+003,-1.306992e-003
3.851210e+003,-5.240299e-004
3.853138e+003,6.692265e-004
3.855067e+003,2.017669e-004
3.856995e+003,-6.480157e-004
3.858924e+003,-8.438987e-004
3.860852e+003,-9.121824e-004
3.862781e+003,-9.121824e-004
3.864709e+003,-6.273704e-004
3.866638e+003,-6.863261e-004
3.868566e+003,-5.987830e-004
3.870495e+003,-4.242067e-004
3.872423e+003,-8.046101e-004
3.874352e+003,-8.262061e-004
3.876280e+003,-9.375752e-004
3.878209e+003,-1.116737e-003
3.880137e+003,-1.087455e-003
3.882066e+003,-9.663717e-004
3.883994e+003,-9.716944e-004
3.885923e+003,-7.736199e-004
3.887851e+003,-1.143837e-003
3.889780e+003,-1.085836e-003
3.891708e+003,-9.930837e-004
3.893637e+003,-1.390693e-003
3.895565e+003,-1.357829e-003
3.897494e+003,-1.012555e-003
3.899422e+003,-6.119850e-004
3.901351e+003,-5.491145e-004
3.903279e+003,-5.610937e-004
3.905208e+003,-6.464607e-004
3.907136e+003,-1.064054e-003
3.909065e+003,-1.315250e-003
3.910993e+003,-1.507200e-003
3.912922e+003,-1.544610e-003
3.914850e+003,-1.288921e-003
3.916779e+003,-1.158972e-003
3.918707e+003,-1.084051e-003
3.920636e+003,-1.078829e-003
3.922564e+003,-1.220928e-003
3.924493e+003,-1.124933e-003
3.926421e+003,-1.071293e-003
3.928350e+003,-1.050436e-003
3.930278e+003,-9.474938e-004
3.932207e+003,-8.549108e-004
3.934135e+003,-7.669387e-004
3.936064e+003,-7.335641e-004
3.937992e+003,-8.481647e-004
3.939921e+003,-1.103518e-003
3.941849e+003,-1.012158e-003
3.943778e+003,-8.929384e-004
3.945706e+003,-1.060551e-003
3.947635e+003,-1.045875e-003
3.949563e+003,-9.093058e-004
3.951492e+003,-8.408563e-004
3.953420e+003,-8.023943e-004
3.955349e+003,-7.867836e-004
3.957277e+003,-7.234421e-004
3.959206e+003,-8.979975e-004
3.961134e+003,-1.071921e-003
3.963063e+003,-9.617432e-004
3.964991e+003,-1.076779e-003
3.966920e+003,-1.216170e-003
3.968848e+003,-8.842419e-004
3.970777e+003,-7.704116e-004
3.972705e+003,-9.530482e-004
3.974634e+003,-1.060121e-003
3.976562e+003,-1.011794e-003
3.978491e+003,-9.619416e-004
3.980419e+003,-1.006505e-003
3.982348e+003,-1.050106e-003
3.984276e+003,-7.829801e-004
3.986205e+003,-7.199689e-004
3.988133e+003,-7.566190e-004
3.990062e+003,-7.328364e-004
3.991990e+003,-8.171776e-004
3.993919e+003,-7.728923e-004
3.995847e+003,-7.387905e-004
3.997776e+003,-8.223037e-004
3.999704e+003,-8.189304e-004
4.001633e+003,0.000000e+000
