3.991989e+002,-2.124177e-002
4.011274e+002,-2.366994e-002
4.030559e+002,-2.629351e-002
4.049844e+002,-2.764824e-002
4.069129e+002,-2.254797e-002
4.088414e+002,-1.555445e-002
4.107699e+002,-1.642918e-002
4.126984e+002,-1.997524e-002
4.146269e+002,-1.803325e-002
4.165554e+002,-1.444940e-002
4.184839e+002,-1.436084e-002
4.204124e+002,-6.170641e-003
4.223409e+002,-2.452173e-003
4.242694e+002,-5.444084e-003
4.261979e+002,-9.257417e-003
4.281264e+002,-3.441282e-003
4.300549e+002,1.917890e-004
4.319834e+002,-2.747381e-003
4.339119e+002,-2.325373e-003
4.358404e+002,2.014310e-003
4.377689e+002,3.965439e-003
4.396974e+002,-4.123673e-003
4.416259e+002,-1.325898e-002
4.435544e+002,-9.654373e-003
4.454829e+002,-5.372713e-003
4.474114e+002,-2.868035e-003
4.493399e+002,-1.315614e-003
4.512684e+002,-3.118552e-003
4.531969e+002,-5.102372e-003
4.551254e+002,-9.006426e-003
4.570539e+002,-9.806717e-003
4.589824e+002,-7.625751e-003
4.609109e+002,-6.919693e-003
4.628394e+002,-5.990153e-003
4.647679e+002,-6.493593e-003
4.666964e+002,-8.129153e-003
4.686249e+002,-8.019125e-003
4.705533e+002,-4.999665e-003
4.724819e+002,-4.918033e-003
4.744103e+002,-6.374302e-003
4.763389e+002,-5.226531e-003
4.782673e+002,-6.041131e-003
4.801959e+002,-9.161334e-003
4.821243e+002,-9.442907e-003
4.840529e+002,-9.318294e-003
4.859813e+002,-9.358733e-003
4.879099e+002,-7.907996e-003
4.898383e+002,-6.809032e-003
4.917668e+002,-9.060167e-003
4.936953e+002,-1.064469e-002
4.956238e+002,-9.431430e-003
4.975523e+002,-8.175978e-003
4.994808e+002,-9.234680e-003
5.014093e+002,-9.131518e-003
5.033378e+002,-7.592346e-003
5.052663e+002,-5.738214e-003
5.071948e+002,-6.006983e-003
5.091233e+002,-9.036704e-003
5.110518e+002,-1.083683e-002
5.129803e+002,-1.020414e-002
5.149088e+002,-9.719989e-003
5.168373e+002,-9.431463e-003
5.187658e+002,-8.327347e-003
5.206943e+002,-9.188455e-003
5.226228e+002,-9.389733e-003
5.245513e+002,-9.054909e-003
5.264798e+002,-1.004426e-002
5.284083e+002,-9.905606e-003
5.303368e+002,-8.332678e-003
5.322653e+002,-8.903470e-003
5.341938e+002,-9.005127e-003
5.361223e+002,-9.148648e-003
5.380508e+002,-9.248595e-003
5.399792e+002,-9.275613e-003
5.419078e+002,-7.871391e-003
5.438363e+002,-6.886853e-003
5.457648e+002,-7.455214e-003
5.476932e+002,-8.131105e-003
5.496218e+002,-8.039292e-003
5.515503e+002,-7.233877e-003
5.534788e+002,-7.178769e-003
5.554072e+002,-7.245576e-003
5.573358e+002,-6.843280e-003
5.592643e+002,-7.172251e-003
5.611927e+002,-7.129130e-003
5.631212e+002,-6.058776e-003
5.650497e+002,-5.788895e-003
5.669783e+002,-7.237853e-003
5.689067e+002,-7.282852e-003
5.708352e+002,-7.431373e-003
5.727637e+002,-7.246357e-003
5.746923e+002,-8.484284e-003
5.766207e+002,-1.097784e-002
5.785492e+002,-7.912518e-003
5.804777e+002,3.027815e-003
5.824063e+002,2.813171e-005
5.843347e+002,-8.493545e-003
5.862632e+002,-9.192153e-003
5.881917e+002,-9.048322e-003
5.901202e+002,-9.078241e-003
5.920487e+002,-9.203052e-003
5.939772e+002,-1.034387e-002
5.959057e+002,-1.101121e-002
5.978342e+002,-8.616089e-003
5.997627e+002,-7.783332e-003
6.016912e+002,-7.886652e-003
6.036197e+002,-8.166485e-003
6.055482e+002,-7.407627e-003
6.074767e+002,-5.967930e-003
6.094052e+002,-4.996684e-003
6.113337e+002,-6.608936e-003
6.132622e+002,-7.160909e-003
6.151907e+002,-7.156314e-003
6.171192e+002,-6.553651e-003
6.190477e+002,-6.145454e-003
6.209762e+002,-5.355695e-003
6.229047e+002,-6.671686e-003
6.248332e+002,-8.936287e-003
6.267617e+002,-9.970148e-003
6.286902e+002,-9.205258e-003
6.306187e+002,-7.504881e-003
6.325472e+002,-6.632693e-003
6.344756e+002,-6.498620e-003
6.364042e+002,-6.309811e-003
6.383326e+002,-6.510240e-003
6.402612e+002,-6.309321e-003
6.421896e+002,-5.161411e-003
6.441182e+002,-4.927664e-003
6.460466e+002,-5.767152e-003
6.479752e+002,-6.041719e-003
6.499036e+002,-5.638176e-003
6.518322e+002,-5.122282e-003
6.537606e+002,-5.082428e-003
6.556891e+002,-5.540666e-003
6.576177e+002,-5.973126e-003
6.595461e+002,-5.998879e-003
6.614746e+002,-6.172960e-003
6.634031e+002,-6.619444e-003
6.653317e+002,-5.706658e-003
6.672601e+002,-4.089768e-003
6.691886e+002,-4.076737e-003
6.711171e+002,-5.031567e-003
6.730457e+002,-5.658977e-003
6.749741e+002,-5.774443e-003
6.769026e+002,-5.308106e-003
6.788311e+002,-4.774221e-003
6.807596e+002,-4.811546e-003
6.826881e+002,-5.274620e-003
6.846166e+002,-5.656557e-003
6.865451e+002,-5.759893e-003
6.884736e+002,-5.574328e-003
6.904021e+002,-5.477524e-003
6.923306e+002,-5.955249e-003
6.942591e+002,-6.250111e-003
6.961876e+002,-6.644668e-003
6.981161e+002,-6.578912e-003
7.000446e+002,-6.082236e-003
7.019731e+002,-6.006820e-003
7.039016e+002,-6.288910e-003
7.058301e+002,-7.108596e-003
7.077585e+002,-7.781803e-003
7.096871e+002,-7.455964e-003
7.116156e+002,-6.934628e-003
7.135441e+002,-7.233356e-003
7.154725e+002,-7.926509e-003
7.174011e+002,-8.449353e-003
7.193296e+002,-8.418579e-003
7.212581e+002,-8.438467e-003
7.231865e+002,-8.514892e-003
7.251151e+002,-8.348833e-003
7.270436e+002,-8.289672e-003
7.289720e+002,-8.221922e-003
7.309005e+002,-8.452700e-003
7.328290e+002,-8.352310e-003
7.347576e+002,-7.849688e-003
7.366860e+002,-6.976561e-003
7.386145e+002,-6.705651e-003
7.405430e+002,-7.332440e-003
7.424716e+002,-7.416845e-003
7.444000e+002,-6.933063e-003
7.463285e+002,-6.189228e-003
7.482570e+002,-5.970872e-003
7.501855e+002,-5.379193e-003
7.521140e+002,-4.815905e-003
7.540425e+002,-4.431162e-003
7.559710e+002,-4.276296e-003
7.578995e+002,-4.006979e-003
7.598280e+002,-3.613500e-003
7.617565e+002,-3.237951e-003
7.636850e+002,-3.048903e-003
7.656135e+002,-2.537828e-003
7.675420e+002,-1.962363e-003
7.694705e+002,-1.496634e-003
7.713990e+002,-1.441520e-003
7.733275e+002,-1.563858e-003
7.752560e+002,-1.727152e-003
7.771844e+002,-2.133157e-003
7.791130e+002,-2.417478e-003
7.810415e+002,-2.464528e-003
7.829700e+002,-2.385614e-003
7.848984e+002,-2.092270e-003
7.868270e+002,-2.326658e-003
7.887555e+002,-2.657025e-003
7.906840e+002,-3.002673e-003
7.926124e+002,-3.410907e-003
7.945410e+002,-3.924437e-003
7.964695e+002,-4.244929e-003
7.983979e+002,-4.343451e-003
8.003264e+002,-4.498588e-003
8.022549e+002,-4.397838e-003
8.041835e+002,-4.246537e-003
8.061119e+002,-4.546955e-003
8.080404e+002,-4.396723e-003
8.099689e+002,-4.365922e-003
8.118975e+002,-4.118323e-003
8.138259e+002,-3.612942e-003
8.157545e+002,-3.567494e-003
8.176830e+002,-4.177857e-003
8.196115e+002,-4.984565e-003
8.215399e+002,-5.886839e-003
8.234684e+002,-5.888408e-003
8.253970e+002,-5.999009e-003
8.273254e+002,-6.314938e-003
8.292539e+002,-6.579401e-003
8.311824e+002,-6.870481e-003
8.331110e+002,-6.823742e-003
8.350394e+002,-6.432515e-003
8.369679e+002,-5.740470e-003
8.388964e+002,-6.012310e-003
8.408250e+002,-6.447630e-003
8.427534e+002,-6.283587e-003
8.446819e+002,-5.918185e-003
8.466104e+002,-6.089097e-003
8.485389e+002,-6.436955e-003
8.504674e+002,-6.480177e-003
8.523959e+002,-6.198831e-003
8.543244e+002,-6.124350e-003
8.562529e+002,-5.983094e-003
8.581814e+002,-5.783500e-003
8.601099e+002,-5.506610e-003
8.620384e+002,-5.427625e-003
8.639669e+002,-5.913348e-003
8.658954e+002,-6.037994e-003
8.678239e+002,-5.682982e-003
8.697524e+002,-5.685598e-003
8.716809e+002,-5.821850e-003
8.736094e+002,-5.747762e-003
8.755378e+002,-5.502422e-003
8.774664e+002,-5.463258e-003
8.793949e+002,-5.064711e-003
8.813234e+002,-4.941358e-003
8.832518e+002,-5.231507e-003
8.851804e+002,-5.677455e-003
8.871089e+002,-5.785004e-003
8.890374e+002,-5.239135e-003
8.909658e+002,-4.909744e-003
8.928943e+002,-4.572300e-003
8.948229e+002,-4.725520e-003
8.967513e+002,-4.777892e-003
8.986798e+002,-4.858960e-003
9.006083e+002,-4.962651e-003
9.025369e+002,-5.025049e-003
9.044653e+002,-5.112196e-003
9.063938e+002,-5.280414e-003
9.083223e+002,-5.313899e-003
9.102509e+002,-5.549205e-003
9.121793e+002,-5.998813e-003
9.141078e+002,-6.390986e-003
9.160364e+002,-6.470612e-003
9.179648e+002,-6.456706e-003
9.198933e+002,-6.674035e-003
9.218218e+002,-7.185059e-003
9.237504e+002,-7.578638e-003
9.256788e+002,-7.854210e-003
9.276073e+002,-8.135787e-003
9.295358e+002,-7.982790e-003
9.314644e+002,-7.866250e-003
9.333928e+002,-7.957871e-003
9.353213e+002,-8.151298e-003
9.372498e+002,-8.106941e-003
9.391783e+002,-8.238080e-003
9.411068e+002,-8.332743e-003
9.430353e+002,-8.107852e-003
9.449637e+002,-8.131625e-003
9.468923e+002,-8.251539e-003
9.488208e+002,-7.972251e-003
9.507493e+002,-7.605923e-003
9.526777e+002,-7.490422e-003
9.546063e+002,-7.482377e-003
9.565348e+002,-7.421927e-003
9.584633e+002,-7.411178e-003
9.603917e+002,-7.341400e-003
9.623203e+002,-7.385216e-003
9.642488e+002,-6.966779e-003
9.661772e+002,-6.570166e-003
9.681057e+002,-6.411915e-003
9.700343e+002,-6.291491e-003
9.719628e+002,-6.184753e-003
9.738912e+002,-6.272614e-003
9.758197e+002,-6.449001e-003
9.777483e+002,-6.231233e-003
9.796768e+002,-5.785625e-003
9.816052e+002,-5.490513e-003
9.835337e+002,-5.490644e-003
9.854623e+002,-5.410183e-003
9.873907e+002,-5.331017e-003
9.893192e+002,-5.146055e-003
9.912477e+002,-4.968711e-003
9.931763e+002,-4.964714e-003
9.951047e+002,-4.915838e-003
9.970332e+002,-4.821115e-003
9.989617e+002,-4.955444e-003
1.000890e+003,-4.750297e-003
1.002819e+003,-4.353654e-003
1.004747e+003,-4.183600e-003
1.006676e+003,-4.032126e-003
1.008604e+003,-3.918691e-003
1.010533e+003,-3.886477e-003
1.012461e+003,-3.796621e-003
1.014390e+003,-3.545673e-003
1.016318e+003,-3.461466e-003
1.018247e+003,-3.367609e-003
1.020175e+003,-3.221178e-003
1.022104e+003,-2.831167e-003
1.024032e+003,-2.475960e-003
1.025961e+003,-2.367490e-003
1.027889e+003,-2.352660e-003
1.029818e+003,-2.254905e-003
1.031746e+003,-2.139059e-003
1.033675e+003,-1.969422e-003
1.035603e+003,-1.528035e-003
1.037532e+003,-1.070764e-003
1.039460e+003,-9.155549e-004
1.041389e+003,-8.802739e-004
1.043317e+003,-8.722055e-004
1.045246e+003,-1.087025e-003
1.047174e+003,-1.025215e-003
1.049103e+003,-8.482308e-004
1.051031e+003,-7.965073e-004
1.052960e+003,-7.493752e-004
1.054888e+003,-8.473380e-004
1.056817e+003,-8.525630e-004
1.058745e+003,-7.962427e-004
1.060674e+003,-9.673305e-004
1.062602e+003,-8.095379e-004
1.064531e+003,-5.249234e-004
1.066459e+003,-5.271407e-004
1.068388e+003,-6.586689e-004
1.070316e+003,-5.427938e-004
1.072245e+003,-3.333992e-004
1.074173e+003,-1.824639e-004
1.076102e+003,-1.905783e-004
1.078030e+003,-2.353536e-004
1.079959e+003,-1.516612e-004
1.081887e+003,1.965293e-004
1.083816e+003,3.997473e-004
1.085744e+003,6.056817e-004
1.087673e+003,9.829394e-004
1.089601e+003,1.081216e-003
1.091530e+003,1.276142e-003
1.093458e+003,1.727229e-003
1.095387e+003,1.903508e-003
1.097315e+003,2.005988e-003
1.099244e+003,2.059351e-003
1.101172e+003,2.290822e-003
1.103101e+003,2.449403e-003
1.105029e+003,2.260878e-003
1.106958e+003,2.387896e-003
1.108886e+003,2.562244e-003
1.110815e+003,2.558678e-003
1.112743e+003,2.744865e-003
1.114672e+003,2.753034e-003
1.116600e+003,2.790215e-003
1.118529e+003,2.913486e-003
1.120457e+003,2.680782e-003
1.122386e+003,2.593709e-003
1.124314e+003,2.639910e-003
1.126243e+003,2.260412e-003
1.128171e+003,2.016673e-003
1.130100e+003,2.006820e-003
1.132028e+003,1.798557e-003
1.133957e+003,1.614903e-003
1.135885e+003,1.365777e-003
1.137814e+003,9.986475e-004
1.139742e+003,5.227720e-004
1.141671e+003,9.474055e-005
1.143599e+003,-2.013089e-004
1.145528e+003,-5.169808e-004
1.147456e+003,-9.247136e-004
1.149385e+003,-1.352346e-003
1.151313e+003,-1.764872e-003
1.153242e+003,-2.028558e-003
1.155170e+003,-2.288756e-003
1.157099e+003,-2.569285e-003
1.159027e+003,-2.798511e-003
1.160956e+003,-2.698913e-003
1.162884e+003,-2.920664e-003
1.164813e+003,-3.189472e-003
1.166741e+003,-3.089305e-003
1.168670e+003,-3.027187e-003
1.170598e+003,-2.995565e-003
1.172526e+003,-3.128980e-003
1.174455e+003,-3.288135e-003
1.176384e+003,-3.228117e-003
1.178312e+003,-3.204930e-003
1.180240e+003,-3.253605e-003
1.182169e+003,-3.376256e-003
1.184098e+003,-3.322958e-003
1.186026e+003,-3.216508e-003
1.187954e+003,-3.284123e-003
1.189883e+003,-3.527761e-003
1.191812e+003,-3.598385e-003
1.193740e+003,-3.510967e-003
1.195668e+003,-3.430631e-003
1.197597e+003,-3.463043e-003
1.199526e+003,-3.310594e-003
1.201454e+003,-3.270608e-003
1.203382e+003,-3.162138e-003
1.205311e+003,-2.981284e-003
1.207240e+003,-2.877679e-003
1.209168e+003,-2.677344e-003
1.211096e+003,-2.661537e-003
1.213025e+003,-2.544120e-003
1.214953e+003,-2.361163e-003
1.216882e+003,-2.346827e-003
1.218810e+003,-2.277846e-003
1.220739e+003,-2.201206e-003
1.222667e+003,-2.033242e-003
1.224596e+003,-1.878838e-003
1.226524e+003,-1.877947e-003
1.228453e+003,-1.824631e-003
1.230381e+003,-1.582181e-003
1.232310e+003,-1.337845e-003
1.234238e+003,-1.341214e-003
1.236167e+003,-1.368663e-003
1.238095e+003,-1.339397e-003
1.240024e+003,-1.332130e-003
1.241952e+003,-1.305637e-003
1.243881e+003,-1.521497e-003
1.245809e+003,-1.621366e-003
1.247738e+003,-1.763024e-003
1.249666e+003,-1.861386e-003
1.251595e+003,-1.879531e-003
1.253523e+003,-1.934193e-003
1.255452e+003,-2.024931e-003
1.257380e+003,-1.994654e-003
1.259309e+003,-1.932313e-003
1.261237e+003,-1.812323e-003
1.263166e+003,-1.682992e-003
1.265094e+003,-1.423059e-003
1.267023e+003,-1.052849e-003
1.268951e+003,-7.206305e-004
1.270880e+003,-5.300861e-004
1.272808e+003,-2.763162e-004
1.274737e+003,1.032579e-004
1.276665e+003,5.410181e-004
1.278594e+003,9.464109e-004
1.280522e+003,1.167588e-003
1.282451e+003,1.423516e-003
1.284379e+003,1.741899e-003
1.286308e+003,2.307577e-003
1.288236e+003,2.704387e-003
1.290165e+003,2.957519e-003
1.292093e+003,3.372521e-003
1.294022e+003,3.642315e-003
1.295950e+003,3.953502e-003
1.297879e+003,4.237208e-003
1.299807e+003,4.382544e-003
1.301736e+003,4.338031e-003
1.303664e+003,4.377490e-003
1.305593e+003,4.522505e-003
1.307521e+003,4.500676e-003
1.309450e+003,4.261399e-003
1.311378e+003,3.901410e-003
1.313307e+003,3.651069e-003
1.315235e+003,3.534270e-003
1.317164e+003,3.294791e-003
1.319092e+003,2.822997e-003
1.321021e+003,2.254516e-003
1.322949e+003,1.916920e-003
1.324878e+003,1.646599e-003
1.326806e+003,1.444825e-003
1.328735e+003,1.479400e-003
1.330663e+003,1.360093e-003
1.332592e+003,1.068627e-003
1.334520e+003,9.452486e-004
1.336449e+003,9.072292e-004
1.338377e+003,8.454754e-004
1.340306e+003,8.733299e-004
1.342234e+003,9.452819e-004
1.344163e+003,8.941141e-004
1.346091e+003,7.720795e-004
1.348020e+003,7.078226e-004
1.349948e+003,6.490836e-004
1.351877e+003,4.446876e-004
1.353805e+003,4.050868e-004
1.355734e+003,3.589237e-004
1.357662e+003,2.630314e-004
1.359591e+003,2.008387e-004
1.361519e+003,6.454990e-005
1.363448e+003,-2.872626e-005
1.365376e+003,-1.622602e-004
1.367305e+003,-1.852460e-004
1.369233e+003,-2.841308e-004
1.371162e+003,-4.945421e-004
1.373090e+003,-4.380761e-004
1.375019e+003,-3.151891e-004
1.376947e+003,-2.641636e-004
1.378876e+003,-1.487795e-004
1.380804e+003,-7.722858e-005
1.382733e+003,-1.716998e-004
1.384661e+003,-3.070109e-004
1.386590e+003,-4.527725e-004
1.388518e+003,-6.849366e-004
1.390447e+003,-9.371454e-004
1.392375e+003,-1.144762e-003
1.394304e+003,-1.362882e-003
1.396232e+003,-1.425999e-003
1.398161e+003,-1.403541e-003
1.400089e+003,-1.417313e-003
1.402018e+003,-1.463976e-003
1.403946e+003,-1.439935e-003
1.405875e+003,-1.517833e-003
1.407803e+003,-1.718637e-003
1.409732e+003,-1.896191e-003
1.411660e+003,-1.986738e-003
1.413589e+003,-2.000195e-003
1.415517e+003,-1.865378e-003
1.417446e+003,-1.528167e-003
1.419374e+003,-8.775624e-004
1.421303e+003,-1.970366e-004
1.423231e+003,4.917555e-004
1.425160e+003,1.254077e-003
1.427088e+003,1.790971e-003
1.429017e+003,2.130701e-003
1.430945e+003,2.406554e-003
1.432874e+003,2.719391e-003
1.434802e+003,3.116945e-003
1.436731e+003,3.536341e-003
1.438659e+003,3.970154e-003
1.440588e+003,4.264076e-003
1.442516e+003,4.703574e-003
1.444445e+003,5.270174e-003
1.446373e+003,5.858738e-003
1.448302e+003,6.385555e-003
1.450230e+003,6.804015e-003
1.452159e+003,7.419976e-003
1.454087e+003,8.155434e-003
1.456016e+003,8.703571e-003
1.457944e+003,9.110738e-003
1.459873e+003,9.301753e-003
1.461801e+003,9.510632e-003
1.463730e+003,9.748278e-003
1.465658e+003,9.863506e-003
1.467587e+003,9.725371e-003
1.469515e+003,9.555102e-003
1.471444e+003,9.424312e-003
1.473372e+003,9.155404e-003
1.475301e+003,8.859675e-003
1.477229e+003,8.323096e-003
1.479158e+003,7.695770e-003
1.481086e+003,7.077600e-003
1.483015e+003,6.597073e-003
1.484943e+003,6.216422e-003
1.486872e+003,5.798157e-003
1.488800e+003,5.278827e-003
1.490729e+003,4.792847e-003
1.492657e+003,4.220445e-003
1.494586e+003,3.767365e-003
1.496514e+003,3.378832e-003
1.498443e+003,2.960722e-003
1.500371e+003,2.428778e-003
1.502300e+003,1.917685e-003
1.504228e+003,1.733449e-003
1.506157e+003,1.666655e-003
1.508085e+003,1.383959e-003
1.510014e+003,1.068428e-003
1.511942e+003,9.139363e-004
1.513871e+003,8.217390e-004
1.515799e+003,7.093492e-004
1.517728e+003,6.627887e-004
1.519656e+003,7.250144e-004
1.521585e+003,9.458796e-004
1.523513e+003,1.079356e-003
1.525442e+003,1.207458e-003
1.527370e+003,1.311435e-003
1.529299e+003,1.376347e-003
1.531227e+003,1.684550e-003
1.533156e+003,2.149614e-003
1.535084e+003,2.470663e-003
1.537013e+003,2.770607e-003
1.538941e+003,3.142943e-003
1.540870e+003,3.526086e-003
1.542798e+003,3.876069e-003
1.544727e+003,4.206695e-003
1.546655e+003,4.513164e-003
1.548584e+003,4.843471e-003
1.550512e+003,5.324778e-003
1.552441e+003,5.735032e-003
1.554369e+003,6.171182e-003
1.556298e+003,6.767869e-003
1.558226e+003,7.524474e-003
1.560155e+003,8.086565e-003
1.562083e+003,8.453454e-003
1.564012e+003,8.747892e-003
1.565940e+003,8.932997e-003
1.567869e+003,9.009375e-003
1.569797e+003,9.099741e-003
1.571726e+003,9.252434e-003
1.573654e+003,9.274131e-003
1.575583e+003,9.331678e-003
1.577511e+003,9.304698e-003
1.579440e+003,9.212191e-003
1.581368e+003,9.168432e-003
1.583297e+003,8.922039e-003
1.585225e+003,8.623393e-003
1.587154e+003,8.379234e-003
1.589082e+003,8.015580e-003
1.591010e+003,7.459109e-003
1.592939e+003,6.918297e-003
1.594868e+003,6.506083e-003
1.596796e+003,6.092782e-003
1.598724e+003,5.447831e-003
1.600653e+003,4.692789e-003
1.602582e+003,4.106136e-003
1.604510e+003,3.570048e-003
1.606438e+003,3.048636e-003
1.608367e+003,2.544846e-003
1.610296e+003,2.221511e-003
1.612224e+003,1.749018e-003
1.614152e+003,1.371859e-003
1.616081e+003,1.100914e-003
1.618010e+003,8.649302e-004
1.619938e+003,5.768157e-004
1.621866e+003,4.014055e-004
1.623795e+003,2.020984e-004
1.625724e+003,1.275185e-004
1.627652e+003,6.561035e-005
1.629580e+003,-2.121055e-004
1.631509e+003,-4.650853e-004
1.633438e+003,-5.267105e-004
1.635366e+003,-6.802721e-004
1.637294e+003,-1.085902e-003
1.639223e+003,-1.378935e-003
1.641151e+003,-1.678239e-003
1.643080e+003,-2.049731e-003
1.645008e+003,-2.270924e-003
1.646937e+003,-2.451679e-003
1.648865e+003,-2.693874e-003
1.650794e+003,-2.740434e-003
1.652722e+003,-2.688705e-003
1.654651e+003,-3.026167e-003
1.656579e+003,-3.268667e-003
1.658508e+003,-3.501172e-003
1.660436e+003,-3.613204e-003
1.662365e+003,-3.637914e-003
1.664293e+003,-3.778489e-003
1.666222e+003,-3.869729e-003
1.668150e+003,-4.017287e-003
1.670079e+003,-4.343419e-003
1.672007e+003,-4.581677e-003
1.673936e+003,-4.847394e-003
1.675864e+003,-5.082330e-003
1.677793e+003,-5.333930e-003
1.679721e+003,-5.616556e-003
1.681650e+003,-5.899031e-003
1.683578e+003,-5.932338e-003
1.685507e+003,-6.263176e-003
1.687435e+003,-6.714101e-003
1.689364e+003,-6.953476e-003
1.691292e+003,-7.116907e-003
1.693221e+003,-7.241926e-003
1.695149e+003,-7.357884e-003
1.697078e+003,-7.516735e-003
1.699006e+003,-7.540801e-003
1.700935e+003,-7.608723e-003
1.702863e+003,-7.768686e-003
1.704792e+003,-7.808815e-003
1.706720e+003,-7.778353e-003
1.708649e+003,-7.886554e-003
1.710577e+003,-8.085120e-003
1.712506e+003,-8.217403e-003
1.714434e+003,-8.245492e-003
1.716363e+003,-8.315970e-003
1.718291e+003,-8.375354e-003
1.720220e+003,-8.419489e-003
1.722148e+003,-8.517816e-003
1.724077e+003,-8.686344e-003
1.726005e+003,-8.734507e-003
1.727934e+003,-8.709566e-003
1.729862e+003,-8.700049e-003
1.731791e+003,-8.705863e-003
1.733719e+003,-8.717035e-003
1.735648e+003,-8.800196e-003
1.737576e+003,-8.836366e-003
1.739505e+003,-8.773734e-003
1.741433e+003,-8.715118e-003
1.743362e+003,-8.807307e-003
1.745290e+003,-8.741098e-003
1.747219e+003,-8.610762e-003
1.749147e+003,-8.536660e-003
1.751076e+003,-8.517621e-003
1.753004e+003,-8.536206e-003
1.754933e+003,-8.438434e-003
1.756861e+003,-8.240193e-003
1.758790e+003,-8.235934e-003
1.760718e+003,-8.346850e-003
1.762647e+003,-8.414094e-003
1.764575e+003,-8.358128e-003
1.766504e+003,-8.266527e-003
1.768432e+003,-8.160631e-003
1.770361e+003,-8.116698e-003
1.772289e+003,-8.152665e-003
1.774218e+003,-8.201601e-003
1.776146e+003,-8.190514e-003
1.778075e+003,-8.210380e-003
1.780003e+003,-8.261845e-003
1.781932e+003,-8.235284e-003
1.783860e+003,-8.198642e-003
1.785789e+003,-8.144274e-003
1.787717e+003,-8.065280e-003
1.789646e+003,-8.006374e-003
1.791574e+003,-8.091331e-003
1.793503e+003,-8.279921e-003
1.795431e+003,-8.313240e-003
1.797360e+003,-8.211095e-003
1.799288e+003,-8.128340e-003
1.801217e+003,-8.242144e-003
1.803145e+003,-8.265941e-003
1.805074e+003,-8.199975e-003
1.807002e+003,-8.231156e-003
1.808931e+003,-8.287949e-003
1.810859e+003,-8.225303e-003
1.812788e+003,-8.196658e-003
1.814716e+003,-8.302839e-003
1.816645e+003,-8.367944e-003
1.818573e+003,-8.394692e-003
1.820502e+003,-8.446786e-003
1.822430e+003,-8.470117e-003
1.824359e+003,-8.435022e-003
1.826287e+003,-8.448834e-003
1.828216e+003,-8.499491e-003
1.830144e+003,-8.503618e-003
1.832073e+003,-8.489646e-003
1.834001e+003,-8.491173e-003
1.835930e+003,-8.561124e-003
1.837858e+003,-8.580063e-003
1.839787e+003,-8.591791e-003
1.841715e+003,-8.550826e-003
1.843644e+003,-8.487469e-003
1.845572e+003,-8.534646e-003
1.847501e+003,-8.530780e-003
1.849429e+003,-8.450815e-003
1.851358e+003,-8.441814e-003
1.853286e+003,-8.469663e-003
1.855215e+003,-8.452083e-003
1.857143e+003,-8.434470e-003
1.859072e+003,-8.435185e-003
1.861000e+003,-8.345745e-003
1.862929e+003,-8.305829e-003
1.864857e+003,-8.284342e-003
1.866786e+003,-8.305764e-003
1.868714e+003,-8.325332e-003
1.870643e+003,-8.299620e-003
1.872571e+003,-8.248776e-003
1.874500e+003,-8.190058e-003
1.876428e+003,-8.206152e-003
1.878357e+003,-8.196268e-003
1.880285e+003,-8.135950e-003
1.882214e+003,-8.125738e-003
1.884142e+003,-8.167948e-003
1.886071e+003,-8.200430e-003
1.887999e+003,-8.204429e-003
1.889928e+003,-8.149153e-003
1.891856e+003,-8.095331e-003
1.893785e+003,-8.053994e-003
1.895713e+003,-7.950812e-003
1.897642e+003,-7.962849e-003
1.899570e+003,-8.072728e-003
1.901499e+003,-8.061410e-003
1.903427e+003,-8.017434e-003
1.905356e+003,-8.092502e-003
1.907284e+003,-8.068207e-003
1.909213e+003,-7.964475e-003
1.911141e+003,-7.987085e-003
1.913070e+003,-8.038544e-003
1.914998e+003,-8.046253e-003
1.916927e+003,-8.029990e-003
1.918855e+003,-8.016002e-003
1.920784e+003,-8.035421e-003
1.922712e+003,-8.097673e-003
1.924641e+003,-8.011839e-003
1.926569e+003,-8.017076e-003
1.928498e+003,-8.113023e-003
1.930426e+003,-8.087103e-003
1.932355e+003,-8.031779e-003
1.934283e+003,-8.117088e-003
1.936212e+003,-8.205502e-003
1.938140e+003,-8.163980e-003
1.940069e+003,-8.140372e-003
1.941997e+003,-8.160045e-003
1.943926e+003,-8.198935e-003
1.945854e+003,-8.253166e-003
1.947783e+003,-8.345127e-003
1.949711e+003,-8.359656e-003
1.951640e+003,-8.318311e-003
1.953568e+003,-8.307519e-003
1.955497e+003,-8.368334e-003
1.957425e+003,-8.414452e-003
1.959354e+003,-8.411202e-003
1.961282e+003,-8.280278e-003
1.963211e+003,-8.267535e-003
1.965139e+003,-8.273581e-003
1.967068e+003,-8.291201e-003
1.968996e+003,-8.300855e-003
1.970925e+003,-8.213696e-003
1.972853e+003,-8.219776e-003
1.974782e+003,-8.209826e-003
1.976710e+003,-8.206250e-003
1.978639e+003,-8.222735e-003
1.980567e+003,-8.205047e-003
1.982496e+003,-8.205340e-003
1.984424e+003,-8.240616e-003
1.986353e+003,-8.189083e-003
1.988281e+003,-8.113348e-003
1.990210e+003,-8.008229e-003
1.992138e+003,-7.916553e-003
1.994067e+003,-7.918766e-003
1.995995e+003,-7.938351e-003
1.997924e+003,-7.851250e-003
1.999852e+003,-7.781510e-003
2.001781e+003,-7.788377e-003
2.003709e+003,-7.805300e-003
2.005638e+003,-7.763707e-003
2.007566e+003,-7.818935e-003
2.009495e+003,-7.861337e-003
2.011423e+003,-7.917952e-003
2.013352e+003,-7.779459e-003
2.015280e+003,-7.639002e-003
2.017208e+003,-7.739133e-003
2.019137e+003,-7.840478e-003
2.021066e+003,-7.741672e-003
2.022994e+003,-7.635680e-003
2.024922e+003,-7.675756e-003
2.026851e+003,-7.753324e-003
2.028780e+003,-7.823134e-003
2.030708e+003,-7.756189e-003
2.032636e+003,-7.621291e-003
2.034565e+003,-7.639132e-003
2.036494e+003,-7.713516e-003
2.038422e+003,-7.661367e-003
2.040350e+003,-7.611653e-003
2.042279e+003,-7.590099e-003
2.044208e+003,-7.616863e-003
2.046136e+003,-7.686238e-003
2.048064e+003,-7.677188e-003
2.049993e+003,-7.547867e-003
2.051921e+003,-7.503383e-003
2.053850e+003,-7.538749e-003
2.055778e+003,-7.553826e-003
2.057707e+003,-7.499736e-003
2.059635e+003,-7.373619e-003
2.061564e+003,-7.381600e-003
2.063492e+003,-7.443294e-003
2.065421e+003,-7.498107e-003
2.067349e+003,-7.526798e-003
2.069278e+003,-7.444922e-003
2.071206e+003,-7.379483e-003
2.073135e+003,-7.314521e-003
2.075063e+003,-7.254438e-003
2.076992e+003,-7.240329e-003
2.078920e+003,-7.216475e-003
2.080849e+003,-7.215693e-003
2.082777e+003,-7.199822e-003
2.084706e+003,-7.178085e-003
2.086634e+003,-7.199562e-003
2.088563e+003,-7.155303e-003
2.090491e+003,-7.036748e-003
2.092420e+003,-6.939487e-003
2.094348e+003,-6.951813e-003
2.096277e+003,-6.894941e-003
2.098205e+003,-6.802964e-003
2.100134e+003,-6.801497e-003
2.102062e+003,-6.728130e-003
2.103991e+003,-6.601495e-003
2.105919e+003,-6.553161e-003
2.107848e+003,-6.553716e-003
2.109776e+003,-6.502668e-003
2.111705e+003,-6.478545e-003
2.113633e+003,-6.415832e-003
2.115562e+003,-6.333845e-003
2.117490e+003,-6.273039e-003
2.119419e+003,-6.234597e-003
2.121347e+003,-6.205364e-003
2.123276e+003,-6.192723e-003
2.125204e+003,-6.222316e-003
2.127133e+003,-6.282118e-003
2.129061e+003,-6.170772e-003
2.130990e+003,-6.082922e-003
2.132918e+003,-6.075897e-003
2.134847e+003,-6.108113e-003
2.136775e+003,-6.164728e-003
2.138704e+003,-6.107786e-003
2.140632e+003,-5.980480e-003
2.142561e+003,-6.021427e-003
2.144489e+003,-6.099552e-003
2.146418e+003,-5.977212e-003
2.148346e+003,-5.834731e-003
2.150275e+003,-5.802757e-003
2.152203e+003,-5.882753e-003
2.154132e+003,-5.940084e-003
2.156060e+003,-5.974859e-003
2.157989e+003,-6.014891e-003
2.159917e+003,-5.981917e-003
2.161846e+003,-5.945902e-003
2.163774e+003,-5.988291e-003
2.165703e+003,-5.974760e-003
2.167631e+003,-5.923644e-003
2.169560e+003,-5.858432e-003
2.171488e+003,-5.795761e-003
2.173417e+003,-5.815279e-003
2.175345e+003,-5.869612e-003
2.177274e+003,-5.908576e-003
2.179202e+003,-5.875888e-003
2.181131e+003,-5.850390e-003
2.183059e+003,-5.877032e-003
2.184988e+003,-5.915571e-003
2.186916e+003,-5.949432e-003
2.188845e+003,-5.923448e-003
2.190773e+003,-5.825218e-003
2.192702e+003,-5.763097e-003
2.194630e+003,-5.842021e-003
2.196559e+003,-5.929004e-003
2.198487e+003,-5.961655e-003
2.200416e+003,-5.953615e-003
2.202344e+003,-5.899423e-003
2.204273e+003,-5.863074e-003
2.206201e+003,-5.775261e-003
2.208130e+003,-5.750084e-003
2.210058e+003,-5.866081e-003
2.211987e+003,-5.967603e-003
2.213915e+003,-5.874319e-003
2.215844e+003,-5.807400e-003
2.217772e+003,-5.800305e-003
2.219701e+003,-5.749986e-003
2.221629e+003,-5.840943e-003
2.223558e+003,-5.848298e-003
2.225486e+003,-5.779969e-003
2.227415e+003,-5.778628e-003
2.229343e+003,-5.817502e-003
2.231272e+003,-5.738934e-003
2.233200e+003,-5.710484e-003
2.235129e+003,-5.750901e-003
2.237057e+003,-5.759076e-003
2.238986e+003,-5.846990e-003
2.240914e+003,-6.030152e-003
2.242843e+003,-6.046359e-003
2.244771e+003,-5.903934e-003
2.246700e+003,-5.905405e-003
2.248628e+003,-5.937143e-003
2.250557e+003,-5.881935e-003
2.252485e+003,-5.921094e-003
2.254414e+003,-5.960773e-003
2.256342e+003,-5.914394e-003
2.258271e+003,-5.911387e-003
2.260199e+003,-5.994565e-003
2.262128e+003,-6.065147e-003
2.264056e+003,-6.028387e-003
2.265985e+003,-6.029139e-003
2.267913e+003,-6.153654e-003
2.269842e+003,-6.183838e-003
2.271770e+003,-6.147937e-003
2.273699e+003,-6.208369e-003
2.275627e+003,-6.193376e-003
2.277556e+003,-6.158554e-003
2.279484e+003,-6.274933e-003
2.281413e+003,-6.343609e-003
2.283341e+003,-6.379101e-003
2.285270e+003,-6.394480e-003
2.287198e+003,-6.350694e-003
2.289127e+003,-6.302822e-003
2.291055e+003,-6.243220e-003
2.292984e+003,-6.189685e-003
2.294912e+003,-6.271863e-003
2.296841e+003,-6.309615e-003
2.298769e+003,-6.308994e-003
2.300698e+003,-6.224439e-003
2.302626e+003,-6.151106e-003
2.304555e+003,-6.094848e-003
2.306483e+003,-6.009630e-003
2.308412e+003,-5.830383e-003
2.310340e+003,-5.651782e-003
2.312269e+003,-5.553687e-003
2.314197e+003,-5.502814e-003
2.316125e+003,-5.337072e-003
2.318054e+003,-5.094644e-003
2.319983e+003,-4.935166e-003
2.321911e+003,-4.805550e-003
2.323840e+003,-4.660947e-003
2.325768e+003,-4.518001e-003
2.327697e+003,-4.314255e-003
2.329625e+003,-4.109888e-003
2.331553e+003,-4.051165e-003
2.333482e+003,-3.976577e-003
2.335411e+003,-3.881945e-003
2.337339e+003,-3.854162e-003
2.339268e+003,-3.760949e-003
2.341196e+003,-3.726982e-003
2.343125e+003,-3.872422e-003
2.345053e+003,-4.137556e-003
2.346981e+003,-4.541512e-003
2.348910e+003,-4.860173e-003
2.350839e+003,-4.513345e-003
2.352767e+003,-3.924404e-003
2.354696e+003,-3.525395e-003
2.356624e+003,-3.243345e-003
2.358552e+003,-3.039065e-003
2.360481e+003,-2.949757e-003
2.362409e+003,-3.013565e-003
2.364338e+003,-3.071342e-003
2.366267e+003,-3.174210e-003
2.368195e+003,-3.427870e-003
2.370124e+003,-3.672052e-003
2.372052e+003,-3.905063e-003
2.373980e+003,-4.270685e-003
2.375909e+003,-4.656489e-003
2.377838e+003,-4.810301e-003
2.379766e+003,-4.889530e-003
2.381695e+003,-5.059177e-003
2.383623e+003,-5.155321e-003
2.385552e+003,-5.047877e-003
2.387480e+003,-5.026490e-003
2.389408e+003,-5.033401e-003
2.391337e+003,-4.950825e-003
2.393266e+003,-4.955346e-003
2.395194e+003,-4.943061e-003
2.397123e+003,-4.906206e-003
2.399051e+003,-4.946960e-003
2.400979e+003,-4.974935e-003
2.402908e+003,-4.924322e-003
2.404836e+003,-4.828783e-003
2.406765e+003,-4.788444e-003
2.408694e+003,-4.776482e-003
2.410622e+003,-4.721324e-003
2.412551e+003,-4.713163e-003
2.414479e+003,-4.674157e-003
2.416407e+003,-4.583775e-003
2.418336e+003,-4.558365e-003
2.420264e+003,-4.539741e-003
2.422193e+003,-4.492915e-003
2.424122e+003,-4.462974e-003
2.426050e+003,-4.469008e-003
2.427979e+003,-4.369924e-003
2.429907e+003,-4.203289e-003
2.431835e+003,-4.090654e-003
2.433764e+003,-4.051264e-003
2.435692e+003,-3.963116e-003
2.437621e+003,-3.918428e-003
2.439550e+003,-3.877709e-003
2.441478e+003,-3.799117e-003
2.443406e+003,-3.784336e-003
2.445335e+003,-3.832388e-003
2.447263e+003,-3.796062e-003
2.449192e+003,-3.769916e-003
2.451121e+003,-3.704479e-003
2.453049e+003,-3.650071e-003
2.454978e+003,-3.532987e-003
2.456906e+003,-3.465049e-003
2.458834e+003,-3.478460e-003
2.460763e+003,-3.348112e-003
2.462691e+003,-3.255677e-003
2.464620e+003,-3.229236e-003
2.466549e+003,-3.203056e-003
2.468477e+003,-3.190458e-003
2.470406e+003,-3.101905e-003
2.472334e+003,-3.091805e-003
2.474262e+003,-3.067098e-003
2.476191e+003,-2.982501e-003
2.478119e+003,-3.000501e-003
2.480048e+003,-2.988786e-003
2.481977e+003,-3.007806e-003
2.483905e+003,-2.946795e-003
2.485833e+003,-2.829324e-003
2.487762e+003,-2.825340e-003
2.489690e+003,-2.809144e-003
2.491619e+003,-2.769276e-003
2.493547e+003,-2.662722e-003
2.495476e+003,-2.623301e-003
2.497405e+003,-2.614673e-003
2.499333e+003,-2.573337e-003
2.501261e+003,-2.406374e-003
2.503190e+003,-2.432470e-003
2.505118e+003,-2.643128e-003
2.507047e+003,-2.692623e-003
2.508975e+003,-2.626364e-003
2.510904e+003,-2.590069e-003
2.512833e+003,-2.510750e-003
2.514761e+003,-2.488776e-003
2.516689e+003,-2.505347e-003
2.518618e+003,-2.548501e-003
2.520546e+003,-2.467922e-003
2.522475e+003,-2.368874e-003
2.524403e+003,-2.404034e-003
2.526332e+003,-2.375563e-003
2.528260e+003,-2.297655e-003
2.530189e+003,-2.210865e-003
2.532117e+003,-2.131245e-003
2.534046e+003,-2.247455e-003
2.535974e+003,-2.333810e-003
2.537903e+003,-2.247752e-003
2.539831e+003,-2.218282e-003
2.541760e+003,-2.194151e-003
2.543688e+003,-2.243631e-003
2.545617e+003,-2.237401e-003
2.547545e+003,-2.069352e-003
2.549474e+003,-2.005406e-003
2.551402e+003,-2.038485e-003
2.553331e+003,-2.011837e-003
2.555259e+003,-1.994423e-003
2.557188e+003,-1.971335e-003
2.559116e+003,-2.019258e-003
2.561045e+003,-1.957284e-003
2.562973e+003,-1.829580e-003
2.564902e+003,-1.857327e-003
2.566830e+003,-1.907737e-003
2.568759e+003,-1.777214e-003
2.570687e+003,-1.690749e-003
2.572616e+003,-1.720287e-003
2.574544e+003,-1.718835e-003
2.576473e+003,-1.816382e-003
2.578401e+003,-1.875902e-003
2.580330e+003,-1.804833e-003
2.582258e+003,-1.687184e-003
2.584187e+003,-1.619649e-003
2.586115e+003,-1.619517e-003
2.588044e+003,-1.494620e-003
2.589972e+003,-1.438383e-003
2.591901e+003,-1.481511e-003
2.593829e+003,-1.488874e-003
2.595758e+003,-1.467939e-003
2.597686e+003,-1.435279e-003
2.599615e+003,-1.416025e-003
2.601543e+003,-1.365888e-003
2.603472e+003,-1.462787e-003
2.605400e+003,-1.445384e-003
2.607329e+003,-1.421243e-003
2.609257e+003,-1.412326e-003
2.611186e+003,-1.312971e-003
2.613114e+003,-1.311848e-003
2.615043e+003,-1.400700e-003
2.616971e+003,-1.317827e-003
2.618900e+003,-1.239001e-003
2.620828e+003,-1.276797e-003
2.622757e+003,-1.196444e-003
2.624685e+003,-1.099287e-003
2.626614e+003,-1.141259e-003
2.628542e+003,-1.205333e-003
2.630471e+003,-1.259750e-003
2.632399e+003,-1.238473e-003
2.634328e+003,-1.265003e-003
2.636256e+003,-1.275046e-003
2.638185e+003,-1.202194e-003
2.640113e+003,-1.068153e-003
2.642042e+003,-1.039528e-003
2.643970e+003,-1.079225e-003
2.645899e+003,-9.127114e-004
2.647827e+003,-7.557921e-004
2.649756e+003,-7.782173e-004
2.651684e+003,-8.060653e-004
2.653613e+003,-7.344242e-004
2.655541e+003,-6.474864e-004
2.657470e+003,-6.436816e-004
2.659398e+003,-5.094351e-004
2.661327e+003,-4.215254e-004
2.663255e+003,-4.552550e-004
2.665184e+003,-4.303304e-004
2.667112e+003,-3.736906e-004
2.669041e+003,-3.512775e-004
2.670969e+003,-3.695854e-004
2.672898e+003,-3.280025e-004
2.674826e+003,-3.092293e-004
2.676755e+003,-1.920687e-004
2.678683e+003,-1.438110e-004
2.680612e+003,-8.107143e-005
2.682540e+003,-2.786483e-005
2.684469e+003,1.295560e-005
2.686397e+003,1.468417e-004
2.688326e+003,1.598017e-004
2.690254e+003,1.982862e-004
2.692183e+003,3.222818e-004
2.694111e+003,4.158656e-004
2.696040e+003,5.167013e-004
2.697968e+003,5.851436e-004
2.699897e+003,5.681232e-004
2.701825e+003,5.346817e-004
2.703754e+003,5.677250e-004
2.705682e+003,6.100946e-004
2.707611e+003,6.978994e-004
2.709539e+003,7.761290e-004
2.711468e+003,8.157968e-004
2.713396e+003,8.482308e-004
2.715325e+003,8.692794e-004
2.717253e+003,9.673313e-004
2.719182e+003,1.001039e-003
2.721110e+003,1.022659e-003
2.723039e+003,1.092975e-003
2.724967e+003,1.146027e-003
2.726896e+003,1.145695e-003
2.728824e+003,1.123271e-003
2.730753e+003,1.156093e-003
2.732681e+003,1.361290e-003
2.734610e+003,1.495958e-003
2.736538e+003,1.531202e-003
2.738467e+003,1.542907e-003
2.740395e+003,1.652819e-003
2.742324e+003,1.747122e-003
2.744252e+003,1.715286e-003
2.746181e+003,1.716118e-003
2.748109e+003,1.834924e-003
2.750038e+003,1.928169e-003
2.751966e+003,2.038811e-003
2.753895e+003,2.124641e-003
2.755823e+003,2.213751e-003
2.757752e+003,2.301481e-003
2.759680e+003,2.472362e-003
2.761609e+003,2.676348e-003
2.763537e+003,2.790149e-003
2.765466e+003,2.973466e-003
2.767394e+003,3.246817e-003
2.769323e+003,3.561830e-003
2.771251e+003,3.872191e-003
2.773180e+003,4.343286e-003
2.775108e+003,4.693794e-003
2.777037e+003,4.875638e-003
2.778965e+003,5.257329e-003
2.780894e+003,5.871736e-003
2.782822e+003,6.458628e-003
2.784750e+003,7.021395e-003
2.786679e+003,7.694320e-003
2.788608e+003,8.280845e-003
2.790536e+003,8.871884e-003
2.792465e+003,9.519471e-003
2.794393e+003,1.010328e-002
2.796322e+003,1.064577e-002
2.798250e+003,1.120372e-002
2.800178e+003,1.173080e-002
2.802107e+003,1.232966e-002
2.804036e+003,1.287244e-002
2.805964e+003,1.335054e-002
2.807893e+003,1.374824e-002
2.809821e+003,1.391667e-002
2.811750e+003,1.407291e-002
2.813678e+003,1.420121e-002
2.815606e+003,1.423805e-002
2.817535e+003,1.417262e-002
2.819464e+003,1.401306e-002
2.821392e+003,1.387336e-002
2.823321e+003,1.362589e-002
2.825249e+003,1.328726e-002
2.827177e+003,1.302609e-002
2.829106e+003,1.267780e-002
2.831034e+003,1.228548e-002
2.832963e+003,1.198421e-002
2.834892e+003,1.167681e-002
2.836820e+003,1.122789e-002
2.838749e+003,1.074897e-002
2.840677e+003,1.023241e-002
2.842605e+003,9.689049e-003
2.844534e+003,9.211007e-003
2.846462e+003,8.708878e-003
2.848391e+003,8.248695e-003
2.850320e+003,7.949703e-003
2.852248e+003,7.754053e-003
2.854177e+003,7.498077e-003
2.856105e+003,7.154360e-003
2.858033e+003,6.941325e-003
2.859962e+003,6.952268e-003
2.861890e+003,6.860967e-003
2.863819e+003,6.703628e-003
2.865748e+003,6.672335e-003
2.867676e+003,6.683708e-003
2.869604e+003,6.660020e-003
2.871533e+003,6.651878e-003
2.873461e+003,6.755451e-003
2.875390e+003,6.905841e-003
2.877319e+003,6.926478e-003
2.879247e+003,7.057293e-003
2.881176e+003,7.185957e-003
2.883104e+003,7.171236e-003
2.885032e+003,7.085111e-003
2.886961e+003,7.153417e-003
2.888889e+003,7.207383e-003
2.890818e+003,7.165140e-003
2.892747e+003,7.101075e-003
2.894675e+003,6.987015e-003
2.896604e+003,6.928094e-003
2.898532e+003,6.988463e-003
2.900460e+003,7.010552e-003
2.902389e+003,6.954826e-003
2.904317e+003,6.867565e-003
2.906246e+003,6.830606e-003
2.908175e+003,6.854976e-003
2.910103e+003,6.798193e-003
2.912031e+003,6.763764e-003
2.913960e+003,6.860597e-003
2.915888e+003,6.803612e-003
2.917817e+003,6.980281e-003
2.919745e+003,7.075580e-003
2.921674e+003,7.134319e-003
2.923603e+003,7.217961e-003
2.925531e+003,7.253741e-003
2.927459e+003,7.394529e-003
2.929388e+003,7.557177e-003
2.931316e+003,7.775405e-003
2.933245e+003,7.871554e-003
2.935173e+003,7.921661e-003
2.937102e+003,7.949602e-003
2.939031e+003,7.920244e-003
2.940959e+003,7.858902e-003
2.942887e+003,7.672162e-003
2.944816e+003,7.494774e-003
2.946744e+003,7.273957e-003
2.948673e+003,6.983042e-003
2.950601e+003,6.640405e-003
2.952530e+003,6.227278e-003
2.954458e+003,5.713411e-003
2.956387e+003,5.231103e-003
2.958315e+003,4.797370e-003
2.960244e+003,4.336960e-003
2.962172e+003,3.841971e-003
2.964101e+003,3.396464e-003
2.966029e+003,2.880663e-003
2.967958e+003,2.418082e-003
2.969886e+003,2.057154e-003
2.971815e+003,1.673108e-003
2.973743e+003,1.352382e-003
2.975672e+003,1.014688e-003
2.977600e+003,7.184761e-004
2.979529e+003,5.311320e-004
2.981457e+003,2.082642e-004
2.983386e+003,-5.261367e-005
2.985314e+003,-3.750148e-004
2.987243e+003,-7.093172e-004
2.989171e+003,-8.146972e-004
2.991100e+003,-8.408563e-004
2.993028e+003,-1.023000e-003
2.994957e+003,-1.166110e-003
2.996885e+003,-1.267811e-003
2.998814e+003,-1.346763e-003
3.000742e+003,-1.479100e-003
3.002671e+003,-1.676490e-003
3.004599e+003,-1.760615e-003
3.006528e+003,-1.657841e-003
3.008456e+003,-1.724875e-003
3.010385e+003,-1.916512e-003
3.012313e+003,-1.850069e-003
3.014242e+003,-1.898632e-003
3.016170e+003,-1.948048e-003
3.018099e+003,-1.881345e-003
3.020027e+003,-1.834496e-003
3.021956e+003,-1.880949e-003
3.023884e+003,-2.002405e-003
3.025813e+003,-2.211029e-003
3.027741e+003,-2.427725e-003
3.029670e+003,-2.383307e-003
3.031598e+003,-2.257904e-003
3.033527e+003,-2.246631e-003
3.035455e+003,-2.257179e-003
3.037384e+003,-2.342609e-003
3.039312e+003,-2.543593e-003
3.041241e+003,-2.668090e-003
3.043169e+003,-2.695883e-003
3.045098e+003,-2.650340e-003
3.047026e+003,-2.708890e-003
3.048955e+003,-2.794231e-003
3.050883e+003,-2.746591e-003
3.052812e+003,-2.822378e-003
3.054740e+003,-2.930176e-003
3.056669e+003,-2.968055e-003
3.058597e+003,-3.115986e-003
3.060526e+003,-3.189274e-003
3.062454e+003,-3.108321e-003
3.064383e+003,-3.132072e-003
3.066311e+003,-3.163782e-003
3.068240e+003,-3.202628e-003
3.070168e+003,-3.332165e-003
3.072097e+003,-3.382272e-003
3.074025e+003,-3.238642e-003
3.075954e+003,-3.247456e-003
3.077882e+003,-3.462452e-003
3.079811e+003,-3.655000e-003
3.081739e+003,-3.755759e-003
3.083668e+003,-3.731187e-003
3.085596e+003,-3.737199e-003
3.087525e+003,-3.795143e-003
3.089453e+003,-3.783942e-003
3.091382e+003,-3.871601e-003
3.093310e+003,-3.872225e-003
3.095239e+003,-3.838661e-003
3.097167e+003,-3.878103e-003
3.099096e+003,-4.012527e-003
3.101024e+003,-4.126036e-003
3.102953e+003,-4.199909e-003
3.104881e+003,-4.263139e-003
3.106810e+003,-4.262221e-003
3.108738e+003,-4.217104e-003
3.110667e+003,-4.285187e-003
3.112595e+003,-4.280660e-003
3.114524e+003,-4.181007e-003
3.116452e+003,-4.187013e-003
3.118381e+003,-4.252771e-003
3.120309e+003,-4.377993e-003
3.122238e+003,-4.444411e-003
3.124166e+003,-4.450282e-003
3.126095e+003,-4.499408e-003
3.128023e+003,-4.518788e-003
3.129952e+003,-4.440017e-003
3.131880e+003,-4.439918e-003
3.133809e+003,-4.461761e-003
3.135737e+003,-4.467008e-003
3.137666e+003,-4.397477e-003
3.139594e+003,-4.355163e-003
3.141523e+003,-4.405841e-003
3.143451e+003,-4.603807e-003
3.145380e+003,-4.694873e-003
3.147308e+003,-4.569185e-003
3.149237e+003,-4.637279e-003
3.151165e+003,-4.776023e-003
3.153094e+003,-4.809252e-003
3.155022e+003,-4.790705e-003
3.156951e+003,-4.736991e-003
3.158879e+003,-4.653211e-003
3.160808e+003,-4.525478e-003
3.162736e+003,-4.623379e-003
3.164665e+003,-4.733549e-003
3.166593e+003,-4.819542e-003
3.168522e+003,-4.823310e-003
3.170450e+003,-4.661176e-003
3.172379e+003,-4.570267e-003
3.174307e+003,-4.598693e-003
3.176236e+003,-4.574661e-003
3.178164e+003,-4.593972e-003
3.180093e+003,-4.613249e-003
3.182021e+003,-4.614790e-003
3.183950e+003,-4.705592e-003
3.185878e+003,-4.803027e-003
3.187807e+003,-4.713327e-003
3.189735e+003,-4.626625e-003
3.191664e+003,-4.652260e-003
3.193592e+003,-4.690022e-003
3.195521e+003,-4.768027e-003
3.197449e+003,-4.688842e-003
3.199378e+003,-4.595316e-003
3.201306e+003,-4.627543e-003
3.203235e+003,-4.695856e-003
3.205163e+003,-4.698380e-003
3.207092e+003,-4.737023e-003
3.209020e+003,-4.663405e-003
3.210948e+003,-4.483274e-003
3.212877e+003,-4.325048e-003
3.214806e+003,-4.278199e-003
3.216734e+003,-4.436343e-003
3.218663e+003,-4.518887e-003
3.220591e+003,-4.343517e-003
3.222520e+003,-4.139361e-003
3.224448e+003,-4.126495e-003
3.226376e+003,-4.054940e-003
3.228305e+003,-3.920890e-003
3.230234e+003,-3.842504e-003
3.232162e+003,-3.876658e-003
3.234091e+003,-3.868579e-003
3.236019e+003,-3.791168e-003
3.237948e+003,-3.749057e-003
3.239876e+003,-3.593488e-003
3.241804e+003,-3.446969e-003
3.243733e+003,-3.496636e-003
3.245662e+003,-3.467251e-003
3.247590e+003,-3.432604e-003
3.249519e+003,-3.306221e-003
3.251447e+003,-3.200819e-003
3.253375e+003,-3.200358e-003
3.255304e+003,-3.181512e-003
3.257232e+003,-2.941135e-003
3.259161e+003,-2.830739e-003
3.261090e+003,-2.817111e-003
3.263018e+003,-2.802758e-003
3.264947e+003,-2.857501e-003
3.266875e+003,-2.900719e-003
3.268803e+003,-2.802988e-003
3.270732e+003,-2.673754e-003
3.272660e+003,-2.488051e-003
3.274589e+003,-2.375728e-003
3.276518e+003,-2.428252e-003
3.278446e+003,-2.495266e-003
3.280375e+003,-2.594022e-003
3.282303e+003,-2.577915e-003
3.284231e+003,-2.516054e-003
3.286160e+003,-2.642601e-003
3.288088e+003,-2.643292e-003
3.290017e+003,-2.748303e-003
3.291946e+003,-2.846244e-003
3.293874e+003,-2.833274e-003
3.295802e+003,-2.867311e-003
3.297731e+003,-2.978980e-003
3.299659e+003,-3.067591e-003
3.301588e+003,-3.142237e-003
3.303516e+003,-3.190853e-003
3.305445e+003,-3.253803e-003
3.307374e+003,-3.525822e-003
3.309302e+003,-3.724091e-003
3.311230e+003,-3.748565e-003
3.313159e+003,-3.767584e-003
3.315087e+003,-3.779639e-003
3.317016e+003,-3.940690e-003
3.318944e+003,-4.148386e-003
3.320873e+003,-4.145991e-003
3.322802e+003,-4.346240e-003
3.324730e+003,-4.638000e-003
3.326658e+003,-4.725159e-003
3.328587e+003,-4.674747e-003
3.330515e+003,-4.565513e-003
3.332444e+003,-4.661963e-003
3.334372e+003,-4.876621e-003
3.336301e+003,-4.931792e-003
3.338229e+003,-4.974902e-003
3.340158e+003,-5.068248e-003
3.342086e+003,-5.129813e-003
3.344015e+003,-5.197983e-003
3.345943e+003,-5.249316e-003
3.347872e+003,-5.411427e-003
3.349800e+003,-5.467544e-003
3.351729e+003,-5.487961e-003
3.353657e+003,-5.583389e-003
3.355586e+003,-5.615935e-003
3.357514e+003,-5.776143e-003
3.359443e+003,-5.893376e-003
3.361371e+003,-5.843362e-003
3.363300e+003,-5.896286e-003
3.365229e+003,-6.103669e-003
3.367157e+003,-6.175508e-003
3.369085e+003,-6.268891e-003
3.371014e+003,-6.354123e-003
3.372942e+003,-6.439142e-003
3.374871e+003,-6.546144e-003
3.376799e+003,-6.617355e-003
3.378728e+003,-6.780229e-003
3.380656e+003,-6.935704e-003
3.382585e+003,-7.176390e-003
3.384513e+003,-7.300219e-003
3.386442e+003,-7.287283e-003
3.388370e+003,-7.116712e-003
3.390299e+003,-7.175738e-003
3.392227e+003,-7.271187e-003
3.394156e+003,-7.271611e-003
3.396084e+003,-7.395151e-003
3.398013e+003,-7.497033e-003
3.399941e+003,-7.477329e-003
3.401870e+003,-7.510385e-003
3.403798e+003,-7.599704e-003
3.405727e+003,-7.633857e-003
3.407655e+003,-7.528296e-003
3.409584e+003,-7.499377e-003
3.411512e+003,-7.620770e-003
3.413441e+003,-7.742095e-003
3.415369e+003,-7.841584e-003
3.417298e+003,-7.845717e-003
3.419226e+003,-7.899829e-003
3.421155e+003,-7.951463e-003
3.423083e+003,-7.900870e-003
3.425012e+003,-7.953089e-003
3.426940e+003,-8.032950e-003
3.428869e+003,-7.910859e-003
3.430797e+003,-7.788116e-003
3.432726e+003,-7.794756e-003
3.434654e+003,-8.082908e-003
3.436583e+003,-8.326080e-003
3.438511e+003,-8.175849e-003
3.440440e+003,-8.101511e-003
3.442368e+003,-8.018865e-003
3.444297e+003,-8.028656e-003
3.446225e+003,-8.117609e-003
3.448154e+003,-8.301960e-003
3.450082e+003,-8.314670e-003
3.452011e+003,-8.332288e-003
3.453939e+003,-8.421829e-003
3.455868e+003,-8.506054e-003
3.457796e+003,-8.393294e-003
3.459725e+003,-8.338789e-003
3.461653e+003,-8.362191e-003
3.463582e+003,-8.461571e-003
3.465510e+003,-8.566420e-003
3.467439e+003,-8.620214e-003
3.469367e+003,-8.643212e-003
3.471296e+003,-8.594585e-003
3.473224e+003,-8.667150e-003
3.475153e+003,-8.786462e-003
3.477081e+003,-8.802730e-003
3.479010e+003,-8.747041e-003
3.480938e+003,-8.593480e-003
3.482867e+003,-8.646654e-003
3.484795e+003,-8.572495e-003
3.486724e+003,-8.464009e-003
3.488652e+003,-8.590361e-003
3.490581e+003,-8.754802e-003
3.492509e+003,-8.838671e-003
3.494438e+003,-8.784839e-003
3.496366e+003,-8.550890e-003
3.498295e+003,-8.683291e-003
3.500223e+003,-8.827438e-003
3.502152e+003,-8.874026e-003
3.504080e+003,-8.874253e-003
3.506009e+003,-8.890842e-003
3.507937e+003,-8.782533e-003
3.509866e+003,-8.683811e-003
3.511794e+003,-8.757595e-003
3.513723e+003,-8.970238e-003
3.515651e+003,-9.060231e-003
3.517580e+003,-8.865228e-003
3.519508e+003,-8.818314e-003
3.521437e+003,-8.954301e-003
3.523365e+003,-9.148453e-003
3.525294e+003,-9.190434e-003
3.527222e+003,-8.990264e-003
3.529151e+003,-8.822275e-003
3.531079e+003,-8.780065e-003
3.533008e+003,-8.968615e-003
3.534936e+003,-9.015707e-003
3.536865e+003,-8.871169e-003
3.538793e+003,-8.795781e-003
3.540722e+003,-8.803444e-003
3.542650e+003,-8.846982e-003
3.544579e+003,-8.811074e-003
3.546507e+003,-8.783962e-003
3.548436e+003,-8.919505e-003
3.550364e+003,-8.983772e-003
3.552293e+003,-8.967836e-003
3.554221e+003,-9.055072e-003
3.556150e+003,-8.952841e-003
3.558078e+003,-8.823477e-003
3.560007e+003,-8.990361e-003
3.561935e+003,-8.959625e-003
3.563864e+003,-8.986694e-003
3.565792e+003,-8.858995e-003
3.567721e+003,-8.666662e-003
3.569649e+003,-8.874481e-003
3.571578e+003,-9.173629e-003
3.573506e+003,-9.122855e-003
3.575435e+003,-8.835457e-003
3.577363e+003,-8.658542e-003
3.579292e+003,-8.720477e-003
3.581220e+003,-8.949336e-003
3.583149e+003,-9.068441e-003
3.585077e+003,-8.979813e-003
3.587006e+003,-9.044460e-003
3.588934e+003,-9.019764e-003
3.590863e+003,-8.959787e-003
3.592791e+003,-9.043357e-003
3.594720e+003,-9.089598e-003
3.596648e+003,-8.924732e-003
3.598577e+003,-8.695373e-003
3.600505e+003,-8.695535e-003
3.602434e+003,-8.891881e-003
3.604362e+003,-8.833185e-003
3.606291e+003,-8.765745e-003
3.608219e+003,-8.773247e-003
3.610148e+003,-8.864319e-003
3.612076e+003,-8.951672e-003
3.614005e+003,-8.966831e-003
3.615933e+003,-8.981501e-003
3.617862e+003,-8.769090e-003
3.619790e+003,-8.647662e-003
3.621719e+003,-8.870065e-003
3.623647e+003,-9.052767e-003
3.625576e+003,-9.009282e-003
3.627504e+003,-8.719373e-003
3.629433e+003,-8.438434e-003
3.631361e+003,-8.692417e-003
3.633290e+003,-8.909248e-003
3.635218e+003,-8.972705e-003
3.637146e+003,-9.065975e-003
3.639075e+003,-9.014701e-003
3.641004e+003,-8.867403e-003
3.642932e+003,-8.882531e-003
3.644861e+003,-9.047900e-003
3.646789e+003,-8.870260e-003
3.648718e+003,-8.753633e-003
3.650646e+003,-8.864579e-003
3.652574e+003,-8.946252e-003
3.654503e+003,-9.050561e-003
3.656432e+003,-9.150692e-003
3.658360e+003,-9.365348e-003
3.660289e+003,-9.298673e-003
3.662217e+003,-9.110266e-003
3.664146e+003,-9.191796e-003
3.666074e+003,-9.401114e-003
3.668002e+003,-9.440800e-003
3.669931e+003,-9.444042e-003
3.671860e+003,-9.624105e-003
3.673788e+003,-9.689045e-003
3.675717e+003,-9.376114e-003
3.677645e+003,-9.145469e-003
3.679573e+003,-9.313365e-003
3.681502e+003,-9.382632e-003
3.683430e+003,-9.378675e-003
3.685359e+003,-9.421282e-003
3.687288e+003,-9.123569e-003
3.689216e+003,-8.850034e-003
3.691145e+003,-8.862501e-003
3.693073e+003,-8.929665e-003
3.695001e+003,-9.147545e-003
3.696930e+003,-9.298511e-003
3.698858e+003,-9.340282e-003
3.700787e+003,-9.094303e-003
3.702716e+003,-8.983870e-003
3.704644e+003,-9.109779e-003
3.706573e+003,-9.249665e-003
3.708501e+003,-9.172591e-003
3.710429e+003,-8.812340e-003
3.712358e+003,-8.758277e-003
3.714286e+003,-8.939533e-003
3.716215e+003,-9.224137e-003
3.718144e+003,-9.296760e-003
3.720072e+003,-9.159289e-003
3.722000e+003,-9.011488e-003
3.723929e+003,-8.858476e-003
3.725857e+003,-8.631031e-003
3.727786e+003,-8.389818e-003
3.729714e+003,-8.635221e-003
3.731643e+003,-8.975237e-003
3.733572e+003,-9.069609e-003
3.735500e+003,-8.807925e-003
3.737428e+003,-8.797924e-003
3.739357e+003,-9.051924e-003
3.741285e+003,-8.890939e-003
3.743214e+003,-8.638891e-003
3.745142e+003,-8.461571e-003
3.747071e+003,-8.552255e-003
3.749000e+003,-8.509694e-003
3.750928e+003,-8.424461e-003
3.752856e+003,-8.325689e-003
3.754785e+003,-8.342754e-003
3.756713e+003,-8.296889e-003
3.758642e+003,-8.286974e-003
3.760570e+003,-8.296012e-003
3.762499e+003,-8.365083e-003
3.764427e+003,-8.335376e-003
3.766356e+003,-8.193472e-003
3.768284e+003,-7.987963e-003
3.770213e+003,-7.959140e-003
3.772141e+003,-8.203162e-003
3.774070e+003,-8.331930e-003
3.775998e+003,-8.351791e-003
3.777927e+003,-8.469857e-003
3.779855e+003,-8.522137e-003
3.781784e+003,-8.353936e-003
3.783712e+003,-8.212818e-003
3.785641e+003,-8.184368e-003
3.787569e+003,-8.128275e-003
3.789498e+003,-8.114974e-003
3.791426e+003,-8.154355e-003
3.793355e+003,-8.311225e-003
3.795283e+003,-8.211030e-003
3.797212e+003,-8.189505e-003
3.799140e+003,-8.425890e-003
3.801069e+003,-8.221662e-003
3.802997e+003,-8.124015e-003
3.804926e+003,-8.334791e-003
3.806854e+003,-8.229270e-003
3.808783e+003,-8.157346e-003
3.810711e+003,-7.942809e-003
3.812640e+003,-8.042155e-003
3.814568e+003,-8.301018e-003
3.816497e+003,-8.264316e-003
3.818425e+003,-8.035064e-003
3.820354e+003,-7.620053e-003
3.822282e+003,-7.659088e-003
3.824211e+003,-7.956862e-003
3.826139e+003,-8.042837e-003
3.828068e+003,-7.995640e-003
3.829996e+003,-7.904807e-003
3.831925e+003,-7.916098e-003
3.833853e+003,-7.825932e-003
3.835782e+003,-7.728620e-003
3.837710e+003,-7.641736e-003
3.839639e+003,-7.798368e-003
3.841567e+003,-7.779882e-003
3.843496e+003,-7.773373e-003
3.845424e+003,-7.914861e-003
3.847353e+003,-8.042252e-003
3.849281e+003,-8.050644e-003
3.851210e+003,-7.763967e-003
3.853138e+003,-7.410884e-003
3.855067e+003,-7.611002e-003
3.856995e+003,-7.809726e-003
3.858924e+003,-7.818935e-003
3.860852e+003,-7.838103e-003
3.862781e+003,-7.817894e-003
3.864709e+003,-7.713549e-003
3.866638e+003,-7.668236e-003
3.868566e+003,-7.712801e-003
3.870495e+003,-7.696525e-003
3.872423e+003,-7.746457e-003
3.874352e+003,-7.621746e-003
3.876280e+003,-7.719506e-003
3.878209e+003,-7.894884e-003
3.880137e+003,-7.785415e-003
3.882066e+003,-7.680020e-003
3.883994e+003,-7.747986e-003
3.885923e+003,-7.551937e-003
3.887851e+003,-7.600616e-003
3.889780e+003,-7.608202e-003
3.891708e+003,-7.784439e-003
3.893637e+003,-8.144632e-003
3.895565e+003,-8.029144e-003
3.897494e+003,-7.815812e-003
3.899422e+003,-7.620477e-003
3.901351e+003,-7.513055e-003
3.903279e+003,-7.486742e-003
3.905208e+003,-7.594332e-003
3.907136e+003,-7.766180e-003
3.909065e+003,-7.791501e-003
3.910993e+003,-7.808554e-003
3.912922e+003,-7.867292e-003
3.914850e+003,-7.795472e-003
3.916779e+003,-7.771290e-003
3.918707e+003,-7.658665e-003
3.920636e+003,-7.750427e-003
3.922564e+003,-7.955008e-003
3.924493e+003,-7.797977e-003
3.926421e+003,-7.616244e-003
3.928350e+003,-7.574796e-003
3.930278e+003,-7.528980e-003
3.932207e+003,-7.486057e-003
3.934135e+003,-7.430233e-003
3.936064e+003,-7.439027e-003
3.937992e+003,-7.554021e-003
3.939921e+003,-7.793096e-003
3.941849e+003,-7.783169e-003
3.943778e+003,-7.544578e-003
3.945706e+003,-7.568153e-003
3.947635e+003,-7.609211e-003
3.949563e+003,-7.396128e-003
3.951492e+003,-7.300837e-003
3.953420e+003,-7.492408e-003
3.955349e+003,-7.634606e-003
3.957277e+003,-7.593453e-003
3.959206e+003,-7.447886e-003
3.961134e+003,-7.504197e-003
3.963063e+003,-7.434044e-003
3.964991e+003,-7.586061e-003
3.966920e+003,-7.826192e-003
3.968848e+003,-7.633532e-003
3.970777e+003,-7.476417e-003
3.972705e+003,-7.544252e-003
3.974634e+003,-7.592346e-003
3.976562e+003,-7.700138e-003
3.978491e+003,-7.715990e-003
3.980419e+003,-7.592736e-003
3.982348e+003,-7.659739e-003
3.984276e+003,-7.470946e-003
3.986205e+003,-7.324035e-003
3.988133e+003,-7.208002e-003
3.990062e+003,-7.284090e-003
3.991990e+003,-7.356223e-003
3.993919e+003,-7.348665e-003
3.995847e+003,-7.461305e-003
3.997776e+003,-7.645350e-003
3.999704e+003,-7.579973e-003
4.001633e+003,0.000000e+000
