3.991989e+002,1.686159e-002
4.011274e+002,2.163752e-002
4.030559e+002,6.776687e-003
4.049844e+002,-6.170151e-003
4.069129e+002,-5.731772e-003
4.088414e+002,3.340399e-003
4.107699e+002,5.834995e-003
4.126984e+002,4.621687e-003
4.146269e+002,1.582678e-003
4.165554e+002,-2.701572e-004
4.184839e+002,4.324042e-003
4.204124e+002,5.000541e-003
4.223409e+002,4.421572e-003
4.242694e+002,6.068522e-003
4.261979e+002,4.854796e-003
4.281264e+002,1.642142e-003
4.300549e+002,-6.584042e-004
4.319834e+002,-5.441433e-003
4.339119e+002,-2.478530e-003
4.358404e+002,6.360068e-003
4.377689e+002,7.362850e-003
4.396974e+002,1.757701e-003
4.416259e+002,-4.446361e-005
4.435544e+002,3.140640e-003
4.454829e+002,5.821025e-003
4.474114e+002,8.629072e-003
4.493399e+002,4.975872e-003
4.512684e+002,2.140324e-004
4.531969e+002,-2.439968e-004
4.551254e+002,2.277365e-003
4.570539e+002,1.848766e-003
4.589824e+002,-2.103317e-003
4.609109e+002,-6.765337e-004
4.628394e+002,2.129402e-003
4.647679e+002,8.271833e-004
4.666964e+002,8.032488e-004
4.686249e+002,5.154738e-004
4.705533e+002,5.771475e-004
4.724819e+002,1.790239e-003
4.744103e+002,8.182534e-004
4.763389e+002,-4.547253e-004
4.782673e+002,-1.176221e-003
4.801959e+002,-1.962792e-003
4.821243e+002,-1.249636e-004
4.840529e+002,9.848323e-004
4.859813e+002,2.785809e-004
4.879099e+002,3.486769e-004
4.898383e+002,-9.104299e-004
4.917668e+002,-3.199536e-003
4.936953e+002,-1.618428e-003
4.956238e+002,-1.189009e-003
4.975523e+002,-2.812897e-003
4.994808e+002,-2.444364e-003
5.014093e+002,-1.111780e-003
5.033378e+002,-1.645760e-003
5.052663e+002,-4.493210e-003
5.071948e+002,-5.614365e-003
5.091233e+002,-5.576291e-003
5.110518e+002,-5.930737e-003
5.129803e+002,-5.369244e-003
5.149088e+002,-6.014695e-003
5.168373e+002,-5.869677e-003
5.187658e+002,-4.811382e-003
5.206943e+002,-3.366754e-003
5.226228e+002,-4.080839e-003
5.245513e+002,-5.366364e-003
5.264798e+002,-5.542433e-003
5.284083e+002,-5.772906e-003
5.303368e+002,-6.012310e-003
5.322653e+002,-5.527482e-003
5.341938e+002,-5.132564e-003
5.361223e+002,-5.091893e-003
5.380508e+002,-5.952438e-003
5.399792e+002,-4.896115e-003
5.419078e+002,-4.476092e-003
5.438363e+002,-4.058026e-003
5.457648e+002,-3.895902e-003
5.476932e+002,-4.354277e-003
5.496218e+002,-4.114187e-003
5.515503e+002,-3.294712e-003
5.534788e+002,-3.209206e-003
5.554072e+002,-2.223556e-003
5.573358e+002,-1.678933e-003
5.592643e+002,-1.921295e-003
5.611927e+002,-3.325424e-003
5.631212e+002,-4.104144e-003
5.650497e+002,-4.541380e-003
5.669783e+002,-4.546299e-003
5.689067e+002,-2.859707e-003
5.708352e+002,-2.420476e-003
5.727637e+002,-3.815441e-003
5.746923e+002,-5.818679e-003
5.766207e+002,-5.434006e-003
5.785492e+002,-1.605785e-003
5.804777e+002,7.086523e-004
5.824063e+002,-4.502425e-003
5.843347e+002,-5.681543e-003
5.862632e+002,-4.134339e-003
5.881917e+002,-5.269448e-003
5.901202e+002,-6.416975e-003
5.920487e+002,-8.785130e-003
5.939772e+002,-9.398942e-003
5.959057e+002,-8.814256e-003
5.978342e+002,-6.823906e-003
5.997627e+002,-6.113895e-003
6.016912e+002,-6.363102e-003
6.036197e+002,-5.561243e-003
6.055482e+002,-4.505508e-003
6.074767e+002,-3.512347e-003
6.094052e+002,-2.086731e-003
6.113337e+002,-7.977971e-004
6.132622e+002,-7.296278e-004
6.151907e+002,-1.538270e-003
6.171192e+002,-3.000041e-003
6.190477e+002,-3.470045e-003
6.209762e+002,-2.132366e-003
6.229047e+002,-3.524672e-003
6.248332e+002,-6.373453e-003
6.267617e+002,-7.947233e-003
6.286902e+002,-8.153867e-003
6.306187e+002,-7.107422e-003
6.325472e+002,-6.050705e-003
6.344756e+002,-5.281265e-003
6.364042e+002,-5.085474e-003
6.383326e+002,-5.071425e-003
6.402612e+002,-5.595917e-003
6.421896e+002,-4.832223e-003
6.441182e+002,-4.572168e-003
6.460466e+002,-4.971561e-003
6.479752e+002,-4.698315e-003
6.499036e+002,-4.842250e-003
6.518322e+002,-5.315241e-003
6.537606e+002,-5.041426e-003
6.556891e+002,-4.706837e-003
6.576177e+002,-4.775237e-003
6.595461e+002,-4.786641e-003
6.614746e+002,-5.430635e-003
6.634031e+002,-5.622836e-003
6.653317e+002,-5.102208e-003
6.672601e+002,-4.231771e-003
6.691886e+002,-4.399740e-003
6.711171e+002,-4.519182e-003
6.730457e+002,-4.375238e-003
6.749741e+002,-4.746659e-003
6.769026e+002,-4.690547e-003
6.788311e+002,-4.552693e-003
6.807596e+002,-4.762488e-003
6.826881e+002,-5.047419e-003
6.846166e+002,-5.102568e-003
6.865451e+002,-5.284080e-003
6.884736e+002,-5.488779e-003
6.904021e+002,-5.319430e-003
6.923306e+002,-5.179615e-003
6.942591e+002,-5.030617e-003
6.961876e+002,-4.988463e-003
6.981161e+002,-5.189045e-003
7.000446e+002,-5.581786e-003
7.019731e+002,-5.955249e-003
7.039016e+002,-6.170183e-003
7.058301e+002,-6.521665e-003
7.077585e+002,-6.835778e-003
7.096871e+002,-6.556262e-003
7.116156e+002,-6.544414e-003
7.135441e+002,-7.045844e-003
7.154725e+002,-7.475603e-003
7.174011e+002,-7.530021e-003
7.193296e+002,-7.394337e-003
7.212581e+002,-7.101327e-003
7.231865e+002,-7.029640e-003
7.251151e+002,-6.767278e-003
7.270436e+002,-6.397418e-003
7.289720e+002,-6.385534e-003
7.309005e+002,-6.428957e-003
7.328290e+002,-6.346155e-003
7.347576e+002,-6.098899e-003
7.366860e+002,-5.636475e-003
7.386145e+002,-5.561210e-003
7.405430e+002,-5.350262e-003
7.424716e+002,-4.820197e-003
7.444000e+002,-4.396362e-003
7.463285e+002,-3.852356e-003
7.482570e+002,-3.707665e-003
7.501855e+002,-3.471491e-003
7.521140e+002,-2.470261e-003
7.540425e+002,-1.878673e-003
7.559710e+002,-1.852444e-003
7.578995e+002,-8.189966e-004
7.598280e+002,-3.905410e-004
7.617565e+002,-4.165270e-004
7.636850e+002,-1.259573e-004
7.656135e+002,2.120765e-004
7.675420e+002,5.655354e-004
7.694705e+002,5.548192e-004
7.713990e+002,5.994438e-004
7.733275e+002,2.256020e-004
7.752560e+002,1.823418e-004
7.771844e+002,1.925515e-004
7.791130e+002,2.202315e-004
7.810415e+002,1.064396e-004
7.829700e+002,-4.327137e-004
7.848984e+002,-5.154585e-004
7.868270e+002,-3.731278e-004
7.887555e+002,-3.883230e-004
7.906840e+002,-7.748437e-004
7.926124e+002,-1.190794e-003
7.945410e+002,-1.347027e-003
7.964695e+002,-1.638894e-003
7.983979e+002,-1.981659e-003
8.003264e+002,-2.221018e-003
8.022549e+002,-2.080333e-003
8.041835e+002,-2.220853e-003
8.061119e+002,-3.033636e-003
8.080404e+002,-3.678524e-003
8.099689e+002,-3.654934e-003
8.118975e+002,-3.369351e-003
8.138259e+002,-3.013466e-003
8.157545e+002,-3.113650e-003
8.176830e+002,-3.109867e-003
8.196115e+002,-3.488781e-003
8.215399e+002,-3.863325e-003
8.234684e+002,-3.770639e-003
8.253970e+002,-3.237425e-003
8.273254e+002,-2.778790e-003
8.292539e+002,-2.744385e-003
8.311824e+002,-2.785967e-003
8.331110e+002,-2.713862e-003
8.350394e+002,-2.906808e-003
8.369679e+002,-2.634170e-003
8.388964e+002,-2.359976e-003
8.408250e+002,-2.297358e-003
8.427534e+002,-2.363535e-003
8.446819e+002,-2.715113e-003
8.466104e+002,-2.497902e-003
8.485389e+002,-2.211491e-003
8.504674e+002,-2.415995e-003
8.523959e+002,-2.215249e-003
8.543244e+002,-1.682068e-003
8.562529e+002,-1.334079e-003
8.581814e+002,-1.568810e-003
8.601099e+002,-2.086731e-003
8.620384e+002,-2.131377e-003
8.639669e+002,-1.747976e-003
8.658954e+002,-1.671440e-003
8.678239e+002,-2.211854e-003
8.697524e+002,-2.320001e-003
8.716809e+002,-2.090424e-003
8.736094e+002,-1.959593e-003
8.755378e+002,-2.012068e-003
8.774664e+002,-1.759163e-003
8.793949e+002,-1.918525e-003
8.813234e+002,-2.043135e-003
8.832518e+002,-1.615523e-003
8.851804e+002,-1.593240e-003
8.871089e+002,-1.850267e-003
8.890374e+002,-1.975260e-003
8.909658e+002,-1.804734e-003
8.928943e+002,-1.337085e-003
8.948229e+002,-1.256347e-003
8.967513e+002,-1.099287e-003
8.986798e+002,-1.249177e-003
9.006083e+002,-1.777115e-003
9.025369e+002,-1.685204e-003
9.044653e+002,-1.733422e-003
9.063938e+002,-2.005241e-003
9.083223e+002,-2.374838e-003
9.102509e+002,-2.903517e-003
9.121793e+002,-2.970786e-003
9.141078e+002,-3.174966e-003
9.160364e+002,-3.431947e-003
9.179648e+002,-3.409329e-003
9.198933e+002,-3.686574e-003
9.218218e+002,-3.936258e-003
9.237504e+002,-4.363199e-003
9.256788e+002,-4.741612e-003
9.276073e+002,-5.045454e-003
9.295358e+002,-5.322638e-003
9.314644e+002,-5.625649e-003
9.333928e+002,-5.734453e-003
9.353213e+002,-5.639255e-003
9.372498e+002,-5.723826e-003
9.391783e+002,-6.253639e-003
9.411068e+002,-6.362384e-003
9.430353e+002,-5.977571e-003
9.449637e+002,-5.893409e-003
9.468923e+002,-6.176880e-003
9.488208e+002,-6.539780e-003
9.507493e+002,-6.305631e-003
9.526777e+002,-6.087235e-003
9.546063e+002,-6.099030e-003
9.565348e+002,-6.201216e-003
9.584633e+002,-6.206638e-003
9.603917e+002,-6.059364e-003
9.623203e+002,-5.950707e-003
9.642488e+002,-5.897299e-003
9.661772e+002,-5.693970e-003
9.681057e+002,-5.575211e-003
9.700343e+002,-5.631013e-003
9.719628e+002,-5.577926e-003
9.738912e+002,-5.596735e-003
9.758197e+002,-5.592776e-003
9.777483e+002,-5.422913e-003
9.796768e+002,-5.156860e-003
9.816052e+002,-5.124410e-003
9.835337e+002,-5.054723e-003
9.854623e+002,-5.051775e-003
9.873907e+002,-5.060781e-003
9.893192e+002,-4.969530e-003
9.912477e+002,-5.067266e-003
9.931763e+002,-5.083902e-003
9.951047e+002,-4.970840e-003
9.970332e+002,-4.905190e-003
9.989617e+002,-4.600856e-003
1.000890e+003,-4.297884e-003
1.002819e+003,-4.168602e-003
1.004747e+003,-4.210902e-003
1.006676e+003,-4.202698e-003
1.008604e+003,-4.031403e-003
1.010533e+003,-3.792252e-003
1.012461e+003,-3.464194e-003
1.014390e+003,-3.433689e-003
1.016318e+003,-3.278533e-003
1.018247e+003,-2.970951e-003
1.020175e+003,-2.858259e-003
1.022104e+003,-2.803613e-003
1.024032e+003,-2.560326e-003
1.025961e+003,-2.215513e-003
1.027889e+003,-2.053688e-003
1.029818e+003,-1.837828e-003
1.031746e+003,-1.530148e-003
1.033675e+003,-1.214254e-003
1.035603e+003,-9.871001e-004
1.037532e+003,-8.608963e-004
1.039460e+003,-7.228467e-004
1.041389e+003,-6.615141e-004
1.043317e+003,-5.085085e-004
1.045246e+003,-3.239632e-004
1.047174e+003,-2.309491e-004
1.049103e+003,-1.617634e-004
1.051031e+003,-4.658135e-004
1.052960e+003,-7.596951e-004
1.054888e+003,-7.784158e-004
1.056817e+003,-6.364359e-004
1.058745e+003,-6.752435e-004
1.060674e+003,-7.199027e-004
1.062602e+003,-7.412713e-004
1.064531e+003,-7.872466e-004
1.066459e+003,-9.039823e-004
1.068388e+003,-8.271651e-004
1.070316e+003,-7.105412e-004
1.072245e+003,-4.277816e-004
1.074173e+003,-4.106679e-004
1.076102e+003,-4.044114e-004
1.078030e+003,-3.446560e-004
1.079959e+003,-3.343594e-004
1.081887e+003,-1.543109e-004
1.083816e+003,1.439913e-004
1.085744e+003,2.216239e-004
1.087673e+003,1.164486e-004
1.089601e+003,2.315693e-004
1.091530e+003,6.108578e-004
1.093458e+003,8.090580e-004
1.095387e+003,8.452098e-004
1.097315e+003,8.216063e-004
1.099244e+003,8.504220e-004
1.101172e+003,9.586310e-004
1.103101e+003,7.402154e-004
1.105029e+003,7.622212e-004
1.106958e+003,1.002998e-003
1.108886e+003,1.327454e-003
1.110815e+003,1.318149e-003
1.112743e+003,1.081150e-003
1.114672e+003,1.141774e-003
1.116600e+003,1.484521e-003
1.118529e+003,1.728160e-003
1.120457e+003,1.568213e-003
1.122386e+003,1.489142e-003
1.124314e+003,1.522990e-003
1.126243e+003,1.182240e-003
1.128171e+003,7.544543e-004
1.130100e+003,7.614910e-004
1.132028e+003,5.099339e-004
1.133957e+003,5.924770e-005
1.135885e+003,-2.186296e-004
1.137814e+003,-6.267749e-004
1.139742e+003,-1.272238e-003
1.141671e+003,-1.704545e-003
1.143599e+003,-2.115352e-003
1.145528e+003,-2.673656e-003
1.147456e+003,-3.066900e-003
1.149385e+003,-3.317434e-003
1.151313e+003,-3.713053e-003
1.153242e+003,-4.106245e-003
1.155170e+003,-4.293422e-003
1.157099e+003,-4.494391e-003
1.159027e+003,-4.773959e-003
1.160956e+003,-5.035137e-003
1.162884e+003,-5.053249e-003
1.164813e+003,-5.069002e-003
1.166741e+003,-5.117501e-003
1.168670e+003,-5.198605e-003
1.170598e+003,-5.191664e-003
1.172526e+003,-5.105025e-003
1.174455e+003,-5.150246e-003
1.176384e+003,-5.165045e-003
1.178312e+003,-4.998388e-003
1.180240e+003,-4.976376e-003
1.182169e+003,-5.108397e-003
1.184098e+003,-5.252524e-003
1.186026e+003,-5.254357e-003
1.187954e+003,-5.116126e-003
1.189883e+003,-5.123035e-003
1.191812e+003,-5.051349e-003
1.193740e+003,-5.037495e-003
1.195668e+003,-5.231082e-003
1.197597e+003,-5.375658e-003
1.199526e+003,-5.272231e-003
1.201454e+003,-5.079973e-003
1.203382e+003,-4.913512e-003
1.205311e+003,-4.878521e-003
1.207240e+003,-4.818362e-003
1.209168e+003,-4.751477e-003
1.211096e+003,-4.550791e-003
1.213025e+003,-4.269636e-003
1.214953e+003,-4.264944e-003
1.216882e+003,-4.392655e-003
1.218810e+003,-4.398363e-003
1.220739e+003,-4.338236e-003
1.222667e+003,-4.287024e-003
1.224596e+003,-4.150224e-003
1.226524e+003,-4.052741e-003
1.228453e+003,-4.053660e-003
1.230381e+003,-4.170243e-003
1.232310e+003,-4.152488e-003
1.234238e+003,-4.077163e-003
1.236167e+003,-4.138442e-003
1.238095e+003,-4.194527e-003
1.240024e+003,-4.216481e-003
1.241952e+003,-4.436114e-003
1.243881e+003,-4.760129e-003
1.245809e+003,-5.053052e-003
1.247738e+003,-5.242638e-003
1.249666e+003,-5.278908e-003
1.251595e+003,-5.486063e-003
1.253523e+003,-5.784350e-003
1.255452e+003,-5.998454e-003
1.257380e+003,-6.218168e-003
1.259309e+003,-6.380538e-003
1.261237e+003,-6.536124e-003
1.263166e+003,-6.593337e-003
1.265094e+003,-6.516442e-003
1.267023e+003,-6.419881e-003
1.268951e+003,-6.399835e-003
1.270880e+003,-6.472930e-003
1.272808e+003,-6.726140e-003
1.274737e+003,-6.902702e-003
1.276665e+003,-6.881439e-003
1.278594e+003,-6.926280e-003
1.280522e+003,-7.041312e-003
1.282451e+003,-7.242904e-003
1.284379e+003,-7.317714e-003
1.286308e+003,-7.300381e-003
1.288236e+003,-7.341204e-003
1.290165e+003,-7.375411e-003
1.292093e+003,-7.500811e-003
1.294022e+003,-7.526440e-003
1.295950e+003,-7.494785e-003
1.297879e+003,-7.575154e-003
1.299807e+003,-7.539270e-003
1.301736e+003,-7.533376e-003
1.303664e+003,-7.739035e-003
1.305593e+003,-7.877736e-003
1.307521e+003,-7.744471e-003
1.309450e+003,-7.586127e-003
1.311378e+003,-7.716088e-003
1.313307e+003,-7.860426e-003
1.315235e+003,-7.892964e-003
1.317164e+003,-7.779817e-003
1.319092e+003,-7.694474e-003
1.321021e+003,-7.706127e-003
1.322949e+003,-7.658828e-003
1.324878e+003,-7.535004e-003
1.326806e+003,-7.428441e-003
1.328735e+003,-7.212337e-003
1.330663e+003,-6.933063e-003
1.332592e+003,-6.852184e-003
1.334520e+003,-6.875732e-003
1.336449e+003,-6.794386e-003
1.338377e+003,-6.621467e-003
1.340306e+003,-6.559917e-003
1.342234e+003,-6.556425e-003
1.344163e+003,-6.568240e-003
1.346091e+003,-6.556164e-003
1.348020e+003,-6.455530e-003
1.349948e+003,-6.488175e-003
1.351877e+003,-6.528780e-003
1.353805e+003,-6.487717e-003
1.355734e+003,-6.489154e-003
1.357662e+003,-6.528062e-003
1.359591e+003,-6.566510e-003
1.361519e+003,-6.597253e-003
1.363448e+003,-6.796832e-003
1.365376e+003,-7.320386e-003
1.367305e+003,-7.593811e-003
1.369233e+003,-7.794463e-003
1.371162e+003,-7.974528e-003
1.373090e+003,-8.006505e-003
1.375019e+003,-8.171459e-003
1.376947e+003,-8.345745e-003
1.378876e+003,-8.431123e-003
1.380804e+003,-8.641620e-003
1.382733e+003,-8.757497e-003
1.384661e+003,-8.697160e-003
1.386590e+003,-8.646590e-003
1.388518e+003,-8.854580e-003
1.390447e+003,-9.218559e-003
1.392375e+003,-9.361004e-003
1.394304e+003,-9.295170e-003
1.396232e+003,-9.419303e-003
1.398161e+003,-9.458372e-003
1.400089e+003,-9.606118e-003
1.402018e+003,-9.859128e-003
1.403946e+003,-9.970569e-003
1.405875e+003,-9.974908e-003
1.407803e+003,-1.001130e-002
1.409732e+003,-9.981546e-003
1.411660e+003,-9.902399e-003
1.413589e+003,-9.781028e-003
1.415517e+003,-9.574097e-003
1.417446e+003,-9.213368e-003
1.419374e+003,-8.811009e-003
1.421303e+003,-8.614725e-003
1.423231e+003,-8.312427e-003
1.425160e+003,-7.934317e-003
1.427088e+003,-7.654758e-003
1.429017e+003,-7.340292e-003
1.430945e+003,-6.999939e-003
1.432874e+003,-6.456510e-003
1.434802e+003,-5.778595e-003
1.436731e+003,-5.129224e-003
1.438659e+003,-4.896312e-003
1.440588e+003,-4.642557e-003
1.442516e+003,-4.237350e-003
1.444445e+003,-3.985507e-003
1.446373e+003,-3.705004e-003
1.448302e+003,-3.333250e-003
1.450230e+003,-3.191774e-003
1.452159e+003,-3.057129e-003
1.454087e+003,-2.790280e-003
1.456016e+003,-2.163325e-003
1.457944e+003,-2.086500e-003
1.459873e+003,-2.611379e-003
1.461801e+003,-3.034327e-003
1.463730e+003,-3.320295e-003
1.465658e+003,-3.657530e-003
1.467587e+003,-4.145367e-003
1.469515e+003,-4.446675e-003
1.471444e+003,-4.527379e-003
1.473372e+003,-4.901455e-003
1.475301e+003,-5.377164e-003
1.477229e+003,-5.904947e-003
1.479158e+003,-6.515267e-003
1.481086e+003,-6.902604e-003
1.483015e+003,-7.278030e-003
1.484943e+003,-7.548127e-003
1.486872e+003,-7.610644e-003
1.488800e+003,-7.652577e-003
1.490729e+003,-7.704500e-003
1.492657e+003,-7.886652e-003
1.494586e+003,-7.989687e-003
1.496514e+003,-7.989166e-003
1.498443e+003,-8.172272e-003
1.500371e+003,-8.442692e-003
1.502300e+003,-8.546602e-003
1.504228e+003,-8.322634e-003
1.506157e+003,-7.819944e-003
1.508085e+003,-8.058906e-003
1.510014e+003,-8.455982e-003
1.511942e+003,-8.600204e-003
1.513871e+003,-8.595884e-003
1.515799e+003,-8.374834e-003
1.517728e+003,-8.266885e-003
1.519656e+003,-8.175069e-003
1.521585e+003,-7.916130e-003
1.523513e+003,-8.012001e-003
1.525442e+003,-8.056010e-003
1.527370e+003,-8.143461e-003
1.529299e+003,-8.172077e-003
1.531227e+003,-8.140112e-003
1.533156e+003,-7.842268e-003
1.535084e+003,-7.771583e-003
1.537013e+003,-7.740923e-003
1.538941e+003,-7.126425e-003
1.540870e+003,-6.783491e-003
1.542798e+003,-6.903452e-003
1.544727e+003,-7.017121e-003
1.546655e+003,-7.202299e-003
1.548584e+003,-7.193239e-003
1.550512e+003,-7.142168e-003
1.552441e+003,-7.081572e-003
1.554369e+003,-6.755958e-003
1.556298e+003,-6.159175e-003
1.558226e+003,-5.022757e-003
1.560155e+003,-4.765864e-003
1.562083e+003,-5.195069e-003
1.564012e+003,-5.237007e-003
1.565940e+003,-5.396275e-003
1.567869e+003,-5.367640e-003
1.569797e+003,-5.176800e-003
1.571726e+003,-5.442186e-003
1.573654e+003,-5.445196e-003
1.575583e+003,-5.080529e-003
1.577511e+003,-5.072899e-003
1.579440e+003,-5.176309e-003
1.581368e+003,-5.068903e-003
1.583297e+003,-5.067528e-003
1.585225e+003,-4.980437e-003
1.587154e+003,-4.942046e-003
1.589082e+003,-5.029045e-003
1.591010e+003,-5.152603e-003
1.592939e+003,-5.060716e-003
1.594868e+003,-4.862008e-003
1.596796e+003,-4.785625e-003
1.598724e+003,-4.945551e-003
1.600653e+003,-5.096379e-003
1.602582e+003,-5.052725e-003
1.604510e+003,-5.206069e-003
1.606438e+003,-5.414470e-003
1.608367e+003,-5.505595e-003
1.610296e+003,-5.767871e-003
1.612224e+003,-6.045477e-003
1.614152e+003,-6.030152e-003
1.616081e+003,-5.804392e-003
1.618010e+003,-6.119449e-003
1.619938e+003,-6.563507e-003
1.621866e+003,-6.568240e-003
1.623795e+003,-6.719517e-003
1.625724e+003,-7.021653e-003
1.627652e+003,-7.180301e-003
1.629580e+003,-7.421503e-003
1.631509e+003,-7.657591e-003
1.633438e+003,-7.495209e-003
1.635366e+003,-7.205460e-003
1.637294e+003,-7.491789e-003
1.639223e+003,-7.819879e-003
1.641151e+003,-7.928330e-003
1.643080e+003,-8.063296e-003
1.645008e+003,-7.956180e-003
1.646937e+003,-7.744015e-003
1.648865e+003,-7.875166e-003
1.650794e+003,-7.650428e-003
1.652722e+003,-6.810500e-003
1.654651e+003,-7.103608e-003
1.656579e+003,-7.623374e-003
1.658508e+003,-7.604686e-003
1.660436e+003,-7.414500e-003
1.662365e+003,-7.157454e-003
1.664293e+003,-7.008514e-003
1.666222e+003,-6.917671e-003
1.668150e+003,-6.506063e-003
1.670079e+003,-6.236459e-003
1.672007e+003,-6.384881e-003
1.673936e+003,-6.389354e-003
1.675864e+003,-6.445802e-003
1.677793e+003,-6.854532e-003
1.679721e+003,-7.078411e-003
1.681650e+003,-7.069218e-003
1.683578e+003,-6.662941e-003
1.685507e+003,-6.937139e-003
1.687435e+003,-7.590294e-003
1.689364e+003,-7.903734e-003
1.691292e+003,-8.019386e-003
1.693221e+003,-7.983018e-003
1.695149e+003,-7.758597e-003
1.697078e+003,-7.844709e-003
1.699006e+003,-7.739231e-003
1.700935e+003,-7.596904e-003
1.702863e+003,-7.991736e-003
1.704792e+003,-8.051912e-003
1.706720e+003,-8.268835e-003
1.708649e+003,-8.558687e-003
1.710577e+003,-8.803606e-003
1.712506e+003,-8.878019e-003
1.714434e+003,-8.739312e-003
1.716363e+003,-8.539714e-003
1.718291e+003,-8.589647e-003
1.720220e+003,-8.902074e-003
1.722148e+003,-9.078727e-003
1.724077e+003,-9.170969e-003
1.726005e+003,-9.222969e-003
1.727934e+003,-9.204804e-003
1.729862e+003,-9.241654e-003
1.731791e+003,-9.141770e-003
1.733719e+003,-8.825003e-003
1.735648e+003,-9.085185e-003
1.737576e+003,-9.294327e-003
1.739505e+003,-9.170449e-003
1.741433e+003,-9.206588e-003
1.743362e+003,-9.169119e-003
1.745290e+003,-9.137033e-003
1.747219e+003,-9.009412e-003
1.749147e+003,-8.777305e-003
1.751076e+003,-8.601114e-003
1.753004e+003,-8.797826e-003
1.754933e+003,-8.878019e-003
1.756861e+003,-8.712715e-003
1.758790e+003,-8.722458e-003
1.760718e+003,-8.732915e-003
1.762647e+003,-8.737234e-003
1.764575e+003,-8.869838e-003
1.766504e+003,-8.740286e-003
1.768432e+003,-8.617973e-003
1.770361e+003,-8.637819e-003
1.772289e+003,-8.459037e-003
1.774218e+003,-8.491466e-003
1.776146e+003,-8.692580e-003
1.778075e+003,-8.818574e-003
1.780003e+003,-8.806398e-003
1.781932e+003,-8.766070e-003
1.783860e+003,-8.796788e-003
1.785789e+003,-8.721516e-003
1.787717e+003,-8.666565e-003
1.789646e+003,-8.688521e-003
1.791574e+003,-8.560994e-003
1.793503e+003,-8.519603e-003
1.795431e+003,-8.657503e-003
1.797360e+003,-8.699790e-003
1.799288e+003,-8.667604e-003
1.801217e+003,-8.676146e-003
1.803145e+003,-8.838249e-003
1.805074e+003,-8.848736e-003
1.807002e+003,-8.826334e-003
1.808931e+003,-8.871623e-003
1.810859e+003,-8.844581e-003
1.812788e+003,-8.862696e-003
1.814716e+003,-8.952321e-003
1.816645e+003,-8.968096e-003
1.818573e+003,-8.965142e-003
1.820502e+003,-8.990166e-003
1.822430e+003,-8.986661e-003
1.824359e+003,-8.862599e-003
1.826287e+003,-8.827697e-003
1.828216e+003,-8.916260e-003
1.830144e+003,-8.947096e-003
1.832073e+003,-9.141413e-003
1.834001e+003,-9.137001e-003
1.835930e+003,-9.081388e-003
1.837858e+003,-9.185405e-003
1.839787e+003,-9.235879e-003
1.841715e+003,-9.192997e-003
1.843644e+003,-8.962514e-003
1.845572e+003,-9.007853e-003
1.847501e+003,-9.190174e-003
1.849429e+003,-9.189266e-003
1.851358e+003,-9.083043e-003
1.853286e+003,-9.013890e-003
1.855215e+003,-9.065391e-003
1.857143e+003,-9.085638e-003
1.859072e+003,-9.057701e-003
1.861000e+003,-9.059582e-003
1.862929e+003,-9.089695e-003
1.864857e+003,-8.955730e-003
1.866786e+003,-8.885258e-003
1.868714e+003,-8.907528e-003
1.870643e+003,-9.041929e-003
1.872571e+003,-9.129182e-003
1.874500e+003,-9.049036e-003
1.876428e+003,-8.973711e-003
1.878357e+003,-8.924115e-003
1.880285e+003,-8.898665e-003
1.882214e+003,-8.931223e-003
1.884142e+003,-8.956476e-003
1.886071e+003,-8.960404e-003
1.887999e+003,-8.840295e-003
1.889928e+003,-8.773863e-003
1.891856e+003,-8.968453e-003
1.893785e+003,-8.977671e-003
1.895713e+003,-8.920869e-003
1.897642e+003,-8.947907e-003
1.899570e+003,-8.876786e-003
1.901499e+003,-8.868572e-003
1.903427e+003,-8.890193e-003
1.905356e+003,-8.899314e-003
1.907284e+003,-8.927425e-003
1.909213e+003,-8.959332e-003
1.911141e+003,-8.928627e-003
1.913070e+003,-8.881720e-003
1.914998e+003,-8.804093e-003
1.916927e+003,-8.743664e-003
1.918855e+003,-8.745190e-003
1.920784e+003,-8.807567e-003
1.922712e+003,-8.850229e-003
1.924641e+003,-8.929601e-003
1.926569e+003,-8.886881e-003
1.928498e+003,-8.949336e-003
1.930426e+003,-8.966733e-003
1.932355e+003,-8.980916e-003
1.934283e+003,-9.057181e-003
1.936212e+003,-9.103226e-003
1.938140e+003,-9.198187e-003
1.940069e+003,-9.190012e-003
1.941997e+003,-9.061140e-003
1.943926e+003,-9.049133e-003
1.945854e+003,-9.171650e-003
1.947783e+003,-9.251027e-003
1.949711e+003,-9.199679e-003
1.951640e+003,-9.215217e-003
1.953568e+003,-9.313008e-003
1.955497e+003,-9.315894e-003
1.957425e+003,-9.277754e-003
1.959354e+003,-9.169185e-003
1.961282e+003,-9.204804e-003
1.963211e+003,-9.297668e-003
1.965139e+003,-9.359770e-003
1.967068e+003,-9.400207e-003
1.968996e+003,-9.500581e-003
1.970925e+003,-9.483205e-003
1.972853e+003,-9.304543e-003
1.974782e+003,-9.223813e-003
1.976710e+003,-9.265137e-003
1.978639e+003,-9.246779e-003
1.980567e+003,-9.276327e-003
1.982496e+003,-9.351437e-003
1.984424e+003,-9.327926e-003
1.986353e+003,-9.254726e-003
1.988281e+003,-9.220537e-003
1.990210e+003,-9.169476e-003
1.992138e+003,-9.055169e-003
1.994067e+003,-9.105399e-003
1.995995e+003,-9.196597e-003
1.997924e+003,-9.141446e-003
1.999852e+003,-9.028753e-003
2.001781e+003,-9.060491e-003
2.003709e+003,-9.114224e-003
2.005638e+003,-9.137942e-003
2.007566e+003,-9.089176e-003
2.009495e+003,-9.040501e-003
2.011423e+003,-9.042676e-003
2.013352e+003,-9.056986e-003
2.015280e+003,-9.099170e-003
2.017208e+003,-9.080674e-003
2.019137e+003,-9.077235e-003
2.021066e+003,-9.101895e-003
2.022994e+003,-9.097482e-003
2.024922e+003,-9.135476e-003
2.026851e+003,-9.163799e-003
2.028780e+003,-9.141965e-003
2.030708e+003,-9.093329e-003
2.032636e+003,-9.090247e-003
2.034565e+003,-9.163540e-003
2.036494e+003,-9.248595e-003
2.038422e+003,-9.245805e-003
2.040350e+003,-9.146669e-003
2.042279e+003,-9.115587e-003
2.044208e+003,-9.165292e-003
2.046136e+003,-9.241167e-003
2.048064e+003,-9.291181e-003
2.049993e+003,-9.192704e-003
2.051921e+003,-9.182324e-003
2.053850e+003,-9.183621e-003
2.055778e+003,-9.172526e-003
2.057707e+003,-9.162501e-003
2.059635e+003,-9.165519e-003
2.061564e+003,-9.197505e-003
2.063492e+003,-9.339763e-003
2.065421e+003,-9.333893e-003
2.067349e+003,-9.173045e-003
2.069278e+003,-9.168828e-003
2.071206e+003,-9.209183e-003
2.073135e+003,-9.213368e-003
2.075063e+003,-9.207010e-003
2.076992e+003,-9.179825e-003
2.078920e+003,-9.132848e-003
2.080849e+003,-9.148389e-003
2.082777e+003,-9.192737e-003
2.084706e+003,-9.219369e-003
2.086634e+003,-9.303149e-003
2.088563e+003,-9.308564e-003
2.090491e+003,-9.199679e-003
2.092420e+003,-9.148453e-003
2.094348e+003,-9.111045e-003
2.096277e+003,-9.154585e-003
2.098205e+003,-9.162956e-003
2.100134e+003,-9.078792e-003
2.102062e+003,-8.980072e-003
2.103991e+003,-8.967220e-003
2.105919e+003,-8.990523e-003
2.107848e+003,-8.920025e-003
2.109776e+003,-8.930574e-003
2.111705e+003,-9.037678e-003
2.113633e+003,-9.036802e-003
2.115562e+003,-8.913662e-003
2.117490e+003,-8.844743e-003
2.119419e+003,-8.804418e-003
2.121347e+003,-8.898471e-003
2.123276e+003,-8.940864e-003
2.125204e+003,-8.844645e-003
2.127133e+003,-8.782046e-003
2.129061e+003,-8.735903e-003
2.130990e+003,-8.683551e-003
2.132918e+003,-8.790716e-003
2.134847e+003,-8.928854e-003
2.136775e+003,-8.941676e-003
2.138704e+003,-8.871818e-003
2.140632e+003,-8.798866e-003
2.142561e+003,-8.836366e-003
2.144489e+003,-8.962318e-003
2.146418e+003,-8.987829e-003
2.148346e+003,-8.860683e-003
2.150275e+003,-8.802339e-003
2.152203e+003,-8.806983e-003
2.154132e+003,-8.829678e-003
2.156060e+003,-8.911195e-003
2.157989e+003,-8.906228e-003
2.159917e+003,-8.889998e-003
2.161846e+003,-9.061464e-003
2.163774e+003,-9.171455e-003
2.165703e+003,-9.090085e-003
2.167631e+003,-8.915351e-003
2.169560e+003,-8.887953e-003
2.171488e+003,-9.016260e-003
2.173417e+003,-9.076002e-003
2.175345e+003,-9.054033e-003
2.177274e+003,-8.949076e-003
2.179202e+003,-8.817698e-003
2.181131e+003,-8.921453e-003
2.183059e+003,-9.021582e-003
2.184988e+003,-8.977671e-003
2.186916e+003,-8.884803e-003
2.188845e+003,-8.917980e-003
2.190773e+003,-9.076975e-003
2.192702e+003,-9.140830e-003
2.194630e+003,-9.024730e-003
2.196559e+003,-8.949043e-003
2.198487e+003,-8.964234e-003
2.200416e+003,-8.954691e-003
2.202344e+003,-8.828087e-003
2.204273e+003,-8.778020e-003
2.206201e+003,-8.888992e-003
2.208130e+003,-8.947616e-003
2.210058e+003,-8.887758e-003
2.211987e+003,-8.800716e-003
2.213915e+003,-8.798671e-003
2.215844e+003,-8.764739e-003
2.217772e+003,-8.718983e-003
2.219701e+003,-8.657373e-003
2.221629e+003,-8.682577e-003
2.223558e+003,-8.683291e-003
2.225486e+003,-8.619467e-003
2.227415e+003,-8.612743e-003
2.229343e+003,-8.637527e-003
2.231272e+003,-8.617843e-003
2.233200e+003,-8.504235e-003
2.235129e+003,-8.417149e-003
2.237057e+003,-8.533931e-003
2.238986e+003,-8.609463e-003
2.240914e+003,-8.616251e-003
2.242843e+003,-8.538707e-003
2.244771e+003,-8.471482e-003
2.246700e+003,-8.514015e-003
2.248628e+003,-8.570578e-003
2.250557e+003,-8.732168e-003
2.252485e+003,-8.793800e-003
2.254414e+003,-8.716548e-003
2.256342e+003,-8.663512e-003
2.258271e+003,-8.631486e-003
2.260199e+003,-8.646037e-003
2.262128e+003,-8.657373e-003
2.264056e+003,-8.673353e-003
2.265985e+003,-8.714112e-003
2.267913e+003,-8.701868e-003
2.269842e+003,-8.678160e-003
2.271770e+003,-8.661108e-003
2.273699e+003,-8.761330e-003
2.275627e+003,-8.854190e-003
2.277556e+003,-8.825912e-003
2.279484e+003,-8.830684e-003
2.281413e+003,-8.886330e-003
2.283341e+003,-8.947453e-003
2.285270e+003,-8.948005e-003
2.287198e+003,-8.908664e-003
2.289127e+003,-8.898503e-003
2.291055e+003,-8.976568e-003
2.292984e+003,-9.064547e-003
2.294912e+003,-9.141803e-003
2.296841e+003,-9.138169e-003
2.298769e+003,-9.012203e-003
2.300698e+003,-8.971633e-003
2.302626e+003,-8.879480e-003
2.304555e+003,-8.921291e-003
2.306483e+003,-9.003245e-003
2.308412e+003,-9.080512e-003
2.310340e+003,-9.045693e-003
2.312269e+003,-8.876201e-003
2.314197e+003,-8.778020e-003
2.316125e+003,-8.705311e-003
2.318054e+003,-8.707389e-003
2.319983e+003,-8.713787e-003
2.321911e+003,-8.509954e-003
2.323840e+003,-8.263016e-003
2.325768e+003,-8.321562e-003
2.327697e+003,-8.252710e-003
2.329625e+003,-7.989166e-003
2.331553e+003,-8.040170e-003
2.333482e+003,-8.166647e-003
2.335411e+003,-8.104763e-003
2.337339e+003,-7.940889e-003
2.339268e+003,-7.918733e-003
2.341196e+003,-8.061345e-003
2.343125e+003,-8.166939e-003
2.345053e+003,-8.302383e-003
2.346981e+003,-8.445389e-003
2.348910e+003,-8.598126e-003
2.350839e+003,-8.572591e-003
2.352767e+003,-8.224002e-003
2.354696e+003,-7.997168e-003
2.356624e+003,-7.912421e-003
2.358552e+003,-7.842984e-003
2.360481e+003,-7.846010e-003
2.362409e+003,-7.874450e-003
2.364338e+003,-7.882032e-003
2.366267e+003,-7.969876e-003
2.368195e+003,-8.093413e-003
2.370124e+003,-8.184206e-003
2.372052e+003,-8.379222e-003
2.373980e+003,-8.456177e-003
2.375909e+003,-8.540104e-003
2.377838e+003,-8.754900e-003
2.379766e+003,-8.994807e-003
2.381695e+003,-9.089273e-003
2.383623e+003,-8.988381e-003
2.385552e+003,-8.874059e-003
2.387480e+003,-8.903730e-003
2.389408e+003,-8.886752e-003
2.391337e+003,-8.815782e-003
2.393266e+003,-8.833899e-003
2.395194e+003,-8.921453e-003
2.397123e+003,-8.959560e-003
2.399051e+003,-8.938267e-003
2.400979e+003,-8.916454e-003
2.402908e+003,-8.989289e-003
2.404836e+003,-8.973322e-003
2.406765e+003,-8.944499e-003
2.408694e+003,-9.005582e-003
2.410622e+003,-8.971699e-003
2.412551e+003,-8.959365e-003
2.414479e+003,-8.950601e-003
2.416407e+003,-8.903275e-003
2.418336e+003,-8.871883e-003
2.420264e+003,-8.906716e-003
2.422193e+003,-8.923011e-003
2.424122e+003,-8.848996e-003
2.426050e+003,-8.810100e-003
2.427979e+003,-8.867728e-003
2.429907e+003,-8.804613e-003
2.431835e+003,-8.700309e-003
2.433764e+003,-8.660848e-003
2.435692e+003,-8.661888e-003
2.437621e+003,-8.677965e-003
2.439550e+003,-8.713397e-003
2.441478e+003,-8.672346e-003
2.443406e+003,-8.604784e-003
2.445335e+003,-8.587470e-003
2.447263e+003,-8.592408e-003
2.449192e+003,-8.601991e-003
2.451121e+003,-8.621221e-003
2.453049e+003,-8.570415e-003
2.454978e+003,-8.467550e-003
2.456906e+003,-8.396739e-003
2.458834e+003,-8.348475e-003
2.460763e+003,-8.372007e-003
2.462691e+003,-8.500921e-003
2.464620e+003,-8.531170e-003
2.466549e+003,-8.403890e-003
2.468477e+003,-8.408732e-003
2.470406e+003,-8.454878e-003
2.472334e+003,-8.469338e-003
2.474262e+003,-8.487989e-003
2.476191e+003,-8.407302e-003
2.478119e+003,-8.347273e-003
2.480048e+003,-8.429791e-003
2.481977e+003,-8.424721e-003
2.483905e+003,-8.418579e-003
2.485833e+003,-8.437005e-003
2.487762e+003,-8.452148e-003
2.489690e+003,-8.535588e-003
2.491619e+003,-8.480515e-003
2.493547e+003,-8.424005e-003
2.495476e+003,-8.388192e-003
2.497405e+003,-8.365149e-003
2.499333e+003,-8.416044e-003
2.501261e+003,-8.475739e-003
2.503190e+003,-8.548096e-003
2.505118e+003,-8.531234e-003
2.507047e+003,-8.518141e-003
2.508975e+003,-8.556901e-003
2.510904e+003,-8.584644e-003
2.512833e+003,-8.531137e-003
2.514761e+003,-8.566420e-003
2.516689e+003,-8.605499e-003
2.518618e+003,-8.510279e-003
2.520546e+003,-8.431415e-003
2.522475e+003,-8.506314e-003
2.524403e+003,-8.619305e-003
2.526332e+003,-8.623202e-003
2.528260e+003,-8.516062e-003
2.530189e+003,-8.454357e-003
2.532117e+003,-8.470215e-003
2.534046e+003,-8.555894e-003
2.535974e+003,-8.562488e-003
2.537903e+003,-8.531592e-003
2.539831e+003,-8.433495e-003
2.541760e+003,-8.427354e-003
2.543688e+003,-8.364337e-003
2.545617e+003,-8.291656e-003
2.547545e+003,-8.282196e-003
2.549474e+003,-8.324910e-003
2.551402e+003,-8.328876e-003
2.553331e+003,-8.273158e-003
2.555259e+003,-8.234309e-003
2.557188e+003,-8.306381e-003
2.559116e+003,-8.333913e-003
2.561045e+003,-8.243250e-003
2.562973e+003,-8.160339e-003
2.564902e+003,-8.074614e-003
2.566830e+003,-8.019743e-003
2.568759e+003,-8.042837e-003
2.570687e+003,-8.028168e-003
2.572616e+003,-7.924459e-003
2.574544e+003,-7.853690e-003
2.576473e+003,-7.955366e-003
2.578401e+003,-7.993200e-003
2.580330e+003,-7.992419e-003
2.582258e+003,-8.043293e-003
2.584187e+003,-8.028786e-003
2.586115e+003,-7.965939e-003
2.588044e+003,-7.971795e-003
2.589972e+003,-7.989979e-003
2.591901e+003,-7.908712e-003
2.593829e+003,-7.920099e-003
2.595758e+003,-7.929144e-003
2.597686e+003,-7.976577e-003
2.599615e+003,-8.015970e-003
2.601543e+003,-8.040041e-003
2.603472e+003,-7.993916e-003
2.605400e+003,-7.898691e-003
2.607329e+003,-7.857725e-003
2.609257e+003,-7.803217e-003
2.611186e+003,-7.843374e-003
2.613114e+003,-7.872758e-003
2.615043e+003,-7.841845e-003
2.616971e+003,-7.892183e-003
2.618900e+003,-7.852063e-003
2.620828e+003,-7.790036e-003
2.622757e+003,-7.709773e-003
2.624685e+003,-7.726309e-003
2.626614e+003,-7.770574e-003
2.628542e+003,-7.646717e-003
2.630471e+003,-7.602700e-003
2.632399e+003,-7.636299e-003
2.634328e+003,-7.619239e-003
2.636256e+003,-7.568316e-003
2.638185e+003,-7.481856e-003
2.640113e+003,-7.427073e-003
2.642042e+003,-7.453619e-003
2.643970e+003,-7.352867e-003
2.645899e+003,-7.242121e-003
2.647827e+003,-7.235050e-003
2.649756e+003,-7.175934e-003
2.651684e+003,-7.115213e-003
2.653613e+003,-7.103445e-003
2.655541e+003,-7.054613e-003
2.657470e+003,-7.046659e-003
2.659398e+003,-6.972290e-003
2.661327e+003,-6.877982e-003
2.663255e+003,-6.890571e-003
2.665184e+003,-6.833136e-003
2.667112e+003,-6.668488e-003
2.669041e+003,-6.682355e-003
2.670969e+003,-6.768746e-003
2.672898e+003,-6.782936e-003
2.674826e+003,-6.719941e-003
2.676755e+003,-6.594707e-003
2.678683e+003,-6.517617e-003
2.680612e+003,-6.444301e-003
2.682540e+003,-6.356670e-003
2.684469e+003,-6.376914e-003
2.686397e+003,-6.275031e-003
2.688326e+003,-6.126800e-003
2.690254e+003,-5.995643e-003
2.692183e+003,-5.946360e-003
2.694111e+003,-5.987212e-003
2.696040e+003,-6.028845e-003
2.697968e+003,-5.972179e-003
2.699897e+003,-5.811389e-003
2.701825e+003,-5.792981e-003
2.703754e+003,-5.772056e-003
2.705682e+003,-5.634807e-003
2.707611e+003,-5.586006e-003
2.709539e+003,-5.543415e-003
2.711468e+003,-5.528169e-003
2.713396e+003,-5.411263e-003
2.715325e+003,-5.288008e-003
2.717253e+003,-5.249087e-003
2.719182e+003,-5.124836e-003
2.721110e+003,-5.099851e-003
2.723039e+003,-5.109838e-003
2.724967e+003,-5.014241e-003
2.726896e+003,-4.867807e-003
2.728824e+003,-4.727879e-003
2.730753e+003,-4.613708e-003
2.732681e+003,-4.570300e-003
2.734610e+003,-4.522756e-003
2.736538e+003,-4.496129e-003
2.738467e+003,-4.419616e-003
2.740395e+003,-4.319373e-003
2.742324e+003,-4.188030e-003
2.744252e+003,-4.067808e-003
2.746181e+003,-3.960982e-003
2.748109e+003,-3.916129e-003
2.750038e+003,-3.819546e-003
2.751966e+003,-3.734012e-003
2.753895e+003,-3.633281e-003
2.755823e+003,-3.430697e-003
2.757752e+003,-3.270213e-003
2.759680e+003,-3.119867e-003
2.761609e+003,-2.918854e-003
2.763537e+003,-2.549983e-003
2.765466e+003,-2.241785e-003
2.767394e+003,-1.961770e-003
2.769323e+003,-1.586968e-003
2.771251e+003,-1.088843e-003
2.773180e+003,-6.844073e-004
2.775108e+003,-2.246901e-004
2.777037e+003,4.091330e-004
2.778965e+003,9.373456e-004
2.780894e+003,1.577457e-003
2.782822e+003,2.370072e-003
2.784750e+003,3.116077e-003
2.786679e+003,3.946313e-003
2.788608e+003,4.652330e-003
2.790536e+003,5.256457e-003
2.792465e+003,6.080214e-003
2.794393e+003,6.924559e-003
2.796322e+003,7.662180e-003
2.798250e+003,8.352380e-003
2.800178e+003,9.026052e-003
2.802107e+003,9.632640e-003
2.804036e+003,1.021467e-002
2.805964e+003,1.054225e-002
2.807893e+003,1.082356e-002
2.809821e+003,1.104415e-002
2.811750e+003,1.116160e-002
2.813678e+003,1.118281e-002
2.815606e+003,1.111278e-002
2.817535e+003,1.093931e-002
2.819464e+003,1.059022e-002
2.821392e+003,1.019394e-002
2.823321e+003,9.815107e-003
2.825249e+003,9.460002e-003
2.827177e+003,9.044930e-003
2.829106e+003,8.438623e-003
2.831034e+003,7.747813e-003
2.832963e+003,7.225474e-003
2.834892e+003,6.912507e-003
2.836820e+003,6.479782e-003
2.838749e+003,5.895884e-003
2.840677e+003,5.278928e-003
2.842605e+003,4.825613e-003
2.844534e+003,4.267422e-003
2.846462e+003,3.558323e-003
2.848391e+003,3.022110e-003
2.850320e+003,2.774575e-003
2.852248e+003,2.586643e-003
2.854177e+003,2.373537e-003
2.856105e+003,2.263243e-003
2.858033e+003,2.155707e-003
2.859962e+003,2.118747e-003
2.861890e+003,2.010981e-003
2.863819e+003,1.874855e-003
2.865748e+003,1.932029e-003
2.867676e+003,2.043671e-003
2.869604e+003,2.136561e-003
2.871533e+003,2.147449e-003
2.873461e+003,2.269138e-003
2.875390e+003,2.375336e-003
2.877319e+003,2.533681e-003
2.879247e+003,2.823931e-003
2.881176e+003,2.821797e-003
2.883104e+003,2.703453e-003
2.885032e+003,2.796818e-003
2.886961e+003,2.768106e-003
2.888889e+003,2.704787e-003
2.890818e+003,2.711455e-003
2.892747e+003,2.687717e-003
2.894675e+003,2.506420e-003
2.896604e+003,2.434942e-003
2.898532e+003,2.481560e-003
2.900460e+003,2.408953e-003
2.902389e+003,2.374170e-003
2.904317e+003,2.397358e-003
2.906246e+003,2.386830e-003
2.908175e+003,2.449636e-003
2.910103e+003,2.540447e-003
2.912031e+003,2.634210e-003
2.913960e+003,2.689817e-003
2.915888e+003,2.755002e-003
2.917817e+003,2.854481e-003
2.919745e+003,3.180958e-003
2.921674e+003,3.476684e-003
2.923603e+003,3.787753e-003
2.925531e+003,4.090850e-003
2.927459e+003,4.250123e-003
2.929388e+003,4.403966e-003
2.931316e+003,4.612109e-003
2.933245e+003,4.766013e-003
2.935173e+003,4.802831e-003
2.937102e+003,4.678018e-003
2.939031e+003,4.511925e-003
2.940959e+003,4.260228e-003
2.942887e+003,3.924614e-003
2.944816e+003,3.560561e-003
2.946744e+003,3.223483e-003
2.948673e+003,2.810224e-003
2.950601e+003,2.142787e-003
2.952530e+003,1.350587e-003
2.954458e+003,6.770583e-004
2.956387e+003,8.463259e-005
2.958315e+003,-5.249565e-004
2.960244e+003,-1.383823e-003
2.962172e+003,-2.208359e-003
2.964101e+003,-2.786560e-003
2.966029e+003,-3.372409e-003
2.967958e+003,-3.912025e-003
2.969886e+003,-4.414664e-003
2.971815e+003,-4.838515e-003
2.973743e+003,-5.211406e-003
2.975672e+003,-5.617079e-003
2.977600e+003,-5.947307e-003
2.979529e+003,-6.152804e-003
2.981457e+003,-6.342237e-003
2.983386e+003,-6.577770e-003
2.985314e+003,-6.798561e-003
2.987243e+003,-6.869307e-003
2.989171e+003,-6.795201e-003
2.991100e+003,-6.915519e-003
2.993028e+003,-7.077954e-003
2.994957e+003,-7.108856e-003
2.996885e+003,-7.219213e-003
2.998814e+003,-7.271871e-003
3.000742e+003,-7.295233e-003
3.002671e+003,-7.404728e-003
3.004599e+003,-7.529566e-003
3.006528e+003,-7.423946e-003
3.008456e+003,-7.448440e-003
3.010385e+003,-7.478730e-003
3.012313e+003,-7.461305e-003
3.014242e+003,-7.455606e-003
3.016170e+003,-7.430070e-003
3.018099e+003,-7.406292e-003
3.020027e+003,-7.520447e-003
3.021956e+003,-7.539009e-003
3.023884e+003,-7.554444e-003
3.025813e+003,-7.584499e-003
3.027741e+003,-7.639229e-003
3.029670e+003,-7.685131e-003
3.031598e+003,-7.641736e-003
3.033527e+003,-7.647075e-003
3.035455e+003,-7.578410e-003
3.037384e+003,-7.451762e-003
3.039312e+003,-7.439939e-003
3.041241e+003,-7.519471e-003
3.043169e+003,-7.664980e-003
3.045098e+003,-7.688777e-003
3.047026e+003,-7.679825e-003
3.048955e+003,-7.635616e-003
3.050883e+003,-7.577140e-003
3.052812e+003,-7.607193e-003
3.054740e+003,-7.713159e-003
3.056669e+003,-7.723672e-003
3.058597e+003,-7.729433e-003
3.060526e+003,-7.777734e-003
3.062454e+003,-7.666348e-003
3.064383e+003,-7.648084e-003
3.066311e+003,-7.706518e-003
3.068240e+003,-7.651242e-003
3.070168e+003,-7.661986e-003
3.072097e+003,-7.760843e-003
3.074025e+003,-7.680541e-003
3.075954e+003,-7.636787e-003
3.077882e+003,-7.697925e-003
3.079811e+003,-7.718269e-003
3.081739e+003,-7.702579e-003
3.083668e+003,-7.672240e-003
3.085596e+003,-7.670482e-003
3.087525e+003,-7.669799e-003
3.089453e+003,-7.538358e-003
3.091382e+003,-7.459481e-003
3.093310e+003,-7.435216e-003
3.095239e+003,-7.480847e-003
3.097167e+003,-7.475505e-003
3.099096e+003,-7.377235e-003
3.101024e+003,-7.357754e-003
3.102953e+003,-7.427529e-003
3.104881e+003,-7.435868e-003
3.106810e+003,-7.366224e-003
3.108738e+003,-7.352183e-003
3.110667e+003,-7.297938e-003
3.112595e+003,-7.244403e-003
3.114524e+003,-7.217844e-003
3.116452e+003,-7.322373e-003
3.118381e+003,-7.303933e-003
3.120309e+003,-7.241958e-003
3.122238e+003,-7.209436e-003
3.124166e+003,-7.147676e-003
3.126095e+003,-7.126719e-003
3.128023e+003,-7.145167e-003
3.129952e+003,-7.199464e-003
3.131880e+003,-7.220483e-003
3.133809e+003,-7.111040e-003
3.135737e+003,-7.006004e-003
3.137666e+003,-6.936063e-003
3.139594e+003,-6.920769e-003
3.141523e+003,-6.804269e-003
3.143451e+003,-6.662256e-003
3.145380e+003,-6.710839e-003
3.147308e+003,-6.778696e-003
3.149237e+003,-6.801725e-003
3.151165e+003,-6.739157e-003
3.153094e+003,-6.560048e-003
3.155022e+003,-6.452919e-003
3.156951e+003,-6.403295e-003
3.158879e+003,-6.355690e-003
3.160808e+003,-6.353600e-003
3.162736e+003,-6.308799e-003
3.164665e+003,-6.293744e-003
3.166593e+003,-6.281562e-003
3.168522e+003,-6.251907e-003
3.170450e+003,-6.137973e-003
3.172379e+003,-6.137385e-003
3.174307e+003,-6.142873e-003
3.176236e+003,-6.042830e-003
3.178164e+003,-5.991199e-003
3.180093e+003,-5.925572e-003
3.182021e+003,-5.952242e-003
3.183950e+003,-5.943255e-003
3.185878e+003,-5.884158e-003
3.187807e+003,-5.832377e-003
3.189735e+003,-5.872260e-003
3.191664e+003,-5.973584e-003
3.193592e+003,-5.956949e-003
3.195521e+003,-5.836104e-003
3.197449e+003,-5.805111e-003
3.199378e+003,-5.933711e-003
3.201306e+003,-5.972113e-003
3.203235e+003,-5.873437e-003
3.205163e+003,-5.791249e-003
3.207092e+003,-5.774901e-003
3.209020e+003,-5.741746e-003
3.210948e+003,-5.687626e-003
3.212877e+003,-5.741222e-003
3.214806e+003,-5.754629e-003
3.216734e+003,-5.794976e-003
3.218663e+003,-5.632027e-003
3.220591e+003,-5.565332e-003
3.222520e+003,-5.615575e-003
3.224448e+003,-5.527810e-003
3.226376e+003,-5.545802e-003
3.228305e+003,-5.485540e-003
3.230234e+003,-5.375102e-003
3.232162e+003,-5.418560e-003
3.234091e+003,-5.292722e-003
3.236019e+003,-5.242867e-003
3.237948e+003,-5.306796e-003
3.239876e+003,-5.169597e-003
3.241804e+003,-4.947156e-003
3.243733e+003,-4.792442e-003
3.245662e+003,-4.664455e-003
3.247590e+003,-4.500523e-003
3.249519e+003,-4.532101e-003
3.251447e+003,-4.543577e-003
3.253375e+003,-4.582923e-003
3.255304e+003,-4.464319e-003
3.257232e+003,-4.230524e-003
3.259161e+003,-4.179301e-003
3.261090e+003,-4.195577e-003
3.263018e+003,-4.201090e-003
3.264947e+003,-4.203912e-003
3.266875e+003,-4.150782e-003
3.268803e+003,-4.050640e-003
3.270732e+003,-4.001299e-003
3.272660e+003,-4.017254e-003
3.274589e+003,-3.980714e-003
3.276518e+003,-3.993945e-003
3.278446e+003,-4.038888e-003
3.280375e+003,-3.947750e-003
3.282303e+003,-3.871601e-003
3.284231e+003,-3.927688e-003
3.286160e+003,-4.085106e-003
3.288088e+003,-4.118946e-003
3.290017e+003,-4.177627e-003
3.291946e+003,-4.118553e-003
3.293874e+003,-4.147008e-003
3.295802e+003,-4.242271e-003
3.297731e+003,-4.243026e-003
3.299659e+003,-4.241025e-003
3.301588e+003,-4.333938e-003
3.303516e+003,-4.523477e-003
3.305445e+003,-4.720341e-003
3.307374e+003,-4.734008e-003
3.309302e+003,-4.815085e-003
3.311230e+003,-5.027113e-003
3.313159e+003,-5.128503e-003
3.315087e+003,-5.220343e-003
3.317016e+003,-5.227317e-003
3.318944e+003,-5.282640e-003
3.320873e+003,-5.425629e-003
3.322802e+003,-5.575113e-003
3.324730e+003,-5.661593e-003
3.326658e+003,-5.740405e-003
3.328587e+003,-5.721308e-003
3.330515e+003,-5.737299e-003
3.332444e+003,-5.880955e-003
3.334372e+003,-5.931619e-003
3.336301e+003,-5.674446e-003
3.338229e+003,-5.537493e-003
3.340158e+003,-5.761103e-003
3.342086e+003,-5.755185e-003
3.344015e+003,-5.698483e-003
3.345943e+003,-5.648380e-003
3.347872e+003,-5.675525e-003
3.349800e+003,-5.760089e-003
3.351729e+003,-5.797624e-003
3.353657e+003,-5.736187e-003
3.355586e+003,-5.580020e-003
3.357514e+003,-5.442808e-003
3.359443e+003,-5.493327e-003
3.361371e+003,-5.711759e-003
3.363300e+003,-5.830449e-003
3.365229e+003,-5.965119e-003
3.367157e+003,-6.223754e-003
3.369085e+003,-6.546470e-003
3.371014e+003,-6.588181e-003
3.372942e+003,-6.457359e-003
3.374871e+003,-6.630343e-003
3.376799e+003,-6.741734e-003
3.378728e+003,-6.931334e-003
3.380656e+003,-7.222178e-003
3.382585e+003,-7.312958e-003
3.384513e+003,-7.298296e-003
3.386442e+003,-7.504458e-003
3.388370e+003,-7.697632e-003
3.390299e+003,-7.757328e-003
3.392227e+003,-7.764260e-003
3.394156e+003,-7.899212e-003
3.396084e+003,-7.983832e-003
3.398013e+003,-8.052368e-003
3.399941e+003,-8.123039e-003
3.401870e+003,-8.096567e-003
3.403798e+003,-8.149315e-003
3.405727e+003,-8.181279e-003
3.407655e+003,-8.135852e-003
3.409584e+003,-8.145153e-003
3.411512e+003,-8.216524e-003
3.413441e+003,-8.375257e-003
3.415369e+003,-8.324455e-003
3.417298e+003,-8.198350e-003
3.419226e+003,-8.190416e-003
3.421155e+003,-8.297767e-003
3.423083e+003,-8.374444e-003
3.425012e+003,-8.271046e-003
3.426940e+003,-8.156566e-003
3.428869e+003,-8.152469e-003
3.430797e+003,-8.242600e-003
3.432726e+003,-8.271500e-003
3.434654e+003,-8.158713e-003
3.436583e+003,-8.329493e-003
3.438511e+003,-8.455267e-003
3.440440e+003,-8.271696e-003
3.442368e+003,-8.248061e-003
3.444297e+003,-8.310964e-003
3.446225e+003,-8.210574e-003
3.448154e+003,-8.110747e-003
3.450082e+003,-8.179750e-003
3.452011e+003,-8.232586e-003
3.453939e+003,-8.262463e-003
3.455868e+003,-8.329103e-003
3.457796e+003,-8.406847e-003
3.459725e+003,-8.444154e-003
3.461653e+003,-8.398560e-003
3.463582e+003,-8.324324e-003
3.465510e+003,-8.359916e-003
3.467439e+003,-8.404084e-003
3.469367e+003,-8.485129e-003
3.471296e+003,-8.491823e-003
3.473224e+003,-8.385625e-003
3.475153e+003,-8.508069e-003
3.477081e+003,-8.528180e-003
3.479010e+003,-8.515997e-003
3.480938e+003,-8.628173e-003
3.482867e+003,-8.630316e-003
3.484795e+003,-8.521585e-003
3.486724e+003,-8.403402e-003
3.488652e+003,-8.458776e-003
3.490581e+003,-8.488801e-003
3.492509e+003,-8.438434e-003
3.494438e+003,-8.462027e-003
3.496366e+003,-8.398267e-003
3.498295e+003,-8.321301e-003
3.500223e+003,-8.326795e-003
3.502152e+003,-8.374477e-003
3.504080e+003,-8.404507e-003
3.506009e+003,-8.482237e-003
3.507937e+003,-8.567524e-003
3.509866e+003,-8.551020e-003
3.511794e+003,-8.458517e-003
3.513723e+003,-8.501440e-003
3.515651e+003,-8.588444e-003
3.517580e+003,-8.523502e-003
3.519508e+003,-8.400022e-003
3.521437e+003,-8.471157e-003
3.523365e+003,-8.605142e-003
3.525294e+003,-8.563170e-003
3.527222e+003,-8.538284e-003
3.529151e+003,-8.563366e-003
3.531079e+003,-8.507419e-003
3.533008e+003,-8.257684e-003
3.534936e+003,-8.173377e-003
3.536865e+003,-8.187457e-003
3.538793e+003,-8.425436e-003
3.540722e+003,-8.587763e-003
3.542650e+003,-8.548194e-003
3.544579e+003,-8.412729e-003
3.546507e+003,-8.104340e-003
3.548436e+003,-8.136860e-003
3.550364e+003,-8.262301e-003
3.552293e+003,-8.300498e-003
3.554221e+003,-8.291299e-003
3.556150e+003,-8.269615e-003
3.558078e+003,-8.262463e-003
3.560007e+003,-8.226701e-003
3.561935e+003,-8.355951e-003
3.563864e+003,-8.298970e-003
3.565792e+003,-8.089054e-003
3.567721e+003,-8.135137e-003
3.569649e+003,-8.299327e-003
3.571578e+003,-8.349808e-003
3.573506e+003,-8.439539e-003
3.575435e+003,-8.439929e-003
3.577363e+003,-8.234959e-003
3.579292e+003,-8.170256e-003
3.581220e+003,-8.237951e-003
3.583149e+003,-8.273777e-003
3.585077e+003,-8.168370e-003
3.587006e+003,-7.940694e-003
3.588934e+003,-7.975764e-003
3.590863e+003,-8.238535e-003
3.592791e+003,-8.314020e-003
3.594720e+003,-8.316328e-003
3.596648e+003,-8.134844e-003
3.598577e+003,-8.208689e-003
3.600505e+003,-8.248419e-003
3.602434e+003,-8.174353e-003
3.604362e+003,-8.114845e-003
3.606291e+003,-8.131364e-003
3.608219e+003,-7.981912e-003
3.610148e+003,-7.981001e-003
3.612076e+003,-8.193244e-003
3.614005e+003,-8.289153e-003
3.615933e+003,-8.250142e-003
3.617862e+003,-8.106779e-003
3.619790e+003,-8.071004e-003
3.621719e+003,-8.268087e-003
3.623647e+003,-8.448378e-003
3.625576e+003,-8.380945e-003
3.627504e+003,-7.903310e-003
3.629433e+003,-7.616667e-003
3.631361e+003,-8.068988e-003
3.633290e+003,-8.219743e-003
3.635218e+003,-8.232325e-003
3.637146e+003,-8.158355e-003
3.639075e+003,-8.155395e-003
3.641004e+003,-8.274167e-003
3.642932e+003,-8.345583e-003
3.644861e+003,-8.372397e-003
3.646789e+003,-8.119885e-003
3.648718e+003,-7.897422e-003
3.650646e+003,-7.949901e-003
3.652574e+003,-8.353968e-003
3.654503e+003,-8.365669e-003
3.656432e+003,-7.924557e-003
3.658360e+003,-8.077509e-003
3.660289e+003,-8.321529e-003
3.662217e+003,-8.323252e-003
3.664146e+003,-8.459426e-003
3.666074e+003,-8.625606e-003
3.668002e+003,-8.558752e-003
3.669931e+003,-8.330663e-003
3.671860e+003,-8.279888e-003
3.673788e+003,-8.008098e-003
3.675717e+003,-7.722305e-003
3.677645e+003,-8.107754e-003
3.679573e+003,-8.419164e-003
3.681502e+003,-8.548032e-003
3.683430e+003,-8.524022e-003
3.685359e+003,-8.534841e-003
3.687288e+003,-8.232325e-003
3.689216e+003,-7.841812e-003
3.691145e+003,-7.946745e-003
3.693073e+003,-8.269712e-003
3.695001e+003,-8.386112e-003
3.696930e+003,-8.401517e-003
3.698858e+003,-8.374607e-003
3.700787e+003,-8.165964e-003
3.702716e+003,-8.108340e-003
3.704644e+003,-8.332905e-003
3.706573e+003,-8.315158e-003
3.708501e+003,-8.318116e-003
3.710429e+003,-8.059165e-003
3.712358e+003,-7.965093e-003
3.714286e+003,-8.270233e-003
3.716215e+003,-8.299847e-003
3.718144e+003,-8.203584e-003
3.720072e+003,-8.279725e-003
3.722000e+003,-8.341584e-003
3.723929e+003,-8.390143e-003
3.725857e+003,-8.420431e-003
3.727786e+003,-8.525711e-003
3.729714e+003,-8.315158e-003
3.731643e+003,-7.877899e-003
3.733572e+003,-7.538293e-003
3.735500e+003,-7.374694e-003
3.737428e+003,-7.631969e-003
3.739357e+003,-8.110747e-003
3.741285e+003,-8.186872e-003
3.743214e+003,-7.567209e-003
3.745142e+003,-7.181637e-003
3.747071e+003,-7.580494e-003
3.749000e+003,-7.384206e-003
3.750928e+003,-7.121373e-003
3.752856e+003,-7.140278e-003
3.754785e+003,-7.436128e-003
3.756713e+003,-7.522890e-003
3.758642e+003,-7.419484e-003
3.760570e+003,-7.338240e-003
3.762499e+003,-7.691837e-003
3.764427e+003,-7.673217e-003
3.766356e+003,-7.330193e-003
3.768284e+003,-7.418116e-003
3.770213e+003,-7.362869e-003
3.772141e+003,-7.545359e-003
3.774070e+003,-7.680151e-003
3.775998e+003,-7.532822e-003
3.777927e+003,-7.550960e-003
3.779855e+003,-7.470164e-003
3.781784e+003,-7.484885e-003
3.783712e+003,-7.510678e-003
3.785641e+003,-7.427822e-003
3.787569e+003,-7.338337e-003
3.789498e+003,-7.520350e-003
3.791426e+003,-7.750134e-003
3.793355e+003,-7.634248e-003
3.795283e+003,-7.345765e-003
3.797212e+003,-7.289206e-003
3.799140e+003,-7.320875e-003
3.801069e+003,-6.938345e-003
3.802997e+003,-7.256035e-003
3.804926e+003,-7.542526e-003
3.806854e+003,-7.283471e-003
3.808783e+003,-7.487621e-003
3.810711e+003,-7.414142e-003
3.812640e+003,-7.402936e-003
3.814568e+003,-7.452967e-003
3.816497e+003,-6.948943e-003
3.818425e+003,-6.961497e-003
3.820354e+003,-6.840932e-003
3.822282e+003,-6.741245e-003
3.824211e+003,-7.199594e-003
3.826139e+003,-7.279789e-003
3.828068e+003,-7.231889e-003
3.829996e+003,-7.203570e-003
3.831925e+003,-7.156216e-003
3.833853e+003,-7.341953e-003
3.835782e+003,-7.329476e-003
3.837710e+003,-6.799181e-003
3.839639e+003,-6.700953e-003
3.841567e+003,-6.914573e-003
3.843496e+003,-6.980245e-003
3.845424e+003,-7.244989e-003
3.847353e+003,-7.559622e-003
3.849281e+003,-7.560143e-003
3.851210e+003,-6.984256e-003
3.853138e+003,-6.099651e-003
3.855067e+003,-6.137483e-003
3.856995e+003,-6.786100e-003
3.858924e+003,-7.082974e-003
3.860852e+003,-6.983180e-003
3.862781e+003,-6.925367e-003
3.864709e+003,-6.927062e-003
3.866638e+003,-7.145493e-003
3.868566e+003,-6.849347e-003
3.870495e+003,-6.663855e-003
3.872423e+003,-6.895723e-003
3.874352e+003,-6.942878e-003
3.876280e+003,-7.139170e-003
3.878209e+003,-7.059144e-003
3.880137e+003,-6.964040e-003
3.882066e+003,-7.302402e-003
3.883994e+003,-7.161300e-003
3.885923e+003,-6.696516e-003
3.887851e+003,-6.869405e-003
3.889780e+003,-6.749955e-003
3.891708e+003,-6.639741e-003
3.893637e+003,-6.926117e-003
3.895565e+003,-7.066414e-003
3.897494e+003,-7.022533e-003
3.899422e+003,-6.958334e-003
3.901351e+003,-7.013861e-003
3.903279e+003,-6.848466e-003
3.905208e+003,-6.707674e-003
3.907136e+003,-6.969453e-003
3.909065e+003,-7.019827e-003
3.910993e+003,-7.047473e-003
3.912922e+003,-7.003721e-003
3.914850e+003,-6.811315e-003
3.916779e+003,-6.660722e-003
3.918707e+003,-6.731132e-003
3.920636e+003,-6.952204e-003
3.922564e+003,-6.786394e-003
3.924493e+003,-6.625611e-003
3.926421e+003,-6.764668e-003
3.928350e+003,-6.939389e-003
3.930278e+003,-7.085191e-003
3.932207e+003,-7.067946e-003
3.934135e+003,-7.023577e-003
3.936064e+003,-7.093177e-003
3.937992e+003,-6.907333e-003
3.939921e+003,-6.751946e-003
3.941849e+003,-6.786296e-003
3.943778e+003,-6.857696e-003
3.945706e+003,-6.862523e-003
3.947635e+003,-6.811739e-003
3.949563e+003,-6.713155e-003
3.951492e+003,-6.797452e-003
3.953420e+003,-6.981322e-003
3.955349e+003,-7.174826e-003
3.957277e+003,-7.138811e-003
3.959206e+003,-7.003461e-003
3.961134e+003,-6.981550e-003
3.963063e+003,-6.970562e-003
3.964991e+003,-6.815033e-003
3.966920e+003,-6.701638e-003
3.968848e+003,-6.620716e-003
3.970777e+003,-6.693938e-003
3.972705e+003,-6.800355e-003
3.974634e+003,-6.801888e-003
3.976562e+003,-6.746073e-003
3.978491e+003,-6.829614e-003
3.980419e+003,-6.851434e-003
3.982348e+003,-6.935084e-003
3.984276e+003,-6.925725e-003
3.986205e+003,-6.922562e-003
3.988133e+003,-6.786557e-003
3.990062e+003,-6.764016e-003
3.991990e+003,-6.927258e-003
3.993919e+003,-7.000624e-003
3.995847e+003,-6.983278e-003
3.997776e+003,-6.734655e-003
3.999704e+003,-6.770279e-003
4.001633e+003,0.000000e+000
