3.991989e+002,-3.515404e-003
4.011274e+002,-1.187998e-002
4.030559e+002,-2.413187e-002
4.049844e+002,-2.472595e-002
4.069129e+002,-2.103600e-002
4.088414e+002,-1.822726e-002
4.107699e+002,-1.375124e-002
4.126984e+002,-1.909723e-002
4.146269e+002,-9.485539e-003
4.165554e+002,5.716069e-004
4.184839e+002,-4.409843e-003
4.204124e+002,-3.467120e-003
4.223409e+002,-1.337547e-003
4.242694e+002,-4.334496e-003
4.261979e+002,-1.024223e-002
4.281264e+002,-7.785578e-003
4.300549e+002,-2.547875e-003
4.319834e+002,4.244888e-004
4.339119e+002,8.128756e-004
4.358404e+002,6.824344e-004
4.377689e+002,6.415842e-004
4.396974e+002,-5.642624e-003
4.416259e+002,-1.113757e-002
4.435544e+002,-9.347383e-003
4.454829e+002,-7.812427e-003
4.474114e+002,-5.625125e-003
4.493399e+002,-3.739794e-003
4.512684e+002,-2.133091e-003
4.531969e+002,-8.219730e-004
4.551254e+002,1.225699e-003
4.570539e+002,1.103040e-003
4.589824e+002,-4.562890e-003
4.609109e+002,-6.713971e-003
4.628394e+002,-5.414470e-003
4.647679e+002,-5.453147e-003
4.666964e+002,-5.556860e-003
4.686249e+002,-4.727355e-003
4.705533e+002,-2.571130e-003
4.724819e+002,-1.526285e-003
4.744103e+002,-1.726789e-003
4.763389e+002,-2.871886e-003
4.782673e+002,-3.475468e-003
4.801959e+002,-3.519446e-003
4.821243e+002,-5.439896e-003
4.840529e+002,-7.222015e-003
4.859813e+002,-5.257598e-003
4.879099e+002,-2.712808e-003
4.898383e+002,-3.861650e-003
4.917668e+002,-5.192581e-003
4.936953e+002,-5.222635e-003
4.956238e+002,-4.161513e-003
4.975523e+002,-3.434182e-003
4.994808e+002,-4.162957e-003
5.014093e+002,-3.402195e-003
5.033378e+002,-1.559005e-003
5.052663e+002,-1.432811e-004
5.071948e+002,-8.581516e-004
5.091233e+002,-2.686597e-003
5.110518e+002,-3.856494e-003
5.129803e+002,-3.591385e-003
5.149088e+002,-3.230058e-003
5.168373e+002,-4.039774e-003
5.187658e+002,-3.945057e-003
5.206943e+002,-3.524836e-003
5.226228e+002,-2.694072e-003
5.245513e+002,-2.470920e-003
5.264798e+002,-2.836467e-003
5.284083e+002,-3.632197e-003
5.303368e+002,-3.304314e-003
5.322653e+002,-3.363203e-003
5.341938e+002,-1.647510e-003
5.361223e+002,-1.606676e-003
5.380508e+002,-3.013729e-003
5.399792e+002,-3.132730e-003
5.419078e+002,-2.361294e-003
5.438363e+002,-1.953424e-003
5.457648e+002,-1.594528e-003
5.476932e+002,-2.364952e-003
5.496218e+002,-3.461531e-003
5.515503e+002,-3.955531e-003
5.534788e+002,-3.394699e-003
5.554072e+002,-2.954661e-003
5.573358e+002,-2.273198e-003
5.592643e+002,-2.208986e-003
5.611927e+002,-2.354506e-003
5.631212e+002,-5.204557e-004
5.650497e+002,-4.582196e-005
5.669783e+002,-2.958445e-003
5.689067e+002,-1.590533e-003
5.708352e+002,-6.964490e-004
5.727637e+002,-3.571865e-003
5.746923e+002,-5.069624e-003
5.766207e+002,-5.583389e-003
5.785492e+002,-5.832933e-003
5.804777e+002,-3.914783e-003
5.824063e+002,-3.001225e-003
5.843347e+002,-2.953937e-003
5.862632e+002,-3.038243e-003
5.881917e+002,-2.260871e-003
5.901202e+002,-5.321379e-004
5.920487e+002,7.651324e-005
5.939772e+002,-3.461104e-003
5.959057e+002,-4.187013e-003
5.978342e+002,-3.067098e-003
5.997627e+002,-3.877348e-003
6.016912e+002,-4.627805e-003
6.036197e+002,-3.978055e-003
6.055482e+002,-3.963740e-003
6.074767e+002,-4.073158e-003
6.094052e+002,-4.468254e-003
6.113337e+002,-4.624100e-003
6.132622e+002,-4.682614e-003
6.151907e+002,-4.453234e-003
6.171192e+002,-5.094808e-003
6.190477e+002,-5.048893e-003
6.209762e+002,-4.089768e-003
6.229047e+002,-2.717517e-003
6.248332e+002,-2.374806e-003
6.267617e+002,-3.292706e-003
6.286902e+002,-3.300467e-003
6.306187e+002,-1.772165e-003
6.325472e+002,-1.510403e-003
6.344756e+002,-1.614830e-003
6.364042e+002,-1.574951e-003
6.383326e+002,-1.765037e-003
6.402612e+002,-2.025261e-003
6.421896e+002,-1.771274e-003
6.441182e+002,-1.644308e-003
6.460466e+002,-1.657247e-003
6.479752e+002,-1.653946e-003
6.499036e+002,-1.302895e-003
6.518322e+002,-1.140598e-003
6.537606e+002,-1.302235e-003
6.556891e+002,-1.597598e-003
6.576177e+002,-1.553227e-003
6.595461e+002,-1.622752e-003
6.614746e+002,-1.660713e-003
6.634031e+002,-2.157655e-003
6.653317e+002,-1.358687e-003
6.672601e+002,-5.211507e-004
6.691886e+002,-8.211131e-004
6.711171e+002,-1.391519e-003
6.730457e+002,-1.302862e-003
6.749741e+002,-1.321394e-003
6.769026e+002,-1.483723e-003
6.788311e+002,-1.639158e-003
6.807596e+002,-1.521564e-003
6.826881e+002,-1.658336e-003
6.846166e+002,-1.946134e-003
6.865451e+002,-1.985353e-003
6.884736e+002,-1.183689e-003
6.904021e+002,-1.002406e-003
6.923306e+002,-1.117498e-003
6.942591e+002,-1.189703e-003
6.961876e+002,-1.537544e-003
6.981161e+002,-1.605058e-003
7.000446e+002,-1.527276e-003
7.019731e+002,-1.588981e-003
7.039016e+002,-1.013844e-003
7.058301e+002,-1.077573e-003
7.077585e+002,-1.751837e-003
7.096871e+002,-1.895993e-003
7.116156e+002,-1.097899e-003
7.135441e+002,-1.241479e-003
7.154725e+002,-1.876826e-003
7.174011e+002,-1.895201e-003
7.193296e+002,-1.368002e-003
7.212581e+002,-1.359150e-003
7.231865e+002,-1.409221e-003
7.251151e+002,-1.444459e-003
7.270436e+002,-1.862639e-003
7.289720e+002,-1.656752e-003
7.309005e+002,-1.278118e-003
7.328290e+002,-1.689957e-003
7.347576e+002,-1.761374e-003
7.366860e+002,-1.397133e-003
7.386145e+002,-1.215245e-003
7.405430e+002,-1.428112e-003
7.424716e+002,-1.606313e-003
7.444000e+002,-1.541506e-003
7.463285e+002,-1.182863e-003
7.482570e+002,-1.667413e-003
7.501855e+002,-2.012662e-003
7.521140e+002,-1.579473e-003
7.540425e+002,-1.333650e-003
7.559710e+002,-1.528002e-003
7.578995e+002,-1.501323e-003
7.598280e+002,-1.755335e-003
7.617565e+002,-1.855051e-003
7.636850e+002,-1.876397e-003
7.656135e+002,-1.607963e-003
7.675420e+002,-1.515257e-003
7.694705e+002,-1.108574e-003
7.713990e+002,-1.255422e-003
7.733275e+002,-1.480685e-003
7.752560e+002,-1.563660e-003
7.771844e+002,-1.639984e-003
7.791130e+002,-1.940527e-003
7.810415e+002,-1.787674e-003
7.829700e+002,-1.310229e-003
7.848984e+002,-8.083474e-004
7.868270e+002,-9.935466e-004
7.887555e+002,-1.330776e-003
7.906840e+002,-1.415364e-003
7.926124e+002,-1.299691e-003
7.945410e+002,-1.034041e-003
7.964695e+002,-8.952530e-004
7.983979e+002,-9.248459e-004
8.003264e+002,-1.009877e-003
8.022549e+002,-1.274617e-003
8.041835e+002,-1.525427e-003
8.061119e+002,-1.547845e-003
8.080404e+002,-1.228726e-003
8.099689e+002,-1.605884e-003
8.118975e+002,-1.907572e-003
8.138259e+002,-1.324995e-003
8.157545e+002,-6.910236e-004
8.176830e+002,-1.071194e-003
8.196115e+002,-1.309238e-003
8.215399e+002,-1.340256e-003
8.234684e+002,-1.260840e-003
8.253970e+002,-1.637574e-003
8.273254e+002,-1.779590e-003
8.292539e+002,-1.465561e-003
8.311824e+002,-1.355120e-003
8.331110e+002,-1.370215e-003
8.350394e+002,-1.136599e-003
8.369679e+002,-9.695455e-004
8.388964e+002,-1.293679e-003
8.408250e+002,-1.568018e-003
8.427534e+002,-1.109599e-003
8.446819e+002,-7.612497e-004
8.466104e+002,-8.145980e-004
8.485389e+002,-1.221325e-003
8.504674e+002,-1.440067e-003
8.523959e+002,-1.336953e-003
8.543244e+002,-1.121397e-003
8.562529e+002,-9.405178e-004
8.581814e+002,-1.001976e-003
8.601099e+002,-8.230644e-004
8.620384e+002,-7.151723e-004
8.639669e+002,-1.309238e-003
8.658954e+002,-1.420780e-003
8.678239e+002,-1.018406e-003
8.697524e+002,-7.832116e-004
8.716809e+002,-1.047230e-003
8.736094e+002,-1.207447e-003
8.755378e+002,-1.411269e-003
8.774664e+002,-1.377283e-003
8.793949e+002,-1.138714e-003
8.813234e+002,-1.083390e-003
8.832518e+002,-9.161170e-004
8.851804e+002,-9.866704e-004
8.871089e+002,-1.264771e-003
8.890374e+002,-1.293877e-003
8.909658e+002,-1.442808e-003
8.928943e+002,-1.151834e-003
8.948229e+002,-7.934645e-004
8.967513e+002,-8.987249e-004
8.986798e+002,-1.202954e-003
9.006083e+002,-1.565079e-003
9.025369e+002,-1.442181e-003
9.044653e+002,-1.128205e-003
9.063938e+002,-1.118687e-003
9.083223e+002,-1.183557e-003
9.102509e+002,-1.164755e-003
9.121793e+002,-1.134947e-003
9.141078e+002,-1.244056e-003
9.160364e+002,-1.163169e-003
9.179648e+002,-9.906043e-004
9.198933e+002,-9.964557e-004
9.218218e+002,-1.278019e-003
9.237504e+002,-1.301144e-003
9.256788e+002,-1.360075e-003
9.276073e+002,-1.542794e-003
9.295358e+002,-1.360603e-003
9.314644e+002,-1.047627e-003
9.333928e+002,-1.008290e-003
9.353213e+002,-1.019430e-003
9.372498e+002,-8.691633e-004
9.391783e+002,-9.229282e-004
9.411068e+002,-1.224067e-003
9.430353e+002,-9.706696e-004
9.449637e+002,-8.799433e-004
9.468923e+002,-1.293150e-003
9.488208e+002,-1.325523e-003
9.507493e+002,-1.229023e-003
9.526777e+002,-1.295892e-003
9.546063e+002,-1.260972e-003
9.565348e+002,-1.106525e-003
9.584633e+002,-8.980305e-004
9.603917e+002,-9.181009e-004
9.623203e+002,-1.220565e-003
9.642488e+002,-1.189340e-003
9.661772e+002,-9.250442e-004
9.681057e+002,-8.538527e-004
9.700343e+002,-8.622851e-004
9.719628e+002,-9.847198e-004
9.738912e+002,-1.191851e-003
9.758197e+002,-1.113598e-003
9.777483e+002,-8.049739e-004
9.796768e+002,-7.567513e-004
9.816052e+002,-9.074872e-004
9.835337e+002,-1.044420e-003
9.854623e+002,-1.026306e-003
9.873907e+002,-1.062468e-003
9.893192e+002,-9.912325e-004
9.912477e+002,-9.587017e-004
9.931763e+002,-9.507339e-004
9.951047e+002,-8.703537e-004
9.970332e+002,-9.452456e-004
9.989617e+002,-1.135178e-003
1.000890e+003,-9.749012e-004
1.002819e+003,-7.129229e-004
1.004747e+003,-7.933984e-004
1.006676e+003,-8.927730e-004
1.008604e+003,-7.624073e-004
1.010533e+003,-1.004389e-003
1.012461e+003,-1.198889e-003
1.014390e+003,-1.066897e-003
1.016318e+003,-9.687521e-004
1.018247e+003,-1.086695e-003
1.020175e+003,-1.131973e-003
1.022104e+003,-9.880918e-004
1.024032e+003,-7.360450e-004
1.025961e+003,-8.139696e-004
1.027889e+003,-1.134253e-003
1.029818e+003,-1.208472e-003
1.031746e+003,-1.156560e-003
1.033675e+003,-1.302136e-003
1.035603e+003,-1.002075e-003
1.037532e+003,-8.245195e-004
1.039460e+003,-8.896649e-004
1.041389e+003,-8.538195e-004
1.043317e+003,-9.227960e-004
1.045246e+003,-1.004522e-003
1.047174e+003,-8.134405e-004
1.049103e+003,-8.298439e-004
1.051031e+003,-8.026919e-004
1.052960e+003,-5.654617e-004
1.054888e+003,-6.339545e-004
1.056817e+003,-7.885034e-004
1.058745e+003,-7.879743e-004
1.060674e+003,-9.065613e-004
1.062602e+003,-8.250817e-004
1.064531e+003,-7.975987e-004
1.066459e+003,-8.669808e-004
1.068388e+003,-9.693802e-004
1.070316e+003,-9.959928e-004
1.072245e+003,-9.496429e-004
1.074173e+003,-7.275108e-004
1.076102e+003,-7.509298e-004
1.078030e+003,-1.118853e-003
1.079959e+003,-1.358489e-003
1.081887e+003,-1.192644e-003
1.083816e+003,-9.989680e-004
1.085744e+003,-8.712135e-004
1.087673e+003,-9.476922e-004
1.089601e+003,-1.147207e-003
1.091530e+003,-1.180253e-003
1.093458e+003,-9.089420e-004
1.095387e+003,-8.137050e-004
1.097315e+003,-7.641604e-004
1.099244e+003,-8.415508e-004
1.101172e+003,-8.372186e-004
1.103101e+003,-8.611608e-004
1.105029e+003,-1.037908e-003
1.106958e+003,-9.851496e-004
1.108886e+003,-8.909213e-004
1.110815e+003,-9.186629e-004
1.112743e+003,-7.581736e-004
1.114672e+003,-6.222751e-004
1.116600e+003,-6.383880e-004
1.118529e+003,-7.853945e-004
1.120457e+003,-9.058339e-004
1.122386e+003,-7.245007e-004
1.124314e+003,-6.668735e-004
1.126243e+003,-1.040189e-003
1.128171e+003,-1.054436e-003
1.130100e+003,-9.739425e-004
1.132028e+003,-1.045842e-003
1.133957e+003,-1.065905e-003
1.135885e+003,-9.457085e-004
1.137814e+003,-7.512275e-004
1.139742e+003,-7.675671e-004
1.141671e+003,-8.058008e-004
1.143599e+003,-7.485814e-004
1.145528e+003,-6.667743e-004
1.147456e+003,-6.603561e-004
1.149385e+003,-6.703804e-004
1.151313e+003,-6.956219e-004
1.153242e+003,-8.076528e-004
1.155170e+003,-9.512960e-004
1.157099e+003,-9.580074e-004
1.159027e+003,-9.381703e-004
1.160956e+003,-9.177371e-004
1.162884e+003,-1.088744e-003
1.164813e+003,-1.136963e-003
1.166741e+003,-9.783064e-004
1.168670e+003,-8.431712e-004
1.170598e+003,-7.074648e-004
1.172526e+003,-8.406249e-004
1.174455e+003,-7.860229e-004
1.176384e+003,-6.665096e-004
1.178312e+003,-6.276351e-004
1.180240e+003,-5.953418e-004
1.182169e+003,-6.090403e-004
1.184098e+003,-5.421320e-004
1.186026e+003,-4.592930e-004
1.187954e+003,-5.217464e-004
1.189883e+003,-7.639950e-004
1.191812e+003,-8.116546e-004
1.193740e+003,-6.265102e-004
1.195668e+003,-5.996764e-004
1.197597e+003,-6.582388e-004
1.199526e+003,-5.742307e-004
1.201454e+003,-5.028161e-004
1.203382e+003,-5.704253e-004
1.205311e+003,-7.003194e-004
1.207240e+003,-8.212124e-004
1.209168e+003,-6.537393e-004
1.211096e+003,-5.820069e-004
1.213025e+003,-6.096358e-004
1.214953e+003,-5.002015e-004
1.216882e+003,-5.380285e-004
1.218810e+003,-7.604889e-004
1.220739e+003,-7.942913e-004
1.222667e+003,-5.956396e-004
1.224596e+003,-5.659250e-004
1.226524e+003,-7.668395e-004
1.228453e+003,-7.929353e-004
1.230381e+003,-7.365412e-004
1.232310e+003,-8.078843e-004
1.234238e+003,-7.788457e-004
1.236167e+003,-6.506956e-004
1.238095e+003,-6.789156e-004
1.240024e+003,-6.019595e-004
1.241952e+003,-4.181821e-004
1.243881e+003,-4.746507e-004
1.245809e+003,-5.801207e-004
1.247738e+003,-6.408694e-004
1.249666e+003,-7.011133e-004
1.251595e+003,-5.421320e-004
1.253523e+003,-4.773978e-004
1.255452e+003,-5.251220e-004
1.257380e+003,-5.703591e-004
1.259309e+003,-5.954410e-004
1.261237e+003,-5.924300e-004
1.263166e+003,-5.620202e-004
1.265094e+003,-6.618780e-004
1.267023e+003,-6.040771e-004
1.268951e+003,-5.108583e-004
1.270880e+003,-4.951709e-004
1.272808e+003,-4.409227e-004
1.274737e+003,-4.532359e-004
1.276665e+003,-3.897133e-004
1.278594e+003,-4.182814e-004
1.280522e+003,-5.235997e-004
1.282451e+003,-4.831899e-004
1.284379e+003,-4.338392e-004
1.286308e+003,-4.018625e-004
1.288236e+003,-5.404773e-004
1.290165e+003,-6.035146e-004
1.292093e+003,-7.081925e-004
1.294022e+003,-1.004191e-003
1.295950e+003,-9.123477e-004
1.297879e+003,-6.443433e-004
1.299807e+003,-5.053975e-004
1.301736e+003,-6.460968e-004
1.303664e+003,-6.384542e-004
1.305593e+003,-4.246370e-004
1.307521e+003,-3.043620e-004
1.309450e+003,-3.063818e-004
1.311378e+003,-3.962348e-004
1.313307e+003,-4.013990e-004
1.315235e+003,-2.863162e-004
1.317164e+003,-7.924939e-005
1.319092e+003,-1.532841e-004
1.321021e+003,-4.922253e-004
1.322949e+003,-6.387188e-004
1.324878e+003,-5.462685e-004
1.326806e+003,-5.730395e-004
1.328735e+003,-5.079128e-004
1.330663e+003,-4.014983e-004
1.332592e+003,-3.799475e-004
1.334520e+003,-3.429013e-004
1.336449e+003,-2.979385e-004
1.338377e+003,-3.006867e-004
1.340306e+003,-3.720353e-004
1.342234e+003,-4.673360e-004
1.344163e+003,-5.271738e-004
1.346091e+003,-4.668726e-004
1.348020e+003,-3.195596e-004
1.349948e+003,-3.580645e-004
1.351877e+003,-4.916958e-004
1.353805e+003,-4.957005e-004
1.355734e+003,-4.504886e-004
1.357662e+003,-6.100660e-004
1.359591e+003,-6.095366e-004
1.361519e+003,-4.135809e-004
1.363448e+003,-3.703138e-004
1.365376e+003,-5.373666e-004
1.367305e+003,-5.264127e-004
1.369233e+003,-4.321841e-004
1.371162e+003,-4.512168e-004
1.373090e+003,-4.808069e-004
1.375019e+003,-5.117849e-004
1.376947e+003,-5.369033e-004
1.378876e+003,-3.570713e-004
1.380804e+003,-2.874421e-004
1.382733e+003,-3.368094e-004
1.384661e+003,-4.315552e-004
1.386590e+003,-3.539923e-004
1.388518e+003,-3.773984e-004
1.390447e+003,-3.961686e-004
1.392375e+003,-4.050404e-004
1.394304e+003,-2.873427e-004
1.396232e+003,-2.720115e-004
1.398161e+003,-2.001166e-004
1.400089e+003,-2.594614e-004
1.402018e+003,-4.857052e-004
1.403946e+003,-5.394846e-004
1.405875e+003,-4.841166e-004
1.407803e+003,-4.528718e-004
1.409732e+003,-5.075487e-004
1.411660e+003,-5.428600e-004
1.413589e+003,-5.150944e-004
1.415517e+003,-4.585649e-004
1.417446e+003,-1.055522e-004
1.419374e+003,1.063402e-004
1.421303e+003,-2.926075e-004
1.423231e+003,-5.089718e-004
1.425160e+003,-4.133492e-004
1.427088e+003,-3.407493e-004
1.429017e+003,-3.275390e-004
1.430945e+003,-4.469138e-004
1.432874e+003,-5.354472e-004
1.434802e+003,-2.971769e-004
1.436731e+003,-1.971431e-005
1.438659e+003,-3.635601e-004
1.440588e+003,-6.087756e-004
1.442516e+003,-6.637637e-004
1.444445e+003,-6.901304e-004
1.446373e+003,-4.639269e-004
1.448302e+003,-2.811838e-004
1.450230e+003,-4.128857e-004
1.452159e+003,-4.736247e-004
1.454087e+003,-2.559513e-004
1.456016e+003,3.106101e-004
1.457944e+003,3.784893e-004
1.459873e+003,-1.791851e-004
1.461801e+003,-4.974876e-004
1.463730e+003,-3.116463e-004
1.465658e+003,-2.837666e-004
1.467587e+003,-4.661776e-004
1.469515e+003,-3.712076e-004
1.471444e+003,1.858859e-005
1.473372e+003,2.078996e-004
1.475301e+003,4.576052e-005
1.477229e+003,-1.736539e-004
1.479158e+003,-3.951424e-004
1.481086e+003,-4.663100e-004
1.483015e+003,-4.829251e-004
1.484943e+003,-4.364210e-004
1.486872e+003,-2.240608e-004
1.488800e+003,2.319445e-005
1.490729e+003,-1.388757e-004
1.492657e+003,-4.878234e-004
1.494586e+003,-2.874089e-004
1.496514e+003,2.408911e-005
1.498443e+003,-5.751689e-005
1.500371e+003,-1.904127e-004
1.502300e+003,-2.569778e-004
1.504228e+003,5.918143e-005
1.506157e+003,6.187881e-004
1.508085e+003,4.494306e-004
1.510014e+003,3.038498e-005
1.511942e+003,-6.828389e-005
1.513871e+003,-8.567618e-005
1.515799e+003,2.157080e-005
1.517728e+003,8.489771e-005
1.519656e+003,1.822755e-004
1.521585e+003,3.095159e-004
1.523513e+003,1.103504e-004
1.525442e+003,-1.553959e-005
1.527370e+003,-1.325822e-004
1.529299e+003,-2.967133e-004
1.531227e+003,-2.894619e-004
1.533156e+003,4.439984e-006
1.535084e+003,-1.644462e-004
1.537013e+003,-8.723317e-005
1.538941e+003,5.191229e-004
1.540870e+003,6.007710e-004
1.542798e+003,1.600669e-004
1.544727e+003,-1.155562e-004
1.546655e+003,-4.001742e-004
1.548584e+003,-3.733264e-004
1.550512e+003,-2.582031e-004
1.552441e+003,-2.043558e-004
1.554369e+003,-2.107274e-005
1.556298e+003,2.434046e-004
1.558226e+003,8.722343e-004
1.560155e+003,4.934472e-004
1.562083e+003,-1.671953e-004
1.564012e+003,-2.882367e-004
1.565940e+003,-3.250558e-004
1.567869e+003,-2.133970e-004
1.569797e+003,-1.062810e-004
1.571726e+003,-3.815365e-004
1.573654e+003,-4.008362e-004
1.575583e+003,-9.008211e-005
1.577511e+003,-2.808858e-004
1.579440e+003,-6.390166e-004
1.581368e+003,-5.979227e-004
1.583297e+003,-5.448125e-004
1.585225e+003,-4.529380e-004
1.587154e+003,-3.733264e-004
1.589082e+003,-3.463114e-004
1.591010e+003,-4.499921e-004
1.592939e+003,-5.184370e-004
1.594868e+003,-5.540783e-004
1.596796e+003,-5.666861e-004
1.598724e+003,-5.351494e-004
1.600653e+003,-5.322372e-004
1.602582e+003,-5.162858e-004
1.604510e+003,-4.134485e-004
1.606438e+003,-3.586273e-004
1.608367e+003,-4.065962e-004
1.610296e+003,-4.166594e-004
1.612224e+003,-4.363217e-004
1.614152e+003,-3.412459e-004
1.616081e+003,-6.755505e-005
1.618010e+003,-1.884587e-004
1.619938e+003,-4.589290e-004
1.621866e+003,-3.518403e-004
1.623795e+003,-2.371418e-004
1.625724e+003,-2.523087e-004
1.627652e+003,-2.848593e-004
1.629580e+003,-5.001022e-004
1.631509e+003,-5.102294e-004
1.633438e+003,-1.580869e-004
1.635366e+003,2.323649e-004
1.637294e+003,-1.264211e-004
1.639223e+003,-3.832910e-004
1.641151e+003,-3.878595e-004
1.643080e+003,-3.883230e-004
1.645008e+003,-1.726272e-004
1.646937e+003,9.769014e-005
1.648865e+003,-1.044259e-004
1.650794e+003,8.831119e-005
1.652722e+003,9.159949e-004
1.654651e+003,3.960329e-004
1.656579e+003,-2.229680e-004
1.658508e+003,-4.202345e-004
1.660436e+003,-4.060997e-004
1.662365e+003,-1.816359e-004
1.664293e+003,-3.239301e-004
1.666222e+003,-3.247578e-004
1.668150e+003,-4.771276e-006
1.670079e+003,2.070927e-005
1.672007e+003,-1.763036e-004
1.673936e+003,-5.917336e-005
1.675864e+003,2.630922e-005
1.677793e+003,-3.271417e-004
1.679721e+003,-3.812386e-004
1.681650e+003,-1.673609e-004
1.683578e+003,4.352348e-004
1.685507e+003,3.168438e-004
1.687435e+003,-1.748463e-004
1.689364e+003,-3.716711e-004
1.691292e+003,-4.890811e-004
1.693221e+003,-3.348891e-004
1.695149e+003,1.633153e-004
1.697078e+003,2.078333e-004
1.699006e+003,3.864817e-004
1.700935e+003,3.122349e-004
1.702863e+003,-2.208154e-004
1.704792e+003,-1.376501e-004
1.706720e+003,-1.636182e-004
1.708649e+003,-2.739983e-004
1.710577e+003,-3.702807e-004
1.712506e+003,-3.201887e-004
1.714434e+003,-3.578329e-005
1.716363e+003,2.241765e-004
1.718291e+003,1.148246e-004
1.720220e+003,-2.776739e-004
1.722148e+003,-4.772655e-004
1.724077e+003,-5.086078e-004
1.726005e+003,-5.214486e-004
1.727934e+003,-4.409889e-004
1.729862e+003,-2.786010e-004
1.731791e+003,-7.083480e-005
1.733719e+003,2.242760e-004
1.735648e+003,-1.735546e-004
1.737576e+003,-4.758753e-004
1.739505e+003,-2.814818e-004
1.741433e+003,-3.085671e-004
1.743362e+003,-3.508140e-004
1.745290e+003,-3.547869e-004
1.747219e+003,-2.183316e-004
1.749147e+003,-1.297335e-004
1.751076e+003,-1.972022e-004
1.753004e+003,-4.305952e-004
1.754933e+003,-3.798481e-004
1.756861e+003,-2.476063e-004
1.758790e+003,-3.674667e-004
1.760718e+003,-3.785901e-004
1.762647e+003,-4.181159e-004
1.764575e+003,-5.632777e-004
1.766504e+003,-3.876940e-004
1.768432e+003,-1.451029e-004
1.770361e+003,-4.572473e-006
1.772289e+003,3.900052e-005
1.774218e+003,-2.951902e-004
1.776146e+003,-4.258286e-004
1.778075e+003,-3.981880e-004
1.780003e+003,-3.957714e-004
1.781932e+003,-5.262141e-004
1.783860e+003,-4.993741e-004
1.785789e+003,-3.491587e-004
1.787717e+003,-3.785570e-004
1.789646e+003,-2.839653e-004
1.791574e+003,-1.241355e-004
1.793503e+003,-2.713493e-004
1.795431e+003,-5.671163e-004
1.797360e+003,-5.651970e-004
1.799288e+003,-4.186455e-004
1.801217e+003,-3.924610e-004
1.803145e+003,-4.874594e-004
1.805074e+003,-5.150944e-004
1.807002e+003,-4.675015e-004
1.808931e+003,-4.347329e-004
1.810859e+003,-3.104544e-004
1.812788e+003,-3.009516e-004
1.814716e+003,-4.465497e-004
1.816645e+003,-4.563803e-004
1.818573e+003,-4.968257e-004
1.820502e+003,-4.979841e-004
1.822430e+003,-4.260273e-004
1.824359e+003,-2.653888e-004
1.826287e+003,-3.436959e-004
1.828216e+003,-3.731278e-004
1.830144e+003,-3.365777e-004
1.832073e+003,-4.420481e-004
1.834001e+003,-4.757760e-004
1.835930e+003,-5.313767e-004
1.837858e+003,-5.870695e-004
1.839787e+003,-5.801207e-004
1.841715e+003,-4.244384e-004
1.843644e+003,-2.185634e-004
1.845572e+003,-3.862374e-004
1.847501e+003,-5.724438e-004
1.849429e+003,-5.899152e-004
1.851358e+003,-5.535157e-004
1.853286e+003,-5.142670e-004
1.855215e+003,-4.633642e-004
1.857143e+003,-4.726648e-004
1.859072e+003,-5.105935e-004
1.861000e+003,-4.478075e-004
1.862929e+003,-4.381754e-004
1.864857e+003,-4.504555e-004
1.866786e+003,-4.183145e-004
1.868714e+003,-3.682943e-004
1.870643e+003,-4.605839e-004
1.872571e+003,-5.061256e-004
1.874500e+003,-3.965990e-004
1.876428e+003,-4.222537e-004
1.878357e+003,-4.703480e-004
1.880285e+003,-4.738564e-004
1.882214e+003,-4.413530e-004
1.884142e+003,-4.628677e-004
1.886071e+003,-5.366385e-004
1.887999e+003,-5.093359e-004
1.889928e+003,-4.475427e-004
1.891856e+003,-4.715064e-004
1.893785e+003,-4.588627e-004
1.895713e+003,-4.935823e-004
1.897642e+003,-5.313767e-004
1.899570e+003,-5.798560e-004
1.901499e+003,-5.551703e-004
1.903427e+003,-4.730951e-004
1.905356e+003,-4.395325e-004
1.907284e+003,-3.929907e-004
1.909213e+003,-3.843835e-004
1.911141e+003,-4.543282e-004
1.913070e+003,-4.542289e-004
1.914998e+003,-4.816674e-004
1.916927e+003,-4.669389e-004
1.918855e+003,-4.658135e-004
1.920784e+003,-4.741212e-004
1.922712e+003,-5.035442e-004
1.924641e+003,-5.019887e-004
1.926569e+003,-5.487836e-004
1.928498e+003,-5.426945e-004
1.930426e+003,-5.472613e-004
1.932355e+003,-5.444484e-004
1.934283e+003,-4.900079e-004
1.936212e+003,-5.051658e-004
1.938140e+003,-5.032794e-004
1.940069e+003,-3.868332e-004
1.941997e+003,-3.062824e-004
1.943926e+003,-3.974266e-004
1.945854e+003,-4.809062e-004
1.947783e+003,-5.828672e-004
1.949711e+003,-5.786979e-004
1.951640e+003,-5.151275e-004
1.953568e+003,-5.294573e-004
1.955497e+003,-4.955350e-004
1.957425e+003,-5.039082e-004
1.959354e+003,-6.491406e-004
1.961282e+003,-6.565846e-004
1.963211e+003,-5.599686e-004
1.965139e+003,-4.844807e-004
1.967068e+003,-4.577374e-004
1.968996e+003,-5.086078e-004
1.970925e+003,-5.279019e-004
1.972853e+003,-5.041730e-004
1.974782e+003,-4.992748e-004
1.976710e+003,-5.371681e-004
1.978639e+003,-5.179736e-004
1.980567e+003,-5.393852e-004
1.982496e+003,-5.386241e-004
1.984424e+003,-6.051690e-004
1.986353e+003,-6.476849e-004
1.988281e+003,-6.404723e-004
1.990210e+003,-5.132080e-004
1.992138e+003,-4.188773e-004
1.994067e+003,-5.119835e-004
1.995995e+003,-5.992131e-004
1.997924e+003,-4.993741e-004
1.999852e+003,-3.907065e-004
2.001781e+003,-4.627022e-004
2.003709e+003,-5.030477e-004
2.005638e+003,-4.748493e-004
2.007566e+003,-5.387565e-004
2.009495e+003,-6.124483e-004
2.011423e+003,-6.200583e-004
2.013352e+003,-5.449118e-004
2.015280e+003,-4.882868e-004
2.017208e+003,-5.590420e-004
2.019137e+003,-6.582057e-004
2.021066e+003,-6.603561e-004
2.022994e+003,-6.217127e-004
2.024922e+003,-5.870034e-004
2.026851e+003,-5.673479e-004
2.028780e+003,-5.436873e-004
2.030708e+003,-5.529862e-004
2.032636e+003,-4.761070e-004
2.034565e+003,-4.972559e-004
2.036494e+003,-6.511257e-004
2.038422e+003,-6.746811e-004
2.040350e+003,-5.892865e-004
2.042279e+003,-5.764147e-004
2.044208e+003,-6.304474e-004
2.046136e+003,-5.758521e-004
2.048064e+003,-5.004331e-004
2.049993e+003,-4.887502e-004
2.051921e+003,-5.541776e-004
2.053850e+003,-6.903620e-004
2.055778e+003,-7.012456e-004
2.057707e+003,-6.459976e-004
2.059635e+003,-5.354141e-004
2.061564e+003,-5.303508e-004
2.063492e+003,-5.699951e-004
2.065421e+003,-5.682413e-004
2.067349e+003,-6.015955e-004
2.069278e+003,-6.342192e-004
2.071206e+003,-6.341200e-004
2.073135e+003,-5.900145e-004
2.075063e+003,-5.867386e-004
2.076992e+003,-6.380902e-004
2.078920e+003,-6.507948e-004
2.080849e+003,-6.126137e-004
2.082777e+003,-5.360429e-004
2.084706e+003,-5.834297e-004
2.086634e+003,-6.611832e-004
2.088563e+003,-6.683292e-004
2.090491e+003,-5.745947e-004
2.092420e+003,-4.812702e-004
2.094348e+003,-5.178744e-004
2.096277e+003,-5.569573e-004
2.098205e+003,-5.393852e-004
2.100134e+003,-6.143012e-004
2.102062e+003,-6.504970e-004
2.103991e+003,-6.507948e-004
2.105919e+003,-6.559229e-004
2.107848e+003,-6.881786e-004
2.109776e+003,-7.142131e-004
2.111705e+003,-6.647562e-004
2.113633e+003,-6.037462e-004
2.115562e+003,-6.273704e-004
2.117490e+003,-6.478172e-004
2.119419e+003,-6.598929e-004
2.121347e+003,-6.702480e-004
2.123276e+003,-6.201906e-004
2.125204e+003,-6.001396e-004
2.127133e+003,-6.327634e-004
2.129061e+003,-5.927609e-004
2.130990e+003,-6.534416e-004
2.132918e+003,-6.093050e-004
2.134847e+003,-6.414980e-004
2.136775e+003,-7.626719e-004
2.138704e+003,-7.636973e-004
2.140632e+003,-6.460306e-004
2.142561e+003,-7.141138e-004
2.144489e+003,-8.080166e-004
2.146418e+003,-7.297932e-004
2.148346e+003,-5.951764e-004
2.150275e+003,-5.853489e-004
2.152203e+003,-6.837787e-004
2.154132e+003,-7.532121e-004
2.156060e+003,-7.142792e-004
2.157989e+003,-7.572144e-004
2.159917e+003,-7.817894e-004
2.161846e+003,-7.816571e-004
2.163774e+003,-8.356643e-004
2.165703e+003,-8.270329e-004
2.167631e+003,-7.870482e-004
2.169560e+003,-7.090195e-004
2.171488e+003,-6.288924e-004
2.173417e+003,-6.839772e-004
2.175345e+003,-6.669728e-004
2.177274e+003,-6.367337e-004
2.179202e+003,-6.527137e-004
2.181131e+003,-7.208951e-004
2.183059e+003,-7.521537e-004
2.184988e+003,-8.075536e-004
2.186916e+003,-8.072560e-004
2.188845e+003,-7.135184e-004
2.190773e+003,-6.140365e-004
2.192702e+003,-5.484857e-004
2.194630e+003,-6.498685e-004
2.196559e+003,-7.625066e-004
2.198487e+003,-7.644250e-004
2.200416e+003,-7.467291e-004
2.202344e+003,-6.766992e-004
2.204273e+003,-6.509603e-004
2.206201e+003,-6.399099e-004
2.208130e+003,-6.531769e-004
2.210058e+003,-6.873846e-004
2.211987e+003,-7.118644e-004
2.213915e+003,-6.978053e-004
2.215844e+003,-7.183480e-004
2.217772e+003,-6.795442e-004
2.219701e+003,-5.958381e-004
2.221629e+003,-6.629367e-004
2.223558e+003,-7.327372e-004
2.225486e+003,-7.437852e-004
2.227415e+003,-6.577425e-004
2.229343e+003,-6.638960e-004
2.231272e+003,-7.175210e-004
2.233200e+003,-7.165617e-004
2.235129e+003,-6.324988e-004
2.237057e+003,-5.436873e-004
2.238986e+003,-6.093381e-004
2.240914e+003,-7.080933e-004
2.242843e+003,-7.054799e-004
2.244771e+003,-6.244919e-004
2.246700e+003,-6.479165e-004
2.248628e+003,-7.039252e-004
2.250557e+003,-7.099788e-004
2.252485e+003,-6.239294e-004
2.254414e+003,-5.642042e-004
2.256342e+003,-5.971286e-004
2.258271e+003,-6.375278e-004
2.260199e+003,-6.255838e-004
2.262128e+003,-6.075182e-004
2.264056e+003,-5.631784e-004
2.265985e+003,-5.632777e-004
2.267913e+003,-6.754751e-004
2.269842e+003,-6.628043e-004
2.271770e+003,-6.000734e-004
2.273699e+003,-6.078491e-004
2.275627e+003,-5.279019e-004
2.277556e+003,-5.447794e-004
2.279484e+003,-6.381895e-004
2.281413e+003,-6.872854e-004
2.283341e+003,-6.955558e-004
2.285270e+003,-7.174879e-004
2.287198e+003,-5.901137e-004
2.289127e+003,-5.202572e-004
2.291055e+003,-5.277695e-004
2.292984e+003,-5.686384e-004
2.294912e+003,-6.846720e-004
2.296841e+003,-7.067700e-004
2.298769e+003,-6.802059e-004
2.300698e+003,-6.384542e-004
2.302626e+003,-5.336602e-004
2.304555e+003,-4.571747e-004
2.306483e+003,-4.598557e-004
2.308412e+003,-3.811723e-004
2.310340e+003,-2.710512e-004
2.312269e+003,-2.094560e-004
2.314197e+003,-8.014384e-005
2.316125e+003,4.728485e-005
2.318054e+003,1.283471e-004
2.319983e+003,1.277505e-004
2.321911e+003,1.688176e-004
2.323840e+003,3.081896e-004
2.325768e+003,4.573248e-004
2.327697e+003,5.290420e-004
2.329625e+003,5.612556e-004
2.331553e+003,4.848891e-004
2.333482e+003,5.467575e-004
2.335411e+003,6.173945e-004
2.337339e+003,5.493783e-004
2.339268e+003,4.711896e-004
2.341196e+003,4.380540e-004
2.343125e+003,3.336885e-004
2.345053e+003,2.150269e-004
2.346981e+003,1.414847e-005
2.348910e+003,-2.267433e-004
2.350839e+003,-6.182372e-005
2.352767e+003,2.680708e-004
2.354696e+003,4.696306e-004
2.356624e+003,7.178123e-004
2.358552e+003,9.502628e-004
2.360481e+003,9.643759e-004
2.362409e+003,8.954753e-004
2.364338e+003,7.326480e-004
2.366267e+003,6.304017e-004
2.368195e+003,5.506722e-004
2.370124e+003,4.256164e-004
2.372052e+003,2.194027e-004
2.373980e+003,-1.102230e-004
2.375909e+003,-4.093107e-004
2.377838e+003,-5.184039e-004
2.379766e+003,-5.453420e-004
2.381695e+003,-6.298188e-004
2.383623e+003,-6.979045e-004
2.385552e+003,-6.871531e-004
2.387480e+003,-7.353173e-004
2.389408e+003,-7.255923e-004
2.391337e+003,-7.730907e-004
2.393266e+003,-8.935005e-004
2.395194e+003,-8.462137e-004
2.397123e+003,-7.926708e-004
2.399051e+003,-9.188614e-004
2.400979e+003,-1.043958e-003
2.402908e+003,-9.768849e-004
2.404836e+003,-8.408563e-004
2.406765e+003,-8.120184e-004
2.408694e+003,-9.067598e-004
2.410622e+003,-9.504694e-004
2.412551e+003,-9.901415e-004
2.414479e+003,-1.013844e-003
2.416407e+003,-9.996953e-004
2.418336e+003,-9.568833e-004
2.420264e+003,-9.579082e-004
2.422193e+003,-9.966540e-004
2.424122e+003,-1.040454e-003
2.426050e+003,-9.585363e-004
2.427979e+003,-8.940626e-004
2.429907e+003,-9.105291e-004
2.431835e+003,-8.646991e-004
2.433764e+003,-8.287526e-004
2.435692e+003,-8.555722e-004
2.437621e+003,-8.873502e-004
2.439550e+003,-8.312329e-004
2.441478e+003,-8.270329e-004
2.443406e+003,-9.395920e-004
2.445335e+003,-1.006009e-003
2.447263e+003,-9.675288e-004
2.449192e+003,-9.302683e-004
2.451121e+003,-8.891358e-004
2.453049e+003,-8.526621e-004
2.454978e+003,-8.607309e-004
2.456906e+003,-8.396989e-004
2.458834e+003,-8.301415e-004
2.460763e+003,-8.460152e-004
2.462691e+003,-8.406249e-004
2.464620e+003,-7.916454e-004
2.466549e+003,-7.717016e-004
2.468477e+003,-8.798110e-004
2.470406e+003,-8.706513e-004
2.472334e+003,-8.408563e-004
2.474262e+003,-8.229651e-004
2.476191e+003,-7.935637e-004
2.478119e+003,-8.739250e-004
2.480048e+003,-8.984604e-004
2.481977e+003,-8.262061e-004
2.483905e+003,-7.947874e-004
2.485833e+003,-8.323242e-004
2.487762e+003,-9.309957e-004
2.489690e+003,-8.749832e-004
2.491619e+003,-8.007406e-004
2.493547e+003,-7.477875e-004
2.495476e+003,-8.087112e-004
2.497405e+003,-8.161854e-004
2.499333e+003,-7.892642e-004
2.501261e+003,-7.205312e-004
2.503190e+003,-7.890657e-004
2.505118e+003,-9.640245e-004
2.507047e+003,-9.634293e-004
2.508975e+003,-9.329795e-004
2.510904e+003,-8.977660e-004
2.512833e+003,-8.800094e-004
2.514761e+003,-8.726685e-004
2.516689e+003,-8.670800e-004
2.518618e+003,-9.034532e-004
2.520546e+003,-9.078509e-004
2.522475e+003,-9.108598e-004
2.524403e+003,-9.305328e-004
2.526332e+003,-9.318884e-004
2.528260e+003,-8.780584e-004
2.530189e+003,-8.269998e-004
2.532117e+003,-7.860229e-004
2.534046e+003,-8.222376e-004
2.535974e+003,-8.381446e-004
2.537903e+003,-8.620206e-004
2.539831e+003,-8.819273e-004
2.541760e+003,-8.172768e-004
2.543688e+003,-8.470073e-004
2.545617e+003,-9.130751e-004
2.547545e+003,-8.557706e-004
2.549474e+003,-7.493752e-004
2.551402e+003,-7.646565e-004
2.553331e+003,-8.269998e-004
2.555259e+003,-8.722055e-004
2.557188e+003,-8.733298e-004
2.559116e+003,-9.146622e-004
2.561045e+003,-9.287143e-004
2.562973e+003,-9.074872e-004
2.564902e+003,-9.641236e-004
2.566830e+003,-9.765542e-004
2.568759e+003,-8.417161e-004
2.570687e+003,-7.369050e-004
2.572616e+003,-7.921747e-004
2.574544e+003,-7.850307e-004
2.576473e+003,-8.894664e-004
2.578401e+003,-1.026571e-003
2.580330e+003,-1.038999e-003
2.582258e+003,-9.098348e-004
2.584187e+003,-8.883753e-004
2.586115e+003,-9.150920e-004
2.588044e+003,-8.218407e-004
2.589972e+003,-7.444798e-004
2.591901e+003,-8.411540e-004
2.593829e+003,-8.611608e-004
2.595758e+003,-8.895656e-004
2.597686e+003,-8.811006e-004
2.599615e+003,-7.869489e-004
2.601543e+003,-8.103978e-004
2.603472e+003,-1.034570e-003
2.605400e+003,-1.053642e-003
2.607329e+003,-9.186629e-004
2.609257e+003,-8.372186e-004
2.611186e+003,-8.555060e-004
2.613114e+003,-8.300424e-004
2.615043e+003,-8.748509e-004
2.616971e+003,-8.694278e-004
2.618900e+003,-8.947900e-004
2.620828e+003,-9.376082e-004
2.622757e+003,-9.319214e-004
2.624685e+003,-8.970055e-004
2.626614e+003,-8.642361e-004
2.628542e+003,-9.412451e-004
2.630471e+003,-1.086364e-003
2.632399e+003,-1.025943e-003
2.634328e+003,-9.674297e-004
2.636256e+003,-1.047693e-003
2.638185e+003,-1.024587e-003
2.640113e+003,-9.965549e-004
2.642042e+003,-1.031099e-003
2.643970e+003,-1.091487e-003
2.645899e+003,-1.014736e-003
2.647827e+003,-8.726685e-004
2.649756e+003,-9.024282e-004
2.651684e+003,-9.950672e-004
2.653613e+003,-9.942738e-004
2.655541e+003,-9.400548e-004
2.657470e+003,-8.976668e-004
2.659398e+003,-8.926739e-004
2.661327e+003,-8.773640e-004
2.663255e+003,-9.363849e-004
2.665184e+003,-1.000621e-003
2.667112e+003,-1.005811e-003
2.669041e+003,-9.770831e-004
2.670969e+003,-1.048717e-003
2.672898e+003,-1.024025e-003
2.674826e+003,-9.829017e-004
2.676755e+003,-9.928192e-004
2.678683e+003,-1.039991e-003
2.680612e+003,-1.083786e-003
2.682540e+003,-1.075689e-003
2.684469e+003,-1.040355e-003
2.686397e+003,-9.441215e-004
2.688326e+003,-9.469648e-004
2.690254e+003,-9.703720e-004
2.692183e+003,-9.468656e-004
2.694111e+003,-1.016422e-003
2.696040e+003,-1.056452e-003
2.697968e+003,-9.747690e-004
2.699897e+003,-9.194895e-004
2.701825e+003,-9.741739e-004
2.703754e+003,-1.053775e-003
2.705682e+003,-1.033942e-003
2.707611e+003,-9.823065e-004
2.709539e+003,-9.385340e-004
2.711468e+003,-9.559906e-004
2.713396e+003,-9.643220e-004
2.715325e+003,-9.738764e-004
2.717253e+003,-9.980093e-004
2.719182e+003,-1.017216e-003
2.721110e+003,-1.037148e-003
2.723039e+003,-1.088942e-003
2.724967e+003,-1.069376e-003
2.726896e+003,-1.005117e-003
2.728824e+003,-9.944722e-004
2.730753e+003,-1.045114e-003
2.732681e+003,-9.731490e-004
2.734610e+003,-9.853811e-004
2.736538e+003,-9.871662e-004
2.738467e+003,-9.502049e-004
2.740395e+003,-9.055363e-004
2.742324e+003,-9.983069e-004
2.744252e+003,-1.123975e-003
2.746181e+003,-1.109962e-003
2.748109e+003,-1.023000e-003
2.750038e+003,-9.429974e-004
2.751966e+003,-1.052188e-003
2.753895e+003,-1.152363e-003
2.755823e+003,-1.174272e-003
2.757752e+003,-1.158212e-003
2.759680e+003,-1.144266e-003
2.761609e+003,-1.145225e-003
2.763537e+003,-1.120703e-003
2.765466e+003,-1.234078e-003
2.767394e+003,-1.240587e-003
2.769323e+003,-1.107913e-003
2.771251e+003,-1.043197e-003
2.773180e+003,-9.678925e-004
2.775108e+003,-9.929514e-004
2.777037e+003,-1.155370e-003
2.778965e+003,-1.189009e-003
2.780894e+003,-1.068979e-003
2.782822e+003,-1.058435e-003
2.784750e+003,-1.098130e-003
2.786679e+003,-9.896456e-004
2.788608e+003,-9.420055e-004
2.790536e+003,-9.732482e-004
2.792465e+003,-9.859100e-004
2.794393e+003,-1.096280e-003
2.796322e+003,-1.198262e-003
2.798250e+003,-1.204507e-003
2.800178e+003,-1.109863e-003
2.802107e+003,-9.837281e-004
2.804036e+003,-9.598918e-004
2.805964e+003,-8.703868e-004
2.807893e+003,-9.186629e-004
2.809821e+003,-1.081935e-003
2.811750e+003,-1.092413e-003
2.813678e+003,-1.040355e-003
2.815606e+003,-1.090562e-003
2.817535e+003,-1.112540e-003
2.819464e+003,-1.122818e-003
2.821392e+003,-1.100246e-003
2.823321e+003,-1.066434e-003
2.825249e+003,-1.148629e-003
2.827177e+003,-1.112540e-003
2.829106e+003,-1.028488e-003
2.831034e+003,-1.049015e-003
2.832963e+003,-1.045842e-003
2.834892e+003,-1.018571e-003
2.836820e+003,-1.057609e-003
2.838749e+003,-1.008654e-003
2.840677e+003,-1.015464e-003
2.842605e+003,-1.118654e-003
2.844534e+003,-1.135410e-003
2.846462e+003,-1.051924e-003
2.848391e+003,-9.337729e-004
2.850320e+003,-9.340044e-004
2.852248e+003,-9.871993e-004
2.854177e+003,-1.036950e-003
2.856105e+003,-1.181475e-003
2.858033e+003,-1.232955e-003
2.859962e+003,-1.127941e-003
2.861890e+003,-1.094164e-003
2.863819e+003,-1.013282e-003
2.865748e+003,-8.974684e-004
2.867676e+003,-9.633963e-004
2.869604e+003,-1.091025e-003
2.871533e+003,-1.158443e-003
2.873461e+003,-1.171661e-003
2.875390e+003,-1.142515e-003
2.877319e+003,-1.122686e-003
2.879247e+003,-1.024918e-003
2.881176e+003,-1.035033e-003
2.883104e+003,-1.085439e-003
2.885032e+003,-1.151272e-003
2.886961e+003,-1.129891e-003
2.888889e+003,-1.104146e-003
2.890818e+003,-1.085241e-003
2.892747e+003,-1.159236e-003
2.894675e+003,-1.142812e-003
2.896604e+003,-1.074168e-003
2.898532e+003,-1.109764e-003
2.900460e+003,-1.191091e-003
2.902389e+003,-1.133757e-003
2.904317e+003,-1.124206e-003
2.906246e+003,-1.191752e-003
2.908175e+003,-1.196213e-003
2.910103e+003,-1.173314e-003
2.912031e+003,-1.163929e-003
2.913960e+003,-1.072747e-003
2.915888e+003,-1.029083e-003
2.917817e+003,-1.067888e-003
2.919745e+003,-1.175230e-003
2.921674e+003,-1.166110e-003
2.923603e+003,-1.295264e-003
2.925531e+003,-1.408660e-003
2.927459e+003,-1.397265e-003
2.929388e+003,-1.328100e-003
2.931316e+003,-1.237349e-003
2.933245e+003,-1.232889e-003
2.935173e+003,-1.222481e-003
2.937102e+003,-1.137062e-003
2.939031e+003,-1.148331e-003
2.940959e+003,-1.149223e-003
2.942887e+003,-1.185309e-003
2.944816e+003,-1.202921e-003
2.946744e+003,-1.197634e-003
2.948673e+003,-1.186796e-003
2.950601e+003,-1.212734e-003
2.952530e+003,-1.159699e-003
2.954458e+003,-1.200475e-003
2.956387e+003,-1.299691e-003
2.958315e+003,-1.304977e-003
2.960244e+003,-1.284329e-003
2.962172e+003,-1.275178e-003
2.964101e+003,-1.170273e-003
2.966029e+003,-1.137426e-003
2.967958e+003,-1.154907e-003
2.969886e+003,-1.182929e-003
2.971815e+003,-1.179790e-003
2.973743e+003,-1.152561e-003
2.975672e+003,-1.153486e-003
2.977600e+003,-1.087554e-003
2.979529e+003,-1.009480e-003
2.981457e+003,-1.073970e-003
2.983386e+003,-1.049015e-003
2.985314e+003,-1.080646e-003
2.987243e+003,-1.175065e-003
2.989171e+003,-1.148992e-003
2.991100e+003,-1.080085e-003
2.993028e+003,-1.208901e-003
2.994957e+003,-1.244717e-003
2.996885e+003,-1.233054e-003
2.998814e+003,-1.192314e-003
3.000742e+003,-1.176420e-003
3.002671e+003,-1.178039e-003
3.004599e+003,-1.153552e-003
3.006528e+003,-1.173380e-003
3.008456e+003,-1.266159e-003
3.010385e+003,-1.357036e-003
3.012313e+003,-1.253043e-003
3.014242e+003,-1.144564e-003
3.016170e+003,-1.188283e-003
3.018099e+003,-1.195387e-003
3.020027e+003,-1.044949e-003
3.021956e+003,-1.003365e-003
3.023884e+003,-1.152264e-003
3.025813e+003,-1.264606e-003
3.027741e+003,-1.338968e-003
3.029670e+003,-1.194131e-003
3.031598e+003,-9.596604e-004
3.033527e+003,-9.817114e-004
3.035455e+003,-1.012621e-003
3.037384e+003,-1.056815e-003
3.039312e+003,-1.193933e-003
3.041241e+003,-1.191554e-003
3.043169e+003,-1.137029e-003
3.045098e+003,-1.042206e-003
3.047026e+003,-1.050734e-003
3.048955e+003,-1.063129e-003
3.050883e+003,-1.111218e-003
3.052812e+003,-1.210851e-003
3.054740e+003,-1.198625e-003
3.056669e+003,-1.058005e-003
3.058597e+003,-1.010241e-003
3.060526e+003,-1.140367e-003
3.062454e+003,-1.174569e-003
3.064383e+003,-1.067260e-003
3.066311e+003,-1.079952e-003
3.068240e+003,-1.107913e-003
3.070168e+003,-1.191190e-003
3.072097e+003,-1.235995e-003
3.074025e+003,-1.151933e-003
3.075954e+003,-1.049973e-003
3.077882e+003,-1.073871e-003
3.079811e+003,-1.173677e-003
3.081739e+003,-1.191719e-003
3.083668e+003,-1.109334e-003
3.085596e+003,-1.070004e-003
3.087525e+003,-1.238638e-003
3.089453e+003,-1.228065e-003
3.091382e+003,-1.126553e-003
3.093310e+003,-1.118324e-003
3.095239e+003,-1.101402e-003
3.097167e+003,-1.172917e-003
3.099096e+003,-1.224331e-003
3.101024e+003,-1.301772e-003
3.102953e+003,-1.292787e-003
3.104881e+003,-1.262756e-003
3.106810e+003,-1.290012e-003
3.108738e+003,-1.217360e-003
3.110667e+003,-1.150909e-003
3.112595e+003,-1.219574e-003
3.114524e+003,-1.189604e-003
3.116452e+003,-1.091157e-003
3.118381e+003,-1.128337e-003
3.120309e+003,-1.213758e-003
3.122238e+003,-1.191554e-003
3.124166e+003,-1.203119e-003
3.126095e+003,-1.242570e-003
3.128023e+003,-1.252118e-003
3.129952e+003,-1.171265e-003
3.131880e+003,-1.219838e-003
3.133809e+003,-1.253803e-003
3.135737e+003,-1.333418e-003
3.137666e+003,-1.219375e-003
3.139594e+003,-1.140697e-003
3.141523e+003,-1.153652e-003
3.143451e+003,-1.080547e-003
3.145380e+003,-1.090694e-003
3.147308e+003,-1.116308e-003
3.149237e+003,-1.168126e-003
3.151165e+003,-1.288095e-003
3.153094e+003,-1.310791e-003
3.155022e+003,-1.247294e-003
3.156951e+003,-1.225257e-003
3.158879e+003,-1.212007e-003
3.160808e+003,-1.142019e-003
3.162736e+003,-1.255686e-003
3.164665e+003,-1.344880e-003
3.166593e+003,-1.284098e-003
3.168522e+003,-1.216501e-003
3.170450e+003,-1.196973e-003
3.172379e+003,-1.059625e-003
3.174307e+003,-1.069574e-003
3.176236e+003,-1.130717e-003
3.178164e+003,-1.136203e-003
3.180093e+003,-1.200641e-003
3.182021e+003,-1.347226e-003
3.183950e+003,-1.352775e-003
3.185878e+003,-1.203681e-003
3.187807e+003,-1.125462e-003
3.189735e+003,-1.208339e-003
3.191664e+003,-1.270784e-003
3.193592e+003,-1.348778e-003
3.195521e+003,-1.315647e-003
3.197449e+003,-1.187523e-003
3.199378e+003,-1.130981e-003
3.201306e+003,-1.217525e-003
3.203235e+003,-1.334607e-003
3.205163e+003,-1.193602e-003
3.207092e+003,-1.115482e-003
3.209020e+003,-1.117101e-003
3.210948e+003,-9.992986e-004
3.212877e+003,-1.057245e-003
3.214806e+003,-1.108409e-003
3.216734e+003,-1.174140e-003
3.218663e+003,-1.338142e-003
3.220591e+003,-1.357102e-003
3.222520e+003,-1.242669e-003
3.224448e+003,-1.158608e-003
3.226376e+003,-9.935135e-004
3.228305e+003,-8.806707e-004
3.230234e+003,-9.653138e-004
3.232162e+003,-1.117035e-003
3.234091e+003,-1.189076e-003
3.236019e+003,-1.213857e-003
3.237948e+003,-1.146480e-003
3.239876e+003,-1.075061e-003
3.241804e+003,-1.033215e-003
3.243733e+003,-1.150281e-003
3.245662e+003,-1.195684e-003
3.247590e+003,-1.217888e-003
3.249519e+003,-1.221127e-003
3.251447e+003,-1.270685e-003
3.253375e+003,-1.328100e-003
3.255304e+003,-1.352973e-003
3.257232e+003,-1.198460e-003
3.259161e+003,-1.096015e-003
3.261090e+003,-1.134617e-003
3.263018e+003,-1.138681e-003
3.264947e+003,-1.225719e-003
3.266875e+003,-1.268373e-003
3.268803e+003,-1.152363e-003
3.270732e+003,-1.131907e-003
3.272660e+003,-1.120968e-003
3.274589e+003,-1.143275e-003
3.276518e+003,-1.253505e-003
3.278446e+003,-1.278284e-003
3.280375e+003,-1.327836e-003
3.282303e+003,-1.231204e-003
3.284231e+003,-1.177510e-003
3.286160e+003,-1.245081e-003
3.288088e+003,-1.198460e-003
3.290017e+003,-1.280662e-003
3.291946e+003,-1.390891e-003
3.293874e+003,-1.417115e-003
3.295802e+003,-1.282413e-003
3.297731e+003,-1.128007e-003
3.299659e+003,-1.134022e-003
3.301588e+003,-1.100113e-003
3.303516e+003,-1.137756e-003
3.305445e+003,-1.118588e-003
3.307374e+003,-1.148034e-003
3.309302e+003,-1.237911e-003
3.311230e+003,-1.247559e-003
3.313159e+003,-1.171727e-003
3.315087e+003,-1.140862e-003
3.317016e+003,-1.273328e-003
3.318944e+003,-1.338010e-003
3.320873e+003,-1.081010e-003
3.322802e+003,-1.085736e-003
3.324730e+003,-1.409419e-003
3.326658e+003,-1.399247e-003
3.328587e+003,-1.206159e-003
3.330515e+003,-1.076912e-003
3.332444e+003,-1.046404e-003
3.334372e+003,-1.090595e-003
3.336301e+003,-1.073243e-003
3.338229e+003,-9.814801e-004
3.340158e+003,-9.891829e-004
3.342086e+003,-1.114193e-003
3.344015e+003,-1.112078e-003
3.345943e+003,-1.075259e-003
3.347872e+003,-1.171893e-003
3.349800e+003,-1.074135e-003
3.351729e+003,-1.058633e-003
3.353657e+003,-1.173181e-003
3.355586e+003,-1.222878e-003
3.357514e+003,-1.257536e-003
3.359443e+003,-1.123281e-003
3.361371e+003,-9.828686e-004
3.363300e+003,-1.005018e-003
3.365229e+003,-1.018240e-003
3.367157e+003,-1.082762e-003
3.369085e+003,-1.281488e-003
3.371014e+003,-1.289780e-003
3.372942e+003,-1.160162e-003
3.374871e+003,-1.154577e-003
3.376799e+003,-1.087753e-003
3.378728e+003,-1.184284e-003
3.380656e+003,-1.294438e-003
3.382585e+003,-1.360868e-003
3.384513e+003,-1.275641e-003
3.386442e+003,-1.217988e-003
3.388370e+003,-1.008026e-003
3.390299e+003,-9.840918e-004
3.392227e+003,-1.013910e-003
3.394156e+003,-9.961912e-004
3.396084e+003,-1.172454e-003
3.398013e+003,-1.178865e-003
3.399941e+003,-9.820751e-004
3.401870e+003,-1.023397e-003
3.403798e+003,-9.991333e-004
3.405727e+003,-1.037446e-003
3.407655e+003,-9.847198e-004
3.409584e+003,-8.909213e-004
3.411512e+003,-9.478906e-004
3.413441e+003,-9.652477e-004
3.415369e+003,-9.742400e-004
3.417298e+003,-9.758269e-004
3.419226e+003,-1.072747e-003
3.421155e+003,-1.113234e-003
3.423083e+003,-1.076151e-003
3.425012e+003,-1.126288e-003
3.426940e+003,-1.222316e-003
3.428869e+003,-1.191091e-003
3.430797e+003,-1.022439e-003
3.432726e+003,-9.940754e-004
3.434654e+003,-1.031165e-003
3.436583e+003,-1.160360e-003
3.438511e+003,-1.068186e-003
3.440440e+003,-8.779923e-004
3.442368e+003,-8.883422e-004
3.444297e+003,-9.600902e-004
3.446225e+003,-9.464028e-004
3.448154e+003,-1.077903e-003
3.450082e+003,-1.069739e-003
3.452011e+003,-1.082332e-003
3.453939e+003,-1.160525e-003
3.455868e+003,-1.177345e-003
3.457796e+003,-1.080018e-003
3.459725e+003,-9.567841e-004
3.461653e+003,-8.754131e-004
3.463582e+003,-9.183984e-004
3.465510e+003,-9.922573e-004
3.467439e+003,-1.060022e-003
3.469367e+003,-1.118126e-003
3.471296e+003,-1.121728e-003
3.473224e+003,-1.058700e-003
3.475153e+003,-1.176420e-003
3.477081e+003,-1.170736e-003
3.479010e+003,-1.038437e-003
3.480938e+003,-9.161832e-004
3.482867e+003,-8.746856e-004
3.484795e+003,-7.808633e-004
3.486724e+003,-7.932992e-004
3.488652e+003,-8.754461e-004
3.490581e+003,-1.130717e-003
3.492509e+003,-1.235499e-003
3.494438e+003,-9.701406e-004
3.496366e+003,-6.347817e-004
3.498295e+003,-7.611504e-004
3.500223e+003,-7.856591e-004
3.502152e+003,-6.959196e-004
3.504080e+003,-7.644250e-004
3.506009e+003,-8.548447e-004
3.507937e+003,-7.851299e-004
3.509866e+003,-7.507314e-004
3.511794e+003,-8.451223e-004
3.513723e+003,-8.939634e-004
3.515651e+003,-8.633102e-004
3.517580e+003,-8.259746e-004
3.519508e+003,-8.575233e-004
3.521437e+003,-8.962780e-004
3.523365e+003,-8.551423e-004
3.525294e+003,-7.745791e-004
3.527222e+003,-7.619443e-004
3.529151e+003,-8.251809e-004
3.531079e+003,-8.708498e-004
3.533008e+003,-1.012455e-003
3.534936e+003,-1.055427e-003
3.536865e+003,-9.582388e-004
3.538793e+003,-7.988224e-004
3.540722e+003,-5.784662e-004
3.542650e+003,-5.677781e-004
3.544579e+003,-5.850511e-004
3.546507e+003,-6.911228e-004
3.548436e+003,-8.445602e-004
3.550364e+003,-8.316297e-004
3.552293e+003,-7.663103e-004
3.554221e+003,-8.059992e-004
3.556150e+003,-8.272644e-004
3.558078e+003,-6.955558e-004
3.560007e+003,-7.348873e-004
3.561935e+003,-6.729278e-004
3.563864e+003,-6.730270e-004
3.565792e+003,-5.146642e-004
3.567721e+003,-3.791529e-004
3.569649e+003,-5.093359e-004
3.571578e+003,-7.892311e-004
3.573506e+003,-7.988886e-004
3.575435e+003,-5.630130e-004
3.577363e+003,-5.219450e-004
3.579292e+003,-5.547070e-004
3.581220e+003,-7.396505e-004
3.583149e+003,-8.467428e-004
3.585077e+003,-5.402788e-004
3.587006e+003,-2.494608e-004
3.588934e+003,-2.530041e-004
3.590863e+003,-6.124814e-004
3.592791e+003,-7.997153e-004
3.594720e+003,-7.216559e-004
3.596648e+003,-5.823047e-004
3.598577e+003,-4.737240e-004
3.600505e+003,-3.015807e-004
3.602434e+003,-3.859063e-004
3.604362e+003,-3.898127e-004
3.606291e+003,-3.975921e-004
3.608219e+003,-4.158319e-004
3.610148e+003,-4.480061e-004
3.612076e+003,-4.839511e-004
3.614005e+003,-5.286961e-004
3.615933e+003,-4.611466e-004
3.617862e+003,-1.681227e-004
3.619790e+003,-6.304950e-005
3.621719e+003,-4.089465e-004
3.623647e+003,-5.531517e-004
3.625576e+003,-3.473708e-004
3.627504e+003,3.227792e-004
3.629433e+003,3.063328e-004
3.631361e+003,-3.175068e-004
3.633290e+003,-3.628649e-004
3.635218e+003,-3.277376e-004
3.637146e+003,-3.127390e-004
3.639075e+003,-3.886209e-004
3.641004e+003,-3.756107e-004
3.642932e+003,-3.678970e-004
3.644861e+003,-3.243274e-004
3.646789e+003,1.145263e-004
3.648718e+003,2.915780e-004
3.650646e+003,-6.348018e-005
3.652574e+003,-3.283005e-004
3.654503e+003,-2.014414e-004
3.656432e+003,-1.396707e-004
3.658360e+003,-4.196717e-004
3.660289e+003,-4.986791e-004
3.662217e+003,-4.726317e-004
3.664146e+003,-4.089134e-004
3.666074e+003,-3.257842e-004
3.668002e+003,-5.817948e-005
3.669931e+003,1.781320e-004
3.671860e+003,-2.151523e-004
3.673788e+003,-1.454672e-004
3.675717e+003,6.991845e-005
3.677645e+003,-1.184380e-004
3.679573e+003,-2.544943e-004
3.681502e+003,-2.558188e-004
3.683430e+003,-2.662829e-004
3.685359e+003,-2.978391e-004
3.687288e+003,2.499357e-004
3.689216e+003,5.251938e-004
3.691145e+003,1.818777e-004
3.693073e+003,-1.464278e-004
3.695001e+003,-4.397973e-004
3.696930e+003,-3.768025e-004
3.698858e+003,-3.080373e-004
3.700787e+003,-1.518268e-004
3.702716e+003,-2.219975e-006
3.704644e+003,-1.040396e-005
3.706573e+003,-1.195643e-004
3.708501e+003,-9.385859e-005
3.710429e+003,3.036471e-004
3.712358e+003,2.800398e-004
3.714286e+003,-2.389632e-004
3.716215e+003,-6.344508e-004
3.718144e+003,-5.130094e-004
3.720072e+003,-1.390413e-004
3.722000e+003,1.214864e-004
3.723929e+003,8.711813e-005
3.725857e+003,8.506341e-005
3.727786e+003,-3.555137e-005
3.729714e+003,-1.658042e-004
3.731643e+003,-1.775948e-005
3.733572e+003,7.687778e-005
3.735500e+003,1.968939e-004
3.737428e+003,-9.829757e-005
3.739357e+003,-1.842524e-004
3.741285e+003,9.563537e-005
3.743214e+003,6.458648e-004
3.745142e+003,5.208148e-004
3.747071e+003,2.347850e-004
3.749000e+003,6.615609e-004
3.750928e+003,6.377682e-004
3.752856e+003,1.629838e-004
3.754785e+003,-2.430695e-004
3.756713e+003,-5.983595e-005
3.758642e+003,4.042541e-005
3.760570e+003,-1.685533e-004
3.762499e+003,-3.156527e-004
3.764427e+003,-1.456991e-004
3.766356e+003,-8.180024e-005
3.768284e+003,-2.988588e-005
3.770213e+003,-1.112830e-004
3.772141e+003,-2.919453e-004
3.774070e+003,-2.892632e-004
3.775998e+003,-3.801130e-004
3.777927e+003,-5.514309e-004
3.779855e+003,-4.022266e-004
3.781784e+003,-1.815366e-004
3.783712e+003,-3.313391e-006
3.785641e+003,-6.821763e-005
3.787569e+003,-1.269180e-004
3.789498e+003,-2.260810e-004
3.791426e+003,-3.482316e-004
3.793355e+003,-2.041240e-004
3.795283e+003,9.851867e-005
3.797212e+003,-2.120573e-006
3.799140e+003,-3.876665e-006
3.801069e+003,3.670483e-004
3.802997e+003,2.064410e-004
3.804926e+003,4.967077e-005
3.806854e+003,-6.550106e-005
3.808783e+003,-3.268106e-004
3.810711e+003,-2.577395e-004
3.812640e+003,-6.361269e-005
3.814568e+003,2.534168e-004
3.816497e+003,2.023967e-004
3.818425e+003,2.052145e-004
3.820354e+003,7.565786e-004
3.822282e+003,4.712228e-004
3.824211e+003,1.497917e-004
3.826139e+003,4.284443e-005
3.828068e+003,-5.808009e-005
3.829996e+003,7.230449e-005
3.831925e+003,2.227841e-004
3.833853e+003,3.960661e-004
3.835782e+003,6.233339e-004
3.837710e+003,6.008373e-004
3.839639e+003,3.986529e-004
3.841567e+003,3.679105e-004
3.843496e+003,3.427744e-004
3.845424e+003,2.434377e-004
3.847353e+003,-6.844953e-005
3.849281e+003,2.102532e-004
3.851210e+003,1.143768e-003
3.853138e+003,1.615070e-003
3.855067e+003,6.118200e-004
3.856995e+003,3.214121e-005
3.858924e+003,-9.277521e-007
3.860852e+003,2.551076e-004
3.862781e+003,4.981577e-004
3.864709e+003,6.837287e-004
3.866638e+003,5.916798e-004
3.868566e+003,6.374032e-004
3.870495e+003,5.845131e-004
3.872423e+003,3.063660e-004
3.874352e+003,2.940979e-004
3.876280e+003,5.434323e-005
3.878209e+003,8.221333e-005
3.880137e+003,2.763595e-004
3.882066e+003,1.895681e-004
3.883994e+003,3.099801e-004
3.885923e+003,5.522979e-004
3.887851e+003,4.419015e-004
3.889780e+003,6.240639e-004
3.891708e+003,2.506982e-004
3.893637e+003,-2.242264e-004
3.895565e+003,5.759078e-005
3.897494e+003,5.963249e-004
3.899422e+003,7.927924e-004
3.901351e+003,6.964724e-004
3.903279e+003,7.780542e-004
3.905208e+003,6.329567e-004
3.907136e+003,2.964852e-004
3.909065e+003,1.752481e-004
3.910993e+003,3.141220e-005
3.912922e+003,-5.751689e-005
3.914850e+003,1.505872e-004
3.916779e+003,2.026619e-004
3.918707e+003,3.111738e-004
3.920636e+003,3.655228e-004
3.922564e+003,5.831982e-005
3.924493e+003,2.786662e-005
3.926421e+003,1.042853e-004
3.928350e+003,2.740272e-005
3.930278e+003,3.330098e-005
3.932207e+003,2.642912e-004
3.934135e+003,5.122561e-004
3.936064e+003,6.686956e-004
3.937992e+003,6.221725e-004
3.939921e+003,3.431723e-004
3.941849e+003,3.911909e-004
3.943778e+003,4.693985e-004
3.945706e+003,2.822943e-004
3.947635e+003,3.323953e-004
3.949563e+003,4.544391e-004
3.951492e+003,3.800812e-004
3.953420e+003,3.020224e-004
3.955349e+003,4.420010e-004
3.957277e+003,3.266919e-004
3.959206e+003,1.900653e-004
3.961134e+003,3.189660e-004
3.963063e+003,3.581941e-004
3.964991e+003,2.584463e-006
3.966920e+003,-5.973657e-005
3.968848e+003,2.484107e-004
3.970777e+003,3.741119e-004
3.972705e+003,3.775608e-004
3.974634e+003,3.817393e-004
3.976562e+003,2.015680e-004
3.978491e+003,2.814323e-004
3.980419e+003,4.159651e-004
3.982348e+003,3.059017e-004
3.984276e+003,3.761016e-004
3.986205e+003,5.155734e-004
3.988133e+003,5.266866e-004
3.990062e+003,4.959351e-004
3.991990e+003,3.380656e-004
3.993919e+003,3.690712e-004
3.995847e+003,3.442997e-004
3.997776e+003,1.592714e-004
3.999704e+003,2.035238e-004
4.001633e+003,0.000000e+000
