3.991989e+002,7.011023e-003
4.011274e+002,3.621733e-003
4.030559e+002,-9.400369e-003
4.049844e+002,-1.011565e-002
4.069129e+002,-5.958975e-003
4.088414e+002,2.295470e-004
4.107699e+002,5.008417e-003
4.126984e+002,3.031385e-003
4.146269e+002,-1.891342e-003
4.165554e+002,-2.595608e-004
4.184839e+002,5.511350e-003
4.204124e+002,5.673394e-003
4.223409e+002,4.223590e-003
4.242694e+002,4.756466e-003
4.261979e+002,1.951766e-003
4.281264e+002,2.219579e-003
4.300549e+002,4.722399e-003
4.319834e+002,-1.703984e-003
4.339119e+002,-1.370578e-003
4.358404e+002,7.276147e-003
4.377689e+002,8.509609e-003
4.396974e+002,1.818786e-003
4.416259e+002,-9.698100e-004
4.435544e+002,3.161533e-003
4.454829e+002,7.958579e-003
4.474114e+002,1.072166e-002
4.493399e+002,5.585786e-003
4.512684e+002,-5.028161e-004
4.531969e+002,-4.083507e-004
4.551254e+002,2.359078e-003
4.570539e+002,3.112172e-003
4.589824e+002,1.705806e-003
4.609109e+002,3.338830e-003
4.628394e+002,6.426007e-003
4.647679e+002,4.952479e-003
4.666964e+002,2.647944e-003
4.686249e+002,7.120375e-004
4.705533e+002,4.645557e-004
4.724819e+002,2.834170e-003
4.744103e+002,3.934410e-003
4.763389e+002,2.906981e-003
4.782673e+002,3.268016e-003
4.801959e+002,4.213787e-003
4.821243e+002,3.626611e-003
4.840529e+002,1.252581e-003
4.859813e+002,1.320575e-003
4.879099e+002,-4.423129e-004
4.898383e+002,-1.846605e-003
4.917668e+002,-4.050735e-004
4.936953e+002,1.204202e-003
4.956238e+002,1.577224e-003
4.975523e+002,-2.036272e-004
4.994808e+002,-1.640611e-003
5.014093e+002,-7.904548e-004
5.033378e+002,-1.609746e-003
5.052663e+002,-2.993196e-003
5.071948e+002,-2.371082e-003
5.091233e+002,-2.362382e-003
5.110518e+002,-2.665620e-003
5.129803e+002,-3.594737e-003
5.149088e+002,-4.911022e-003
5.168373e+002,-3.799084e-003
5.187658e+002,-2.998033e-003
5.206943e+002,-2.897823e-003
5.226228e+002,-3.183420e-003
5.245513e+002,-3.909004e-003
5.264798e+002,-3.869597e-003
5.284083e+002,-2.254080e-003
5.303368e+002,-3.151644e-003
5.322653e+002,-3.644519e-003
5.341938e+002,-3.700011e-003
5.361223e+002,-3.654540e-003
5.380508e+002,-3.460841e-003
5.399792e+002,-1.982022e-003
5.419078e+002,-1.626053e-003
5.438363e+002,-1.574125e-003
5.457648e+002,-1.167960e-003
5.476932e+002,-2.035616e-003
5.496218e+002,-2.392369e-003
5.515503e+002,-1.637607e-003
5.534788e+002,-1.939801e-003
5.554072e+002,-1.107120e-003
5.573358e+002,-8.521992e-004
5.592643e+002,-4.890150e-004
5.611927e+002,-9.609167e-004
5.631212e+002,-1.022372e-003
5.650497e+002,-9.004773e-004
5.669783e+002,-1.484483e-004
5.689067e+002,7.007204e-004
5.708352e+002,6.020650e-004
5.727637e+002,-8.782899e-004
5.746923e+002,-2.045345e-003
5.766207e+002,-9.197541e-004
5.785492e+002,-6.943318e-004
5.804777e+002,-1.004478e-002
5.824063e+002,-1.157556e-002
5.843347e+002,-3.462550e-003
5.862632e+002,-5.978234e-004
5.881917e+002,-6.962835e-004
5.901202e+002,-2.527287e-003
5.920487e+002,-4.476191e-003
5.939772e+002,-4.163712e-003
5.959057e+002,-2.995894e-003
5.978342e+002,-2.098536e-003
5.997627e+002,-1.121695e-003
6.016912e+002,-1.886756e-003
6.036197e+002,-1.574257e-003
6.055482e+002,-5.892865e-004
6.074767e+002,9.984434e-005
6.094052e+002,-9.432236e-005
6.113337e+002,7.863419e-005
6.132622e+002,5.809962e-004
6.151907e+002,5.137157e-004
6.171192e+002,8.162616e-004
6.190477e+002,5.157061e-004
6.209762e+002,6.800451e-004
6.229047e+002,-1.588354e-003
6.248332e+002,-4.915149e-003
6.267617e+002,-5.583749e-003
6.286902e+002,-4.757933e-003
6.306187e+002,-3.817313e-003
6.325472e+002,-3.449796e-003
6.344756e+002,-3.316908e-003
6.364042e+002,-3.378656e-003
6.383326e+002,-3.324306e-003
6.402612e+002,-3.359751e-003
6.421896e+002,-2.259289e-003
6.441182e+002,-1.995413e-003
6.460466e+002,-2.451086e-003
6.479752e+002,-2.472007e-003
6.499036e+002,-2.434678e-003
6.518322e+002,-2.696344e-003
6.537606e+002,-2.468086e-003
6.556891e+002,-2.167447e-003
6.576177e+002,-2.221908e-003
6.595461e+002,-2.129333e-003
6.614746e+002,-2.371246e-003
6.634031e+002,-2.734046e-003
6.653317e+002,-2.448417e-003
6.672601e+002,-1.749065e-003
6.691886e+002,-1.594660e-003
6.711171e+002,-1.440893e-003
6.730457e+002,-1.109566e-003
6.749741e+002,-1.233847e-003
6.769026e+002,-1.147604e-003
6.788311e+002,-8.716764e-004
6.807596e+002,-9.588008e-004
6.826881e+002,-7.686586e-004
6.846166e+002,-3.338959e-004
6.865451e+002,-2.739983e-004
6.884736e+002,-5.116856e-004
6.904021e+002,-4.768683e-004
6.923306e+002,-2.447584e-004
6.942591e+002,-1.255930e-004
6.961876e+002,2.517260e-004
6.981161e+002,5.853426e-004
7.000446e+002,1.426655e-004
7.019731e+002,-4.613121e-004
7.039016e+002,-3.558794e-004
7.058301e+002,-4.021935e-004
7.077585e+002,-1.104443e-003
7.096871e+002,-1.131907e-003
7.116156e+002,-1.346565e-003
7.135441e+002,-2.100877e-003
7.154725e+002,-2.740006e-003
7.174011e+002,-2.909638e-003
7.193296e+002,-2.650603e-003
7.212581e+002,-2.314200e-003
7.231865e+002,-1.930004e-003
7.251151e+002,-1.791700e-003
7.270436e+002,-1.708373e-003
7.289720e+002,-1.831460e-003
7.309005e+002,-2.053029e-003
7.328290e+002,-1.931917e-003
7.347576e+002,-2.062460e-003
7.366860e+002,-2.509893e-003
7.386145e+002,-2.328438e-003
7.405430e+002,-1.525526e-003
7.424716e+002,-8.867881e-004
7.444000e+002,-7.633335e-004
7.463285e+002,-4.563803e-004
7.482570e+002,-4.258617e-004
7.501855e+002,-3.546876e-004
7.521140e+002,6.332222e-004
7.540425e+002,1.155960e-003
7.559710e+002,1.415571e-003
7.578995e+002,1.921712e-003
7.598280e+002,2.197266e-003
7.617565e+002,2.338657e-003
7.636850e+002,2.373970e-003
7.656135e+002,3.005594e-003
7.675420e+002,3.521309e-003
7.694705e+002,3.217074e-003
7.713990e+002,2.998955e-003
7.733275e+002,3.201719e-003
7.752560e+002,3.069625e-003
7.771844e+002,2.935935e-003
7.791130e+002,2.758003e-003
7.810415e+002,2.858150e-003
7.829700e+002,3.047101e-003
7.848984e+002,3.144011e-003
7.868270e+002,3.145112e-003
7.887555e+002,2.750600e-003
7.906840e+002,2.308943e-003
7.926124e+002,2.351583e-003
7.945410e+002,2.436841e-003
7.964695e+002,2.010648e-003
7.983979e+002,1.606489e-003
8.003264e+002,1.273317e-003
8.022549e+002,1.589329e-003
8.041835e+002,1.943246e-003
8.061119e+002,1.344372e-003
8.080404e+002,8.860792e-004
8.099689e+002,1.232511e-003
8.118975e+002,1.844041e-003
8.138259e+002,2.073500e-003
8.157545e+002,1.896652e-003
8.176830e+002,1.653949e-003
8.196115e+002,1.166758e-003
8.215399e+002,1.084438e-003
8.234684e+002,1.294818e-003
8.253970e+002,1.818886e-003
8.273254e+002,2.125173e-003
8.292539e+002,1.951866e-003
8.311824e+002,1.817056e-003
8.331110e+002,1.910563e-003
8.350394e+002,2.017838e-003
8.369679e+002,2.050562e-003
8.388964e+002,2.151512e-003
8.408250e+002,2.132066e-003
8.427534e+002,1.810535e-003
8.446819e+002,1.446055e-003
8.466104e+002,1.309275e-003
8.485389e+002,1.234605e-003
8.504674e+002,1.317019e-003
8.523959e+002,1.477904e-003
8.543244e+002,1.470889e-003
8.562529e+002,1.365079e-003
8.581814e+002,1.293821e-003
8.601099e+002,1.018574e-003
8.620384e+002,5.773798e-004
8.639669e+002,8.080953e-004
8.658954e+002,1.162970e-003
8.678239e+002,7.519318e-004
8.697524e+002,5.966567e-004
8.716809e+002,7.123030e-004
8.736094e+002,8.481645e-004
8.755378e+002,8.679182e-004
8.774664e+002,9.317007e-004
8.793949e+002,8.086929e-004
8.813234e+002,6.808415e-004
8.832518e+002,1.061087e-003
8.851804e+002,1.272719e-003
8.871089e+002,1.390806e-003
8.890374e+002,1.045776e-003
8.909658e+002,1.117557e-003
8.928943e+002,1.734048e-003
8.948229e+002,2.046401e-003
8.967513e+002,1.894123e-003
8.986798e+002,1.515143e-003
9.006083e+002,1.346798e-003
9.025369e+002,1.713856e-003
9.044653e+002,1.910796e-003
9.063938e+002,1.710529e-003
9.083223e+002,1.513613e-003
9.102509e+002,1.253146e-003
9.121793e+002,1.209983e-003
9.141078e+002,9.558416e-004
9.160364e+002,7.079222e-004
9.179648e+002,7.379916e-004
9.198933e+002,6.403564e-004
9.218218e+002,3.439018e-004
9.237504e+002,4.513091e-005
9.256788e+002,-1.867033e-004
9.276073e+002,-5.655610e-004
9.295358e+002,-9.418072e-004
9.314644e+002,-1.315911e-003
9.333928e+002,-1.682134e-003
9.353213e+002,-1.753553e-003
9.372498e+002,-1.707482e-003
9.391783e+002,-1.983242e-003
9.411068e+002,-2.066516e-003
9.430353e+002,-1.946036e-003
9.449637e+002,-2.137147e-003
9.468923e+002,-2.218447e-003
9.488208e+002,-2.379847e-003
9.507493e+002,-2.368676e-003
9.526777e+002,-2.543395e-003
9.546063e+002,-2.632622e-003
9.565348e+002,-2.551696e-003
9.584633e+002,-2.649879e-003
9.603917e+002,-2.863657e-003
9.623203e+002,-2.807004e-003
9.642488e+002,-2.632951e-003
9.661772e+002,-2.588423e-003
9.681057e+002,-2.533052e-003
9.700343e+002,-2.616583e-003
9.719628e+002,-2.546261e-003
9.738912e+002,-2.655642e-003
9.758197e+002,-2.801605e-003
9.777483e+002,-2.669276e-003
9.796768e+002,-2.494146e-003
9.816052e+002,-2.666608e-003
9.835337e+002,-2.823826e-003
9.854623e+002,-2.755810e-003
9.873907e+002,-2.666279e-003
9.893192e+002,-2.770329e-003
9.912477e+002,-2.869779e-003
9.931763e+002,-2.691405e-003
9.951047e+002,-2.735330e-003
9.970332e+002,-2.780700e-003
9.989617e+002,-2.605550e-003
1.000890e+003,-2.477575e-003
1.002819e+003,-2.312684e-003
1.004747e+003,-2.318419e-003
1.006676e+003,-2.122738e-003
1.008604e+003,-1.785727e-003
1.010533e+003,-1.549727e-003
1.012461e+003,-1.462985e-003
1.014390e+003,-1.404333e-003
1.016318e+003,-1.130618e-003
1.018247e+003,-7.593974e-004
1.020175e+003,-4.034845e-004
1.022104e+003,-1.975002e-004
1.024032e+003,-4.565631e-005
1.025961e+003,3.010276e-004
1.027889e+003,3.902623e-004
1.029818e+003,6.347817e-004
1.031746e+003,1.042288e-003
1.033675e+003,1.350986e-003
1.035603e+003,1.636920e-003
1.037532e+003,1.864073e-003
1.039460e+003,1.963848e-003
1.041389e+003,2.003724e-003
1.043317e+003,1.844940e-003
1.045246e+003,2.004890e-003
1.047174e+003,2.288124e-003
1.049103e+003,2.261011e-003
1.051031e+003,1.884506e-003
1.052960e+003,1.693432e-003
1.054888e+003,1.716717e-003
1.056817e+003,1.719777e-003
1.058745e+003,1.620857e-003
1.060674e+003,1.800187e-003
1.062602e+003,1.878516e-003
1.064531e+003,1.671378e-003
1.066459e+003,1.571072e-003
1.068388e+003,1.587633e-003
1.070316e+003,1.792402e-003
1.072245e+003,1.863574e-003
1.074173e+003,1.838218e-003
1.076102e+003,1.704242e-003
1.078030e+003,1.572003e-003
1.079959e+003,1.417233e-003
1.081887e+003,1.311169e-003
1.083816e+003,1.503472e-003
1.085744e+003,1.635956e-003
1.087673e+003,1.703178e-003
1.089601e+003,1.611578e-003
1.091530e+003,1.630768e-003
1.093458e+003,1.713324e-003
1.095387e+003,1.606257e-003
1.097315e+003,1.495393e-003
1.099244e+003,1.411249e-003
1.101172e+003,1.453070e-003
1.103101e+003,1.534594e-003
1.105029e+003,1.540380e-003
1.106958e+003,1.309109e-003
1.108886e+003,1.337292e-003
1.110815e+003,1.352149e-003
1.112743e+003,1.280562e-003
1.114672e+003,1.327621e-003
1.116600e+003,1.665857e-003
1.118529e+003,1.981789e-003
1.120457e+003,1.921246e-003
1.122386e+003,1.830299e-003
1.124314e+003,1.671378e-003
1.126243e+003,1.434519e-003
1.128171e+003,1.243909e-003
1.130100e+003,1.272719e-003
1.132028e+003,1.121244e-003
1.133957e+003,9.868580e-004
1.135885e+003,7.948505e-004
1.137814e+003,2.556049e-004
1.139742e+003,-3.915341e-004
1.141671e+003,-6.000404e-004
1.143599e+003,-7.809625e-004
1.145528e+003,-1.103815e-003
1.147456e+003,-1.571748e-003
1.149385e+003,-2.009496e-003
1.151313e+003,-2.363008e-003
1.153242e+003,-2.451086e-003
1.155170e+003,-2.351770e-003
1.157099e+003,-2.425320e-003
1.159027e+003,-2.643951e-003
1.160956e+003,-2.770626e-003
1.162884e+003,-2.912568e-003
1.164813e+003,-3.020145e-003
1.166741e+003,-3.011985e-003
1.168670e+003,-2.994249e-003
1.170598e+003,-2.843117e-003
1.172526e+003,-2.664731e-003
1.174455e+003,-2.693446e-003
1.176384e+003,-2.523202e-003
1.178312e+003,-2.397180e-003
1.180240e+003,-2.527847e-003
1.182169e+003,-2.522181e-003
1.184098e+003,-2.531503e-003
1.186026e+003,-2.599325e-003
1.187954e+003,-2.495200e-003
1.189883e+003,-2.432865e-003
1.191812e+003,-2.489764e-003
1.193740e+003,-2.544845e-003
1.195668e+003,-2.755283e-003
1.197597e+003,-2.911251e-003
1.199526e+003,-2.963810e-003
1.201454e+003,-2.831167e-003
1.203382e+003,-2.536972e-003
1.205311e+003,-2.577092e-003
1.207240e+003,-2.572415e-003
1.209168e+003,-2.338028e-003
1.211096e+003,-2.115517e-003
1.213025e+003,-1.978855e-003
1.214953e+003,-1.917931e-003
1.216882e+003,-2.034693e-003
1.218810e+003,-2.026283e-003
1.220739e+003,-1.947751e-003
1.222667e+003,-1.851620e-003
1.224596e+003,-1.718538e-003
1.226524e+003,-1.615589e-003
1.228453e+003,-1.483525e-003
1.230381e+003,-1.485704e-003
1.232310e+003,-1.415199e-003
1.234238e+003,-1.427088e-003
1.236167e+003,-1.506540e-003
1.238095e+003,-1.396836e-003
1.240024e+003,-1.239926e-003
1.241952e+003,-1.356441e-003
1.243881e+003,-1.795099e-003
1.245809e+003,-2.041783e-003
1.247738e+003,-2.125013e-003
1.249666e+003,-2.203612e-003
1.251595e+003,-2.444958e-003
1.253523e+003,-2.754262e-003
1.255452e+003,-2.935738e-003
1.257380e+003,-3.205720e-003
1.259309e+003,-3.371883e-003
1.261237e+003,-3.489241e-003
1.263166e+003,-3.564274e-003
1.265094e+003,-3.579489e-003
1.267023e+003,-3.578044e-003
1.268951e+003,-3.537818e-003
1.270880e+003,-3.579358e-003
1.272808e+003,-3.719788e-003
1.274737e+003,-3.859187e-003
1.276665e+003,-3.879285e-003
1.278594e+003,-3.934025e-003
1.280522e+003,-4.040792e-003
1.282451e+003,-4.174116e-003
1.284379e+003,-4.197711e-003
1.286308e+003,-4.255396e-003
1.288236e+003,-4.227342e-003
1.290165e+003,-4.164959e-003
1.292093e+003,-4.208014e-003
1.294022e+003,-4.278363e-003
1.295950e+003,-4.290765e-003
1.297879e+003,-4.199614e-003
1.299807e+003,-4.153408e-003
1.301736e+003,-4.224257e-003
1.303664e+003,-4.372974e-003
1.305593e+003,-4.509869e-003
1.307521e+003,-4.462056e-003
1.309450e+003,-4.460678e-003
1.311378e+003,-4.608003e-003
1.313307e+003,-4.794735e-003
1.315235e+003,-4.736270e-003
1.317164e+003,-4.550758e-003
1.319092e+003,-4.524363e-003
1.321021e+003,-4.541741e-003
1.322949e+003,-4.461400e-003
1.324878e+003,-4.352834e-003
1.326806e+003,-4.223338e-003
1.328735e+003,-4.009999e-003
1.330663e+003,-3.777208e-003
1.332592e+003,-3.673136e-003
1.334520e+003,-3.654901e-003
1.336449e+003,-3.679838e-003
1.338377e+003,-3.715123e-003
1.340306e+003,-3.727179e-003
1.342234e+003,-3.690943e-003
1.344163e+003,-3.671888e-003
1.346091e+003,-3.752999e-003
1.348020e+003,-3.778456e-003
1.349948e+003,-3.877840e-003
1.351877e+003,-4.042237e-003
1.353805e+003,-4.032749e-003
1.355734e+003,-3.997196e-003
1.357662e+003,-4.083629e-003
1.359591e+003,-4.170899e-003
1.361519e+003,-4.384816e-003
1.363448e+003,-4.605053e-003
1.365376e+003,-4.841201e-003
1.367305e+003,-5.164947e-003
1.369233e+003,-5.482955e-003
1.371162e+003,-5.669639e-003
1.373090e+003,-5.784546e-003
1.375019e+003,-5.968747e-003
1.376947e+003,-6.025414e-003
1.378876e+003,-6.124774e-003
1.380804e+003,-6.238027e-003
1.382733e+003,-6.345796e-003
1.384661e+003,-6.330220e-003
1.386590e+003,-6.420272e-003
1.388518e+003,-6.440546e-003
1.390447e+003,-6.574408e-003
1.392375e+003,-6.825374e-003
1.394304e+003,-6.965312e-003
1.396232e+003,-7.102989e-003
1.398161e+003,-7.165635e-003
1.400089e+003,-7.035411e-003
1.402018e+003,-7.007895e-003
1.403946e+003,-7.174141e-003
1.405875e+003,-7.167134e-003
1.407803e+003,-6.998211e-003
1.409732e+003,-6.918943e-003
1.411660e+003,-6.753968e-003
1.413589e+003,-6.531587e-003
1.415517e+003,-6.348344e-003
1.417446e+003,-6.210623e-003
1.419374e+003,-6.089097e-003
1.421303e+003,-5.759991e-003
1.423231e+003,-5.379291e-003
1.425160e+003,-4.941063e-003
1.427088e+003,-4.669372e-003
1.429017e+003,-4.477371e-003
1.430945e+003,-4.094691e-003
1.432874e+003,-3.539527e-003
1.434802e+003,-3.137401e-003
1.436731e+003,-2.982501e-003
1.438659e+003,-2.527484e-003
1.440588e+003,-2.079872e-003
1.442516e+003,-1.802259e-003
1.444445e+003,-1.552335e-003
1.446373e+003,-1.312178e-003
1.448302e+003,-1.193503e-003
1.450230e+003,-1.108773e-003
1.452159e+003,-1.038437e-003
1.454087e+003,-9.759591e-004
1.456016e+003,-1.108938e-003
1.457944e+003,-1.156031e-003
1.459873e+003,-1.173281e-003
1.461801e+003,-1.419129e-003
1.463730e+003,-1.845153e-003
1.465658e+003,-2.121287e-003
1.467587e+003,-2.415369e-003
1.469515e+003,-2.696542e-003
1.471444e+003,-3.109176e-003
1.473372e+003,-3.451769e-003
1.475301e+003,-3.600718e-003
1.477229e+003,-3.826180e-003
1.479158e+003,-4.111201e-003
1.481086e+003,-4.474452e-003
1.483015e+003,-4.814561e-003
1.484943e+003,-5.060781e-003
1.486872e+003,-5.187801e-003
1.488800e+003,-5.320380e-003
1.490729e+003,-5.313245e-003
1.492657e+003,-5.315241e-003
1.494586e+003,-5.551887e-003
1.496514e+003,-5.827572e-003
1.498443e+003,-5.859903e-003
1.500371e+003,-5.889879e-003
1.502300e+003,-5.867585e-003
1.504228e+003,-5.953877e-003
1.506157e+003,-6.177337e-003
1.508085e+003,-6.126506e-003
1.510014e+003,-6.018584e-003
1.511942e+003,-6.003617e-003
1.513871e+003,-5.943059e-003
1.515799e+003,-6.068905e-003
1.517728e+003,-6.049986e-003
1.519656e+003,-6.013519e-003
1.521585e+003,-6.083935e-003
1.523513e+003,-5.842838e-003
1.525442e+003,-5.692302e-003
1.527370e+003,-5.644881e-003
1.529299e+003,-5.418102e-003
1.531227e+003,-5.441172e-003
1.533156e+003,-5.499968e-003
1.535084e+003,-5.290005e-003
1.537013e+003,-5.233864e-003
1.538941e+003,-5.445785e-003
1.540870e+003,-5.350818e-003
1.542798e+003,-4.997176e-003
1.544727e+003,-4.802109e-003
1.546655e+003,-4.816724e-003
1.548584e+003,-4.816396e-003
1.550512e+003,-4.866005e-003
1.552441e+003,-4.943979e-003
1.554369e+003,-4.982469e-003
1.556298e+003,-5.060912e-003
1.558226e+003,-5.314914e-003
1.560155e+003,-4.946271e-003
1.562083e+003,-4.410236e-003
1.564012e+003,-4.182681e-003
1.565940e+003,-4.057665e-003
1.567869e+003,-3.949687e-003
1.569797e+003,-3.744918e-003
1.571726e+003,-3.528057e-003
1.573654e+003,-3.524573e-003
1.575583e+003,-3.560791e-003
1.577511e+003,-3.380300e-003
1.579440e+003,-3.094997e-003
1.581368e+003,-2.930340e-003
1.583297e+003,-3.018336e-003
1.585225e+003,-2.997013e-003
1.587154e+003,-2.944821e-003
1.589082e+003,-3.061735e-003
1.591010e+003,-3.134276e-003
1.592939e+003,-3.170657e-003
1.594868e+003,-3.150822e-003
1.596796e+003,-3.151743e-003
1.598724e+003,-3.188090e-003
1.600653e+003,-3.377374e-003
1.602582e+003,-3.506497e-003
1.604510e+003,-3.632066e-003
1.606438e+003,-3.801547e-003
1.608367e+003,-3.922959e-003
1.610296e+003,-4.107164e-003
1.612224e+003,-4.353982e-003
1.614152e+003,-4.607971e-003
1.616081e+003,-4.891659e-003
1.618010e+003,-5.026392e-003
1.619938e+003,-5.125196e-003
1.621866e+003,-5.285160e-003
1.623795e+003,-5.646287e-003
1.625724e+003,-5.731641e-003
1.627652e+003,-5.813971e-003
1.629580e+003,-5.953060e-003
1.631509e+003,-6.128858e-003
1.633438e+003,-6.274574e-003
1.635366e+003,-6.505834e-003
1.637294e+003,-6.503941e-003
1.639223e+003,-6.523982e-003
1.641151e+003,-6.683171e-003
1.643080e+003,-6.962769e-003
1.645008e+003,-7.327260e-003
1.646937e+003,-7.564408e-003
1.648865e+003,-7.615951e-003
1.650794e+003,-7.761624e-003
1.652722e+003,-8.164403e-003
1.654651e+003,-8.173605e-003
1.656579e+003,-8.049798e-003
1.658508e+003,-8.109055e-003
1.660436e+003,-8.216492e-003
1.662365e+003,-8.365441e-003
1.664293e+003,-8.273386e-003
1.666222e+003,-8.189766e-003
1.668150e+003,-8.216134e-003
1.670079e+003,-8.089900e-003
1.672007e+003,-7.955366e-003
1.673936e+003,-7.845717e-003
1.675864e+003,-7.747270e-003
1.677793e+003,-7.562813e-003
1.679721e+003,-7.389744e-003
1.681650e+003,-7.263595e-003
1.683578e+003,-7.203440e-003
1.685507e+003,-6.729109e-003
1.687435e+003,-6.393501e-003
1.689364e+003,-6.251385e-003
1.691292e+003,-6.014401e-003
1.693221e+003,-5.856602e-003
1.695149e+003,-5.943059e-003
1.697078e+003,-5.797788e-003
1.699006e+003,-5.825577e-003
1.700935e+003,-5.810571e-003
1.702863e+003,-5.448599e-003
1.704792e+003,-5.347807e-003
1.706720e+003,-5.359622e-003
1.708649e+003,-5.414928e-003
1.710577e+003,-5.489139e-003
1.712506e+003,-5.532782e-003
1.714434e+003,-5.656164e-003
1.716363e+003,-5.794616e-003
1.718291e+003,-5.771926e-003
1.720220e+003,-5.557874e-003
1.722148e+003,-5.569225e-003
1.724077e+003,-5.620121e-003
1.726005e+003,-5.647824e-003
1.727934e+003,-5.723597e-003
1.729862e+003,-5.783696e-003
1.731791e+003,-5.893409e-003
1.733719e+003,-6.084588e-003
1.735648e+003,-5.880857e-003
1.737576e+003,-5.733015e-003
1.739505e+003,-5.762247e-003
1.741433e+003,-5.733996e-003
1.743362e+003,-5.676703e-003
1.745290e+003,-5.595753e-003
1.747219e+003,-5.486325e-003
1.749147e+003,-5.368982e-003
1.751076e+003,-5.224501e-003
1.753004e+003,-5.070705e-003
1.754933e+003,-5.073063e-003
1.756861e+003,-5.075781e-003
1.758790e+003,-5.061338e-003
1.760718e+003,-5.094545e-003
1.762647e+003,-5.002580e-003
1.764575e+003,-4.961799e-003
1.766504e+003,-4.976671e-003
1.768432e+003,-4.968089e-003
1.770361e+003,-5.045323e-003
1.772289e+003,-5.084001e-003
1.774218e+003,-4.803977e-003
1.776146e+003,-4.717981e-003
1.778075e+003,-4.792540e-003
1.780003e+003,-4.821901e-003
1.781932e+003,-4.787428e-003
1.783860e+003,-4.844216e-003
1.785789e+003,-4.796538e-003
1.787717e+003,-4.634197e-003
1.789646e+003,-4.693956e-003
1.791574e+003,-4.797062e-003
1.793503e+003,-4.710934e-003
1.795431e+003,-4.536102e-003
1.797360e+003,-4.527675e-003
1.799288e+003,-4.540954e-003
1.801217e+003,-4.561087e-003
1.803145e+003,-4.596430e-003
1.805074e+003,-4.547119e-003
1.807002e+003,-4.579021e-003
1.808931e+003,-4.686220e-003
1.810859e+003,-4.659177e-003
1.812788e+003,-4.634722e-003
1.814716e+003,-4.669535e-003
1.816645e+003,-4.731648e-003
1.818573e+003,-4.697758e-003
1.820502e+003,-4.719685e-003
1.822430e+003,-4.750592e-003
1.824359e+003,-4.832518e-003
1.826287e+003,-4.811284e-003
1.828216e+003,-4.865284e-003
1.830144e+003,-4.949777e-003
1.832073e+003,-4.986760e-003
1.834001e+003,-4.976179e-003
1.835930e+003,-4.951415e-003
1.837858e+003,-4.989314e-003
1.839787e+003,-5.033794e-003
1.841715e+003,-5.085343e-003
1.843644e+003,-5.120088e-003
1.845572e+003,-5.131581e-003
1.847501e+003,-5.192253e-003
1.849429e+003,-5.102437e-003
1.851358e+003,-4.886384e-003
1.853286e+003,-4.847132e-003
1.855215e+003,-4.894215e-003
1.857143e+003,-4.925338e-003
1.859072e+003,-4.931497e-003
1.861000e+003,-4.892675e-003
1.862929e+003,-4.854963e-003
1.864857e+003,-4.864891e-003
1.866786e+003,-4.994948e-003
1.868714e+003,-4.999567e-003
1.870643e+003,-4.984860e-003
1.872571e+003,-5.009098e-003
1.874500e+003,-4.953413e-003
1.876428e+003,-4.857879e-003
1.878357e+003,-4.697496e-003
1.880285e+003,-4.655506e-003
1.882214e+003,-4.704379e-003
1.884142e+003,-4.671010e-003
1.886071e+003,-4.640196e-003
1.887999e+003,-4.688678e-003
1.889928e+003,-4.791459e-003
1.891856e+003,-4.799520e-003
1.893785e+003,-4.707230e-003
1.895713e+003,-4.718505e-003
1.897642e+003,-4.686482e-003
1.899570e+003,-4.554168e-003
1.901499e+003,-4.468549e-003
1.903427e+003,-4.506131e-003
1.905356e+003,-4.579447e-003
1.907284e+003,-4.573742e-003
1.909213e+003,-4.509639e-003
1.911141e+003,-4.556234e-003
1.913070e+003,-4.587054e-003
1.914998e+003,-4.499801e-003
1.916927e+003,-4.504786e-003
1.918855e+003,-4.474059e-003
1.920784e+003,-4.456973e-003
1.922712e+003,-4.565906e-003
1.924641e+003,-4.593775e-003
1.926569e+003,-4.479896e-003
1.928498e+003,-4.504622e-003
1.930426e+003,-4.578038e-003
1.932355e+003,-4.731779e-003
1.934283e+003,-4.831961e-003
1.936212e+003,-4.805550e-003
1.938140e+003,-4.762554e-003
1.940069e+003,-4.769797e-003
1.941997e+003,-4.814168e-003
1.943926e+003,-4.816920e-003
1.945854e+003,-4.791360e-003
1.947783e+003,-4.793687e-003
1.949711e+003,-4.873738e-003
1.951640e+003,-4.912561e-003
1.953568e+003,-4.879799e-003
1.955497e+003,-4.931333e-003
1.957425e+003,-5.030978e-003
1.959354e+003,-5.028882e-003
1.961282e+003,-5.008836e-003
1.963211e+003,-5.008869e-003
1.965139e+003,-5.080824e-003
1.967068e+003,-5.142387e-003
1.968996e+003,-5.226695e-003
1.970925e+003,-5.161968e-003
1.972853e+003,-5.020693e-003
1.974782e+003,-5.056163e-003
1.976710e+003,-5.115995e-003
1.978639e+003,-5.040345e-003
1.980567e+003,-5.001467e-003
1.982496e+003,-5.057605e-003
1.984424e+003,-5.010671e-003
1.986353e+003,-4.932447e-003
1.988281e+003,-4.964059e-003
1.990210e+003,-5.001041e-003
1.992138e+003,-4.926780e-003
1.994067e+003,-4.912496e-003
1.995995e+003,-4.979651e-003
1.997924e+003,-4.994293e-003
1.999852e+003,-4.907123e-003
2.001781e+003,-4.925666e-003
2.003709e+003,-4.911873e-003
2.005638e+003,-4.880880e-003
2.007566e+003,-4.796800e-003
2.009495e+003,-4.694840e-003
2.011423e+003,-4.750363e-003
2.013352e+003,-4.751313e-003
2.015280e+003,-4.697758e-003
2.017208e+003,-4.716080e-003
2.019137e+003,-4.768158e-003
2.021066e+003,-4.856864e-003
2.022994e+003,-4.910825e-003
2.024922e+003,-4.942144e-003
2.026851e+003,-4.848967e-003
2.028780e+003,-4.801650e-003
2.030708e+003,-4.861156e-003
2.032636e+003,-4.817183e-003
2.034565e+003,-4.800601e-003
2.036494e+003,-4.869445e-003
2.038422e+003,-4.827374e-003
2.040350e+003,-4.879635e-003
2.042279e+003,-4.971200e-003
2.044208e+003,-4.970742e-003
2.046136e+003,-4.964878e-003
2.048064e+003,-4.959080e-003
2.049993e+003,-4.960161e-003
2.051921e+003,-4.981715e-003
2.053850e+003,-5.017320e-003
2.055778e+003,-5.066545e-003
2.057707e+003,-5.104828e-003
2.059635e+003,-5.075650e-003
2.061564e+003,-5.025868e-003
2.063492e+003,-5.109838e-003
2.065421e+003,-5.091467e-003
2.067349e+003,-4.970021e-003
2.069278e+003,-5.006511e-003
2.071206e+003,-4.998650e-003
2.073135e+003,-4.938246e-003
2.075063e+003,-4.909285e-003
2.076992e+003,-4.911677e-003
2.078920e+003,-4.971724e-003
2.080849e+003,-4.993114e-003
2.082777e+003,-4.916427e-003
2.084706e+003,-4.922390e-003
2.086634e+003,-4.984925e-003
2.088563e+003,-5.001663e-003
2.090491e+003,-4.966843e-003
2.092420e+003,-4.922291e-003
2.094348e+003,-4.845068e-003
2.096277e+003,-4.839432e-003
2.098205e+003,-4.827210e-003
2.100134e+003,-4.757572e-003
2.102062e+003,-4.726699e-003
2.103991e+003,-4.756131e-003
2.105919e+003,-4.770059e-003
2.107848e+003,-4.704477e-003
2.109776e+003,-4.682090e-003
2.111705e+003,-4.784708e-003
2.113633e+003,-4.767142e-003
2.115562e+003,-4.583218e-003
2.117490e+003,-4.504392e-003
2.119419e+003,-4.498687e-003
2.121347e+003,-4.562267e-003
2.123276e+003,-4.543118e-003
2.125204e+003,-4.471927e-003
2.127133e+003,-4.504065e-003
2.129061e+003,-4.528298e-003
2.130990e+003,-4.472550e-003
2.132918e+003,-4.478388e-003
2.134847e+003,-4.472353e-003
2.136775e+003,-4.452611e-003
2.138704e+003,-4.463138e-003
2.140632e+003,-4.502065e-003
2.142561e+003,-4.598889e-003
2.144489e+003,-4.644688e-003
2.146418e+003,-4.595873e-003
2.148346e+003,-4.540495e-003
2.150275e+003,-4.479470e-003
2.152203e+003,-4.479109e-003
2.154132e+003,-4.550135e-003
2.156060e+003,-4.633214e-003
2.157989e+003,-4.625903e-003
2.159917e+003,-4.657800e-003
2.161846e+003,-4.735155e-003
2.163774e+003,-4.667962e-003
2.165703e+003,-4.549873e-003
2.167631e+003,-4.507541e-003
2.169560e+003,-4.524887e-003
2.171488e+003,-4.522624e-003
2.173417e+003,-4.601414e-003
2.175345e+003,-4.729879e-003
2.177274e+003,-4.743447e-003
2.179202e+003,-4.665372e-003
2.181131e+003,-4.706706e-003
2.183059e+003,-4.738925e-003
2.184988e+003,-4.651572e-003
2.186916e+003,-4.569447e-003
2.188845e+003,-4.658521e-003
2.190773e+003,-4.754918e-003
2.192702e+003,-4.758228e-003
2.194630e+003,-4.645835e-003
2.196559e+003,-4.499507e-003
2.198487e+003,-4.478191e-003
2.200416e+003,-4.542922e-003
2.202344e+003,-4.601709e-003
2.204273e+003,-4.576759e-003
2.206201e+003,-4.520100e-003
2.208130e+003,-4.487570e-003
2.210058e+003,-4.442214e-003
2.211987e+003,-4.434179e-003
2.213915e+003,-4.451102e-003
2.215844e+003,-4.384717e-003
2.217772e+003,-4.343780e-003
2.219701e+003,-4.315534e-003
2.221629e+003,-4.364052e-003
2.223558e+003,-4.453135e-003
2.225486e+003,-4.393115e-003
2.227415e+003,-4.370843e-003
2.229343e+003,-4.424143e-003
2.231272e+003,-4.429423e-003
2.233200e+003,-4.283120e-003
2.235129e+003,-4.178644e-003
2.237057e+003,-4.286106e-003
2.238986e+003,-4.315370e-003
2.240914e+003,-4.350570e-003
2.242843e+003,-4.341877e-003
2.244771e+003,-4.239876e-003
2.246700e+003,-4.251295e-003
2.248628e+003,-4.274885e-003
2.250557e+003,-4.409023e-003
2.252485e+003,-4.479273e-003
2.254414e+003,-4.474452e-003
2.256342e+003,-4.429456e-003
2.258271e+003,-4.477994e-003
2.260199e+003,-4.479929e-003
2.262128e+003,-4.402298e-003
2.264056e+003,-4.461597e-003
2.265985e+003,-4.492456e-003
2.267913e+003,-4.488750e-003
2.269842e+003,-4.543283e-003
2.271770e+003,-4.585677e-003
2.273699e+003,-4.569906e-003
2.275627e+003,-4.580660e-003
2.277556e+003,-4.573021e-003
2.279484e+003,-4.594430e-003
2.281413e+003,-4.592463e-003
2.283341e+003,-4.698872e-003
2.285270e+003,-4.758326e-003
2.287198e+003,-4.758785e-003
2.289127e+003,-4.775532e-003
2.291055e+003,-4.813185e-003
2.292984e+003,-4.883730e-003
2.294912e+003,-4.971462e-003
2.296841e+003,-4.986825e-003
2.298769e+003,-4.973264e-003
2.300698e+003,-4.949515e-003
2.302626e+003,-4.864138e-003
2.304555e+003,-4.941980e-003
2.306483e+003,-4.984401e-003
2.308412e+003,-5.006642e-003
2.310340e+003,-5.038445e-003
2.312269e+003,-5.008476e-003
2.314197e+003,-5.004677e-003
2.316125e+003,-4.903093e-003
2.318054e+003,-4.959080e-003
2.319983e+003,-5.052004e-003
2.321911e+003,-5.013389e-003
2.323840e+003,-4.973624e-003
2.325768e+003,-5.044602e-003
2.327697e+003,-5.045781e-003
2.329625e+003,-4.888743e-003
2.331553e+003,-4.853718e-003
2.333482e+003,-4.895198e-003
2.335411e+003,-4.950727e-003
2.337339e+003,-4.964059e-003
2.339268e+003,-4.989839e-003
2.341196e+003,-5.020497e-003
2.343125e+003,-4.911480e-003
2.345053e+003,-4.838613e-003
2.346981e+003,-4.786248e-003
2.348910e+003,-4.820099e-003
2.350839e+003,-4.953511e-003
2.352767e+003,-4.969923e-003
2.354696e+003,-4.897295e-003
2.356624e+003,-4.865972e-003
2.358552e+003,-4.974476e-003
2.360481e+003,-5.093792e-003
2.362409e+003,-5.149493e-003
2.364338e+003,-5.106760e-003
2.366267e+003,-5.053150e-003
2.368195e+003,-5.046404e-003
2.370124e+003,-5.043325e-003
2.372052e+003,-5.061338e-003
2.373980e+003,-4.949875e-003
2.375909e+003,-4.867545e-003
2.377838e+003,-4.828914e-003
2.379766e+003,-4.797423e-003
2.381695e+003,-4.791524e-003
2.383623e+003,-4.752853e-003
2.385552e+003,-4.745479e-003
2.387480e+003,-4.761505e-003
2.389408e+003,-4.658947e-003
2.391337e+003,-4.602955e-003
2.393266e+003,-4.679434e-003
2.395194e+003,-4.694939e-003
2.397123e+003,-4.628395e-003
2.399051e+003,-4.613347e-003
2.400979e+003,-4.711229e-003
2.402908e+003,-4.800831e-003
2.404836e+003,-4.688219e-003
2.406765e+003,-4.651572e-003
2.408694e+003,-4.781038e-003
2.410622e+003,-4.803092e-003
2.412551e+003,-4.768748e-003
2.414479e+003,-4.711393e-003
2.416407e+003,-4.637115e-003
2.418336e+003,-4.605512e-003
2.420264e+003,-4.613610e-003
2.422193e+003,-4.629444e-003
2.424122e+003,-4.546791e-003
2.426050e+003,-4.446937e-003
2.427979e+003,-4.501572e-003
2.429907e+003,-4.495867e-003
2.431835e+003,-4.467533e-003
2.433764e+003,-4.449757e-003
2.435692e+003,-4.399215e-003
2.437621e+003,-4.392557e-003
2.439550e+003,-4.447560e-003
2.441478e+003,-4.468090e-003
2.443406e+003,-4.448872e-003
2.445335e+003,-4.389933e-003
2.447263e+003,-4.342041e-003
2.449192e+003,-4.356475e-003
2.451121e+003,-4.429161e-003
2.453049e+003,-4.397477e-003
2.454978e+003,-4.319274e-003
2.456906e+003,-4.279249e-003
2.458834e+003,-4.265239e-003
2.460763e+003,-4.331511e-003
2.462691e+003,-4.488291e-003
2.464620e+003,-4.452873e-003
2.466549e+003,-4.343911e-003
2.468477e+003,-4.312352e-003
2.470406e+003,-4.333479e-003
2.472334e+003,-4.373598e-003
2.474262e+003,-4.379961e-003
2.476191e+003,-4.337579e-003
2.478119e+003,-4.294308e-003
2.480048e+003,-4.351062e-003
2.481977e+003,-4.295391e-003
2.483905e+003,-4.299787e-003
2.485833e+003,-4.392557e-003
2.487762e+003,-4.467434e-003
2.489690e+003,-4.508951e-003
2.491619e+003,-4.436901e-003
2.493547e+003,-4.352473e-003
2.495476e+003,-4.253099e-003
2.497405e+003,-4.235348e-003
2.499333e+003,-4.406825e-003
2.501261e+003,-4.489570e-003
2.503190e+003,-4.439722e-003
2.505118e+003,-4.441558e-003
2.507047e+003,-4.515246e-003
2.508975e+003,-4.541741e-003
2.510904e+003,-4.567710e-003
2.512833e+003,-4.543512e-003
2.514761e+003,-4.493964e-003
2.516689e+003,-4.478486e-003
2.518618e+003,-4.414959e-003
2.520546e+003,-4.382815e-003
2.522475e+003,-4.451561e-003
2.524403e+003,-4.510787e-003
2.526332e+003,-4.487176e-003
2.528260e+003,-4.385964e-003
2.530189e+003,-4.379699e-003
2.532117e+003,-4.446937e-003
2.534046e+003,-4.448479e-003
2.535974e+003,-4.392623e-003
2.537903e+003,-4.404299e-003
2.539831e+003,-4.349881e-003
2.541760e+003,-4.292143e-003
2.543688e+003,-4.209097e-003
2.545617e+003,-4.235610e-003
2.547545e+003,-4.273179e-003
2.549474e+003,-4.256282e-003
2.551402e+003,-4.263861e-003
2.553331e+003,-4.264878e-003
2.555259e+003,-4.189113e-003
2.557188e+003,-4.093936e-003
2.559116e+003,-4.136374e-003
2.561045e+003,-4.164041e-003
2.562973e+003,-4.196496e-003
2.564902e+003,-4.084122e-003
2.566830e+003,-3.926440e-003
2.568759e+003,-3.932909e-003
2.570687e+003,-3.991089e-003
2.572616e+003,-3.959537e-003
2.574544e+003,-3.883127e-003
2.576473e+003,-3.945747e-003
2.578401e+003,-4.008128e-003
2.580330e+003,-4.038034e-003
2.582258e+003,-4.065707e-003
2.584187e+003,-4.014332e-003
2.586115e+003,-4.007701e-003
2.588044e+003,-4.049754e-003
2.589972e+003,-4.027957e-003
2.591901e+003,-3.942102e-003
2.593829e+003,-3.966859e-003
2.595758e+003,-4.042794e-003
2.597686e+003,-4.027497e-003
2.599615e+003,-3.989710e-003
2.601543e+003,-3.870057e-003
2.603472e+003,-3.828020e-003
2.605400e+003,-3.901550e-003
2.607329e+003,-3.980681e-003
2.609257e+003,-3.921153e-003
2.611186e+003,-3.868711e-003
2.613114e+003,-3.867988e-003
2.615043e+003,-3.840861e-003
2.616971e+003,-3.889958e-003
2.618900e+003,-3.798000e-003
2.620828e+003,-3.659863e-003
2.622757e+003,-3.578044e-003
2.624685e+003,-3.618560e-003
2.626614e+003,-3.720280e-003
2.628542e+003,-3.647048e-003
2.630471e+003,-3.604070e-003
2.632399e+003,-3.636304e-003
2.634328e+003,-3.596282e-003
2.636256e+003,-3.519906e-003
2.638185e+003,-3.358995e-003
2.640113e+003,-3.331146e-003
2.642042e+003,-3.418928e-003
2.643970e+003,-3.233051e-003
2.645899e+003,-3.101576e-003
2.647827e+003,-3.163223e-003
2.649756e+003,-3.134638e-003
2.651684e+003,-3.065650e-003
2.653613e+003,-3.069466e-003
2.655541e+003,-2.989214e-003
2.657470e+003,-2.960749e-003
2.659398e+003,-2.918854e-003
2.661327e+003,-2.884130e-003
2.663255e+003,-2.920302e-003
2.665184e+003,-2.916320e-003
2.667112e+003,-2.774181e-003
2.669041e+003,-2.661668e-003
2.670969e+003,-2.685576e-003
2.672898e+003,-2.764502e-003
2.674826e+003,-2.749291e-003
2.676755e+003,-2.716299e-003
2.678683e+003,-2.686465e-003
2.680612e+003,-2.694599e-003
2.682540e+003,-2.664270e-003
2.684469e+003,-2.603870e-003
2.686397e+003,-2.468086e-003
2.688326e+003,-2.310278e-003
2.690254e+003,-2.204898e-003
2.692183e+003,-2.247356e-003
2.694111e+003,-2.283350e-003
2.696040e+003,-2.337105e-003
2.697968e+003,-2.285196e-003
2.699897e+003,-2.149115e-003
2.701825e+003,-2.100943e-003
2.703754e+003,-2.066318e-003
2.705682e+003,-2.009001e-003
2.707611e+003,-1.999634e-003
2.709539e+003,-1.899919e-003
2.711468e+003,-1.819120e-003
2.713396e+003,-1.779326e-003
2.715325e+003,-1.743587e-003
2.717253e+003,-1.724215e-003
2.719182e+003,-1.597598e-003
2.721110e+003,-1.496073e-003
2.723039e+003,-1.391717e-003
2.724967e+003,-1.281752e-003
2.726896e+003,-1.165845e-003
2.728824e+003,-1.066798e-003
2.730753e+003,-9.666362e-004
2.732681e+003,-9.237548e-004
2.734610e+003,-8.914173e-004
2.736538e+003,-8.878462e-004
2.738467e+003,-8.886398e-004
2.740395e+003,-7.806318e-004
2.742324e+003,-6.746480e-004
2.744252e+003,-5.291926e-004
2.746181e+003,-4.229819e-004
2.748109e+003,-3.725319e-004
2.750038e+003,-2.501562e-004
2.751966e+003,-1.962748e-004
2.753895e+003,-1.673940e-004
2.755823e+003,-1.759382e-005
2.757752e+003,1.859880e-004
2.759680e+003,2.914785e-004
2.761609e+003,4.776910e-004
2.763537e+003,7.650758e-004
2.765466e+003,9.665676e-004
2.767394e+003,1.285680e-003
2.769323e+003,1.670181e-003
2.771251e+003,2.058652e-003
2.773180e+003,2.396692e-003
2.775108e+003,2.773842e-003
2.777037e+003,3.214170e-003
2.778965e+003,3.634864e-003
2.780894e+003,4.170162e-003
2.782822e+003,4.746550e-003
2.784750e+003,5.244283e-003
2.786679e+003,5.791206e-003
2.788608e+003,6.347124e-003
2.790536e+003,6.912204e-003
2.792465e+003,7.416201e-003
2.794393e+003,7.902022e-003
2.796322e+003,8.394097e-003
2.798250e+003,8.735382e-003
2.800178e+003,8.985966e-003
2.802107e+003,9.301820e-003
2.804036e+003,9.593276e-003
2.805964e+003,9.737672e-003
2.807893e+003,9.871947e-003
2.809821e+003,9.910589e-003
2.811750e+003,9.861575e-003
2.813678e+003,9.671702e-003
2.815606e+003,9.417167e-003
2.817535e+003,9.103259e-003
2.819464e+003,8.819706e-003
2.821392e+003,8.576822e-003
2.823321e+003,8.260042e-003
2.825249e+003,7.941605e-003
2.827177e+003,7.528385e-003
2.829106e+003,6.976745e-003
2.831034e+003,6.503762e-003
2.832963e+003,6.160193e-003
2.834892e+003,5.927121e-003
2.836820e+003,5.420486e-003
2.838749e+003,4.784371e-003
2.840677e+003,4.258355e-003
2.842605e+003,3.916288e-003
2.844534e+003,3.456678e-003
2.846462e+003,2.835170e-003
2.848391e+003,2.272436e-003
2.850320e+003,1.866469e-003
2.852248e+003,1.755805e-003
2.854177e+003,1.785747e-003
2.856105e+003,1.757236e-003
2.858033e+003,1.764655e-003
2.859962e+003,1.884472e-003
2.861890e+003,1.887035e-003
2.863819e+003,1.871528e-003
2.865748e+003,2.001061e-003
2.867676e+003,2.183113e-003
2.869604e+003,2.388096e-003
2.871533e+003,2.409219e-003
2.873461e+003,2.401356e-003
2.875390e+003,2.444038e-003
2.877319e+003,2.548846e-003
2.879247e+003,2.721191e-003
2.881176e+003,2.799253e-003
2.883104e+003,2.760937e-003
2.885032e+003,2.867022e-003
2.886961e+003,2.826232e-003
2.888889e+003,2.690351e-003
2.890818e+003,2.590909e-003
2.892747e+003,2.454168e-003
2.894675e+003,2.269971e-003
2.896604e+003,2.261011e-003
2.898532e+003,2.237197e-003
2.900460e+003,2.123375e-003
2.902389e+003,1.982587e-003
2.904317e+003,1.852893e-003
2.906246e+003,1.958922e-003
2.908175e+003,1.932396e-003
2.910103e+003,1.766983e-003
2.912031e+003,1.643273e-003
2.913960e+003,1.516473e-003
2.915888e+003,1.312333e-003
2.917817e+003,1.255539e-003
2.919745e+003,1.466933e-003
2.921674e+003,1.708966e-003
2.923603e+003,1.954828e-003
2.925531e+003,2.080991e-003
2.927459e+003,2.213285e-003
2.929388e+003,2.361310e-003
2.931316e+003,2.492190e-003
2.933245e+003,2.602109e-003
2.935173e+003,2.664980e-003
2.937102e+003,2.590576e-003
2.939031e+003,2.605609e-003
2.940959e+003,2.444538e-003
2.942887e+003,2.179450e-003
2.944816e+003,1.955327e-003
2.946744e+003,1.634459e-003
2.948673e+003,1.190812e-003
2.950601e+003,6.774566e-004
2.952530e+003,2.159551e-004
2.954458e+003,-3.223739e-004
2.956387e+003,-8.779923e-004
2.958315e+003,-1.347027e-003
2.960244e+003,-1.900941e-003
2.962172e+003,-2.467691e-003
2.964101e+003,-2.874058e-003
2.966029e+003,-3.230485e-003
2.967958e+003,-3.620039e-003
2.969886e+003,-3.899547e-003
2.971815e+003,-4.104636e-003
2.973743e+003,-4.287024e-003
2.975672e+003,-4.476387e-003
2.977600e+003,-4.635869e-003
2.979529e+003,-4.679828e-003
2.981457e+003,-4.751444e-003
2.983386e+003,-4.905780e-003
2.985314e+003,-5.005823e-003
2.987243e+003,-4.944502e-003
2.989171e+003,-4.934445e-003
2.991100e+003,-5.142747e-003
2.993028e+003,-5.225975e-003
2.994957e+003,-5.195887e-003
2.996885e+003,-5.207412e-003
2.998814e+003,-5.166126e-003
3.000742e+003,-5.146185e-003
3.002671e+003,-5.152570e-003
3.004599e+003,-5.142780e-003
3.006528e+003,-5.097198e-003
3.008456e+003,-5.122904e-003
3.010385e+003,-5.165143e-003
3.012313e+003,-5.137508e-003
3.014242e+003,-5.135314e-003
3.016170e+003,-5.128831e-003
3.018099e+003,-4.998683e-003
3.020027e+003,-5.121758e-003
3.021956e+003,-5.222701e-003
3.023884e+003,-5.145498e-003
3.025813e+003,-5.090092e-003
3.027741e+003,-5.249414e-003
3.029670e+003,-5.307975e-003
3.031598e+003,-5.194774e-003
3.033527e+003,-5.164423e-003
3.035455e+003,-5.045061e-003
3.037384e+003,-4.903192e-003
3.039312e+003,-4.991280e-003
3.041241e+003,-5.093825e-003
3.043169e+003,-5.144123e-003
3.045098e+003,-5.105712e-003
3.047026e+003,-5.058227e-003
3.048955e+003,-5.060519e-003
3.050883e+003,-5.011293e-003
3.052812e+003,-4.979946e-003
3.054740e+003,-5.023018e-003
3.056669e+003,-4.965468e-003
3.058597e+003,-4.967728e-003
3.060526e+003,-5.042866e-003
3.062454e+003,-5.055148e-003
3.064383e+003,-4.985285e-003
3.066311e+003,-4.873738e-003
3.068240e+003,-4.772746e-003
3.070168e+003,-4.792278e-003
3.072097e+003,-4.923799e-003
3.074025e+003,-4.960620e-003
3.075954e+003,-4.946239e-003
3.077882e+003,-4.946599e-003
3.079811e+003,-4.868823e-003
3.081739e+003,-4.779169e-003
3.083668e+003,-4.735188e-003
3.085596e+003,-4.729551e-003
3.087525e+003,-4.764553e-003
3.089453e+003,-4.708050e-003
3.091382e+003,-4.644655e-003
3.093310e+003,-4.587873e-003
3.095239e+003,-4.522756e-003
3.097167e+003,-4.533183e-003
3.099096e+003,-4.465729e-003
3.101024e+003,-4.485569e-003
3.102953e+003,-4.567283e-003
3.104881e+003,-4.481536e-003
3.106810e+003,-4.359821e-003
3.108738e+003,-4.394755e-003
3.110667e+003,-4.413844e-003
3.112595e+003,-4.266355e-003
3.114524e+003,-4.189933e-003
3.116452e+003,-4.278986e-003
3.118381e+003,-4.229967e-003
3.120309e+003,-4.124067e-003
3.122238e+003,-4.033308e-003
3.124166e+003,-4.071419e-003
3.126095e+003,-4.145268e-003
3.128023e+003,-4.171982e-003
3.129952e+003,-4.183009e-003
3.131880e+003,-4.217005e-003
3.133809e+003,-4.126594e-003
3.135737e+003,-4.012822e-003
3.137666e+003,-3.854753e-003
3.139594e+003,-3.770409e-003
3.141523e+003,-3.710786e-003
3.143451e+003,-3.633478e-003
3.145380e+003,-3.618856e-003
3.147308e+003,-3.719623e-003
3.149237e+003,-3.697185e-003
3.151165e+003,-3.575579e-003
3.153094e+003,-3.428791e-003
3.155022e+003,-3.280440e-003
3.156951e+003,-3.359093e-003
3.158879e+003,-3.408409e-003
3.160808e+003,-3.293134e-003
3.162736e+003,-3.230420e-003
3.164665e+003,-3.254428e-003
3.166593e+003,-3.303393e-003
3.168522e+003,-3.364025e-003
3.170450e+003,-3.264557e-003
3.172379e+003,-3.077790e-003
3.174307e+003,-3.030708e-003
3.176236e+003,-3.075125e-003
3.178164e+003,-3.157927e-003
3.180093e+003,-3.200063e-003
3.182021e+003,-3.153388e-003
3.183950e+003,-3.126216e-003
3.185878e+003,-3.093681e-003
3.187807e+003,-2.955056e-003
3.189735e+003,-2.883275e-003
3.191664e+003,-3.032814e-003
3.193592e+003,-3.093154e-003
3.195521e+003,-3.114900e-003
3.197449e+003,-3.134835e-003
3.199378e+003,-3.122335e-003
3.201306e+003,-3.049101e-003
3.203235e+003,-2.971477e-003
3.205163e+003,-3.059793e-003
3.207092e+003,-3.227460e-003
3.209020e+003,-3.086476e-003
3.210948e+003,-2.911547e-003
3.212877e+003,-2.936297e-003
3.214806e+003,-2.989905e-003
3.216734e+003,-2.958445e-003
3.218663e+003,-2.851543e-003
3.220591e+003,-2.822016e-003
3.222520e+003,-2.790313e-003
3.224448e+003,-2.827875e-003
3.226376e+003,-2.826855e-003
3.228305e+003,-2.669835e-003
3.230234e+003,-2.549522e-003
3.232162e+003,-2.614475e-003
3.234091e+003,-2.600675e-003
3.236019e+003,-2.554134e-003
3.237948e+003,-2.588324e-003
3.239876e+003,-2.432767e-003
3.241804e+003,-2.037859e-003
3.243733e+003,-1.847858e-003
3.245662e+003,-1.967641e-003
3.247590e+003,-1.866202e-003
3.249519e+003,-1.743059e-003
3.251447e+003,-1.778501e-003
3.253375e+003,-1.844031e-003
3.255304e+003,-1.862573e-003
3.257232e+003,-1.672595e-003
3.259161e+003,-1.569470e-003
3.261090e+003,-1.523545e-003
3.263018e+003,-1.429136e-003
3.264947e+003,-1.577823e-003
3.266875e+003,-1.654837e-003
3.268803e+003,-1.438779e-003
3.270732e+003,-1.326746e-003
3.272660e+003,-1.324433e-003
3.274589e+003,-1.363246e-003
3.276518e+003,-1.409948e-003
3.278446e+003,-1.399974e-003
3.280375e+003,-1.298006e-003
3.282303e+003,-1.280861e-003
3.284231e+003,-1.315283e-003
3.286160e+003,-1.499870e-003
3.288088e+003,-1.547020e-003
3.290017e+003,-1.540912e-003
3.291946e+003,-1.481610e-003
3.293874e+003,-1.461169e-003
3.295802e+003,-1.649358e-003
3.297731e+003,-1.732234e-003
3.299659e+003,-1.768700e-003
3.301588e+003,-1.966289e-003
3.303516e+003,-2.132564e-003
3.305445e+003,-2.141993e-003
3.307374e+003,-2.175161e-003
3.309302e+003,-2.329327e-003
3.311230e+003,-2.362382e-003
3.313159e+003,-2.292052e-003
3.315087e+003,-2.397345e-003
3.317016e+003,-2.471941e-003
3.318944e+003,-2.603705e-003
3.320873e+003,-2.711656e-003
3.322802e+003,-2.783729e-003
3.324730e+003,-2.852103e-003
3.326658e+003,-2.901048e-003
3.328587e+003,-2.784519e-003
3.330515e+003,-2.842886e-003
3.332444e+003,-3.048837e-003
3.334372e+003,-3.041895e-003
3.336301e+003,-2.956602e-003
3.338229e+003,-2.950284e-003
3.340158e+003,-2.904932e-003
3.342086e+003,-2.775498e-003
3.344015e+003,-2.740730e-003
3.345943e+003,-2.753999e-003
3.347872e+003,-2.764403e-003
3.349800e+003,-2.755875e-003
3.351729e+003,-2.625212e-003
3.353657e+003,-2.609271e-003
3.355586e+003,-2.660713e-003
3.357514e+003,-2.646421e-003
3.359443e+003,-2.735396e-003
3.361371e+003,-2.855428e-003
3.363300e+003,-2.779778e-003
3.365229e+003,-2.763975e-003
3.367157e+003,-3.000370e-003
3.369085e+003,-3.306418e-003
3.371014e+003,-3.407324e-003
3.372942e+003,-3.377439e-003
3.374871e+003,-3.615308e-003
3.376799e+003,-3.716535e-003
3.378728e+003,-3.829925e-003
3.380656e+003,-4.020078e-003
3.382585e+003,-4.106802e-003
3.384513e+003,-4.145268e-003
3.386442e+003,-4.211033e-003
3.388370e+003,-4.363691e-003
3.390299e+003,-4.484717e-003
3.392227e+003,-4.488488e-003
3.394156e+003,-4.514558e-003
3.396084e+003,-4.568267e-003
3.398013e+003,-4.697135e-003
3.399941e+003,-4.894084e-003
3.401870e+003,-4.880716e-003
3.403798e+003,-4.813119e-003
3.405727e+003,-4.723258e-003
3.407655e+003,-4.605250e-003
3.409584e+003,-4.628100e-003
3.411512e+003,-4.787002e-003
3.413441e+003,-4.911677e-003
3.415369e+003,-4.880094e-003
3.417298e+003,-4.819116e-003
3.419226e+003,-4.924683e-003
3.421155e+003,-4.956689e-003
3.423083e+003,-4.856175e-003
3.425012e+003,-4.731648e-003
3.426940e+003,-4.753935e-003
3.428869e+003,-4.791524e-003
3.430797e+003,-4.734926e-003
3.432726e+003,-4.732992e-003
3.434654e+003,-4.769666e-003
3.436583e+003,-4.924683e-003
3.438511e+003,-5.006019e-003
3.440440e+003,-4.844609e-003
3.442368e+003,-4.853587e-003
3.444297e+003,-4.864432e-003
3.446225e+003,-4.838383e-003
3.448154e+003,-4.692186e-003
3.450082e+003,-4.683106e-003
3.452011e+003,-4.722274e-003
3.453939e+003,-4.805255e-003
3.455868e+003,-4.935985e-003
3.457796e+003,-4.859321e-003
3.459725e+003,-4.829602e-003
3.461653e+003,-4.854865e-003
3.463582e+003,-4.725880e-003
3.465510e+003,-4.747184e-003
3.467439e+003,-4.887007e-003
3.469367e+003,-4.969005e-003
3.471296e+003,-4.912300e-003
3.473224e+003,-4.788444e-003
3.475153e+003,-4.778711e-003
3.477081e+003,-4.705132e-003
3.479010e+003,-4.774122e-003
3.480938e+003,-4.950890e-003
3.482867e+003,-4.959965e-003
3.484795e+003,-4.772320e-003
3.486724e+003,-4.682811e-003
3.488652e+003,-4.703396e-003
3.490581e+003,-4.645310e-003
3.492509e+003,-4.524002e-003
3.494438e+003,-4.571612e-003
3.496366e+003,-4.672059e-003
3.498295e+003,-4.749445e-003
3.500223e+003,-4.705067e-003
3.502152e+003,-4.744037e-003
3.504080e+003,-4.744201e-003
3.506009e+003,-4.702150e-003
3.507937e+003,-4.747478e-003
3.509866e+003,-4.759277e-003
3.511794e+003,-4.652752e-003
3.513723e+003,-4.662455e-003
3.515651e+003,-4.648654e-003
3.517580e+003,-4.548791e-003
3.519508e+003,-4.544200e-003
3.521437e+003,-4.580038e-003
3.523365e+003,-4.580988e-003
3.525294e+003,-4.656062e-003
3.527222e+003,-4.674878e-003
3.529151e+003,-4.578923e-003
3.531079e+003,-4.609512e-003
3.533008e+003,-4.617970e-003
3.534936e+003,-4.576726e-003
3.536865e+003,-4.654522e-003
3.538793e+003,-4.771796e-003
3.540722e+003,-4.817543e-003
3.542650e+003,-4.829733e-003
3.544579e+003,-4.739973e-003
3.546507e+003,-4.474059e-003
3.548436e+003,-4.453135e-003
3.550364e+003,-4.566004e-003
3.552293e+003,-4.497965e-003
3.554221e+003,-4.287188e-003
3.556150e+003,-4.231082e-003
3.558078e+003,-4.377305e-003
3.560007e+003,-4.536364e-003
3.561935e+003,-4.685171e-003
3.563864e+003,-4.652031e-003
3.565792e+003,-4.589578e-003
3.567721e+003,-4.699757e-003
3.569649e+003,-4.741612e-003
3.571578e+003,-4.628198e-003
3.573506e+003,-4.516362e-003
3.575435e+003,-4.395443e-003
3.577363e+003,-4.363921e-003
3.579292e+003,-4.417419e-003
3.581220e+003,-4.323998e-003
3.583149e+003,-4.226062e-003
3.585077e+003,-4.317929e-003
3.587006e+003,-4.471993e-003
3.588934e+003,-4.506229e-003
3.590863e+003,-4.418337e-003
3.592791e+003,-4.288402e-003
3.594720e+003,-4.272917e-003
3.596648e+003,-4.353260e-003
3.598577e+003,-4.478551e-003
3.600505e+003,-4.292306e-003
3.602434e+003,-4.091966e-003
3.604362e+003,-4.255495e-003
3.606291e+003,-4.572005e-003
3.608219e+003,-4.580628e-003
3.610148e+003,-4.374614e-003
3.612076e+003,-4.370121e-003
3.614005e+003,-4.471435e-003
3.615933e+003,-4.450479e-003
3.617862e+003,-4.421519e-003
3.619790e+003,-4.467795e-003
3.621719e+003,-4.332298e-003
3.623647e+003,-4.287943e-003
3.625576e+003,-4.310810e-003
3.627504e+003,-4.472157e-003
3.629433e+003,-4.544791e-003
3.631361e+003,-4.440935e-003
3.633290e+003,-4.293750e-003
3.635218e+003,-4.213626e-003
3.637146e+003,-4.143562e-003
3.639075e+003,-4.211722e-003
3.641004e+003,-4.503343e-003
3.642932e+003,-4.562267e-003
3.644861e+003,-4.492325e-003
3.646789e+003,-4.579742e-003
3.648718e+003,-4.734074e-003
3.650646e+003,-4.642032e-003
3.652574e+003,-4.728141e-003
3.654503e+003,-4.686121e-003
3.656432e+003,-4.489373e-003
3.658360e+003,-4.389703e-003
3.660289e+003,-4.434999e-003
3.662217e+003,-4.591382e-003
3.664146e+003,-4.610889e-003
3.666074e+003,-4.680614e-003
3.668002e+003,-4.838285e-003
3.669931e+003,-4.961701e-003
3.671860e+003,-4.858403e-003
3.673788e+003,-4.960652e-003
3.675717e+003,-4.988037e-003
3.677645e+003,-4.874098e-003
3.679573e+003,-4.848410e-003
3.681502e+003,-4.786347e-003
3.683430e+003,-4.732173e-003
3.685359e+003,-4.826685e-003
3.687288e+003,-5.065890e-003
3.689216e+003,-4.962094e-003
3.691145e+003,-4.664159e-003
3.693073e+003,-4.652621e-003
3.695001e+003,-4.831044e-003
3.696930e+003,-4.751673e-003
3.698858e+003,-4.615413e-003
3.700787e+003,-4.586759e-003
3.702716e+003,-4.456612e-003
3.704644e+003,-4.448019e-003
3.706573e+003,-4.439131e-003
3.708501e+003,-4.564693e-003
3.710429e+003,-4.788804e-003
3.712358e+003,-4.723454e-003
3.714286e+003,-4.677074e-003
3.716215e+003,-4.668257e-003
3.718144e+003,-4.540922e-003
3.720072e+003,-4.631935e-003
3.722000e+003,-4.697364e-003
3.723929e+003,-4.605873e-003
3.725857e+003,-4.709394e-003
3.727786e+003,-4.942439e-003
3.729714e+003,-4.983648e-003
3.731643e+003,-4.901947e-003
3.733572e+003,-4.718505e-003
3.735500e+003,-4.638000e-003
3.737428e+003,-4.626264e-003
3.739357e+003,-4.607086e-003
3.741285e+003,-4.529445e-003
3.743214e+003,-4.534200e-003
3.745142e+003,-4.385505e-003
3.747071e+003,-4.315797e-003
3.749000e+003,-4.393180e-003
3.750928e+003,-4.384914e-003
3.752856e+003,-4.175527e-003
3.754785e+003,-3.944598e-003
3.756713e+003,-4.015744e-003
3.758642e+003,-4.198235e-003
3.760570e+003,-3.910547e-003
3.762499e+003,-3.961836e-003
3.764427e+003,-4.201550e-003
3.766356e+003,-4.040726e-003
3.768284e+003,-3.999756e-003
3.770213e+003,-3.864310e-003
3.772141e+003,-3.734833e-003
3.774070e+003,-3.790347e-003
3.775998e+003,-3.851995e-003
3.777927e+003,-3.961573e-003
3.779855e+003,-3.929559e-003
3.781784e+003,-3.823619e-003
3.783712e+003,-3.807229e-003
3.785641e+003,-3.745543e-003
3.787569e+003,-3.759766e-003
3.789498e+003,-3.965939e-003
3.791426e+003,-4.136735e-003
3.793355e+003,-4.114745e-003
3.795283e+003,-3.938819e-003
3.797212e+003,-3.787752e-003
3.799140e+003,-3.735031e-003
3.801069e+003,-3.749254e-003
3.802997e+003,-3.979269e-003
3.804926e+003,-4.132436e-003
3.806854e+003,-3.933828e-003
3.808783e+003,-3.929559e-003
3.810711e+003,-3.880205e-003
3.812640e+003,-3.864704e-003
3.814568e+003,-4.141199e-003
3.816497e+003,-3.863883e-003
3.818425e+003,-3.689399e-003
3.820354e+003,-3.872356e-003
3.822282e+003,-3.743867e-003
3.824211e+003,-3.854819e-003
3.826139e+003,-3.965677e-003
3.828068e+003,-3.901812e-003
3.829996e+003,-3.915144e-003
3.831925e+003,-3.873801e-003
3.833853e+003,-3.917410e-003
3.835782e+003,-4.096431e-003
3.837710e+003,-3.956352e-003
3.839639e+003,-3.848382e-003
3.841567e+003,-3.865131e-003
3.843496e+003,-3.702639e-003
3.845424e+003,-3.760292e-003
3.847353e+003,-3.990662e-003
3.849281e+003,-4.094757e-003
3.851210e+003,-4.175297e-003
3.853138e+003,-4.014070e-003
3.855067e+003,-3.451999e-003
3.856995e+003,-3.571635e-003
3.858924e+003,-3.807295e-003
3.860852e+003,-3.840533e-003
3.862781e+003,-3.798361e-003
3.864709e+003,-3.786701e-003
3.866638e+003,-4.031502e-003
3.868566e+003,-4.100895e-003
3.870495e+003,-3.880172e-003
3.872423e+003,-3.691600e-003
3.874352e+003,-3.571734e-003
3.876280e+003,-3.625330e-003
3.878209e+003,-3.907001e-003
3.880137e+003,-3.996933e-003
3.882066e+003,-3.884507e-003
3.883994e+003,-3.846642e-003
3.885923e+003,-3.684635e-003
3.887851e+003,-3.624147e-003
3.889780e+003,-3.636994e-003
3.891708e+003,-3.401669e-003
3.893637e+003,-3.409592e-003
3.895565e+003,-3.698598e-003
3.897494e+003,-4.076900e-003
3.899422e+003,-4.208343e-003
3.901351e+003,-4.047161e-003
3.903279e+003,-3.780296e-003
3.905208e+003,-3.662195e-003
3.907136e+003,-3.785321e-003
3.909065e+003,-3.814882e-003
3.910993e+003,-3.756941e-003
3.912922e+003,-3.848514e-003
3.914850e+003,-3.929724e-003
3.916779e+003,-4.072502e-003
3.918707e+003,-3.955236e-003
3.920636e+003,-3.777077e-003
3.922564e+003,-3.668865e-003
3.924493e+003,-3.750076e-003
3.926421e+003,-3.624245e-003
3.928350e+003,-3.639327e-003
3.930278e+003,-4.016433e-003
3.932207e+003,-4.217596e-003
3.934135e+003,-4.138081e-003
3.936064e+003,-3.964495e-003
3.937992e+003,-3.782365e-003
3.939921e+003,-3.782365e-003
3.941849e+003,-3.914061e-003
3.943778e+003,-4.006716e-003
3.945706e+003,-4.037542e-003
3.947635e+003,-3.891961e-003
3.949563e+003,-3.719164e-003
3.951492e+003,-3.712035e-003
3.953420e+003,-3.815506e-003
3.955349e+003,-3.997228e-003
3.957277e+003,-4.063771e-003
3.959206e+003,-4.244798e-003
3.961134e+003,-4.135980e-003
3.963063e+003,-3.816886e-003
3.964991e+003,-3.854852e-003
3.966920e+003,-3.735688e-003
3.968848e+003,-3.458737e-003
3.970777e+003,-3.459723e-003
3.972705e+003,-3.422084e-003
3.974634e+003,-3.573870e-003
3.976562e+003,-3.731778e-003
3.978491e+003,-3.600849e-003
3.980419e+003,-3.612383e-003
3.982348e+003,-3.759306e-003
3.984276e+003,-3.876264e-003
3.986205e+003,-4.035408e-003
3.988133e+003,-3.918658e-003
3.990062e+003,-3.776650e-003
3.991990e+003,-3.913601e-003
3.993919e+003,-3.978875e-003
3.995847e+003,-3.935174e-003
3.997776e+003,-3.971062e-003
3.999704e+003,-4.042269e-003
4.001633e+003,0.000000e+000
