3.991989e+002,1.910819e-002
4.011274e+002,1.557553e-002
4.030559e+002,6.052360e-003
4.049844e+002,8.661452e-003
4.069129e+002,1.212375e-002
4.088414e+002,1.348006e-002
4.107699e+002,1.146465e-002
4.126984e+002,9.837713e-003
4.146269e+002,5.949727e-003
4.165554e+002,8.443082e-003
4.184839e+002,1.484973e-002
4.204124e+002,1.302118e-002
4.223409e+002,1.510174e-002
4.242694e+002,1.613178e-002
4.261979e+002,9.458851e-003
4.281264e+002,8.213847e-003
4.300549e+002,1.159775e-002
4.319834e+002,7.480582e-003
4.339119e+002,3.893420e-003
4.358404e+002,1.075491e-002
4.377689e+002,1.475076e-002
4.396974e+002,8.890721e-003
4.416259e+002,6.179618e-003
4.435544e+002,8.869179e-003
4.454829e+002,1.177553e-002
4.474114e+002,1.493169e-002
4.493399e+002,1.019309e-002
4.512684e+002,3.338763e-003
4.531969e+002,3.591196e-003
4.551254e+002,8.482307e-003
4.570539e+002,9.667535e-003
4.589824e+002,5.545412e-003
4.609109e+002,6.203212e-003
4.628394e+002,8.317591e-003
4.647679e+002,7.317491e-003
4.666964e+002,7.210718e-003
4.686249e+002,5.695047e-003
4.705533e+002,4.186320e-003
4.724819e+002,5.945831e-003
4.744103e+002,7.216041e-003
4.763389e+002,5.342288e-003
4.782673e+002,5.135403e-003
4.801959e+002,5.469976e-003
4.821243e+002,5.888058e-003
4.840529e+002,6.737110e-003
4.859813e+002,5.424613e-003
4.879099e+002,3.811050e-003
4.898383e+002,4.673932e-003
4.917668e+002,3.680174e-003
4.936953e+002,3.900474e-003
4.956238e+002,3.706707e-003
4.975523e+002,2.679515e-003
4.994808e+002,4.029144e-003
5.014093e+002,4.788224e-003
5.033378e+002,2.372771e-003
5.052663e+002,9.872898e-004
5.071948e+002,8.041783e-004
5.091233e+002,1.024851e-003
5.110518e+002,7.686274e-004
5.129803e+002,3.862495e-004
5.149088e+002,-5.474599e-004
5.168373e+002,-3.701813e-004
5.187658e+002,-1.015199e-003
5.206943e+002,-1.528266e-003
5.226228e+002,-2.502152e-003
5.245513e+002,-2.334469e-003
5.264798e+002,-1.651801e-003
5.284083e+002,-2.799918e-004
5.303368e+002,1.902642e-004
5.322653e+002,-7.366074e-004
5.341938e+002,-2.809144e-003
5.361223e+002,-1.973149e-003
5.380508e+002,-5.133735e-004
5.399792e+002,5.988798e-004
5.419078e+002,-4.827265e-004
5.438363e+002,-8.951869e-004
5.457648e+002,-2.770447e-004
5.476932e+002,9.510510e-005
5.496218e+002,8.536091e-004
5.515503e+002,1.092311e-003
5.534788e+002,4.933809e-004
5.554072e+002,9.796849e-004
5.573358e+002,1.462578e-003
5.592643e+002,2.095873e-003
5.611927e+002,8.968035e-004
5.631212e+002,2.381002e-004
5.650497e+002,8.699102e-004
5.669783e+002,2.091112e-003
5.689067e+002,2.832535e-003
5.708352e+002,2.854081e-003
5.727637e+002,1.802749e-003
5.746923e+002,3.713262e-004
5.766207e+002,1.718347e-003
5.785492e+002,3.003526e-003
5.804777e+002,-3.086278e-003
5.824063e+002,-5.482791e-003
5.843347e+002,1.565866e-004
5.862632e+002,2.088482e-003
5.881917e+002,9.264211e-004
5.901202e+002,-7.505660e-004
5.920487e+002,-2.169161e-003
5.939772e+002,-2.367127e-003
5.959057e+002,-1.666027e-003
5.978342e+002,-8.773640e-004
5.997627e+002,-6.928762e-004
6.016912e+002,-4.171375e-005
6.036197e+002,4.479381e-004
6.055482e+002,6.083361e-004
6.074767e+002,1.698521e-003
6.094052e+002,3.659890e-003
6.113337e+002,5.035769e-003
6.132622e+002,4.114097e-003
6.151907e+002,2.949513e-003
6.171192e+002,2.864220e-003
6.190477e+002,3.980487e-003
6.209762e+002,3.704735e-003
6.229047e+002,6.191863e-004
6.248332e+002,-2.761506e-003
6.267617e+002,-3.652141e-003
6.286902e+002,-3.964725e-003
6.306187e+002,-3.547842e-003
6.325472e+002,-2.699209e-003
6.344756e+002,-1.825719e-003
6.364042e+002,-1.639951e-003
6.383326e+002,-1.966717e-003
6.402612e+002,-2.160193e-003
6.421896e+002,-1.027430e-003
6.441182e+002,-7.203658e-004
6.460466e+002,-1.330049e-003
6.479752e+002,-1.487388e-003
6.499036e+002,-1.607864e-003
6.518322e+002,-1.709396e-003
6.537606e+002,-1.121034e-003
6.556891e+002,-8.768019e-004
6.576177e+002,-8.798441e-004
6.595461e+002,-9.267636e-004
6.614746e+002,-1.259452e-003
6.634031e+002,-9.543376e-004
6.653317e+002,-2.847600e-004
6.672601e+002,4.245882e-004
6.691886e+002,6.686964e-005
6.711171e+002,-1.485476e-004
6.730457e+002,1.885368e-005
6.749741e+002,2.202315e-004
6.769026e+002,3.220497e-004
6.788311e+002,4.161641e-004
6.807596e+002,4.556995e-004
6.826881e+002,5.313642e-004
6.846166e+002,6.866491e-004
6.865451e+002,4.310226e-004
6.884736e+002,3.895991e-004
6.904021e+002,5.515680e-004
6.923306e+002,6.486854e-004
6.942591e+002,1.005854e-003
6.961876e+002,1.124865e-003
6.981161e+002,1.080618e-003
7.000446e+002,6.537957e-004
7.019731e+002,6.401968e-005
7.039016e+002,-3.954734e-004
7.058301e+002,-4.376126e-004
7.077585e+002,-2.833692e-004
7.096871e+002,-4.041466e-004
7.116156e+002,1.331198e-004
7.135441e+002,2.753649e-004
7.154725e+002,-2.279562e-005
7.174011e+002,-9.086445e-004
7.193296e+002,-1.785496e-003
7.212581e+002,-1.761077e-003
7.231865e+002,-1.265168e-003
7.251151e+002,-1.304448e-003
7.270436e+002,-1.025744e-003
7.289720e+002,-5.787309e-004
7.309005e+002,-7.260223e-004
7.328290e+002,-7.858244e-004
7.347576e+002,-8.235935e-004
7.366860e+002,-1.042536e-003
7.386145e+002,-1.334244e-003
7.405430e+002,-9.001467e-004
7.424716e+002,-3.459472e-004
7.444000e+002,-2.173380e-004
7.463285e+002,1.305015e-004
7.482570e+002,5.046594e-004
7.501855e+002,6.108910e-004
7.521140e+002,1.316753e-003
7.540425e+002,2.150579e-003
7.559710e+002,1.883774e-003
7.578995e+002,1.901744e-003
7.598280e+002,2.341155e-003
7.617565e+002,2.491823e-003
7.636850e+002,2.813459e-003
7.656135e+002,3.544759e-003
7.675420e+002,3.660626e-003
7.694705e+002,3.432197e-003
7.713990e+002,3.275961e-003
7.733275e+002,3.205391e-003
7.752560e+002,3.597778e-003
7.771844e+002,3.716030e-003
7.791130e+002,3.489176e-003
7.810415e+002,3.359398e-003
7.829700e+002,3.209497e-003
7.848984e+002,3.201753e-003
7.868270e+002,3.395128e-003
7.887555e+002,3.310416e-003
7.906840e+002,3.043197e-003
7.926124e+002,2.911517e-003
7.945410e+002,2.475461e-003
7.964695e+002,2.097072e-003
7.983979e+002,2.076263e-003
8.003264e+002,2.065510e-003
8.022549e+002,2.462965e-003
8.041835e+002,2.524983e-003
8.061119e+002,2.082289e-003
8.080404e+002,1.931197e-003
8.099689e+002,2.044736e-003
8.118975e+002,2.264475e-003
8.138259e+002,2.596176e-003
8.157545e+002,2.036913e-003
8.176830e+002,1.863940e-003
8.196115e+002,1.933095e-003
8.215399e+002,1.819419e-003
8.234684e+002,1.803880e-003
8.253970e+002,1.846637e-003
8.273254e+002,2.146018e-003
8.292539e+002,2.232901e-003
8.311824e+002,2.192904e-003
8.331110e+002,2.229604e-003
8.350394e+002,2.334459e-003
8.369679e+002,2.581276e-003
8.388964e+002,2.540913e-003
8.408250e+002,2.545646e-003
8.427534e+002,2.324299e-003
8.446819e+002,1.828935e-003
8.466104e+002,1.863408e-003
8.485389e+002,2.142155e-003
8.504674e+002,2.014576e-003
8.523959e+002,1.643074e-003
8.543244e+002,1.831264e-003
8.562529e+002,2.057054e-003
8.581814e+002,2.074932e-003
8.601099e+002,2.128270e-003
8.620384e+002,1.908400e-003
8.639669e+002,1.562526e-003
8.658954e+002,1.437711e-003
8.678239e+002,1.335631e-003
8.697524e+002,1.577657e-003
8.716809e+002,1.594517e-003
8.736094e+002,1.270360e-003
8.755378e+002,1.130579e-003
8.774664e+002,1.546066e-003
8.793949e+002,1.753609e-003
8.813234e+002,1.403471e-003
8.832518e+002,1.513879e-003
8.851804e+002,1.610214e-003
8.871089e+002,1.478137e-003
8.890374e+002,1.376712e-003
8.909658e+002,1.696991e-003
8.928943e+002,2.140856e-003
8.948229e+002,2.176919e-003
8.967513e+002,2.278098e-003
8.986798e+002,2.275533e-003
9.006083e+002,2.072468e-003
9.025369e+002,2.139691e-003
9.044653e+002,2.224175e-003
9.063938e+002,2.081157e-003
9.083223e+002,1.941515e-003
9.102509e+002,1.640779e-003
9.121793e+002,1.838218e-003
9.141078e+002,1.684417e-003
9.160364e+002,1.291861e-003
9.179648e+002,1.146824e-003
9.198933e+002,9.361170e-004
9.218218e+002,8.194816e-004
9.237504e+002,5.873997e-004
9.256788e+002,1.944409e-004
9.276073e+002,-1.704412e-004
9.295358e+002,-4.461525e-004
9.314644e+002,-7.207958e-004
9.333928e+002,-8.258423e-004
9.353213e+002,-8.174422e-004
9.372498e+002,-9.066606e-004
9.391783e+002,-1.413515e-003
9.411068e+002,-1.683058e-003
9.430353e+002,-1.599710e-003
9.449637e+002,-1.485902e-003
9.468923e+002,-1.470580e-003
9.488208e+002,-1.663353e-003
9.507493e+002,-1.887482e-003
9.526777e+002,-2.076112e-003
9.546063e+002,-1.995215e-003
9.565348e+002,-2.055403e-003
9.584633e+002,-2.345871e-003
9.603917e+002,-2.367786e-003
9.623203e+002,-2.232358e-003
9.642488e+002,-2.104900e-003
9.661772e+002,-2.097546e-003
9.681057e+002,-2.067802e-003
9.700343e+002,-2.273034e-003
9.719628e+002,-2.198964e-003
9.738912e+002,-2.240335e-003
9.758197e+002,-2.260541e-003
9.777483e+002,-2.194151e-003
9.796768e+002,-2.146181e-003
9.816052e+002,-2.301940e-003
9.835337e+002,-2.343433e-003
9.854623e+002,-2.363404e-003
9.873907e+002,-2.336182e-003
9.893192e+002,-2.167084e-003
9.912477e+002,-2.396983e-003
9.931763e+002,-2.281504e-003
9.951047e+002,-2.156698e-003
9.970332e+002,-2.305961e-003
9.989617e+002,-2.171370e-003
1.000890e+003,-2.096260e-003
1.002819e+003,-1.992411e-003
1.004747e+003,-1.833110e-003
1.006676e+003,-1.500861e-003
1.008604e+003,-1.242239e-003
1.010533e+003,-1.225422e-003
1.012461e+003,-1.082696e-003
1.014390e+003,-9.661403e-004
1.016318e+003,-6.556251e-004
1.018247e+003,-2.694949e-004
1.020175e+003,-1.829607e-004
1.022104e+003,6.743301e-005
1.024032e+003,3.185018e-004
1.025961e+003,5.405868e-004
1.027889e+003,7.722122e-004
1.029818e+003,9.556091e-004
1.031746e+003,1.234771e-003
1.033675e+003,1.571904e-003
1.035603e+003,1.746257e-003
1.037532e+003,1.999330e-003
1.039460e+003,2.232035e-003
1.041389e+003,2.212053e-003
1.043317e+003,2.454035e-003
1.045246e+003,2.713756e-003
1.047174e+003,2.734462e-003
1.049103e+003,2.620776e-003
1.051031e+003,2.408686e-003
1.052960e+003,2.317670e-003
1.054888e+003,2.391461e-003
1.056817e+003,2.292587e-003
1.058745e+003,2.039110e-003
1.060674e+003,2.022499e-003
1.062602e+003,2.038677e-003
1.064531e+003,1.848733e-003
1.066459e+003,1.804446e-003
1.068388e+003,1.923709e-003
1.070316e+003,2.059051e-003
1.072245e+003,2.104264e-003
1.074173e+003,2.124574e-003
1.076102e+003,2.151845e-003
1.078030e+003,2.106960e-003
1.079959e+003,1.862942e-003
1.081887e+003,1.708800e-003
1.083816e+003,1.903841e-003
1.085744e+003,1.943678e-003
1.087673e+003,1.802217e-003
1.089601e+003,1.897451e-003
1.091530e+003,2.040874e-003
1.093458e+003,1.974899e-003
1.095387e+003,1.995802e-003
1.097315e+003,1.906470e-003
1.099244e+003,1.788709e-003
1.101172e+003,1.885438e-003
1.103101e+003,1.714687e-003
1.105029e+003,1.721507e-003
1.106958e+003,1.808805e-003
1.108886e+003,1.810402e-003
1.110815e+003,1.765087e-003
1.112743e+003,1.612276e-003
1.114672e+003,1.740735e-003
1.116600e+003,2.119779e-003
1.118529e+003,2.256348e-003
1.120457e+003,2.275567e-003
1.122386e+003,2.278564e-003
1.124314e+003,2.110024e-003
1.126243e+003,1.883441e-003
1.128171e+003,1.701382e-003
1.130100e+003,1.756737e-003
1.132028e+003,1.541910e-003
1.133957e+003,1.115132e-003
1.135885e+003,9.167918e-004
1.137814e+003,6.076393e-004
1.139742e+003,-8.375478e-005
1.141671e+003,-3.266450e-004
1.143599e+003,-3.225395e-004
1.145528e+003,-7.717016e-004
1.147456e+003,-1.277656e-003
1.149385e+003,-1.586406e-003
1.151313e+003,-1.904504e-003
1.153242e+003,-2.073837e-003
1.155170e+003,-2.163622e-003
1.157099e+003,-2.282526e-003
1.159027e+003,-2.488216e-003
1.160956e+003,-2.665884e-003
1.162884e+003,-2.780700e-003
1.164813e+003,-2.822839e-003
1.166741e+003,-2.813424e-003
1.168670e+003,-2.705795e-003
1.170598e+003,-2.593462e-003
1.172526e+003,-2.465912e-003
1.174455e+003,-2.363931e-003
1.176384e+003,-2.114330e-003
1.178312e+003,-2.050226e-003
1.180240e+003,-2.161743e-003
1.182169e+003,-2.287668e-003
1.184098e+003,-2.343169e-003
1.186026e+003,-2.323560e-003
1.187954e+003,-2.103713e-003
1.189883e+003,-1.946134e-003
1.191812e+003,-2.074859e-003
1.193740e+003,-2.240764e-003
1.195668e+003,-2.468712e-003
1.197597e+003,-2.678365e-003
1.199526e+003,-2.505578e-003
1.201454e+003,-2.187293e-003
1.203382e+003,-2.051940e-003
1.205311e+003,-2.013915e-003
1.207240e+003,-1.940098e-003
1.209168e+003,-1.939966e-003
1.211096e+003,-1.913411e-003
1.213025e+003,-1.646486e-003
1.214953e+003,-1.549661e-003
1.216882e+003,-1.669526e-003
1.218810e+003,-1.704182e-003
1.220739e+003,-1.680121e-003
1.222667e+003,-1.492441e-003
1.224596e+003,-1.311947e-003
1.226524e+003,-1.330842e-003
1.228453e+003,-1.248616e-003
1.230381e+003,-1.303688e-003
1.232310e+003,-1.317926e-003
1.234238e+003,-1.166110e-003
1.236167e+003,-1.133526e-003
1.238095e+003,-1.297279e-003
1.240024e+003,-1.265333e-003
1.241952e+003,-1.302697e-003
1.243881e+003,-1.634933e-003
1.245809e+003,-1.833209e-003
1.247738e+003,-1.927332e-003
1.249666e+003,-1.949499e-003
1.251595e+003,-2.220754e-003
1.253523e+003,-2.607065e-003
1.255452e+003,-2.871754e-003
1.257380e+003,-3.175394e-003
1.259309e+003,-3.453182e-003
1.261237e+003,-3.558589e-003
1.263166e+003,-3.563419e-003
1.265094e+003,-3.509060e-003
1.267023e+003,-3.386152e-003
1.268951e+003,-3.236504e-003
1.270880e+003,-3.256894e-003
1.272808e+003,-3.526118e-003
1.274737e+003,-3.654178e-003
1.276665e+003,-3.624968e-003
1.278594e+003,-3.739761e-003
1.280522e+003,-3.847922e-003
1.282451e+003,-4.032388e-003
1.284379e+003,-4.127513e-003
1.286308e+003,-4.104899e-003
1.288236e+003,-4.032848e-003
1.290165e+003,-3.941216e-003
1.292093e+003,-3.942201e-003
1.294022e+003,-3.882076e-003
1.295950e+003,-3.881288e-003
1.297879e+003,-4.036492e-003
1.299807e+003,-4.072239e-003
1.301736e+003,-4.125314e-003
1.303664e+003,-4.354572e-003
1.305593e+003,-4.360313e-003
1.307521e+003,-4.164533e-003
1.309450e+003,-4.096431e-003
1.311378e+003,-4.280529e-003
1.313307e+003,-4.463991e-003
1.315235e+003,-4.325967e-003
1.317164e+003,-4.073782e-003
1.319092e+003,-4.191607e-003
1.321021e+003,-4.415943e-003
1.322949e+003,-4.295292e-003
1.324878e+003,-4.060225e-003
1.326806e+003,-3.983735e-003
1.328735e+003,-3.805817e-003
1.330663e+003,-3.565457e-003
1.332592e+003,-3.540152e-003
1.334520e+003,-3.547020e-003
1.336449e+003,-3.373428e-003
1.338377e+003,-3.158487e-003
1.340306e+003,-3.127269e-003
1.342234e+003,-3.279454e-003
1.344163e+003,-3.524935e-003
1.346091e+003,-3.627268e-003
1.348020e+003,-3.511887e-003
1.349948e+003,-3.605417e-003
1.351877e+003,-3.699091e-003
1.353805e+003,-3.700438e-003
1.355734e+003,-3.799839e-003
1.357662e+003,-3.878366e-003
1.359591e+003,-3.831928e-003
1.361519e+003,-3.857118e-003
1.363448e+003,-4.117929e-003
1.365376e+003,-4.565054e-003
1.367305e+003,-4.890087e-003
1.369233e+003,-5.113637e-003
1.371162e+003,-5.213436e-003
1.373090e+003,-5.189241e-003
1.375019e+003,-5.436558e-003
1.376947e+003,-5.743740e-003
1.378876e+003,-5.859968e-003
1.380804e+003,-6.040935e-003
1.382733e+003,-6.113078e-003
1.384661e+003,-6.070082e-003
1.386590e+003,-5.915636e-003
1.388518e+003,-5.967570e-003
1.390447e+003,-6.299459e-003
1.392375e+003,-6.386513e-003
1.394304e+003,-6.253279e-003
1.396232e+003,-6.473224e-003
1.398161e+003,-6.498424e-003
1.400089e+003,-6.501754e-003
1.402018e+003,-6.747770e-003
1.403946e+003,-6.791907e-003
1.405875e+003,-6.760297e-003
1.407803e+003,-6.791026e-003
1.409732e+003,-6.709632e-003
1.411660e+003,-6.553977e-003
1.413589e+003,-6.405581e-003
1.415517e+003,-6.128401e-003
1.417446e+003,-5.560589e-003
1.419374e+003,-5.096019e-003
1.421303e+003,-5.211995e-003
1.423231e+003,-5.022429e-003
1.425160e+003,-4.587677e-003
1.427088e+003,-4.335349e-003
1.429017e+003,-4.011509e-003
1.430945e+003,-3.641660e-003
1.432874e+003,-3.138191e-003
1.434802e+003,-2.458829e-003
1.436731e+003,-1.900843e-003
1.438659e+003,-1.946134e-003
1.440588e+003,-1.842942e-003
1.442516e+003,-1.507002e-003
1.444445e+003,-1.175561e-003
1.446373e+003,-9.160839e-004
1.448302e+003,-7.195057e-004
1.450230e+003,-7.387905e-004
1.452159e+003,-7.335641e-004
1.454087e+003,-3.875947e-004
1.456016e+003,4.990865e-004
1.457944e+003,4.631294e-004
1.459873e+003,-4.919606e-004
1.461801e+003,-1.036322e-003
1.463730e+003,-1.138318e-003
1.465658e+003,-1.399049e-003
1.467587e+003,-2.017213e-003
1.469515e+003,-2.210139e-003
1.471444e+003,-1.985782e-003
1.473372e+003,-2.139422e-003
1.475301e+003,-2.693315e-003
1.477229e+003,-3.166282e-003
1.479158e+003,-3.685227e-003
1.481086e+003,-3.946765e-003
1.483015e+003,-4.402659e-003
1.484943e+003,-4.730009e-003
1.486872e+003,-4.538921e-003
1.488800e+003,-4.366742e-003
1.490729e+003,-4.520460e-003
1.492657e+003,-4.970087e-003
1.494586e+003,-4.900472e-003
1.496514e+003,-4.649506e-003
1.498443e+003,-4.835402e-003
1.500371e+003,-5.249447e-003
1.502300e+003,-5.457630e-003
1.504228e+003,-4.894444e-003
1.506157e+003,-3.947618e-003
1.508085e+003,-4.452873e-003
1.510014e+003,-5.181252e-003
1.511942e+003,-5.327744e-003
1.513871e+003,-5.333276e-003
1.515799e+003,-5.041491e-003
1.517728e+003,-4.899653e-003
1.519656e+003,-4.642295e-003
1.521585e+003,-4.272523e-003
1.523513e+003,-4.637738e-003
1.525442e+003,-4.698118e-003
1.527370e+003,-4.782152e-003
1.529299e+003,-4.906566e-003
1.531227e+003,-4.900570e-003
1.533156e+003,-4.448314e-003
1.535084e+003,-4.466089e-003
1.537013e+003,-4.301788e-003
1.538941e+003,-3.319308e-003
1.540870e+003,-3.013203e-003
1.542798e+003,-3.399927e-003
1.544727e+003,-3.714761e-003
1.546655e+003,-4.223043e-003
1.548584e+003,-4.366873e-003
1.550512e+003,-4.334168e-003
1.552441e+003,-4.248178e-003
1.554369e+003,-4.012987e-003
1.556298e+003,-3.664561e-003
1.558226e+003,-2.618164e-003
1.560155e+003,-2.811218e-003
1.562083e+003,-3.591287e-003
1.564012e+003,-3.570781e-003
1.565940e+003,-3.539527e-003
1.567869e+003,-3.297376e-003
1.569797e+003,-2.823135e-003
1.571726e+003,-3.031267e-003
1.573654e+003,-2.953772e-003
1.575583e+003,-2.399783e-003
1.577511e+003,-2.612927e-003
1.579440e+003,-2.899765e-003
1.581368e+003,-2.749291e-003
1.583297e+003,-2.821654e-003
1.585225e+003,-2.801803e-003
1.587154e+003,-2.722225e-003
1.589082e+003,-2.700658e-003
1.591010e+003,-2.785375e-003
1.592939e+003,-2.837093e-003
1.594868e+003,-2.749982e-003
1.596796e+003,-2.750608e-003
1.598724e+003,-2.936955e-003
1.600653e+003,-3.080718e-003
1.602582e+003,-3.080817e-003
1.604510e+003,-3.151546e-003
1.606438e+003,-3.307503e-003
1.608367e+003,-3.421131e-003
1.610296e+003,-3.728559e-003
1.612224e+003,-4.047161e-003
1.614152e+003,-3.981732e-003
1.616081e+003,-3.682401e-003
1.618010e+003,-4.173984e-003
1.619938e+003,-4.708476e-003
1.621866e+003,-4.634033e-003
1.623795e+003,-4.781496e-003
1.625724e+003,-5.102274e-003
1.627652e+003,-5.280283e-003
1.629580e+003,-5.614757e-003
1.631509e+003,-5.911191e-003
1.633438e+003,-5.570860e-003
1.635366e+003,-5.036054e-003
1.637294e+003,-5.552934e-003
1.639223e+003,-6.158423e-003
1.641151e+003,-6.397973e-003
1.643080e+003,-6.540792e-003
1.645008e+003,-6.251712e-003
1.646937e+003,-6.074492e-003
1.648865e+003,-6.717625e-003
1.650794e+003,-6.545851e-003
1.652722e+003,-5.434333e-003
1.654651e+003,-6.377338e-003
1.656579e+003,-7.512664e-003
1.658508e+003,-7.795179e-003
1.660436e+003,-7.755472e-003
1.662365e+003,-7.535134e-003
1.664293e+003,-7.666674e-003
1.666222e+003,-7.744080e-003
1.668150e+003,-7.194608e-003
1.670079e+003,-6.846020e-003
1.672007e+003,-7.097057e-003
1.673936e+003,-6.807858e-003
1.675864e+003,-6.629854e-003
1.677793e+003,-7.039943e-003
1.679721e+003,-6.923378e-003
1.681650e+003,-6.396602e-003
1.683578e+003,-5.360375e-003
1.685507e+003,-5.370749e-003
1.687435e+003,-5.813154e-003
1.689364e+003,-5.709471e-003
1.691292e+003,-5.556761e-003
1.693221e+003,-5.241623e-003
1.695149e+003,-4.557873e-003
1.697078e+003,-4.485274e-003
1.699006e+003,-4.033603e-003
1.700935e+003,-3.786340e-003
1.702863e+003,-4.506360e-003
1.704792e+003,-4.526363e-003
1.706720e+003,-4.727551e-003
1.708649e+003,-5.053773e-003
1.710577e+003,-5.264145e-003
1.712506e+003,-5.115471e-003
1.714434e+003,-4.739645e-003
1.716363e+003,-4.352112e-003
1.718291e+003,-4.475797e-003
1.720220e+003,-5.049679e-003
1.722148e+003,-5.291870e-003
1.724077e+003,-5.337465e-003
1.726005e+003,-5.374807e-003
1.727934e+003,-5.346269e-003
1.729862e+003,-5.295013e-003
1.731791e+003,-4.933594e-003
1.733719e+003,-4.439295e-003
1.735648e+003,-4.945616e-003
1.737576e+003,-5.167501e-003
1.739505e+003,-4.871247e-003
1.741433e+003,-5.123198e-003
1.743362e+003,-5.259627e-003
1.745290e+003,-5.191173e-003
1.747219e+003,-4.897491e-003
1.749147e+003,-4.592201e-003
1.751076e+003,-4.357492e-003
1.753004e+003,-4.560791e-003
1.754933e+003,-4.696643e-003
1.756861e+003,-4.556857e-003
1.758790e+003,-4.581021e-003
1.760718e+003,-4.430375e-003
1.762647e+003,-4.379765e-003
1.764575e+003,-4.616921e-003
1.766504e+003,-4.509082e-003
1.768432e+003,-4.329510e-003
1.770361e+003,-4.116025e-003
1.772289e+003,-3.861059e-003
1.774218e+003,-4.120752e-003
1.776146e+003,-4.337219e-003
1.778075e+003,-4.411515e-003
1.780003e+003,-4.379043e-003
1.781932e+003,-4.393738e-003
1.783860e+003,-4.422503e-003
1.785789e+003,-4.270817e-003
1.787717e+003,-4.182287e-003
1.789646e+003,-4.108083e-003
1.791574e+003,-3.794781e-003
1.793503e+003,-3.858826e-003
1.795431e+003,-4.181204e-003
1.797360e+003,-4.205422e-003
1.799288e+003,-4.099450e-003
1.801217e+003,-4.076474e-003
1.803145e+003,-4.289124e-003
1.805074e+003,-4.325114e-003
1.807002e+003,-4.303166e-003
1.808931e+003,-4.348372e-003
1.810859e+003,-4.307595e-003
1.812788e+003,-4.359853e-003
1.814716e+003,-4.509410e-003
1.816645e+003,-4.516722e-003
1.818573e+003,-4.489866e-003
1.820502e+003,-4.520067e-003
1.822430e+003,-4.483930e-003
1.824359e+003,-4.265502e-003
1.826287e+003,-4.324917e-003
1.828216e+003,-4.398658e-003
1.830144e+003,-4.383438e-003
1.832073e+003,-4.639311e-003
1.834001e+003,-4.687826e-003
1.835930e+003,-4.667011e-003
1.837858e+003,-4.777302e-003
1.839787e+003,-4.786641e-003
1.841715e+003,-4.693398e-003
1.843644e+003,-4.424995e-003
1.845572e+003,-4.559087e-003
1.847501e+003,-4.846706e-003
1.849429e+003,-4.830224e-003
1.851358e+003,-4.759277e-003
1.853286e+003,-4.753542e-003
1.855215e+003,-4.783430e-003
1.857143e+003,-4.698413e-003
1.859072e+003,-4.609315e-003
1.861000e+003,-4.589382e-003
1.862929e+003,-4.697758e-003
1.864857e+003,-4.721357e-003
1.866786e+003,-4.606069e-003
1.868714e+003,-4.486094e-003
1.870643e+003,-4.611872e-003
1.872571e+003,-4.727715e-003
1.874500e+003,-4.638492e-003
1.876428e+003,-4.619970e-003
1.878357e+003,-4.600168e-003
1.880285e+003,-4.605446e-003
1.882214e+003,-4.594660e-003
1.884142e+003,-4.555414e-003
1.886071e+003,-4.562103e-003
1.887999e+003,-4.439853e-003
1.889928e+003,-4.406956e-003
1.891856e+003,-4.562168e-003
1.893785e+003,-4.525084e-003
1.895713e+003,-4.445920e-003
1.897642e+003,-4.435196e-003
1.899570e+003,-4.382323e-003
1.901499e+003,-4.264353e-003
1.903427e+003,-4.269603e-003
1.905356e+003,-4.331314e-003
1.907284e+003,-4.321767e-003
1.909213e+003,-4.286303e-003
1.911141e+003,-4.372614e-003
1.913070e+003,-4.459301e-003
1.914998e+003,-4.393640e-003
1.916927e+003,-4.134865e-003
1.918855e+003,-4.056844e-003
1.920784e+003,-4.193313e-003
1.922712e+003,-4.309531e-003
1.924641e+003,-4.426701e-003
1.926569e+003,-4.373598e-003
1.928498e+003,-4.393213e-003
1.930426e+003,-4.402036e-003
1.932355e+003,-4.456677e-003
1.934283e+003,-4.568103e-003
1.936212e+003,-4.621642e-003
1.938140e+003,-4.613708e-003
1.940069e+003,-4.516329e-003
1.941997e+003,-4.333840e-003
1.943926e+003,-4.395706e-003
1.945854e+003,-4.598791e-003
1.947783e+003,-4.672518e-003
1.949711e+003,-4.679074e-003
1.951640e+003,-4.662717e-003
1.953568e+003,-4.710934e-003
1.955497e+003,-4.845166e-003
1.957425e+003,-4.908663e-003
1.959354e+003,-4.850409e-003
1.961282e+003,-4.824097e-003
1.963211e+003,-4.876719e-003
1.965139e+003,-4.860894e-003
1.967068e+003,-4.734926e-003
1.968996e+003,-4.877440e-003
1.970925e+003,-4.955346e-003
1.972853e+003,-4.851162e-003
1.974782e+003,-4.837794e-003
1.976710e+003,-4.891102e-003
1.978639e+003,-4.921341e-003
1.980567e+003,-4.936345e-003
1.982496e+003,-4.906042e-003
1.984424e+003,-4.830781e-003
1.986353e+003,-4.743742e-003
1.988281e+003,-4.743480e-003
1.990210e+003,-4.739023e-003
1.992138e+003,-4.628395e-003
1.994067e+003,-4.661504e-003
1.995995e+003,-4.747740e-003
1.997924e+003,-4.779301e-003
1.999852e+003,-4.748494e-003
2.001781e+003,-4.727355e-003
2.003709e+003,-4.720144e-003
2.005638e+003,-4.694578e-003
2.007566e+003,-4.617249e-003
2.009495e+003,-4.632001e-003
2.011423e+003,-4.634361e-003
2.013352e+003,-4.527838e-003
2.015280e+003,-4.528396e-003
2.017208e+003,-4.564070e-003
2.019137e+003,-4.552037e-003
2.021066e+003,-4.574005e-003
2.022994e+003,-4.638033e-003
2.024922e+003,-4.638229e-003
2.026851e+003,-4.620068e-003
2.028780e+003,-4.608790e-003
2.030708e+003,-4.611183e-003
2.032636e+003,-4.623379e-003
2.034565e+003,-4.667700e-003
2.036494e+003,-4.773959e-003
2.038422e+003,-4.737253e-003
2.040350e+003,-4.663045e-003
2.042279e+003,-4.637508e-003
2.044208e+003,-4.667503e-003
2.046136e+003,-4.809810e-003
2.048064e+003,-4.844675e-003
2.049993e+003,-4.769141e-003
2.051921e+003,-4.801454e-003
2.053850e+003,-4.828127e-003
2.055778e+003,-4.810072e-003
2.057707e+003,-4.836286e-003
2.059635e+003,-4.890217e-003
2.061564e+003,-4.913282e-003
2.063492e+003,-4.940801e-003
2.065421e+003,-4.923569e-003
2.067349e+003,-4.807352e-003
2.069278e+003,-4.838056e-003
2.071206e+003,-4.834517e-003
2.073135e+003,-4.756196e-003
2.075063e+003,-4.717227e-003
2.076992e+003,-4.736729e-003
2.078920e+003,-4.774975e-003
2.080849e+003,-4.722438e-003
2.082777e+003,-4.751673e-003
2.084706e+003,-4.796079e-003
2.086634e+003,-4.772123e-003
2.088563e+003,-4.748167e-003
2.090491e+003,-4.754918e-003
2.092420e+003,-4.774712e-003
2.094348e+003,-4.759015e-003
2.096277e+003,-4.696217e-003
2.098205e+003,-4.712311e-003
2.100134e+003,-4.673928e-003
2.102062e+003,-4.565185e-003
2.103991e+003,-4.572661e-003
2.105919e+003,-4.569152e-003
2.107848e+003,-4.541577e-003
2.109776e+003,-4.610725e-003
2.111705e+003,-4.645868e-003
2.113633e+003,-4.528560e-003
2.115562e+003,-4.420436e-003
2.117490e+003,-4.415156e-003
2.119419e+003,-4.391114e-003
2.121347e+003,-4.416796e-003
2.123276e+003,-4.449331e-003
2.125204e+003,-4.395837e-003
2.127133e+003,-4.373401e-003
2.129061e+003,-4.297523e-003
2.130990e+003,-4.203059e-003
2.132918e+003,-4.295850e-003
2.134847e+003,-4.447101e-003
2.136775e+003,-4.414238e-003
2.138704e+003,-4.352177e-003
2.140632e+003,-4.358279e-003
2.142561e+003,-4.405939e-003
2.144489e+003,-4.416042e-003
2.146418e+003,-4.429259e-003
2.148346e+003,-4.410794e-003
2.150275e+003,-4.368940e-003
2.152203e+003,-4.325048e-003
2.154132e+003,-4.332659e-003
2.156060e+003,-4.392754e-003
2.157989e+003,-4.473698e-003
2.159917e+003,-4.518624e-003
2.161846e+003,-4.567251e-003
2.163774e+003,-4.622723e-003
2.165703e+003,-4.572103e-003
2.167631e+003,-4.434704e-003
2.169560e+003,-4.437852e-003
2.171488e+003,-4.527937e-003
2.173417e+003,-4.542332e-003
2.175345e+003,-4.506491e-003
2.177274e+003,-4.503212e-003
2.179202e+003,-4.510164e-003
2.181131e+003,-4.549480e-003
2.183059e+003,-4.607905e-003
2.184988e+003,-4.591316e-003
2.186916e+003,-4.545610e-003
2.188845e+003,-4.519149e-003
2.190773e+003,-4.508524e-003
2.192702e+003,-4.498654e-003
2.194630e+003,-4.439623e-003
2.196559e+003,-4.420076e-003
2.198487e+003,-4.458481e-003
2.200416e+003,-4.482388e-003
2.202344e+003,-4.451332e-003
2.204273e+003,-4.412794e-003
2.206201e+003,-4.479208e-003
2.208130e+003,-4.487176e-003
2.210058e+003,-4.377403e-003
2.211987e+003,-4.350537e-003
2.213915e+003,-4.378584e-003
2.215844e+003,-4.310876e-003
2.217772e+003,-4.248735e-003
2.219701e+003,-4.254674e-003
2.221629e+003,-4.293750e-003
2.223558e+003,-4.269964e-003
2.225486e+003,-4.179366e-003
2.227415e+003,-4.230262e-003
2.229343e+003,-4.299426e-003
2.231272e+003,-4.227210e-003
2.233200e+003,-4.113301e-003
2.235129e+003,-4.110577e-003
2.237057e+003,-4.229442e-003
2.238986e+003,-4.227899e-003
2.240914e+003,-4.197514e-003
2.242843e+003,-4.131254e-003
2.244771e+003,-4.076343e-003
2.246700e+003,-4.055958e-003
2.248628e+003,-4.071058e-003
2.250557e+003,-4.186028e-003
2.252485e+003,-4.218219e-003
2.254414e+003,-4.189310e-003
2.256342e+003,-4.218646e-003
2.258271e+003,-4.244830e-003
2.260199e+003,-4.219663e-003
2.262128e+003,-4.229803e-003
2.264056e+003,-4.260941e-003
2.265985e+003,-4.313894e-003
2.267913e+003,-4.294800e-003
2.269842e+003,-4.244830e-003
2.271770e+003,-4.283809e-003
2.273699e+003,-4.410466e-003
2.275627e+003,-4.532495e-003
2.277556e+003,-4.555414e-003
2.279484e+003,-4.502688e-003
2.281413e+003,-4.420174e-003
2.283341e+003,-4.473698e-003
2.285270e+003,-4.511344e-003
2.287198e+003,-4.543938e-003
2.289127e+003,-4.573185e-003
2.291055e+003,-4.641737e-003
2.292984e+003,-4.666093e-003
2.294912e+003,-4.753935e-003
2.296841e+003,-4.779301e-003
2.298769e+003,-4.603807e-003
2.300698e+003,-4.498064e-003
2.302626e+003,-4.517804e-003
2.304555e+003,-4.552267e-003
2.306483e+003,-4.556398e-003
2.308412e+003,-4.511705e-003
2.310340e+003,-4.483995e-003
2.312269e+003,-4.430243e-003
2.314197e+003,-4.312287e-003
2.316125e+003,-4.183370e-003
2.318054e+003,-4.208638e-003
2.319983e+003,-4.145498e-003
2.321911e+003,-3.977956e-003
2.323840e+003,-3.843686e-003
2.325768e+003,-3.728822e-003
2.327697e+003,-3.532757e-003
2.329625e+003,-3.270147e-003
2.331553e+003,-3.224993e-003
2.333482e+003,-3.302111e-003
2.335411e+003,-3.353997e-003
2.337339e+003,-3.268010e-003
2.339268e+003,-3.172762e-003
2.341196e+003,-3.233939e-003
2.343125e+003,-3.308753e-003
2.345053e+003,-3.528024e-003
2.346981e+003,-3.833209e-003
2.348910e+003,-4.062490e-003
2.350839e+003,-3.950508e-003
2.352767e+003,-3.538048e-003
2.354696e+003,-3.169835e-003
2.356624e+003,-2.898185e-003
2.358552e+003,-2.832813e-003
2.360481e+003,-2.931755e-003
2.362409e+003,-2.922145e-003
2.364338e+003,-2.857337e-003
2.366267e+003,-3.000468e-003
2.368195e+003,-3.237622e-003
2.370124e+003,-3.396475e-003
2.372052e+003,-3.563551e-003
2.373980e+003,-3.733388e-003
2.375909e+003,-3.931562e-003
2.377838e+003,-4.193083e-003
2.379766e+003,-4.461072e-003
2.381695e+003,-4.599414e-003
2.383623e+003,-4.532363e-003
2.385552e+003,-4.532003e-003
2.387480e+003,-4.573710e-003
2.389408e+003,-4.493735e-003
2.391337e+003,-4.418534e-003
2.393266e+003,-4.471370e-003
2.395194e+003,-4.480847e-003
2.397123e+003,-4.435294e-003
2.399051e+003,-4.408563e-003
2.400979e+003,-4.388654e-003
2.402908e+003,-4.448314e-003
2.404836e+003,-4.494030e-003
2.406765e+003,-4.493932e-003
2.408694e+003,-4.542758e-003
2.410622e+003,-4.477994e-003
2.412551e+003,-4.438639e-003
2.414479e+003,-4.390097e-003
2.416407e+003,-4.358312e-003
2.418336e+003,-4.334069e-003
2.420264e+003,-4.387506e-003
2.422193e+003,-4.422962e-003
2.424122e+003,-4.378223e-003
2.426050e+003,-4.363396e-003
2.427979e+003,-4.411023e-003
2.429907e+003,-4.390819e-003
2.431835e+003,-4.271965e-003
2.433764e+003,-4.197349e-003
2.435692e+003,-4.208178e-003
2.437621e+003,-4.256216e-003
2.439550e+003,-4.361297e-003
2.441478e+003,-4.359132e-003
2.443406e+003,-4.275968e-003
2.445335e+003,-4.219827e-003
2.447263e+003,-4.223109e-003
2.449192e+003,-4.175986e-003
2.451121e+003,-4.234331e-003
2.453049e+003,-4.244076e-003
2.454978e+003,-4.150651e-003
2.456906e+003,-4.085402e-003
2.458834e+003,-4.102536e-003
2.460763e+003,-4.166633e-003
2.462691e+003,-4.243289e-003
2.464620e+003,-4.280463e-003
2.466549e+003,-4.183206e-003
2.468477e+003,-4.066495e-003
2.470406e+003,-4.111529e-003
2.472334e+003,-4.199778e-003
2.474262e+003,-4.184092e-003
2.476191e+003,-4.177036e-003
2.478119e+003,-4.276887e-003
2.480048e+003,-4.305332e-003
2.481977e+003,-4.164074e-003
2.483905e+003,-4.197973e-003
2.485833e+003,-4.261991e-003
2.487762e+003,-4.251393e-003
2.489690e+003,-4.259300e-003
2.491619e+003,-4.268783e-003
2.493547e+003,-4.169259e-003
2.495476e+003,-4.069975e-003
2.497405e+003,-4.115566e-003
2.499333e+003,-4.167257e-003
2.501261e+003,-4.174345e-003
2.503190e+003,-4.223306e-003
2.505118e+003,-4.284827e-003
2.507047e+003,-4.313828e-003
2.508975e+003,-4.362937e-003
2.510904e+003,-4.327771e-003
2.512833e+003,-4.235807e-003
2.514761e+003,-4.264780e-003
2.516689e+003,-4.279249e-003
2.518618e+003,-4.179859e-003
2.520546e+003,-4.112579e-003
2.522475e+003,-4.200992e-003
2.524403e+003,-4.277346e-003
2.526332e+003,-4.272195e-003
2.528260e+003,-4.233051e-003
2.530189e+003,-4.131517e-003
2.532117e+003,-4.176446e-003
2.534046e+003,-4.278166e-003
2.535974e+003,-4.228490e-003
2.537903e+003,-4.182845e-003
2.539831e+003,-4.127250e-003
2.541760e+003,-4.192985e-003
2.543688e+003,-4.170374e-003
2.545617e+003,-4.095774e-003
2.547545e+003,-4.002251e-003
2.549474e+003,-3.980977e-003
2.551402e+003,-4.042597e-003
2.553331e+003,-4.116911e-003
2.555259e+003,-4.036951e-003
2.557188e+003,-3.885557e-003
2.559116e+003,-3.882175e-003
2.561045e+003,-3.877643e-003
2.562973e+003,-3.921974e-003
2.564902e+003,-3.889925e-003
2.566830e+003,-3.771099e-003
2.568759e+003,-3.835672e-003
2.570687e+003,-3.858957e-003
2.572616e+003,-3.765974e-003
2.574544e+003,-3.667386e-003
2.576473e+003,-3.738841e-003
2.578401e+003,-3.803715e-003
2.580330e+003,-3.831107e-003
2.582258e+003,-3.857775e-003
2.584187e+003,-3.846050e-003
2.586115e+003,-3.866872e-003
2.588044e+003,-3.936389e-003
2.589972e+003,-3.922631e-003
2.591901e+003,-3.836395e-003
2.593829e+003,-3.900729e-003
2.595758e+003,-3.945517e-003
2.597686e+003,-3.886477e-003
2.599615e+003,-3.818725e-003
2.601543e+003,-3.737199e-003
2.603472e+003,-3.732008e-003
2.605400e+003,-3.760653e-003
2.607329e+003,-3.701456e-003
2.609257e+003,-3.657300e-003
2.611186e+003,-3.645406e-003
2.613114e+003,-3.588296e-003
2.615043e+003,-3.574560e-003
2.616971e+003,-3.662754e-003
2.618900e+003,-3.600586e-003
2.620828e+003,-3.463405e-003
2.622757e+003,-3.416068e-003
2.624685e+003,-3.419652e-003
2.626614e+003,-3.478986e-003
2.628542e+003,-3.440921e-003
2.630471e+003,-3.345383e-003
2.632399e+003,-3.304018e-003
2.634328e+003,-3.310890e-003
2.636256e+003,-3.286590e-003
2.638185e+003,-3.173585e-003
2.640113e+003,-3.127861e-003
2.642042e+003,-3.129967e-003
2.643970e+003,-2.966278e-003
2.645899e+003,-2.854144e-003
2.647827e+003,-2.896901e-003
2.649756e+003,-2.892984e-003
2.651684e+003,-2.860892e-003
2.653613e+003,-2.792387e-003
2.655541e+003,-2.681295e-003
2.657470e+003,-2.733618e-003
2.659398e+003,-2.810296e-003
2.661327e+003,-2.747974e-003
2.663255e+003,-2.671910e-003
2.665184e+003,-2.633972e-003
2.667112e+003,-2.560623e-003
2.669041e+003,-2.491807e-003
2.670969e+003,-2.422882e-003
2.672898e+003,-2.434315e-003
2.674826e+003,-2.515098e-003
2.676755e+003,-2.505051e-003
2.678683e+003,-2.457478e-003
2.680612e+003,-2.377079e-003
2.682540e+003,-2.292909e-003
2.684469e+003,-2.270166e-003
2.686397e+003,-2.204733e-003
2.688326e+003,-2.112879e-003
2.690254e+003,-1.988255e-003
2.692183e+003,-2.096623e-003
2.694111e+003,-2.283944e-003
2.696040e+003,-2.297194e-003
2.697968e+003,-2.128871e-003
2.699897e+003,-1.959692e-003
2.701825e+003,-1.935414e-003
2.703754e+003,-1.829712e-003
2.705682e+003,-1.656752e-003
2.707611e+003,-1.631995e-003
2.709539e+003,-1.639356e-003
2.711468e+003,-1.619649e-003
2.713396e+003,-1.586869e-003
2.715325e+003,-1.509677e-003
2.717253e+003,-1.462457e-003
2.719182e+003,-1.378571e-003
2.721110e+003,-1.394293e-003
2.723039e+003,-1.389108e-003
2.724967e+003,-1.218285e-003
2.726896e+003,-1.108310e-003
2.728824e+003,-1.037809e-003
2.730753e+003,-8.719079e-004
2.732681e+003,-7.839392e-004
2.734610e+003,-7.104420e-004
2.736538e+003,-7.159332e-004
2.738467e+003,-6.863261e-004
2.740395e+003,-4.525739e-004
2.742324e+003,-3.680957e-004
2.744252e+003,-3.589583e-004
2.746181e+003,-2.704883e-004
2.748109e+003,-2.378704e-004
2.750038e+003,-9.922512e-005
2.751966e+003,6.501385e-005
2.753895e+003,1.978553e-004
2.755823e+003,3.068965e-004
2.757752e+003,4.048547e-004
2.759680e+003,4.771603e-004
2.761609e+003,7.453931e-004
2.763537e+003,1.164731e-003
2.765466e+003,1.383959e-003
2.767394e+003,1.638184e-003
2.769323e+003,1.939917e-003
2.771251e+003,2.275600e-003
2.773180e+003,2.630210e-003
2.775108e+003,3.066922e-003
2.777037e+003,3.488575e-003
2.778965e+003,3.849392e-003
2.780894e+003,4.388468e-003
2.782822e+003,5.092221e-003
2.784750e+003,5.637208e-003
2.786679e+003,6.160428e-003
2.788608e+003,6.617258e-003
2.790536e+003,7.059044e-003
2.792465e+003,7.499257e-003
2.794393e+003,8.042717e-003
2.796322e+003,8.639853e-003
2.798250e+003,9.022467e-003
2.800178e+003,9.306526e-003
2.802107e+003,9.652120e-003
2.804036e+003,9.934625e-003
2.805964e+003,9.951982e-003
2.807893e+003,1.004709e-002
2.809821e+003,1.015999e-002
2.811750e+003,1.012997e-002
2.813678e+003,9.894148e-003
2.815606e+003,9.690302e-003
2.817535e+003,9.519369e-003
2.819464e+003,9.292308e-003
2.821392e+003,9.064587e-003
2.823321e+003,8.733928e-003
2.825249e+003,8.301548e-003
2.827177e+003,7.869968e-003
2.829106e+003,7.420717e-003
2.831034e+003,6.856692e-003
2.832963e+003,6.430279e-003
2.834892e+003,6.120840e-003
2.836820e+003,5.675543e-003
2.838749e+003,5.178858e-003
2.840677e+003,4.648646e-003
2.842605e+003,4.294627e-003
2.844534e+003,3.821078e-003
2.846462e+003,3.212868e-003
2.848391e+003,2.669647e-003
2.850320e+003,2.329762e-003
2.852248e+003,2.245324e-003
2.854177e+003,2.202328e-003
2.856105e+003,2.150280e-003
2.858033e+003,2.150646e-003
2.859962e+003,2.292921e-003
2.861890e+003,2.282961e-003
2.863819e+003,2.337091e-003
2.865748e+003,2.463498e-003
2.867676e+003,2.469763e-003
2.869604e+003,2.569777e-003
2.871533e+003,2.600809e-003
2.873461e+003,2.727560e-003
2.875390e+003,2.921658e-003
2.877319e+003,3.007629e-003
2.879247e+003,3.124086e-003
2.881176e+003,3.113641e-003
2.883104e+003,3.149851e-003
2.885032e+003,3.304606e-003
2.886961e+003,3.171112e-003
2.888889e+003,2.985743e-003
2.890818e+003,2.893438e-003
2.892747e+003,2.727293e-003
2.894675e+003,2.514551e-003
2.896604e+003,2.477727e-003
2.898532e+003,2.429178e-003
2.900460e+003,2.393427e-003
2.902389e+003,2.369006e-003
2.904317e+003,2.243326e-003
2.906246e+003,2.174522e-003
2.908175e+003,2.136195e-003
2.910103e+003,2.114419e-003
2.912031e+003,1.966710e-003
2.913960e+003,1.696957e-003
2.915888e+003,1.645402e-003
2.917817e+003,1.721607e-003
2.919745e+003,1.915655e-003
2.921674e+003,2.095640e-003
2.923603e+003,2.311108e-003
2.925531e+003,2.506053e-003
2.927459e+003,2.626043e-003
2.929388e+003,2.731394e-003
2.931316e+003,2.870190e-003
2.933245e+003,3.057812e-003
2.935173e+003,3.132663e-003
2.937102e+003,3.029617e-003
2.939031e+003,2.952148e-003
2.940959e+003,2.768640e-003
2.942887e+003,2.572677e-003
2.944816e+003,2.443838e-003
2.946744e+003,2.228638e-003
2.948673e+003,1.749185e-003
2.950601e+003,1.120347e-003
2.952530e+003,5.862053e-004
2.954458e+003,1.398813e-004
2.956387e+003,-3.475033e-004
2.958315e+003,-7.436198e-004
2.960244e+003,-1.342634e-003
2.962172e+003,-1.965761e-003
2.964101e+003,-2.419323e-003
2.966029e+003,-2.815893e-003
2.967958e+003,-3.103188e-003
2.969886e+003,-3.417811e-003
2.971815e+003,-3.633807e-003
2.973743e+003,-3.746988e-003
2.975672e+003,-3.914685e-003
2.977600e+003,-4.190294e-003
2.979529e+003,-4.304511e-003
2.981457e+003,-4.365233e-003
2.983386e+003,-4.523346e-003
2.985314e+003,-4.643016e-003
2.987243e+003,-4.674977e-003
2.989171e+003,-4.633214e-003
2.991100e+003,-4.714671e-003
2.993028e+003,-4.793687e-003
2.994957e+003,-4.767044e-003
2.996885e+003,-4.698840e-003
2.998814e+003,-4.679008e-003
3.000742e+003,-4.697758e-003
3.002671e+003,-4.691005e-003
3.004599e+003,-4.682647e-003
3.006528e+003,-4.582136e-003
3.008456e+003,-4.557775e-003
3.010385e+003,-4.657407e-003
3.012313e+003,-4.708214e-003
3.014242e+003,-4.768683e-003
3.016170e+003,-4.770420e-003
3.018099e+003,-4.686449e-003
3.020027e+003,-4.659799e-003
3.021956e+003,-4.644786e-003
3.023884e+003,-4.664258e-003
3.025813e+003,-4.621019e-003
3.027741e+003,-4.652785e-003
3.029670e+003,-4.670060e-003
3.031598e+003,-4.685302e-003
3.033527e+003,-4.732271e-003
3.035455e+003,-4.663536e-003
3.037384e+003,-4.520559e-003
3.039312e+003,-4.443591e-003
3.041241e+003,-4.621445e-003
3.043169e+003,-4.715326e-003
3.045098e+003,-4.576267e-003
3.047026e+003,-4.576661e-003
3.048955e+003,-4.653407e-003
3.050883e+003,-4.573185e-003
3.052812e+003,-4.440443e-003
3.054740e+003,-4.488914e-003
3.056669e+003,-4.534921e-003
3.058597e+003,-4.571021e-003
3.060526e+003,-4.694283e-003
3.062454e+003,-4.624920e-003
3.064383e+003,-4.483110e-003
3.066311e+003,-4.417124e-003
3.068240e+003,-4.277281e-003
3.070168e+003,-4.270095e-003
3.072097e+003,-4.411942e-003
3.074025e+003,-4.502491e-003
3.075954e+003,-4.504163e-003
3.077882e+003,-4.418042e-003
3.079811e+003,-4.406202e-003
3.081739e+003,-4.339154e-003
3.083668e+003,-4.253657e-003
3.085596e+003,-4.260974e-003
3.087525e+003,-4.284466e-003
3.089453e+003,-4.237612e-003
3.091382e+003,-4.238826e-003
3.093310e+003,-4.148321e-003
3.095239e+003,-4.054481e-003
3.097167e+003,-4.032126e-003
3.099096e+003,-4.000839e-003
3.101024e+003,-3.980878e-003
3.102953e+003,-3.983505e-003
3.104881e+003,-4.099089e-003
3.106810e+003,-4.006125e-003
3.108738e+003,-3.834457e-003
3.110667e+003,-3.768405e-003
3.112595e+003,-3.722350e-003
3.114524e+003,-3.696890e-003
3.116452e+003,-3.783416e-003
3.118381e+003,-3.712922e-003
3.120309e+003,-3.631803e-003
3.122238e+003,-3.651353e-003
3.124166e+003,-3.580311e-003
3.126095e+003,-3.529668e-003
3.128023e+003,-3.678262e-003
3.129952e+003,-3.650728e-003
3.131880e+003,-3.538870e-003
3.133809e+003,-3.514253e-003
3.135737e+003,-3.431716e-003
3.137666e+003,-3.371784e-003
3.139594e+003,-3.357252e-003
3.141523e+003,-3.347323e-003
3.143451e+003,-3.214699e-003
3.145380e+003,-3.158750e-003
3.147308e+003,-3.295534e-003
3.149237e+003,-3.328055e-003
3.151165e+003,-3.176315e-003
3.153094e+003,-2.967462e-003
3.155022e+003,-2.946664e-003
3.156951e+003,-2.938206e-003
3.158879e+003,-2.880839e-003
3.160808e+003,-2.801177e-003
3.162736e+003,-2.702238e-003
3.164665e+003,-2.675961e-003
3.166593e+003,-2.639373e-003
3.168522e+003,-2.714125e-003
3.170450e+003,-2.675039e-003
3.172379e+003,-2.671745e-003
3.174307e+003,-2.720513e-003
3.176236e+003,-2.585030e-003
3.178164e+003,-2.431020e-003
3.180093e+003,-2.443112e-003
3.182021e+003,-2.518261e-003
3.183950e+003,-2.495563e-003
3.185878e+003,-2.463770e-003
3.187807e+003,-2.297754e-003
3.189735e+003,-2.263574e-003
3.191664e+003,-2.419488e-003
3.193592e+003,-2.403276e-003
3.195521e+003,-2.385449e-003
3.197449e+003,-2.405781e-003
3.199378e+003,-2.533414e-003
3.201306e+003,-2.537268e-003
3.203235e+003,-2.505413e-003
3.205163e+003,-2.575247e-003
3.207092e+003,-2.580616e-003
3.209020e+003,-2.415204e-003
3.210948e+003,-2.278241e-003
3.212877e+003,-2.254773e-003
3.214806e+003,-2.361624e-003
3.216734e+003,-2.521324e-003
3.218663e+003,-2.464891e-003
3.220591e+003,-2.315947e-003
3.222520e+003,-2.237962e-003
3.224448e+003,-2.285130e-003
3.226376e+003,-2.263046e-003
3.228305e+003,-2.024469e-003
3.230234e+003,-1.867060e-003
3.232162e+003,-1.906055e-003
3.234091e+003,-1.907473e-003
3.236019e+003,-1.936667e-003
3.237948e+003,-1.937789e-003
3.239876e+003,-1.786387e-003
3.241804e+003,-1.527804e-003
3.243733e+003,-1.494257e-003
3.245662e+003,-1.524601e-003
3.247590e+003,-1.302697e-003
3.249519e+003,-1.129990e-003
3.251447e+003,-1.058931e-003
3.253375e+003,-1.181079e-003
3.255304e+003,-1.133922e-003
3.257232e+003,-9.257386e-004
3.259161e+003,-8.881107e-004
3.261090e+003,-8.867881e-004
3.263018e+003,-9.428321e-004
3.264947e+003,-9.694794e-004
3.266875e+003,-1.046866e-003
3.268803e+003,-1.006571e-003
3.270732e+003,-9.010725e-004
3.272660e+003,-8.424437e-004
3.274589e+003,-7.144446e-004
3.276518e+003,-7.745460e-004
3.278446e+003,-8.237919e-004
3.280375e+003,-7.254269e-004
3.282303e+003,-7.141138e-004
3.284231e+003,-6.921153e-004
3.286160e+003,-7.625066e-004
3.288088e+003,-9.321859e-004
3.290017e+003,-1.033116e-003
3.291946e+003,-9.274248e-004
3.293874e+003,-9.411129e-004
3.295802e+003,-1.136302e-003
3.297731e+003,-1.122323e-003
3.299659e+003,-1.048056e-003
3.301588e+003,-1.248021e-003
3.303516e+003,-1.482336e-003
3.305445e+003,-1.540648e-003
3.307374e+003,-1.518592e-003
3.309302e+003,-1.574720e-003
3.311230e+003,-1.734874e-003
3.313159e+003,-1.829085e-003
3.315087e+003,-1.936503e-003
3.317016e+003,-1.952171e-003
3.318944e+003,-2.012530e-003
3.320873e+003,-2.143972e-003
3.322802e+003,-2.174469e-003
3.324730e+003,-2.220095e-003
3.326658e+003,-2.262519e-003
3.328587e+003,-2.213337e-003
3.330515e+003,-2.328965e-003
3.332444e+003,-2.449966e-003
3.334372e+003,-2.441201e-003
3.336301e+003,-2.321846e-003
3.338229e+003,-2.204634e-003
3.340158e+003,-2.234830e-003
3.342086e+003,-2.320330e-003
3.344015e+003,-2.324911e-003
3.345943e+003,-2.168007e-003
3.347872e+003,-2.130355e-003
3.349800e+003,-2.144994e-003
3.351729e+003,-2.071265e-003
3.353657e+003,-2.082378e-003
3.355586e+003,-2.136916e-003
3.357514e+003,-2.116902e-003
3.359443e+003,-2.275934e-003
3.361371e+003,-2.368775e-003
3.363300e+003,-2.185678e-003
3.365229e+003,-2.227446e-003
3.367157e+003,-2.582461e-003
3.369085e+003,-2.856580e-003
3.371014e+003,-2.970490e-003
3.372942e+003,-2.965126e-003
3.374871e+003,-3.066374e-003
3.376799e+003,-3.039328e-003
3.378728e+003,-3.096543e-003
3.380656e+003,-3.390787e-003
3.382585e+003,-3.609623e-003
3.384513e+003,-3.675436e-003
3.386442e+003,-3.770179e-003
3.388370e+003,-3.942956e-003
3.390299e+003,-4.020176e-003
3.392227e+003,-3.954875e-003
3.394156e+003,-4.021029e-003
3.396084e+003,-4.150191e-003
3.398013e+003,-4.253099e-003
3.399941e+003,-4.351882e-003
3.401870e+003,-4.275016e-003
3.403798e+003,-4.215135e-003
3.405727e+003,-4.209294e-003
3.407655e+003,-4.267634e-003
3.409584e+003,-4.383241e-003
3.411512e+003,-4.444936e-003
3.413441e+003,-4.577841e-003
3.415369e+003,-4.539413e-003
3.417298e+003,-4.436737e-003
3.419226e+003,-4.457399e-003
3.421155e+003,-4.404562e-003
3.423083e+003,-4.397904e-003
3.425012e+003,-4.376320e-003
3.426940e+003,-4.350439e-003
3.428869e+003,-4.323670e-003
3.430797e+003,-4.323572e-003
3.432726e+003,-4.423060e-003
3.434654e+003,-4.393705e-003
3.436583e+003,-4.410400e-003
3.438511e+003,-4.493243e-003
3.440440e+003,-4.452873e-003
3.442368e+003,-4.619084e-003
3.444297e+003,-4.778711e-003
3.446225e+003,-4.603315e-003
3.448154e+003,-4.434704e-003
3.450082e+003,-4.451856e-003
3.452011e+003,-4.471894e-003
3.453939e+003,-4.435753e-003
3.455868e+003,-4.316551e-003
3.457796e+003,-4.306152e-003
3.459725e+003,-4.411745e-003
3.461653e+003,-4.391016e-003
3.463582e+003,-4.118749e-003
3.465510e+003,-4.184781e-003
3.467439e+003,-4.306512e-003
3.469367e+003,-4.345322e-003
3.471296e+003,-4.366381e-003
3.473224e+003,-4.325278e-003
3.475153e+003,-4.318815e-003
3.477081e+003,-4.337875e-003
3.479010e+003,-4.377501e-003
3.480938e+003,-4.494784e-003
3.482867e+003,-4.544200e-003
3.484795e+003,-4.310515e-003
3.486724e+003,-4.179859e-003
3.488652e+003,-4.264878e-003
3.490581e+003,-4.263632e-003
3.492509e+003,-4.307136e-003
3.494438e+003,-4.323309e-003
3.496366e+003,-4.215135e-003
3.498295e+003,-4.232788e-003
3.500223e+003,-4.290207e-003
3.502152e+003,-4.180580e-003
3.504080e+003,-4.076178e-003
3.506009e+003,-4.210541e-003
3.507937e+003,-4.212444e-003
3.509866e+003,-4.098433e-003
3.511794e+003,-4.081200e-003
3.513723e+003,-4.151668e-003
3.515651e+003,-4.237284e-003
3.517580e+003,-4.205455e-003
3.519508e+003,-4.193609e-003
3.521437e+003,-4.296309e-003
3.523365e+003,-4.172737e-003
3.525294e+003,-4.145728e-003
3.527222e+003,-4.144907e-003
3.529151e+003,-4.083826e-003
3.531079e+003,-4.283842e-003
3.533008e+003,-4.286368e-003
3.534936e+003,-4.113531e-003
3.536865e+003,-4.130729e-003
3.538793e+003,-4.326688e-003
3.540722e+003,-4.333217e-003
3.542650e+003,-4.321669e-003
3.544579e+003,-4.152554e-003
3.546507e+003,-3.942825e-003
3.548436e+003,-4.023295e-003
3.550364e+003,-4.143463e-003
3.552293e+003,-4.148386e-003
3.554221e+003,-4.028974e-003
3.556150e+003,-4.005337e-003
3.558078e+003,-4.095512e-003
3.560007e+003,-4.079067e-003
3.561935e+003,-4.115631e-003
3.563864e+003,-4.070499e-003
3.565792e+003,-3.761146e-003
3.567721e+003,-3.765055e-003
3.569649e+003,-3.988429e-003
3.571578e+003,-3.944401e-003
3.573506e+003,-3.710327e-003
3.575435e+003,-3.771788e-003
3.577363e+003,-3.926276e-003
3.579292e+003,-4.095610e-003
3.581220e+003,-4.169652e-003
3.583149e+003,-4.102372e-003
3.585077e+003,-3.881223e-003
3.587006e+003,-3.661407e-003
3.588934e+003,-3.796095e-003
3.590863e+003,-4.033767e-003
3.592791e+003,-3.916753e-003
3.594720e+003,-3.842701e-003
3.596648e+003,-3.823619e-003
3.598577e+003,-3.833767e-003
3.600505e+003,-3.849696e-003
3.602434e+003,-3.893570e-003
3.604362e+003,-3.924174e-003
3.606291e+003,-3.874556e-003
3.608219e+003,-3.644979e-003
3.610148e+003,-3.542748e-003
3.612076e+003,-3.708454e-003
3.614005e+003,-3.888513e-003
3.615933e+003,-3.843226e-003
3.617862e+003,-3.594770e-003
3.619790e+003,-3.828282e-003
3.621719e+003,-4.343222e-003
3.623647e+003,-4.410761e-003
3.625576e+003,-4.093674e-003
3.627504e+003,-3.387960e-003
3.629433e+003,-3.105129e-003
3.631361e+003,-3.743769e-003
3.633290e+003,-3.997786e-003
3.635218e+003,-4.054087e-003
3.637146e+003,-3.920431e-003
3.639075e+003,-3.900794e-003
3.641004e+003,-4.061965e-003
3.642932e+003,-4.102798e-003
3.644861e+003,-3.958880e-003
3.646789e+003,-3.521287e-003
3.648718e+003,-3.057030e-003
3.650646e+003,-3.149441e-003
3.652574e+003,-3.916392e-003
3.654503e+003,-3.968731e-003
3.656432e+003,-3.632624e-003
3.658360e+003,-3.974969e-003
3.660289e+003,-4.250507e-003
3.662217e+003,-4.200139e-003
3.664146e+003,-4.227440e-003
3.666074e+003,-4.328788e-003
3.668002e+003,-4.110938e-003
3.669931e+003,-3.881453e-003
3.671860e+003,-4.059503e-003
3.673788e+003,-3.784829e-003
3.675717e+003,-3.348408e-003
3.677645e+003,-3.742126e-003
3.679573e+003,-4.025363e-003
3.681502e+003,-4.191312e-003
3.683430e+003,-4.347519e-003
3.685359e+003,-4.372023e-003
3.687288e+003,-3.913141e-003
3.689216e+003,-3.621387e-003
3.691145e+003,-3.845229e-003
3.693073e+003,-4.119209e-003
3.695001e+003,-4.303888e-003
3.696930e+003,-4.274787e-003
3.698858e+003,-4.237054e-003
3.700787e+003,-3.925882e-003
3.702716e+003,-3.904374e-003
3.704644e+003,-4.129088e-003
3.706573e+003,-4.089965e-003
3.708501e+003,-3.859089e-003
3.710429e+003,-3.420769e-003
3.712358e+003,-3.448975e-003
3.714286e+003,-3.996999e-003
3.716215e+003,-4.176839e-003
3.718144e+003,-4.067053e-003
3.720072e+003,-4.037871e-003
3.722000e+003,-3.848284e-003
3.723929e+003,-3.897445e-003
3.725857e+003,-3.957009e-003
3.727786e+003,-4.195446e-003
3.729714e+003,-4.220648e-003
3.731643e+003,-3.730464e-003
3.733572e+003,-3.407422e-003
3.735500e+003,-3.322301e-003
3.737428e+003,-3.652174e-003
3.739357e+003,-3.815047e-003
3.741285e+003,-3.586160e-003
3.743214e+003,-2.749324e-003
3.745142e+003,-2.576269e-003
3.747071e+003,-3.343739e-003
3.749000e+003,-2.655444e-003
3.750928e+003,-2.128541e-003
3.752856e+003,-2.603870e-003
3.754785e+003,-3.231670e-003
3.756713e+003,-3.419093e-003
3.758642e+003,-3.437798e-003
3.760570e+003,-3.311449e-003
3.762499e+003,-3.496242e-003
3.764427e+003,-3.573016e-003
3.766356e+003,-3.381549e-003
3.768284e+003,-3.381319e-003
3.770213e+003,-3.280802e-003
3.772141e+003,-3.371455e-003
3.774070e+003,-3.657267e-003
3.775998e+003,-3.744886e-003
3.777927e+003,-3.517047e-003
3.779855e+003,-3.280440e-003
3.781784e+003,-3.452788e-003
3.783712e+003,-3.532856e-003
3.785641e+003,-3.482930e-003
3.787569e+003,-3.668964e-003
3.789498e+003,-3.798263e-003
3.791426e+003,-3.726194e-003
3.793355e+003,-3.658647e-003
3.795283e+003,-3.297704e-003
3.797212e+003,-3.374447e-003
3.799140e+003,-3.442466e-003
3.801069e+003,-2.910725e-003
3.802997e+003,-3.166249e-003
3.804926e+003,-3.394930e-003
3.806854e+003,-2.877811e-003
3.808783e+003,-3.211410e-003
3.810711e+003,-3.472149e-003
3.812640e+003,-3.553560e-003
3.814568e+003,-3.321215e-003
3.816497e+003,-3.024357e-003
3.818425e+003,-3.139408e-003
3.820354e+003,-2.627023e-003
3.822282e+003,-2.701942e-003
3.824211e+003,-3.283005e-003
3.826139e+003,-3.219797e-003
3.828068e+003,-3.209831e-003
3.829996e+003,-3.278072e-003
3.831925e+003,-3.365340e-003
3.833853e+003,-3.383390e-003
3.835782e+003,-3.065288e-003
3.837710e+003,-2.712479e-003
3.839639e+003,-2.921026e-003
3.841567e+003,-3.127269e-003
3.843496e+003,-3.182794e-003
3.845424e+003,-3.477178e-003
3.847353e+003,-3.740418e-003
3.849281e+003,-3.653259e-003
3.851210e+003,-2.847330e-003
3.853138e+003,-1.979746e-003
3.855067e+003,-2.298215e-003
3.856995e+003,-3.059530e-003
3.858924e+003,-3.397001e-003
3.860852e+003,-3.266234e-003
3.862781e+003,-3.052325e-003
3.864709e+003,-3.170526e-003
3.866638e+003,-3.505182e-003
3.868566e+003,-3.135987e-003
3.870495e+003,-2.791367e-003
3.872423e+003,-2.800157e-003
3.874352e+003,-2.853650e-003
3.876280e+003,-3.324010e-003
3.878209e+003,-3.554119e-003
3.880137e+003,-3.336341e-003
3.882066e+003,-3.323090e-003
3.883994e+003,-3.255710e-003
3.885923e+003,-2.994742e-003
3.887851e+003,-3.247817e-003
3.889780e+003,-2.995105e-003
3.891708e+003,-2.731577e-003
3.893637e+003,-3.035742e-003
3.895565e+003,-3.393187e-003
3.897494e+003,-3.251238e-003
3.899422e+003,-3.026266e-003
3.901351e+003,-3.204207e-003
3.903279e+003,-3.177236e-003
3.905208e+003,-2.969042e-003
3.907136e+003,-3.422216e-003
3.909065e+003,-3.694886e-003
3.910993e+003,-3.621419e-003
3.912922e+003,-3.581888e-003
3.914850e+003,-3.478460e-003
3.916779e+003,-3.354556e-003
3.918707e+003,-3.372409e-003
3.920636e+003,-3.447035e-003
3.922564e+003,-3.349328e-003
3.924493e+003,-3.237063e-003
3.926421e+003,-3.349525e-003
3.928350e+003,-3.516883e-003
3.930278e+003,-3.581231e-003
3.932207e+003,-3.570189e-003
3.934135e+003,-3.585174e-003
3.936064e+003,-3.440263e-003
3.937992e+003,-3.241273e-003
3.939921e+003,-3.228644e-003
3.941849e+003,-3.211936e-003
3.943778e+003,-3.356266e-003
3.945706e+003,-3.337261e-003
3.947635e+003,-3.143849e-003
3.949563e+003,-3.212429e-003
3.951492e+003,-3.554349e-003
3.953420e+003,-3.604431e-003
3.955349e+003,-3.678262e-003
3.957277e+003,-3.711673e-003
3.959206e+003,-3.727803e-003
3.961134e+003,-3.723336e-003
3.963063e+003,-3.475074e-003
3.964991e+003,-3.436647e-003
3.966920e+003,-3.381911e-003
3.968848e+003,-3.204832e-003
3.970777e+003,-3.368694e-003
3.972705e+003,-3.361954e-003
3.974634e+003,-3.258012e-003
3.976562e+003,-3.417745e-003
3.978491e+003,-3.664495e-003
3.980419e+003,-3.679838e-003
3.982348e+003,-3.492856e-003
3.984276e+003,-3.416068e-003
3.986205e+003,-3.517902e-003
3.988133e+003,-3.570945e-003
3.990062e+003,-3.480366e-003
3.991990e+003,-3.490950e-003
3.993919e+003,-3.674516e-003
3.995847e+003,-3.810284e-003
3.997776e+003,-3.584550e-003
3.999704e+003,-3.526315e-003
4.001633e+003,0.000000e+000
