3.991989e+002,-5.273344e-003
4.011274e+002,7.844192e-003
4.030559e+002,5.185732e-003
4.049844e+002,-6.436564e-003
4.069129e+002,-2.641086e-003
4.088414e+002,1.210262e-002
4.107699e+002,1.821017e-002
4.126984e+002,1.066607e-002
4.146269e+002,6.764706e-003
4.165554e+002,7.734861e-003
4.184839e+002,5.241935e-003
4.204124e+002,3.675462e-003
4.223409e+002,4.922016e-003
4.242694e+002,7.746430e-003
4.261979e+002,9.133273e-003
4.281264e+002,3.510520e-003
4.300549e+002,2.373237e-003
4.319834e+002,8.010383e-003
4.339119e+002,1.145478e-002
4.358404e+002,8.422237e-003
4.377689e+002,4.565597e-003
4.396974e+002,5.471553e-003
4.416259e+002,7.217254e-003
4.435544e+002,6.613457e-003
4.454829e+002,6.505310e-003
4.474114e+002,7.106632e-003
4.493399e+002,9.996396e-003
4.512684e+002,1.112855e-002
4.531969e+002,7.581183e-003
4.551254e+002,3.975337e-003
4.570539e+002,4.261700e-003
4.589824e+002,5.892693e-003
4.609109e+002,5.005970e-003
4.628394e+002,5.397236e-003
4.647679e+002,7.336935e-003
4.666964e+002,9.058159e-003
4.686249e+002,6.529459e-003
4.705533e+002,5.098491e-003
4.724819e+002,6.830976e-003
4.744103e+002,7.958882e-003
4.763389e+002,9.224172e-003
4.782673e+002,8.751542e-003
4.801959e+002,7.354761e-003
4.821243e+002,8.044945e-003
4.840529e+002,1.005445e-002
4.859813e+002,1.003688e-002
4.879099e+002,7.376431e-003
4.898383e+002,5.864078e-003
4.917668e+002,6.378696e-003
4.936953e+002,7.422571e-003
4.956238e+002,9.286825e-003
4.975523e+002,1.050765e-002
4.994808e+002,1.129893e-002
5.014093e+002,8.039714e-003
5.033378e+002,6.338886e-003
5.052663e+002,7.172820e-003
5.071948e+002,7.036650e-003
5.091233e+002,6.004988e-003
5.110518e+002,6.539113e-003
5.129803e+002,6.238875e-003
5.149088e+002,4.488925e-003
5.168373e+002,2.684516e-003
5.187658e+002,2.474228e-003
5.206943e+002,3.135300e-003
5.226228e+002,4.088007e-003
5.245513e+002,4.291046e-003
5.264798e+002,4.797370e-003
5.284083e+002,5.014953e-003
5.303368e+002,3.662296e-003
5.322653e+002,3.017539e-003
5.341938e+002,3.647260e-003
5.361223e+002,3.831875e-003
5.380508e+002,3.781937e-003
5.399792e+002,3.792700e-003
5.419078e+002,4.670750e-003
5.438363e+002,4.718413e-003
5.457648e+002,4.776331e-003
5.476932e+002,4.939241e-003
5.496218e+002,5.956815e-003
5.515503e+002,7.205564e-003
5.534788e+002,7.398776e-003
5.554072e+002,6.949944e-003
5.573358e+002,5.798056e-003
5.592643e+002,6.214472e-003
5.611927e+002,6.965803e-003
5.631212e+002,7.101681e-003
5.650497e+002,5.980229e-003
5.669783e+002,5.262728e-003
5.689067e+002,5.392473e-003
5.708352e+002,5.739498e-003
5.727637e+002,5.671044e-003
5.746923e+002,6.000218e-003
5.766207e+002,6.624155e-003
5.785492e+002,5.884431e-003
5.804777e+002,3.006061e-003
5.824063e+002,3.610106e-003
5.843347e+002,5.624922e-003
5.862632e+002,5.203739e-003
5.881917e+002,5.517692e-003
5.901202e+002,5.777103e-003
5.920487e+002,7.529767e-003
5.939772e+002,9.915776e-003
5.959057e+002,1.083878e-002
5.978342e+002,1.016365e-002
5.997627e+002,1.129505e-002
6.016912e+002,1.430869e-002
6.036197e+002,1.544312e-002
6.055482e+002,1.526648e-002
6.074767e+002,1.698658e-002
6.094052e+002,1.885935e-002
6.113337e+002,1.785352e-002
6.132622e+002,1.676522e-002
6.151907e+002,1.637666e-002
6.171192e+002,1.665810e-002
6.190477e+002,1.706332e-002
6.209762e+002,1.569287e-002
6.229047e+002,1.328791e-002
6.248332e+002,1.010331e-002
6.267617e+002,6.853899e-003
6.286902e+002,4.753250e-003
6.306187e+002,4.147347e-003
6.325472e+002,3.697450e-003
6.344756e+002,3.506779e-003
6.364042e+002,4.188126e-003
6.383326e+002,4.891219e-003
6.402612e+002,4.608861e-003
6.421896e+002,3.787084e-003
6.441182e+002,3.232329e-003
6.460466e+002,3.068557e-003
6.479752e+002,3.114675e-003
6.499036e+002,3.117145e-003
6.518322e+002,2.896240e-003
6.537606e+002,2.392494e-003
6.556891e+002,1.923975e-003
6.576177e+002,1.870230e-003
6.595461e+002,2.030388e-003
6.614746e+002,1.681756e-003
6.634031e+002,1.859581e-003
6.653317e+002,2.029756e-003
6.672601e+002,2.786714e-003
6.691886e+002,2.761804e-003
6.711171e+002,1.967143e-003
6.730457e+002,2.114285e-003
6.749741e+002,2.757136e-003
6.769026e+002,3.424950e-003
6.788311e+002,3.568912e-003
6.807596e+002,3.478121e-003
6.826881e+002,3.293722e-003
6.846166e+002,3.182327e-003
6.865451e+002,3.412160e-003
6.884736e+002,3.491848e-003
6.904021e+002,3.515130e-003
6.923306e+002,3.355992e-003
6.942591e+002,3.123018e-003
6.961876e+002,3.221948e-003
6.981161e+002,3.848422e-003
7.000446e+002,4.085733e-003
7.019731e+002,3.984065e-003
7.039016e+002,4.423379e-003
7.058301e+002,4.473659e-003
7.077585e+002,4.900803e-003
7.096871e+002,5.610187e-003
7.116156e+002,5.698203e-003
7.135441e+002,6.211144e-003
7.154725e+002,6.617797e-003
7.174011e+002,6.267817e-003
7.193296e+002,5.622338e-003
7.212581e+002,6.123193e-003
7.231865e+002,6.820003e-003
7.251151e+002,6.827476e-003
7.270436e+002,6.529897e-003
7.289720e+002,6.714228e-003
7.309005e+002,7.842572e-003
7.328290e+002,8.091291e-003
7.347576e+002,7.717929e-003
7.366860e+002,7.796590e-003
7.386145e+002,7.949332e-003
7.405430e+002,8.160229e-003
7.424716e+002,8.697148e-003
7.444000e+002,8.588852e-003
7.463285e+002,8.614741e-003
7.482570e+002,8.660574e-003
7.501855e+002,9.382834e-003
7.521140e+002,9.943269e-003
7.540425e+002,9.745161e-003
7.559710e+002,9.623222e-003
7.578995e+002,9.364585e-003
7.598280e+002,9.080759e-003
7.617565e+002,9.237947e-003
7.636850e+002,9.880251e-003
7.656135e+002,1.049937e-002
7.675420e+002,1.062329e-002
7.694705e+002,1.011749e-002
7.713990e+002,9.810769e-003
7.733275e+002,1.013380e-002
7.752560e+002,1.021507e-002
7.771844e+002,9.973680e-003
7.791130e+002,9.905572e-003
7.810415e+002,9.091654e-003
7.829700e+002,8.532890e-003
7.848984e+002,8.994862e-003
7.868270e+002,8.972977e-003
7.887555e+002,8.587906e-003
7.906840e+002,8.256462e-003
7.926124e+002,7.375690e-003
7.945410e+002,6.704772e-003
7.964695e+002,6.760499e-003
7.983979e+002,6.838314e-003
8.003264e+002,6.846089e-003
8.022549e+002,6.789072e-003
8.041835e+002,7.003851e-003
8.061119e+002,7.185621e-003
8.080404e+002,7.249394e-003
8.099689e+002,8.018618e-003
8.118975e+002,8.279664e-003
8.138259e+002,7.317760e-003
8.157545e+002,7.048739e-003
8.176830e+002,7.697524e-003
8.196115e+002,7.909851e-003
8.215399e+002,8.207431e-003
8.234684e+002,8.339005e-003
8.253970e+002,8.171100e-003
8.273254e+002,8.114078e-003
8.292539e+002,8.105605e-003
8.311824e+002,8.219013e-003
8.331110e+002,8.550732e-003
8.350394e+002,8.846047e-003
8.369679e+002,8.729263e-003
8.388964e+002,8.616397e-003
8.408250e+002,8.380720e-003
8.427534e+002,8.076169e-003
8.446819e+002,8.164180e-003
8.466104e+002,8.132376e-003
8.485389e+002,8.140005e-003
8.504674e+002,8.229954e-003
8.523959e+002,8.314247e-003
8.543244e+002,8.573577e-003
8.562529e+002,8.562392e-003
8.581814e+002,8.362986e-003
8.601099e+002,8.256091e-003
8.620384e+002,8.135853e-003
8.639669e+002,7.861433e-003
8.658954e+002,7.646162e-003
8.678239e+002,7.184341e-003
8.697524e+002,7.072852e-003
8.716809e+002,7.369152e-003
8.736094e+002,7.529362e-003
8.755378e+002,7.420481e-003
8.774664e+002,7.582565e-003
8.793949e+002,7.673714e-003
8.813234e+002,7.328038e-003
8.832518e+002,7.172786e-003
8.851804e+002,7.483649e-003
8.871089e+002,7.770582e-003
8.890374e+002,7.845136e-003
8.909658e+002,7.798614e-003
8.928943e+002,7.930772e-003
8.948229e+002,8.024288e-003
8.967513e+002,7.984362e-003
8.986798e+002,8.109217e-003
9.006083e+002,7.701436e-003
9.025369e+002,7.687507e-003
9.044653e+002,7.825501e-003
9.063938e+002,7.830494e-003
9.083223e+002,7.605056e-003
9.102509e+002,7.144222e-003
9.121793e+002,7.010215e-003
9.141078e+002,6.789543e-003
9.160364e+002,6.529560e-003
9.179648e+002,6.537498e-003
9.198933e+002,6.324900e-003
9.218218e+002,5.974048e-003
9.237504e+002,5.743963e-003
9.256788e+002,5.792415e-003
9.276073e+002,5.691321e-003
9.295358e+002,5.349164e-003
9.314644e+002,5.322564e-003
9.333928e+002,5.079683e-003
9.353213e+002,4.673631e-003
9.372498e+002,4.623864e-003
9.391783e+002,4.753384e-003
9.411068e+002,4.879625e-003
9.430353e+002,4.749632e-003
9.449637e+002,4.684951e-003
9.468923e+002,4.842566e-003
9.488208e+002,5.051122e-003
9.507493e+002,4.877414e-003
9.526777e+002,4.777906e-003
9.546063e+002,5.086086e-003
9.565348e+002,5.148412e-003
9.584633e+002,5.016294e-003
9.603917e+002,4.884082e-003
9.623203e+002,5.072073e-003
9.642488e+002,5.148144e-003
9.661772e+002,5.076062e-003
9.681057e+002,4.857644e-003
9.700343e+002,4.709704e-003
9.719628e+002,4.782529e-003
9.738912e+002,4.651828e-003
9.758197e+002,4.127042e-003
9.777483e+002,3.979751e-003
9.796768e+002,3.998578e-003
9.816052e+002,3.783675e-003
9.835337e+002,3.485736e-003
9.854623e+002,3.418371e-003
9.873907e+002,3.296360e-003
9.893192e+002,3.225620e-003
9.912477e+002,3.317227e-003
9.931763e+002,2.989146e-003
9.951047e+002,2.531382e-003
9.970332e+002,2.261444e-003
9.989617e+002,2.436208e-003
1.000890e+003,2.717223e-003
1.002819e+003,2.887468e-003
1.004747e+003,2.846410e-003
1.006676e+003,2.708188e-003
1.008604e+003,2.807990e-003
1.010533e+003,3.005461e-003
1.012461e+003,3.191005e-003
1.014390e+003,3.406316e-003
1.016318e+003,3.522713e-003
1.018247e+003,3.314489e-003
1.020175e+003,3.331985e-003
1.022104e+003,3.749083e-003
1.024032e+003,4.275186e-003
1.025961e+003,4.975805e-003
1.027889e+003,5.502725e-003
1.029818e+003,5.414481e-003
1.031746e+003,5.327663e-003
1.033675e+003,5.650064e-003
1.035603e+003,6.150111e-003
1.037532e+003,6.759860e-003
1.039460e+003,7.008801e-003
1.041389e+003,6.917119e-003
1.043317e+003,7.273485e-003
1.045246e+003,7.589848e-003
1.047174e+003,7.691318e-003
1.049103e+003,7.841864e-003
1.051031e+003,7.970964e-003
1.052960e+003,7.979603e-003
1.054888e+003,8.016188e-003
1.056817e+003,7.939680e-003
1.058745e+003,7.867573e-003
1.060674e+003,7.867471e-003
1.062602e+003,7.807250e-003
1.064531e+003,7.804349e-003
1.066459e+003,7.761677e-003
1.068388e+003,7.772370e-003
1.070316e+003,7.999515e-003
1.072245e+003,8.153342e-003
1.074173e+003,8.106246e-003
1.076102e+003,8.022297e-003
1.078030e+003,8.167994e-003
1.079959e+003,8.131768e-003
1.081887e+003,7.716378e-003
1.083816e+003,7.672297e-003
1.085744e+003,7.960874e-003
1.087673e+003,8.169143e-003
1.089601e+003,8.367174e-003
1.091530e+003,8.367546e-003
1.093458e+003,8.465684e-003
1.095387e+003,8.720473e-003
1.097315e+003,8.781329e-003
1.099244e+003,8.598654e-003
1.101172e+003,8.530254e-003
1.103101e+003,8.739270e-003
1.105029e+003,8.818928e-003
1.106958e+003,8.584864e-003
1.108886e+003,8.501262e-003
1.110815e+003,8.526233e-003
1.112743e+003,8.655368e-003
1.114672e+003,8.712259e-003
1.116600e+003,8.782580e-003
1.118529e+003,8.835564e-003
1.120457e+003,8.879087e-003
1.122386e+003,9.033496e-003
1.124314e+003,8.982279e-003
1.126243e+003,8.931508e-003
1.128171e+003,9.131514e-003
1.130100e+003,8.989992e-003
1.132028e+003,8.510994e-003
1.133957e+003,8.196592e-003
1.135885e+003,8.090988e-003
1.137814e+003,7.986994e-003
1.139742e+003,7.594873e-003
1.141671e+003,7.163220e-003
1.143599e+003,6.824547e-003
1.145528e+003,6.270439e-003
1.147456e+003,5.878486e-003
1.149385e+003,5.562158e-003
1.151313e+003,5.169771e-003
1.153242e+003,4.887667e-003
1.155170e+003,4.829030e-003
1.157099e+003,4.751709e-003
1.159027e+003,4.649651e-003
1.160956e+003,4.517517e-003
1.162884e+003,4.495654e-003
1.164813e+003,4.339002e-003
1.166741e+003,4.225163e-003
1.168670e+003,4.229780e-003
1.170598e+003,4.399882e-003
1.172526e+003,4.430710e-003
1.174455e+003,4.247681e-003
1.176384e+003,4.207330e-003
1.178312e+003,4.231721e-003
1.180240e+003,4.276624e-003
1.182169e+003,4.220412e-003
1.184098e+003,4.028609e-003
1.186026e+003,4.034093e-003
1.187954e+003,3.961862e-003
1.189883e+003,3.801758e-003
1.191812e+003,3.502437e-003
1.193740e+003,3.190838e-003
1.195668e+003,3.107634e-003
1.197597e+003,2.981873e-003
1.199526e+003,2.721024e-003
1.201454e+003,2.611876e-003
1.203382e+003,2.600909e-003
1.205311e+003,2.602976e-003
1.207240e+003,2.537914e-003
1.209168e+003,2.603509e-003
1.211096e+003,2.570177e-003
1.213025e+003,2.496722e-003
1.214953e+003,2.570644e-003
1.216882e+003,2.488558e-003
1.218810e+003,2.424546e-003
1.220739e+003,2.633210e-003
1.222667e+003,2.710455e-003
1.224596e+003,2.599609e-003
1.226524e+003,2.770240e-003
1.228453e+003,3.047535e-003
1.230381e+003,3.126957e-003
1.232310e+003,3.108535e-003
1.234238e+003,3.140072e-003
1.236167e+003,3.215639e-003
1.238095e+003,3.141341e-003
1.240024e+003,3.105832e-003
1.241952e+003,3.278031e-003
1.243881e+003,3.310449e-003
1.245809e+003,3.052240e-003
1.247738e+003,2.812359e-003
1.249666e+003,2.799286e-003
1.251595e+003,2.966326e-003
1.253523e+003,3.129159e-003
1.255452e+003,3.140106e-003
1.257380e+003,2.992249e-003
1.259309e+003,2.736562e-003
1.261237e+003,2.651645e-003
1.263166e+003,2.774175e-003
1.265094e+003,2.964125e-003
1.267023e+003,3.212201e-003
1.268951e+003,3.315090e-003
1.270880e+003,3.423214e-003
1.272808e+003,3.450733e-003
1.274737e+003,3.374692e-003
1.276665e+003,3.297328e-003
1.278594e+003,3.112172e-003
1.280522e+003,3.039594e-003
1.282451e+003,3.182026e-003
1.284379e+003,3.407685e-003
1.286308e+003,3.504207e-003
1.288236e+003,3.535974e-003
1.290165e+003,3.487373e-003
1.292093e+003,3.414063e-003
1.294022e+003,3.319431e-003
1.295950e+003,3.386145e-003
1.297879e+003,3.430628e-003
1.299807e+003,3.303137e-003
1.301736e+003,3.088545e-003
1.303664e+003,3.087778e-003
1.305593e+003,2.970830e-003
1.307521e+003,2.684250e-003
1.309450e+003,2.569777e-003
1.311378e+003,2.555412e-003
1.313307e+003,2.395592e-003
1.315235e+003,2.289956e-003
1.317164e+003,2.212686e-003
1.319092e+003,2.137759e-003
1.321021e+003,2.239529e-003
1.322949e+003,2.330062e-003
1.324878e+003,2.425712e-003
1.326806e+003,2.643311e-003
1.328735e+003,2.799719e-003
1.330663e+003,2.891404e-003
1.332592e+003,3.045099e-003
1.334520e+003,3.267949e-003
1.336449e+003,3.249488e-003
1.338377e+003,3.270186e-003
1.340306e+003,3.374658e-003
1.342234e+003,3.555316e-003
1.344163e+003,3.889475e-003
1.346091e+003,4.091151e-003
1.348020e+003,4.145607e-003
1.349948e+003,4.248517e-003
1.351877e+003,4.197360e-003
1.353805e+003,4.072287e-003
1.355734e+003,4.052354e-003
1.357662e+003,3.849358e-003
1.359591e+003,3.524049e-003
1.361519e+003,3.299231e-003
1.363448e+003,3.108101e-003
1.365376e+003,2.839172e-003
1.367305e+003,2.615942e-003
1.369233e+003,2.568310e-003
1.371162e+003,2.418648e-003
1.373090e+003,2.129402e-003
1.375019e+003,2.124707e-003
1.376947e+003,2.298350e-003
1.378876e+003,2.351116e-003
1.380804e+003,2.178418e-003
1.382733e+003,1.974000e-003
1.384661e+003,1.978527e-003
1.386590e+003,1.889198e-003
1.388518e+003,1.820749e-003
1.390447e+003,1.884972e-003
1.392375e+003,1.645202e-003
1.394304e+003,1.311070e-003
1.396232e+003,1.313429e-003
1.398161e+003,1.165395e-003
1.400089e+003,1.009707e-003
1.402018e+003,8.459401e-004
1.403946e+003,5.399897e-004
1.405875e+003,5.252601e-004
1.407803e+003,6.259553e-004
1.409732e+003,5.133839e-004
1.411660e+003,4.634611e-004
1.413589e+003,4.772930e-004
1.415517e+003,3.013592e-004
1.417446e+003,1.752481e-004
1.419374e+003,3.419453e-004
1.421303e+003,8.639010e-004
1.423231e+003,1.209617e-003
1.425160e+003,1.552417e-003
1.427088e+003,1.881111e-003
1.429017e+003,2.279597e-003
1.430945e+003,2.995151e-003
1.432874e+003,3.558155e-003
1.434802e+003,3.675462e-003
1.436731e+003,3.793736e-003
1.438659e+003,4.369391e-003
1.440588e+003,4.817271e-003
1.442516e+003,5.221512e-003
1.444445e+003,5.434141e-003
1.446373e+003,5.681921e-003
1.448302e+003,6.008415e-003
1.450230e+003,6.243614e-003
1.452159e+003,6.314714e-003
1.454087e+003,6.193801e-003
1.456016e+003,5.696323e-003
1.457944e+003,5.549909e-003
1.459873e+003,5.759878e-003
1.461801e+003,5.903072e-003
1.463730e+003,5.520679e-003
1.465658e+003,5.041803e-003
1.467587e+003,4.954288e-003
1.469515e+003,4.518287e-003
1.471444e+003,3.624940e-003
1.473372e+003,3.074163e-003
1.475301e+003,2.939038e-003
1.477229e+003,2.677048e-003
1.479158e+003,2.327730e-003
1.481086e+003,1.763058e-003
1.483015e+003,1.427738e-003
1.484943e+003,1.138685e-003
1.486872e+003,7.941202e-004
1.488800e+003,4.064798e-004
1.490729e+003,1.398482e-004
1.492657e+003,1.499906e-004
1.494586e+003,3.502409e-005
1.496514e+003,-1.097261e-004
1.498443e+003,-7.424704e-005
1.500371e+003,1.322249e-004
1.502300e+003,2.600143e-004
1.504228e+003,-3.360148e-004
1.506157e+003,-1.235235e-003
1.508085e+003,-9.442868e-004
1.510014e+003,-4.275168e-004
1.511942e+003,-1.065460e-004
1.513871e+003,1.974575e-004
1.515799e+003,1.100852e-004
1.517728e+003,3.485841e-005
1.519656e+003,-1.377826e-004
1.521585e+003,-4.076224e-004
1.523513e+003,-9.074465e-005
1.525442e+003,2.882671e-006
1.527370e+003,2.558701e-004
1.529299e+003,5.013754e-004
1.531227e+003,5.239995e-004
1.533156e+003,4.569599e-004
1.535084e+003,8.826594e-004
1.537013e+003,7.678308e-004
1.538941e+003,-2.186841e-006
1.540870e+003,-4.665022e-005
1.542798e+003,5.471224e-004
1.544727e+003,9.525541e-004
1.546655e+003,1.375549e-003
1.548584e+003,1.339552e-003
1.550512e+003,1.266073e-003
1.552441e+003,1.278668e-003
1.554369e+003,1.188885e-003
1.556298e+003,8.877061e-004
1.558226e+003,1.460131e-004
1.560155e+003,7.002889e-004
1.562083e+003,1.672709e-003
1.564012e+003,1.960220e-003
1.565940e+003,2.152078e-003
1.567869e+003,2.290855e-003
1.569797e+003,2.290689e-003
1.571726e+003,2.471996e-003
1.573654e+003,2.293853e-003
1.575583e+003,1.913392e-003
1.577511e+003,2.094408e-003
1.579440e+003,2.419981e-003
1.581368e+003,2.329696e-003
1.583297e+003,2.292554e-003
1.585225e+003,2.382599e-003
1.587154e+003,2.385331e-003
1.589082e+003,2.361110e-003
1.591010e+003,2.478760e-003
1.592939e+003,2.549845e-003
1.594868e+003,2.616876e-003
1.596796e+003,2.694818e-003
1.598724e+003,2.769040e-003
1.600653e+003,2.725259e-003
1.602582e+003,2.782979e-003
1.604510e+003,2.939238e-003
1.606438e+003,2.942974e-003
1.608367e+003,2.836004e-003
1.610296e+003,2.721458e-003
1.612224e+003,2.633243e-003
1.614152e+003,2.379900e-003
1.616081e+003,1.807906e-003
1.618010e+003,1.811799e-003
1.619938e+003,1.994537e-003
1.621866e+003,1.740968e-003
1.623795e+003,1.546864e-003
1.625724e+003,1.555210e-003
1.627652e+003,1.559799e-003
1.629580e+003,1.636787e-003
1.631509e+003,1.626876e-003
1.633438e+003,1.214701e-003
1.635366e+003,6.100946e-004
1.637294e+003,7.064951e-004
1.639223e+003,1.013493e-003
1.641151e+003,1.045211e-003
1.643080e+003,6.217081e-004
1.645008e+003,5.563562e-005
1.646937e+003,-1.997854e-004
1.648865e+003,1.106691e-005
1.650794e+003,-4.043121e-004
1.652722e+003,-1.324896e-003
1.654651e+003,-6.354434e-004
1.656579e+003,1.892034e-004
1.658508e+003,3.628035e-004
1.660436e+003,3.125001e-004
1.662365e+003,3.050065e-004
1.664293e+003,5.747587e-004
1.666222e+003,6.631205e-004
1.668150e+003,3.516614e-004
1.670079e+003,2.626004e-004
1.672007e+003,5.945996e-004
1.673936e+003,5.096685e-004
1.675864e+003,4.044899e-004
1.677793e+003,6.707199e-004
1.679721e+003,5.577719e-004
1.681650e+003,1.485322e-004
1.683578e+003,-7.244014e-004
1.685507e+003,-8.137050e-004
1.687435e+003,-4.961638e-004
1.689364e+003,-4.697853e-004
1.691292e+003,-3.544889e-004
1.693221e+003,-4.826603e-004
1.695149e+003,-1.019067e-003
1.697078e+003,-1.004753e-003
1.699006e+003,-1.328761e-003
1.700935e+003,-1.478010e-003
1.702863e+003,-9.276894e-004
1.704792e+003,-1.052783e-003
1.706720e+003,-8.237258e-004
1.708649e+003,-3.907396e-004
1.710577e+003,-2.446591e-004
1.712506e+003,-4.066293e-004
1.714434e+003,-7.707755e-004
1.716363e+003,-1.209760e-003
1.718291e+003,-1.164953e-003
1.720220e+003,-7.235414e-004
1.722148e+003,-5.795582e-004
1.724077e+003,-5.415032e-004
1.726005e+003,-4.345012e-004
1.727934e+003,-5.480224e-004
1.729862e+003,-6.508941e-004
1.731791e+003,-9.699423e-004
1.733719e+003,-1.507101e-003
1.735648e+003,-1.126817e-003
1.737576e+003,-9.197541e-004
1.739505e+003,-1.086893e-003
1.741433e+003,-8.687003e-004
1.743362e+003,-8.237919e-004
1.745290e+003,-7.687578e-004
1.747219e+003,-7.996162e-004
1.749147e+003,-8.919464e-004
1.751076e+003,-8.195587e-004
1.753004e+003,-4.236109e-004
1.754933e+003,-3.649506e-004
1.756861e+003,-6.219111e-004
1.758790e+003,-6.061947e-004
1.760718e+003,-6.119189e-004
1.762647e+003,-5.071185e-004
1.764575e+003,-2.839653e-004
1.766504e+003,-4.256300e-004
1.768432e+003,-5.052983e-004
1.770361e+003,-7.679310e-004
1.772289e+003,-1.020587e-003
1.774218e+003,-6.704465e-004
1.776146e+003,-4.718043e-004
1.778075e+003,-5.302847e-004
1.780003e+003,-5.994117e-004
1.781932e+003,-5.301192e-004
1.783860e+003,-4.369506e-004
1.785789e+003,-4.293374e-004
1.787717e+003,-3.734257e-004
1.789646e+003,-5.492138e-004
1.791574e+003,-9.235564e-004
1.793503e+003,-8.602349e-004
1.795431e+003,-7.204650e-004
1.797360e+003,-7.053476e-004
1.799288e+003,-5.795251e-004
1.801217e+003,-4.238095e-004
1.803145e+003,-3.154871e-004
1.805074e+003,-3.102226e-004
1.807002e+003,-3.444574e-004
1.808931e+003,-4.616762e-004
1.810859e+003,-5.917682e-004
1.812788e+003,-6.182716e-004
1.814716e+003,-5.218456e-004
1.816645e+003,-4.190097e-004
1.818573e+003,-2.658193e-004
1.820502e+003,-3.235990e-004
1.822430e+003,-4.620402e-004
1.824359e+003,-5.862754e-004
1.826287e+003,-4.596571e-004
1.828216e+003,-4.887171e-004
1.830144e+003,-6.553935e-004
1.832073e+003,-5.630791e-004
1.834001e+003,-5.297220e-004
1.835930e+003,-4.609811e-004
1.837858e+003,-3.186325e-004
1.839787e+003,-3.457486e-004
1.841715e+003,-5.138368e-004
1.843644e+003,-7.087549e-004
1.845572e+003,-7.566521e-004
1.847501e+003,-6.577756e-004
1.849429e+003,-5.184039e-004
1.851358e+003,-4.690572e-004
1.853286e+003,-5.127116e-004
1.855215e+003,-5.407752e-004
1.857143e+003,-4.533352e-004
1.859072e+003,-3.940169e-004
1.861000e+003,-4.885516e-004
1.862929e+003,-5.328328e-004
1.864857e+003,-5.187017e-004
1.866786e+003,-6.638299e-004
1.868714e+003,-7.965073e-004
1.870643e+003,-5.815767e-004
1.872571e+003,-3.851118e-004
1.874500e+003,-3.405175e-004
1.876428e+003,-3.160169e-004
1.878357e+003,-3.745182e-004
1.880285e+003,-4.468145e-004
1.882214e+003,-3.487945e-004
1.884142e+003,-2.943955e-004
1.886071e+003,-3.469404e-004
1.887999e+003,-4.353949e-004
1.889928e+003,-4.320848e-004
1.891856e+003,-3.020442e-004
1.893785e+003,-3.771997e-004
1.895713e+003,-5.108913e-004
1.897642e+003,-4.312904e-004
1.899570e+003,-3.513768e-004
1.901499e+003,-4.522098e-004
1.903427e+003,-4.895445e-004
1.905356e+003,-4.140774e-004
1.907284e+003,-4.147395e-004
1.909213e+003,-4.678325e-004
1.911141e+003,-4.412868e-004
1.913070e+003,-4.573733e-004
1.914998e+003,-4.296353e-004
1.916927e+003,-4.320186e-004
1.918855e+003,-4.340378e-004
1.920784e+003,-4.861686e-004
1.922712e+003,-6.354103e-004
1.924641e+003,-5.725431e-004
1.926569e+003,-4.783577e-004
1.928498e+003,-4.937808e-004
1.930426e+003,-5.174772e-004
1.932355e+003,-6.259808e-004
1.934283e+003,-6.896342e-004
1.936212e+003,-6.259477e-004
1.938140e+003,-5.860769e-004
1.940069e+003,-5.907755e-004
1.941997e+003,-6.677007e-004
1.943926e+003,-6.981030e-004
1.945854e+003,-6.628043e-004
1.947783e+003,-5.864408e-004
1.949711e+003,-6.012315e-004
1.951640e+003,-6.325980e-004
1.953568e+003,-5.946138e-004
1.955497e+003,-5.606966e-004
1.957425e+003,-5.905770e-004
1.959354e+003,-5.596707e-004
1.961282e+003,-4.399297e-004
1.963211e+003,-5.003339e-004
1.965139e+003,-6.612494e-004
1.967068e+003,-7.363096e-004
1.968996e+003,-7.580082e-004
1.970925e+003,-7.775889e-004
1.972853e+003,-7.489122e-004
1.974782e+003,-6.736887e-004
1.976710e+003,-6.869877e-004
1.978639e+003,-7.122614e-004
1.980567e+003,-6.434500e-004
1.982496e+003,-6.741187e-004
1.984424e+003,-7.421313e-004
1.986353e+003,-7.803672e-004
1.988281e+003,-8.122830e-004
1.990210e+003,-7.917447e-004
1.992138e+003,-8.133082e-004
1.994067e+003,-7.985248e-004
1.995995e+003,-8.588129e-004
1.997924e+003,-8.742226e-004
1.999852e+003,-8.490576e-004
2.001781e+003,-8.587799e-004
2.003709e+003,-8.678075e-004
2.005638e+003,-9.327150e-004
2.007566e+003,-8.910536e-004
2.009495e+003,-8.157886e-004
2.011423e+003,-8.132420e-004
2.013352e+003,-7.996162e-004
2.015280e+003,-7.186788e-004
2.017208e+003,-6.922145e-004
2.019137e+003,-7.031313e-004
2.021066e+003,-7.459683e-004
2.022994e+003,-8.446263e-004
2.024922e+003,-8.890035e-004
2.026851e+003,-8.641039e-004
2.028780e+003,-8.935005e-004
2.030708e+003,-8.276612e-004
2.032636e+003,-6.922476e-004
2.034565e+003,-7.421313e-004
2.036494e+003,-7.799703e-004
2.038422e+003,-7.833108e-004
2.040350e+003,-9.088428e-004
2.042279e+003,-8.995516e-004
2.044208e+003,-9.095041e-004
2.046136e+003,-9.553955e-004
2.048064e+003,-8.690641e-004
2.049993e+003,-8.305053e-004
2.051921e+003,-9.123477e-004
2.053850e+003,-9.651816e-004
2.055778e+003,-8.834814e-004
2.057707e+003,-8.270329e-004
2.059635e+003,-8.562997e-004
2.061564e+003,-9.595281e-004
2.063492e+003,-1.027199e-003
2.065421e+003,-9.995962e-004
2.067349e+003,-9.397903e-004
2.069278e+003,-8.659557e-004
2.071206e+003,-9.170428e-004
2.073135e+003,-9.198863e-004
2.075063e+003,-8.896317e-004
2.076992e+003,-9.155880e-004
2.078920e+003,-9.264660e-004
2.080849e+003,-8.396989e-004
2.082777e+003,-7.803672e-004
2.084706e+003,-8.266691e-004
2.086634e+003,-8.654927e-004
2.088563e+003,-8.894003e-004
2.090491e+003,-9.710332e-004
2.092420e+003,-9.775460e-004
2.094348e+003,-9.168444e-004
2.096277e+003,-8.396658e-004
2.098205e+003,-8.430720e-004
2.100134e+003,-8.924424e-004
2.102062e+003,-8.626819e-004
2.103991e+003,-6.980037e-004
2.105919e+003,-6.756074e-004
2.107848e+003,-7.905540e-004
2.109776e+003,-8.394013e-004
2.111705e+003,-8.682705e-004
2.113633e+003,-9.563543e-004
2.115562e+003,-1.015298e-003
2.117490e+003,-9.350294e-004
2.119419e+003,-8.703868e-004
2.121347e+003,-9.299046e-004
2.123276e+003,-9.121824e-004
2.125204e+003,-8.794473e-004
2.127133e+003,-9.081815e-004
2.129061e+003,-9.283175e-004
2.130990e+003,-9.095703e-004
2.132918e+003,-8.720402e-004
2.134847e+003,-8.169792e-004
2.136775e+003,-8.576225e-004
2.138704e+003,-8.736605e-004
2.140632e+003,-8.556053e-004
2.142561e+003,-9.694463e-004
2.144489e+003,-9.649832e-004
2.146418e+003,-8.990556e-004
2.148346e+003,-7.949528e-004
2.150275e+003,-7.682948e-004
2.152203e+003,-8.416169e-004
2.154132e+003,-7.782173e-004
2.156060e+003,-8.297777e-004
2.157989e+003,-1.015860e-003
2.159917e+003,-9.770170e-004
2.161846e+003,-8.637402e-004
2.163774e+003,-8.296786e-004
2.165703e+003,-8.962450e-004
2.167631e+003,-8.641039e-004
2.169560e+003,-7.256915e-004
2.171488e+003,-6.906597e-004
2.173417e+003,-6.903620e-004
2.175345e+003,-7.559244e-004
2.177274e+003,-8.392359e-004
2.179202e+003,-8.593420e-004
2.181131e+003,-8.147964e-004
2.183059e+003,-7.992524e-004
2.184988e+003,-8.188973e-004
2.186916e+003,-8.646661e-004
2.188845e+003,-8.427082e-004
2.190773e+003,-8.268345e-004
2.192702e+003,-8.562997e-004
2.194630e+003,-8.119192e-004
2.196559e+003,-7.957796e-004
2.198487e+003,-8.795795e-004
2.200416e+003,-9.115211e-004
2.202344e+003,-8.554069e-004
2.204273e+003,-8.870196e-004
2.206201e+003,-9.223661e-004
2.208130e+003,-9.733143e-004
2.210058e+003,-1.073342e-003
2.211987e+003,-1.032190e-003
2.213915e+003,-9.266975e-004
2.215844e+003,-9.564204e-004
2.217772e+003,-1.021976e-003
2.219701e+003,-1.070499e-003
2.221629e+003,-1.117365e-003
2.223558e+003,-1.041214e-003
2.225486e+003,-1.010803e-003
2.227415e+003,-1.087191e-003
2.229343e+003,-1.061410e-003
2.231272e+003,-9.645203e-004
2.233200e+003,-8.562336e-004
2.235129e+003,-9.035525e-004
2.237057e+003,-9.702728e-004
2.238986e+003,-9.056686e-004
2.240914e+003,-8.348045e-004
2.242843e+003,-8.940957e-004
2.244771e+003,-9.440223e-004
2.246700e+003,-8.650629e-004
2.248628e+003,-8.611608e-004
2.250557e+003,-8.596397e-004
2.252485e+003,-8.693617e-004
2.254414e+003,-9.270281e-004
2.256342e+003,-9.229282e-004
2.258271e+003,-9.626028e-004
2.260199e+003,-9.266975e-004
2.262128e+003,-8.861598e-004
2.264056e+003,-1.010869e-003
2.265985e+003,-1.060947e-003
2.267913e+003,-1.039727e-003
2.269842e+003,-1.020257e-003
2.271770e+003,-1.004852e-003
2.273699e+003,-1.047494e-003
2.275627e+003,-1.125760e-003
2.277556e+003,-1.174768e-003
2.279484e+003,-1.079589e-003
2.281413e+003,-9.546682e-004
2.283341e+003,-9.806866e-004
2.285270e+003,-1.002968e-003
2.287198e+003,-1.034405e-003
2.289127e+003,-1.067194e-003
2.291055e+003,-1.068153e-003
2.292984e+003,-1.046040e-003
2.294912e+003,-1.038537e-003
2.296841e+003,-1.011431e-003
2.298769e+003,-1.031066e-003
2.300698e+003,-1.034107e-003
2.302626e+003,-9.347649e-004
2.304555e+003,-9.843231e-004
2.306483e+003,-1.108045e-003
2.308412e+003,-1.032487e-003
2.310340e+003,-8.460483e-004
2.312269e+003,-7.974333e-004
2.314197e+003,-7.573797e-004
2.316125e+003,-7.487137e-004
2.318054e+003,-6.998563e-004
2.319983e+003,-6.015955e-004
2.321911e+003,-5.486512e-004
2.323840e+003,-3.872967e-004
2.325768e+003,-2.889321e-004
2.327697e+003,-2.192588e-004
2.329625e+003,-6.735628e-005
2.331553e+003,2.746899e-005
2.333482e+003,-9.700564e-005
2.335411e+003,-1.057179e-004
2.337339e+003,-6.248630e-005
2.339268e+003,3.840405e-005
2.341196e+003,-3.518692e-005
2.343125e+003,-1.838550e-004
2.345053e+003,-3.934541e-004
2.346981e+003,-6.317709e-004
2.348910e+003,-7.986901e-004
2.350839e+003,-6.132754e-004
2.352767e+003,-2.355854e-004
2.354696e+003,7.293415e-005
2.356624e+003,2.970488e-004
2.358552e+003,4.542401e-004
2.360481e+003,5.427432e-004
2.362409e+003,4.866803e-004
2.364338e+003,3.582604e-004
2.366267e+003,2.571300e-004
2.368195e+003,2.247732e-004
2.370124e+003,8.284300e-005
2.372052e+003,-1.730909e-004
2.373980e+003,-4.472448e-004
2.375909e+003,-6.160217e-004
2.377838e+003,-7.381951e-004
2.379766e+003,-9.295078e-004
2.381695e+003,-1.189076e-003
2.383623e+003,-1.344187e-003
2.385552e+003,-1.146183e-003
2.387480e+003,-1.019397e-003
2.389408e+003,-1.068814e-003
2.391337e+003,-1.156890e-003
2.393266e+003,-1.114986e-003
2.395194e+003,-1.094164e-003
2.397123e+003,-1.153916e-003
2.399051e+003,-1.127941e-003
2.400979e+003,-1.118753e-003
2.402908e+003,-1.159335e-003
2.404836e+003,-1.205035e-003
2.406765e+003,-1.243660e-003
2.408694e+003,-1.211776e-003
2.410622e+003,-1.149950e-003
2.412551e+003,-1.105798e-003
2.414479e+003,-1.184185e-003
2.416407e+003,-1.216137e-003
2.418336e+003,-1.177907e-003
2.420264e+003,-1.163929e-003
2.422193e+003,-1.169414e-003
2.424122e+003,-1.133162e-003
2.426050e+003,-1.069177e-003
2.427979e+003,-1.114457e-003
2.429907e+003,-1.166110e-003
2.431835e+003,-1.160922e-003
2.433764e+003,-1.139210e-003
2.435692e+003,-1.141556e-003
2.437621e+003,-1.203020e-003
2.439550e+003,-1.264771e-003
2.441478e+003,-1.192545e-003
2.443406e+003,-1.088083e-003
2.445335e+003,-1.093768e-003
2.447263e+003,-1.200376e-003
2.449192e+003,-1.213395e-003
2.451121e+003,-1.089041e-003
2.453049e+003,-1.049643e-003
2.454978e+003,-1.094462e-003
2.456906e+003,-1.176882e-003
2.458834e+003,-1.124438e-003
2.460763e+003,-1.078168e-003
2.462691e+003,-1.124438e-003
2.464620e+003,-1.234904e-003
2.466549e+003,-1.260873e-003
2.468477e+003,-1.218186e-003
2.470406e+003,-1.281422e-003
2.472334e+003,-1.318785e-003
2.474262e+003,-1.274683e-003
2.476191e+003,-1.301607e-003
2.478119e+003,-1.282149e-003
2.480048e+003,-1.193834e-003
2.481977e+003,-1.159170e-003
2.483905e+003,-1.169546e-003
2.485833e+003,-1.195750e-003
2.487762e+003,-1.265432e-003
2.489690e+003,-1.305109e-003
2.491619e+003,-1.285188e-003
2.493547e+003,-1.260576e-003
2.495476e+003,-1.262426e-003
2.497405e+003,-1.201863e-003
2.499333e+003,-1.100775e-003
2.501261e+003,-1.084547e-003
2.503190e+003,-1.107814e-003
2.505118e+003,-1.102526e-003
2.507047e+003,-1.084811e-003
2.508975e+003,-1.159501e-003
2.510904e+003,-1.141920e-003
2.512833e+003,-1.059096e-003
2.514761e+003,-1.014836e-003
2.516689e+003,-1.018571e-003
2.518618e+003,-1.043197e-003
2.520546e+003,-1.100940e-003
2.522475e+003,-1.110524e-003
2.524403e+003,-1.210950e-003
2.526332e+003,-1.189175e-003
2.528260e+003,-1.197039e-003
2.530189e+003,-1.182566e-003
2.532117e+003,-1.122455e-003
2.534046e+003,-1.176321e-003
2.535974e+003,-1.196543e-003
2.537903e+003,-1.179162e-003
2.539831e+003,-1.184978e-003
2.541760e+003,-1.216699e-003
2.543688e+003,-1.222052e-003
2.545617e+003,-1.125561e-003
2.547545e+003,-1.021182e-003
2.549474e+003,-9.573461e-004
2.551402e+003,-9.771162e-004
2.553331e+003,-1.045676e-003
2.555259e+003,-1.072020e-003
2.557188e+003,-1.149686e-003
2.559116e+003,-1.173082e-003
2.561045e+003,-1.139210e-003
2.562973e+003,-1.133559e-003
2.564902e+003,-1.201995e-003
2.566830e+003,-1.186333e-003
2.568759e+003,-1.049544e-003
2.570687e+003,-1.060848e-003
2.572616e+003,-1.108178e-003
2.574544e+003,-1.039363e-003
2.576473e+003,-9.795957e-004
2.578401e+003,-1.000753e-003
2.580330e+003,-9.474277e-004
2.582258e+003,-8.791166e-004
2.584187e+003,-9.024282e-004
2.586115e+003,-1.014307e-003
2.588044e+003,-1.059757e-003
2.589972e+003,-9.438570e-004
2.591901e+003,-8.747517e-004
2.593829e+003,-8.565973e-004
2.595758e+003,-9.260362e-004
2.597686e+003,-9.510976e-004
2.599615e+003,-9.504363e-004
2.601543e+003,-9.147283e-004
2.603472e+003,-8.597389e-004
2.605400e+003,-9.453448e-004
2.607329e+003,-1.050899e-003
2.609257e+003,-1.109136e-003
2.611186e+003,-1.035496e-003
2.613114e+003,-9.300038e-004
2.615043e+003,-8.427082e-004
2.616971e+003,-7.656488e-004
2.618900e+003,-7.815248e-004
2.620828e+003,-7.646565e-004
2.622757e+003,-7.347550e-004
2.624685e+003,-7.400144e-004
2.626614e+003,-7.330349e-004
2.628542e+003,-6.521844e-004
2.630471e+003,-5.688700e-004
2.632399e+003,-5.474930e-004
2.634328e+003,-6.478172e-004
2.636256e+003,-7.615804e-004
2.638185e+003,-7.350527e-004
2.640113e+003,-6.222089e-004
2.642042e+003,-4.861686e-004
2.643970e+003,-2.957200e-004
2.645899e+003,-2.080319e-004
2.647827e+003,-2.782368e-004
2.649756e+003,-2.764818e-004
2.651684e+003,-1.148274e-004
2.653613e+003,-3.498814e-005
2.655541e+003,-3.912954e-005
2.657470e+003,-1.294685e-004
2.659398e+003,-1.930623e-004
2.661327e+003,-1.647112e-004
2.663255e+003,-7.875247e-005
2.665184e+003,-5.155351e-005
2.667112e+003,1.133199e-005
2.669041e+003,1.958266e-005
2.670969e+003,2.975539e-005
2.672898e+003,2.942402e-005
2.674826e+003,9.129387e-005
2.676755e+003,1.312306e-004
2.678683e+003,1.842975e-004
2.680612e+003,2.434377e-004
2.682540e+003,3.016576e-004
2.684469e+003,3.639974e-004
2.686397e+003,3.611455e-004
2.688326e+003,3.787878e-004
2.690254e+003,4.378551e-004
2.692183e+003,4.520178e-004
2.694111e+003,5.467907e-004
2.696040e+003,5.891914e-004
2.697968e+003,6.008705e-004
2.699897e+003,6.450021e-004
2.701825e+003,7.347721e-004
2.703754e+003,7.884107e-004
2.705682e+003,8.284448e-004
2.707611e+003,8.732303e-004
2.709539e+003,9.066647e-004
2.711468e+003,1.055109e-003
2.713396e+003,1.192407e-003
2.715325e+003,1.144332e-003
2.717253e+003,1.250089e-003
2.719182e+003,1.328651e-003
2.721110e+003,1.308212e-003
2.723039e+003,1.471920e-003
2.724967e+003,1.588764e-003
2.726896e+003,1.631566e-003
2.728824e+003,1.745825e-003
2.730753e+003,1.954063e-003
2.732681e+003,2.101700e-003
2.734610e+003,2.068440e-003
2.736538e+003,2.173956e-003
2.738467e+003,2.386630e-003
2.740395e+003,2.434342e-003
2.742324e+003,2.436874e-003
2.744252e+003,2.427612e-003
2.746181e+003,2.447271e-003
2.748109e+003,2.568310e-003
2.750038e+003,2.740697e-003
2.751966e+003,2.859050e-003
2.753895e+003,2.978470e-003
2.755823e+003,2.966193e-003
2.757752e+003,3.075431e-003
2.759680e+003,3.342169e-003
2.761609e+003,3.656549e-003
2.763537e+003,3.923042e-003
2.765466e+003,4.136709e-003
2.767394e+003,4.399179e-003
2.769323e+003,4.756030e-003
2.771251e+003,5.095741e-003
2.773180e+003,5.608844e-003
2.775108e+003,6.167956e-003
2.777037e+003,6.631927e-003
2.778965e+003,7.213986e-003
2.780894e+003,7.874321e-003
2.782822e+003,8.572462e-003
2.784750e+003,9.338956e-003
2.786679e+003,1.011976e-002
2.788608e+003,1.102196e-002
2.790536e+003,1.183416e-002
2.792465e+003,1.251275e-002
2.794393e+003,1.335491e-002
2.796322e+003,1.429824e-002
2.798250e+003,1.514315e-002
2.800178e+003,1.582965e-002
2.802107e+003,1.647542e-002
2.804036e+003,1.700570e-002
2.805964e+003,1.743104e-002
2.807893e+003,1.773408e-002
2.809821e+003,1.797658e-002
2.811750e+003,1.794878e-002
2.813678e+003,1.774054e-002
2.815606e+003,1.758097e-002
2.817535e+003,1.741573e-002
2.819464e+003,1.712721e-002
2.821392e+003,1.677549e-002
2.823321e+003,1.633382e-002
2.825249e+003,1.575894e-002
2.827177e+003,1.503392e-002
2.829106e+003,1.433485e-002
2.831034e+003,1.370713e-002
2.832963e+003,1.307393e-002
2.834892e+003,1.238884e-002
2.836820e+003,1.171269e-002
2.838749e+003,1.101978e-002
2.840677e+003,1.037814e-002
2.842605e+003,9.825139e-003
2.844534e+003,8.891905e-003
2.846462e+003,7.995803e-003
2.848391e+003,7.500336e-003
2.850320e+003,7.126235e-003
2.852248e+003,6.862314e-003
2.854177e+003,6.650431e-003
2.856105e+003,6.460612e-003
2.858033e+003,6.459738e-003
2.859962e+003,6.550146e-003
2.861890e+003,6.603936e-003
2.863819e+003,6.588158e-003
2.865748e+003,6.688620e-003
2.867676e+003,6.909578e-003
2.869604e+003,7.035471e-003
2.871533e+003,7.209539e-003
2.873461e+003,7.358368e-003
2.875390e+003,7.289826e-003
2.877319e+003,7.366220e-003
2.879247e+003,7.599357e-003
2.881176e+003,7.760496e-003
2.883104e+003,7.875603e-003
2.885032e+003,7.892102e-003
2.886961e+003,7.714050e-003
2.888889e+003,7.610451e-003
2.890818e+003,7.532464e-003
2.892747e+003,7.404135e-003
2.894675e+003,7.374038e-003
2.896604e+003,7.336058e-003
2.898532e+003,7.250203e-003
2.900460e+003,7.167733e-003
2.902389e+003,6.927622e-003
2.904317e+003,6.818119e-003
2.906246e+003,6.901565e-003
2.908175e+003,6.910285e-003
2.910103e+003,6.720116e-003
2.912031e+003,6.466262e-003
2.913960e+003,6.291281e-003
2.915888e+003,6.220421e-003
2.917817e+003,6.298778e-003
2.919745e+003,6.530334e-003
2.921674e+003,6.903047e-003
2.923603e+003,7.175751e-003
2.925531e+003,7.544432e-003
2.927459e+003,7.985577e-003
2.929388e+003,8.278245e-003
2.931316e+003,8.566177e-003
2.933245e+003,9.014449e-003
2.935173e+003,9.244750e-003
2.937102e+003,9.288043e-003
2.939031e+003,9.342952e-003
2.940959e+003,9.381412e-003
2.942887e+003,9.281916e-003
2.944816e+003,9.025681e-003
2.946744e+003,8.676968e-003
2.948673e+003,8.222153e-003
2.950601e+003,7.695163e-003
2.952530e+003,7.183801e-003
2.954458e+003,6.566427e-003
2.956387e+003,5.821395e-003
2.958315e+003,5.175840e-003
2.960244e+003,4.616362e-003
2.962172e+003,3.911808e-003
2.964101e+003,3.150953e-003
2.966029e+003,2.610009e-003
2.967958e+003,2.141156e-003
2.969886e+003,1.570341e-003
2.971815e+003,1.142738e-003
2.973743e+003,8.815970e-004
2.975672e+003,5.091709e-004
2.977600e+003,8.927227e-005
2.979529e+003,-2.946273e-004
2.981457e+003,-4.654825e-004
2.983386e+003,-5.180729e-004
2.985314e+003,-6.355096e-004
2.987243e+003,-8.319604e-004
2.989171e+003,-1.005018e-003
2.991100e+003,-1.164028e-003
2.993028e+003,-1.272965e-003
2.994957e+003,-1.258759e-003
2.996885e+003,-1.311055e-003
2.998814e+003,-1.461037e-003
3.000742e+003,-1.402616e-003
3.002671e+003,-1.321229e-003
3.004599e+003,-1.336656e-003
3.006528e+003,-1.323872e-003
3.008456e+003,-1.443634e-003
3.010385e+003,-1.411500e-003
3.012313e+003,-1.427452e-003
3.014242e+003,-1.522026e-003
3.016170e+003,-1.710551e-003
3.018099e+003,-1.701607e-003
3.020027e+003,-1.645364e-003
3.021956e+003,-1.699132e-003
3.023884e+003,-1.651141e-003
3.025813e+003,-1.599446e-003
3.027741e+003,-1.732828e-003
3.029670e+003,-1.798597e-003
3.031598e+003,-1.903812e-003
3.033527e+003,-1.832681e-003
3.035455e+003,-1.736954e-003
3.037384e+003,-1.747679e-003
3.039312e+003,-1.805823e-003
3.041241e+003,-1.902129e-003
3.043169e+003,-1.937591e-003
3.045098e+003,-1.861979e-003
3.047026e+003,-1.825356e-003
3.048955e+003,-1.888768e-003
3.050883e+003,-1.846209e-003
3.052812e+003,-1.733125e-003
3.054740e+003,-1.775729e-003
3.056669e+003,-1.872933e-003
3.058597e+003,-1.889032e-003
3.060526e+003,-1.999700e-003
3.062454e+003,-2.092040e-003
3.064383e+003,-2.075750e-003
3.066311e+003,-1.986870e-003
3.068240e+003,-1.997622e-003
3.070168e+003,-1.965629e-003
3.072097e+003,-1.957877e-003
3.074025e+003,-2.074365e-003
3.075954e+003,-2.080498e-003
3.077882e+003,-2.079806e-003
3.079811e+003,-1.989212e-003
3.081739e+003,-1.965629e-003
3.083668e+003,-2.090292e-003
3.085596e+003,-2.115781e-003
3.087525e+003,-2.034066e-003
3.089453e+003,-2.054117e-003
3.091382e+003,-2.056953e-003
3.093310e+003,-2.057613e-003
3.095239e+003,-2.048544e-003
3.097167e+003,-2.092996e-003
3.099096e+003,-2.056359e-003
3.101024e+003,-2.077695e-003
3.102953e+003,-2.069517e-003
3.104881e+003,-1.939537e-003
3.106810e+003,-1.910871e-003
3.108738e+003,-1.940329e-003
3.110667e+003,-1.988849e-003
3.112595e+003,-2.077959e-003
3.114524e+003,-2.143444e-003
3.116452e+003,-2.117594e-003
3.118381e+003,-2.116440e-003
3.120309e+003,-2.093458e-003
3.122238e+003,-1.966816e-003
3.124166e+003,-1.818559e-003
3.126095e+003,-1.924033e-003
3.128023e+003,-2.025491e-003
3.129952e+003,-1.953292e-003
3.131880e+003,-1.886492e-003
3.133809e+003,-1.927893e-003
3.135737e+003,-1.950884e-003
3.137666e+003,-1.970477e-003
3.139594e+003,-1.949631e-003
3.141523e+003,-2.011376e-003
3.143451e+003,-1.990037e-003
3.145380e+003,-1.896158e-003
3.147308e+003,-1.822420e-003
3.149237e+003,-1.625393e-003
3.151165e+003,-1.588420e-003
3.153094e+003,-1.766159e-003
3.155022e+003,-1.868215e-003
3.156951e+003,-1.768601e-003
3.158879e+003,-1.771472e-003
3.160808e+003,-1.729462e-003
3.162736e+003,-1.650249e-003
3.164665e+003,-1.673883e-003
3.166593e+003,-1.515158e-003
3.168522e+003,-1.500299e-003
3.170450e+003,-1.556429e-003
3.172379e+003,-1.538270e-003
3.174307e+003,-1.435113e-003
3.176236e+003,-1.360504e-003
3.178164e+003,-1.424281e-003
3.180093e+003,-1.474081e-003
3.182021e+003,-1.493035e-003
3.183950e+003,-1.468764e-003
3.185878e+003,-1.433099e-003
3.187807e+003,-1.407273e-003
3.189735e+003,-1.442412e-003
3.191664e+003,-1.447861e-003
3.193592e+003,-1.336854e-003
3.195521e+003,-1.275608e-003
3.197449e+003,-1.319148e-003
3.199378e+003,-1.353634e-003
3.201306e+003,-1.435477e-003
3.203235e+003,-1.471439e-003
3.205163e+003,-1.464438e-003
3.207092e+003,-1.324268e-003
3.209020e+003,-1.295925e-003
3.210948e+003,-1.362783e-003
3.212877e+003,-1.262591e-003
3.214806e+003,-1.149983e-003
3.216734e+003,-1.104344e-003
3.218663e+003,-1.028719e-003
3.220591e+003,-9.414766e-004
3.222520e+003,-9.971168e-004
3.224448e+003,-1.125000e-003
3.226376e+003,-1.066897e-003
3.228305e+003,-9.098348e-004
3.230234e+003,-8.444610e-004
3.232162e+003,-8.664186e-004
3.234091e+003,-8.286533e-004
3.236019e+003,-9.925218e-004
3.237948e+003,-1.060815e-003
3.239876e+003,-8.204848e-004
3.241804e+003,-6.598929e-004
3.243733e+003,-6.589335e-004
3.245662e+003,-6.586689e-004
3.247590e+003,-5.688039e-004
3.249519e+003,-4.741873e-004
3.251447e+003,-4.342033e-004
3.253375e+003,-3.921631e-004
3.255304e+003,-4.452257e-004
3.257232e+003,-4.548909e-004
3.259161e+003,-4.325482e-004
3.261090e+003,-2.348899e-004
3.263018e+003,-6.901272e-005
3.264947e+003,-1.006496e-004
3.266875e+003,-1.650093e-004
3.268803e+003,-1.679571e-004
3.270732e+003,-1.450366e-004
3.272660e+003,-1.735214e-004
3.274589e+003,-1.185374e-004
3.276518e+003,-4.307212e-005
3.278446e+003,-1.719623e-005
3.280375e+003,-7.106670e-005
3.282303e+003,-4.124992e-005
3.284231e+003,5.583445e-005
3.286160e+003,-5.964086e-006
3.288088e+003,-8.653749e-005
3.290017e+003,-1.505350e-004
3.291946e+003,-1.570601e-004
3.293874e+003,-1.849480e-004
3.295802e+003,-3.743196e-004
3.297731e+003,-4.202345e-004
3.299659e+003,-2.146555e-004
3.301588e+003,-1.559008e-004
3.303516e+003,-3.541247e-004
3.305445e+003,-5.850842e-004
3.307374e+003,-6.721007e-004
3.309302e+003,-7.349534e-004
3.311230e+003,-8.089757e-004
3.313159e+003,-1.003629e-003
3.315087e+003,-1.023992e-003
3.317016e+003,-1.191851e-003
3.318944e+003,-1.340619e-003
3.320873e+003,-1.228726e-003
3.322802e+003,-1.113366e-003
3.324730e+003,-1.058633e-003
3.326658e+003,-1.154379e-003
3.328587e+003,-1.390297e-003
3.330515e+003,-1.493596e-003
3.332444e+003,-1.538171e-003
3.334372e+003,-1.489403e-003
3.336301e+003,-1.404168e-003
3.338229e+003,-1.383427e-003
3.340158e+003,-1.485374e-003
3.342086e+003,-1.617966e-003
3.344015e+003,-1.576535e-003
3.345943e+003,-1.332956e-003
3.347872e+003,-1.356375e-003
3.349800e+003,-1.442082e-003
3.351729e+003,-1.483426e-003
3.353657e+003,-1.501752e-003
3.355586e+003,-1.346829e-003
3.357514e+003,-1.312079e-003
3.359443e+003,-1.494356e-003
3.361371e+003,-1.554580e-003
3.363300e+003,-1.543619e-003
3.365229e+003,-1.679593e-003
3.367157e+003,-1.744016e-003
3.369085e+003,-1.806615e-003
3.371014e+003,-1.812059e-003
3.372942e+003,-1.926606e-003
3.374871e+003,-2.173282e-003
3.376799e+003,-2.353847e-003
3.378728e+003,-2.503502e-003
3.380656e+003,-2.613322e-003
3.382585e+003,-2.482714e-003
3.384513e+003,-2.545404e-003
3.386442e+003,-2.624487e-003
3.388370e+003,-2.764699e-003
3.390299e+003,-2.902134e-003
3.392227e+003,-2.928201e-003
3.394156e+003,-3.018467e-003
3.396084e+003,-3.056964e-003
3.398013e+003,-3.057622e-003
3.399941e+003,-3.026924e-003
3.401870e+003,-3.103879e-003
3.403798e+003,-3.213219e-003
3.405727e+003,-3.256697e-003
3.407655e+003,-3.263767e-003
3.409584e+003,-3.177598e-003
3.411512e+003,-3.141842e-003
3.413441e+003,-3.088417e-003
3.415369e+003,-3.050186e-003
3.417298e+003,-3.118025e-003
3.419226e+003,-3.202102e-003
3.421155e+003,-3.240352e-003
3.423083e+003,-3.178584e-003
3.425012e+003,-3.170624e-003
3.426940e+003,-3.180393e-003
3.428869e+003,-3.184472e-003
3.430797e+003,-3.390623e-003
3.432726e+003,-3.343673e-003
3.434654e+003,-3.156020e-003
3.436583e+003,-3.196148e-003
3.438511e+003,-3.420901e-003
3.440440e+003,-3.417153e-003
3.442368e+003,-3.322202e-003
3.444297e+003,-3.296290e-003
3.446225e+003,-3.435069e-003
3.448154e+003,-3.286918e-003
3.450082e+003,-3.191906e-003
3.452011e+003,-3.195589e-003
3.453939e+003,-3.157401e-003
3.455868e+003,-3.164506e-003
3.457796e+003,-3.350216e-003
3.459725e+003,-3.491574e-003
3.461653e+003,-3.431355e-003
3.463582e+003,-3.342325e-003
3.465510e+003,-3.405417e-003
3.467439e+003,-3.450027e-003
3.469367e+003,-3.302834e-003
3.471296e+003,-3.283400e-003
3.473224e+003,-3.439113e-003
3.475153e+003,-3.557866e-003
3.477081e+003,-3.425405e-003
3.479010e+003,-3.313784e-003
3.480938e+003,-3.375993e-003
3.482867e+003,-3.417909e-003
3.484795e+003,-3.363006e-003
3.486724e+003,-3.390886e-003
3.488652e+003,-3.451703e-003
3.490581e+003,-3.452722e-003
3.492509e+003,-3.513234e-003
3.494438e+003,-3.370535e-003
3.496366e+003,-3.325391e-003
3.498295e+003,-3.342391e-003
3.500223e+003,-3.289418e-003
3.502152e+003,-3.323912e-003
3.504080e+003,-3.536898e-003
3.506009e+003,-3.482207e-003
3.507937e+003,-3.391346e-003
3.509866e+003,-3.434741e-003
3.511794e+003,-3.397363e-003
3.513723e+003,-3.295994e-003
3.515651e+003,-3.280440e-003
3.517580e+003,-3.430796e-003
3.519508e+003,-3.488288e-003
3.521437e+003,-3.468599e-003
3.523365e+003,-3.448153e-003
3.525294e+003,-3.386217e-003
3.527222e+003,-3.360014e-003
3.529151e+003,-3.341536e-003
3.531079e+003,-3.334434e-003
3.533008e+003,-3.418830e-003
3.534936e+003,-3.477178e-003
3.536865e+003,-3.413899e-003
3.538793e+003,-3.396014e-003
3.540722e+003,-3.481188e-003
3.542650e+003,-3.595099e-003
3.544579e+003,-3.680627e-003
3.546507e+003,-3.529208e-003
3.548436e+003,-3.476192e-003
3.550364e+003,-3.572128e-003
3.552293e+003,-3.700536e-003
3.554221e+003,-3.551293e-003
3.556150e+003,-3.326509e-003
3.558078e+003,-3.366294e-003
3.560007e+003,-3.527005e-003
3.561935e+003,-3.461564e-003
3.563864e+003,-3.292081e-003
3.565792e+003,-3.423104e-003
3.567721e+003,-3.683190e-003
3.569649e+003,-3.678754e-003
3.571578e+003,-3.372409e-003
3.573506e+003,-3.349065e-003
3.575435e+003,-3.618659e-003
3.577363e+003,-3.461531e-003
3.579292e+003,-3.375565e-003
3.581220e+003,-3.497359e-003
3.583149e+003,-3.493448e-003
3.585077e+003,-3.517277e-003
3.587006e+003,-3.821352e-003
3.588934e+003,-3.725799e-003
3.590863e+003,-3.481385e-003
3.592791e+003,-3.727179e-003
3.594720e+003,-3.878004e-003
3.596648e+003,-3.569269e-003
3.598577e+003,-3.350545e-003
3.600505e+003,-3.426851e-003
3.602434e+003,-3.503933e-003
3.604362e+003,-3.637224e-003
3.606291e+003,-3.920234e-003
3.608219e+003,-3.849006e-003
3.610148e+003,-3.691075e-003
3.612076e+003,-3.816984e-003
3.614005e+003,-3.857479e-003
3.615933e+003,-3.934813e-003
3.617862e+003,-4.075423e-003
3.619790e+003,-4.088848e-003
3.621719e+003,-3.666237e-003
3.623647e+003,-3.501172e-003
3.625576e+003,-3.790117e-003
3.627504e+003,-4.289387e-003
3.629433e+003,-4.234003e-003
3.631361e+003,-4.085041e-003
3.633290e+003,-4.159971e-003
3.635218e+003,-4.037969e-003
3.637146e+003,-3.867758e-003
3.639075e+003,-3.674648e-003
3.641004e+003,-3.668241e-003
3.642932e+003,-3.752802e-003
3.644861e+003,-3.884178e-003
3.646789e+003,-4.213560e-003
3.648718e+003,-4.393475e-003
3.650646e+003,-4.179301e-003
3.652574e+003,-4.126069e-003
3.654503e+003,-4.421322e-003
3.656432e+003,-4.366217e-003
3.658360e+003,-4.028121e-003
3.660289e+003,-3.880205e-003
3.662217e+003,-3.699452e-003
3.664146e+003,-3.638308e-003
3.666074e+003,-3.878300e-003
3.668002e+003,-4.098531e-003
3.669931e+003,-4.233248e-003
3.671860e+003,-4.249457e-003
3.673788e+003,-4.726273e-003
3.675717e+003,-4.833403e-003
3.677645e+003,-4.371793e-003
3.679573e+003,-4.227867e-003
3.681502e+003,-4.074340e-003
3.683430e+003,-3.920299e-003
3.685359e+003,-3.769916e-003
3.687288e+003,-4.163811e-003
3.689216e+003,-4.472058e-003
3.691145e+003,-4.323834e-003
3.693073e+003,-4.046733e-003
3.695001e+003,-4.132534e-003
3.696930e+003,-4.129974e-003
3.698858e+003,-3.859647e-003
3.700787e+003,-3.985901e-003
3.702716e+003,-4.121375e-003
3.704644e+003,-3.849367e-003
3.706573e+003,-3.930807e-003
3.708501e+003,-4.349422e-003
3.710429e+003,-4.462253e-003
3.712358e+003,-4.460777e-003
3.714286e+003,-4.212182e-003
3.716215e+003,-4.124428e-003
3.718144e+003,-4.207653e-003
3.720072e+003,-4.030976e-003
3.722000e+003,-3.864409e-003
3.723929e+003,-3.870090e-003
3.725857e+003,-3.917837e-003
3.727786e+003,-3.829301e-003
3.729714e+003,-4.233609e-003
3.731643e+003,-4.665274e-003
3.733572e+003,-4.767699e-003
3.735500e+003,-4.627903e-003
3.737428e+003,-4.334660e-003
3.739357e+003,-4.165255e-003
3.741285e+003,-3.952084e-003
3.743214e+003,-4.162039e-003
3.745142e+003,-4.014004e-003
3.747071e+003,-4.213133e-003
3.749000e+003,-4.947680e-003
3.750928e+003,-4.929761e-003
3.752856e+003,-4.319897e-003
3.754785e+003,-4.010458e-003
3.756713e+003,-3.783679e-003
3.758642e+003,-3.818823e-003
3.760570e+003,-3.912682e-003
3.762499e+003,-3.683683e-003
3.764427e+003,-3.594047e-003
3.766356e+003,-3.534137e-003
3.768284e+003,-3.798164e-003
3.770213e+003,-3.614650e-003
3.772141e+003,-3.408047e-003
3.774070e+003,-3.683387e-003
3.775998e+003,-3.837413e-003
3.777927e+003,-4.039905e-003
3.779855e+003,-4.042597e-003
3.781784e+003,-3.762131e-003
3.783712e+003,-3.841781e-003
3.785641e+003,-3.873965e-003
3.787569e+003,-3.654836e-003
3.789498e+003,-3.390886e-003
3.791426e+003,-3.581987e-003
3.793355e+003,-3.744426e-003
3.795283e+003,-3.979532e-003
3.797212e+003,-4.071813e-003
3.799140e+003,-4.114023e-003
3.801069e+003,-4.197087e-003
3.802997e+003,-4.063968e-003
3.804926e+003,-4.209294e-003
3.806854e+003,-4.144547e-003
3.808783e+003,-3.729807e-003
3.810711e+003,-3.636929e-003
3.812640e+003,-3.689761e-003
3.814568e+003,-3.959997e-003
3.816497e+003,-3.961179e-003
3.818425e+003,-3.784303e-003
3.820354e+003,-4.037969e-003
3.822282e+003,-4.104538e-003
3.824211e+003,-4.073618e-003
3.826139e+003,-3.942496e-003
3.828068e+003,-3.749813e-003
3.829996e+003,-3.783646e-003
3.831925e+003,-3.832552e-003
3.833853e+003,-3.784960e-003
3.835782e+003,-3.928903e-003
3.837710e+003,-4.353719e-003
3.839639e+003,-4.334857e-003
3.841567e+003,-4.253854e-003
3.843496e+003,-4.154294e-003
3.845424e+003,-3.877906e-003
3.847353e+003,-3.758222e-003
3.849281e+003,-3.793500e-003
3.851210e+003,-4.143365e-003
3.853138e+003,-4.607807e-003
3.855067e+003,-4.151668e-003
3.856995e+003,-4.036590e-003
3.858924e+003,-4.275476e-003
3.860852e+003,-4.516427e-003
3.862781e+003,-4.530953e-003
3.864709e+003,-4.255790e-003
3.866638e+003,-3.830384e-003
3.868566e+003,-4.041810e-003
3.870495e+003,-4.129088e-003
3.872423e+003,-4.245749e-003
3.874352e+003,-4.210639e-003
3.876280e+003,-3.940296e-003
3.878209e+003,-4.046176e-003
3.880137e+003,-4.185109e-003
3.882066e+003,-4.130270e-003
3.883994e+003,-4.246832e-003
3.885923e+003,-4.129219e-003
3.887851e+003,-3.920759e-003
3.889780e+003,-4.196365e-003
3.891708e+003,-4.204536e-003
3.893637e+003,-3.943678e-003
3.895565e+003,-3.793139e-003
3.897494e+003,-3.775205e-003
3.899422e+003,-4.001299e-003
3.901351e+003,-4.213199e-003
3.903279e+003,-4.296408e-003
3.905208e+003,-4.069088e-003
3.907136e+003,-3.893964e-003
3.909065e+003,-3.996408e-003
3.910993e+003,-4.251098e-003
3.912922e+003,-3.980911e-003
3.914850e+003,-3.850353e-003
3.916779e+003,-4.112546e-003
3.918707e+003,-4.347421e-003
3.920636e+003,-4.155147e-003
3.922564e+003,-3.904735e-003
3.924493e+003,-3.967778e-003
3.926421e+003,-4.006618e-003
3.928350e+003,-4.170243e-003
3.930278e+003,-4.156985e-003
3.932207e+003,-4.174641e-003
3.934135e+003,-4.116288e-003
3.936064e+003,-3.911926e-003
3.937992e+003,-3.932974e-003
3.939921e+003,-4.194232e-003
3.941849e+003,-4.227046e-003
3.943778e+003,-4.020078e-003
3.945706e+003,-3.982914e-003
3.947635e+003,-3.986263e-003
3.949563e+003,-4.013873e-003
3.951492e+003,-4.037509e-003
3.953420e+003,-3.998771e-003
3.955349e+003,-3.849630e-003
3.957277e+003,-3.915243e-003
3.959206e+003,-4.123246e-003
3.961134e+003,-4.177857e-003
3.963063e+003,-4.050804e-003
3.964991e+003,-4.042368e-003
3.966920e+003,-4.223601e-003
3.968848e+003,-4.133913e-003
3.970777e+003,-4.070368e-003
3.972705e+003,-4.073651e-003
3.974634e+003,-4.034850e-003
3.976562e+003,-4.091212e-003
3.978491e+003,-4.088586e-003
3.980419e+003,-4.014792e-003
3.982348e+003,-4.019093e-003
3.984276e+003,-4.083662e-003
3.986205e+003,-3.874458e-003
3.988133e+003,-3.759372e-003
3.990062e+003,-3.898331e-003
3.991990e+003,-4.215266e-003
3.993919e+003,-4.254510e-003
3.995847e+003,-4.102372e-003
3.997776e+003,-4.064230e-003
3.999704e+003,-3.738053e-003
4.001633e+003,0.000000e+000
