3.991989e+002,-1.216208e-002
4.011274e+002,6.742562e-003
4.030559e+002,7.851311e-003
4.049844e+002,-3.902272e-003
4.069129e+002,-9.436196e-003
4.088414e+002,-2.549917e-003
4.107699e+002,-2.184128e-003
4.126984e+002,-7.443456e-003
4.146269e+002,1.541338e-004
4.165554e+002,4.139920e-003
4.184839e+002,8.366778e-004
4.204124e+002,4.336124e-003
4.223409e+002,1.418596e-003
4.242694e+002,-1.137558e-003
4.261979e+002,1.250422e-003
4.281264e+002,-2.459553e-003
4.300549e+002,-1.549553e-002
4.319834e+002,-1.067153e-002
4.339119e+002,-6.433756e-003
4.358404e+002,-8.653215e-003
4.377689e+002,-3.533612e-003
4.396974e+002,-1.072284e-003
4.416259e+002,-4.272556e-003
4.435544e+002,-3.817510e-003
4.454829e+002,-2.091974e-003
4.474114e+002,-4.502683e-005
4.493399e+002,3.660893e-003
4.512684e+002,3.476489e-004
4.531969e+002,-2.981218e-003
4.551254e+002,-2.501562e-004
4.570539e+002,1.940317e-003
4.589824e+002,7.005545e-004
4.609109e+002,-2.923758e-003
4.628394e+002,-1.489370e-003
4.647679e+002,1.413676e-003
4.666964e+002,8.149669e-004
4.686249e+002,-2.075486e-003
4.705533e+002,-2.048742e-003
4.724819e+002,-1.349868e-003
4.744103e+002,-7.388897e-004
4.763389e+002,7.545871e-004
4.782673e+002,9.878543e-004
4.801959e+002,-8.524552e-005
4.821243e+002,3.464159e-003
4.840529e+002,3.771509e-003
4.859813e+002,2.677548e-003
4.879099e+002,3.212134e-003
4.898383e+002,-7.413705e-004
4.917668e+002,-3.095359e-003
4.936953e+002,-2.205689e-003
4.956238e+002,-7.217882e-004
4.975523e+002,-2.040662e-003
4.994808e+002,-2.145653e-003
5.014093e+002,-1.271775e-003
5.033378e+002,-9.562221e-004
5.052663e+002,6.251257e-004
5.071948e+002,1.248860e-003
5.091233e+002,7.728097e-004
5.110518e+002,-3.389480e-005
5.129803e+002,-1.731046e-003
5.149088e+002,-2.713763e-003
5.168373e+002,-2.216963e-003
5.187658e+002,-1.799125e-003
5.206943e+002,-6.355096e-004
5.226228e+002,-6.162202e-004
5.245513e+002,-8.899955e-004
5.264798e+002,4.308899e-004
5.284083e+002,1.274281e-003
5.303368e+002,1.362685e-004
5.322653e+002,-8.550431e-004
5.341938e+002,-2.664816e-004
5.361223e+002,9.160946e-004
5.380508e+002,-3.117801e-005
5.399792e+002,-5.479231e-004
5.419078e+002,1.320592e-004
5.438363e+002,-5.615570e-004
5.457648e+002,-9.804883e-004
5.476932e+002,-1.946299e-003
5.496218e+002,-1.407273e-003
5.515503e+002,5.211133e-004
5.534788e+002,9.914741e-004
5.554072e+002,2.182425e-004
5.573358e+002,-6.735894e-004
5.592643e+002,-1.769327e-003
5.611927e+002,-4.839511e-004
5.631212e+002,4.534109e-004
5.650497e+002,8.676194e-004
5.669783e+002,3.051939e-003
5.689067e+002,3.573189e-003
5.708352e+002,2.815227e-003
5.727637e+002,1.242214e-003
5.746923e+002,-9.059000e-004
5.766207e+002,1.778362e-003
5.785492e+002,5.266866e-004
5.804777e+002,1.738972e-003
5.824063e+002,4.037103e-003
5.843347e+002,4.384887e-003
5.862632e+002,5.432095e-003
5.881917e+002,8.429523e-004
5.901202e+002,-7.775889e-004
5.920487e+002,6.817043e-004
5.939772e+002,-1.536553e-003
5.959057e+002,-3.263636e-003
5.978342e+002,-7.355819e-004
5.997627e+002,-2.416125e-004
6.016912e+002,-5.032769e-005
6.036197e+002,-3.777264e-006
6.055482e+002,3.230445e-004
6.074767e+002,-3.183346e-004
6.094052e+002,-3.335979e-004
6.113337e+002,5.531936e-004
6.132622e+002,1.796095e-003
6.151907e+002,2.302381e-003
6.171192e+002,2.172657e-003
6.190477e+002,2.942305e-004
6.209762e+002,-3.255855e-004
6.229047e+002,9.119445e-005
6.248332e+002,9.768953e-004
6.267617e+002,8.718359e-004
6.286902e+002,-2.027992e-004
6.306187e+002,-6.442771e-004
6.325472e+002,-7.119636e-004
6.344756e+002,-4.339385e-004
6.364042e+002,-2.910181e-004
6.383326e+002,-2.545936e-004
6.402612e+002,-3.736244e-004
6.421896e+002,-1.433473e-004
6.441182e+002,5.547861e-004
6.460466e+002,2.140655e-004
6.479752e+002,3.300410e-004
6.499036e+002,6.150054e-004
6.518322e+002,4.271753e-004
6.537606e+002,3.552759e-004
6.556891e+002,1.057436e-004
6.576177e+002,-2.201199e-004
6.595461e+002,-3.438945e-004
6.614746e+002,-1.140324e-004
6.634031e+002,2.786662e-005
6.653317e+002,-6.871531e-004
6.672601e+002,-9.889514e-004
6.691886e+002,-6.657487e-004
6.711171e+002,-3.878926e-004
6.730457e+002,2.210097e-005
6.749741e+002,-1.129393e-004
6.769026e+002,-4.499370e-005
6.788311e+002,4.147379e-004
6.807596e+002,-2.584378e-005
6.826881e+002,-5.141678e-004
6.846166e+002,-5.355134e-004
6.865451e+002,-7.282385e-004
6.884736e+002,-3.770342e-004
6.904021e+002,-1.084342e-004
6.923306e+002,-2.690313e-004
6.942591e+002,-4.381422e-004
6.961876e+002,-7.123275e-004
6.981161e+002,-4.183807e-004
7.000446e+002,-1.541453e-004
7.019731e+002,1.082624e-004
7.039016e+002,2.649875e-004
7.058301e+002,-2.620774e-004
7.077585e+002,-7.871474e-004
7.096871e+002,-3.692875e-004
7.116156e+002,-2.685015e-004
7.135441e+002,-2.064091e-004
7.154725e+002,-1.937909e-004
7.174011e+002,-1.884587e-004
7.193296e+002,-6.102861e-005
7.212581e+002,-1.881937e-004
7.231865e+002,9.576793e-005
7.251151e+002,5.852431e-004
7.270436e+002,3.353465e-004
7.289720e+002,-3.343263e-004
7.309005e+002,-9.258378e-004
7.328290e+002,-5.790950e-004
7.347576e+002,-3.374385e-004
7.366860e+002,-3.338628e-004
7.386145e+002,-1.599086e-004
7.405430e+002,-4.376126e-004
7.424716e+002,-7.501029e-004
7.444000e+002,-2.932035e-004
7.463285e+002,-6.573296e-005
7.482570e+002,-1.564639e-004
7.501855e+002,-3.574354e-004
7.521140e+002,-1.154899e-004
7.540425e+002,6.620686e-005
7.559710e+002,1.554014e-005
7.578995e+002,-3.943810e-004
7.598280e+002,-2.281673e-004
7.617565e+002,-9.773442e-005
7.636850e+002,-1.942546e-004
7.656135e+002,-9.985451e-005
7.675420e+002,-2.808858e-004
7.694705e+002,-3.872305e-004
7.713990e+002,-6.466592e-004
7.733275e+002,-5.364400e-004
7.752560e+002,-4.340378e-004
7.771844e+002,-5.844224e-004
7.791130e+002,-5.935881e-004
7.810415e+002,-3.368094e-004
7.829700e+002,-1.410949e-004
7.848984e+002,-2.130327e-004
7.868270e+002,-2.218420e-004
7.887555e+002,-2.130990e-004
7.906840e+002,-1.716004e-004
7.926124e+002,-3.111497e-004
7.945410e+002,-1.955131e-004
7.964695e+002,-1.244999e-004
7.983979e+002,-1.541122e-004
8.003264e+002,-6.218814e-005
8.022549e+002,-3.338959e-004
8.041835e+002,-6.587681e-004
8.061119e+002,-2.715479e-004
8.080404e+002,-1.591799e-004
8.099689e+002,-2.079326e-004
8.118975e+002,-4.257293e-004
8.138259e+002,-5.971286e-004
8.157545e+002,-6.083454e-004
8.176830e+002,-4.435045e-004
8.196115e+002,-2.493283e-004
8.215399e+002,-2.051838e-004
8.234684e+002,-2.551565e-004
8.253970e+002,-3.914679e-004
8.273254e+002,-2.080319e-004
8.292539e+002,1.585422e-004
8.311824e+002,-2.133639e-004
8.331110e+002,-5.347853e-004
8.350394e+002,-3.207184e-004
8.369679e+002,-1.441754e-004
8.388964e+002,-2.035610e-004
8.408250e+002,-1.489782e-004
8.427534e+002,-1.217505e-004
8.446819e+002,-1.452353e-004
8.466104e+002,-1.095273e-004
8.485389e+002,-1.014446e-004
8.504674e+002,-1.723291e-004
8.523959e+002,-2.770447e-004
8.543244e+002,-1.302304e-004
8.562529e+002,-1.144630e-004
8.581814e+002,-3.392263e-004
8.601099e+002,-8.252905e-005
8.620384e+002,-1.653736e-004
8.639669e+002,-2.665478e-004
8.658954e+002,-3.018787e-004
8.678239e+002,-2.666471e-004
8.697524e+002,-2.047201e-004
8.716809e+002,-7.720163e-006
8.736094e+002,1.329873e-004
8.755378e+002,1.680884e-004
8.774664e+002,-1.230424e-004
8.793949e+002,-2.528716e-004
8.813234e+002,-4.422136e-004
8.832518e+002,-9.829757e-005
8.851804e+002,9.845239e-005
8.871089e+002,9.248695e-005
8.890374e+002,7.568474e-005
8.909658e+002,-8.951895e-005
8.928943e+002,-2.419767e-004
8.948229e+002,-4.780598e-004
8.967513e+002,-7.560898e-004
8.986798e+002,-6.810330e-004
9.006083e+002,-4.978517e-004
9.025369e+002,-2.220076e-004
9.044653e+002,-1.634526e-004
9.063938e+002,-1.957118e-004
9.083223e+002,-3.008467e-005
9.102509e+002,-2.431027e-004
9.121793e+002,-6.830510e-004
9.141078e+002,-6.844404e-004
9.160364e+002,-4.906367e-004
9.179648e+002,-3.221091e-004
9.198933e+002,-9.710501e-005
9.218218e+002,-5.069212e-005
9.237504e+002,-1.433473e-004
9.256788e+002,-1.333440e-004
9.276073e+002,-3.338628e-004
9.295358e+002,-1.041609e-004
9.314644e+002,3.909993e-005
9.333928e+002,-2.943293e-004
9.353213e+002,-3.766369e-004
9.372498e+002,-4.214445e-005
9.391783e+002,1.388870e-004
9.411068e+002,-1.102230e-004
9.430353e+002,-3.484303e-004
9.449637e+002,-4.589621e-004
9.468923e+002,-2.661835e-004
9.488208e+002,-1.520826e-005
9.507493e+002,5.341536e-005
9.526777e+002,-9.899322e-005
9.546063e+002,-2.469772e-004
9.565348e+002,-1.956124e-004
9.584633e+002,-1.731571e-004
9.603917e+002,-1.984938e-004
9.623203e+002,-1.720641e-004
9.642488e+002,-4.009024e-004
9.661772e+002,-4.447623e-004
9.681057e+002,-2.416125e-004
9.700343e+002,-3.174406e-004
9.719628e+002,-3.205529e-004
9.738912e+002,-7.779176e-005
9.758197e+002,-5.910710e-005
9.777483e+002,3.651525e-005
9.796768e+002,1.084944e-004
9.816052e+002,-2.273725e-004
9.835337e+002,-2.565142e-004
9.854623e+002,-1.748463e-004
9.873907e+002,-1.423536e-004
9.893192e+002,4.576052e-005
9.912477e+002,5.457519e-005
9.931763e+002,-6.262288e-006
9.951047e+002,-3.710854e-005
9.970332e+002,-1.891210e-004
9.989617e+002,-4.433108e-005
1.000890e+003,3.323471e-005
1.002819e+003,-1.218499e-004
1.004747e+003,-1.852460e-004
1.006676e+003,-2.063098e-004
1.008604e+003,-1.938571e-004
1.010533e+003,-2.179673e-004
1.012461e+003,-3.152885e-004
1.014390e+003,-3.375709e-004
1.016318e+003,-1.686526e-004
1.018247e+003,-5.436956e-005
1.020175e+003,-8.577556e-005
1.022104e+003,-2.470434e-004
1.024032e+003,-3.867670e-004
1.025961e+003,-3.416101e-004
1.027889e+003,-1.652411e-004
1.029818e+003,-1.698781e-004
1.031746e+003,-2.018057e-004
1.033675e+003,7.445857e-005
1.035603e+003,9.277541e-007
1.037532e+003,-1.830270e-004
1.039460e+003,-5.142099e-005
1.041389e+003,-6.991226e-006
1.043317e+003,-3.101235e-005
1.045246e+003,-2.038921e-004
1.047174e+003,-3.187981e-004
1.049103e+003,-2.272069e-004
1.051031e+003,-1.674603e-004
1.052960e+003,2.932462e-005
1.054888e+003,-8.382103e-005
1.056817e+003,-2.970113e-004
1.058745e+003,-2.773096e-004
1.060674e+003,-1.557683e-004
1.062602e+003,-2.840977e-004
1.064531e+003,-1.977321e-004
1.066459e+003,-1.894522e-004
1.068388e+003,-3.012165e-004
1.070316e+003,-3.466425e-004
1.072245e+003,-4.895776e-004
1.074173e+003,-6.175768e-004
1.076102e+003,-4.670381e-004
1.078030e+003,-4.223199e-004
1.079959e+003,-9.882759e-005
1.081887e+003,-2.160286e-005
1.083816e+003,-2.660582e-005
1.085744e+003,-5.513154e-005
1.087673e+003,8.131855e-005
1.089601e+003,2.016011e-004
1.091530e+003,1.478361e-004
1.093458e+003,-1.067779e-004
1.095387e+003,-2.853229e-004
1.097315e+003,-1.845174e-004
1.099244e+003,-1.960099e-004
1.101172e+003,-1.907770e-004
1.103101e+003,-2.382347e-004
1.105029e+003,-2.598588e-004
1.106958e+003,-8.428482e-005
1.108886e+003,6.342318e-005
1.110815e+003,-1.117136e-004
1.112743e+003,-8.299284e-005
1.114672e+003,9.073048e-005
1.116600e+003,-2.409170e-004
1.118529e+003,-4.000087e-004
1.120457e+003,-1.519924e-004
1.122386e+003,-2.743412e-005
1.124314e+003,-2.956207e-004
1.126243e+003,-3.515424e-004
1.128171e+003,-3.371736e-004
1.130100e+003,-4.493963e-004
1.132028e+003,-3.556808e-004
1.133957e+003,-2.623092e-004
1.135885e+003,-2.938657e-004
1.137814e+003,-3.021436e-004
1.139742e+003,-3.406831e-004
1.141671e+003,-1.724284e-004
1.143599e+003,-7.567155e-005
1.145528e+003,-5.870955e-005
1.147456e+003,-1.004839e-004
1.149385e+003,-2.669120e-004
1.151313e+003,-2.646934e-004
1.153242e+003,-9.551493e-005
1.155170e+003,-1.441092e-004
1.157099e+003,-1.353646e-004
1.159027e+003,-8.925393e-005
1.160956e+003,-2.283991e-004
1.162884e+003,-1.769329e-004
1.164813e+003,-1.004839e-004
1.166741e+003,-1.135355e-004
1.168670e+003,-9.277521e-007
1.170598e+003,5.533420e-006
1.172526e+003,-1.384120e-004
1.174455e+003,-3.082360e-004
1.176384e+003,-3.337634e-004
1.178312e+003,-1.542116e-004
1.180240e+003,-1.650044e-005
1.182169e+003,-1.416912e-004
1.184098e+003,-3.312803e-004
1.186026e+003,-4.253983e-004
1.187954e+003,-2.763825e-004
1.189883e+003,-2.398904e-004
1.191812e+003,-1.388426e-004
1.193740e+003,-1.112499e-004
1.195668e+003,-1.694807e-004
1.197597e+003,-2.305186e-004
1.199526e+003,-1.892866e-004
1.201454e+003,-2.050844e-004
1.203382e+003,-2.145562e-004
1.205311e+003,-1.388294e-005
1.207240e+003,6.925070e-006
1.209168e+003,-2.223056e-004
1.211096e+003,-2.768791e-004
1.213025e+003,-1.610347e-004
1.214953e+003,-1.723291e-004
1.216882e+003,-2.706870e-004
1.218810e+003,-1.227774e-004
1.220739e+003,3.495782e-005
1.222667e+003,-4.502683e-005
1.224596e+003,-6.321515e-005
1.226524e+003,1.381711e-005
1.228453e+003,-7.325318e-005
1.230381e+003,-1.262555e-004
1.232310e+003,-1.386107e-004
1.234238e+003,-7.507524e-005
1.236167e+003,6.328647e-006
1.238095e+003,-8.283502e-007
1.240024e+003,-7.278939e-005
1.241952e+003,-1.478189e-004
1.243881e+003,-1.145624e-004
1.245809e+003,-1.045253e-004
1.247738e+003,1.447982e-005
1.249666e+003,1.238727e-004
1.251595e+003,8.274358e-005
1.253523e+003,1.334844e-004
1.255452e+003,6.411910e-005
1.257380e+003,-7.361759e-005
1.259309e+003,-1.069104e-004
1.261237e+003,-5.367383e-005
1.263166e+003,6.435107e-005
1.265094e+003,1.755796e-004
1.267023e+003,-2.041009e-005
1.268951e+003,-1.353646e-004
1.270880e+003,-5.533032e-005
1.272808e+003,-1.698781e-004
1.274737e+003,-2.589978e-004
1.276665e+003,-7.812304e-005
1.278594e+003,2.571278e-005
1.280522e+003,8.283589e-006
1.282451e+003,-2.431970e-005
1.284379e+003,-2.372332e-005
1.286308e+003,-7.093418e-005
1.288236e+003,3.677894e-006
1.290165e+003,1.101515e-004
1.292093e+003,9.636448e-005
1.294022e+003,5.686173e-005
1.295950e+003,5.367748e-006
1.297879e+003,-8.349698e-006
1.299807e+003,-4.240950e-005
1.301736e+003,-8.706753e-005
1.303664e+003,1.709750e-005
1.305593e+003,-1.921770e-006
1.307521e+003,-4.999639e-005
1.309450e+003,-4.277394e-005
1.311378e+003,-1.224793e-004
1.313307e+003,9.211361e-006
1.315235e+003,1.814136e-004
1.317164e+003,3.562055e-005
1.319092e+003,-7.308754e-005
1.321021e+003,-2.319377e-006
1.322949e+003,-5.473398e-005
1.324878e+003,-1.497400e-004
1.326806e+003,-7.418078e-005
1.328735e+003,-1.905165e-005
1.330663e+003,2.968911e-005
1.332592e+003,-1.185374e-004
1.334520e+003,-3.053884e-004
1.336449e+003,-2.732698e-004
1.338377e+003,-2.740977e-004
1.340306e+003,-9.922512e-005
1.342234e+003,3.545487e-005
1.344163e+003,-5.622482e-005
1.346091e+003,-8.358913e-005
1.348020e+003,-1.006496e-004
1.349948e+003,-1.751775e-004
1.351877e+003,-2.082969e-004
1.353805e+003,-1.361264e-004
1.355734e+003,-4.327090e-005
1.357662e+003,-9.940201e-007
1.359591e+003,-5.973657e-005
1.361519e+003,-2.356516e-004
1.363448e+003,-2.587329e-004
1.365376e+003,-3.266893e-005
1.367305e+003,2.041105e-005
1.369233e+003,-5.864686e-006
1.371162e+003,-6.268508e-005
1.373090e+003,-1.607697e-004
1.375019e+003,-1.610678e-004
1.376947e+003,-1.215849e-004
1.378876e+003,-7.530714e-005
1.380804e+003,-2.458476e-005
1.382733e+003,-1.767010e-004
1.384661e+003,-1.716998e-004
1.386590e+003,-1.623927e-004
1.388518e+003,-2.168744e-004
1.390447e+003,-1.702425e-004
1.392375e+003,-1.116474e-004
1.394304e+003,-2.090586e-004
1.396232e+003,-2.235972e-004
1.398161e+003,-3.077724e-004
1.400089e+003,-2.943955e-004
1.402018e+003,-1.910420e-004
1.403946e+003,-1.962086e-004
1.405875e+003,-1.527873e-004
1.407803e+003,-7.215994e-005
1.409732e+003,-6.579922e-005
1.411660e+003,-8.643811e-005
1.413589e+003,-1.245330e-004
1.415517e+003,-2.971107e-004
1.417446e+003,-5.179736e-004
1.419374e+003,-4.813695e-004
1.421303e+003,-1.789863e-004
1.423231e+003,-2.457519e-004
1.425160e+003,-3.105206e-004
1.427088e+003,-2.127347e-004
1.429017e+003,-1.889886e-004
1.430945e+003,-1.431817e-004
1.432874e+003,-5.741750e-005
1.434802e+003,-2.465798e-004
1.436731e+003,-5.577846e-004
1.438659e+003,-2.458512e-004
1.440588e+003,-9.389171e-005
1.442516e+003,-1.270836e-004
1.444445e+003,-1.106867e-004
1.446373e+003,-2.205835e-004
1.448302e+003,-2.689320e-004
1.450230e+003,-5.072525e-005
1.452159e+003,-1.280773e-004
1.454087e+003,-4.064638e-004
1.456016e+003,-1.046899e-003
1.457944e+003,-9.496098e-004
1.459873e+003,-2.956207e-004
1.461801e+003,-1.554040e-004
1.463730e+003,-2.293264e-004
1.465658e+003,-2.108801e-004
1.467587e+003,-1.112499e-004
1.469515e+003,-2.458512e-004
1.471444e+003,-7.607866e-004
1.473372e+003,-8.225021e-004
1.475301e+003,-4.830244e-004
1.477229e+003,-3.240625e-004
1.479158e+003,-1.729915e-004
1.481086e+003,-2.759978e-005
1.483015e+003,-1.235882e-005
1.484943e+003,-1.705405e-004
1.486872e+003,-3.622028e-004
1.488800e+003,-5.313767e-004
1.490729e+003,-4.006376e-004
1.492657e+003,-1.262555e-004
1.494586e+003,-2.776076e-004
1.496514e+003,-6.084116e-004
1.498443e+003,-4.354942e-004
1.500371e+003,-1.473221e-004
1.502300e+003,-1.074735e-004
1.504228e+003,-6.331605e-004
1.506157e+003,-1.418568e-003
1.508085e+003,-1.058931e-003
1.510014e+003,-5.158225e-004
1.511942e+003,-4.075562e-004
1.513871e+003,-3.480330e-004
1.515799e+003,-4.816343e-004
1.517728e+003,-5.158225e-004
1.519656e+003,-6.903951e-004
1.521585e+003,-1.025645e-003
1.523513e+003,-7.730576e-004
1.525442e+003,-6.979045e-004
1.527370e+003,-5.846871e-004
1.529299e+003,-3.592563e-004
1.531227e+003,-4.814688e-004
1.533156e+003,-7.187780e-004
1.535084e+003,-5.149289e-004
1.537013e+003,-6.018933e-004
1.538941e+003,-1.312046e-003
1.540870e+003,-1.428046e-003
1.542798e+003,-1.019265e-003
1.544727e+003,-6.488759e-004
1.546655e+003,-3.144938e-004
1.548584e+003,-2.046208e-004
1.550512e+003,-1.723622e-004
1.552441e+003,-3.125403e-004
1.554369e+003,-5.406428e-004
1.556298e+003,-7.520544e-004
1.558226e+003,-1.573597e-003
1.560155e+003,-1.387456e-003
1.562083e+003,-4.270534e-004
1.564012e+003,-2.466791e-004
1.565940e+003,-3.310154e-004
1.567869e+003,-4.271196e-004
1.569797e+003,-5.160542e-004
1.571726e+003,-2.602230e-004
1.573654e+003,-3.017131e-004
1.575583e+003,-6.671382e-004
1.577511e+003,-5.034118e-004
1.579440e+003,-2.117411e-004
1.581368e+003,-1.867033e-004
1.583297e+003,-2.518451e-004
1.585225e+003,-1.918369e-004
1.587154e+003,-4.903810e-006
1.589082e+003,4.324207e-005
1.591010e+003,-9.074465e-005
1.592939e+003,-2.402547e-004
1.594868e+003,-2.712499e-004
1.596796e+003,-1.652411e-004
1.598724e+003,-9.332856e-005
1.600653e+003,-1.767010e-004
1.602582e+003,-1.492432e-004
1.604510e+003,-8.620622e-005
1.606438e+003,-1.629889e-004
1.608367e+003,-2.134964e-004
1.610296e+003,-1.491770e-004
1.612224e+003,-7.593658e-005
1.614152e+003,-3.060176e-004
1.616081e+003,-7.663103e-004
1.618010e+003,-5.227392e-004
1.619938e+003,-2.238952e-004
1.621866e+003,-3.794840e-004
1.623795e+003,-4.459539e-004
1.625724e+003,-2.650577e-004
1.627652e+003,-2.321413e-004
1.629580e+003,-1.479514e-004
1.631509e+003,-1.762042e-004
1.633438e+003,-5.350501e-004
1.635366e+003,-1.032025e-003
1.637294e+003,-6.080476e-004
1.639223e+003,-2.048526e-004
1.641151e+003,-1.972684e-004
1.643080e+003,-2.748593e-004
1.645008e+003,-7.198696e-004
1.646937e+003,-9.032548e-004
1.648865e+003,-5.441837e-004
1.650794e+003,-9.163815e-004
1.652722e+003,-1.699957e-003
1.654651e+003,-8.938643e-004
1.656579e+003,-2.014083e-004
1.658508e+003,-1.268848e-004
1.660436e+003,-2.679055e-004
1.662365e+003,-3.962348e-004
1.664293e+003,-2.720778e-004
1.666222e+003,-3.647188e-004
1.668150e+003,-6.553935e-004
1.670079e+003,-6.971105e-004
1.672007e+003,-4.256631e-004
1.673936e+003,-4.424122e-004
1.675864e+003,-5.079128e-004
1.677793e+003,-2.236966e-004
1.679721e+003,-2.709850e-004
1.681650e+003,-6.155585e-004
1.683578e+003,-1.165779e-003
1.685507e+003,-8.818281e-004
1.687435e+003,-4.107341e-004
1.689364e+003,-2.483349e-004
1.691292e+003,-1.527452e-005
1.693221e+003,-2.475070e-004
1.695149e+003,-8.849694e-004
1.697078e+003,-8.973030e-004
1.699006e+003,-1.073507e-003
1.700935e+003,-1.147703e-003
1.702863e+003,-5.166829e-004
1.704792e+003,-4.389036e-004
1.706720e+003,-3.327040e-004
1.708649e+003,-2.779719e-004
1.710577e+003,-3.623683e-004
1.712506e+003,-4.556190e-004
1.714434e+003,-6.280983e-004
1.716363e+003,-1.009051e-003
1.718291e+003,-1.010538e-003
1.720220e+003,-3.893161e-004
1.722148e+003,-1.914725e-004
1.724077e+003,-1.756412e-004
1.726005e+003,-2.614197e-005
1.727934e+003,-7.414765e-005
1.729862e+003,-2.805547e-004
1.731791e+003,-5.342559e-004
1.733719e+003,-9.492792e-004
1.735648e+003,-6.412002e-004
1.737576e+003,-3.678970e-004
1.739505e+003,-5.398155e-004
1.741433e+003,-4.209627e-004
1.743362e+003,-3.038985e-004
1.745290e+003,-1.870676e-004
1.747219e+003,-2.891639e-004
1.749147e+003,-4.198703e-004
1.751076e+003,-4.624374e-004
1.753004e+003,-2.447584e-004
1.754933e+003,-2.254517e-004
1.756861e+003,-3.310154e-004
1.758790e+003,-2.694287e-004
1.760718e+003,-4.377782e-004
1.762647e+003,-4.129520e-004
1.764575e+003,-1.437448e-004
1.766504e+003,-2.644616e-004
1.768432e+003,-4.370499e-004
1.770361e+003,-4.902726e-004
1.772289e+003,-6.085109e-004
1.774218e+003,-3.938182e-004
1.776146e+003,-2.021369e-004
1.778075e+003,-1.376501e-004
1.780003e+003,-1.926648e-004
1.781932e+003,-2.795944e-004
1.783860e+003,-2.441292e-004
1.785789e+003,-1.535823e-004
1.787717e+003,-2.522093e-004
1.789646e+003,-4.294036e-004
1.791574e+003,-5.867386e-004
1.793503e+003,-4.576381e-004
1.795431e+003,-2.212128e-004
1.797360e+003,-1.783239e-004
1.799288e+003,-3.162486e-004
1.801217e+003,-3.760741e-004
1.803145e+003,-2.089924e-004
1.805074e+003,-1.133036e-004
1.807002e+003,-3.306651e-005
1.808931e+003,-6.268508e-005
1.810859e+003,-1.279448e-004
1.812788e+003,-1.961755e-004
1.814716e+003,-2.185634e-004
1.816645e+003,-1.664004e-004
1.818573e+003,-1.530523e-004
1.820502e+003,-1.751775e-004
1.822430e+003,-1.898497e-004
1.824359e+003,-3.722339e-004
1.826287e+003,-3.635933e-004
1.828216e+003,-3.675329e-004
1.830144e+003,-3.843504e-004
1.832073e+003,-2.547592e-004
1.834001e+003,-2.073033e-004
1.835930e+003,-1.502700e-004
1.837858e+003,-1.460634e-004
1.839787e+003,-1.056516e-004
1.841715e+003,-1.778602e-004
1.843644e+003,-5.647337e-004
1.845572e+003,-4.997381e-004
1.847501e+003,-3.161493e-004
1.849429e+003,-3.053884e-004
1.851358e+003,-2.017063e-004
1.853286e+003,-1.465934e-004
1.855215e+003,-1.712361e-004
1.857143e+003,-1.750450e-004
1.859072e+003,-1.798806e-004
1.861000e+003,-2.140594e-004
1.862929e+003,-2.154172e-004
1.864857e+003,-2.193913e-004
1.866786e+003,-4.014652e-004
1.868714e+003,-5.550049e-004
1.870643e+003,-4.287747e-004
1.872571e+003,-2.280349e-004
1.874500e+003,-1.625252e-004
1.876428e+003,-1.796156e-004
1.878357e+003,-1.458647e-004
1.880285e+003,-1.215849e-004
1.882214e+003,-1.223136e-004
1.884142e+003,-1.492763e-004
1.886071e+003,-1.721966e-004
1.887999e+003,-2.398573e-004
1.889928e+003,-3.081366e-004
1.891856e+003,-2.050844e-004
1.893785e+003,-9.568057e-005
1.895713e+003,-1.231086e-004
1.897642e+003,-1.402338e-004
1.899570e+003,-1.295679e-004
1.901499e+003,-8.686876e-005
1.903427e+003,-4.217758e-005
1.905356e+003,-1.607366e-004
1.907284e+003,-1.860409e-004
1.909213e+003,-1.173118e-004
1.911141e+003,-5.735124e-005
1.913070e+003,-1.057510e-004
1.914998e+003,-2.128340e-004
1.916927e+003,-3.916334e-004
1.918855e+003,-3.893492e-004
1.920784e+003,-2.578388e-004
1.922712e+003,-2.453876e-004
1.924641e+003,-1.968378e-004
1.926569e+003,-1.748131e-004
1.928498e+003,-8.835949e-005
1.930426e+003,-8.703440e-005
1.932355e+003,-2.054818e-004
1.934283e+003,-3.091299e-004
1.936212e+003,-2.818129e-004
1.938140e+003,-2.438312e-004
1.940069e+003,-2.731705e-004
1.941997e+003,-3.206191e-004
1.943926e+003,-3.060838e-004
1.945854e+003,-1.826627e-004
1.947783e+003,-1.871007e-004
1.949711e+003,-1.495413e-004
1.951640e+003,-6.921149e-005
1.953568e+003,-9.389171e-005
1.955497e+003,-1.649099e-004
1.957425e+003,-2.077008e-004
1.959354e+003,-3.019449e-004
1.961282e+003,-3.059844e-004
1.963211e+003,-3.138978e-004
1.965139e+003,-2.754553e-004
1.967068e+003,-2.481362e-004
1.968996e+003,-2.050844e-004
1.970925e+003,-1.856103e-004
1.972853e+003,-1.455997e-004
1.974782e+003,-1.093286e-004
1.976710e+003,-1.179743e-004
1.978639e+003,-1.445729e-004
1.980567e+003,-1.612997e-004
1.982496e+003,-2.080319e-004
1.984424e+003,-1.835900e-004
1.986353e+003,-9.763504e-005
1.988281e+003,-1.765685e-004
1.990210e+003,-2.363802e-004
1.992138e+003,-2.000504e-004
1.994067e+003,-2.114431e-004
1.995995e+003,-1.990237e-004
1.997924e+003,-1.791519e-004
1.999852e+003,-2.047201e-004
2.001781e+003,-1.988250e-004
2.003709e+003,-1.908433e-004
2.005638e+003,-2.124035e-004
2.007566e+003,-1.562320e-004
2.009495e+003,-1.235061e-004
2.011423e+003,-1.389751e-004
2.013352e+003,-1.953806e-004
2.015280e+003,-2.153841e-004
2.017208e+003,-2.312140e-004
2.019137e+003,-1.820334e-004
2.021066e+003,-1.654730e-004
2.022994e+003,-1.938902e-004
2.024922e+003,-2.406852e-004
2.026851e+003,-2.578388e-004
2.028780e+003,-2.209147e-004
2.030708e+003,-2.335984e-004
2.032636e+003,-3.460134e-004
2.034565e+003,-3.478343e-004
2.036494e+003,-2.538651e-004
2.038422e+003,-2.045545e-004
2.040350e+003,-2.823759e-004
2.042279e+003,-2.683028e-004
2.044208e+003,-1.580206e-004
2.046136e+003,-1.862396e-004
2.048064e+003,-2.150198e-004
2.049993e+003,-1.600410e-004
2.051921e+003,-1.099911e-004
2.053850e+003,-1.792513e-004
2.055778e+003,-2.191595e-004
2.057707e+003,-2.391619e-004
2.059635e+003,-2.930380e-004
2.061564e+003,-3.206191e-004
2.063492e+003,-3.520059e-004
2.065421e+003,-3.694861e-004
2.067349e+003,-2.514477e-004
2.069278e+003,-1.807417e-004
2.071206e+003,-1.887236e-004
2.073135e+003,-1.916712e-004
2.075063e+003,-2.374068e-004
2.076992e+003,-1.937909e-004
2.078920e+003,-2.083300e-004
2.080849e+003,-3.066798e-004
2.082777e+003,-2.990311e-004
2.084706e+003,-2.119399e-004
2.086634e+003,-1.963742e-004
2.088563e+003,-2.487322e-004
2.090491e+003,-2.142250e-004
2.092420e+003,-1.422874e-004
2.094348e+003,-1.980964e-004
2.096277e+003,-2.746275e-004
2.098205e+003,-2.773427e-004
2.100134e+003,-2.011764e-004
2.102062e+003,-1.182724e-004
2.103991e+003,-1.427511e-004
2.105919e+003,-2.039253e-004
2.107848e+003,-2.333666e-004
2.109776e+003,-1.969372e-004
2.111705e+003,-1.649099e-004
2.113633e+003,-2.086943e-004
2.115562e+003,-1.737202e-004
2.117490e+003,-1.899490e-004
2.119419e+003,-2.384996e-004
2.121347e+003,-1.737202e-004
2.123276e+003,-1.283092e-004
2.125204e+003,-2.445929e-004
2.127133e+003,-2.953558e-004
2.129061e+003,-2.540306e-004
2.130990e+003,-2.124697e-004
2.132918e+003,-2.031967e-004
2.134847e+003,-1.752106e-004
2.136775e+003,-1.711367e-004
2.138704e+003,-2.379366e-004
2.140632e+003,-2.616800e-004
2.142561e+003,-1.839212e-004
2.144489e+003,-1.959768e-004
2.146418e+003,-3.202880e-004
2.148346e+003,-3.089313e-004
2.150275e+003,-1.953475e-004
2.152203e+003,-2.309822e-004
2.154132e+003,-3.062824e-004
2.156060e+003,-3.687247e-004
2.157989e+003,-3.612758e-004
2.159917e+003,-3.305519e-004
2.161846e+003,-3.641229e-004
2.163774e+003,-3.060838e-004
2.165703e+003,-1.687851e-004
2.167631e+003,-1.617634e-004
2.169560e+003,-2.463811e-004
2.171488e+003,-3.138316e-004
2.173417e+003,-3.082360e-004
2.175345e+003,-2.686009e-004
2.177274e+003,-2.959849e-004
2.179202e+003,-3.948445e-004
2.181131e+003,-3.691220e-004
2.183059e+003,-2.728062e-004
2.184988e+003,-2.083962e-004
2.186916e+003,-2.465135e-004
2.188845e+003,-3.958376e-004
2.190773e+003,-3.897133e-004
2.192702e+003,-2.733692e-004
2.194630e+003,-2.111782e-004
2.196559e+003,-2.183316e-004
2.198487e+003,-2.008121e-004
2.200416e+003,-2.727400e-004
2.202344e+003,-3.282012e-004
2.204273e+003,-3.099908e-004
2.206201e+003,-3.155533e-004
2.208130e+003,-3.162486e-004
2.210058e+003,-3.063818e-004
2.211987e+003,-2.754884e-004
2.213915e+003,-2.599250e-004
2.215844e+003,-2.998258e-004
2.217772e+003,-2.318764e-004
2.219701e+003,-1.791519e-004
2.221629e+003,-2.772434e-004
2.223558e+003,-3.036336e-004
2.225486e+003,-2.135626e-004
2.227415e+003,-2.029648e-004
2.229343e+003,-2.509841e-004
2.231272e+003,-4.176856e-004
2.233200e+003,-4.988445e-004
2.235129e+003,-5.085747e-004
2.237057e+003,-4.972559e-004
2.238986e+003,-3.834235e-004
2.240914e+003,-3.128052e-004
2.242843e+003,-2.403210e-004
2.244771e+003,-1.724616e-004
2.246700e+003,-2.203848e-004
2.248628e+003,-3.001569e-004
2.250557e+003,-3.461128e-004
2.252485e+003,-3.256849e-004
2.254414e+003,-2.494277e-004
2.256342e+003,-2.606535e-004
2.258271e+003,-3.900444e-004
2.260199e+003,-3.579651e-004
2.262128e+003,-2.640643e-004
2.264056e+003,-2.965147e-004
2.265985e+003,-4.005714e-004
2.267913e+003,-3.403189e-004
2.269842e+003,-3.239632e-004
2.271770e+003,-3.486620e-004
2.273699e+003,-2.851573e-004
2.275627e+003,-2.462155e-004
2.277556e+003,-3.103219e-004
2.279484e+003,-3.218111e-004
2.281413e+003,-2.683690e-004
2.283341e+003,-3.200894e-004
2.285270e+003,-4.459539e-004
2.287198e+003,-4.093107e-004
2.289127e+003,-3.201556e-004
2.291055e+003,-2.453876e-004
2.292984e+003,-2.675743e-004
2.294912e+003,-3.939176e-004
2.296841e+003,-3.932224e-004
2.298769e+003,-3.938182e-004
2.300698e+003,-4.913648e-004
2.302626e+003,-4.718374e-004
2.304555e+003,-3.460466e-004
2.306483e+003,-2.982033e-004
2.308412e+003,-3.131032e-004
2.310340e+003,-2.960511e-004
2.312269e+003,-3.314789e-004
2.314197e+003,-4.207972e-004
2.316125e+003,-3.438283e-004
2.318054e+003,-3.373060e-004
2.319983e+003,-3.999094e-004
2.321911e+003,-3.728629e-004
2.323840e+003,-3.743526e-004
2.325768e+003,-3.650499e-004
2.327697e+003,-3.856746e-004
2.329625e+003,-4.329123e-004
2.331553e+003,-4.910008e-004
2.333482e+003,-4.520443e-004
2.335411e+003,-4.491315e-004
2.337339e+003,-4.555528e-004
2.339268e+003,-5.106266e-004
2.341196e+003,-4.951378e-004
2.343125e+003,-4.738233e-004
2.345053e+003,-5.181722e-004
2.346981e+003,-4.249349e-004
2.348910e+003,-3.537275e-004
2.350839e+003,-4.201351e-004
2.352767e+003,-5.030808e-004
2.354696e+003,-5.757859e-004
2.356624e+003,-4.761070e-004
2.358552e+003,-5.047025e-004
2.360481e+003,-5.923307e-004
2.362409e+003,-6.046396e-004
2.364338e+003,-4.750148e-004
2.366267e+003,-3.933879e-004
2.368195e+003,-3.953741e-004
2.370124e+003,-3.355513e-004
2.372052e+003,-3.224733e-004
2.373980e+003,-4.015645e-004
2.375909e+003,-4.064307e-004
2.377838e+003,-1.899490e-004
2.379766e+003,-5.476712e-005
2.381695e+003,-3.293399e-005
2.383623e+003,-1.474877e-004
2.385552e+003,-2.953558e-004
2.387480e+003,-3.152885e-004
2.389408e+003,-3.403851e-004
2.391337e+003,-3.649837e-004
2.393266e+003,-2.915810e-004
2.395194e+003,-3.082028e-004
2.397123e+003,-2.609516e-004
2.399051e+003,-2.802898e-004
2.400979e+003,-3.367432e-004
2.402908e+003,-3.506816e-004
2.404836e+003,-3.251220e-004
2.406765e+003,-2.918791e-004
2.408694e+003,-3.025078e-004
2.410622e+003,-3.691882e-004
2.412551e+003,-3.730615e-004
2.414479e+003,-3.153878e-004
2.416407e+003,-2.701572e-004
2.418336e+003,-3.253538e-004
2.420264e+003,-3.690226e-004
2.422193e+003,-3.208840e-004
2.424122e+003,-2.236966e-004
2.426050e+003,-2.270745e-004
2.427979e+003,-2.471427e-004
2.429907e+003,-3.120106e-004
2.431835e+003,-3.443580e-004
2.433764e+003,-3.868332e-004
2.435692e+003,-4.046100e-004
2.437621e+003,-3.981549e-004
2.439550e+003,-3.604481e-004
2.441478e+003,-3.161493e-004
2.443406e+003,-3.195265e-004
2.445335e+003,-4.050404e-004
2.447263e+003,-3.987176e-004
2.449192e+003,-3.623021e-004
2.451121e+003,-3.826952e-004
2.453049e+003,-4.209627e-004
2.454978e+003,-4.643903e-004
2.456906e+003,-4.519781e-004
2.458834e+003,-3.475033e-004
2.460763e+003,-2.942631e-004
2.462691e+003,-3.289295e-004
2.464620e+003,-3.298566e-004
2.466549e+003,-3.447553e-004
2.468477e+003,-3.983204e-004
2.470406e+003,-4.186455e-004
2.472334e+003,-4.516471e-004
2.474262e+003,-4.278809e-004
2.476191e+003,-4.027562e-004
2.478119e+003,-4.221543e-004
2.480048e+003,-4.782253e-004
2.481977e+003,-4.625036e-004
2.483905e+003,-4.424122e-004
2.485833e+003,-3.430006e-004
2.487762e+003,-2.651570e-004
2.489690e+003,-3.452188e-004
2.491619e+003,-3.704793e-004
2.493547e+003,-4.343026e-004
2.495476e+003,-4.786886e-004
2.497405e+003,-4.288740e-004
2.499333e+003,-3.755114e-004
2.501261e+003,-4.562810e-004
2.503190e+003,-5.016246e-004
2.505118e+003,-5.189003e-004
2.507047e+003,-4.968257e-004
2.508975e+003,-3.849463e-004
2.510904e+003,-3.952417e-004
2.512833e+003,-4.701825e-004
2.514761e+003,-4.197710e-004
2.516689e+003,-3.947783e-004
2.518618e+003,-3.874954e-004
2.520546e+003,-3.896802e-004
2.522475e+003,-4.567113e-004
2.524403e+003,-4.421805e-004
2.526332e+003,-3.482316e-004
2.528260e+003,-4.002735e-004
2.530189e+003,-4.403600e-004
2.532117e+003,-4.206648e-004
2.534046e+003,-4.049742e-004
2.535974e+003,-4.128526e-004
2.537903e+003,-4.954687e-004
2.539831e+003,-5.326674e-004
2.541760e+003,-5.199593e-004
2.543688e+003,-4.397973e-004
2.545617e+003,-4.125216e-004
2.547545e+003,-4.591937e-004
2.549474e+003,-4.367520e-004
2.551402e+003,-3.717042e-004
2.553331e+003,-3.759086e-004
2.555259e+003,-4.265569e-004
2.557188e+003,-4.650191e-004
2.559116e+003,-4.854405e-004
2.561045e+003,-4.716388e-004
2.562973e+003,-4.000087e-004
2.564902e+003,-4.205324e-004
2.566830e+003,-4.798801e-004
2.568759e+003,-4.894783e-004
2.570687e+003,-3.987838e-004
2.572616e+003,-4.094762e-004
2.574544e+003,-5.253868e-004
2.576473e+003,-4.825941e-004
2.578401e+003,-4.250011e-004
2.580330e+003,-4.801780e-004
2.582258e+003,-4.484695e-004
2.584187e+003,-4.499921e-004
2.586115e+003,-4.789203e-004
2.588044e+003,-4.361562e-004
2.589972e+003,-4.220882e-004
2.591901e+003,-4.142429e-004
2.593829e+003,-4.732937e-004
2.595758e+003,-5.906763e-004
2.597686e+003,-5.381608e-004
2.599615e+003,-3.783253e-004
2.601543e+003,-3.071102e-004
2.603472e+003,-3.299228e-004
2.605400e+003,-3.830924e-004
2.607329e+003,-4.153353e-004
2.609257e+003,-4.211282e-004
2.611186e+003,-4.389698e-004
2.613114e+003,-3.464769e-004
2.615043e+003,-3.119112e-004
2.616971e+003,-4.728965e-004
2.618900e+003,-5.891211e-004
2.620828e+003,-5.070192e-004
2.622757e+003,-4.439348e-004
2.624685e+003,-4.705466e-004
2.626614e+003,-3.998431e-004
2.628542e+003,-3.789212e-004
2.630471e+003,-4.160305e-004
2.632399e+003,-4.404593e-004
2.634328e+003,-4.636952e-004
2.636256e+003,-4.312573e-004
2.638185e+003,-4.758422e-004
2.640113e+003,-4.398966e-004
2.642042e+003,-3.475695e-004
2.643970e+003,-2.788990e-004
2.645899e+003,-2.788659e-004
2.647827e+003,-3.396567e-004
2.649756e+003,-4.153353e-004
2.651684e+003,-4.551556e-004
2.653613e+003,-3.913354e-004
2.655541e+003,-3.809737e-004
2.657470e+003,-5.188010e-004
2.659398e+003,-5.958050e-004
2.661327e+003,-6.057646e-004
2.663255e+003,-5.177751e-004
2.665184e+003,-4.561817e-004
2.667112e+003,-3.806096e-004
2.669041e+003,-3.526349e-004
2.670969e+003,-4.336406e-004
2.672898e+003,-4.582670e-004
2.674826e+003,-4.466821e-004
2.676755e+003,-3.986845e-004
2.678683e+003,-4.102706e-004
2.680612e+003,-4.426770e-004
2.682540e+003,-4.910008e-004
2.684469e+003,-5.083099e-004
2.686397e+003,-4.538648e-004
2.688326e+003,-4.142761e-004
2.690254e+003,-3.834566e-004
2.692183e+003,-3.766369e-004
2.694111e+003,-3.679964e-004
2.696040e+003,-3.437290e-004
2.697968e+003,-3.950100e-004
2.699897e+003,-3.954072e-004
2.701825e+003,-3.422392e-004
2.703754e+003,-3.365445e-004
2.705682e+003,-3.538268e-004
2.707611e+003,-4.029549e-004
2.709539e+003,-4.918613e-004
2.711468e+003,-4.570092e-004
2.713396e+003,-4.820315e-004
2.715325e+003,-5.387234e-004
2.717253e+003,-5.139361e-004
2.719182e+003,-5.856136e-004
2.721110e+003,-6.382887e-004
2.723039e+003,-4.949723e-004
2.724967e+003,-3.454837e-004
2.726896e+003,-3.359155e-004
2.728824e+003,-4.711754e-004
2.730753e+003,-5.079128e-004
2.732681e+003,-4.696860e-004
2.734610e+003,-4.386057e-004
2.736538e+003,-4.555528e-004
2.738467e+003,-4.678325e-004
2.740395e+003,-5.247911e-004
2.742324e+003,-5.921653e-004
2.744252e+003,-5.371681e-004
2.746181e+003,-4.915634e-004
2.748109e+003,-5.235997e-004
2.750038e+003,-5.282659e-004
2.751966e+003,-4.958328e-004
2.753895e+003,-5.576853e-004
2.755823e+003,-5.156901e-004
2.757752e+003,-4.246701e-004
2.759680e+003,-4.671043e-004
2.761609e+003,-5.084092e-004
2.763537e+003,-4.513161e-004
2.765466e+003,-4.170898e-004
2.767394e+003,-5.356789e-004
2.769323e+003,-5.551703e-004
2.771251e+003,-5.235666e-004
2.773180e+003,-5.568580e-004
2.775108e+003,-5.909410e-004
2.777037e+003,-5.883931e-004
2.778965e+003,-5.163851e-004
2.780894e+003,-5.015254e-004
2.782822e+003,-4.336736e-004
2.784750e+003,-3.539261e-004
2.786679e+003,-3.720684e-004
2.788608e+003,-3.703800e-004
2.790536e+003,-3.822648e-004
2.792465e+003,-4.287747e-004
2.794393e+003,-5.096999e-004
2.796322e+003,-5.352487e-004
2.798250e+003,-4.981827e-004
2.800178e+003,-4.819984e-004
2.802107e+003,-4.764711e-004
2.804036e+003,-5.004001e-004
2.805964e+003,-5.101301e-004
2.807893e+003,-5.154585e-004
2.809821e+003,-4.423129e-004
2.811750e+003,-4.411213e-004
2.813678e+003,-4.911331e-004
2.815606e+003,-5.322041e-004
2.817535e+003,-5.839592e-004
2.819464e+003,-5.252543e-004
2.821392e+003,-4.151698e-004
2.823321e+003,-3.818675e-004
2.825249e+003,-4.301649e-004
2.827177e+003,-4.183145e-004
2.829106e+003,-4.917620e-004
2.831034e+003,-5.431247e-004
2.832963e+003,-4.558838e-004
2.834892e+003,-3.313134e-004
2.836820e+003,-3.495228e-004
2.838749e+003,-3.086002e-004
2.840677e+003,-3.624676e-004
2.842605e+003,-5.139361e-004
2.844534e+003,-6.079484e-004
2.846462e+003,-5.469966e-004
2.848391e+003,-5.007641e-004
2.850320e+003,-4.842490e-004
2.852248e+003,-4.845138e-004
2.854177e+003,-5.871026e-004
2.856105e+003,-6.098674e-004
2.858033e+003,-5.291594e-004
2.859962e+003,-5.956065e-004
2.861890e+003,-6.143674e-004
2.863819e+003,-5.667853e-004
2.865748e+003,-5.260487e-004
2.867676e+003,-4.979841e-004
2.869604e+003,-4.616100e-004
2.871533e+003,-5.407752e-004
2.873461e+003,-6.536070e-004
2.875390e+003,-6.660465e-004
2.877319e+003,-6.427221e-004
2.879247e+003,-5.216140e-004
2.881176e+003,-5.118180e-004
2.883104e+003,-4.879889e-004
2.885032e+003,-5.303839e-004
2.886961e+003,-6.333259e-004
2.888889e+003,-5.019887e-004
2.890818e+003,-3.376702e-004
2.892747e+003,-3.726643e-004
2.894675e+003,-5.160210e-004
2.896604e+003,-5.652963e-004
2.898532e+003,-5.453420e-004
2.900460e+003,-5.003008e-004
2.902389e+003,-5.049342e-004
2.904317e+003,-5.331968e-004
2.906246e+003,-5.462685e-004
2.908175e+003,-4.981827e-004
2.910103e+003,-4.904712e-004
2.912031e+003,-6.109594e-004
2.913960e+003,-6.566838e-004
2.915888e+003,-5.972610e-004
2.917817e+003,-5.207867e-004
2.919745e+003,-3.842511e-004
2.921674e+003,-4.682297e-004
2.923603e+003,-5.492138e-004
2.925531e+003,-5.894850e-004
2.927459e+003,-5.705246e-004
2.929388e+003,-4.738233e-004
2.931316e+003,-4.531697e-004
2.933245e+003,-4.982157e-004
2.935173e+003,-4.998374e-004
2.937102e+003,-3.879588e-004
2.939031e+003,-3.671687e-004
2.940959e+003,-5.135390e-004
2.942887e+003,-5.510669e-004
2.944816e+003,-5.078466e-004
2.946744e+003,-4.347660e-004
2.948673e+003,-4.962631e-004
2.950601e+003,-4.620733e-004
2.952530e+003,-4.093107e-004
2.954458e+003,-3.116463e-004
2.956387e+003,-3.317769e-004
2.958315e+003,-4.761070e-004
2.960244e+003,-5.398486e-004
2.962172e+003,-3.812716e-004
2.964101e+003,-3.119112e-004
2.966029e+003,-4.864003e-004
2.967958e+003,-5.844886e-004
2.969886e+003,-4.556190e-004
2.971815e+003,-4.734592e-004
2.973743e+003,-4.725655e-004
2.975672e+003,-4.519781e-004
2.977600e+003,-3.914348e-004
2.979529e+003,-3.048256e-004
2.981457e+003,-3.547538e-004
2.983386e+003,-4.556190e-004
2.985314e+003,-4.790527e-004
2.987243e+003,-4.492970e-004
2.989171e+003,-3.547869e-004
2.991100e+003,-4.496280e-004
2.993028e+003,-5.668515e-004
2.994957e+003,-5.031470e-004
2.996885e+003,-4.224523e-004
2.998814e+003,-4.585980e-004
3.000742e+003,-5.091373e-004
3.002671e+003,-5.295235e-004
3.004599e+003,-6.094374e-004
3.006528e+003,-6.085109e-004
3.008456e+003,-4.916958e-004
3.010385e+003,-5.590751e-004
3.012313e+003,-5.784662e-004
3.014242e+003,-4.684283e-004
3.016170e+003,-4.141767e-004
3.018099e+003,-4.370830e-004
3.020027e+003,-5.132080e-004
3.021956e+003,-5.299206e-004
3.023884e+003,-4.204331e-004
3.025813e+003,-4.511175e-004
3.027741e+003,-5.311781e-004
3.029670e+003,-4.398966e-004
3.031598e+003,-4.274837e-004
3.033527e+003,-4.416509e-004
3.035455e+003,-5.713518e-004
3.037384e+003,-5.740322e-004
3.039312e+003,-4.926556e-004
3.041241e+003,-4.868968e-004
3.043169e+003,-5.313105e-004
3.045098e+003,-5.769772e-004
3.047026e+003,-5.194298e-004
3.048955e+003,-4.275830e-004
3.050883e+003,-3.723001e-004
3.052812e+003,-4.305290e-004
3.054740e+003,-5.536150e-004
3.056669e+003,-5.218126e-004
3.058597e+003,-3.514430e-004
3.060526e+003,-3.150236e-004
3.062454e+003,-3.974266e-004
3.064383e+003,-4.894452e-004
3.066311e+003,-5.987830e-004
3.068240e+003,-5.731388e-004
3.070168e+003,-5.250558e-004
3.072097e+003,-3.435635e-004
3.074025e+003,-3.094941e-004
3.075954e+003,-5.102626e-004
3.077882e+003,-5.261148e-004
3.079811e+003,-3.693868e-004
3.081739e+003,-2.965147e-004
3.083668e+003,-3.408486e-004
3.085596e+003,-4.620402e-004
3.087525e+003,-4.369837e-004
3.089453e+003,-4.095755e-004
3.091382e+003,-4.284768e-004
3.093310e+003,-4.124223e-004
3.095239e+003,-4.850433e-004
3.097167e+003,-5.049342e-004
3.099096e+003,-3.959369e-004
3.101024e+003,-4.731944e-004
3.102953e+003,-6.009668e-004
3.104881e+003,-5.799222e-004
3.106810e+003,-4.227833e-004
3.108738e+003,-3.212813e-004
3.110667e+003,-4.265900e-004
3.112595e+003,-5.482210e-004
3.114524e+003,-5.209190e-004
3.116452e+003,-4.441665e-004
3.118381e+003,-4.728965e-004
3.120309e+003,-5.220773e-004
3.122238e+003,-4.372154e-004
3.124166e+003,-4.082845e-004
3.126095e+003,-3.911037e-004
3.128023e+003,-3.469404e-004
3.129952e+003,-4.710099e-004
3.131880e+003,-6.176761e-004
3.133809e+003,-6.553935e-004
3.135737e+003,-6.266094e-004
3.137666e+003,-4.884523e-004
3.139594e+003,-4.303304e-004
3.141523e+003,-3.998100e-004
3.143451e+003,-2.611171e-004
3.145380e+003,-2.195238e-004
3.147308e+003,-3.052891e-004
3.149237e+003,-4.346667e-004
3.151165e+003,-4.849771e-004
3.153094e+003,-4.087479e-004
3.155022e+003,-4.089134e-004
3.156951e+003,-6.479165e-004
3.158879e+003,-7.141138e-004
3.160808e+003,-5.486512e-004
3.162736e+003,-4.843152e-004
3.164665e+003,-5.854482e-004
3.166593e+003,-6.017940e-004
3.168522e+003,-5.470297e-004
3.170450e+003,-5.213493e-004
3.172379e+003,-4.038487e-004
3.174307e+003,-4.018625e-004
3.176236e+003,-3.412128e-004
3.178164e+003,-3.087988e-004
3.180093e+003,-3.959700e-004
3.182021e+003,-5.408744e-004
3.183950e+003,-5.886247e-004
3.185878e+003,-4.989108e-004
3.187807e+003,-4.340378e-004
3.189735e+003,-4.705135e-004
3.191664e+003,-4.858045e-004
3.193592e+003,-5.080451e-004
3.195521e+003,-5.382601e-004
3.197449e+003,-4.788872e-004
3.199378e+003,-4.415516e-004
3.201306e+003,-4.244715e-004
3.203235e+003,-4.758422e-004
3.205163e+003,-4.629008e-004
3.207092e+003,-5.302847e-004
3.209020e+003,-5.064566e-004
3.210948e+003,-3.301877e-004
3.212877e+003,-3.658776e-004
3.214806e+003,-4.507865e-004
3.216734e+003,-3.467418e-004
3.218663e+003,-3.523701e-004
3.220591e+003,-3.455499e-004
3.222520e+003,-4.018625e-004
3.224448e+003,-4.930196e-004
3.226376e+003,-5.854151e-004
3.228305e+003,-4.736578e-004
3.230234e+003,-2.675412e-004
3.232162e+003,-2.903559e-004
3.234091e+003,-3.302208e-004
3.236019e+003,-2.942300e-004
3.237948e+003,-4.084831e-004
3.239876e+003,-4.494956e-004
3.241804e+003,-4.949061e-004
3.243733e+003,-5.572220e-004
3.245662e+003,-5.717489e-004
3.247590e+003,-5.884593e-004
3.249519e+003,-5.559314e-004
3.251447e+003,-4.680311e-004
3.253375e+003,-5.577515e-004
3.255304e+003,-6.086101e-004
3.257232e+003,-4.770338e-004
3.259161e+003,-4.858045e-004
3.261090e+003,-5.210845e-004
3.263018e+003,-5.047356e-004
3.264947e+003,-5.359767e-004
3.266875e+003,-5.217464e-004
3.268803e+003,-5.732380e-004
3.270732e+003,-5.847864e-004
3.272660e+003,-6.108270e-004
3.274589e+003,-6.412002e-004
3.276518e+003,-5.827679e-004
3.278446e+003,-4.967264e-004
3.280375e+003,-4.484695e-004
3.282303e+003,-4.325482e-004
3.284231e+003,-4.529380e-004
3.286160e+003,-5.163189e-004
3.288088e+003,-5.815105e-004
3.290017e+003,-4.456891e-004
3.291946e+003,-4.328130e-004
3.293874e+003,-4.575388e-004
3.295802e+003,-3.276052e-004
3.297731e+003,-3.161493e-004
3.299659e+003,-4.869960e-004
3.301588e+003,-5.199593e-004
3.303516e+003,-5.443161e-004
3.305445e+003,-5.507691e-004
3.307374e+003,-5.053975e-004
3.309302e+003,-4.859038e-004
3.311230e+003,-6.173452e-004
3.313159e+003,-6.102645e-004
3.315087e+003,-3.582631e-004
3.317016e+003,-3.597529e-004
3.318944e+003,-4.462518e-004
3.320873e+003,-3.710090e-004
3.322802e+003,-3.421398e-004
3.324730e+003,-3.425040e-004
3.326658e+003,-3.549524e-004
3.328587e+003,-3.701151e-004
3.330515e+003,-3.426364e-004
3.332444e+003,-3.858401e-004
3.334372e+003,-5.784662e-004
3.336301e+003,-6.040771e-004
3.338229e+003,-4.321179e-004
3.340158e+003,-5.215478e-004
3.342086e+003,-6.344178e-004
3.344015e+003,-6.035146e-004
3.345943e+003,-4.667733e-004
3.347872e+003,-3.138978e-004
3.349800e+003,-3.409810e-004
3.351729e+003,-4.412868e-004
3.353657e+003,-5.441837e-004
3.355586e+003,-5.783670e-004
3.357514e+003,-6.503317e-004
3.359443e+003,-4.975538e-004
3.361371e+003,-2.892632e-004
3.363300e+003,-3.293931e-004
3.365229e+003,-3.976914e-004
3.367157e+003,-2.948591e-004
3.369085e+003,-3.028058e-004
3.371014e+003,-3.099577e-004
3.372942e+003,-3.575016e-004
3.374871e+003,-4.100389e-004
3.376799e+003,-3.677977e-004
3.378728e+003,-3.816358e-004
3.380656e+003,-4.970905e-004
3.382585e+003,-6.354434e-004
3.384513e+003,-5.830657e-004
3.386442e+003,-4.482047e-004
3.388370e+003,-4.159974e-004
3.390299e+003,-4.384402e-004
3.392227e+003,-5.266774e-004
3.394156e+003,-4.625036e-004
3.396084e+003,-5.374328e-004
3.398013e+003,-5.774074e-004
3.399941e+003,-5.453420e-004
3.401870e+003,-6.933393e-004
3.403798e+003,-6.420605e-004
3.405727e+003,-4.885185e-004
3.407655e+003,-5.382932e-004
3.409584e+003,-4.984805e-004
3.411512e+003,-3.831917e-004
3.413441e+003,-3.408817e-004
3.415369e+003,-4.367851e-004
3.417298e+003,-4.522098e-004
3.419226e+003,-4.265569e-004
3.421155e+003,-3.308499e-004
3.423083e+003,-3.119774e-004
3.425012e+003,-4.935161e-004
3.426940e+003,-5.538135e-004
3.428869e+003,-4.005383e-004
3.430797e+003,-2.497919e-004
3.432726e+003,-2.141256e-004
3.434654e+003,-3.142620e-004
3.436583e+003,-3.002894e-004
3.438511e+003,-2.908526e-004
3.440440e+003,-3.910044e-004
3.442368e+003,-3.937189e-004
3.444297e+003,-4.257293e-004
3.446225e+003,-4.397311e-004
3.448154e+003,-3.037991e-004
3.450082e+003,-3.948445e-004
3.452011e+003,-6.162533e-004
3.453939e+003,-4.969912e-004
3.455868e+003,-3.286647e-004
3.457796e+003,-4.333095e-004
3.459725e+003,-4.856721e-004
3.461653e+003,-4.936153e-004
3.463582e+003,-4.438686e-004
3.465510e+003,-3.483310e-004
3.467439e+003,-3.522707e-004
3.469367e+003,-5.670501e-004
3.471296e+003,-6.991946e-004
3.473224e+003,-6.433508e-004
3.475153e+003,-4.857715e-004
3.477081e+003,-3.783253e-004
3.479010e+003,-4.637283e-004
3.480938e+003,-4.872608e-004
3.482867e+003,-3.146594e-004
3.484795e+003,-3.284660e-004
3.486724e+003,-4.388043e-004
3.488652e+003,-3.551180e-004
3.490581e+003,-2.686671e-004
3.492509e+003,-2.900910e-004
3.494438e+003,-3.967976e-004
3.496366e+003,-5.239306e-004
3.498295e+003,-4.248025e-004
3.500223e+003,-4.526732e-004
3.502152e+003,-4.374471e-004
3.504080e+003,-2.772103e-004
3.506009e+003,-2.039253e-004
3.507937e+003,-3.084346e-004
3.509866e+003,-3.488938e-004
3.511794e+003,-4.182152e-004
3.513723e+003,-4.646551e-004
3.515651e+003,-5.263465e-004
3.517580e+003,-4.618086e-004
3.519508e+003,-5.141015e-004
3.521437e+003,-4.009024e-004
3.523365e+003,-2.453214e-004
3.525294e+003,-1.855772e-004
3.527222e+003,-3.820662e-004
3.529151e+003,-4.957005e-004
3.531079e+003,-4.115948e-004
3.533008e+003,-3.732271e-004
3.534936e+003,-3.599184e-004
3.536865e+003,-2.109132e-004
3.538793e+003,-2.366782e-004
3.540722e+003,-5.057616e-004
3.542650e+003,-4.516802e-004
3.544579e+003,-3.164142e-004
3.546507e+003,-4.876249e-004
3.548436e+003,-4.494625e-004
3.550364e+003,-2.117411e-004
3.552293e+003,-1.109849e-004
3.554221e+003,-3.077724e-004
3.556150e+003,-5.189996e-004
3.558078e+003,-5.362745e-004
3.560007e+003,-3.580975e-004
3.561935e+003,-3.018125e-004
3.563864e+003,-4.676670e-004
3.565792e+003,-7.571813e-004
3.567721e+003,-6.839772e-004
3.569649e+003,-4.054045e-004
3.571578e+003,-4.256631e-004
3.573506e+003,-3.330681e-004
3.575435e+003,-2.864156e-004
3.577363e+003,-5.414701e-004
3.579292e+003,-6.123490e-004
3.581220e+003,-3.737899e-004
3.583149e+003,-2.969120e-004
3.585077e+003,-5.221766e-004
3.587006e+003,-7.809625e-004
3.588934e+003,-8.043456e-004
3.590863e+003,-6.661126e-004
3.592791e+003,-4.505879e-004
3.594720e+003,-4.225516e-004
3.596648e+003,-5.566594e-004
3.598577e+003,-5.261148e-004
3.600505e+003,-5.126123e-004
3.602434e+003,-5.447794e-004
3.604362e+003,-4.636290e-004
3.606291e+003,-4.758753e-004
3.608219e+003,-5.418010e-004
3.610148e+003,-3.876609e-004
3.612076e+003,-4.392015e-004
3.614005e+003,-5.053644e-004
3.615933e+003,-4.798801e-004
3.617862e+003,-6.447404e-004
3.619790e+003,-6.236648e-004
3.621719e+003,-4.083507e-004
3.623647e+003,-3.189636e-004
3.625576e+003,-4.189435e-004
3.627504e+003,-9.459730e-004
3.629433e+003,-1.055229e-003
3.631361e+003,-6.456336e-004
3.633290e+003,-5.040075e-004
3.635218e+003,-4.711423e-004
3.637146e+003,-4.690572e-004
3.639075e+003,-5.568249e-004
3.641004e+003,-5.717489e-004
3.642932e+003,-5.303508e-004
3.644861e+003,-5.259493e-004
3.646789e+003,-8.622190e-004
3.648718e+003,-1.082762e-003
3.650646e+003,-8.038825e-004
3.652574e+003,-4.603191e-004
3.654503e+003,-5.384587e-004
3.656432e+003,-4.730289e-004
3.658360e+003,-1.692157e-004
3.660289e+003,-1.566957e-004
3.662217e+003,-1.905783e-004
3.664146e+003,-1.122436e-004
3.666074e+003,-1.855110e-004
3.668002e+003,-4.117934e-004
3.669931e+003,-6.158563e-004
3.671860e+003,-5.827679e-004
3.673788e+003,-9.181339e-004
3.675717e+003,-9.707357e-004
3.677645e+003,-3.910706e-004
3.679573e+003,-1.577556e-004
3.681502e+003,-1.299654e-004
3.683430e+003,-2.468778e-004
3.685359e+003,-2.850249e-004
3.687288e+003,-4.360238e-004
3.689216e+003,-5.796244e-004
3.691145e+003,-5.227392e-004
3.693073e+003,-2.971107e-004
3.695001e+003,-1.352652e-004
3.696930e+003,-2.917466e-004
3.698858e+003,-4.182814e-004
3.700787e+003,-5.974594e-004
3.702716e+003,-5.272731e-004
3.704644e+003,-3.941162e-004
3.706573e+003,-3.398554e-004
3.708501e+003,-4.412868e-004
3.710429e+003,-9.134388e-004
3.712358e+003,-1.003927e-003
3.714286e+003,-4.776957e-004
3.716215e+003,-1.942546e-004
3.718144e+003,-1.336422e-004
3.720072e+003,-1.352983e-004
3.722000e+003,-2.588985e-004
3.723929e+003,-4.837525e-004
3.725857e+003,-6.628043e-004
3.727786e+003,-4.585980e-004
3.729714e+003,-3.142620e-004
3.731643e+003,-5.160542e-004
3.733572e+003,-6.819261e-004
3.735500e+003,-8.563990e-004
3.737428e+003,-6.228376e-004
3.739357e+003,-3.254862e-004
3.741285e+003,-5.793928e-004
3.743214e+003,-1.195255e-003
3.745142e+003,-1.083225e-003
3.747071e+003,-6.917845e-004
3.749000e+003,-9.591645e-004
3.750928e+003,-1.147241e-003
3.752856e+003,-9.404516e-004
3.754785e+003,-5.020549e-004
3.756713e+003,-4.697853e-004
3.758642e+003,-5.552034e-004
3.760570e+003,-5.221766e-004
3.762499e+003,-2.820778e-004
3.764427e+003,-3.888526e-004
3.766356e+003,-5.210845e-004
3.768284e+003,-6.010330e-004
3.770213e+003,-4.556521e-004
3.772141e+003,-5.705307e-005
3.774070e+003,-1.880943e-004
3.775998e+003,-4.564465e-004
3.777927e+003,-5.751242e-004
3.779855e+003,-3.261484e-004
3.781784e+003,7.502195e-005
3.783712e+003,-2.027330e-004
3.785641e+003,-3.058520e-004
3.787569e+003,-1.281767e-004
3.789498e+003,-4.075296e-005
3.791426e+003,-9.856258e-005
3.793355e+003,-1.770653e-004
3.795283e+003,-2.267102e-004
3.797212e+003,-3.008854e-004
3.799140e+003,-4.414523e-004
3.801069e+003,-7.682287e-004
3.802997e+003,-5.821061e-004
3.804926e+003,-4.288740e-004
3.806854e+003,-5.980220e-004
3.808783e+003,-3.406169e-004
3.810711e+003,-4.151497e-005
3.812640e+003,1.789242e-006
3.814568e+003,-4.783577e-004
3.816497e+003,-7.648880e-004
3.818425e+003,-8.226013e-004
3.820354e+003,-1.000257e-003
3.822282e+003,-5.684399e-004
3.824211e+003,-2.023356e-004
3.826139e+003,-2.835679e-004
3.828068e+003,-4.043452e-004
3.829996e+003,-5.586118e-004
3.831925e+003,-5.903123e-004
3.833853e+003,-6.212163e-004
3.835782e+003,-7.934645e-004
3.837710e+003,-9.785708e-004
3.839639e+003,-7.231775e-004
3.841567e+003,-4.419157e-004
3.843496e+003,-3.734919e-004
3.845424e+003,-3.119112e-004
3.847353e+003,-2.909519e-004
3.849281e+003,-5.316415e-004
3.851210e+003,-8.837129e-004
3.853138e+003,-1.407735e-003
3.855067e+003,-1.004356e-003
3.856995e+003,-3.712076e-004
3.858924e+003,-6.864830e-005
3.860852e+003,-6.609738e-005
3.862781e+003,-2.330023e-004
3.864709e+003,-3.291613e-004
3.866638e+003,-3.138316e-004
3.868566e+003,-3.804109e-004
3.870495e+003,-3.689233e-004
3.872423e+003,-4.828589e-004
3.874352e+003,-5.551703e-004
3.876280e+003,-3.727636e-004
3.878209e+003,-4.807407e-004
3.880137e+003,-5.549387e-004
3.882066e+003,-3.140965e-004
3.883994e+003,-3.847145e-004
3.885923e+003,-5.325681e-004
3.887851e+003,-3.252213e-004
3.889780e+003,-2.312140e-004
3.891708e+003,-2.156822e-004
3.893637e+003,-2.063098e-004
3.895565e+003,-2.262465e-004
3.897494e+003,-2.878063e-004
3.899422e+003,-5.050666e-004
3.901351e+003,-5.188010e-004
3.903279e+003,-3.852773e-004
3.905208e+003,-2.789797e-005
3.907136e+003,1.284134e-004
3.909065e+003,1.031917e-004
3.910993e+003,-4.439938e-006
3.912922e+003,-8.421856e-005
3.914850e+003,-2.451227e-004
3.916779e+003,-4.055369e-004
3.918707e+003,-1.573838e-005
3.920636e+003,4.629072e-005
3.922564e+003,-2.281011e-004
3.924493e+003,-2.863162e-004
3.926421e+003,6.610744e-005
3.928350e+003,1.043516e-004
3.930278e+003,-1.616640e-004
3.932207e+003,-5.672177e-005
3.934135e+003,2.315030e-004
3.936064e+003,3.560386e-004
3.937992e+003,1.406436e-004
3.939921e+003,-1.696794e-004
3.941849e+003,-2.373074e-004
3.943778e+003,-4.721344e-005
3.945706e+003,5.387929e-005
3.947635e+003,-4.694840e-005
3.949563e+003,-6.162888e-006
3.951492e+003,-1.211874e-004
3.953420e+003,-7.630099e-005
3.955349e+003,-4.665022e-005
3.957277e+003,-7.143112e-005
3.959206e+003,1.329873e-004
3.961134e+003,2.810344e-004
3.963063e+003,1.473058e-004
3.964991e+003,-7.987882e-005
3.966920e+003,3.611761e-005
3.968848e+003,1.825075e-004
3.970777e+003,-2.869313e-005
3.972705e+003,9.818726e-005
3.974634e+003,2.898207e-004
3.976562e+003,1.937780e-004
3.978491e+003,2.838527e-004
3.980419e+003,4.664463e-004
3.982348e+003,1.964962e-004
3.984276e+003,-1.315401e-005
3.986205e+003,9.265266e-005
3.988133e+003,3.208891e-004
3.990062e+003,1.377269e-004
3.991990e+003,-1.305462e-005
3.993919e+003,1.254305e-004
3.995847e+003,1.746515e-004
3.997776e+003,2.747681e-004
3.999704e+003,3.209223e-004
4.001633e+003,0.000000e+000
