3.991989e+002,2.724588e-002
4.011274e+002,1.459663e-002
4.030559e+002,4.978788e-003
4.049844e+002,-2.632721e-003
4.069129e+002,6.457985e-004
4.088414e+002,4.955729e-003
4.107699e+002,1.557039e-003
4.126984e+002,7.216622e-004
4.146269e+002,4.405740e-003
4.165554e+002,4.612344e-003
4.184839e+002,3.160798e-003
4.204124e+002,7.812884e-003
4.223409e+002,1.217803e-002
4.242694e+002,1.188463e-002
4.261979e+002,8.381053e-004
4.281264e+002,4.337328e-003
4.300549e+002,1.414763e-002
4.319834e+002,1.427554e-002
4.339119e+002,1.239187e-002
4.358404e+002,1.007110e-002
4.377689e+002,1.056920e-002
4.396974e+002,1.453302e-003
4.416259e+002,-8.361931e-003
4.435544e+002,-7.410067e-004
4.454829e+002,3.709948e-003
4.474114e+002,4.365040e-003
4.493399e+002,1.925473e-003
4.512684e+002,4.043725e-003
4.531969e+002,8.351164e-003
4.551254e+002,8.820754e-003
4.570539e+002,4.234564e-003
4.589824e+002,1.219835e-004
4.609109e+002,-2.212579e-003
4.628394e+002,2.814986e-004
4.647679e+002,4.429629e-004
4.666964e+002,8.124440e-004
4.686249e+002,2.708288e-003
4.705533e+002,4.335086e-003
4.724819e+002,2.778210e-003
4.744103e+002,5.881960e-004
4.763389e+002,7.527616e-004
4.782673e+002,1.467997e-003
4.801959e+002,2.060516e-003
4.821243e+002,2.529249e-003
4.840529e+002,2.171957e-003
4.859813e+002,1.610879e-003
4.879099e+002,2.013378e-003
4.898383e+002,3.317093e-003
4.917668e+002,1.764921e-003
4.936953e+002,-1.544147e-003
4.956238e+002,-1.989443e-003
4.975523e+002,4.099953e-004
4.994808e+002,4.999822e-004
5.014093e+002,1.224807e-004
5.033378e+002,2.141955e-003
5.052663e+002,5.331722e-003
5.071948e+002,3.548568e-003
5.091233e+002,8.152657e-004
5.110518e+002,2.639597e-004
5.129803e+002,4.566946e-004
5.149088e+002,5.626524e-005
5.168373e+002,5.999415e-004
5.187658e+002,1.640745e-003
5.206943e+002,1.613141e-003
5.226228e+002,1.380801e-003
5.245513e+002,7.244169e-004
5.264798e+002,-1.374707e-003
5.284083e+002,-2.600244e-004
5.303368e+002,1.425444e-003
5.322653e+002,1.331243e-003
5.341938e+002,1.727362e-003
5.361223e+002,1.544603e-003
5.380508e+002,5.941683e-004
5.399792e+002,7.195713e-004
5.419078e+002,2.106328e-003
5.438363e+002,2.734362e-003
5.457648e+002,1.715186e-003
5.476932e+002,3.781246e-004
5.496218e+002,-1.275473e-004
5.515503e+002,1.296746e-003
5.534788e+002,9.918063e-004
5.554072e+002,8.949773e-004
5.573358e+002,4.142736e-004
5.592643e+002,-6.324656e-004
5.611927e+002,-1.665862e-003
5.631212e+002,7.336437e-004
5.650497e+002,2.107759e-003
5.669783e+002,1.585771e-003
5.689067e+002,3.622730e-004
5.708352e+002,-9.193723e-005
5.727637e+002,3.409627e-005
5.746923e+002,-3.480330e-004
5.766207e+002,-1.054337e-003
5.785492e+002,1.026379e-003
5.804777e+002,9.865371e-003
5.824063e+002,8.230258e-003
5.843347e+002,1.859581e-003
5.862632e+002,3.081233e-004
5.881917e+002,-2.563155e-004
5.901202e+002,3.124670e-004
5.920487e+002,9.032448e-004
5.939772e+002,1.670248e-003
5.959057e+002,1.795063e-003
5.978342e+002,1.809404e-003
5.997627e+002,1.833859e-003
6.016912e+002,1.825541e-003
6.036197e+002,1.423050e-003
6.055482e+002,9.388731e-004
6.074767e+002,9.219717e-004
6.094052e+002,1.691436e-003
6.113337e+002,7.860539e-004
6.132622e+002,-1.041346e-003
6.151907e+002,-1.083588e-003
6.171192e+002,-4.892797e-004
6.190477e+002,-3.564091e-004
6.209762e+002,7.245165e-004
6.229047e+002,1.119915e-003
6.248332e+002,1.164199e-003
6.267617e+002,8.052405e-004
6.286902e+002,9.984151e-004
6.306187e+002,8.212742e-004
6.325472e+002,5.068489e-004
6.344756e+002,3.073607e-004
6.364042e+002,2.567653e-004
6.383326e+002,1.261265e-004
6.402612e+002,-5.059273e-005
6.421896e+002,2.677724e-004
6.441182e+002,5.466248e-004
6.460466e+002,-2.972022e-005
6.479752e+002,-1.487795e-004
6.499036e+002,1.843306e-004
6.518322e+002,5.967894e-004
6.537606e+002,7.133318e-004
6.556891e+002,2.341883e-004
6.576177e+002,1.668288e-004
6.595461e+002,8.874202e-005
6.614746e+002,2.302877e-005
6.634031e+002,-4.307404e-006
6.653317e+002,2.159551e-004
6.672601e+002,6.368829e-005
6.691886e+002,2.842174e-004
6.711171e+002,5.044604e-004
6.730457e+002,2.154910e-004
6.749741e+002,1.215527e-004
6.769026e+002,1.434941e-004
6.788311e+002,1.093437e-005
6.807596e+002,-8.882328e-005
6.826881e+002,-8.252905e-005
6.846166e+002,-4.744852e-004
6.865451e+002,-1.452022e-004
6.884736e+002,2.786141e-004
6.904021e+002,2.360116e-004
6.923306e+002,2.639597e-004
6.942591e+002,9.029128e-004
6.961876e+002,6.607976e-004
6.981161e+002,2.176789e-004
7.000446e+002,3.732828e-004
7.019731e+002,5.209807e-004
7.039016e+002,5.113604e-004
7.058301e+002,2.232151e-004
7.077585e+002,-8.382103e-005
7.096871e+002,2.559365e-004
7.116156e+002,8.686818e-004
7.135441e+002,8.745251e-004
7.154725e+002,-4.810796e-005
7.174011e+002,-1.394388e-004
7.193296e+002,3.742445e-004
7.212581e+002,4.156003e-004
7.231865e+002,1.870819e-004
7.251151e+002,7.018357e-005
7.270436e+002,-1.638169e-004
7.289720e+002,-2.551234e-004
7.309005e+002,-5.964668e-004
7.328290e+002,-4.119589e-004
7.347576e+002,1.335176e-004
7.366860e+002,3.183691e-004
7.386145e+002,4.486678e-004
7.405430e+002,4.510227e-004
7.424716e+002,-5.105656e-005
7.444000e+002,-1.491770e-004
7.463285e+002,2.222869e-004
7.482570e+002,3.301736e-004
7.501855e+002,2.838858e-004
7.521140e+002,1.085938e-004
7.540425e+002,-1.123229e-005
7.559710e+002,-1.153905e-004
7.578995e+002,-2.628059e-004
7.598280e+002,-6.506956e-004
7.617565e+002,-5.043715e-004
7.636850e+002,-4.996326e-005
7.656135e+002,7.273530e-005
7.675420e+002,1.078315e-004
7.694705e+002,2.922411e-004
7.713990e+002,4.378551e-004
7.733275e+002,2.636945e-004
7.752560e+002,-1.597430e-004
7.771844e+002,-2.349140e-005
7.791130e+002,3.937777e-004
7.810415e+002,-6.109487e-005
7.829700e+002,-3.788550e-004
7.848984e+002,1.857229e-004
7.868270e+002,5.448333e-004
7.887555e+002,4.843583e-004
7.906840e+002,2.283536e-004
7.926124e+002,1.756108e-006
7.945410e+002,2.044852e-004
7.964695e+002,2.635950e-004
7.983979e+002,2.793103e-004
8.003264e+002,3.780759e-005
8.022549e+002,-2.504861e-005
8.041835e+002,1.071687e-004
8.061119e+002,3.730838e-004
8.080404e+002,8.504220e-004
8.099689e+002,6.761623e-004
8.118975e+002,3.979580e-005
8.138259e+002,6.842718e-005
8.157545e+002,4.535767e-004
8.176830e+002,3.915226e-004
8.196115e+002,-1.153049e-005
8.215399e+002,-7.646663e-005
8.234684e+002,4.403426e-004
8.253970e+002,4.524490e-004
8.273254e+002,6.067266e-005
8.292539e+002,-3.015187e-006
8.311824e+002,-3.123748e-004
8.331110e+002,-3.462783e-004
8.350394e+002,-1.315401e-005
8.369679e+002,3.244371e-004
8.388964e+002,4.016031e-005
8.408250e+002,-1.492763e-004
8.427534e+002,2.279682e-005
8.446819e+002,1.565203e-004
8.466104e+002,9.440914e-005
8.485389e+002,1.098864e-004
8.504674e+002,4.652268e-005
8.523959e+002,2.797745e-004
8.543244e+002,1.421683e-004
8.562529e+002,1.838666e-004
8.581814e+002,2.219222e-004
8.601099e+002,4.208405e-004
8.620384e+002,5.286439e-004
8.639669e+002,1.780988e-004
8.658954e+002,1.007723e-004
8.678239e+002,4.306246e-004
8.697524e+002,3.237316e-005
8.716809e+002,-4.288078e-004
8.736094e+002,-4.595578e-004
8.755378e+002,-1.285411e-004
8.774664e+002,2.022973e-004
8.793949e+002,4.049873e-004
8.813234e+002,3.957676e-004
8.832518e+002,2.902849e-004
8.851804e+002,7.608242e-005
8.871089e+002,-1.985600e-004
8.890374e+002,-1.116474e-004
8.909658e+002,-4.575570e-005
8.928943e+002,2.459242e-004
8.948229e+002,6.632864e-004
8.967513e+002,7.772244e-004
8.986798e+002,6.967711e-004
9.006083e+002,5.094363e-004
9.025369e+002,4.766959e-004
9.044653e+002,4.611060e-004
9.063938e+002,3.946068e-004
9.083223e+002,4.144394e-004
9.102509e+002,5.361745e-004
9.121793e+002,3.238403e-004
9.141078e+002,-2.806362e-005
9.160364e+002,1.876123e-004
9.179648e+002,2.744697e-004
9.198933e+002,-6.726158e-006
9.218218e+002,-1.378354e-005
9.237504e+002,1.631495e-004
9.256788e+002,-1.855502e-006
9.276073e+002,-2.059124e-004
9.295358e+002,-4.141735e-006
9.314644e+002,2.393600e-004
9.333928e+002,2.275248e-004
9.353213e+002,1.608956e-004
9.372498e+002,4.345715e-004
9.391783e+002,2.607437e-004
9.411068e+002,2.403877e-004
9.430353e+002,2.654185e-004
9.449637e+002,6.822835e-005
9.468923e+002,-7.603596e-005
9.488208e+002,7.512137e-005
9.507493e+002,1.409751e-004
9.526777e+002,-1.868720e-005
9.546063e+002,-1.151255e-004
9.565348e+002,9.774652e-006
9.584633e+002,-3.008467e-005
9.603917e+002,-1.060160e-004
9.623203e+002,-1.023830e-005
9.642488e+002,1.522776e-004
9.661772e+002,2.049824e-004
9.681057e+002,2.641918e-004
9.700343e+002,1.054785e-004
9.719628e+002,7.885973e-006
9.738912e+002,-1.145955e-004
9.758197e+002,-1.579875e-004
9.777483e+002,6.017559e-005
9.796768e+002,1.933470e-004
9.816052e+002,2.901854e-004
9.835337e+002,2.428410e-004
9.854623e+002,1.556916e-004
9.873907e+002,1.915570e-004
9.893192e+002,1.383898e-004
9.912477e+002,1.494271e-004
9.931763e+002,6.116975e-005
9.951047e+002,-1.862728e-004
9.970332e+002,-9.011524e-005
9.989617e+002,-1.106663e-005
1.000890e+003,2.445361e-005
1.002819e+003,1.918503e-005
1.004747e+003,6.786382e-005
1.006676e+003,1.128029e-004
1.008604e+003,1.451514e-004
1.010533e+003,2.053802e-004
1.012461e+003,2.707135e-005
1.014390e+003,-1.838900e-005
1.016318e+003,-7.156893e-006
1.018247e+003,6.312493e-005
1.020175e+003,6.365516e-005
1.022104e+003,-5.367383e-005
1.024032e+003,5.865121e-005
1.025961e+003,1.609618e-004
1.027889e+003,-9.091029e-005
1.029818e+003,-3.105868e-004
1.031746e+003,-1.804436e-004
1.033675e+003,-7.991195e-005
1.035603e+003,1.245687e-004
1.037532e+003,2.745028e-004
1.039460e+003,1.397156e-004
1.041389e+003,1.864521e-004
1.043317e+003,9.971177e-005
1.045246e+003,2.833053e-005
1.047174e+003,1.084281e-004
1.049103e+003,1.272366e-005
1.051031e+003,-7.076854e-005
1.052960e+003,2.215907e-004
1.054888e+003,3.944078e-004
1.056817e+003,2.038885e-004
1.058745e+003,6.657139e-005
1.060674e+003,4.688720e-005
1.062602e+003,1.124052e-004
1.064531e+003,1.399145e-004
1.066459e+003,6.849346e-005
1.068388e+003,-9.376832e-006
1.070316e+003,-6.460657e-005
1.072245e+003,8.476515e-005
1.074173e+003,2.840848e-004
1.076102e+003,2.918433e-004
1.078030e+003,1.408094e-004
1.079959e+003,1.152555e-004
1.081887e+003,1.204258e-004
1.083816e+003,1.293414e-004
1.085744e+003,1.155538e-004
1.087673e+003,1.168795e-004
1.089601e+003,1.239721e-004
1.091530e+003,2.747681e-004
1.093458e+003,4.490326e-004
1.095387e+003,3.936119e-004
1.097315e+003,2.754312e-004
1.099244e+003,2.013359e-004
1.101172e+003,4.603763e-004
1.103101e+003,5.177960e-004
1.105029e+003,-1.437994e-005
1.106958e+003,-2.717135e-004
1.108886e+003,-1.258911e-004
1.110815e+003,3.249014e-004
1.112743e+003,6.263535e-004
1.114672e+003,4.695975e-004
1.116600e+003,3.931808e-004
1.118529e+003,2.777521e-004
1.120457e+003,1.048156e-004
1.122386e+003,2.992703e-004
1.124314e+003,3.792853e-004
1.126243e+003,-3.121114e-005
1.128171e+003,-2.206829e-004
1.130100e+003,-9.614434e-005
1.132028e+003,-1.341059e-004
1.133957e+003,-1.947845e-004
1.135885e+003,-5.254741e-005
1.137814e+003,9.984434e-005
1.139742e+003,2.425479e-005
1.141671e+003,6.922252e-005
1.143599e+003,1.547967e-004
1.145528e+003,2.907822e-004
1.147456e+003,3.533194e-004
1.149385e+003,3.586915e-004
1.151313e+003,2.254362e-004
1.153242e+003,6.232960e-005
1.155170e+003,-5.864686e-006
1.157099e+003,4.917370e-005
1.159027e+003,3.416254e-005
1.160956e+003,-2.852747e-005
1.162884e+003,-6.129365e-005
1.164813e+003,-2.789797e-005
1.166741e+003,-3.058164e-005
1.168670e+003,4.851094e-005
1.170598e+003,1.269882e-004
1.172526e+003,-1.143109e-005
1.174455e+003,1.166334e-005
1.176384e+003,1.149572e-004
1.178312e+003,1.633815e-004
1.180240e+003,2.892902e-004
1.182169e+003,3.380325e-004
1.184098e+003,2.171485e-004
1.186026e+003,1.705744e-004
1.187954e+003,2.170159e-004
1.189883e+003,1.369977e-004
1.191812e+003,1.182901e-005
1.193740e+003,1.332193e-004
1.195668e+003,2.754312e-004
1.197597e+003,2.071040e-004
1.199526e+003,2.119770e-004
1.201454e+003,2.117118e-004
1.203382e+003,4.824584e-005
1.205311e+003,1.842292e-005
1.207240e+003,4.075506e-006
1.209168e+003,-2.418778e-006
1.211096e+003,-1.739502e-005
1.213025e+003,4.933939e-005
1.214953e+003,1.287780e-004
1.216882e+003,4.065737e-005
1.218810e+003,2.087450e-006
1.220739e+003,1.000763e-004
1.222667e+003,1.746515e-004
1.224596e+003,1.709390e-004
1.226524e+003,1.507198e-004
1.228453e+003,-2.382272e-005
1.230381e+003,2.584532e-005
1.232310e+003,1.614590e-004
1.234238e+003,1.216190e-004
1.236167e+003,1.143606e-004
1.238095e+003,1.007723e-004
1.240024e+003,7.770627e-005
1.241952e+003,1.066053e-004
1.243881e+003,1.274191e-004
1.245809e+003,2.422442e-004
1.247738e+003,2.976125e-004
1.249666e+003,2.050155e-004
1.251595e+003,1.666299e-004
1.253523e+003,1.518467e-004
1.255452e+003,2.159882e-004
1.257380e+003,1.292088e-004
1.259309e+003,9.944664e-005
1.261237e+003,1.802203e-004
1.263166e+003,2.578262e-004
1.265094e+003,1.838666e-004
1.267023e+003,1.208898e-004
1.268951e+003,1.695468e-004
1.270880e+003,1.135983e-004
1.272808e+003,1.283471e-004
1.274737e+003,1.480681e-004
1.276665e+003,2.187397e-004
1.278594e+003,2.639928e-004
1.280522e+003,2.716184e-004
1.282451e+003,2.103527e-004
1.284379e+003,4.857722e-005
1.286308e+003,1.222155e-004
1.288236e+003,1.184041e-004
1.290165e+003,1.344456e-004
1.292093e+003,1.830710e-004
1.294022e+003,3.426195e-005
1.295950e+003,6.620686e-005
1.297879e+003,7.734173e-005
1.299807e+003,5.215611e-005
1.301736e+003,-2.879252e-005
1.303664e+003,1.434728e-005
1.305593e+003,5.901573e-005
1.307521e+003,1.244361e-004
1.309450e+003,8.198135e-005
1.311378e+003,2.319389e-006
1.313307e+003,1.053459e-004
1.315235e+003,2.453275e-004
1.317164e+003,2.662473e-004
1.319092e+003,1.873140e-004
1.321021e+003,2.803230e-005
1.322949e+003,5.159276e-005
1.324878e+003,7.989351e-005
1.326806e+003,4.592621e-005
1.328735e+003,1.813142e-004
1.330663e+003,3.459909e-004
1.332592e+003,3.145228e-004
1.334520e+003,1.921205e-004
1.336449e+003,7.545276e-005
1.338377e+003,-1.451247e-005
1.340306e+003,5.212297e-005
1.342234e+003,1.471401e-004
1.344163e+003,1.074007e-004
1.346091e+003,8.983567e-005
1.348020e+003,1.594703e-004
1.349948e+003,1.924852e-004
1.351877e+003,8.602448e-005
1.353805e+003,5.301770e-005
1.355734e+003,4.741740e-005
1.357662e+003,-1.288060e-004
1.359591e+003,-1.703418e-004
1.361519e+003,-1.203924e-004
1.363448e+003,-7.259061e-005
1.365376e+003,4.562797e-005
1.367305e+003,6.335691e-005
1.369233e+003,1.488305e-004
1.371162e+003,6.846032e-005
1.373090e+003,-8.428482e-005
1.375019e+003,-7.868621e-005
1.376947e+003,1.255798e-005
1.378876e+003,7.561846e-005
1.380804e+003,2.477144e-004
1.382733e+003,1.900984e-004
1.384661e+003,1.005072e-004
1.386590e+003,1.623571e-006
1.388518e+003,7.684463e-005
1.390447e+003,1.740880e-004
1.392375e+003,-1.262389e-005
1.394304e+003,-2.061111e-004
1.396232e+003,-1.028028e-004
1.398161e+003,-1.373851e-004
1.400089e+003,-8.252905e-005
1.402018e+003,6.991845e-005
1.403946e+003,-2.713593e-005
1.405875e+003,1.265739e-005
1.407803e+003,1.062076e-004
1.409732e+003,2.922521e-005
1.411660e+003,8.420175e-005
1.413589e+003,1.612933e-004
1.415517e+003,2.186902e-005
1.417446e+003,-3.481323e-004
1.419374e+003,-5.296558e-004
1.421303e+003,-1.175437e-004
1.423231e+003,-1.782575e-005
1.425160e+003,1.633815e-004
1.427088e+003,2.722483e-004
1.429017e+003,4.344090e-005
1.430945e+003,-9.949012e-005
1.432874e+003,-3.091296e-005
1.434802e+003,-2.303861e-004
1.436731e+003,-5.618217e-004
1.438659e+003,-2.180666e-004
1.440588e+003,-1.805768e-005
1.442516e+003,-3.710854e-005
1.444445e+003,-1.563899e-005
1.446373e+003,-8.070702e-005
1.448302e+003,-2.059455e-004
1.450230e+003,-1.509325e-004
1.452159e+003,-7.143112e-005
1.454087e+003,-9.568057e-005
1.456016e+003,-8.433366e-004
1.457944e+003,-9.178364e-004
1.459873e+003,-2.932035e-004
1.461801e+003,-3.939458e-005
1.463730e+003,-2.491628e-004
1.465658e+003,-2.621436e-004
1.467587e+003,-3.210570e-005
1.469515e+003,-5.808009e-005
1.471444e+003,-3.999755e-004
1.473372e+003,-4.414854e-004
1.475301e+003,-2.625079e-004
1.477229e+003,-1.123761e-004
1.479158e+003,4.254619e-005
1.481086e+003,-6.679309e-005
1.483015e+003,3.177671e-005
1.484943e+003,5.759078e-005
1.486872e+003,-1.562320e-004
1.488800e+003,-3.437290e-004
1.490729e+003,-2.839653e-004
1.492657e+003,-2.925637e-005
1.494586e+003,-1.112830e-004
1.496514e+003,-3.937189e-004
1.498443e+003,-3.242281e-004
1.500371e+003,-1.136349e-004
1.502300e+003,2.740272e-005
1.504228e+003,-4.767690e-004
1.506157e+003,-1.354823e-003
1.508085e+003,-8.742226e-004
1.510014e+003,-2.334328e-004
1.511942e+003,-1.815366e-004
1.513871e+003,-1.748463e-004
1.515799e+003,-4.281127e-004
1.517728e+003,-3.246585e-004
1.519656e+003,-5.534496e-004
1.521585e+003,-9.373437e-004
1.523513e+003,-4.422136e-004
1.525442e+003,-2.499244e-004
1.527370e+003,-2.216764e-004
1.529299e+003,-1.513630e-004
1.531227e+003,-2.694949e-004
1.533156e+003,-4.910338e-004
1.535084e+003,-2.166095e-004
1.537013e+003,-3.727967e-004
1.538941e+003,-1.155866e-003
1.540870e+003,-1.344715e-003
1.542798e+003,-8.837790e-004
1.544727e+003,-5.425953e-004
1.546655e+003,-2.054487e-004
1.548584e+003,-1.016102e-004
1.550512e+003,-7.613535e-005
1.552441e+003,-2.020044e-004
1.554369e+003,-4.255638e-004
1.556298e+003,-6.355426e-004
1.558226e+003,-1.399049e-003
1.560155e+003,-1.119480e-003
1.562083e+003,-1.843849e-004
1.564012e+003,3.810431e-006
1.565940e+003,2.498378e-005
1.567869e+003,-2.369431e-004
1.569797e+003,-4.055038e-004
1.571726e+003,-4.042334e-006
1.573654e+003,-1.304954e-004
1.575583e+003,-6.047389e-004
1.577511e+003,-3.543234e-004
1.579440e+003,-1.023830e-005
1.581368e+003,1.377269e-004
1.583297e+003,2.394263e-004
1.585225e+003,1.698452e-004
1.587154e+003,1.784635e-004
1.589082e+003,1.451514e-004
1.591010e+003,1.093425e-006
1.592939e+003,-4.396664e-005
1.594868e+003,1.789242e-006
1.596796e+003,2.866189e-005
1.598724e+003,1.258282e-004
1.600653e+003,1.339153e-004
1.602582e+003,9.271894e-005
1.604510e+003,4.910742e-005
1.606438e+003,5.305084e-005
1.608367e+003,7.856791e-005
1.610296e+003,1.455159e-004
1.612224e+003,1.324569e-004
1.614152e+003,-1.215518e-004
1.616081e+003,-6.013639e-004
1.618010e+003,-2.855216e-004
1.619938e+003,1.958266e-005
1.621866e+003,-2.314790e-004
1.623795e+003,-3.932886e-004
1.625724e+003,-9.992077e-005
1.627652e+003,9.111956e-006
1.629580e+003,-3.048321e-006
1.631509e+003,7.355819e-006
1.633438e+003,-2.546598e-004
1.635366e+003,-7.403120e-004
1.637294e+003,-4.486350e-004
1.639223e+003,-1.544019e-005
1.641151e+003,1.099195e-004
1.643080e+003,-1.491029e-006
1.645008e+003,-5.113216e-004
1.646937e+003,-6.495707e-004
1.648865e+003,-2.340951e-004
1.650794e+003,-5.124468e-004
1.652722e+003,-1.507200e-003
1.654651e+003,-9.141993e-004
1.656579e+003,-7.673166e-005
1.658508e+003,8.516283e-005
1.660436e+003,-3.011780e-005
1.662365e+003,-2.516464e-004
1.664293e+003,-5.450207e-005
1.666222e+003,9.460799e-005
1.668150e+003,-2.831043e-004
1.670079e+003,-5.444154e-004
1.672007e+003,-2.708526e-004
1.673936e+003,-3.367101e-004
1.675864e+003,-3.397891e-004
1.677793e+003,-7.414765e-005
1.679721e+003,-6.599799e-005
1.681650e+003,-2.983689e-004
1.683578e+003,-8.757768e-004
1.685507e+003,-5.730395e-004
1.687435e+003,-1.351658e-004
1.689364e+003,-1.134030e-004
1.691292e+003,-7.381637e-005
1.693221e+003,-2.167750e-004
1.695149e+003,-7.412051e-004
1.697078e+003,-6.875501e-004
1.699006e+003,-1.004852e-003
1.700935e+003,-1.077374e-003
1.702863e+003,-4.283444e-004
1.704792e+003,-3.850125e-004
1.706720e+003,-1.448379e-004
1.708649e+003,1.119945e-005
1.710577e+003,1.865486e-005
1.712506e+003,1.017227e-005
1.714434e+003,-2.111782e-004
1.716363e+003,-6.661457e-004
1.718291e+003,-7.049176e-004
1.720220e+003,-1.805430e-004
1.722148e+003,2.683865e-006
1.724077e+003,3.545487e-005
1.726005e+003,1.172441e-004
1.727934e+003,1.723004e-005
1.729862e+003,-3.256954e-005
1.731791e+003,-2.907533e-004
1.733719e+003,-8.740242e-004
1.735648e+003,-4.759746e-004
1.737576e+003,-1.901809e-004
1.739505e+003,-3.194272e-004
1.741433e+003,-1.495413e-004
1.743362e+003,-1.238374e-004
1.745290e+003,-3.684349e-005
1.747219e+003,-5.082464e-005
1.749147e+003,-2.454207e-004
1.751076e+003,-3.805102e-004
1.753004e+003,-1.047241e-004
1.754933e+003,6.825666e-006
1.756861e+003,-2.431970e-005
1.758790e+003,-3.681036e-005
1.760718e+003,-2.481693e-004
1.762647e+003,-2.030973e-004
1.764575e+003,3.661466e-005
1.766504e+003,-5.708620e-005
1.768432e+003,-1.488126e-004
1.770361e+003,-2.381022e-004
1.772289e+003,-4.609480e-004
1.774218e+003,-2.368438e-004
1.776146e+003,-8.184031e-006
1.778075e+003,7.048182e-005
1.780003e+003,-3.266893e-005
1.781932e+003,-6.507038e-005
1.783860e+003,-1.200280e-004
1.785789e+003,-4.787605e-005
1.787717e+003,8.788036e-005
1.789646e+003,-2.107274e-005
1.791574e+003,-3.234996e-004
1.793503e+003,-3.396898e-004
1.795431e+003,-1.394388e-004
1.797360e+003,-5.605918e-005
1.799288e+003,-1.027154e-006
1.801217e+003,-1.898539e-005
1.803145e+003,4.390482e-005
1.805074e+003,1.268225e-004
1.807002e+003,1.284465e-004
1.808931e+003,-2.743412e-005
1.810859e+003,2.727017e-005
1.812788e+003,1.913249e-004
1.814716e+003,1.886068e-004
1.816645e+003,1.167801e-004
1.818573e+003,1.513164e-004
1.820502e+003,2.008387e-004
1.822430e+003,1.110795e-004
1.824359e+003,-1.650044e-005
1.826287e+003,-5.897819e-006
1.828216e+003,-1.313897e-004
1.830144e+003,-1.732565e-004
1.832073e+003,6.627313e-005
1.834001e+003,2.261656e-004
1.835930e+003,1.345782e-004
1.837858e+003,2.087495e-005
1.839787e+003,7.976095e-005
1.841715e+003,4.340776e-005
1.843644e+003,-3.093948e-004
1.845572e+003,-2.901241e-004
1.847501e+003,-6.026664e-005
1.849429e+003,7.134345e-005
1.851358e+003,1.907614e-004
1.853286e+003,2.281878e-004
1.855215e+003,1.962973e-004
1.857143e+003,1.427649e-004
1.859072e+003,6.063953e-005
1.861000e+003,3.797327e-005
1.862929e+003,7.800453e-005
1.864857e+003,1.242704e-004
1.866786e+003,6.162975e-006
1.868714e+003,-2.031967e-004
1.870643e+003,-6.092923e-005
1.872571e+003,1.831042e-004
1.874500e+003,3.062333e-004
1.876428e+003,2.360779e-004
1.878357e+003,1.736902e-004
1.880285e+003,2.264971e-004
1.882214e+003,2.351497e-004
1.884142e+003,1.700109e-004
1.886071e+003,1.461457e-004
1.887999e+003,3.810431e-006
1.889928e+003,-7.461145e-005
1.891856e+003,4.675465e-005
1.893785e+003,9.765699e-005
1.895713e+003,7.962839e-005
1.897642e+003,1.269551e-004
1.899570e+003,1.754139e-004
1.901499e+003,1.990486e-004
1.903427e+003,2.502341e-004
1.905356e+003,1.863527e-004
1.907284e+003,2.173806e-004
1.909213e+003,1.948719e-004
1.911141e+003,1.119744e-004
1.913070e+003,1.010706e-004
1.914998e+003,8.191507e-005
1.916927e+003,6.123602e-005
1.918855e+003,9.808783e-005
1.920784e+003,1.712042e-004
1.922712e+003,9.112817e-005
1.924641e+003,1.222155e-004
1.926569e+003,1.283802e-004
1.928498e+003,7.959526e-005
1.930426e+003,7.478997e-005
1.932355e+003,1.256293e-004
1.934283e+003,1.718008e-004
1.936212e+003,1.827064e-004
1.938140e+003,1.958332e-004
1.940069e+003,1.040865e-004
1.941997e+003,-6.606425e-005
1.943926e+003,-2.783250e-006
1.945854e+003,4.612503e-005
1.947783e+003,-3.091296e-005
1.949711e+003,-1.186182e-005
1.951640e+003,4.834525e-005
1.953568e+003,1.746199e-005
1.955497e+003,-4.141735e-006
1.957425e+003,4.045855e-005
1.959354e+003,6.358888e-005
1.961282e+003,1.181389e-004
1.963211e+003,6.657139e-005
1.965139e+003,-1.703056e-005
1.967068e+003,-5.218298e-005
1.968996e+003,-7.289428e-006
1.970925e+003,1.283471e-004
1.972853e+003,2.037559e-004
1.974782e+003,2.491069e-004
1.976710e+003,1.878775e-004
1.978639e+003,1.600338e-004
1.980567e+003,1.264579e-004
1.982496e+003,4.088933e-005
1.984424e+003,6.262379e-006
1.986353e+003,-3.975903e-005
1.988281e+003,3.035184e-005
1.990210e+003,1.000763e-004
1.992138e+003,9.901579e-005
1.994067e+003,1.109801e-004
1.995995e+003,6.855974e-005
1.997924e+003,8.135169e-005
1.999852e+003,1.921537e-004
2.001781e+003,1.993470e-004
2.003709e+003,1.261928e-004
2.005638e+003,1.073344e-004
2.007566e+003,1.326227e-004
2.009495e+003,5.573503e-005
2.011423e+003,1.076870e-005
2.013352e+003,1.152886e-004
2.015280e+003,1.456154e-004
2.017208e+003,4.301011e-005
2.019137e+003,-1.033770e-005
2.021066e+003,1.650106e-005
2.022994e+003,2.064300e-005
2.024922e+003,2.942402e-005
2.026851e+003,-2.345827e-005
2.028780e+003,-1.988042e-007
2.030708e+003,1.391853e-004
2.032636e+003,1.364011e-004
2.034565e+003,2.425479e-005
2.036494e+003,-1.739502e-005
2.038422e+003,7.502195e-005
2.040350e+003,1.014351e-004
2.042279e+003,1.257619e-004
2.044208e+003,6.965334e-005
2.046136e+003,7.432601e-005
2.048064e+003,1.080967e-004
2.049993e+003,6.136858e-005
2.051921e+003,7.355819e-006
2.053850e+003,-1.457895e-006
2.055778e+003,-4.208003e-006
2.057707e+003,1.166334e-005
2.059635e+003,1.434278e-004
2.061564e+003,1.362354e-004
2.063492e+003,8.456630e-005
2.065421e+003,7.601614e-005
2.067349e+003,9.981119e-005
2.069278e+003,8.204763e-005
2.071206e+003,1.021974e-004
2.073135e+003,1.903968e-004
2.075063e+003,2.044852e-004
2.076992e+003,1.168132e-004
2.078920e+003,1.061082e-004
2.080849e+003,1.432289e-004
2.082777e+003,1.394836e-004
2.084706e+003,1.525759e-004
2.086634e+003,8.602448e-005
2.088563e+003,4.675465e-005
2.090491e+003,6.988531e-005
2.092420e+003,1.329541e-004
2.094348e+003,7.422659e-005
2.096277e+003,4.274501e-005
2.098205e+003,7.485625e-005
2.100134e+003,2.786662e-005
2.102062e+003,2.157080e-005
2.103991e+003,8.874202e-005
2.105919e+003,6.372143e-005
2.107848e+003,1.066929e-005
2.109776e+003,-3.508753e-005
2.111705e+003,-1.351848e-005
2.113633e+003,6.279354e-005
2.115562e+003,3.837091e-005
2.117490e+003,8.426804e-005
2.119419e+003,1.588736e-004
2.121347e+003,1.392184e-004
2.123276e+003,1.054453e-004
2.125204e+003,2.644177e-005
2.127133e+003,-8.613996e-005
2.129061e+003,-1.673237e-005
2.130990e+003,4.632386e-005
2.132918e+003,1.567268e-005
2.134847e+003,-1.308775e-005
2.136775e+003,-3.780429e-005
2.138704e+003,9.874056e-006
2.140632e+003,9.497254e-005
2.142561e+003,1.020540e-005
2.144489e+003,-1.458316e-004
2.146418e+003,-6.901272e-005
2.148346e+003,7.213879e-005
2.150275e+003,8.546110e-005
2.152203e+003,3.098143e-005
2.154132e+003,6.348946e-005
2.156060e+003,8.705185e-005
2.157989e+003,-9.150658e-005
2.159917e+003,-2.074358e-004
2.161846e+003,-1.643800e-004
2.163774e+003,-5.897459e-005
2.165703e+003,-1.547332e-005
2.167631e+003,-4.621952e-005
2.169560e+003,1.500998e-005
2.171488e+003,9.702730e-005
2.173417e+003,8.208077e-005
2.175345e+003,9.575843e-006
2.177274e+003,-7.753296e-006
2.179202e+003,9.642113e-006
2.181131e+003,2.664058e-005
2.183059e+003,6.020872e-005
2.184988e+003,4.880918e-005
2.186916e+003,-1.921732e-005
2.188845e+003,-8.494737e-005
2.190773e+003,2.481810e-005
2.192702e+003,1.854245e-004
2.194630e+003,1.212544e-004
2.196559e+003,-1.086783e-005
2.198487e+003,-7.176240e-005
2.200416e+003,-3.084670e-005
2.202344e+003,3.055066e-005
2.204273e+003,6.332377e-005
2.206201e+003,8.290928e-005
2.208130e+003,6.491443e-005
2.210058e+003,-8.581632e-006
2.211987e+003,-7.822242e-005
2.213915e+003,-6.752192e-005
2.215844e+003,-2.113900e-005
2.217772e+003,-1.590405e-005
2.219701e+003,4.844467e-005
2.221629e+003,-2.514801e-005
2.223558e+003,-4.161436e-005
2.225486e+003,5.168941e-006
2.227415e+003,8.380407e-005
2.229343e+003,8.904029e-005
2.231272e+003,1.200281e-004
2.233200e+003,1.257950e-004
2.235129e+003,1.476704e-004
2.237057e+003,1.561557e-004
2.238986e+003,8.847690e-005
2.240914e+003,2.345953e-005
2.242843e+003,5.344849e-005
2.244771e+003,1.746199e-005
2.246700e+003,-2.614197e-005
2.248628e+003,3.399685e-005
2.250557e+003,5.951281e-005
2.252485e+003,-2.750117e-006
2.254414e+003,-1.398234e-005
2.256342e+003,5.974478e-005
2.258271e+003,6.173310e-005
2.260199e+003,9.111956e-006
2.262128e+003,-5.321001e-005
2.264056e+003,-3.591581e-005
2.265985e+003,4.973704e-005
2.267913e+003,-1.381667e-005
2.269842e+003,-6.619676e-005
2.271770e+003,1.908563e-005
2.273699e+003,3.585251e-005
2.275627e+003,1.633539e-005
2.277556e+003,3.509036e-005
2.279484e+003,3.349981e-005
2.281413e+003,1.838978e-005
2.283341e+003,-5.506528e-005
2.285270e+003,-1.235061e-004
2.287198e+003,-8.676938e-005
2.289127e+003,1.822376e-006
2.291055e+003,-2.050949e-005
2.292984e+003,-8.292658e-005
2.294912e+003,-1.324166e-004
2.296841e+003,-6.715750e-005
2.298769e+003,-6.606425e-005
2.300698e+003,-1.386769e-004
2.302626e+003,-2.140263e-004
2.304555e+003,-2.327705e-004
2.306483e+003,-2.636007e-004
2.308412e+003,-2.487322e-004
2.310340e+003,-3.021767e-004
2.312269e+003,-4.689909e-004
2.314197e+003,-5.278026e-004
2.316125e+003,-4.448947e-004
2.318054e+003,-5.503058e-004
2.319983e+003,-7.861552e-004
2.321911e+003,-9.455101e-004
2.323840e+003,-9.949019e-004
2.325768e+003,-9.935466e-004
2.327697e+003,-1.017050e-003
2.329625e+003,-1.208967e-003
2.331553e+003,-1.367771e-003
2.333482e+003,-1.312310e-003
2.335411e+003,-1.324929e-003
2.337339e+003,-1.436368e-003
2.339268e+003,-1.507663e-003
2.341196e+003,-1.425338e-003
2.343125e+003,-1.321328e-003
2.345053e+003,-1.164358e-003
2.346981e+003,-8.088435e-004
2.348910e+003,-6.248889e-004
2.350839e+003,-7.784158e-004
2.352767e+003,-1.146018e-003
2.354696e+003,-1.521861e-003
2.356624e+003,-1.632622e-003
2.358552e+003,-1.595254e-003
2.360481e+003,-1.768667e-003
2.362409e+003,-1.888570e-003
2.364338e+003,-1.837531e-003
2.366267e+003,-1.693158e-003
2.368195e+003,-1.614764e-003
2.370124e+003,-1.381709e-003
2.372052e+003,-1.124735e-003
2.373980e+003,-9.114880e-004
2.375909e+003,-6.832825e-004
2.377838e+003,-4.435707e-004
2.379766e+003,-2.437319e-004
2.381695e+003,-7.805678e-005
2.383623e+003,8.813744e-006
2.385552e+003,6.242902e-005
2.387480e+003,2.445361e-005
2.389408e+003,3.485841e-005
2.391337e+003,9.152586e-005
2.393266e+003,5.368046e-005
2.395194e+003,3.909993e-005
2.397123e+003,1.673301e-005
2.399051e+003,-9.286479e-005
2.400979e+003,-1.575569e-004
2.402908e+003,-1.329134e-004
2.404836e+003,-7.272313e-005
2.406765e+003,-4.254202e-005
2.408694e+003,-1.243011e-004
2.410622e+003,-1.232080e-004
2.412551e+003,-5.963718e-005
2.414479e+003,-4.217758e-005
2.416407e+003,-1.365570e-004
2.418336e+003,-1.930623e-004
2.420264e+003,-1.960761e-004
2.422193e+003,-1.655392e-004
2.424122e+003,-1.491770e-004
2.426050e+003,-1.139993e-004
2.427979e+003,-6.666057e-005
2.429907e+003,-5.234863e-005
2.431835e+003,-6.182372e-005
2.433764e+003,-1.563899e-005
2.435692e+003,3.976087e-007
2.437621e+003,7.455223e-006
2.439550e+003,2.786662e-005
2.441478e+003,-3.478935e-005
2.443406e+003,-7.885185e-005
2.445335e+003,-1.157880e-004
2.447263e+003,-1.862728e-004
2.449192e+003,-2.397911e-004
2.451121e+003,-1.326153e-004
2.453049e+003,-2.190105e-005
2.454978e+003,4.108640e-006
2.456906e+003,-5.864329e-005
2.458834e+003,-1.028690e-004
2.460763e+003,-4.134931e-005
2.462691e+003,3.873542e-005
2.464620e+003,8.065574e-005
2.466549e+003,1.132338e-004
2.468477e+003,8.174937e-005
2.470406e+003,4.251305e-005
2.472334e+003,-8.852513e-005
2.474262e+003,-2.243117e-005
2.476191e+003,1.724638e-004
2.478119e+003,1.494271e-004
2.480048e+003,1.603717e-005
2.481977e+003,3.021929e-005
2.483905e+003,1.025620e-004
2.485833e+003,1.173435e-004
2.487762e+003,1.002089e-004
2.489690e+003,8.049004e-005
2.491619e+003,8.244532e-005
2.493547e+003,1.135983e-004
2.495476e+003,7.157542e-005
2.497405e+003,-4.684900e-005
2.499333e+003,-1.062810e-004
2.501261e+003,-5.235147e-006
2.503190e+003,3.402999e-005
2.505118e+003,-4.684900e-005
2.507047e+003,-5.957092e-005
2.508975e+003,-7.987882e-005
2.510904e+003,-6.470596e-005
2.512833e+003,-8.912965e-006
2.514761e+003,6.000989e-005
2.516689e+003,4.519718e-005
2.518618e+003,-2.882566e-005
2.520546e+003,-2.769917e-005
2.522475e+003,-1.351848e-005
2.524403e+003,-5.042708e-005
2.526332e+003,1.812470e-005
2.528260e+003,1.251653e-004
2.530189e+003,1.092898e-004
2.532117e+003,5.010156e-005
2.534046e+003,5.003528e-005
2.535974e+003,9.026651e-005
2.537903e+003,7.578416e-005
2.539831e+003,9.542709e-006
2.541760e+003,1.457922e-005
2.543688e+003,-6.301637e-005
2.545617e+003,-1.350665e-004
2.547545e+003,-5.321001e-005
2.549474e+003,1.065059e-004
2.551402e+003,7.223821e-005
2.553331e+003,3.535546e-005
2.555259e+003,-1.978057e-005
2.557188e+003,-1.431155e-004
2.559116e+003,-1.630882e-004
2.561045e+003,-1.249135e-005
2.562973e+003,4.045855e-005
2.564902e+003,-4.406604e-005
2.566830e+003,-2.846121e-005
2.568759e+003,5.308398e-005
2.570687e+003,7.289495e-007
2.572616e+003,-1.749442e-005
2.574544e+003,4.301011e-005
2.576473e+003,-8.946098e-006
2.578401e+003,-1.272823e-004
2.580330e+003,-5.125533e-005
2.582258e+003,9.807786e-006
2.584187e+003,-4.512622e-005
2.586115e+003,-4.684900e-005
2.588044e+003,1.905249e-005
2.589972e+003,9.715987e-005
2.591901e+003,4.191658e-005
2.593829e+003,-6.295463e-007
2.595758e+003,-5.997220e-006
2.597686e+003,5.653035e-005
2.599615e+003,1.489631e-004
2.601543e+003,9.550280e-005
2.603472e+003,-1.583778e-005
2.605400e+003,-9.819819e-005
2.607329e+003,-1.422543e-004
2.609257e+003,-1.341059e-004
2.611186e+003,-1.064797e-004
2.613114e+003,-5.271306e-005
2.615043e+003,-2.624137e-005
2.616971e+003,5.997303e-006
2.618900e+003,4.406850e-006
2.620828e+003,-1.295522e-005
2.622757e+003,8.111970e-005
2.624685e+003,1.540012e-004
2.626614e+003,1.272366e-005
2.628542e+003,-1.753099e-004
2.630471e+003,-2.706208e-004
2.632399e+003,-1.864384e-004
2.634328e+003,-1.547084e-004
2.636256e+003,-1.958443e-004
2.638185e+003,-1.123430e-004
2.640113e+003,-1.225942e-005
2.642042e+003,3.843566e-006
2.643970e+003,-6.182372e-005
2.645899e+003,-7.050351e-005
2.647827e+003,-2.769917e-005
2.649756e+003,-3.296712e-005
2.651684e+003,-8.107143e-005
2.653613e+003,-4.058730e-005
2.655541e+003,2.975539e-005
2.657470e+003,-3.472309e-005
2.659398e+003,-3.452430e-005
2.661327e+003,5.083059e-005
2.663255e+003,4.503149e-005
2.665184e+003,-9.130781e-005
2.667112e+003,-1.377826e-004
2.669041e+003,-8.153522e-005
2.670969e+003,-8.345662e-005
2.672898e+003,-2.991901e-005
2.674826e+003,-7.388828e-006
2.676755e+003,5.632791e-007
2.678683e+003,1.457900e-006
2.680612e+003,-1.222629e-005
2.682540e+003,9.608882e-007
2.684469e+003,-3.512194e-006
2.686397e+003,-2.319377e-006
2.688326e+003,-3.525319e-005
2.690254e+003,-5.281245e-005
2.692183e+003,-3.131054e-005
2.694111e+003,-7.683104e-005
2.696040e+003,-1.015108e-004
2.697968e+003,-8.852513e-005
2.699897e+003,-1.078379e-004
2.701825e+003,-1.351658e-004
2.703754e+003,-1.095273e-004
2.705682e+003,-8.706753e-005
2.707611e+003,-8.912965e-006
2.709539e+003,7.720917e-005
2.711468e+003,-2.610884e-005
2.713396e+003,-8.541116e-005
2.715325e+003,-6.811824e-005
2.717253e+003,-8.183336e-005
2.719182e+003,-1.620284e-004
2.721110e+003,-1.317872e-004
2.723039e+003,-1.159537e-004
2.724967e+003,-1.262555e-004
2.726896e+003,-2.120573e-006
2.728824e+003,-5.403826e-005
2.730753e+003,-1.547084e-004
2.732681e+003,-4.727970e-005
2.734610e+003,-5.334547e-006
2.736538e+003,-3.747298e-005
2.738467e+003,1.517565e-005
2.740395e+003,3.591878e-005
2.742324e+003,-7.199430e-005
2.744252e+003,-1.506344e-004
2.746181e+003,-1.245992e-004
2.748109e+003,-9.654186e-005
2.750038e+003,-1.489120e-004
2.751966e+003,-2.349893e-004
2.753895e+003,-2.156159e-004
2.755823e+003,-2.242264e-004
2.757752e+003,-2.318764e-004
2.759680e+003,-1.594780e-004
2.761609e+003,-1.373851e-004
2.763537e+003,-9.773442e-005
2.765466e+003,-1.397038e-004
2.767394e+003,-1.716998e-004
2.769323e+003,-1.351658e-004
2.771251e+003,-7.630099e-005
2.773180e+003,2.495065e-005
2.775108e+003,-5.602605e-005
2.777037e+003,-1.612997e-004
2.778965e+003,-1.489120e-004
2.780894e+003,-1.292698e-004
2.782822e+003,-1.710042e-004
2.784750e+003,-1.958112e-004
2.786679e+003,-7.610222e-005
2.788608e+003,-7.388828e-006
2.790536e+003,-1.271498e-004
2.792465e+003,-1.521911e-004
2.794393e+003,-8.981709e-005
2.796322e+003,-1.927973e-004
2.798250e+003,-1.724284e-004
2.800178e+003,-1.307604e-004
2.802107e+003,-5.539658e-005
2.804036e+003,-4.038852e-005
2.805964e+003,-3.349722e-005
2.807893e+003,-5.466773e-005
2.809821e+003,-1.634195e-004
2.811750e+003,-1.800793e-004
2.813678e+003,-1.489120e-004
2.815606e+003,-1.753099e-004
2.817535e+003,-1.676590e-004
2.819464e+003,-4.797544e-005
2.821392e+003,-4.015660e-005
2.823321e+003,-8.514614e-005
2.825249e+003,-1.728259e-004
2.827177e+003,-1.529198e-004
2.829106e+003,-2.219924e-005
2.831034e+003,-6.881395e-005
2.832963e+003,-9.697251e-005
2.834892e+003,3.581937e-005
2.836820e+003,4.347404e-005
2.838749e+003,-3.247124e-006
2.840677e+003,-1.133169e-005
2.842605e+003,-3.535258e-005
2.844534e+003,-1.245992e-004
2.846462e+003,-1.361264e-004
2.848391e+003,-7.295503e-005
2.850320e+003,-2.849518e-006
2.852248e+003,1.245858e-005
2.854177e+003,-1.108855e-004
2.856105e+003,-2.626072e-004
2.858033e+003,-2.163114e-004
2.859962e+003,-1.551721e-004
2.861890e+003,-1.514624e-004
2.863819e+003,-6.440780e-005
2.865748e+003,-5.632750e-006
2.867676e+003,-2.826242e-005
2.869604e+003,-1.616640e-004
2.871533e+003,-2.793626e-004
2.873461e+003,-2.087605e-004
2.875390e+003,-1.173449e-004
2.877319e+003,-7.842119e-005
2.879247e+003,-4.052104e-005
2.881176e+003,-1.032665e-004
2.883104e+003,-1.810067e-004
2.885032e+003,-1.953475e-004
2.886961e+003,-1.488126e-004
2.888889e+003,-1.378489e-004
2.890818e+003,-1.215518e-004
2.892747e+003,-1.927973e-004
2.894675e+003,-2.460499e-004
2.896604e+003,-1.887567e-004
2.898532e+003,-1.646118e-004
2.900460e+003,-1.572919e-004
2.902389e+003,-1.550396e-004
2.904317e+003,-1.796156e-004
2.906246e+003,-2.337309e-004
2.908175e+003,-2.096216e-004
2.910103e+003,-1.764029e-004
2.912031e+003,-1.715342e-004
2.913960e+003,-1.715342e-004
2.915888e+003,-1.701431e-004
2.917817e+003,-2.458476e-005
2.919745e+003,-2.511488e-005
2.921674e+003,-9.856258e-005
2.923603e+003,-2.711506e-004
2.925531e+003,-3.414446e-004
2.927459e+003,-2.755878e-004
2.929388e+003,-2.301543e-004
2.931316e+003,-1.717991e-004
2.933245e+003,-1.484151e-004
2.935173e+003,-1.717991e-004
2.937102e+003,-2.024680e-004
2.939031e+003,-1.757405e-004
2.940959e+003,-8.640498e-005
2.942887e+003,-1.766017e-004
2.944816e+003,-2.735679e-004
2.946744e+003,-1.601404e-004
2.948673e+003,-7.822242e-005
2.950601e+003,-9.561431e-005
2.952530e+003,-1.516280e-004
2.954458e+003,-2.256173e-004
2.956387e+003,-2.041902e-004
2.958315e+003,-1.609685e-004
2.960244e+003,-1.842193e-004
2.962172e+003,-1.904790e-004
2.964101e+003,-7.646663e-005
2.966029e+003,-1.466927e-004
2.967958e+003,-3.019449e-004
2.969886e+003,-3.030707e-004
2.971815e+003,-3.296580e-004
2.973743e+003,-2.059455e-004
2.975672e+003,-1.428054e-005
2.977600e+003,-2.246430e-005
2.979529e+003,-3.939458e-005
2.981457e+003,-1.855502e-006
2.983386e+003,-6.831701e-005
2.985314e+003,-1.960099e-004
2.987243e+003,-1.668310e-004
2.989171e+003,-7.398201e-005
2.991100e+003,-4.300585e-005
2.993028e+003,-1.677584e-004
2.994957e+003,-1.661023e-004
2.996885e+003,-9.074465e-005
2.998814e+003,-1.656699e-006
3.000742e+003,-8.681031e-006
3.002671e+003,-1.771647e-004
3.004599e+003,-2.313134e-004
3.006528e+003,-1.461628e-004
3.008456e+003,-8.998273e-005
3.010385e+003,-1.858091e-004
3.012313e+003,-1.600079e-004
3.014242e+003,-1.054528e-004
3.016170e+003,-1.292698e-004
3.018099e+003,-1.306610e-004
3.020027e+003,-5.923962e-005
3.021956e+003,-3.406046e-005
3.023884e+003,-7.620161e-005
3.025813e+003,-1.643469e-004
3.027741e+003,-2.479706e-004
3.029670e+003,-1.240693e-004
3.031598e+003,3.936502e-005
3.033527e+003,1.047048e-005
3.035455e+003,-7.398201e-005
3.037384e+003,-7.484334e-005
3.039312e+003,-8.348975e-005
3.041241e+003,-1.536816e-004
3.043169e+003,-2.396918e-004
3.045098e+003,-2.183647e-004
3.047026e+003,-1.070429e-004
3.048955e+003,-1.268848e-004
3.050883e+003,-1.601073e-004
3.052812e+003,-1.370208e-004
3.054740e+003,-1.072085e-004
3.056669e+003,-9.829757e-005
3.058597e+003,-9.342794e-005
3.060526e+003,-7.792427e-005
3.062454e+003,-4.346968e-005
3.064383e+003,-5.284558e-005
3.066311e+003,-5.721872e-005
3.068240e+003,-1.065460e-004
3.070168e+003,-1.470571e-004
3.072097e+003,-8.209839e-005
3.074025e+003,-5.625796e-005
3.075954e+003,-1.987997e-005
3.077882e+003,2.299563e-005
3.079811e+003,-8.786259e-005
3.081739e+003,-1.497069e-004
3.083668e+003,-1.300979e-004
3.085596e+003,-1.152911e-004
3.087525e+003,-1.556027e-004
3.089453e+003,-1.358946e-004
3.091382e+003,-1.062810e-004
3.093310e+003,-4.148184e-005
3.095239e+003,2.418792e-006
3.097167e+003,4.572521e-006
3.099096e+003,-1.884587e-004
3.101024e+003,-2.917797e-004
3.102953e+003,-1.618627e-004
3.104881e+003,-1.491438e-004
3.106810e+003,-2.437650e-004
3.108738e+003,-1.569607e-004
3.110667e+003,-1.326816e-004
3.112595e+003,-1.446722e-004
3.114524e+003,-1.102561e-004
3.116452e+003,-1.230424e-004
3.118381e+003,-1.041609e-004
3.120309e+003,-1.607366e-004
3.122238e+003,-2.640974e-004
3.124166e+003,-2.171724e-004
3.126095e+003,-1.675596e-004
3.128023e+003,-2.241602e-004
3.129952e+003,-1.493426e-004
3.131880e+003,-1.117467e-004
3.133809e+003,-1.910420e-004
3.135737e+003,-2.922433e-004
3.137666e+003,-1.776946e-004
3.139594e+003,-6.076358e-005
3.141523e+003,-7.961380e-005
3.143451e+003,-1.139330e-004
3.145380e+003,-1.129061e-004
3.147308e+003,-5.827886e-005
3.149237e+003,-1.259905e-004
3.151165e+003,-2.233323e-004
3.153094e+003,-2.814487e-004
3.155022e+003,-3.122423e-004
3.156951e+003,-2.932366e-004
3.158879e+003,-1.403331e-004
3.160808e+003,-9.458738e-005
3.162736e+003,-1.566957e-004
3.164665e+003,-1.903134e-004
3.166593e+003,-2.724420e-004
3.168522e+003,-3.254200e-004
3.170450e+003,-2.374730e-004
3.172379e+003,-4.456300e-005
3.174307e+003,-9.310565e-006
3.176236e+003,-1.104217e-004
3.178164e+003,-2.066741e-004
3.180093e+003,-1.106205e-004
3.182021e+003,-6.987407e-005
3.183950e+003,-2.042896e-004
3.185878e+003,-2.903890e-004
3.187807e+003,-2.369100e-004
3.189735e+003,-1.409956e-004
3.191664e+003,-1.815366e-004
3.193592e+003,-2.134964e-004
3.195521e+003,-2.862169e-004
3.197449e+003,-2.092573e-004
3.199378e+003,-1.097923e-004
3.201306e+003,-2.683849e-006
3.203235e+003,-8.892266e-005
3.205163e+003,-1.744488e-004
3.207092e+003,-1.836894e-004
3.209020e+003,-1.513962e-004
3.210948e+003,-1.090304e-004
3.212877e+003,-5.861016e-005
3.214806e+003,-5.234863e-005
3.216734e+003,-1.318535e-004
3.218663e+003,-2.591303e-004
3.220591e+003,-2.626735e-004
3.222520e+003,-1.212868e-004
3.224448e+003,-6.205562e-005
3.226376e+003,-1.139330e-004
3.228305e+003,-1.225942e-005
3.230234e+003,4.052482e-005
3.232162e+003,3.843566e-006
3.234091e+003,-2.044322e-005
3.236019e+003,-7.315379e-005
3.237948e+003,-1.814372e-004
3.239876e+003,-1.434467e-004
3.241804e+003,-5.271306e-005
3.243733e+003,-1.557021e-004
3.245662e+003,-1.509325e-004
3.247590e+003,-1.794500e-004
3.249519e+003,-1.873326e-004
3.251447e+003,-2.825414e-004
3.253375e+003,-3.306843e-004
3.255304e+003,-2.487322e-004
3.257232e+003,-1.340065e-004
3.259161e+003,-7.199430e-005
3.261090e+003,-2.776544e-005
3.263018e+003,-1.666610e-005
3.264947e+003,-2.001166e-004
3.266875e+003,-3.431662e-004
3.268803e+003,-3.487614e-004
3.270732e+003,-2.849586e-004
3.272660e+003,-7.779176e-005
3.274589e+003,1.888681e-005
3.276518e+003,-1.040616e-004
3.278446e+003,-1.624921e-004
3.280375e+003,-2.755546e-004
3.282303e+003,-2.497257e-004
3.284231e+003,-2.321413e-004
3.286160e+003,-2.363802e-004
3.288088e+003,-2.385989e-004
3.290017e+003,-2.867798e-004
3.291946e+003,-4.113961e-004
3.293874e+003,-3.961355e-004
3.295802e+003,-2.258160e-004
3.297731e+003,-1.226780e-004
3.299659e+003,-1.278123e-004
3.301588e+003,-1.341721e-004
3.303516e+003,-1.055522e-004
3.305445e+003,-2.551246e-005
3.307374e+003,-9.259977e-005
3.309302e+003,-8.511301e-005
3.311230e+003,-7.842119e-005
3.313159e+003,-1.318866e-004
3.315087e+003,-1.909426e-004
3.317016e+003,-2.156822e-004
3.318944e+003,-1.816359e-004
3.320873e+003,-7.235871e-005
3.322802e+003,-1.249636e-004
3.324730e+003,-3.116132e-004
3.326658e+003,-2.916473e-004
3.328587e+003,-6.135990e-005
3.330515e+003,2.044418e-005
3.332444e+003,-6.964217e-005
3.334372e+003,-1.840206e-004
3.336301e+003,-2.064754e-004
3.338229e+003,-1.600079e-004
3.340158e+003,-9.296416e-005
3.342086e+003,-2.382272e-005
3.344015e+003,1.471176e-005
3.345943e+003,-5.943840e-005
3.347872e+003,-7.398201e-005
3.349800e+003,4.251305e-005
3.351729e+003,1.335839e-004
3.353657e+003,3.992835e-005
3.355586e+003,-2.147033e-005
3.357514e+003,-1.141980e-004
3.359443e+003,-1.268186e-004
3.361371e+003,-5.175229e-005
3.363300e+003,-4.390038e-005
3.365229e+003,-1.190012e-004
3.367157e+003,-1.311579e-004
3.369085e+003,-2.155828e-004
3.371014e+003,-9.965576e-005
3.372942e+003,8.426804e-005
3.374871e+003,-5.658925e-005
3.376799e+003,-1.156555e-004
3.378728e+003,-4.840613e-005
3.380656e+003,-6.248630e-005
3.382585e+003,-1.486801e-004
3.384513e+003,-1.438110e-004
3.386442e+003,-7.640038e-005
3.388370e+003,1.038545e-004
3.390299e+003,1.424335e-004
3.392227e+003,6.773126e-005
3.394156e+003,6.802951e-005
3.396084e+003,2.067613e-005
3.398013e+003,-4.360221e-005
3.399941e+003,-2.117213e-005
3.401870e+003,8.846879e-006
3.403798e+003,1.070243e-005
3.405727e+003,-3.266893e-005
3.407655e+003,1.772707e-005
3.409584e+003,3.774131e-005
3.411512e+003,-4.224385e-005
3.413441e+003,-1.337747e-004
3.415369e+003,-1.167155e-004
3.417298e+003,-9.038026e-005
3.419226e+003,-1.526548e-004
3.421155e+003,-2.756540e-004
3.423083e+003,-2.557857e-004
3.425012e+003,-9.985451e-005
3.426940e+003,-5.672177e-005
3.428869e+003,-7.455095e-006
3.430797e+003,8.813744e-006
3.432726e+003,-8.438420e-005
3.434654e+003,-1.524892e-004
3.436583e+003,-2.318101e-004
3.438511e+003,-2.383009e-004
3.440440e+003,-7.020535e-005
3.442368e+003,9.874056e-006
3.444297e+003,-1.931672e-005
3.446225e+003,1.172441e-004
3.448154e+003,8.029120e-005
3.450082e+003,-1.563899e-005
3.452011e+003,-5.218298e-005
3.453939e+003,-1.501044e-004
3.455868e+003,-2.171724e-004
3.457796e+003,-9.601183e-005
3.459725e+003,-1.563899e-005
3.461653e+003,-4.545752e-005
3.463582e+003,-1.858780e-005
3.465510e+003,5.235210e-006
3.467439e+003,4.930625e-005
3.469367e+003,-4.959882e-005
3.471296e+003,3.644746e-007
3.473224e+003,3.340040e-005
3.475153e+003,-1.742832e-004
3.477081e+003,-1.880943e-004
3.479010e+003,-4.187941e-005
3.480938e+003,8.042376e-005
3.482867e+003,-2.547933e-005
3.484795e+003,5.665958e-006
3.486724e+003,2.365835e-005
3.488652e+003,-8.283502e-007
3.490581e+003,-7.153050e-005
3.492509e+003,-2.480368e-004
3.494438e+003,-7.269000e-005
3.496366e+003,2.716515e-004
3.498295e+003,1.480350e-004
3.500223e+003,-1.086661e-004
3.502152e+003,-8.229716e-005
3.504080e+003,-9.110905e-005
3.506009e+003,4.088933e-005
3.507937e+003,1.274854e-004
3.509866e+003,1.583765e-004
3.511794e+003,8.562680e-005
3.513723e+003,-5.808009e-005
3.515651e+003,-1.135355e-004
3.517580e+003,1.888681e-005
3.519508e+003,3.472586e-005
3.521437e+003,8.648846e-005
3.523365e+003,2.657431e-005
3.525294e+003,-7.461145e-005
3.527222e+003,-1.193655e-004
3.529151e+003,-2.070828e-005
3.531079e+003,4.503149e-005
3.533008e+003,7.604928e-005
3.534936e+003,-1.185374e-004
3.536865e+003,-3.283459e-005
3.538793e+003,2.533836e-004
3.540722e+003,4.278054e-004
3.542650e+003,2.369067e-004
3.544579e+003,6.756556e-005
3.546507e+003,-4.549065e-005
3.548436e+003,-1.077385e-004
3.550364e+003,-1.424530e-004
3.552293e+003,-7.795740e-005
3.554221e+003,-9.508428e-005
3.556150e+003,-1.141980e-004
3.558078e+003,-7.454519e-005
3.560007e+003,-5.732151e-006
3.561935e+003,1.129686e-004
3.563864e+003,-8.014384e-005
3.565792e+003,-3.474702e-004
3.567721e+003,-2.239615e-004
3.569649e+003,-8.955207e-005
3.571578e+003,-1.094942e-004
3.573506e+003,-7.951442e-005
3.575435e+003,1.001758e-004
3.577363e+003,2.415480e-004
3.579292e+003,1.455822e-004
3.581220e+003,-5.506528e-005
3.583149e+003,-7.987882e-005
3.585077e+003,-3.561763e-005
3.587006e+003,-2.762169e-004
3.588934e+003,-1.720641e-004
3.590863e+003,1.324901e-004
3.592791e+003,4.350717e-005
3.594720e+003,-5.022830e-005
3.596648e+003,-2.193418e-005
3.598577e+003,1.622214e-004
3.600505e+003,1.920874e-004
3.602434e+003,1.095218e-004
3.604362e+003,2.456258e-004
3.606291e+003,8.993509e-005
3.608219e+003,-2.396255e-004
3.610148e+003,-3.086995e-004
3.612076e+003,-2.307835e-004
3.614005e+003,-1.136680e-004
3.615933e+003,-7.076854e-005
3.617862e+003,-1.384120e-004
3.619790e+003,-3.366288e-005
3.621719e+003,1.030259e-004
3.623647e+003,2.626004e-004
3.625576e+003,3.527225e-004
3.627504e+003,3.045125e-005
3.629433e+003,-1.136349e-004
3.631361e+003,1.731599e-004
3.633290e+003,1.631827e-004
3.635218e+003,1.883747e-004
3.637146e+003,1.906288e-004
3.639075e+003,1.015677e-004
3.641004e+003,1.972254e-004
3.642932e+003,1.736239e-004
3.644861e+003,-1.443079e-004
3.646789e+003,-3.804771e-004
3.648718e+003,-4.816343e-004
3.650646e+003,-2.626072e-004
3.652574e+003,1.797231e-004
3.654503e+003,1.755796e-004
3.656432e+003,1.166334e-005
3.658360e+003,4.420306e-005
3.660289e+003,8.774780e-005
3.662217e+003,-2.402151e-005
3.664146e+003,2.127257e-005
3.666074e+003,1.229290e-005
3.668002e+003,-2.261803e-004
3.669931e+003,-4.221543e-004
3.671860e+003,-3.530984e-004
3.673788e+003,-5.833305e-004
3.675717e+003,-5.073833e-004
3.677645e+003,1.681215e-004
3.679573e+003,1.887062e-004
3.681502e+003,1.805518e-004
3.683430e+003,1.583765e-004
3.685359e+003,1.823086e-004
3.687288e+003,-9.882759e-005
3.689216e+003,-3.571706e-004
3.691145e+003,-9.342794e-005
3.693073e+003,3.406521e-004
3.695001e+003,3.268577e-004
3.696930e+003,1.387212e-004
3.698858e+003,1.324569e-004
3.700787e+003,1.971923e-004
3.702716e+003,3.574314e-004
3.704644e+003,5.157061e-004
3.706573e+003,3.189991e-004
3.708501e+003,-3.992468e-005
3.710429e+003,-3.056202e-004
3.712358e+003,-1.506675e-004
3.714286e+003,2.638934e-004
3.716215e+003,6.975276e-005
3.718144e+003,3.058380e-005
3.720072e+003,1.674254e-004
3.722000e+003,-4.757788e-005
3.723929e+003,-1.252286e-004
3.725857e+003,1.332193e-004
3.727786e+003,4.510227e-004
3.729714e+003,2.406198e-004
3.731643e+003,-3.045276e-004
3.733572e+003,-4.915965e-004
3.735500e+003,-4.600543e-004
3.737428e+003,-2.058461e-004
3.739357e+003,1.239390e-004
3.741285e+003,2.189718e-004
3.743214e+003,-4.701494e-004
3.745142e+003,-7.301902e-004
3.747071e+003,-3.166791e-004
3.749000e+003,-2.692962e-004
3.750928e+003,-3.989163e-004
3.752856e+003,-1.968047e-004
3.754785e+003,1.503552e-004
3.756713e+003,2.193364e-004
3.758642e+003,1.858223e-004
3.760570e+003,2.183751e-004
3.762499e+003,3.219171e-004
3.764427e+003,3.572324e-004
3.766356e+003,3.262277e-004
3.768284e+003,2.919427e-004
3.770213e+003,2.996019e-004
3.772141e+003,3.389941e-004
3.774070e+003,4.030638e-004
3.775998e+003,3.627372e-004
3.777927e+003,1.873140e-004
3.779855e+003,1.074338e-004
3.781784e+003,2.316356e-004
3.783712e+003,3.056033e-004
3.785641e+003,4.555005e-004
3.787569e+003,3.817393e-004
3.789498e+003,3.091512e-004
3.791426e+003,3.385962e-004
3.793355e+003,3.358439e-004
3.795283e+003,9.377945e-005
3.797212e+003,9.888323e-005
3.799140e+003,2.614354e-005
3.801069e+003,-2.807865e-004
3.802997e+003,1.398482e-004
3.804926e+003,1.838997e-004
3.806854e+003,-6.967530e-005
3.808783e+003,9.086304e-005
3.810711e+003,5.041619e-004
3.812640e+003,6.472585e-004
3.814568e+003,2.084300e-004
3.816497e+003,1.339816e-004
3.818425e+003,3.396573e-004
3.820354e+003,9.321605e-005
3.822282e+003,2.262319e-004
3.824211e+003,5.062518e-004
3.826139e+003,2.681703e-004
3.828068e+003,3.879077e-004
3.829996e+003,4.308899e-004
3.831925e+003,4.181540e-004
3.833853e+003,4.205420e-004
3.835782e+003,9.752443e-005
3.837710e+003,1.487744e-005
3.839639e+003,1.890377e-004
3.841567e+003,4.516529e-004
3.843496e+003,5.872006e-004
3.845424e+003,5.863380e-004
3.847353e+003,4.354007e-004
3.849281e+003,4.667780e-004
3.851210e+003,1.319266e-004
3.853138e+003,-4.761401e-004
3.855067e+003,-1.083470e-005
3.856995e+003,5.920448e-004
3.858924e+003,6.055489e-004
3.860852e+003,3.681095e-004
3.862781e+003,2.630977e-004
3.864709e+003,2.363763e-004
3.866638e+003,4.084033e-004
3.868566e+003,3.965303e-004
3.870495e+003,4.151359e-004
3.872423e+003,4.577228e-004
3.874352e+003,5.343168e-004
3.876280e+003,7.151572e-004
3.878209e+003,4.757671e-004
3.880137e+003,3.021882e-004
3.882066e+003,4.179219e-004
3.883994e+003,2.701927e-004
3.885923e+003,3.598190e-004
3.887851e+003,6.095306e-004
3.889780e+003,3.953365e-004
3.891708e+003,1.440244e-004
3.893637e+003,3.141249e-004
3.895565e+003,7.033090e-004
3.897494e+003,6.974016e-004
3.899422e+003,5.793373e-004
3.901351e+003,4.503262e-004
3.903279e+003,4.153681e-004
3.905208e+003,7.353032e-004
3.907136e+003,8.928856e-004
3.909065e+003,8.242620e-004
3.910993e+003,6.970366e-004
3.912922e+003,7.939210e-004
3.914850e+003,8.318974e-004
3.916779e+003,5.705783e-004
3.918707e+003,6.777552e-004
3.920636e+003,8.748571e-004
3.922564e+003,8.268845e-004
3.924493e+003,7.584706e-004
3.926421e+003,7.071920e-004
3.928350e+003,6.517383e-004
3.930278e+003,5.999747e-004
3.932207e+003,7.654741e-004
3.934135e+003,1.076865e-003
3.936064e+003,1.077064e-003
3.937992e+003,1.039498e-003
3.939921e+003,1.045377e-003
3.941849e+003,9.577344e-004
3.943778e+003,9.606566e-004
3.945706e+003,8.207099e-004
3.947635e+003,8.012571e-004
3.949563e+003,1.085501e-003
3.951492e+003,1.149615e-003
3.953420e+003,1.163900e-003
3.955349e+003,1.200248e-003
3.957277e+003,1.019803e-003
3.959206e+003,8.585558e-004
3.961134e+003,8.276481e-004
3.963063e+003,1.001271e-003
3.964991e+003,9.042409e-004
3.966920e+003,6.663394e-004
3.968848e+003,7.543548e-004
3.970777e+003,9.839357e-004
3.972705e+003,1.081449e-003
3.974634e+003,1.102343e-003
3.976562e+003,1.038867e-003
3.978491e+003,1.041690e-003
3.980419e+003,1.103970e-003
3.982348e+003,9.893487e-004
3.984276e+003,1.117424e-003
3.986205e+003,1.112441e-003
3.988133e+003,1.179914e-003
3.990062e+003,1.183037e-003
3.991990e+003,1.014788e-003
3.993919e+003,9.277825e-004
3.995847e+003,8.006928e-004
3.997776e+003,6.186885e-004
3.999704e+003,7.961119e-004
4.001633e+003,0.000000e+000
