3.991989e+002,-1.583830e-002
4.011274e+002,-1.412722e-003
4.030559e+002,1.813796e-003
4.049844e+002,-1.721674e-003
4.069129e+002,-5.129682e-003
4.088414e+002,-3.710327e-003
4.107699e+002,-3.305037e-003
4.126984e+002,-5.443168e-003
4.146269e+002,8.314126e-005
4.165554e+002,1.635557e-003
4.184839e+002,-3.666762e-003
4.204124e+002,-2.047201e-004
4.223409e+002,2.233809e-004
4.242694e+002,-3.235813e-003
4.261979e+002,-2.470623e-003
4.281264e+002,2.160393e-005
4.300549e+002,-9.361652e-003
4.319834e+002,-4.076277e-003
4.339119e+002,3.414811e-004
4.358404e+002,-6.347004e-003
4.377689e+002,2.509303e-004
4.396974e+002,3.926051e-003
4.416259e+002,3.106764e-004
4.435544e+002,1.653318e-003
4.454829e+002,4.585923e-003
4.474114e+002,6.741956e-003
4.493399e+002,7.090298e-003
4.512684e+002,6.469599e-004
4.531969e+002,-2.610622e-003
4.551254e+002,-1.030339e-003
4.570539e+002,9.063659e-004
4.589824e+002,1.896619e-003
4.609109e+002,1.047048e-005
4.628394e+002,-4.558176e-004
4.647679e+002,6.949458e-004
4.666964e+002,2.027282e-004
4.686249e+002,1.152886e-004
4.705533e+002,-8.819385e-005
4.724819e+002,6.965334e-005
4.744103e+002,3.579288e-004
4.763389e+002,1.945908e-003
4.782673e+002,1.062848e-003
4.801959e+002,-4.402938e-004
4.821243e+002,3.629031e-004
4.840529e+002,3.377340e-004
4.859813e+002,-1.247261e-003
4.879099e+002,-1.606973e-003
4.898383e+002,-2.400278e-003
4.917668e+002,-1.931093e-003
4.936953e+002,-2.007880e-003
4.956238e+002,-4.552168e-003
4.975523e+002,-4.636230e-003
4.994808e+002,-4.133421e-003
5.014093e+002,-4.181204e-003
5.033378e+002,-4.324097e-003
5.052663e+002,-3.940461e-003
5.071948e+002,-2.536444e-003
5.091233e+002,-2.263508e-003
5.110518e+002,-3.063807e-003
5.129803e+002,-5.318645e-003
5.149088e+002,-5.946621e-003
5.168373e+002,-4.934970e-003
5.187658e+002,-4.530625e-003
5.206943e+002,-4.610266e-003
5.226228e+002,-5.230983e-003
5.245513e+002,-6.165185e-003
5.264798e+002,-5.787522e-003
5.284083e+002,-4.478912e-003
5.303368e+002,-4.282726e-003
5.322653e+002,-5.634938e-003
5.341938e+002,-5.513807e-003
5.361223e+002,-4.784151e-003
5.380508e+002,-5.172019e-003
5.399792e+002,-4.192624e-003
5.419078e+002,-3.170986e-003
5.438363e+002,-3.263406e-003
5.457648e+002,-2.653172e-003
5.476932e+002,-2.970753e-003
5.496218e+002,-2.576038e-003
5.515503e+002,-1.053477e-003
5.534788e+002,-9.942738e-004
5.554072e+002,-1.965662e-003
5.573358e+002,-2.683633e-003
5.592643e+002,-2.960189e-003
5.611927e+002,-1.513969e-003
5.631212e+002,-7.207958e-004
5.650497e+002,-7.958789e-004
5.669783e+002,-2.185777e-003
5.689067e+002,-1.699462e-003
5.708352e+002,5.961922e-004
5.727637e+002,3.704971e-004
5.746923e+002,-2.651196e-003
5.766207e+002,-2.373718e-003
5.785492e+002,3.227129e-004
5.804777e+002,1.019062e-002
5.824063e+002,7.960974e-003
5.843347e+002,-1.182268e-003
5.862632e+002,-2.060811e-003
5.881917e+002,-2.703852e-003
5.901202e+002,-2.515461e-003
5.920487e+002,-2.916649e-003
5.939772e+002,-4.893199e-003
5.959057e+002,-6.036295e-003
5.978342e+002,-4.791426e-003
5.997627e+002,-3.372442e-003
6.016912e+002,-1.962165e-003
6.036197e+002,-1.721938e-003
6.055482e+002,-4.370160e-005
6.074767e+002,1.249171e-005
6.094052e+002,-1.289054e-004
6.113337e+002,7.137965e-004
6.132622e+002,9.571366e-004
6.151907e+002,-5.933564e-004
6.171192e+002,-7.544360e-004
6.190477e+002,-1.039925e-003
6.209762e+002,-9.421047e-004
6.229047e+002,-2.929847e-003
6.248332e+002,-3.500383e-003
6.267617e+002,-3.980616e-003
6.286902e+002,-4.567382e-003
6.306187e+002,-4.398494e-003
6.325472e+002,-4.066265e-003
6.344756e+002,-3.832749e-003
6.364042e+002,-2.982468e-003
6.383326e+002,-2.484296e-003
6.402612e+002,-3.112696e-003
6.421896e+002,-3.513990e-003
6.441182e+002,-2.922211e-003
6.460466e+002,-2.685082e-003
6.479752e+002,-2.656366e-003
6.499036e+002,-2.473325e-003
6.518322e+002,-2.346432e-003
6.537606e+002,-2.211425e-003
6.556891e+002,-2.020445e-003
6.576177e+002,-2.199096e-003
6.595461e+002,-1.870458e-003
6.614746e+002,-1.824499e-003
6.634031e+002,-1.424017e-003
6.653317e+002,-1.741277e-003
6.672601e+002,-2.532986e-003
6.691886e+002,-2.207733e-003
6.711171e+002,-1.672100e-003
6.730457e+002,-1.534540e-003
6.749741e+002,-1.127379e-003
6.769026e+002,-6.982022e-004
6.788311e+002,-1.599086e-004
6.807596e+002,-1.493426e-004
6.826881e+002,-7.212589e-004
6.846166e+002,-5.819407e-004
6.865451e+002,-3.952417e-004
6.884736e+002,-2.526398e-004
6.904021e+002,-7.481022e-005
6.923306e+002,7.591672e-005
6.942591e+002,1.084613e-004
6.961876e+002,6.945450e-005
6.981161e+002,-8.915455e-005
7.000446e+002,-2.994947e-004
7.019731e+002,-1.596436e-004
7.039016e+002,-2.988325e-004
7.058301e+002,-9.333762e-004
7.077585e+002,-1.705238e-003
7.096871e+002,-1.746722e-003
7.116156e+002,-1.845978e-003
7.135441e+002,-2.082048e-003
7.154725e+002,-2.345344e-003
7.174011e+002,-2.340137e-003
7.193296e+002,-2.177799e-003
7.212581e+002,-2.508180e-003
7.231865e+002,-2.981909e-003
7.251151e+002,-2.803482e-003
7.270436e+002,-3.020244e-003
7.289720e+002,-3.031465e-003
7.309005e+002,-3.449435e-003
7.328290e+002,-3.233676e-003
7.347576e+002,-2.981350e-003
7.366860e+002,-2.878238e-003
7.386145e+002,-2.355692e-003
7.405430e+002,-2.479519e-003
7.424716e+002,-2.666707e-003
7.444000e+002,-2.224051e-003
7.463285e+002,-2.108296e-003
7.482570e+002,-1.687382e-003
7.501855e+002,-1.406216e-003
7.521140e+002,-4.430411e-004
7.540425e+002,1.568186e-004
7.559710e+002,4.342066e-004
7.578995e+002,2.555718e-004
7.598280e+002,1.793585e-004
7.617565e+002,2.239776e-004
7.636850e+002,8.065351e-004
7.656135e+002,1.304190e-003
7.675420e+002,1.400678e-003
7.694705e+002,9.582989e-004
7.713990e+002,6.126827e-004
7.733275e+002,1.330213e-003
7.752560e+002,1.768979e-003
7.771844e+002,1.304589e-003
7.791130e+002,1.144831e-003
7.810415e+002,1.402872e-003
7.829700e+002,1.530338e-003
7.848984e+002,1.326491e-003
7.868270e+002,1.235934e-003
7.887555e+002,9.629811e-004
7.906840e+002,9.800502e-004
7.926124e+002,7.149912e-004
7.945410e+002,5.639761e-004
7.964695e+002,1.473721e-004
7.983979e+002,-1.819009e-004
8.003264e+002,9.089618e-005
8.022549e+002,1.577135e-004
8.041835e+002,4.469099e-004
8.061119e+002,8.041119e-004
8.080404e+002,8.127096e-004
8.099689e+002,1.040893e-003
8.118975e+002,1.343208e-003
8.138259e+002,1.295417e-003
8.157545e+002,1.012729e-003
8.176830e+002,7.953152e-004
8.196115e+002,4.797807e-004
8.215399e+002,1.633153e-004
8.234684e+002,-2.220407e-004
8.253970e+002,-8.014021e-004
8.273254e+002,-8.872510e-004
8.292539e+002,-4.847785e-004
8.311824e+002,-6.006028e-004
8.331110e+002,-9.744384e-004
8.350394e+002,-8.291163e-004
8.369679e+002,-9.900423e-004
8.388964e+002,-1.564056e-003
8.408250e+002,-1.567258e-003
8.427534e+002,-1.377019e-003
8.446819e+002,-1.442313e-003
8.466104e+002,-1.357498e-003
8.485389e+002,-1.065310e-003
8.504674e+002,-1.215609e-003
8.523959e+002,-1.593306e-003
8.543244e+002,-1.801764e-003
8.562529e+002,-1.616315e-003
8.581814e+002,-1.588057e-003
8.601099e+002,-1.319313e-003
8.620384e+002,-1.240224e-003
8.639669e+002,-1.454267e-003
8.658954e+002,-1.775300e-003
8.678239e+002,-2.088412e-003
8.697524e+002,-1.904042e-003
8.716809e+002,-1.588882e-003
8.736094e+002,-1.412359e-003
8.755378e+002,-1.253142e-003
8.774664e+002,-1.649853e-003
8.793949e+002,-1.504724e-003
8.813234e+002,-1.198625e-003
8.832518e+002,-1.116209e-003
8.851804e+002,-8.847710e-004
8.871089e+002,-5.192313e-004
8.890374e+002,-4.500914e-004
8.909658e+002,-5.878306e-004
8.928943e+002,-7.227144e-004
8.948229e+002,-6.181393e-004
8.967513e+002,-6.326642e-004
8.986798e+002,-7.107066e-004
9.006083e+002,-6.209186e-004
9.025369e+002,-3.254862e-004
9.044653e+002,-4.608487e-004
9.063938e+002,-7.184141e-004
9.083223e+002,-7.935968e-004
9.102509e+002,-7.749429e-004
9.121793e+002,-9.787361e-004
9.141078e+002,-1.124372e-003
9.160364e+002,-9.854472e-004
9.179648e+002,-9.289457e-004
9.198933e+002,-1.339397e-003
9.218218e+002,-1.699462e-003
9.237504e+002,-1.718538e-003
9.256788e+002,-1.754312e-003
9.276073e+002,-1.970609e-003
9.295358e+002,-2.176711e-003
9.314644e+002,-2.321253e-003
9.333928e+002,-2.520632e-003
9.353213e+002,-2.734112e-003
9.372498e+002,-2.499681e-003
9.391783e+002,-2.516482e-003
9.411068e+002,-2.808058e-003
9.430353e+002,-2.923494e-003
9.449637e+002,-2.952588e-003
9.468923e+002,-3.002212e-003
9.488208e+002,-2.966014e-003
9.507493e+002,-2.961111e-003
9.526777e+002,-3.068776e-003
9.546063e+002,-3.016033e-003
9.565348e+002,-2.647541e-003
9.584633e+002,-2.503041e-003
9.603917e+002,-2.457181e-003
9.623203e+002,-2.463243e-003
9.642488e+002,-2.506731e-003
9.661772e+002,-2.347190e-003
9.681057e+002,-2.186403e-003
9.700343e+002,-2.087951e-003
9.719628e+002,-2.186041e-003
9.738912e+002,-2.082807e-003
9.758197e+002,-2.042805e-003
9.777483e+002,-2.153995e-003
9.796768e+002,-2.180832e-003
9.816052e+002,-2.072089e-003
9.835337e+002,-1.809551e-003
9.854623e+002,-1.812356e-003
9.873907e+002,-1.785398e-003
9.893192e+002,-1.737977e-003
9.912477e+002,-1.717251e-003
9.931763e+002,-1.553128e-003
9.951047e+002,-1.550090e-003
9.970332e+002,-1.698934e-003
9.989617e+002,-1.408230e-003
1.000890e+003,-1.188283e-003
1.002819e+003,-1.280563e-003
1.004747e+003,-1.144762e-003
1.006676e+003,-9.779097e-004
1.008604e+003,-9.406169e-004
1.010533e+003,-7.655495e-004
1.012461e+003,-6.578417e-004
1.014390e+003,-6.297526e-004
1.016318e+003,-3.486620e-004
1.018247e+003,-9.306354e-005
1.020175e+003,1.896675e-004
1.022104e+003,5.825556e-004
1.024032e+003,7.638808e-004
1.025961e+003,9.540152e-004
1.027889e+003,1.307713e-003
1.029818e+003,1.428934e-003
1.031746e+003,1.610680e-003
1.033675e+003,1.934193e-003
1.035603e+003,1.983386e-003
1.037532e+003,2.051960e-003
1.039460e+003,2.206225e-003
1.041389e+003,2.412051e-003
1.043317e+003,2.469630e-003
1.045246e+003,2.394426e-003
1.047174e+003,2.399424e-003
1.049103e+003,2.497722e-003
1.051031e+003,2.668313e-003
1.052960e+003,2.747032e-003
1.054888e+003,2.534648e-003
1.056817e+003,2.396225e-003
1.058745e+003,2.511919e-003
1.060674e+003,2.617576e-003
1.062602e+003,2.505353e-003
1.064531e+003,2.508653e-003
1.066459e+003,2.591042e-003
1.068388e+003,2.636410e-003
1.070316e+003,2.623776e-003
1.072245e+003,2.559978e-003
1.074173e+003,2.535681e-003
1.076102e+003,2.557345e-003
1.078030e+003,2.547446e-003
1.079959e+003,2.916021e-003
1.081887e+003,3.095119e-003
1.083816e+003,3.026347e-003
1.085744e+003,3.100859e-003
1.087673e+003,3.327577e-003
1.089601e+003,3.590127e-003
1.091530e+003,3.591463e-003
1.093458e+003,3.162300e-003
1.095387e+003,3.039260e-003
1.097315e+003,3.239306e-003
1.099244e+003,3.355825e-003
1.101172e+003,3.430995e-003
1.103101e+003,3.447260e-003
1.105029e+003,3.524449e-003
1.106958e+003,3.799051e-003
1.108886e+003,3.756603e-003
1.110815e+003,3.506946e-003
1.112743e+003,3.572120e-003
1.114672e+003,3.658755e-003
1.116600e+003,3.595138e-003
1.118529e+003,3.742733e-003
1.120457e+003,3.847720e-003
1.122386e+003,3.833614e-003
1.124314e+003,3.589859e-003
1.126243e+003,3.589058e-003
1.128171e+003,3.542655e-003
1.130100e+003,3.211166e-003
1.132028e+003,3.194676e-003
1.133957e+003,3.126990e-003
1.135885e+003,2.696785e-003
1.137814e+003,2.369439e-003
1.139742e+003,2.058752e-003
1.141671e+003,1.875121e-003
1.143599e+003,1.731320e-003
1.145528e+003,1.457857e-003
1.147456e+003,1.129018e-003
1.149385e+003,7.276363e-004
1.151313e+003,4.877418e-004
1.153242e+003,3.025529e-004
1.155170e+003,1.806844e-004
1.157099e+003,1.342136e-004
1.159027e+003,-5.052647e-005
1.160956e+003,-2.956207e-004
1.162884e+003,-3.795171e-004
1.164813e+003,-3.111828e-004
1.166741e+003,-2.396918e-004
1.168670e+003,-1.109186e-004
1.170598e+003,-1.194318e-004
1.172526e+003,-1.765023e-004
1.174455e+003,-3.284660e-004
1.176384e+003,-2.669452e-004
1.178312e+003,-6.026664e-005
1.180240e+003,-6.792425e-006
1.182169e+003,-1.392400e-004
1.184098e+003,-2.124035e-004
1.186026e+003,-3.861381e-004
1.187954e+003,-3.862043e-004
1.189883e+003,-3.258504e-004
1.191812e+003,-1.917706e-004
1.193740e+003,-2.549578e-004
1.195668e+003,-3.181690e-004
1.197597e+003,-2.423410e-004
1.199526e+003,-1.424530e-004
1.201454e+003,-8.219777e-005
1.203382e+003,-4.721344e-005
1.205311e+003,1.329210e-004
1.207240e+003,3.086870e-004
1.209168e+003,3.126659e-004
1.211096e+003,4.319844e-004
1.213025e+003,7.077894e-004
1.214953e+003,8.160292e-004
1.216882e+003,7.510356e-004
1.218810e+003,8.780444e-004
1.220739e+003,1.149050e-003
1.222667e+003,1.251385e-003
1.224596e+003,1.357268e-003
1.226524e+003,1.587866e-003
1.228453e+003,1.655646e-003
1.230381e+003,1.597510e-003
1.232310e+003,1.770443e-003
1.234238e+003,2.106561e-003
1.236167e+003,2.300116e-003
1.238095e+003,2.308643e-003
1.240024e+003,2.243892e-003
1.241952e+003,2.167629e-003
1.243881e+003,2.098071e-003
1.245809e+003,2.012745e-003
1.247738e+003,2.049630e-003
1.249666e+003,2.033717e-003
1.251595e+003,1.863341e-003
1.253523e+003,1.774269e-003
1.255452e+003,1.696858e-003
1.257380e+003,1.568213e-003
1.259309e+003,1.566650e-003
1.261237e+003,1.752511e-003
1.263166e+003,2.006554e-003
1.265094e+003,2.319203e-003
1.267023e+003,2.586709e-003
1.268951e+003,2.832969e-003
1.270880e+003,3.019974e-003
1.272808e+003,3.136935e-003
1.274737e+003,3.443686e-003
1.276665e+003,3.888305e-003
1.278594e+003,4.204052e-003
1.280522e+003,4.431949e-003
1.282451e+003,4.627514e-003
1.284379e+003,4.826283e-003
1.286308e+003,5.004764e-003
1.288236e+003,5.457225e-003
1.290165e+003,6.017721e-003
1.292093e+003,6.318109e-003
1.294022e+003,6.524078e-003
1.295950e+003,6.639665e-003
1.297879e+003,6.827374e-003
1.299807e+003,6.929205e-003
1.301736e+003,6.793279e-003
1.303664e+003,6.747677e-003
1.305593e+003,6.616081e-003
1.307521e+003,6.330683e-003
1.309450e+003,6.130182e-003
1.311378e+003,5.941330e-003
1.313307e+003,5.708341e-003
1.315235e+003,5.522122e-003
1.317164e+003,5.168128e-003
1.319092e+003,4.922250e-003
1.321021e+003,4.670348e-003
1.322949e+003,4.328259e-003
1.324878e+003,4.049477e-003
1.326806e+003,3.923510e-003
1.328735e+003,3.832978e-003
1.330663e+003,3.778662e-003
1.332592e+003,3.660692e-003
1.334520e+003,3.432765e-003
1.336449e+003,3.251357e-003
1.338377e+003,3.110737e-003
1.340306e+003,3.066455e-003
1.342234e+003,3.173548e-003
1.344163e+003,3.188001e-003
1.346091e+003,3.128391e-003
1.348020e+003,2.977736e-003
1.349948e+003,2.824731e-003
1.351877e+003,2.776443e-003
1.353805e+003,2.677382e-003
1.355734e+003,2.554512e-003
1.357662e+003,2.552012e-003
1.359591e+003,2.299449e-003
1.361519e+003,1.922411e-003
1.363448e+003,1.779326e-003
1.365376e+003,1.912194e-003
1.367305e+003,1.770011e-003
1.369233e+003,1.738772e-003
1.371162e+003,1.753410e-003
1.373090e+003,1.470357e-003
1.375019e+003,1.312233e-003
1.376947e+003,1.490605e-003
1.378876e+003,1.594451e-003
1.380804e+003,1.584075e-003
1.382733e+003,1.441966e-003
1.384661e+003,1.401775e-003
1.386590e+003,1.061885e-003
1.388518e+003,8.686154e-004
1.390447e+003,9.592951e-004
1.392375e+003,8.795717e-004
1.394304e+003,4.818042e-004
1.396232e+003,3.790863e-004
1.398161e+003,2.784815e-004
1.400089e+003,2.689992e-004
1.402018e+003,5.893241e-004
1.403946e+003,5.816598e-004
1.405875e+003,6.153040e-004
1.407803e+003,7.513344e-004
1.409732e+003,6.981982e-004
1.411660e+003,7.457914e-004
1.413589e+003,7.460237e-004
1.415517e+003,8.161620e-004
1.417446e+003,9.242296e-004
1.419374e+003,1.310837e-003
1.421303e+003,2.342555e-003
1.423231e+003,2.898475e-003
1.425160e+003,3.437474e-003
1.427088e+003,4.009379e-003
1.429017e+003,4.201074e-003
1.430945e+003,4.522405e-003
1.432874e+003,4.970577e-003
1.434802e+003,4.936225e-003
1.436731e+003,4.786147e-003
1.438659e+003,5.663692e-003
1.440588e+003,6.199213e-003
1.442516e+003,6.482943e-003
1.444445e+003,6.912001e-003
1.446373e+003,7.161064e-003
1.448302e+003,7.476941e-003
1.450230e+003,8.101857e-003
1.452159e+003,8.433149e-003
1.454087e+003,8.376160e-003
1.456016e+003,7.699278e-003
1.457944e+003,7.987602e-003
1.459873e+003,9.111448e-003
1.461801e+003,9.451604e-003
1.463730e+003,9.188162e-003
1.465658e+003,9.147519e-003
1.467587e+003,9.297487e-003
1.469515e+003,9.096797e-003
1.471444e+003,8.169648e-003
1.473372e+003,7.698536e-003
1.475301e+003,7.789877e-003
1.477229e+003,7.718604e-003
1.479158e+003,7.613553e-003
1.481086e+003,7.323388e-003
1.483015e+003,7.064432e-003
1.484943e+003,6.536624e-003
1.486872e+003,5.882953e-003
1.488800e+003,5.252063e-003
1.490729e+003,4.929991e-003
1.492657e+003,4.927511e-003
1.494586e+003,4.365441e-003
1.496514e+003,3.516533e-003
1.498443e+003,3.370818e-003
1.500371e+003,3.451267e-003
1.502300e+003,3.316392e-003
1.504228e+003,2.309476e-003
1.506157e+003,8.713047e-004
1.508085e+003,9.899134e-004
1.510014e+003,1.655779e-003
1.511942e+003,1.785082e-003
1.513871e+003,1.826606e-003
1.515799e+003,1.639016e-003
1.517728e+003,1.681823e-003
1.519656e+003,1.491370e-003
1.521585e+003,1.115398e-003
1.523513e+003,1.790672e-003
1.525442e+003,2.086784e-003
1.527370e+003,2.308909e-003
1.529299e+003,2.779678e-003
1.531227e+003,2.976668e-003
1.533156e+003,2.841207e-003
1.535084e+003,3.471173e-003
1.537013e+003,3.671018e-003
1.538941e+003,2.815393e-003
1.540870e+003,2.787347e-003
1.542798e+003,3.791664e-003
1.544727e+003,4.577853e-003
1.546655e+003,5.297140e-003
1.548584e+003,5.594110e-003
1.550512e+003,5.746179e-003
1.552441e+003,5.824786e-003
1.554369e+003,5.626735e-003
1.556298e+003,5.431323e-003
1.558226e+003,4.413037e-003
1.560155e+003,5.096646e-003
1.562083e+003,6.820676e-003
1.564012e+003,7.478964e-003
1.565940e+003,7.800807e-003
1.567869e+003,7.826244e-003
1.569797e+003,7.813727e-003
1.571726e+003,8.404772e-003
1.573654e+003,8.451089e-003
1.575583e+003,7.740595e-003
1.577511e+003,7.815279e-003
1.579440e+003,8.352245e-003
1.581368e+003,8.347685e-003
1.583297e+003,8.180994e-003
1.585225e+003,7.957802e-003
1.587154e+003,7.765522e-003
1.589082e+003,7.410842e-003
1.591010e+003,6.827745e-003
1.592939e+003,6.220354e-003
1.594868e+003,5.798627e-003
1.596796e+003,5.464372e-003
1.598724e+003,5.072341e-003
1.600653e+003,4.584818e-003
1.602582e+003,3.995735e-003
1.604510e+003,3.434201e-003
1.606438e+003,2.941340e-003
1.608367e+003,2.519684e-003
1.610296e+003,2.215949e-003
1.612224e+003,1.896985e-003
1.614152e+003,1.320342e-003
1.616081e+003,3.453277e-004
1.618010e+003,3.966299e-004
1.619938e+003,6.902664e-004
1.621866e+003,2.606775e-004
1.623795e+003,-1.043597e-004
1.625724e+003,-3.220509e-005
1.627652e+003,-9.607809e-005
1.629580e+003,-3.449116e-005
1.631509e+003,-2.130990e-004
1.633438e+003,-9.201508e-004
1.635366e+003,-1.949763e-003
1.637294e+003,-1.723060e-003
1.639223e+003,-1.415893e-003
1.641151e+003,-1.603837e-003
1.643080e+003,-1.939076e-003
1.645008e+003,-2.853650e-003
1.646937e+003,-3.700536e-003
1.648865e+003,-3.579522e-003
1.650794e+003,-4.212641e-003
1.652722e+003,-5.983911e-003
1.654651e+003,-5.591370e-003
1.656579e+003,-4.683729e-003
1.658508e+003,-4.668978e-003
1.660436e+003,-5.146120e-003
1.662365e+003,-5.802299e-003
1.664293e+003,-5.853626e-003
1.666222e+003,-5.891938e-003
1.668150e+003,-6.422949e-003
1.670079e+003,-6.796278e-003
1.672007e+003,-6.653544e-003
1.673936e+003,-6.795364e-003
1.675864e+003,-6.775140e-003
1.677793e+003,-6.264972e-003
1.679721e+003,-6.184850e-003
1.681650e+003,-6.510208e-003
1.683578e+003,-7.307126e-003
1.685507e+003,-6.792037e-003
1.687435e+003,-5.881935e-003
1.689364e+003,-5.518715e-003
1.691292e+003,-5.146578e-003
1.693221e+003,-5.272689e-003
1.695149e+003,-5.963027e-003
1.697078e+003,-5.862322e-003
1.699006e+003,-6.271667e-003
1.700935e+003,-6.386970e-003
1.702863e+003,-5.315732e-003
1.704792e+003,-5.230623e-003
1.706720e+003,-5.070148e-003
1.708649e+003,-4.869806e-003
1.710577e+003,-4.852965e-003
1.712506e+003,-5.033958e-003
1.714434e+003,-5.439143e-003
1.716363e+003,-6.000284e-003
1.718291e+003,-6.010708e-003
1.720220e+003,-5.251346e-003
1.722148e+003,-4.904732e-003
1.724077e+003,-4.910235e-003
1.726005e+003,-4.923766e-003
1.727934e+003,-5.059864e-003
1.729862e+003,-5.228266e-003
1.731791e+003,-5.591959e-003
1.733719e+003,-6.345862e-003
1.735648e+003,-5.804490e-003
1.737576e+003,-5.257434e-003
1.739505e+003,-5.472779e-003
1.741433e+003,-5.253964e-003
1.743362e+003,-5.073881e-003
1.745290e+003,-4.932578e-003
1.747219e+003,-5.044537e-003
1.749147e+003,-5.132924e-003
1.751076e+003,-5.115078e-003
1.753004e+003,-4.669338e-003
1.754933e+003,-4.545479e-003
1.756861e+003,-4.644032e-003
1.758790e+003,-4.477207e-003
1.760718e+003,-4.619445e-003
1.762647e+003,-4.498031e-003
1.764575e+003,-4.109888e-003
1.766504e+003,-4.279905e-003
1.768432e+003,-4.473927e-003
1.770361e+003,-4.586824e-003
1.772289e+003,-4.865972e-003
1.774218e+003,-4.446182e-003
1.776146e+003,-3.967089e-003
1.778075e+003,-3.830844e-003
1.780003e+003,-3.930610e-003
1.781932e+003,-4.014004e-003
1.783860e+003,-3.986000e-003
1.785789e+003,-3.790051e-003
1.787717e+003,-3.779573e-003
1.789646e+003,-4.113531e-003
1.791574e+003,-4.379338e-003
1.793503e+003,-4.183304e-003
1.795431e+003,-3.874622e-003
1.797360e+003,-3.900827e-003
1.799288e+003,-4.156033e-003
1.801217e+003,-4.215758e-003
1.803145e+003,-3.883456e-003
1.805074e+003,-3.750930e-003
1.807002e+003,-3.728493e-003
1.808931e+003,-3.826805e-003
1.810859e+003,-3.852914e-003
1.812788e+003,-3.815670e-003
1.814716e+003,-3.839154e-003
1.816645e+003,-3.905753e-003
1.818573e+003,-3.911926e-003
1.820502e+003,-3.898693e-003
1.822430e+003,-3.871995e-003
1.824359e+003,-4.128333e-003
1.826287e+003,-4.100533e-003
1.828216e+003,-4.134175e-003
1.830144e+003,-4.290601e-003
1.832073e+003,-4.119209e-003
1.834001e+003,-4.045191e-003
1.835930e+003,-4.059011e-003
1.837858e+003,-3.948965e-003
1.839787e+003,-3.799741e-003
1.841715e+003,-4.006847e-003
1.843644e+003,-4.548889e-003
1.845572e+003,-4.405218e-003
1.847501e+003,-4.079165e-003
1.849429e+003,-4.066725e-003
1.851358e+003,-3.975987e-003
1.853286e+003,-3.869171e-003
1.855215e+003,-3.867036e-003
1.857143e+003,-3.901188e-003
1.859072e+003,-3.927326e-003
1.861000e+003,-3.951263e-003
1.862929e+003,-3.956057e-003
1.864857e+003,-3.892256e-003
1.866786e+003,-4.073913e-003
1.868714e+003,-4.302247e-003
1.870643e+003,-4.117141e-003
1.872571e+003,-3.912583e-003
1.874500e+003,-3.809561e-003
1.876428e+003,-3.686377e-003
1.878357e+003,-3.580442e-003
1.880285e+003,-3.553593e-003
1.882214e+003,-3.539987e-003
1.884142e+003,-3.617016e-003
1.886071e+003,-3.689202e-003
1.887999e+003,-3.771000e-003
1.889928e+003,-3.773529e-003
1.891856e+003,-3.584649e-003
1.893785e+003,-3.519643e-003
1.895713e+003,-3.479084e-003
1.897642e+003,-3.428988e-003
1.899570e+003,-3.405154e-003
1.901499e+003,-3.358271e-003
1.903427e+003,-3.349263e-003
1.905356e+003,-3.354096e-003
1.907284e+003,-3.324504e-003
1.909213e+003,-3.352090e-003
1.911141e+003,-3.335453e-003
1.913070e+003,-3.326476e-003
1.914998e+003,-3.383390e-003
1.916927e+003,-3.613007e-003
1.918855e+003,-3.685687e-003
1.920784e+003,-3.522996e-003
1.922712e+003,-3.486743e-003
1.924641e+003,-3.456535e-003
1.926569e+003,-3.379576e-003
1.928498e+003,-3.265675e-003
1.930426e+003,-3.283268e-003
1.932355e+003,-3.371620e-003
1.934283e+003,-3.428298e-003
1.936212e+003,-3.498082e-003
1.938140e+003,-3.509389e-003
1.940069e+003,-3.522897e-003
1.941997e+003,-3.658943e-003
1.943926e+003,-3.560823e-003
1.945854e+003,-3.412551e-003
1.947783e+003,-3.471951e-003
1.949711e+003,-3.485757e-003
1.951640e+003,-3.539166e-003
1.953568e+003,-3.575579e-003
1.955497e+003,-3.543898e-003
1.957425e+003,-3.599436e-003
1.959354e+003,-3.607618e-003
1.961282e+003,-3.503473e-003
1.963211e+003,-3.527005e-003
1.965139e+003,-3.573476e-003
1.967068e+003,-3.617016e-003
1.968996e+003,-3.518920e-003
1.970925e+003,-3.487038e-003
1.972853e+003,-3.501665e-003
1.974782e+003,-3.484015e-003
1.976710e+003,-3.428495e-003
1.978639e+003,-3.380267e-003
1.980567e+003,-3.454431e-003
1.982496e+003,-3.466922e-003
1.984424e+003,-3.371357e-003
1.986353e+003,-3.289023e-003
1.988281e+003,-3.277185e-003
1.990210e+003,-3.252027e-003
1.992138e+003,-3.265379e-003
1.994067e+003,-3.229959e-003
1.995995e+003,-3.231670e-003
1.997924e+003,-3.154309e-003
1.999852e+003,-3.177301e-003
2.001781e+003,-3.186182e-003
2.003709e+003,-3.081113e-003
2.005638e+003,-3.024686e-003
2.007566e+003,-2.983324e-003
2.009495e+003,-2.918229e-003
2.011423e+003,-2.820567e-003
2.013352e+003,-2.813061e-003
2.015280e+003,-2.919874e-003
2.017208e+003,-3.050450e-003
2.019137e+003,-2.939687e-003
2.021066e+003,-2.851478e-003
2.022994e+003,-2.879160e-003
2.024922e+003,-2.887422e-003
2.026851e+003,-2.852992e-003
2.028780e+003,-2.871886e-003
2.030708e+003,-2.900127e-003
2.032636e+003,-2.965751e-003
2.034565e+003,-2.964468e-003
2.036494e+003,-2.902365e-003
2.038422e+003,-2.846277e-003
2.040350e+003,-2.822872e-003
2.042279e+003,-2.848252e-003
2.044208e+003,-2.822839e-003
2.046136e+003,-2.794692e-003
2.048064e+003,-2.807103e-003
2.049993e+003,-2.829258e-003
2.051921e+003,-2.862077e-003
2.053850e+003,-2.821654e-003
2.055778e+003,-2.799070e-003
2.057707e+003,-2.844861e-003
2.059635e+003,-2.823464e-003
2.061564e+003,-2.837652e-003
2.063492e+003,-2.900192e-003
2.065421e+003,-2.875177e-003
2.067349e+003,-2.704115e-003
2.069278e+003,-2.605813e-003
2.071206e+003,-2.567836e-003
2.073135e+003,-2.552091e-003
2.075063e+003,-2.585952e-003
2.076992e+003,-2.506335e-003
2.078920e+003,-2.516581e-003
2.080849e+003,-2.629394e-003
2.082777e+003,-2.536148e-003
2.084706e+003,-2.439686e-003
2.086634e+003,-2.397642e-003
2.088563e+003,-2.353946e-003
2.090491e+003,-2.287569e-003
2.092420e+003,-2.172952e-003
2.094348e+003,-2.194184e-003
2.096277e+003,-2.318979e-003
2.098205e+003,-2.344355e-003
2.100134e+003,-2.110208e-003
2.102062e+003,-1.915984e-003
2.103991e+003,-1.848188e-003
2.105919e+003,-1.839841e-003
2.107848e+003,-1.820737e-003
2.109776e+003,-1.773254e-003
2.111705e+003,-1.733488e-003
2.113633e+003,-1.692597e-003
2.115562e+003,-1.605851e-003
2.117490e+003,-1.631896e-003
2.119419e+003,-1.618362e-003
2.121347e+003,-1.511658e-003
2.123276e+003,-1.441685e-003
2.125204e+003,-1.470977e-003
2.127133e+003,-1.463712e-003
2.129061e+003,-1.364104e-003
2.130990e+003,-1.310130e-003
2.132918e+003,-1.388942e-003
2.134847e+003,-1.362618e-003
2.136775e+003,-1.345937e-003
2.138704e+003,-1.280662e-003
2.140632e+003,-1.220763e-003
2.142561e+003,-1.205696e-003
2.144489e+003,-1.145093e-003
2.146418e+003,-1.147406e-003
2.148346e+003,-1.224431e-003
2.150275e+003,-1.249904e-003
2.152203e+003,-1.255884e-003
2.154132e+003,-1.239926e-003
2.156060e+003,-1.206952e-003
2.157989e+003,-1.217624e-003
2.159917e+003,-1.343559e-003
2.161846e+003,-1.347754e-003
2.163774e+003,-1.205035e-003
2.165703e+003,-1.100510e-003
2.167631e+003,-1.072119e-003
2.169560e+003,-1.133625e-003
2.171488e+003,-1.230213e-003
2.173417e+003,-1.267646e-003
2.175345e+003,-1.283999e-003
2.177274e+003,-1.274815e-003
2.179202e+003,-1.294703e-003
2.181131e+003,-1.275839e-003
2.183059e+003,-1.205068e-003
2.184988e+003,-1.186168e-003
2.186916e+003,-1.286245e-003
2.188845e+003,-1.432339e-003
2.190773e+003,-1.329686e-003
2.192702e+003,-1.180749e-003
2.194630e+003,-1.122058e-003
2.196559e+003,-1.135211e-003
2.198487e+003,-1.211677e-003
2.200416e+003,-1.270553e-003
2.202344e+003,-1.256446e-003
2.204273e+003,-1.188415e-003
2.206201e+003,-1.164193e-003
2.208130e+003,-1.198063e-003
2.210058e+003,-1.230312e-003
2.211987e+003,-1.210751e-003
2.213915e+003,-1.190529e-003
2.215844e+003,-1.228990e-003
2.217772e+003,-1.229651e-003
2.219701e+003,-1.108740e-003
2.221629e+003,-1.096081e-003
2.223558e+003,-1.091983e-003
2.225486e+003,-1.081374e-003
2.227415e+003,-1.125991e-003
2.229343e+003,-1.133890e-003
2.231272e+003,-1.204606e-003
2.233200e+003,-1.313698e-003
2.235129e+003,-1.375830e-003
2.237057e+003,-1.354261e-003
2.238986e+003,-1.255785e-003
2.240914e+003,-1.251953e-003
2.242843e+003,-1.298667e-003
2.244771e+003,-1.272965e-003
2.246700e+003,-1.226512e-003
2.248628e+003,-1.218021e-003
2.250557e+003,-1.283536e-003
2.252485e+003,-1.333782e-003
2.254414e+003,-1.301937e-003
2.256342e+003,-1.297015e-003
2.258271e+003,-1.393335e-003
2.260199e+003,-1.396671e-003
2.262128e+003,-1.384517e-003
2.264056e+003,-1.456117e-003
2.265985e+003,-1.519748e-003
2.267913e+003,-1.473718e-003
2.269842e+003,-1.424843e-003
2.271770e+003,-1.506111e-003
2.273699e+003,-1.581124e-003
2.275627e+003,-1.585812e-003
2.277556e+003,-1.590632e-003
2.279484e+003,-1.603771e-003
2.281413e+003,-1.606412e-003
2.283341e+003,-1.656785e-003
2.285270e+003,-1.756985e-003
2.287198e+003,-1.735238e-003
2.289127e+003,-1.748240e-003
2.291055e+003,-1.707845e-003
2.292984e+003,-1.671638e-003
2.294912e+003,-1.671869e-003
2.296841e+003,-1.650414e-003
2.298769e+003,-1.671539e-003
2.300698e+003,-1.792063e-003
2.302626e+003,-1.828260e-003
2.304555e+003,-1.676919e-003
2.306483e+003,-1.662726e-003
2.308412e+003,-1.689923e-003
2.310340e+003,-1.641898e-003
2.312269e+003,-1.660713e-003
2.314197e+003,-1.754774e-003
2.316125e+003,-1.656752e-003
2.318054e+003,-1.593768e-003
2.319983e+003,-1.599611e-003
2.321911e+003,-1.563495e-003
2.323840e+003,-1.540053e-003
2.325768e+003,-1.552500e-003
2.327697e+003,-1.514828e-003
2.329625e+003,-1.453078e-003
2.331553e+003,-1.476987e-003
2.333482e+003,-1.493629e-003
2.335411e+003,-1.368497e-003
2.337339e+003,-1.281653e-003
2.339268e+003,-1.374740e-003
2.341196e+003,-1.438647e-003
2.343125e+003,-1.347919e-003
2.345053e+003,-1.213692e-003
2.346981e+003,-1.070367e-003
2.348910e+003,-1.008786e-003
2.350839e+003,-1.086067e-003
2.352767e+003,-1.167167e-003
2.354696e+003,-1.220829e-003
2.356624e+003,-1.216269e-003
2.358552e+003,-1.250929e-003
2.360481e+003,-1.254232e-003
2.362409e+003,-1.246600e-003
2.364338e+003,-1.156692e-003
2.366267e+003,-1.112044e-003
2.368195e+003,-1.081869e-003
2.370124e+003,-1.029248e-003
2.372052e+003,-1.025182e-003
2.373980e+003,-9.342027e-004
2.375909e+003,-8.380123e-004
2.377838e+003,-6.825547e-004
2.379766e+003,-6.049374e-004
2.381695e+003,-4.718374e-004
2.383623e+003,-3.818013e-004
2.385552e+003,-4.740219e-004
2.387480e+003,-4.633311e-004
2.389408e+003,-4.205986e-004
2.391337e+003,-3.798481e-004
2.393266e+003,-3.385642e-004
2.395194e+003,-3.149242e-004
2.397123e+003,-2.180666e-004
2.399051e+003,-1.656386e-004
2.400979e+003,-1.849811e-004
2.402908e+003,-1.997523e-004
2.404836e+003,-1.621277e-004
2.406765e+003,-1.356627e-004
2.408694e+003,-9.978826e-005
2.410622e+003,2.220037e-005
2.412551e+003,1.385025e-005
2.414479e+003,-6.765444e-005
2.416407e+003,-1.308775e-005
2.418336e+003,7.227135e-005
2.420264e+003,1.453171e-004
2.422193e+003,2.089604e-004
2.424122e+003,2.491069e-004
2.426050e+003,2.416143e-004
2.427979e+003,2.854773e-004
2.429907e+003,3.354460e-004
2.431835e+003,3.814409e-004
2.433764e+003,3.319643e-004
2.435692e+003,3.775939e-004
2.437621e+003,4.414703e-004
2.439550e+003,5.622508e-004
2.441478e+003,6.583088e-004
2.443406e+003,6.039895e-004
2.445335e+003,6.217744e-004
2.447263e+003,7.296941e-004
2.449192e+003,7.652417e-004
2.451121e+003,7.726437e-004
2.453049e+003,7.449616e-004
2.454978e+003,7.083204e-004
2.456906e+003,7.235208e-004
2.458834e+003,8.496916e-004
2.460763e+003,9.822088e-004
2.462691e+003,9.965221e-004
2.464620e+003,9.845335e-004
2.466549e+003,1.022991e-003
2.468477e+003,1.090384e-003
2.470406e+003,1.110581e-003
2.472334e+003,1.083508e-003
2.474262e+003,1.132406e-003
2.476191e+003,1.213372e-003
2.478119e+003,1.165927e-003
2.480048e+003,1.119517e-003
2.481977e+003,1.182705e-003
2.483905e+003,1.266904e-003
2.485833e+003,1.331376e-003
2.487762e+003,1.374020e-003
2.489690e+003,1.396291e-003
2.491619e+003,1.336628e-003
2.493547e+003,1.212276e-003
2.495476e+003,1.201245e-003
2.497405e+003,1.295882e-003
2.499333e+003,1.446952e-003
2.501261e+003,1.469426e-003
2.503190e+003,1.444625e-003
2.505118e+003,1.382762e-003
2.507047e+003,1.399515e-003
2.508975e+003,1.484022e-003
2.510904e+003,1.555177e-003
2.512833e+003,1.539382e-003
2.514761e+003,1.571571e-003
2.516689e+003,1.648395e-003
2.518618e+003,1.620591e-003
2.520546e+003,1.551719e-003
2.522475e+003,1.541244e-003
2.524403e+003,1.610181e-003
2.526332e+003,1.706737e-003
2.528260e+003,1.680991e-003
2.530189e+003,1.661866e-003
2.532117e+003,1.676667e-003
2.534046e+003,1.708234e-003
2.535974e+003,1.734314e-003
2.537903e+003,1.710662e-003
2.539831e+003,1.689074e-003
2.541760e+003,1.723170e-003
2.543688e+003,1.755073e-003
2.545617e+003,1.805344e-003
2.547545e+003,1.875221e-003
2.549474e+003,2.014610e-003
2.551402e+003,2.117748e-003
2.553331e+003,2.054490e-003
2.555259e+003,1.981722e-003
2.557188e+003,1.987247e-003
2.559116e+003,2.016573e-003
2.561045e+003,2.140590e-003
2.562973e+003,2.118980e-003
2.564902e+003,2.011148e-003
2.566830e+003,1.988146e-003
2.568759e+003,2.029556e-003
2.570687e+003,2.126672e-003
2.572616e+003,2.111688e-003
2.574544e+003,2.073999e-003
2.576473e+003,2.067674e-003
2.578401e+003,2.133331e-003
2.580330e+003,2.158171e-003
2.582258e+003,2.174122e-003
2.584187e+003,2.201695e-003
2.586115e+003,2.298417e-003
2.588044e+003,2.357912e-003
2.589972e+003,2.241594e-003
2.591901e+003,2.260712e-003
2.593829e+003,2.276899e-003
2.595758e+003,2.210554e-003
2.597686e+003,2.332094e-003
2.599615e+003,2.475695e-003
2.601543e+003,2.462165e-003
2.603472e+003,2.395026e-003
2.605400e+003,2.346286e-003
2.607329e+003,2.323100e-003
2.609257e+003,2.303413e-003
2.611186e+003,2.325232e-003
2.613114e+003,2.400390e-003
2.615043e+003,2.424113e-003
2.616971e+003,2.465231e-003
2.618900e+003,2.534981e-003
2.620828e+003,2.540814e-003
2.622757e+003,2.509153e-003
2.624685e+003,2.469130e-003
2.626614e+003,2.475595e-003
2.628542e+003,2.506053e-003
2.630471e+003,2.536981e-003
2.632399e+003,2.607342e-003
2.634328e+003,2.763205e-003
2.636256e+003,2.747332e-003
2.638185e+003,2.621809e-003
2.640113e+003,2.632276e-003
2.642042e+003,2.732061e-003
2.643970e+003,2.888035e-003
2.645899e+003,2.971597e-003
2.647827e+003,2.923293e-003
2.649756e+003,2.898342e-003
2.651684e+003,2.927929e-003
2.653613e+003,2.964992e-003
2.655541e+003,2.989646e-003
2.657470e+003,3.020542e-003
2.659398e+003,3.059080e-003
2.661327e+003,3.010532e-003
2.663255e+003,3.092850e-003
2.665184e+003,3.222916e-003
2.667112e+003,3.259336e-003
2.669041e+003,3.216306e-003
2.670969e+003,3.171880e-003
2.672898e+003,3.234633e-003
2.674826e+003,3.279667e-003
2.676755e+003,3.357862e-003
2.678683e+003,3.446358e-003
2.680612e+003,3.378265e-003
2.682540e+003,3.346476e-003
2.684469e+003,3.468301e-003
2.686397e+003,3.617690e-003
2.688326e+003,3.625709e-003
2.690254e+003,3.628716e-003
2.692183e+003,3.634496e-003
2.694111e+003,3.665437e-003
2.696040e+003,3.697651e-003
2.697968e+003,3.741931e-003
2.699897e+003,3.825557e-003
2.701825e+003,3.873227e-003
2.703754e+003,3.897866e-003
2.705682e+003,3.907763e-003
2.707611e+003,3.880649e-003
2.709539e+003,3.800889e-003
2.711468e+003,3.879011e-003
2.713396e+003,4.016803e-003
2.715325e+003,4.015164e-003
2.717253e+003,3.940228e-003
2.719182e+003,3.841837e-003
2.721110e+003,3.907562e-003
2.723039e+003,4.100516e-003
2.724967e+003,4.254540e-003
2.726896e+003,4.334116e-003
2.728824e+003,4.264678e-003
2.730753e+003,4.306340e-003
2.732681e+003,4.487854e-003
2.734610e+003,4.494248e-003
2.736538e+003,4.494282e-003
2.738467e+003,4.451029e-003
2.740395e+003,4.406476e-003
2.742324e+003,4.548253e-003
2.744252e+003,4.755461e-003
2.746181e+003,4.800887e-003
2.748109e+003,4.872622e-003
2.750038e+003,4.909650e-003
2.751966e+003,4.997859e-003
2.753895e+003,5.034462e-003
2.755823e+003,5.160919e-003
2.757752e+003,5.346078e-003
2.759680e+003,5.393748e-003
2.761609e+003,5.429008e-003
2.763537e+003,5.611530e-003
2.765466e+003,5.833014e-003
2.767394e+003,6.012009e-003
2.769323e+003,6.256892e-003
2.771251e+003,6.480186e-003
2.773180e+003,6.630614e-003
2.775108e+003,6.875408e-003
2.777037e+003,7.150824e-003
2.778965e+003,7.534150e-003
2.780894e+003,7.961143e-003
2.782822e+003,8.445143e-003
2.784750e+003,8.901712e-003
2.786679e+003,9.244073e-003
2.788608e+003,9.591583e-003
2.790536e+003,9.929912e-003
2.792465e+003,1.025538e-002
2.794393e+003,1.055165e-002
2.796322e+003,1.093252e-002
2.798250e+003,1.135042e-002
2.800178e+003,1.164046e-002
2.802107e+003,1.192423e-002
2.804036e+003,1.209158e-002
2.805964e+003,1.211598e-002
2.807893e+003,1.221360e-002
2.809821e+003,1.239740e-002
2.811750e+003,1.238451e-002
2.813678e+003,1.232431e-002
2.815606e+003,1.230045e-002
2.817535e+003,1.224867e-002
2.819464e+003,1.208014e-002
2.821392e+003,1.187250e-002
2.823321e+003,1.168406e-002
2.825249e+003,1.135981e-002
2.827177e+003,1.109378e-002
2.829106e+003,1.079299e-002
2.831034e+003,1.048192e-002
2.832963e+003,1.022372e-002
2.834892e+003,9.867676e-003
2.836820e+003,9.415914e-003
2.838749e+003,9.066549e-003
2.840677e+003,8.641915e-003
2.842605e+003,8.112863e-003
2.844534e+003,7.626636e-003
2.846462e+003,7.139506e-003
2.848391e+003,6.657531e-003
2.850320e+003,6.339323e-003
2.852248e+003,6.157302e-003
2.854177e+003,6.099637e-003
2.856105e+003,6.059181e-003
2.858033e+003,6.112070e-003
2.859962e+003,6.109852e-003
2.861890e+003,6.085356e-003
2.863819e+003,6.046816e-003
2.865748e+003,6.075242e-003
2.867676e+003,6.133308e-003
2.869604e+003,6.181399e-003
2.871533e+003,6.172628e-003
2.873461e+003,6.215749e-003
2.875390e+003,6.367263e-003
2.877319e+003,6.440737e-003
2.879247e+003,6.547993e-003
2.881176e+003,6.582809e-003
2.883104e+003,6.582137e-003
2.885032e+003,6.549238e-003
2.886961e+003,6.515164e-003
2.888889e+003,6.539786e-003
2.890818e+003,6.546379e-003
2.892747e+003,6.433372e-003
2.894675e+003,6.294408e-003
2.896604e+003,6.098259e-003
2.898532e+003,5.985805e-003
2.900460e+003,5.994775e-003
2.902389e+003,5.935552e-003
2.904317e+003,5.788990e-003
2.906246e+003,5.748496e-003
2.908175e+003,5.686083e-003
2.910103e+003,5.487659e-003
2.912031e+003,5.201660e-003
2.913960e+003,4.939308e-003
2.915888e+003,4.762395e-003
2.917817e+003,4.734993e-003
2.919745e+003,4.864513e-003
2.921674e+003,4.884216e-003
2.923603e+003,4.996887e-003
2.925531e+003,4.992127e-003
2.927459e+003,4.992764e-003
2.929388e+003,5.125244e-003
2.931316e+003,5.299152e-003
2.933245e+003,5.464909e-003
2.935173e+003,5.592498e-003
2.937102e+003,5.683129e-003
2.939031e+003,5.681787e-003
2.940959e+003,5.630192e-003
2.942887e+003,5.530041e-003
2.944816e+003,5.421828e-003
2.946744e+003,5.365434e-003
2.948673e+003,5.138656e-003
2.950601e+003,4.834425e-003
2.952530e+003,4.554581e-003
2.954458e+003,4.243063e-003
2.956387e+003,3.881953e-003
2.958315e+003,3.456344e-003
2.960244e+003,3.142843e-003
2.962172e+003,2.902344e-003
2.964101e+003,2.620509e-003
2.966029e+003,2.270737e-003
2.967958e+003,2.081257e-003
2.969886e+003,1.968341e-003
2.971815e+003,1.693797e-003
2.973743e+003,1.563424e-003
2.975672e+003,1.374253e-003
2.977600e+003,1.221579e-003
2.979529e+003,1.108521e-003
2.981457e+003,1.016947e-003
2.983386e+003,8.054065e-004
2.985314e+003,5.339518e-004
2.987243e+003,4.235933e-004
2.989171e+003,4.921204e-004
2.991100e+003,3.837623e-004
2.993028e+003,2.232483e-004
2.994957e+003,1.925183e-004
2.996885e+003,2.120433e-004
2.998814e+003,1.840986e-004
3.000742e+003,1.121401e-004
3.002671e+003,4.231423e-005
3.004599e+003,1.905249e-005
3.006528e+003,8.652159e-005
3.008456e+003,1.514158e-004
3.010385e+003,-1.775948e-005
3.012313e+003,-1.659367e-004
3.014242e+003,-1.225124e-004
3.016170e+003,-1.026040e-004
3.018099e+003,-8.458296e-005
3.020027e+003,-4.824048e-005
3.021956e+003,-6.964217e-005
3.023884e+003,-1.593124e-004
3.025813e+003,-2.887334e-004
3.027741e+003,-2.765812e-004
3.029670e+003,-1.834907e-004
3.031598e+003,-2.317770e-004
3.033527e+003,-2.824421e-004
3.035455e+003,-3.699165e-004
3.037384e+003,-3.739885e-004
3.039312e+003,-3.008854e-004
3.041241e+003,-3.043289e-004
3.043169e+003,-4.762394e-004
3.045098e+003,-5.766794e-004
3.047026e+003,-5.611930e-004
3.048955e+003,-4.890811e-004
3.050883e+003,-4.867974e-004
3.052812e+003,-6.089741e-004
3.054740e+003,-7.059430e-004
3.056669e+003,-7.078617e-004
3.058597e+003,-6.421266e-004
3.060526e+003,-7.412051e-004
3.062454e+003,-8.125806e-004
3.064383e+003,-8.329856e-004
3.066311e+003,-8.792158e-004
3.068240e+003,-8.582508e-004
3.070168e+003,-8.457507e-004
3.072097e+003,-8.073552e-004
3.074025e+003,-7.985578e-004
3.075954e+003,-9.549657e-004
3.077882e+003,-1.076912e-003
3.079811e+003,-1.102857e-003
3.081739e+003,-9.647848e-004
3.083668e+003,-9.421047e-004
3.085596e+003,-1.096247e-003
3.087525e+003,-1.117960e-003
3.089453e+003,-1.044850e-003
3.091382e+003,-1.047494e-003
3.093310e+003,-1.097106e-003
3.095239e+003,-1.208108e-003
3.097167e+003,-1.255157e-003
3.099096e+003,-1.130056e-003
3.101024e+003,-1.229089e-003
3.102953e+003,-1.335532e-003
3.104881e+003,-1.359744e-003
3.106810e+003,-1.334971e-003
3.108738e+003,-1.315085e-003
3.110667e+003,-1.305835e-003
3.112595e+003,-1.334343e-003
3.114524e+003,-1.348481e-003
3.116452e+003,-1.292687e-003
3.118381e+003,-1.339298e-003
3.120309e+003,-1.332262e-003
3.122238e+003,-1.227801e-003
3.124166e+003,-1.239629e-003
3.126095e+003,-1.273791e-003
3.128023e+003,-1.260972e-003
3.129952e+003,-1.425074e-003
3.131880e+003,-1.569305e-003
3.133809e+003,-1.584525e-003
3.135737e+003,-1.496172e-003
3.137666e+003,-1.422960e-003
3.139594e+003,-1.455093e-003
3.141523e+003,-1.491681e-003
3.143451e+003,-1.375830e-003
3.145380e+003,-1.302796e-003
3.147308e+003,-1.370776e-003
3.149237e+003,-1.458296e-003
3.151165e+003,-1.408495e-003
3.153094e+003,-1.378670e-003
3.155022e+003,-1.462589e-003
3.156951e+003,-1.644671e-003
3.158879e+003,-1.676490e-003
3.160808e+003,-1.528200e-003
3.162736e+003,-1.525096e-003
3.164665e+003,-1.563957e-003
3.166593e+003,-1.481775e-003
3.168522e+003,-1.365459e-003
3.170450e+003,-1.367870e-003
3.172379e+003,-1.359976e-003
3.174307e+003,-1.400139e-003
3.176236e+003,-1.319115e-003
3.178164e+003,-1.319578e-003
3.180093e+003,-1.464967e-003
3.182021e+003,-1.554052e-003
3.183950e+003,-1.567985e-003
3.185878e+003,-1.512318e-003
3.187807e+003,-1.424083e-003
3.189735e+003,-1.499837e-003
3.191664e+003,-1.581818e-003
3.193592e+003,-1.567093e-003
3.195521e+003,-1.406117e-003
3.197449e+003,-1.212767e-003
3.199378e+003,-1.175230e-003
3.201306e+003,-1.324731e-003
3.203235e+003,-1.434618e-003
3.205163e+003,-1.516281e-003
3.207092e+003,-1.566895e-003
3.209020e+003,-1.445450e-003
3.210948e+003,-1.271313e-003
3.212877e+003,-1.326944e-003
3.214806e+003,-1.334839e-003
3.216734e+003,-1.207546e-003
3.218663e+003,-1.174007e-003
3.220591e+003,-1.213064e-003
3.222520e+003,-1.240191e-003
3.224448e+003,-1.193239e-003
3.226376e+003,-1.229816e-003
3.228305e+003,-1.102989e-003
3.230234e+003,-8.138043e-004
3.232162e+003,-6.549304e-004
3.234091e+003,-7.152054e-004
3.236019e+003,-7.182487e-004
3.237948e+003,-7.779527e-004
3.239876e+003,-6.903620e-004
3.241804e+003,-5.763154e-004
3.243733e+003,-5.264127e-004
3.245662e+003,-4.679649e-004
3.247590e+003,-4.226178e-004
3.249519e+003,-3.487614e-004
3.251447e+003,-2.527723e-004
3.253375e+003,-2.017063e-004
3.255304e+003,-1.403994e-004
3.257232e+003,-3.773803e-005
3.259161e+003,1.593777e-005
3.261090e+003,1.203595e-004
3.263018e+003,1.500568e-004
3.264947e+003,6.256157e-005
3.266875e+003,6.587547e-005
3.268803e+003,1.707401e-004
3.270732e+003,3.236413e-004
3.272660e+003,2.992703e-004
3.274589e+003,1.732262e-004
3.276518e+003,2.112477e-004
3.278446e+003,3.593216e-004
3.280375e+003,3.805123e-004
3.282303e+003,3.205244e-004
3.284231e+003,2.245080e-004
3.286160e+003,2.365752e-004
3.288088e+003,1.994464e-004
3.290017e+003,1.430301e-004
3.291946e+003,-4.323777e-005
3.293874e+003,-1.249967e-004
3.295802e+003,-1.086783e-005
3.297731e+003,-6.000160e-005
3.299659e+003,-1.927642e-004
3.301588e+003,-2.256505e-004
3.303516e+003,-3.961686e-004
3.305445e+003,-4.493632e-004
3.307374e+003,-5.353148e-004
3.309302e+003,-7.140807e-004
3.311230e+003,-9.105952e-004
3.313159e+003,-1.042371e-003
3.315087e+003,-1.009679e-003
3.317016e+003,-1.022273e-003
3.318944e+003,-1.115812e-003
3.320873e+003,-1.282612e-003
3.322802e+003,-1.348679e-003
3.324730e+003,-1.469689e-003
3.326658e+003,-1.535794e-003
3.328587e+003,-1.494521e-003
3.330515e+003,-1.510965e-003
3.332444e+003,-1.629354e-003
3.334372e+003,-1.746359e-003
3.336301e+003,-1.847496e-003
3.338229e+003,-1.826412e-003
3.340158e+003,-1.947487e-003
3.342086e+003,-2.085543e-003
3.344015e+003,-2.051281e-003
3.345943e+003,-2.038749e-003
3.347872e+003,-2.060119e-003
3.349800e+003,-2.042212e-003
3.351729e+003,-2.063483e-003
3.353657e+003,-2.234665e-003
3.355586e+003,-2.424332e-003
3.357514e+003,-2.436951e-003
3.359443e+003,-2.341291e-003
3.361371e+003,-2.424793e-003
3.363300e+003,-2.542769e-003
3.365229e+003,-2.555122e-003
3.367157e+003,-2.608151e-003
3.369085e+003,-2.730754e-003
3.371014e+003,-2.916649e-003
3.372942e+003,-3.191313e-003
3.374871e+003,-3.329337e-003
3.376799e+003,-3.476718e-003
3.378728e+003,-3.502815e-003
3.380656e+003,-3.452229e-003
3.382585e+003,-3.366984e-003
3.384513e+003,-3.381121e-003
3.386442e+003,-3.400584e-003
3.388370e+003,-3.517178e-003
3.390299e+003,-3.704709e-003
3.392227e+003,-3.830023e-003
3.394156e+003,-3.773923e-003
3.396084e+003,-3.864113e-003
3.398013e+003,-3.890122e-003
3.399941e+003,-3.832486e-003
3.401870e+003,-3.892848e-003
3.403798e+003,-3.989644e-003
3.405727e+003,-4.059766e-003
3.407655e+003,-4.031502e-003
3.409584e+003,-3.915768e-003
3.411512e+003,-3.886937e-003
3.413441e+003,-3.851010e-003
3.415369e+003,-3.947750e-003
3.417298e+003,-4.015547e-003
3.419226e+003,-4.150585e-003
3.421155e+003,-4.296145e-003
3.423083e+003,-4.217695e-003
3.425012e+003,-4.222485e-003
3.426940e+003,-4.298934e-003
3.428869e+003,-4.242271e-003
3.430797e+003,-4.070336e-003
3.432726e+003,-4.068234e-003
3.434654e+003,-4.140903e-003
3.436583e+003,-4.184682e-003
3.438511e+003,-4.266125e-003
3.440440e+003,-4.369596e-003
3.442368e+003,-4.378584e-003
3.444297e+003,-4.487766e-003
3.446225e+003,-4.497244e-003
3.448154e+003,-4.376156e-003
3.450082e+003,-4.440640e-003
3.452011e+003,-4.426635e-003
3.453939e+003,-4.350439e-003
3.455868e+003,-4.389375e-003
3.457796e+003,-4.516985e-003
3.459725e+003,-4.557611e-003
3.461653e+003,-4.570005e-003
3.463582e+003,-4.493374e-003
3.465510e+003,-4.514886e-003
3.467439e+003,-4.637508e-003
3.469367e+003,-4.598299e-003
3.471296e+003,-4.582857e-003
3.473224e+003,-4.665733e-003
3.475153e+003,-4.735516e-003
3.477081e+003,-4.812169e-003
3.479010e+003,-4.860140e-003
3.480938e+003,-4.703428e-003
3.482867e+003,-4.544692e-003
3.484795e+003,-4.486750e-003
3.486724e+003,-4.495407e-003
3.488652e+003,-4.465434e-003
3.490581e+003,-4.451496e-003
3.492509e+003,-4.566004e-003
3.494438e+003,-4.647146e-003
3.496366e+003,-4.803616e-003
3.498295e+003,-4.756950e-003
3.500223e+003,-4.729256e-003
3.502152e+003,-4.777170e-003
3.504080e+003,-4.678615e-003
3.506009e+003,-4.549971e-003
3.507937e+003,-4.643671e-003
3.509866e+003,-4.666880e-003
3.511794e+003,-4.504622e-003
3.513723e+003,-4.455857e-003
3.515651e+003,-4.558267e-003
3.517580e+003,-4.518198e-003
3.519508e+003,-4.596856e-003
3.521437e+003,-4.784347e-003
3.523365e+003,-4.857420e-003
3.525294e+003,-4.809744e-003
3.527222e+003,-4.882650e-003
3.529151e+003,-4.826030e-003
3.531079e+003,-4.641049e-003
3.533008e+003,-4.594758e-003
3.534936e+003,-4.611610e-003
3.536865e+003,-4.555906e-003
3.538793e+003,-4.567447e-003
3.540722e+003,-4.652785e-003
3.542650e+003,-4.628460e-003
3.544579e+003,-4.683991e-003
3.546507e+003,-4.848869e-003
3.548436e+003,-4.794342e-003
3.550364e+003,-4.643737e-003
3.552293e+003,-4.593316e-003
3.554221e+003,-4.752722e-003
3.556150e+003,-4.905092e-003
3.558078e+003,-5.014962e-003
3.560007e+003,-4.890087e-003
3.561935e+003,-4.778448e-003
3.563864e+003,-4.910825e-003
3.565792e+003,-5.258809e-003
3.567721e+003,-5.149787e-003
3.569649e+003,-4.823572e-003
3.571578e+003,-4.810531e-003
3.573506e+003,-4.735254e-003
3.575435e+003,-4.479568e-003
3.577363e+003,-4.645933e-003
3.579292e+003,-4.890087e-003
3.581220e+003,-4.655768e-003
3.583149e+003,-4.567906e-003
3.585077e+003,-4.944765e-003
3.587006e+003,-5.242507e-003
3.588934e+003,-4.970742e-003
3.590863e+003,-4.721816e-003
3.592791e+003,-4.676189e-003
3.594720e+003,-4.698315e-003
3.596648e+003,-4.790803e-003
3.598577e+003,-4.743119e-003
3.600505e+003,-4.706050e-003
3.602434e+003,-4.635213e-003
3.604362e+003,-4.695037e-003
3.606291e+003,-5.045945e-003
3.608219e+003,-5.057801e-003
3.610148e+003,-4.804436e-003
3.612076e+003,-4.927894e-003
3.614005e+003,-4.917672e-003
3.615933e+003,-4.913872e-003
3.617862e+003,-5.011588e-003
3.619790e+003,-4.957901e-003
3.621719e+003,-4.718407e-003
3.623647e+003,-4.602955e-003
3.625576e+003,-4.838121e-003
3.627504e+003,-5.565103e-003
3.629433e+003,-5.614921e-003
3.631361e+003,-4.886908e-003
3.633290e+003,-4.729813e-003
3.635218e+003,-4.704313e-003
3.637146e+003,-4.633771e-003
3.639075e+003,-4.639869e-003
3.641004e+003,-4.690448e-003
3.642932e+003,-4.728502e-003
3.644861e+003,-4.978210e-003
3.646789e+003,-5.648151e-003
3.648718e+003,-6.038092e-003
3.650646e+003,-5.628265e-003
3.652574e+003,-5.074176e-003
3.654503e+003,-5.103191e-003
3.656432e+003,-5.044799e-003
3.658360e+003,-4.644294e-003
3.660289e+003,-4.643376e-003
3.662217e+003,-4.801060e-003
3.664146e+003,-4.783331e-003
3.666074e+003,-5.006019e-003
3.668002e+003,-5.524604e-003
3.669931e+003,-5.756165e-003
3.671860e+003,-5.468886e-003
3.673788e+003,-6.032668e-003
3.675717e+003,-6.035282e-003
3.677645e+003,-5.220802e-003
3.679573e+003,-5.041131e-003
3.681502e+003,-4.933528e-003
3.683430e+003,-4.940408e-003
3.685359e+003,-5.041131e-003
3.687288e+003,-5.432893e-003
3.689216e+003,-5.613286e-003
3.691145e+003,-5.375560e-003
3.693073e+003,-4.906369e-003
3.695001e+003,-4.693759e-003
3.696930e+003,-4.798537e-003
3.698858e+003,-4.884484e-003
3.700787e+003,-5.193596e-003
3.702716e+003,-5.181482e-003
3.704644e+003,-4.840317e-003
3.706573e+003,-4.821410e-003
3.708501e+003,-5.234061e-003
3.710429e+003,-5.818221e-003
3.712358e+003,-5.671601e-003
3.714286e+003,-4.920981e-003
3.716215e+003,-4.659898e-003
3.718144e+003,-4.691464e-003
3.720072e+003,-4.726732e-003
3.722000e+003,-4.812661e-003
3.723929e+003,-4.998224e-003
3.725857e+003,-5.069362e-003
3.727786e+003,-4.783626e-003
3.729714e+003,-4.653965e-003
3.731643e+003,-5.001467e-003
3.733572e+003,-5.182792e-003
3.735500e+003,-5.449516e-003
3.737428e+003,-5.087439e-003
3.739357e+003,-4.650424e-003
3.741285e+003,-4.793622e-003
3.743214e+003,-5.931553e-003
3.745142e+003,-5.603309e-003
3.747071e+003,-4.953871e-003
3.749000e+003,-5.399711e-003
3.750928e+003,-5.649819e-003
3.752856e+003,-5.124410e-003
3.754785e+003,-4.354441e-003
3.756713e+003,-4.339056e-003
3.758642e+003,-4.500294e-003
3.760570e+003,-4.291060e-003
3.762499e+003,-3.983636e-003
3.764427e+003,-4.130336e-003
3.766356e+003,-4.099778e-003
3.768284e+003,-4.275476e-003
3.770213e+003,-4.259497e-003
3.772141e+003,-3.875443e-003
3.774070e+003,-3.849630e-003
3.775998e+003,-4.031403e-003
3.777927e+003,-4.206636e-003
3.779855e+003,-4.059766e-003
3.781784e+003,-3.683288e-003
3.783712e+003,-3.907296e-003
3.785641e+003,-4.069975e-003
3.787569e+003,-3.881124e-003
3.789498e+003,-3.679576e-003
3.791426e+003,-3.440756e-003
3.793355e+003,-3.442597e-003
3.795283e+003,-3.787391e-003
3.797212e+003,-3.904899e-003
3.799140e+003,-4.075522e-003
3.801069e+003,-4.556168e-003
3.802997e+003,-4.283744e-003
3.804926e+003,-4.234626e-003
3.806854e+003,-4.417812e-003
3.808783e+003,-3.981502e-003
3.810711e+003,-3.665744e-003
3.812640e+003,-3.594376e-003
3.814568e+003,-4.206570e-003
3.816497e+003,-4.527182e-003
3.818425e+003,-4.489013e-003
3.820354e+003,-4.781857e-003
3.822282e+003,-4.313828e-003
3.824211e+003,-3.896361e-003
3.826139e+003,-3.845262e-003
3.828068e+003,-3.819251e-003
3.829996e+003,-3.986427e-003
3.831925e+003,-3.944598e-003
3.833853e+003,-3.915309e-003
3.835782e+003,-4.380716e-003
3.837710e+003,-4.755016e-003
3.839639e+003,-4.550627e-003
3.841567e+003,-4.221403e-003
3.843496e+003,-3.897544e-003
3.845424e+003,-3.646326e-003
3.847353e+003,-3.708454e-003
3.849281e+003,-3.938654e-003
3.851210e+003,-4.714048e-003
3.853138e+003,-5.681085e-003
3.855067e+003,-4.779235e-003
3.856995e+003,-3.973327e-003
3.858924e+003,-3.730924e-003
3.860852e+003,-3.889137e-003
3.862781e+003,-4.340401e-003
3.864709e+003,-4.617183e-003
3.866638e+003,-4.162400e-003
3.868566e+003,-4.082809e-003
3.870495e+003,-4.047193e-003
3.872423e+003,-4.091474e-003
3.874352e+003,-4.067677e-003
3.876280e+003,-3.687658e-003
3.878209e+003,-3.943875e-003
3.880137e+003,-4.073782e-003
3.882066e+003,-3.766139e-003
3.883994e+003,-3.865295e-003
3.885923e+003,-3.934550e-003
3.887851e+003,-3.599600e-003
3.889780e+003,-3.724453e-003
3.891708e+003,-3.700438e-003
3.893637e+003,-3.604595e-003
3.895565e+003,-3.647771e-003
3.897494e+003,-3.730103e-003
3.899422e+003,-4.030779e-003
3.901351e+003,-4.213363e-003
3.903279e+003,-4.115107e-003
3.905208e+003,-3.532297e-003
3.907136e+003,-3.217034e-003
3.909065e+003,-3.216771e-003
3.910993e+003,-3.297935e-003
3.912922e+003,-3.472872e-003
3.914850e+003,-3.543931e-003
3.916779e+003,-3.594211e-003
3.918707e+003,-3.453609e-003
3.920636e+003,-3.415148e-003
3.922564e+003,-3.581428e-003
3.924493e+003,-3.557997e-003
3.926421e+003,-3.192498e-003
3.928350e+003,-3.098550e-003
3.930278e+003,-3.321807e-003
3.932207e+003,-3.528484e-003
3.934135e+003,-3.408409e-003
3.936064e+003,-3.150526e-003
3.937992e+003,-3.061175e-003
3.939921e+003,-3.280999e-003
3.941849e+003,-3.532133e-003
3.943778e+003,-3.450224e-003
3.945706e+003,-3.227723e-003
3.947635e+003,-3.262024e-003
3.949563e+003,-3.341865e-003
3.951492e+003,-3.443025e-003
3.953420e+003,-3.274981e-003
3.955349e+003,-3.138684e-003
3.957277e+003,-3.367313e-003
3.959206e+003,-3.329863e-003
3.961134e+003,-3.001423e-003
3.963063e+003,-3.094733e-003
3.964991e+003,-3.178979e-003
3.966920e+003,-3.053049e-003
3.968848e+003,-3.106676e-003
3.970777e+003,-3.424024e-003
3.972705e+003,-3.467612e-003
3.974634e+003,-3.449237e-003
3.976562e+003,-3.296093e-003
3.978491e+003,-2.943077e-003
3.980419e+003,-2.863887e-003
3.982348e+003,-3.100721e-003
3.984276e+003,-3.227822e-003
3.986205e+003,-3.291161e-003
3.988133e+003,-3.085324e-003
3.990062e+003,-3.072888e-003
3.991990e+003,-3.265379e-003
3.993919e+003,-3.377275e-003
3.995847e+003,-3.231834e-003
3.997776e+003,-3.071473e-003
3.999704e+003,-3.087397e-003
4.001633e+003,0.000000e+000
