3.991989e+002,3.173946e-002
4.011274e+002,2.143996e-002
4.030559e+002,1.595293e-002
4.049844e+002,1.447614e-002
4.069129e+002,1.586780e-002
4.088414e+002,1.836202e-002
4.107699e+002,1.743442e-002
4.126984e+002,1.512542e-002
4.146269e+002,1.417036e-002
4.165554e+002,1.803357e-002
4.184839e+002,1.794965e-002
4.204124e+002,1.965494e-002
4.223409e+002,2.350269e-002
4.242694e+002,2.369696e-002
4.261979e+002,1.808794e-002
4.281264e+002,2.051414e-002
4.300549e+002,2.304114e-002
4.319834e+002,2.124993e-002
4.339119e+002,2.169558e-002
4.358404e+002,2.313171e-002
4.377689e+002,2.163630e-002
4.396974e+002,1.349807e-002
4.416259e+002,7.261018e-003
4.435544e+002,1.025602e-002
4.454829e+002,1.226387e-002
4.474114e+002,1.443058e-002
4.493399e+002,1.400686e-002
4.512684e+002,1.471734e-002
4.531969e+002,1.545634e-002
4.551254e+002,1.458259e-002
4.570539e+002,1.444404e-002
4.589824e+002,1.310579e-002
4.609109e+002,1.080257e-002
4.628394e+002,1.141971e-002
4.647679e+002,1.073209e-002
4.666964e+002,1.067249e-002
4.686249e+002,1.151496e-002
4.705533e+002,1.333636e-002
4.724819e+002,1.301445e-002
4.744103e+002,1.335310e-002
4.763389e+002,1.171412e-002
4.782673e+002,1.004031e-002
4.801959e+002,1.079180e-002
4.821243e+002,1.121786e-002
4.840529e+002,1.041177e-002
4.859813e+002,9.034070e-003
4.879099e+002,9.097575e-003
4.898383e+002,9.825274e-003
4.917668e+002,8.908273e-003
4.936953e+002,8.066650e-003
4.956238e+002,9.809515e-003
4.975523e+002,1.088319e-002
4.994808e+002,8.252782e-003
5.014093e+002,8.736025e-003
5.033378e+002,1.006689e-002
5.052663e+002,1.149026e-002
5.071948e+002,1.027227e-002
5.091233e+002,7.384553e-003
5.110518e+002,7.074940e-003
5.129803e+002,7.400292e-003
5.149088e+002,8.041232e-003
5.168373e+002,8.489978e-003
5.187658e+002,7.982269e-003
5.206943e+002,6.840367e-003
5.226228e+002,6.949271e-003
5.245513e+002,7.443570e-003
5.264798e+002,7.893891e-003
5.284083e+002,6.811185e-003
5.303368e+002,6.376140e-003
5.322653e+002,6.597140e-003
5.341938e+002,7.790687e-003
5.361223e+002,6.884700e-003
5.380508e+002,5.441355e-003
5.399792e+002,6.278641e-003
5.419078e+002,8.083764e-003
5.438363e+002,8.924508e-003
5.457648e+002,7.975790e-003
5.476932e+002,7.751018e-003
5.496218e+002,7.962257e-003
5.515503e+002,8.926604e-003
5.534788e+002,8.758000e-003
5.554072e+002,8.126265e-003
5.573358e+002,8.289896e-003
5.592643e+002,8.489200e-003
5.611927e+002,9.604692e-003
5.631212e+002,1.010616e-002
5.650497e+002,9.848593e-003
5.669783e+002,9.177130e-003
5.689067e+002,9.154389e-003
5.708352e+002,9.369900e-003
5.727637e+002,9.168128e-003
5.746923e+002,8.278785e-003
5.766207e+002,6.053402e-003
5.785492e+002,7.093261e-003
5.804777e+002,1.217104e-002
5.824063e+002,1.186018e-002
5.843347e+002,9.025173e-003
5.862632e+002,8.294557e-003
5.881917e+002,7.456277e-003
5.901202e+002,8.815716e-003
5.920487e+002,1.095352e-002
5.939772e+002,1.193850e-002
5.959057e+002,1.243238e-002
5.978342e+002,1.284452e-002
5.997627e+002,1.430598e-002
6.016912e+002,1.581697e-002
6.036197e+002,1.711787e-002
6.055482e+002,1.888627e-002
6.074767e+002,1.937093e-002
6.094052e+002,2.008855e-002
6.113337e+002,1.887229e-002
6.132622e+002,1.704529e-002
6.151907e+002,1.735724e-002
6.171192e+002,1.809405e-002
6.190477e+002,1.736455e-002
6.209762e+002,1.698751e-002
6.229047e+002,1.597393e-002
6.248332e+002,1.320190e-002
6.267617e+002,1.035007e-002
6.286902e+002,7.972550e-003
6.306187e+002,6.689765e-003
6.325472e+002,6.091034e-003
6.344756e+002,5.789158e-003
6.364042e+002,5.526987e-003
6.383326e+002,5.001412e-003
6.402612e+002,4.565597e-003
6.421896e+002,4.557929e-003
6.441182e+002,4.393523e-003
6.460466e+002,4.125838e-003
6.479752e+002,4.115970e-003
6.499036e+002,3.993561e-003
6.518322e+002,3.919231e-003
6.537606e+002,3.534772e-003
6.556891e+002,2.688384e-003
6.576177e+002,2.377068e-003
6.595461e+002,2.666047e-003
6.614746e+002,2.644944e-003
6.634031e+002,2.370239e-003
6.653317e+002,3.288180e-003
6.672601e+002,3.722146e-003
6.691886e+002,3.456377e-003
6.711171e+002,2.936669e-003
6.730457e+002,2.711322e-003
6.749741e+002,3.031485e-003
6.769026e+002,3.424449e-003
6.788311e+002,3.361702e-003
6.807596e+002,3.472042e-003
6.826881e+002,3.891347e-003
6.846166e+002,4.039878e-003
6.865451e+002,3.950593e-003
6.884736e+002,4.354363e-003
6.904021e+002,4.748728e-003
6.923306e+002,4.608158e-003
6.942591e+002,4.457390e-003
6.961876e+002,4.049444e-003
6.981161e+002,3.432531e-003
7.000446e+002,3.519172e-003
7.019731e+002,4.039711e-003
7.039016e+002,4.661741e-003
7.058301e+002,4.971716e-003
7.077585e+002,4.627715e-003
7.096871e+002,4.655277e-003
7.116156e+002,5.492189e-003
7.135441e+002,6.104207e-003
7.154725e+002,5.901493e-003
7.174011e+002,5.440885e-003
7.193296e+002,5.676415e-003
7.212581e+002,6.357311e-003
7.231865e+002,6.423519e-003
7.251151e+002,6.436130e-003
7.270436e+002,6.254136e-003
7.289720e+002,6.265665e-003
7.309005e+002,6.850532e-003
7.328290e+002,7.157729e-003
7.347576e+002,7.572315e-003
7.366860e+002,8.104355e-003
7.386145e+002,8.066211e-003
7.405430e+002,8.258286e-003
7.424716e+002,8.259907e-003
7.444000e+002,7.875367e-003
7.463285e+002,8.187003e-003
7.482570e+002,8.161681e-003
7.501855e+002,8.308269e-003
7.521140e+002,8.475279e-003
7.540425e+002,8.470111e-003
7.559710e+002,8.547759e-003
7.578995e+002,8.743902e-003
7.598280e+002,9.035390e-003
7.617565e+002,9.173136e-003
7.636850e+002,9.304224e-003
7.656135e+002,9.832731e-003
7.675420e+002,9.578372e-003
7.694705e+002,9.397630e-003
7.713990e+002,9.370510e-003
7.733275e+002,9.094090e-003
7.752560e+002,8.797592e-003
7.771844e+002,8.420683e-003
7.791130e+002,8.175794e-003
7.810415e+002,8.185957e-003
7.829700e+002,8.357852e-003
7.848984e+002,8.326034e-003
7.868270e+002,8.127818e-003
7.887555e+002,7.885152e-003
7.906840e+002,7.596558e-003
7.926124e+002,7.144525e-003
7.945410e+002,6.839593e-003
7.964695e+002,6.515501e-003
7.983979e+002,6.102963e-003
8.003264e+002,5.968841e-003
8.022549e+002,6.007071e-003
8.041835e+002,6.124671e-003
8.061119e+002,6.680242e-003
8.080404e+002,7.534992e-003
8.099689e+002,7.581352e-003
8.118975e+002,7.100401e-003
8.138259e+002,7.759248e-003
8.157545e+002,8.693768e-003
8.176830e+002,8.402677e-003
8.196115e+002,7.902157e-003
8.215399e+002,7.846284e-003
8.234684e+002,7.863356e-003
8.253970e+002,7.472390e-003
8.273254e+002,6.941123e-003
8.292539e+002,6.847537e-003
8.311824e+002,6.829630e-003
8.331110e+002,6.913416e-003
8.350394e+002,6.962974e-003
8.369679e+002,7.305596e-003
8.388964e+002,7.124719e-003
8.408250e+002,6.557984e-003
8.427534e+002,6.514795e-003
8.446819e+002,6.775946e-003
8.466104e+002,6.717559e-003
8.485389e+002,6.590816e-003
8.504674e+002,6.454626e-003
8.523959e+002,6.328296e-003
8.543244e+002,6.358017e-003
8.562529e+002,6.413128e-003
8.581814e+002,6.245900e-003
8.601099e+002,6.356135e-003
8.620384e+002,6.527946e-003
8.639669e+002,6.332364e-003
8.658954e+002,6.415213e-003
8.678239e+002,6.584155e-003
8.697524e+002,6.301602e-003
8.716809e+002,6.093286e-003
8.736094e+002,6.085288e-003
8.755378e+002,6.368508e-003
8.774664e+002,6.381823e-003
8.793949e+002,6.172796e-003
8.813234e+002,6.115228e-003
8.832518e+002,6.219312e-003
8.851804e+002,6.117211e-003
8.871089e+002,6.150749e-003
8.890374e+002,6.259749e-003
8.909658e+002,6.126385e-003
8.928943e+002,6.496531e-003
8.948229e+002,6.780826e-003
8.967513e+002,6.689731e-003
8.986798e+002,6.520042e-003
9.006083e+002,6.526129e-003
9.025369e+002,6.668701e-003
9.044653e+002,6.689226e-003
9.063938e+002,6.427689e-003
9.083223e+002,6.426142e-003
9.102509e+002,6.226472e-003
9.121793e+002,5.834122e-003
9.141078e+002,5.541451e-003
9.160364e+002,5.388950e-003
9.179648e+002,5.274500e-003
9.198933e+002,5.026115e-003
9.218218e+002,4.824239e-003
9.237504e+002,4.848765e-003
9.256788e+002,4.636188e-003
9.276073e+002,4.144637e-003
9.295358e+002,4.277829e-003
9.314644e+002,4.276825e-003
9.333928e+002,4.010349e-003
9.353213e+002,3.808777e-003
9.372498e+002,3.936416e-003
9.391783e+002,3.713290e-003
9.411068e+002,3.633460e-003
9.430353e+002,4.005333e-003
9.449637e+002,3.978079e-003
9.468923e+002,3.836221e-003
9.488208e+002,4.029812e-003
9.507493e+002,4.198163e-003
9.526777e+002,4.327657e-003
9.546063e+002,4.433924e-003
9.565348e+002,4.574169e-003
9.584633e+002,4.749666e-003
9.603917e+002,4.896547e-003
9.623203e+002,4.670248e-003
9.642488e+002,4.611707e-003
9.661772e+002,4.860425e-003
9.681057e+002,4.926372e-003
9.700343e+002,4.755662e-003
9.719628e+002,4.533052e-003
9.738912e+002,4.113963e-003
9.758197e+002,3.825156e-003
9.777483e+002,3.906793e-003
9.796768e+002,4.179963e-003
9.816052e+002,4.180131e-003
9.835337e+002,3.751623e-003
9.854623e+002,3.486471e-003
9.873907e+002,3.340065e-003
9.893192e+002,2.982507e-003
9.912477e+002,2.754635e-003
9.931763e+002,2.868522e-003
9.951047e+002,2.895173e-003
9.970332e+002,2.867622e-003
9.989617e+002,2.673781e-003
1.000890e+003,2.517151e-003
1.002819e+003,2.550745e-003
1.004747e+003,2.549146e-003
1.006676e+003,2.745832e-003
1.008604e+003,2.998254e-003
1.010533e+003,2.921658e-003
1.012461e+003,2.872325e-003
1.014390e+003,3.014402e-003
1.016318e+003,3.241543e-003
1.018247e+003,3.723984e-003
1.020175e+003,3.697617e-003
1.022104e+003,3.654010e-003
1.024032e+003,4.198130e-003
1.025961e+003,4.683143e-003
1.027889e+003,4.699823e-003
1.029818e+003,4.841997e-003
1.031746e+003,5.271482e-003
1.033675e+003,5.735334e-003
1.035603e+003,6.198843e-003
1.037532e+003,6.435524e-003
1.039460e+003,6.500265e-003
1.041389e+003,6.741283e-003
1.043317e+003,6.961291e-003
1.045246e+003,7.055710e-003
1.047174e+003,7.306169e-003
1.049103e+003,7.438581e-003
1.051031e+003,7.463525e-003
1.052960e+003,7.653783e-003
1.054888e+003,7.763532e-003
1.056817e+003,7.840818e-003
1.058745e+003,7.696040e-003
1.060674e+003,7.523564e-003
1.062602e+003,7.689328e-003
1.064531e+003,7.808060e-003
1.066459e+003,7.673612e-003
1.068388e+003,7.494807e-003
1.070316e+003,7.599290e-003
1.072245e+003,7.868315e-003
1.074173e+003,7.912382e-003
1.076102e+003,7.803101e-003
1.078030e+003,7.567865e-003
1.079959e+003,7.558997e-003
1.081887e+003,7.764746e-003
1.083816e+003,7.759889e-003
1.085744e+003,7.974811e-003
1.087673e+003,8.172316e-003
1.089601e+003,8.166272e-003
1.091530e+003,8.324987e-003
1.093458e+003,8.683356e-003
1.095387e+003,8.787347e-003
1.097315e+003,8.963033e-003
1.099244e+003,9.038875e-003
1.101172e+003,9.203662e-003
1.103101e+003,9.449268e-003
1.105029e+003,9.347759e-003
1.106958e+003,9.195878e-003
1.108886e+003,9.241399e-003
1.110815e+003,9.458885e-003
1.112743e+003,9.573326e-003
1.114672e+003,9.469891e-003
1.116600e+003,9.417167e-003
1.118529e+003,9.398205e-003
1.120457e+003,9.266278e-003
1.122386e+003,9.262385e-003
1.124314e+003,9.283100e-003
1.126243e+003,9.156995e-003
1.128171e+003,9.145997e-003
1.130100e+003,9.139736e-003
1.132028e+003,8.882097e-003
1.133957e+003,8.723989e-003
1.135885e+003,8.513731e-003
1.137814e+003,8.153982e-003
1.139742e+003,7.761238e-003
1.141671e+003,7.457255e-003
1.143599e+003,7.288613e-003
1.145528e+003,7.012101e-003
1.147456e+003,6.458359e-003
1.149385e+003,6.177501e-003
1.151313e+003,6.028404e-003
1.153242e+003,5.699982e-003
1.155170e+003,5.332795e-003
1.157099e+003,5.175840e-003
1.159027e+003,4.951909e-003
1.160956e+003,4.864781e-003
1.162884e+003,4.865686e-003
1.164813e+003,4.765778e-003
1.166741e+003,4.718413e-003
1.168670e+003,4.828226e-003
1.170598e+003,4.848698e-003
1.172526e+003,4.758006e-003
1.174455e+003,4.688502e-003
1.176384e+003,4.700392e-003
1.178312e+003,4.763836e-003
1.180240e+003,4.824574e-003
1.182169e+003,4.636389e-003
1.184098e+003,4.504258e-003
1.186026e+003,4.469910e-003
1.187954e+003,4.310221e-003
1.189883e+003,3.887770e-003
1.191812e+003,3.558189e-003
1.193740e+003,3.624840e-003
1.195668e+003,3.692705e-003
1.197597e+003,3.542722e-003
1.199526e+003,3.302069e-003
1.201454e+003,3.040328e-003
1.203382e+003,2.984208e-003
1.205311e+003,2.996719e-003
1.207240e+003,2.827133e-003
1.209168e+003,2.785680e-003
1.211096e+003,2.918956e-003
1.213025e+003,3.026614e-003
1.214953e+003,2.992416e-003
1.216882e+003,2.935935e-003
1.218810e+003,2.840640e-003
1.220739e+003,2.847544e-003
1.222667e+003,3.041262e-003
1.224596e+003,3.202420e-003
1.226524e+003,3.183128e-003
1.228453e+003,3.183762e-003
1.230381e+003,3.514929e-003
1.232310e+003,3.820376e-003
1.234238e+003,4.014529e-003
1.236167e+003,4.194550e-003
1.238095e+003,4.194215e-003
1.240024e+003,4.247714e-003
1.241952e+003,4.500709e-003
1.243881e+003,4.543799e-003
1.245809e+003,4.571558e-003
1.247738e+003,4.558900e-003
1.249666e+003,4.405806e-003
1.251595e+003,4.446008e-003
1.253523e+003,4.578924e-003
1.255452e+003,4.619410e-003
1.257380e+003,4.686258e-003
1.259309e+003,4.774890e-003
1.261237e+003,4.957238e-003
1.263166e+003,5.230499e-003
1.265094e+003,5.368822e-003
1.267023e+003,5.543935e-003
1.268951e+003,5.800340e-003
1.270880e+003,6.046480e-003
1.272808e+003,6.349410e-003
1.274737e+003,6.612582e-003
1.276665e+003,6.913214e-003
1.278594e+003,7.171843e-003
1.280522e+003,7.341450e-003
1.282451e+003,7.534285e-003
1.284379e+003,7.733208e-003
1.286308e+003,8.154253e-003
1.288236e+003,8.369032e-003
1.290165e+003,8.518496e-003
1.292093e+003,8.780112e-003
1.294022e+003,8.846487e-003
1.295950e+003,9.037690e-003
1.297879e+003,9.293019e-003
1.299807e+003,9.309166e-003
1.301736e+003,9.120313e-003
1.303664e+003,9.103530e-003
1.305593e+003,9.086579e-003
1.307521e+003,8.951566e-003
1.309450e+003,8.816865e-003
1.311378e+003,8.505824e-003
1.313307e+003,8.241706e-003
1.315235e+003,8.133963e-003
1.317164e+003,7.884511e-003
1.319092e+003,7.553266e-003
1.321021e+003,7.195558e-003
1.322949e+003,6.998968e-003
1.324878e+003,6.876755e-003
1.326806e+003,6.872547e-003
1.328735e+003,7.022843e-003
1.330663e+003,7.017455e-003
1.332592e+003,6.888066e-003
1.334520e+003,6.831683e-003
1.336449e+003,6.868205e-003
1.338377e+003,6.886484e-003
1.340306e+003,6.964523e-003
1.342234e+003,7.110775e-003
1.344163e+003,7.234436e-003
1.346091e+003,7.300710e-003
1.348020e+003,7.377408e-003
1.349948e+003,7.499628e-003
1.351877e+003,7.455806e-003
1.353805e+003,7.377476e-003
1.355734e+003,7.279348e-003
1.357662e+003,7.100604e-003
1.359591e+003,6.852350e-003
1.361519e+003,6.631456e-003
1.363448e+003,6.415045e-003
1.365376e+003,6.208422e-003
1.367305e+003,6.039962e-003
1.369233e+003,5.916507e-003
1.371162e+003,5.784087e-003
1.373090e+003,5.760583e-003
1.375019e+003,5.842753e-003
1.376947e+003,5.962324e-003
1.378876e+003,6.087204e-003
1.380804e+003,6.183013e-003
1.382733e+003,6.154513e-003
1.384661e+003,6.126956e-003
1.386590e+003,6.023197e-003
1.388518e+003,5.915566e-003
1.390447e+003,5.888663e-003
1.392375e+003,5.740606e-003
1.394304e+003,5.549808e-003
1.396232e+003,5.447126e-003
1.398161e+003,5.257731e-003
1.400089e+003,5.100267e-003
1.402018e+003,4.982877e-003
1.403946e+003,4.971616e-003
1.405875e+003,4.932639e-003
1.407803e+003,4.665726e-003
1.409732e+003,4.298843e-003
1.411660e+003,4.174209e-003
1.413589e+003,4.152365e-003
1.415517e+003,4.171500e-003
1.417446e+003,4.360957e-003
1.419374e+003,4.675373e-003
1.421303e+003,5.193344e-003
1.423231e+003,5.635764e-003
1.425160e+003,6.232824e-003
1.427088e+003,6.767566e-003
1.429017e+003,7.043317e-003
1.430945e+003,7.315941e-003
1.432874e+003,7.703696e-003
1.434802e+003,8.017437e-003
1.436731e+003,8.284391e-003
1.438659e+003,8.756208e-003
1.440588e+003,9.134119e-003
1.442516e+003,9.555881e-003
1.444445e+003,9.946694e-003
1.446373e+003,1.042029e-002
1.448302e+003,1.091794e-002
1.450230e+003,1.135651e-002
1.452159e+003,1.179705e-002
1.454087e+003,1.217830e-002
1.456016e+003,1.216600e-002
1.457944e+003,1.232386e-002
1.459873e+003,1.271595e-002
1.461801e+003,1.279566e-002
1.463730e+003,1.259737e-002
1.465658e+003,1.243108e-002
1.467587e+003,1.218563e-002
1.469515e+003,1.184744e-002
1.471444e+003,1.148982e-002
1.473372e+003,1.109871e-002
1.475301e+003,1.073202e-002
1.477229e+003,1.026681e-002
1.479158e+003,9.804533e-003
1.481086e+003,9.193272e-003
1.483015e+003,8.596288e-003
1.484943e+003,8.116239e-003
1.486872e+003,7.685517e-003
1.488800e+003,7.267521e-003
1.490729e+003,6.955399e-003
1.492657e+003,6.645384e-003
1.494586e+003,6.308897e-003
1.496514e+003,5.977911e-003
1.498443e+003,5.803026e-003
1.500371e+003,5.609314e-003
1.502300e+003,5.467359e-003
1.504228e+003,5.224564e-003
1.506157e+003,4.886059e-003
1.508085e+003,4.950702e-003
1.510014e+003,4.876878e-003
1.511942e+003,4.796197e-003
1.513871e+003,4.930729e-003
1.515799e+003,4.818209e-003
1.517728e+003,4.782529e-003
1.519656e+003,4.724509e-003
1.521585e+003,4.637326e-003
1.523513e+003,4.875805e-003
1.525442e+003,5.187744e-003
1.527370e+003,5.394620e-003
1.529299e+003,5.530478e-003
1.531227e+003,5.717910e-003
1.533156e+003,5.900552e-003
1.535084e+003,6.194440e-003
1.537013e+003,6.368306e-003
1.538941e+003,6.443965e-003
1.540870e+003,6.638521e-003
1.542798e+003,6.905740e-003
1.544727e+003,7.238310e-003
1.546655e+003,7.497066e-003
1.548584e+003,7.600706e-003
1.550512e+003,7.825198e-003
1.552441e+003,7.941605e-003
1.554369e+003,7.971065e-003
1.556298e+003,8.095005e-003
1.558226e+003,8.136934e-003
1.560155e+003,8.573678e-003
1.562083e+003,9.139297e-003
1.564012e+003,9.415304e-003
1.565940e+003,9.726185e-003
1.567869e+003,9.950321e-003
1.569797e+003,1.000918e-002
1.571726e+003,1.012207e-002
1.573654e+003,1.005567e-002
1.575583e+003,9.934964e-003
1.577511e+003,9.884556e-003
1.579440e+003,9.793044e-003
1.581368e+003,9.786503e-003
1.583297e+003,9.707718e-003
1.585225e+003,9.544839e-003
1.587154e+003,9.501013e-003
1.589082e+003,9.270881e-003
1.591010e+003,8.959955e-003
1.592939e+003,8.780213e-003
1.594868e+003,8.689609e-003
1.596796e+003,8.561817e-003
1.598724e+003,8.387003e-003
1.600653e+003,8.059223e-003
1.602582e+003,7.827526e-003
1.604510e+003,7.658842e-003
1.606438e+003,7.398372e-003
1.608367e+003,7.079015e-003
1.610296e+003,6.929239e-003
1.612224e+003,6.727923e-003
1.614152e+003,6.432498e-003
1.616081e+003,6.086733e-003
1.618010e+003,6.020711e-003
1.619938e+003,5.897060e-003
1.621866e+003,5.691085e-003
1.623795e+003,5.568468e-003
1.625724e+003,5.612637e-003
1.627652e+003,5.587397e-003
1.629580e+003,5.461855e-003
1.631509e+003,5.279129e-003
1.633438e+003,5.102077e-003
1.635366e+003,4.811139e-003
1.637294e+003,4.645163e-003
1.639223e+003,4.561278e-003
1.641151e+003,4.384820e-003
1.643080e+003,4.037872e-003
1.645008e+003,3.611142e-003
1.646937e+003,3.326309e-003
1.648865e+003,3.242344e-003
1.650794e+003,2.933734e-003
1.652722e+003,2.552345e-003
1.654651e+003,2.641777e-003
1.656579e+003,2.820463e-003
1.658508e+003,2.586243e-003
1.660436e+003,2.445771e-003
1.662365e+003,2.397558e-003
1.664293e+003,2.342255e-003
1.666222e+003,2.307111e-003
1.668150e+003,2.078594e-003
1.670079e+003,1.844441e-003
1.672007e+003,1.846703e-003
1.673936e+003,1.664560e-003
1.675864e+003,1.505001e-003
1.677793e+003,1.381399e-003
1.679721e+003,1.153302e-003
1.681650e+003,7.777887e-004
1.683578e+003,3.578293e-004
1.685507e+003,2.748675e-004
1.687435e+003,1.852919e-004
1.689364e+003,-3.174125e-005
1.691292e+003,-1.576232e-004
1.693221e+003,-3.011171e-004
1.695149e+003,-4.895445e-004
1.697078e+003,-4.831237e-004
1.699006e+003,-6.239294e-004
1.700935e+003,-5.786317e-004
1.702863e+003,-3.345249e-004
1.704792e+003,-3.245260e-004
1.706720e+003,-2.615807e-004
1.708649e+003,-2.084294e-004
1.710577e+003,-2.374068e-004
1.712506e+003,-3.336972e-004
1.714434e+003,-4.374471e-004
1.716363e+003,-5.522582e-004
1.718291e+003,-4.922253e-004
1.720220e+003,-4.053052e-004
1.722148e+003,-5.264457e-004
1.724077e+003,-5.573212e-004
1.726005e+003,-4.677001e-004
1.727934e+003,-5.492138e-004
1.729862e+003,-6.650209e-004
1.731791e+003,-7.561559e-004
1.733719e+003,-9.605861e-004
1.735648e+003,-8.987579e-004
1.737576e+003,-7.932330e-004
1.739505e+003,-8.525299e-004
1.741433e+003,-7.972349e-004
1.743362e+003,-8.418154e-004
1.745290e+003,-8.169130e-004
1.747219e+003,-7.260223e-004
1.749147e+003,-6.481150e-004
1.751076e+003,-7.208951e-004
1.753004e+003,-6.252198e-004
1.754933e+003,-5.242946e-004
1.756861e+003,-4.888495e-004
1.758790e+003,-5.106928e-004
1.760718e+003,-6.215472e-004
1.762647e+003,-6.026874e-004
1.764575e+003,-5.200917e-004
1.766504e+003,-5.115533e-004
1.768432e+003,-4.354280e-004
1.770361e+003,-4.992748e-004
1.772289e+003,-6.496038e-004
1.774218e+003,-6.893696e-004
1.776146e+003,-6.293556e-004
1.778075e+003,-6.451705e-004
1.780003e+003,-5.951764e-004
1.781932e+003,-5.580162e-004
1.783860e+003,-6.061285e-004
1.785789e+003,-6.160548e-004
1.787717e+003,-6.454682e-004
1.789646e+003,-6.351787e-004
1.791574e+003,-6.632013e-004
1.793503e+003,-7.197704e-004
1.795431e+003,-7.283378e-004
1.797360e+003,-7.029989e-004
1.799288e+003,-6.170474e-004
1.801217e+003,-6.258485e-004
1.803145e+003,-5.583140e-004
1.805074e+003,-4.510513e-004
1.807002e+003,-4.394332e-004
1.808931e+003,-5.383925e-004
1.810859e+003,-4.811047e-004
1.812788e+003,-3.553166e-004
1.814716e+003,-3.113484e-004
1.816645e+003,-3.172088e-004
1.818573e+003,-3.579651e-004
1.820502e+003,-3.946790e-004
1.822430e+003,-4.521436e-004
1.824359e+003,-5.362415e-004
1.826287e+003,-5.502065e-004
1.828216e+003,-6.017940e-004
1.830144e+003,-5.872681e-004
1.832073e+003,-4.748162e-004
1.834001e+003,-4.733599e-004
1.835930e+003,-5.629137e-004
1.837858e+003,-5.824039e-004
1.839787e+003,-5.861761e-004
1.841715e+003,-6.253191e-004
1.843644e+003,-6.532430e-004
1.845572e+003,-6.357742e-004
1.847501e+003,-6.891049e-004
1.849429e+003,-6.897665e-004
1.851358e+003,-6.159555e-004
1.853286e+003,-6.228707e-004
1.855215e+003,-6.391820e-004
1.857143e+003,-6.111579e-004
1.859072e+003,-5.811134e-004
1.861000e+003,-5.349508e-004
1.862929e+003,-4.968257e-004
1.864857e+003,-4.775964e-004
1.866786e+003,-5.824701e-004
1.868714e+003,-7.105081e-004
1.870643e+003,-6.233008e-004
1.872571e+003,-4.723670e-004
1.874500e+003,-3.475033e-004
1.876428e+003,-3.327702e-004
1.878357e+003,-4.214261e-004
1.880285e+003,-4.727972e-004
1.882214e+003,-5.129763e-004
1.884142e+003,-5.439852e-004
1.886071e+003,-5.255853e-004
1.887999e+003,-5.042723e-004
1.889928e+003,-4.651184e-004
1.891856e+003,-4.165601e-004
1.893785e+003,-3.767363e-004
1.895713e+003,-3.373722e-004
1.897642e+003,-2.712499e-004
1.899570e+003,-3.129045e-004
1.901499e+003,-3.566078e-004
1.903427e+003,-3.753458e-004
1.905356e+003,-5.173117e-004
1.907284e+003,-5.075487e-004
1.909213e+003,-4.086155e-004
1.911141e+003,-3.859063e-004
1.913070e+003,-3.951424e-004
1.914998e+003,-4.716057e-004
1.916927e+003,-5.491476e-004
1.918855e+003,-5.555343e-004
1.920784e+003,-5.394846e-004
1.922712e+003,-5.853489e-004
1.924641e+003,-5.849849e-004
1.926569e+003,-5.891873e-004
1.928498e+003,-5.831650e-004
1.930426e+003,-4.947737e-004
1.932355e+003,-4.722677e-004
1.934283e+003,-5.330314e-004
1.936212e+003,-5.230040e-004
1.938140e+003,-4.689578e-004
1.940069e+003,-4.546260e-004
1.941997e+003,-4.357590e-004
1.943926e+003,-3.935534e-004
1.945854e+003,-4.096417e-004
1.947783e+003,-5.126454e-004
1.949711e+003,-5.135390e-004
1.951640e+003,-4.269541e-004
1.953568e+003,-4.434052e-004
1.955497e+003,-4.879227e-004
1.957425e+003,-5.013929e-004
1.959354e+003,-5.522252e-004
1.961282e+003,-4.798801e-004
1.963211e+003,-4.361231e-004
1.965139e+003,-4.483371e-004
1.967068e+003,-4.889157e-004
1.968996e+003,-5.013268e-004
1.970925e+003,-4.586642e-004
1.972853e+003,-4.314228e-004
1.974782e+003,-4.609811e-004
1.976710e+003,-5.576853e-004
1.978639e+003,-6.144666e-004
1.980567e+003,-5.541114e-004
1.982496e+003,-5.498756e-004
1.984424e+003,-5.995771e-004
1.986353e+003,-6.044411e-004
1.988281e+003,-5.869703e-004
1.990210e+003,-5.378961e-004
1.992138e+003,-5.282659e-004
1.994067e+003,-5.313105e-004
1.995995e+003,-5.235666e-004
1.997924e+003,-4.705135e-004
1.999852e+003,-4.039811e-004
2.001781e+003,-4.939463e-004
2.003709e+003,-5.679766e-004
2.005638e+003,-4.901071e-004
2.007566e+003,-5.342559e-004
2.009495e+003,-6.407371e-004
2.011423e+003,-6.785518e-004
2.013352e+003,-5.020549e-004
2.015280e+003,-3.978238e-004
2.017208e+003,-4.952702e-004
2.019137e+003,-5.980220e-004
2.021066e+003,-5.607959e-004
2.022994e+003,-4.286754e-004
2.024922e+003,-3.758093e-004
2.026851e+003,-3.662417e-004
2.028780e+003,-3.441925e-004
2.030708e+003,-3.559787e-004
2.032636e+003,-3.257180e-004
2.034565e+003,-3.358824e-004
2.036494e+003,-4.528056e-004
2.038422e+003,-4.135147e-004
2.040350e+003,-3.491255e-004
2.042279e+003,-3.127390e-004
2.044208e+003,-3.529329e-004
2.046136e+003,-3.714725e-004
2.048064e+003,-2.741639e-004
2.049993e+003,-3.008854e-004
2.051921e+003,-4.211613e-004
2.053850e+003,-4.044445e-004
2.055778e+003,-2.983689e-004
2.057707e+003,-2.676737e-004
2.059635e+003,-1.752106e-004
2.061564e+003,-1.702425e-004
2.063492e+003,-2.723758e-004
2.065421e+003,-3.359817e-004
2.067349e+003,-3.051236e-004
2.069278e+003,-2.371087e-004
2.071206e+003,-2.479706e-004
2.073135e+003,-2.828394e-004
2.075063e+003,-2.449240e-004
2.076992e+003,-2.984020e-004
2.078920e+003,-2.419767e-004
2.080849e+003,-1.005833e-004
2.082777e+003,-3.203944e-005
2.084706e+003,-5.238176e-005
2.086634e+003,-1.573582e-004
2.088563e+003,-1.269180e-004
2.090491e+003,-4.002408e-005
2.092420e+003,3.767504e-005
2.094348e+003,3.058380e-005
2.096277e+003,1.663361e-005
2.098205e+003,3.108084e-005
2.100134e+003,-1.269015e-005
2.102062e+003,-8.747298e-006
2.103991e+003,6.875858e-005
2.105919e+003,1.699115e-004
2.107848e+003,1.818777e-004
2.109776e+003,7.634754e-005
2.111705e+003,5.725940e-005
2.113633e+003,1.219172e-004
2.115562e+003,1.416048e-004
2.117490e+003,1.998111e-004
2.119419e+003,1.959326e-004
2.121347e+003,1.355725e-004
2.123276e+003,9.285150e-005
2.125204e+003,1.096544e-004
2.127133e+003,1.498911e-004
2.129061e+003,1.596691e-004
2.130990e+003,2.438024e-004
2.132918e+003,3.947727e-004
2.134847e+003,3.586252e-004
2.136775e+003,2.839190e-004
2.138704e+003,3.065318e-004
2.140632e+003,3.264267e-004
2.142561e+003,2.687671e-004
2.144489e+003,2.265965e-004
2.146418e+003,2.829906e-004
2.148346e+003,3.590231e-004
2.150275e+003,4.268104e-004
2.152203e+003,3.862827e-004
2.154132e+003,3.153849e-004
2.156060e+003,4.001121e-004
2.157989e+003,3.718568e-004
2.159917e+003,3.433381e-004
2.161846e+003,4.110897e-004
2.163774e+003,4.495965e-004
2.165703e+003,4.201108e-004
2.167631e+003,4.486346e-004
2.169560e+003,5.334874e-004
2.171488e+003,5.411176e-004
2.173417e+003,5.693840e-004
2.175345e+003,5.806313e-004
2.177274e+003,5.001148e-004
2.179202e+003,5.168671e-004
2.181131e+003,4.895330e-004
2.183059e+003,4.741418e-004
2.184988e+003,4.758998e-004
2.186916e+003,4.387174e-004
2.188845e+003,4.741086e-004
2.190773e+003,5.475537e-004
2.192702e+003,5.655686e-004
2.194630e+003,4.348368e-004
2.196559e+003,3.785557e-004
2.198487e+003,3.361092e-004
2.200416e+003,2.766579e-004
2.202344e+003,3.049070e-004
2.204273e+003,3.980891e-004
2.206201e+003,4.420342e-004
2.208130e+003,3.854205e-004
2.210058e+003,2.987067e-004
2.211987e+003,3.083554e-004
2.213915e+003,3.879077e-004
2.215844e+003,3.346170e-004
2.217772e+003,3.370377e-004
2.219701e+003,4.014387e-004
2.221629e+003,3.581609e-004
2.223558e+003,3.815072e-004
2.225486e+003,3.998468e-004
2.227415e+003,4.172917e-004
2.229343e+003,4.434604e-004
2.231272e+003,4.982240e-004
2.233200e+003,4.142736e-004
2.235129e+003,4.385184e-004
2.237057e+003,4.981909e-004
2.238986e+003,4.321171e-004
2.240914e+003,3.426417e-004
2.242843e+003,3.419453e-004
2.244771e+003,3.842597e-004
2.246700e+003,3.105438e-004
2.248628e+003,2.327296e-004
2.250557e+003,2.665126e-004
2.252485e+003,2.774537e-004
2.254414e+003,2.408850e-004
2.256342e+003,2.830901e-004
2.258271e+003,2.910807e-004
2.260199e+003,1.719666e-004
2.262128e+003,8.741640e-005
2.264056e+003,2.198669e-004
2.265985e+003,2.968831e-004
2.267913e+003,1.686850e-004
2.269842e+003,1.017666e-004
2.271770e+003,1.423340e-004
2.273699e+003,1.286454e-004
2.275627e+003,1.885736e-004
2.277556e+003,1.805518e-004
2.279484e+003,7.714290e-005
2.281413e+003,1.019323e-004
2.283341e+003,7.594986e-005
2.285270e+003,-4.482804e-005
2.287198e+003,3.237316e-005
2.289127e+003,1.287448e-004
2.291055e+003,2.091924e-004
2.292984e+003,1.689502e-004
2.294912e+003,6.739987e-005
2.296841e+003,4.221482e-005
2.298769e+003,4.191658e-005
2.300698e+003,7.754057e-005
2.302626e+003,9.881695e-005
2.304555e+003,1.589399e-004
2.306483e+003,1.902642e-004
2.308412e+003,1.828058e-004
2.310340e+003,1.495265e-004
2.312269e+003,1.602326e-004
2.314197e+003,1.436267e-004
2.316125e+003,2.005072e-004
2.318054e+003,1.074007e-004
2.319983e+003,-5.758314e-005
2.321911e+003,-8.779633e-005
2.323840e+003,-1.510886e-005
2.325768e+003,7.425973e-005
2.327697e+003,9.285150e-005
2.329625e+003,4.562797e-005
2.331553e+003,-4.214445e-005
2.333482e+003,-4.078609e-005
2.335411e+003,5.653035e-005
2.337339e+003,2.541455e-005
2.339268e+003,-5.964086e-006
2.341196e+003,2.809858e-005
2.343125e+003,-7.206056e-005
2.345053e+003,-1.159676e-005
2.346981e+003,1.526422e-004
2.348910e+003,1.446210e-004
2.350839e+003,1.094555e-004
2.352767e+003,7.150914e-005
2.354696e+003,1.746199e-005
2.356624e+003,4.539387e-006
2.358552e+003,-1.288895e-005
2.360481e+003,-6.020038e-005
2.362409e+003,-5.844451e-005
2.364338e+003,4.814643e-005
2.366267e+003,1.859880e-004
2.368195e+003,1.572826e-004
2.370124e+003,1.176418e-004
2.372052e+003,1.958332e-004
2.373980e+003,3.027518e-004
2.375909e+003,1.965293e-004
2.377838e+003,1.979879e-004
2.379766e+003,3.780582e-004
2.381695e+003,4.891350e-004
2.383623e+003,6.487518e-004
2.385552e+003,7.954148e-004
2.387480e+003,7.973732e-004
2.389408e+003,7.974728e-004
2.391337e+003,8.123776e-004
2.393266e+003,8.226021e-004
2.395194e+003,8.656938e-004
2.397123e+003,8.156972e-004
2.399051e+003,6.484863e-004
2.400979e+003,6.121519e-004
2.402908e+003,6.691933e-004
2.404836e+003,7.171817e-004
2.406765e+003,7.856888e-004
2.408694e+003,7.477829e-004
2.410622e+003,6.875451e-004
2.412551e+003,7.193058e-004
2.414479e+003,6.871801e-004
2.416407e+003,7.041387e-004
2.418336e+003,6.998243e-004
2.420264e+003,6.910961e-004
2.422193e+003,7.740047e-004
2.424122e+003,8.420227e-004
2.426050e+003,9.253254e-004
2.427979e+003,9.726779e-004
2.429907e+003,9.630476e-004
2.431835e+003,1.025682e-003
2.433764e+003,1.084804e-003
2.435692e+003,1.137821e-003
2.437621e+003,1.144565e-003
2.439550e+003,1.257200e-003
2.441478e+003,1.307015e-003
2.443406e+003,1.195962e-003
2.445335e+003,1.166558e-003
2.447263e+003,1.178253e-003
2.449192e+003,1.156226e-003
2.451121e+003,1.217094e-003
2.453049e+003,1.295516e-003
2.454978e+003,1.363483e-003
2.456906e+003,1.341015e-003
2.458834e+003,1.270227e-003
2.460763e+003,1.374951e-003
2.462691e+003,1.476674e-003
2.464620e+003,1.471388e-003
2.466549e+003,1.520729e-003
2.468477e+003,1.498584e-003
2.470406e+003,1.476741e-003
2.472334e+003,1.437245e-003
2.474262e+003,1.442564e-003
2.476191e+003,1.468695e-003
2.478119e+003,1.490472e-003
2.480048e+003,1.485019e-003
2.481977e+003,1.483556e-003
2.483905e+003,1.518202e-003
2.485833e+003,1.514079e-003
2.487762e+003,1.552151e-003
2.489690e+003,1.586735e-003
2.491619e+003,1.557738e-003
2.493547e+003,1.708800e-003
2.495476e+003,1.715752e-003
2.497405e+003,1.620890e-003
2.499333e+003,1.710130e-003
2.501261e+003,1.877018e-003
2.503190e+003,1.880080e-003
2.505118e+003,1.795928e-003
2.507047e+003,1.747488e-003
2.508975e+003,1.790106e-003
2.510904e+003,1.880646e-003
2.512833e+003,1.926105e-003
2.514761e+003,1.928735e-003
2.516689e+003,1.917020e-003
2.518618e+003,1.886935e-003
2.520546e+003,1.912993e-003
2.522475e+003,1.898749e-003
2.524403e+003,1.907967e-003
2.526332e+003,1.956725e-003
2.528260e+003,1.962650e-003
2.530189e+003,2.036647e-003
2.532117e+003,2.105063e-003
2.534046e+003,2.056854e-003
2.535974e+003,2.058419e-003
2.537903e+003,2.041207e-003
2.539831e+003,1.982454e-003
2.541760e+003,1.969240e-003
2.543688e+003,1.920647e-003
2.545617e+003,1.890230e-003
2.547545e+003,2.021966e-003
2.549474e+003,2.083921e-003
2.551402e+003,2.042439e-003
2.553331e+003,1.997433e-003
2.555259e+003,2.005755e-003
2.557188e+003,2.084920e-003
2.559116e+003,2.074233e-003
2.561045e+003,2.107060e-003
2.562973e+003,2.166729e-003
2.564902e+003,2.104896e-003
2.566830e+003,2.047899e-003
2.568759e+003,2.067840e-003
2.570687e+003,2.098004e-003
2.572616e+003,2.208056e-003
2.574544e+003,2.307843e-003
2.576473e+003,2.255982e-003
2.578401e+003,2.137726e-003
2.580330e+003,2.135396e-003
2.582258e+003,2.314939e-003
2.584187e+003,2.349151e-003
2.586115e+003,2.255982e-003
2.588044e+003,2.315372e-003
2.589972e+003,2.378068e-003
2.591901e+003,2.329862e-003
2.593829e+003,2.320302e-003
2.595758e+003,2.364675e-003
2.597686e+003,2.396659e-003
2.599615e+003,2.486058e-003
2.601543e+003,2.528782e-003
2.603472e+003,2.413084e-003
2.605400e+003,2.328397e-003
2.607329e+003,2.280629e-003
2.609257e+003,2.351316e-003
2.611186e+003,2.384564e-003
2.613114e+003,2.348151e-003
2.615043e+003,2.364708e-003
2.616971e+003,2.570577e-003
2.618900e+003,2.654078e-003
2.620828e+003,2.548546e-003
2.622757e+003,2.615209e-003
2.624685e+003,2.756402e-003
2.626614e+003,2.678915e-003
2.628542e+003,2.530215e-003
2.630471e+003,2.549546e-003
2.632399e+003,2.654612e-003
2.634328e+003,2.579943e-003
2.636256e+003,2.534848e-003
2.638185e+003,2.612576e-003
2.640113e+003,2.774575e-003
2.642042e+003,2.879663e-003
2.643970e+003,2.879262e-003
2.645899e+003,2.915487e-003
2.647827e+003,2.954984e-003
2.649756e+003,3.013969e-003
2.651684e+003,3.005794e-003
2.653613e+003,3.037091e-003
2.655541e+003,3.110337e-003
2.657470e+003,3.171112e-003
2.659398e+003,3.158562e-003
2.661327e+003,3.149584e-003
2.663255e+003,3.178388e-003
2.665184e+003,3.214871e-003
2.667112e+003,3.214971e-003
2.669041e+003,3.264176e-003
2.670969e+003,3.234065e-003
2.672898e+003,3.249020e-003
2.674826e+003,3.342436e-003
2.676755e+003,3.452737e-003
2.678683e+003,3.430127e-003
2.680612e+003,3.404646e-003
2.682540e+003,3.439244e-003
2.684469e+003,3.442116e-003
2.686397e+003,3.544826e-003
2.688326e+003,3.667476e-003
2.690254e+003,3.695144e-003
2.692183e+003,3.713724e-003
2.694111e+003,3.795541e-003
2.696040e+003,3.867945e-003
2.697968e+003,3.881619e-003
2.699897e+003,3.920501e-003
2.701825e+003,3.878877e-003
2.703754e+003,3.892016e-003
2.705682e+003,4.028006e-003
2.707611e+003,4.141827e-003
2.709539e+003,4.224293e-003
2.711468e+003,4.271304e-003
2.713396e+003,4.306540e-003
2.715325e+003,4.338098e-003
2.717253e+003,4.432853e-003
2.719182e+003,4.476271e-003
2.721110e+003,4.511624e-003
2.723039e+003,4.602867e-003
2.724967e+003,4.655813e-003
2.726896e+003,4.689037e-003
2.728824e+003,4.747522e-003
2.730753e+003,4.841997e-003
2.732681e+003,5.001814e-003
2.734610e+003,5.094367e-003
2.736538e+003,5.150424e-003
2.738467e+003,5.172420e-003
2.740395e+003,5.308007e-003
2.742324e+003,5.366575e-003
2.744252e+003,5.311026e-003
2.746181e+003,5.376873e-003
2.748109e+003,5.602702e-003
2.750038e+003,5.729426e-003
2.751966e+003,5.715560e-003
2.753895e+003,5.723785e-003
2.755823e+003,5.780427e-003
2.757752e+003,5.952717e-003
2.759680e+003,6.166007e-003
2.761609e+003,6.316966e-003
2.763537e+003,6.498482e-003
2.765466e+003,6.772042e-003
2.767394e+003,7.157628e-003
2.769323e+003,7.465716e-003
2.771251e+003,7.740224e-003
2.773180e+003,8.207601e-003
2.775108e+003,8.670917e-003
2.777037e+003,9.068917e-003
2.778965e+003,9.488245e-003
2.780894e+003,1.004732e-002
2.782822e+003,1.074092e-002
2.784750e+003,1.140937e-002
2.786679e+003,1.210674e-002
2.788608e+003,1.280330e-002
2.790536e+003,1.356291e-002
2.792465e+003,1.429965e-002
2.794393e+003,1.496039e-002
2.796322e+003,1.557073e-002
2.798250e+003,1.628115e-002
2.800178e+003,1.700770e-002
2.802107e+003,1.763997e-002
2.804036e+003,1.822382e-002
2.805964e+003,1.869798e-002
2.807893e+003,1.901856e-002
2.809821e+003,1.903936e-002
2.811750e+003,1.913316e-002
2.813678e+003,1.926912e-002
2.815606e+003,1.916768e-002
2.817535e+003,1.904611e-002
2.819464e+003,1.893722e-002
2.821392e+003,1.865703e-002
2.823321e+003,1.819624e-002
2.825249e+003,1.762589e-002
2.827177e+003,1.713087e-002
2.829106e+003,1.678682e-002
2.831034e+003,1.624971e-002
2.832963e+003,1.559755e-002
2.834892e+003,1.502521e-002
2.836820e+003,1.446572e-002
2.838749e+003,1.391502e-002
2.840677e+003,1.334975e-002
2.842605e+003,1.265358e-002
2.844534e+003,1.185997e-002
2.846462e+003,1.108657e-002
2.848391e+003,1.038072e-002
2.850320e+003,9.955101e-003
2.852248e+003,9.698909e-003
2.854177e+003,9.511343e-003
2.856105e+003,9.366989e-003
2.858033e+003,9.247154e-003
2.859962e+003,9.339295e-003
2.861890e+003,9.391570e-003
2.863819e+003,9.405688e-003
2.865748e+003,9.447507e-003
2.867676e+003,9.499286e-003
2.869604e+003,9.623087e-003
2.871533e+003,9.674108e-003
2.873461e+003,9.729845e-003
2.875390e+003,9.857880e-003
2.877319e+003,1.006089e-002
2.879247e+003,1.021986e-002
2.881176e+003,1.017233e-002
2.883104e+003,1.010135e-002
2.885032e+003,1.011769e-002
2.886961e+003,1.015073e-002
2.888889e+003,1.017942e-002
2.890818e+003,1.009589e-002
2.892747e+003,9.934218e-003
2.894675e+003,9.852761e-003
2.896604e+003,9.753971e-003
2.898532e+003,9.544771e-003
2.900460e+003,9.436298e-003
2.902389e+003,9.338584e-003
2.904317e+003,9.184913e-003
2.906246e+003,9.118520e-003
2.908175e+003,9.128232e-003
2.910103e+003,9.080353e-003
2.912031e+003,8.882740e-003
2.913960e+003,8.558472e-003
2.915888e+003,8.269195e-003
2.917817e+003,8.346841e-003
2.919745e+003,8.527687e-003
2.921674e+003,8.732272e-003
2.923603e+003,8.921565e-003
2.925531e+003,9.241840e-003
2.927459e+003,9.592633e-003
2.929388e+003,9.893844e-003
2.931316e+003,1.024628e-002
2.933245e+003,1.045915e-002
2.935173e+003,1.069249e-002
2.937102e+003,1.094574e-002
2.939031e+003,1.102944e-002
2.940959e+003,1.108450e-002
2.942887e+003,1.102862e-002
2.944816e+003,1.087768e-002
2.946744e+003,1.066451e-002
2.948673e+003,1.046991e-002
2.950601e+003,1.016965e-002
2.952530e+003,9.671363e-003
2.954458e+003,9.222277e-003
2.956387e+003,8.755904e-003
2.958315e+003,8.118230e-003
2.960244e+003,7.508123e-003
2.962172e+003,7.038232e-003
2.964101e+003,6.623146e-003
2.966029e+003,6.095369e-003
2.967958e+003,5.606226e-003
2.969886e+003,5.166083e-003
2.971815e+003,4.636522e-003
2.973743e+003,4.219642e-003
2.975672e+003,3.923744e-003
2.977600e+003,3.654043e-003
2.979529e+003,3.550539e-003
2.981457e+003,3.320699e-003
2.983386e+003,3.011666e-003
2.985314e+003,2.652345e-003
2.987243e+003,2.396292e-003
2.989171e+003,2.363376e-003
2.991100e+003,2.314472e-003
2.993028e+003,2.104563e-003
2.994957e+003,2.021334e-003
2.996885e+003,1.969473e-003
2.998814e+003,1.887734e-003
3.000742e+003,1.709265e-003
3.002671e+003,1.562061e-003
3.004599e+003,1.530404e-003
3.006528e+003,1.506265e-003
3.008456e+003,1.391870e-003
3.010385e+003,1.379172e-003
3.012313e+003,1.442963e-003
3.014242e+003,1.347629e-003
3.016170e+003,1.275344e-003
3.018099e+003,1.336661e-003
3.020027e+003,1.414939e-003
3.021956e+003,1.285314e-003
3.023884e+003,1.097792e-003
3.025813e+003,1.135197e-003
3.027741e+003,1.070122e-003
3.029670e+003,1.032656e-003
3.031598e+003,1.059394e-003
3.033527e+003,9.850648e-004
3.035455e+003,1.000175e-003
3.037384e+003,1.003065e-003
3.039312e+003,9.384082e-004
3.041241e+003,8.904950e-004
3.043169e+003,8.245939e-004
3.045098e+003,8.285112e-004
3.047026e+003,9.301733e-004
3.048955e+003,8.667562e-004
3.050883e+003,6.353790e-004
3.052812e+003,5.998751e-004
3.054740e+003,6.708526e-004
3.056669e+003,7.019151e-004
3.058597e+003,6.575787e-004
3.060526e+003,4.470094e-004
3.062454e+003,3.894332e-004
3.064383e+003,4.148706e-004
3.066311e+003,3.214860e-004
3.068240e+003,2.870688e-004
3.070168e+003,2.411834e-004
3.072097e+003,2.158225e-004
3.074025e+003,2.142644e-004
3.075954e+003,2.296796e-004
3.077882e+003,2.343209e-004
3.079811e+003,1.025620e-004
3.081739e+003,2.256487e-005
3.083668e+003,2.942402e-005
3.085596e+003,2.448675e-005
3.087525e+003,5.566554e-006
3.089453e+003,-1.216002e-005
3.091382e+003,-8.869077e-005
3.093310e+003,-8.256218e-005
3.095239e+003,-4.194567e-005
3.097167e+003,-8.604058e-005
3.099096e+003,-2.688658e-004
3.101024e+003,-3.804109e-004
3.102953e+003,-3.699496e-004
3.104881e+003,-3.769349e-004
3.106810e+003,-3.524363e-004
3.108738e+003,-2.130327e-004
3.110667e+003,-2.722764e-004
3.112595e+003,-3.560449e-004
3.114524e+003,-3.746506e-004
3.116452e+003,-3.996114e-004
3.118381e+003,-4.248025e-004
3.120309e+003,-5.671494e-004
3.122238e+003,-6.520521e-004
3.124166e+003,-5.831650e-004
3.126095e+003,-5.470297e-004
3.128023e+003,-5.877313e-004
3.129952e+003,-5.183046e-004
3.131880e+003,-5.062911e-004
3.133809e+003,-4.978517e-004
3.135737e+003,-4.902726e-004
3.137666e+003,-4.236439e-004
3.139594e+003,-3.035342e-004
3.141523e+003,-3.069115e-004
3.143451e+003,-4.599550e-004
3.145380e+003,-5.460700e-004
3.147308e+003,-5.007641e-004
3.149237e+003,-5.944153e-004
3.151165e+003,-7.393859e-004
3.153094e+003,-7.783496e-004
3.155022e+003,-7.818886e-004
3.156951e+003,-7.400805e-004
3.158879e+003,-5.855474e-004
3.160808e+003,-4.904050e-004
3.162736e+003,-6.319363e-004
3.164665e+003,-7.230783e-004
3.166593e+003,-7.938283e-004
3.168522e+003,-7.308848e-004
3.170450e+003,-6.525152e-004
3.172379e+003,-6.144004e-004
3.174307e+003,-6.615471e-004
3.176236e+003,-5.949778e-004
3.178164e+003,-4.935161e-004
3.180093e+003,-4.920267e-004
3.182021e+003,-5.435219e-004
3.183950e+003,-4.986791e-004
3.185878e+003,-5.292918e-004
3.187807e+003,-5.246587e-004
3.189735e+003,-4.611466e-004
3.191664e+003,-5.562293e-004
3.193592e+003,-6.673367e-004
3.195521e+003,-6.552612e-004
3.197449e+003,-4.409227e-004
3.199378e+003,-3.436297e-004
3.201306e+003,-4.240081e-004
3.203235e+003,-5.043715e-004
3.205163e+003,-4.697853e-004
3.207092e+003,-5.031801e-004
3.209020e+003,-4.167587e-004
3.210948e+003,-3.143614e-004
3.212877e+003,-2.041240e-004
3.214806e+003,-1.627239e-004
3.216734e+003,-2.576401e-004
3.218663e+003,-3.680957e-004
3.220591e+003,-2.649252e-004
3.222520e+003,-4.343655e-005
3.224448e+003,-4.148184e-005
3.226376e+003,-4.290646e-005
3.228305e+003,-3.674410e-005
3.230234e+003,-1.252449e-005
3.232162e+003,7.724232e-005
3.234091e+003,9.129387e-005
3.236019e+003,1.117424e-004
3.237948e+003,9.424343e-005
3.239876e+003,2.318013e-004
3.241804e+003,2.975462e-004
3.243733e+003,2.121759e-004
3.245662e+003,2.813660e-004
3.247590e+003,2.609427e-004
3.249519e+003,3.785888e-004
3.251447e+003,4.570263e-004
3.253375e+003,4.271089e-004
3.255304e+003,4.213048e-004
3.257232e+003,6.505105e-004
3.259161e+003,7.860208e-004
3.261090e+003,6.882420e-004
3.263018e+003,6.797132e-004
3.264947e+003,6.761623e-004
3.266875e+003,6.606649e-004
3.268803e+003,7.011850e-004
3.270732e+003,8.275817e-004
3.272660e+003,1.023456e-003
3.274589e+003,1.082944e-003
3.276518e+003,1.027442e-003
3.278446e+003,1.029800e-003
3.280375e+003,1.011168e-003
3.282303e+003,1.026545e-003
3.284231e+003,8.526795e-004
3.286160e+003,8.423879e-004
3.288088e+003,9.660362e-004
3.290017e+003,9.276497e-004
3.291946e+003,7.877469e-004
3.293874e+003,6.759300e-004
3.295802e+003,6.419160e-004
3.297731e+003,6.385313e-004
3.299659e+003,6.165981e-004
3.301588e+003,5.955950e-004
3.303516e+003,5.159051e-004
3.305445e+003,4.225983e-004
3.307374e+003,2.942305e-004
3.309302e+003,1.601995e-004
3.311230e+003,1.472395e-004
3.313159e+003,3.260512e-005
3.315087e+003,-8.667000e-005
3.317016e+003,-1.497069e-004
3.318944e+003,-3.018787e-004
3.320873e+003,-3.419743e-004
3.322802e+003,-4.858707e-004
3.324730e+003,-6.594959e-004
3.326658e+003,-7.331342e-004
3.328587e+003,-7.154039e-004
3.330515e+003,-6.092388e-004
3.332444e+003,-6.346824e-004
3.334372e+003,-7.893633e-004
3.336301e+003,-8.786537e-004
3.338229e+003,-8.929384e-004
3.340158e+003,-8.935005e-004
3.342086e+003,-9.776121e-004
3.344015e+003,-9.314585e-004
3.345943e+003,-8.134405e-004
3.347872e+003,-9.104299e-004
3.349800e+003,-9.628342e-004
3.351729e+003,-9.404516e-004
3.353657e+003,-1.105930e-003
3.355586e+003,-1.220102e-003
3.357514e+003,-1.286278e-003
3.359443e+003,-1.275542e-003
3.361371e+003,-1.232955e-003
3.363300e+003,-1.427088e-003
3.365229e+003,-1.671968e-003
3.367157e+003,-1.789687e-003
3.369085e+003,-1.899556e-003
3.371014e+003,-1.948345e-003
3.372942e+003,-1.789786e-003
3.374871e+003,-1.851719e-003
3.376799e+003,-1.982022e-003
3.378728e+003,-2.109648e-003
3.380656e+003,-2.332063e-003
3.382585e+003,-2.380210e-003
3.384513e+003,-2.363173e-003
3.386442e+003,-2.485646e-003
3.388370e+003,-2.484032e-003
3.390299e+003,-2.555385e-003
3.392227e+003,-2.609930e-003
3.394156e+003,-2.511310e-003
3.396084e+003,-2.571328e-003
3.398013e+003,-2.632589e-003
3.399941e+003,-2.658309e-003
3.401870e+003,-2.633610e-003
3.403798e+003,-2.570768e-003
3.405727e+003,-2.726243e-003
3.407655e+003,-2.811679e-003
3.409584e+003,-2.692063e-003
3.411512e+003,-2.839759e-003
3.413441e+003,-2.962987e-003
3.415369e+003,-2.846869e-003
3.417298e+003,-2.742442e-003
3.419226e+003,-2.813885e-003
3.421155e+003,-2.913753e-003
3.423083e+003,-2.872051e-003
3.425012e+003,-2.897164e-003
3.426940e+003,-3.058083e-003
3.428869e+003,-3.027549e-003
3.430797e+003,-2.847890e-003
3.432726e+003,-2.879983e-003
3.434654e+003,-3.165723e-003
3.436583e+003,-3.397428e-003
3.438511e+003,-3.343114e-003
3.440440e+003,-3.147270e-003
3.442368e+003,-3.068183e-003
3.444297e+003,-3.079830e-003
3.446225e+003,-3.106116e-003
3.448154e+003,-3.099208e-003
3.450082e+003,-3.197629e-003
3.452011e+003,-3.338248e-003
3.453939e+003,-3.432637e-003
3.455868e+003,-3.556880e-003
3.457796e+003,-3.469683e-003
3.459725e+003,-3.278105e-003
3.461653e+003,-3.253803e-003
3.463582e+003,-3.332888e-003
3.465510e+003,-3.436910e-003
3.467439e+003,-3.408047e-003
3.469367e+003,-3.448580e-003
3.471296e+003,-3.443748e-003
3.473224e+003,-3.351235e-003
3.475153e+003,-3.382864e-003
3.477081e+003,-3.430862e-003
3.479010e+003,-3.303755e-003
3.480938e+003,-3.202365e-003
3.482867e+003,-3.307207e-003
3.484795e+003,-3.250251e-003
3.486724e+003,-3.335551e-003
3.488652e+003,-3.549091e-003
3.490581e+003,-3.652798e-003
3.492509e+003,-3.576302e-003
3.494438e+003,-3.274356e-003
3.496366e+003,-3.078350e-003
3.498295e+003,-3.270213e-003
3.500223e+003,-3.451670e-003
3.502152e+003,-3.622602e-003
3.504080e+003,-3.691140e-003
3.506009e+003,-3.498805e-003
3.507937e+003,-3.336012e-003
3.509866e+003,-3.411860e-003
3.511794e+003,-3.586555e-003
3.513723e+003,-3.723434e-003
3.515651e+003,-3.748729e-003
3.517580e+003,-3.517704e-003
3.519508e+003,-3.426128e-003
3.521437e+003,-3.522174e-003
3.523365e+003,-3.638046e-003
3.525294e+003,-3.696068e-003
3.527222e+003,-3.695806e-003
3.529151e+003,-3.594507e-003
3.531079e+003,-3.604431e-003
3.533008e+003,-3.803025e-003
3.534936e+003,-3.824637e-003
3.536865e+003,-3.757270e-003
3.538793e+003,-3.643927e-003
3.540722e+003,-3.485132e-003
3.542650e+003,-3.511328e-003
3.544579e+003,-3.494730e-003
3.546507e+003,-3.583236e-003
3.548436e+003,-3.762065e-003
3.550364e+003,-3.744623e-003
3.552293e+003,-3.603610e-003
3.554221e+003,-3.725931e-003
3.556150e+003,-3.859285e-003
3.558078e+003,-3.716864e-003
3.560007e+003,-3.688578e-003
3.561935e+003,-3.646687e-003
3.563864e+003,-3.777537e-003
3.565792e+003,-3.836296e-003
3.567721e+003,-3.744721e-003
3.569649e+003,-3.870418e-003
3.571578e+003,-3.939213e-003
3.573506e+003,-3.885557e-003
3.575435e+003,-3.829465e-003
3.577363e+003,-3.819776e-003
3.579292e+003,-3.815309e-003
3.581220e+003,-3.890056e-003
3.583149e+003,-3.962197e-003
3.585077e+003,-3.973524e-003
3.587006e+003,-4.131057e-003
3.588934e+003,-4.060225e-003
3.590863e+003,-3.968008e-003
3.592791e+003,-4.215463e-003
3.594720e+003,-4.371663e-003
3.596648e+003,-4.139295e-003
3.598577e+003,-3.863423e-003
3.600505e+003,-3.935371e-003
3.602434e+003,-4.078935e-003
3.604362e+003,-3.971127e-003
3.606291e+003,-4.026184e-003
3.608219e+003,-4.063114e-003
3.610148e+003,-4.057928e-003
3.612076e+003,-4.256413e-003
3.614005e+003,-4.280003e-003
3.615933e+003,-4.184650e-003
3.617862e+003,-4.098860e-003
3.619790e+003,-3.998213e-003
3.621719e+003,-3.984654e-003
3.623647e+003,-4.065149e-003
3.625576e+003,-4.120850e-003
3.627504e+003,-4.157346e-003
3.629433e+003,-4.027694e-003
3.631361e+003,-4.047915e-003
3.633290e+003,-4.217465e-003
3.635218e+003,-4.213297e-003
3.637146e+003,-4.194856e-003
3.639075e+003,-4.139164e-003
3.641004e+003,-3.974575e-003
3.642932e+003,-3.983439e-003
3.644861e+003,-4.164894e-003
3.646789e+003,-4.242829e-003
3.648718e+003,-4.361133e-003
3.650646e+003,-4.318487e-003
3.652574e+003,-4.169357e-003
3.654503e+003,-4.283580e-003
3.656432e+003,-4.330034e-003
3.658360e+003,-4.437557e-003
3.660289e+003,-4.503081e-003
3.662217e+003,-4.523707e-003
3.664146e+003,-4.428505e-003
3.666074e+003,-4.416894e-003
3.668002e+003,-4.602168e-003
3.669931e+003,-4.706935e-003
3.671860e+003,-4.825506e-003
3.673788e+003,-4.981813e-003
3.675717e+003,-4.727158e-003
3.677645e+003,-4.338957e-003
3.679573e+003,-4.414303e-003
3.681502e+003,-4.419125e-003
3.683430e+003,-4.332298e-003
3.685359e+003,-4.375402e-003
3.687288e+003,-4.368218e-003
3.689216e+003,-4.294210e-003
3.691145e+003,-4.298934e-003
3.693073e+003,-4.309727e-003
3.695001e+003,-4.421322e-003
3.696930e+003,-4.458711e-003
3.698858e+003,-4.496293e-003
3.700787e+003,-4.376058e-003
3.702716e+003,-4.239088e-003
3.704644e+003,-4.133158e-003
3.706573e+003,-4.372417e-003
3.708501e+003,-4.523346e-003
3.710429e+003,-4.427062e-003
3.712358e+003,-4.356376e-003
3.714286e+003,-4.284367e-003
3.716215e+003,-4.484455e-003
3.718144e+003,-4.560890e-003
3.720072e+003,-4.422601e-003
3.722000e+003,-4.326951e-003
3.723929e+003,-4.314451e-003
3.725857e+003,-4.196234e-003
3.727786e+003,-4.004221e-003
3.729714e+003,-4.214577e-003
3.731643e+003,-4.703920e-003
3.733572e+003,-4.853227e-003
3.735500e+003,-4.523182e-003
3.737428e+003,-4.403906e-003
3.739357e+003,-4.455300e-003
3.741285e+003,-4.250671e-003
3.743214e+003,-4.274098e-003
3.745142e+003,-4.061144e-003
3.747071e+003,-4.179859e-003
3.749000e+003,-4.342238e-003
3.750928e+003,-4.156066e-003
3.752856e+003,-3.940559e-003
3.754785e+003,-3.950541e-003
3.756713e+003,-3.940953e-003
3.758642e+003,-3.972473e-003
3.760570e+003,-4.013184e-003
3.762499e+003,-3.965677e-003
3.764427e+003,-3.925455e-003
3.766356e+003,-3.945254e-003
3.768284e+003,-3.974804e-003
3.770213e+003,-4.020110e-003
3.772141e+003,-3.996736e-003
3.774070e+003,-3.857643e-003
3.775998e+003,-3.924536e-003
3.777927e+003,-4.014628e-003
3.779855e+003,-3.974607e-003
3.781784e+003,-3.813667e-003
3.783712e+003,-3.891435e-003
3.785641e+003,-3.982717e-003
3.787569e+003,-3.884933e-003
3.789498e+003,-3.943974e-003
3.791426e+003,-4.026742e-003
3.793355e+003,-3.961015e-003
3.795283e+003,-3.928903e-003
3.797212e+003,-4.110938e-003
3.799140e+003,-4.464155e-003
3.801069e+003,-4.592332e-003
3.802997e+003,-4.143102e-003
3.804926e+003,-4.079067e-003
3.806854e+003,-4.187407e-003
3.808783e+003,-4.283908e-003
3.810711e+003,-4.211033e-003
3.812640e+003,-4.177102e-003
3.814568e+003,-4.354933e-003
3.816497e+003,-4.161973e-003
3.818425e+003,-3.924240e-003
3.820354e+003,-3.933992e-003
3.822282e+003,-3.858399e-003
3.824211e+003,-3.925258e-003
3.826139e+003,-4.117831e-003
3.828068e+003,-4.170899e-003
3.829996e+003,-4.145826e-003
3.831925e+003,-4.062326e-003
3.833853e+003,-4.089406e-003
3.835782e+003,-4.091015e-003
3.837710e+003,-3.977595e-003
3.839639e+003,-4.032388e-003
3.841567e+003,-4.048638e-003
3.843496e+003,-4.134274e-003
3.845424e+003,-4.097973e-003
3.847353e+003,-4.123476e-003
3.849281e+003,-4.205520e-003
3.851210e+003,-4.232067e-003
3.853138e+003,-4.285187e-003
3.855067e+003,-4.207096e-003
3.856995e+003,-4.220680e-003
3.858924e+003,-4.327148e-003
3.860852e+003,-4.214905e-003
3.862781e+003,-4.086321e-003
3.864709e+003,-4.246767e-003
3.866638e+003,-4.352998e-003
3.868566e+003,-4.424635e-003
3.870495e+003,-4.168963e-003
3.872423e+003,-4.063771e-003
3.874352e+003,-4.068530e-003
3.876280e+003,-4.201648e-003
3.878209e+003,-4.382979e-003
3.880137e+003,-4.326819e-003
3.882066e+003,-4.225209e-003
3.883994e+003,-4.438475e-003
3.885923e+003,-4.398297e-003
3.887851e+003,-4.256839e-003
3.889780e+003,-4.250409e-003
3.891708e+003,-4.617183e-003
3.893637e+003,-4.669830e-003
3.895565e+003,-4.296703e-003
3.897494e+003,-4.207850e-003
3.899422e+003,-4.134339e-003
3.901351e+003,-4.182451e-003
3.903279e+003,-4.092032e-003
3.905208e+003,-4.024115e-003
3.907136e+003,-4.233314e-003
3.909065e+003,-4.319176e-003
3.910993e+003,-4.363954e-003
3.912922e+003,-4.330133e-003
3.914850e+003,-4.184092e-003
3.916779e+003,-4.265403e-003
3.918707e+003,-4.360280e-003
3.920636e+003,-4.419223e-003
3.922564e+003,-4.615610e-003
3.924493e+003,-4.583579e-003
3.926421e+003,-4.356344e-003
3.928350e+003,-4.368579e-003
3.930278e+003,-4.266978e-003
3.932207e+003,-4.206997e-003
3.934135e+003,-3.989382e-003
3.936064e+003,-3.772248e-003
3.937992e+003,-3.987478e-003
3.939921e+003,-4.434343e-003
3.941849e+003,-4.584136e-003
3.943778e+003,-4.472616e-003
3.945706e+003,-4.503704e-003
3.947635e+003,-4.391179e-003
3.949563e+003,-4.146844e-003
3.951492e+003,-4.095315e-003
3.953420e+003,-4.092032e-003
3.955349e+003,-4.066495e-003
3.957277e+003,-4.205816e-003
3.959206e+003,-4.358935e-003
3.961134e+003,-4.464089e-003
3.963063e+003,-4.397477e-003
3.964991e+003,-4.394263e-003
3.966920e+003,-4.362379e-003
3.968848e+003,-4.205652e-003
3.970777e+003,-4.080577e-003
3.972705e+003,-4.168733e-003
3.974634e+003,-4.151012e-003
3.976562e+003,-4.041055e-003
3.978491e+003,-4.275968e-003
3.980419e+003,-4.315731e-003
3.982348e+003,-4.287582e-003
3.984276e+003,-4.206538e-003
3.986205e+003,-4.347191e-003
3.988133e+003,-4.267601e-003
3.990062e+003,-4.175757e-003
3.991990e+003,-4.295030e-003
3.993919e+003,-4.285909e-003
3.995847e+003,-4.266453e-003
3.997776e+003,-4.403414e-003
3.999704e+003,-4.448479e-003
4.001633e+003,0.000000e+000
