3.991989e+002,4.755501e-002
4.011274e+002,4.989600e-002
4.030559e+002,3.453042e-002
4.049844e+002,2.220225e-002
4.069129e+002,1.752428e-002
4.088414e+002,2.549209e-002
4.107699e+002,2.159043e-002
4.126984e+002,1.772321e-002
4.146269e+002,1.913607e-002
4.165554e+002,1.851866e-002
4.184839e+002,2.105237e-002
4.204124e+002,2.125679e-002
4.223409e+002,2.465452e-002
4.242694e+002,2.614687e-002
4.261979e+002,1.947266e-002
4.281264e+002,1.676037e-002
4.300549e+002,1.843682e-002
4.319834e+002,1.039843e-002
4.339119e+002,4.371131e-003
4.358404e+002,1.211819e-002
4.377689e+002,1.722863e-002
4.396974e+002,1.505890e-002
4.416259e+002,8.376329e-003
4.435544e+002,7.572686e-003
4.454829e+002,1.044628e-002
4.474114e+002,1.424914e-002
4.493399e+002,1.198697e-002
4.512684e+002,6.888907e-003
4.531969e+002,7.434334e-003
4.551254e+002,1.084011e-002
4.570539e+002,9.610248e-003
4.589824e+002,7.612541e-003
4.609109e+002,8.839048e-003
4.628394e+002,9.312212e-003
4.647679e+002,8.880304e-003
4.666964e+002,8.586420e-003
4.686249e+002,5.219131e-003
4.705533e+002,4.772746e-003
4.724819e+002,7.356514e-003
4.744103e+002,8.332620e-003
4.763389e+002,7.135464e-003
4.782673e+002,6.810680e-003
4.801959e+002,7.615104e-003
4.821243e+002,8.191325e-003
4.840529e+002,8.190346e-003
4.859813e+002,8.353697e-003
4.879099e+002,6.493840e-003
4.898383e+002,6.006836e-003
4.917668e+002,5.444006e-003
4.936953e+002,7.073121e-003
4.956238e+002,8.257814e-003
4.975523e+002,6.923650e-003
4.994808e+002,6.937790e-003
5.014093e+002,8.182175e-003
5.033378e+002,6.828182e-003
5.052663e+002,5.403477e-003
5.071948e+002,6.065228e-003
5.091233e+002,6.631187e-003
5.110518e+002,6.584256e-003
5.129803e+002,6.620286e-003
5.149088e+002,5.550210e-003
5.168373e+002,5.240493e-003
5.187658e+002,5.474002e-003
5.206943e+002,6.674353e-003
5.226228e+002,5.952717e-003
5.245513e+002,4.946848e-003
5.264798e+002,5.664934e-003
5.284083e+002,6.749562e-003
5.303368e+002,4.562349e-003
5.322653e+002,4.171634e-003
5.341938e+002,4.721796e-003
5.361223e+002,4.387397e-003
5.380508e+002,3.551775e-003
5.399792e+002,4.619041e-003
5.419078e+002,5.257027e-003
5.438363e+002,4.830404e-003
5.457648e+002,3.992224e-003
5.476932e+002,4.133331e-003
5.496218e+002,4.415079e-003
5.515503e+002,4.406175e-003
5.534788e+002,3.829469e-003
5.554072e+002,5.305257e-003
5.573358e+002,5.991919e-003
5.592643e+002,6.669172e-003
5.611927e+002,4.917324e-003
5.631212e+002,4.229178e-003
5.650497e+002,5.211250e-003
5.669783e+002,5.899108e-003
5.689067e+002,5.714049e-003
5.708352e+002,4.936761e-003
5.727637e+002,4.007640e-003
5.746923e+002,3.814861e-003
5.766207e+002,4.433823e-003
5.785492e+002,4.037471e-003
5.804777e+002,-6.503419e-003
5.824063e+002,-7.140832e-003
5.843347e+002,3.511789e-003
5.862632e+002,6.686400e-003
5.881917e+002,6.121916e-003
5.901202e+002,4.717977e-003
5.920487e+002,3.067289e-003
5.939772e+002,2.967461e-003
5.959057e+002,4.013760e-003
5.978342e+002,5.113711e-003
5.997627e+002,4.213955e-003
6.016912e+002,2.735729e-003
6.036197e+002,3.832878e-003
6.055482e+002,4.997859e-003
6.074767e+002,4.648512e-003
6.094052e+002,5.044183e-003
6.113337e+002,7.079486e-003
6.132622e+002,6.705950e-003
6.151907e+002,4.820286e-003
6.171192e+002,4.713689e-003
6.190477e+002,5.402705e-003
6.209762e+002,5.518061e-003
6.229047e+002,5.424344e-003
6.248332e+002,4.367717e-003
6.267617e+002,3.356894e-003
6.286902e+002,2.891604e-003
6.306187e+002,3.452804e-003
6.325472e+002,3.435403e-003
6.344756e+002,3.149317e-003
6.364042e+002,2.311574e-003
6.383326e+002,1.941748e-003
6.402612e+002,1.957391e-003
6.421896e+002,2.816627e-003
6.441182e+002,2.792650e-003
6.460466e+002,2.019203e-003
6.479752e+002,2.181381e-003
6.499036e+002,2.617342e-003
6.518322e+002,2.411685e-003
6.537606e+002,2.297750e-003
6.556891e+002,2.805956e-003
6.576177e+002,2.941039e-003
6.595461e+002,2.357979e-003
6.614746e+002,1.794963e-003
6.634031e+002,1.555876e-003
6.653317e+002,1.828403e-003
6.672601e+002,2.944108e-003
6.691886e+002,2.671647e-003
6.711171e+002,1.855222e-003
6.730457e+002,2.005755e-003
6.749741e+002,1.564255e-003
6.769026e+002,1.334334e-003
6.788311e+002,1.631333e-003
6.807596e+002,1.968541e-003
6.826881e+002,2.297484e-003
6.846166e+002,2.282628e-003
6.865451e+002,2.073001e-003
6.884736e+002,2.016407e-003
6.904021e+002,1.839383e-003
6.923306e+002,1.858782e-003
6.942591e+002,2.329096e-003
6.961876e+002,2.699519e-003
6.981161e+002,2.619142e-003
7.000446e+002,2.240128e-003
7.019731e+002,1.638384e-003
7.039016e+002,1.531402e-003
7.058301e+002,1.739537e-003
7.077585e+002,1.886502e-003
7.096871e+002,1.973534e-003
7.116156e+002,1.774236e-003
7.135441e+002,1.133536e-003
7.154725e+002,1.045609e-003
7.174011e+002,1.408889e-003
7.193296e+002,1.857285e-003
7.212581e+002,2.089148e-003
7.231865e+002,2.473562e-003
7.251151e+002,2.343187e-003
7.270436e+002,2.296485e-003
7.289720e+002,2.449603e-003
7.309005e+002,2.232868e-003
7.328290e+002,2.216216e-003
7.347576e+002,2.136161e-003
7.366860e+002,1.646433e-003
7.386145e+002,1.198952e-003
7.405430e+002,1.367073e-003
7.424716e+002,1.839483e-003
7.444000e+002,2.096805e-003
7.463285e+002,1.893657e-003
7.482570e+002,1.606656e-003
7.501855e+002,1.387449e-003
7.521140e+002,1.827504e-003
7.540425e+002,2.126672e-003
7.559710e+002,2.034416e-003
7.578995e+002,1.806609e-003
7.598280e+002,1.548327e-003
7.617565e+002,1.688475e-003
7.636850e+002,1.940749e-003
7.656135e+002,2.076729e-003
7.675420e+002,1.904340e-003
7.694705e+002,1.373355e-003
7.713990e+002,1.094403e-003
7.733275e+002,1.176326e-003
7.752560e+002,1.293057e-003
7.771844e+002,1.455796e-003
7.791130e+002,1.513480e-003
7.810415e+002,1.570707e-003
7.829700e+002,1.260091e-003
7.848984e+002,1.293988e-003
7.868270e+002,1.710962e-003
7.887555e+002,1.843742e-003
7.906840e+002,1.787511e-003
7.926124e+002,1.748752e-003
7.945410e+002,1.693764e-003
7.964695e+002,1.421986e-003
7.983979e+002,1.687012e-003
8.003264e+002,1.755772e-003
8.022549e+002,1.594284e-003
8.041835e+002,1.555776e-003
8.061119e+002,1.310605e-003
8.080404e+002,1.157389e-003
8.099689e+002,1.414806e-003
8.118975e+002,1.689307e-003
8.138259e+002,1.553781e-003
8.157545e+002,1.537254e-003
8.176830e+002,1.681324e-003
8.196115e+002,1.172605e-003
8.215399e+002,8.939481e-004
8.234684e+002,1.011998e-003
8.253970e+002,1.440403e-003
8.273254e+002,1.804180e-003
8.292539e+002,1.588298e-003
8.311824e+002,1.136326e-003
8.331110e+002,1.161774e-003
8.350394e+002,1.391969e-003
8.369679e+002,1.438808e-003
8.388964e+002,1.467598e-003
8.408250e+002,1.833094e-003
8.427534e+002,1.708966e-003
8.446819e+002,1.458223e-003
8.466104e+002,1.639548e-003
8.485389e+002,1.745692e-003
8.504674e+002,1.543273e-003
8.523959e+002,1.338688e-003
8.543244e+002,1.848500e-003
8.562529e+002,1.797758e-003
8.581814e+002,1.506897e-003
8.601099e+002,1.545733e-003
8.620384e+002,1.310372e-003
8.639669e+002,1.514810e-003
8.658954e+002,1.912660e-003
8.678239e+002,1.740003e-003
8.697524e+002,1.580816e-003
8.716809e+002,1.570108e-003
8.736094e+002,1.489607e-003
8.755378e+002,1.402939e-003
8.774664e+002,1.648428e-003
8.793949e+002,1.931430e-003
8.813234e+002,1.615935e-003
8.832518e+002,1.454333e-003
8.851804e+002,1.405665e-003
8.871089e+002,1.566217e-003
8.890374e+002,1.296480e-003
8.909658e+002,1.117324e-003
8.928943e+002,1.649360e-003
8.948229e+002,1.648994e-003
8.967513e+002,1.434054e-003
8.986798e+002,1.369965e-003
9.006083e+002,1.128420e-003
9.025369e+002,9.171571e-004
9.044653e+002,1.088391e-003
9.063938e+002,1.189150e-003
9.083223e+002,1.021530e-003
9.102509e+002,8.792729e-004
9.121793e+002,1.275211e-003
9.141078e+002,1.205331e-003
9.160364e+002,9.303061e-004
9.179648e+002,1.001138e-003
9.198933e+002,1.427738e-003
9.218218e+002,1.742065e-003
9.237504e+002,1.526880e-003
9.256788e+002,1.319844e-003
9.276073e+002,1.007183e-003
9.295358e+002,8.963054e-004
9.314644e+002,1.055076e-003
9.333928e+002,1.220915e-003
9.353213e+002,1.247597e-003
9.372498e+002,1.152272e-003
9.391783e+002,9.856293e-004
9.411068e+002,8.562318e-004
9.430353e+002,1.040196e-003
9.449637e+002,1.355074e-003
9.468923e+002,1.498584e-003
9.488208e+002,1.131376e-003
9.507493e+002,1.109916e-003
9.526777e+002,1.182871e-003
9.546063e+002,1.244075e-003
9.565348e+002,1.224503e-003
9.584633e+002,1.045045e-003
9.603917e+002,1.027741e-003
9.623203e+002,1.028073e-003
9.642488e+002,1.042620e-003
9.661772e+002,1.010637e-003
9.681057e+002,9.540152e-004
9.700343e+002,8.630710e-004
9.719628e+002,9.227686e-004
9.738912e+002,9.510930e-004
9.758197e+002,8.898974e-004
9.777483e+002,9.113796e-004
9.796768e+002,9.832050e-004
9.816052e+002,9.847326e-004
9.835337e+002,1.107890e-003
9.854623e+002,1.213671e-003
9.873907e+002,1.246733e-003
9.893192e+002,1.148120e-003
9.912477e+002,9.845002e-004
9.931763e+002,9.354861e-004
9.951047e+002,8.635358e-004
9.970332e+002,6.219403e-004
9.989617e+002,6.069425e-004
1.000890e+003,8.082282e-004
1.002819e+003,9.776923e-004
1.004747e+003,8.709726e-004
1.006676e+003,8.379726e-004
1.008604e+003,7.927260e-004
1.010533e+003,9.040749e-004
1.012461e+003,7.755648e-004
1.014390e+003,6.489177e-004
1.016318e+003,8.764176e-004
1.018247e+003,9.257902e-004
1.020175e+003,8.155312e-004
1.022104e+003,8.258887e-004
1.024032e+003,8.193821e-004
1.025961e+003,9.229679e-004
1.027889e+003,8.257559e-004
1.029818e+003,8.687814e-004
1.031746e+003,9.586642e-004
1.033675e+003,9.208759e-004
1.035603e+003,8.842531e-004
1.037532e+003,1.014688e-003
1.039460e+003,1.077131e-003
1.041389e+003,9.912750e-004
1.043317e+003,1.025615e-003
1.045246e+003,1.027375e-003
1.047174e+003,9.991457e-004
1.049103e+003,9.050377e-004
1.051031e+003,7.026120e-004
1.052960e+003,6.631205e-004
1.054888e+003,7.599642e-004
1.056817e+003,7.491105e-004
1.058745e+003,7.226247e-004
1.060674e+003,8.419895e-004
1.062602e+003,1.044148e-003
1.064531e+003,9.433227e-004
1.066459e+003,8.479321e-004
1.068388e+003,7.048688e-004
1.070316e+003,7.120707e-004
1.072245e+003,8.202452e-004
1.074173e+003,7.086855e-004
1.076102e+003,6.004392e-004
1.078030e+003,7.172149e-004
1.079959e+003,6.858858e-004
1.081887e+003,6.952776e-004
1.083816e+003,9.885186e-004
1.085744e+003,8.069003e-004
1.087673e+003,4.930824e-004
1.089601e+003,5.629807e-004
1.091530e+003,8.054397e-004
1.093458e+003,9.017175e-004
1.095387e+003,7.561139e-004
1.097315e+003,7.743034e-004
1.099244e+003,8.774468e-004
1.101172e+003,8.466374e-004
1.103101e+003,5.924429e-004
1.105029e+003,6.247608e-004
1.106958e+003,8.373750e-004
1.108886e+003,9.640770e-004
1.110815e+003,7.807097e-004
1.112743e+003,6.348149e-004
1.114672e+003,4.943429e-004
1.116600e+003,7.203678e-004
1.118529e+003,9.621842e-004
1.120457e+003,8.126432e-004
1.122386e+003,6.989614e-004
1.124314e+003,7.168166e-004
1.126243e+003,5.948318e-004
1.128171e+003,4.607412e-004
1.130100e+003,6.717818e-004
1.132028e+003,7.083536e-004
1.133957e+003,5.858735e-004
1.135885e+003,5.845463e-004
1.137814e+003,5.626490e-004
1.139742e+003,3.512303e-004
1.141671e+003,5.562790e-004
1.143599e+003,7.442315e-004
1.145528e+003,5.980502e-004
1.147456e+003,4.925185e-004
1.149385e+003,5.746924e-004
1.151313e+003,5.749246e-004
1.153242e+003,5.365063e-004
1.155170e+003,6.979326e-004
1.157099e+003,7.655405e-004
1.159027e+003,7.371950e-004
1.160956e+003,6.354786e-004
1.162884e+003,6.450684e-004
1.164813e+003,6.295389e-004
1.166741e+003,5.991452e-004
1.168670e+003,5.822902e-004
1.170598e+003,6.104265e-004
1.172526e+003,6.433429e-004
1.174455e+003,5.026028e-004
1.176384e+003,5.221749e-004
1.178312e+003,6.667709e-004
1.180240e+003,6.205467e-004
1.182169e+003,6.090660e-004
1.184098e+003,5.273169e-004
1.186026e+003,4.037271e-004
1.187954e+003,4.487009e-004
1.189883e+003,5.446674e-004
1.191812e+003,6.486523e-004
1.193740e+003,7.678308e-004
1.195668e+003,5.465252e-004
1.197597e+003,2.600143e-004
1.199526e+003,2.622688e-004
1.201454e+003,4.822022e-004
1.203382e+003,6.730097e-004
1.205311e+003,6.049517e-004
1.207240e+003,5.306012e-004
1.209168e+003,5.674929e-004
1.211096e+003,5.421129e-004
1.213025e+003,6.153704e-004
1.214953e+003,6.461967e-004
1.216882e+003,4.848891e-004
1.218810e+003,4.548040e-004
1.220739e+003,3.782240e-004
1.222667e+003,3.904945e-004
1.224596e+003,6.334544e-004
1.226524e+003,6.894367e-004
1.228453e+003,6.452344e-004
1.230381e+003,4.506910e-004
1.232310e+003,4.014719e-004
1.234238e+003,3.325280e-004
1.236167e+003,2.691318e-004
1.238095e+003,4.610397e-004
1.240024e+003,5.515680e-004
1.241952e+003,5.349139e-004
1.243881e+003,4.298286e-004
1.245809e+003,3.536842e-004
1.247738e+003,4.373575e-004
1.249666e+003,6.303021e-004
1.251595e+003,5.942014e-004
1.253523e+003,3.649591e-004
1.255452e+003,3.886373e-004
1.257380e+003,4.506910e-004
1.259309e+003,5.462267e-004
1.261237e+003,5.330893e-004
1.263166e+003,3.852878e-004
1.265094e+003,4.684365e-004
1.267023e+003,5.415821e-004
1.268951e+003,4.991197e-004
1.270880e+003,4.998494e-004
1.272808e+003,3.504676e-004
1.274737e+003,4.216696e-004
1.276665e+003,6.351467e-004
1.278594e+003,6.046199e-004
1.280522e+003,4.180877e-004
1.282451e+003,4.075079e-004
1.284379e+003,4.816383e-004
1.286308e+003,4.601442e-004
1.288236e+003,4.984562e-004
1.290165e+003,6.454666e-004
1.292093e+003,6.271498e-004
1.294022e+003,5.506391e-004
1.295950e+003,6.374695e-004
1.297879e+003,7.138960e-004
1.299807e+003,6.987955e-004
1.301736e+003,6.030604e-004
1.303664e+003,3.764333e-004
1.305593e+003,3.535847e-004
1.307521e+003,5.013091e-004
1.309450e+003,5.800672e-004
1.311378e+003,6.142423e-004
1.313307e+003,5.147772e-004
1.315235e+003,4.789846e-004
1.317164e+003,6.938506e-004
1.319092e+003,6.936515e-004
1.321021e+003,5.447338e-004
1.322949e+003,4.923526e-004
1.324878e+003,4.481702e-004
1.326806e+003,3.923517e-004
1.328735e+003,4.164294e-004
1.330663e+003,5.182936e-004
1.332592e+003,6.115214e-004
1.334520e+003,5.499424e-004
1.336449e+003,4.556995e-004
1.338377e+003,5.132844e-004
1.340306e+003,5.324589e-004
1.342234e+003,4.607080e-004
1.344163e+003,3.479474e-004
1.346091e+003,2.839190e-004
1.348020e+003,3.869791e-004
1.349948e+003,3.818720e-004
1.351877e+003,3.237076e-004
1.353805e+003,3.785557e-004
1.355734e+003,4.461801e-004
1.357662e+003,4.567278e-004
1.359591e+003,5.093036e-004
1.361519e+003,6.463626e-004
1.363448e+003,6.644479e-004
1.365376e+003,4.310889e-004
1.367305e+003,4.251521e-004
1.369233e+003,4.299944e-004
1.371162e+003,4.648874e-004
1.373090e+003,7.351372e-004
1.375019e+003,6.979326e-004
1.376947e+003,4.853866e-004
1.378876e+003,4.261139e-004
1.380804e+003,3.720226e-004
1.382733e+003,3.785557e-004
1.384661e+003,6.000742e-004
1.386590e+003,1.043617e-003
1.388518e+003,8.758532e-004
1.390447e+003,4.432282e-004
1.392375e+003,5.415489e-004
1.394304e+003,8.756208e-004
1.396232e+003,6.734411e-004
1.398161e+003,6.374032e-004
1.400089e+003,6.502119e-004
1.402018e+003,5.342172e-004
1.403946e+003,5.535918e-004
1.405875e+003,5.115594e-004
1.407803e+003,4.407406e-004
1.409732e+003,4.400109e-004
1.411660e+003,4.523495e-004
1.413589e+003,4.966318e-004
1.415517e+003,6.536962e-004
1.417446e+003,1.034350e-003
1.419374e+003,1.307447e-003
1.421303e+003,9.040085e-004
1.423231e+003,8.298391e-004
1.425160e+003,8.721347e-004
1.427088e+003,6.344167e-004
1.429017e+003,4.836949e-004
1.430945e+003,4.074415e-004
1.432874e+003,4.653849e-004
1.434802e+003,9.366483e-004
1.436731e+003,1.344638e-003
1.438659e+003,7.557156e-004
1.440588e+003,3.886042e-004
1.442516e+003,4.482697e-004
1.444445e+003,4.819368e-004
1.446373e+003,6.713172e-004
1.448302e+003,7.658392e-004
1.450230e+003,5.450323e-004
1.452159e+003,5.297054e-004
1.454087e+003,8.499572e-004
1.456016e+003,1.871594e-003
1.457944e+003,2.001694e-003
1.459873e+003,1.001703e-003
1.461801e+003,5.435726e-004
1.463730e+003,7.468867e-004
1.465658e+003,8.539743e-004
1.467587e+003,6.008042e-004
1.469515e+003,6.905319e-004
1.471444e+003,1.219752e-003
1.473372e+003,1.438907e-003
1.475301e+003,1.099386e-003
1.477229e+003,7.270721e-004
1.479158e+003,4.744071e-004
1.481086e+003,5.226394e-004
1.483015e+003,4.111229e-004
1.484943e+003,4.973615e-004
1.486872e+003,8.498908e-004
1.488800e+003,1.184964e-003
1.490729e+003,1.217825e-003
1.492657e+003,8.079958e-004
1.494586e+003,9.449498e-004
1.496514e+003,1.267701e-003
1.498443e+003,9.506281e-004
1.500371e+003,6.136450e-004
1.502300e+003,5.839159e-004
1.504228e+003,1.381067e-003
1.506157e+003,2.613676e-003
1.508085e+003,2.101933e-003
1.510014e+003,1.096529e-003
1.511942e+003,7.584706e-004
1.513871e+003,7.061632e-004
1.515799e+003,1.051223e-003
1.517728e+003,1.196526e-003
1.519656e+003,1.518900e-003
1.521585e+003,1.909332e-003
1.523513e+003,1.365178e-003
1.525442e+003,1.313762e-003
1.527370e+003,1.096629e-003
1.529299e+003,7.608272e-004
1.531227e+003,7.629183e-004
1.533156e+003,1.207092e-003
1.535084e+003,9.018171e-004
1.537013e+003,9.402013e-004
1.538941e+003,2.067041e-003
1.540870e+003,2.395226e-003
1.542798e+003,1.752778e-003
1.544727e+003,1.317584e-003
1.546655e+003,8.330261e-004
1.548584e+003,7.408128e-004
1.550512e+003,7.034086e-004
1.552441e+003,6.994925e-004
1.554369e+003,1.018375e-003
1.556298e+003,1.596845e-003
1.558226e+003,2.928797e-003
1.560155e+003,2.447937e-003
1.562083e+003,1.069026e-003
1.564012e+003,8.248264e-004
1.565940e+003,6.978663e-004
1.567869e+003,8.887685e-004
1.569797e+003,1.224071e-003
1.571726e+003,7.232221e-004
1.573654e+003,6.564173e-004
1.575583e+003,1.357700e-003
1.577511e+003,1.081183e-003
1.579440e+003,4.746393e-004
1.581368e+003,5.010768e-004
1.583297e+003,5.327907e-004
1.585225e+003,5.018066e-004
1.587154e+003,4.000789e-004
1.589082e+003,2.952915e-004
1.591010e+003,2.398904e-004
1.592939e+003,3.218176e-004
1.594868e+003,3.458251e-004
1.596796e+003,3.558396e-004
1.598724e+003,3.919205e-004
1.600653e+003,4.232948e-004
1.602582e+003,4.705926e-004
1.604510e+003,4.158987e-004
1.606438e+003,3.763337e-004
1.608367e+003,4.105922e-004
1.610296e+003,2.965846e-004
1.612224e+003,2.421116e-004
1.614152e+003,5.871675e-004
1.616081e+003,1.242613e-003
1.618010e+003,1.010770e-003
1.619938e+003,5.843141e-004
1.621866e+003,8.578586e-004
1.623795e+003,8.878057e-004
1.625724e+003,6.003728e-004
1.627652e+003,6.184895e-004
1.629580e+003,4.378882e-004
1.631509e+003,2.918433e-004
1.633438e+003,8.566966e-004
1.635366e+003,1.732518e-003
1.637294e+003,1.353213e-003
1.639223e+003,7.728761e-004
1.641151e+003,5.736307e-004
1.643080e+003,5.639761e-004
1.645008e+003,1.129748e-003
1.646937e+003,1.492334e-003
1.648865e+003,9.944963e-004
1.650794e+003,1.429566e-003
1.652722e+003,2.836404e-003
1.654651e+003,1.827205e-003
1.656579e+003,6.801114e-004
1.658508e+003,5.347812e-004
1.660436e+003,6.467608e-004
1.662365e+003,8.239300e-004
1.664293e+003,5.770812e-004
1.666222e+003,4.930824e-004
1.668150e+003,1.023689e-003
1.670079e+003,1.271290e-003
1.672007e+003,9.374120e-004
1.673936e+003,1.117291e-003
1.675864e+003,1.181276e-003
1.677793e+003,6.184562e-004
1.679721e+003,5.557814e-004
1.681650e+003,9.219385e-004
1.683578e+003,1.934825e-003
1.685507e+003,1.635424e-003
1.687435e+003,7.997965e-004
1.689364e+003,5.848118e-004
1.691292e+003,4.979586e-004
1.693221e+003,6.575123e-004
1.695149e+003,1.379305e-003
1.697078e+003,1.440603e-003
1.699006e+003,1.843709e-003
1.700935e+003,1.974832e-003
1.702863e+003,1.056504e-003
1.704792e+003,1.075603e-003
1.706720e+003,8.507872e-004
1.708649e+003,5.134834e-004
1.710577e+003,3.225803e-004
1.712506e+003,5.158387e-004
1.714434e+003,1.003031e-003
1.716363e+003,1.528443e-003
1.718291e+003,1.492101e-003
1.720220e+003,8.151993e-004
1.722148e+003,5.197532e-004
1.724077e+003,4.720189e-004
1.726005e+003,3.448634e-004
1.727934e+003,4.607080e-004
1.729862e+003,6.794808e-004
1.731791e+003,1.095699e-003
1.733719e+003,1.694829e-003
1.735648e+003,1.096396e-003
1.737576e+003,6.673682e-004
1.739505e+003,8.931844e-004
1.741433e+003,6.630542e-004
1.743362e+003,6.033258e-004
1.745290e+003,6.175272e-004
1.747219e+003,7.828010e-004
1.749147e+003,9.936993e-004
1.751076e+003,1.131709e-003
1.753004e+003,7.170821e-004
1.754933e+003,5.043277e-004
1.756861e+003,6.094311e-004
1.758790e+003,5.564781e-004
1.760718e+003,7.710837e-004
1.762647e+003,7.849254e-004
1.764575e+003,3.649922e-004
1.766504e+003,4.026326e-004
1.768432e+003,6.216749e-004
1.770361e+003,9.725782e-004
1.772289e+003,1.285912e-003
1.774218e+003,8.392009e-004
1.776146e+003,4.782881e-004
1.778075e+003,3.425091e-004
1.780003e+003,3.006298e-004
1.781932e+003,2.469851e-004
1.783860e+003,2.818633e-004
1.785789e+003,3.825684e-004
1.787717e+003,4.332116e-004
1.789646e+003,6.441725e-004
1.791574e+003,9.930682e-004
1.793503e+003,8.259550e-004
1.795431e+003,4.358650e-004
1.797360e+003,4.405748e-004
1.799288e+003,6.059139e-004
1.801217e+003,5.890587e-004
1.803145e+003,3.780914e-004
1.805074e+003,3.746093e-004
1.807002e+003,4.197792e-004
1.808931e+003,4.559649e-004
1.810859e+003,4.411055e-004
1.812788e+003,3.912904e-004
1.814716e+003,3.382646e-004
1.816645e+003,3.395910e-004
1.818573e+003,3.439681e-004
1.820502e+003,3.490085e-004
1.822430e+003,4.543396e-004
1.824359e+003,7.279350e-004
1.826287e+003,6.914611e-004
1.828216e+003,7.422400e-004
1.830144e+003,7.509029e-004
1.832073e+003,3.927496e-004
1.834001e+003,3.532531e-004
1.835930e+003,4.353343e-004
1.837858e+003,3.756042e-004
1.839787e+003,2.965846e-004
1.841715e+003,4.113551e-004
1.843644e+003,8.222038e-004
1.845572e+003,7.021143e-004
1.847501e+003,3.713262e-004
1.849429e+003,2.897876e-004
1.851358e+003,3.508655e-004
1.853286e+003,4.246214e-004
1.855215e+003,4.005764e-004
1.857143e+003,3.989182e-004
1.859072e+003,3.653570e-004
1.861000e+003,3.324285e-004
1.862929e+003,3.509650e-004
1.864857e+003,4.802451e-004
1.866786e+003,6.363413e-004
1.868714e+003,7.429038e-004
1.870643e+003,4.634611e-004
1.872571e+003,2.290497e-004
1.874500e+003,2.738066e-004
1.876428e+003,3.174738e-004
1.878357e+003,3.487100e-004
1.880285e+003,4.007422e-004
1.882214e+003,3.567350e-004
1.884142e+003,2.884945e-004
1.886071e+003,2.243422e-004
1.887999e+003,3.557733e-004
1.889928e+003,4.295964e-004
1.891856e+003,2.654516e-004
1.893785e+003,2.891576e-004
1.895713e+003,2.835211e-004
1.897642e+003,2.628324e-004
1.899570e+003,3.066975e-004
1.901499e+003,2.770226e-004
1.903427e+003,2.429736e-004
1.905356e+003,3.471184e-004
1.907284e+003,3.726195e-004
1.909213e+003,3.515951e-004
1.911141e+003,2.674740e-004
1.913070e+003,2.238118e-004
1.914998e+003,3.155507e-004
1.916927e+003,5.198859e-004
1.918855e+003,5.665639e-004
1.920784e+003,5.085407e-004
1.922712e+003,5.144123e-004
1.924641e+003,4.230626e-004
1.926569e+003,3.859179e-004
1.928498e+003,3.450292e-004
1.930426e+003,3.677779e-004
1.932355e+003,2.810676e-004
1.934283e+003,2.110488e-004
1.936212e+003,1.925183e-004
1.938140e+003,1.654035e-004
1.940069e+003,2.684355e-004
1.941997e+003,4.556995e-004
1.943926e+003,4.630299e-004
1.945854e+003,3.639974e-004
1.947783e+003,3.984207e-004
1.949711e+003,3.740455e-004
1.951640e+003,3.272225e-004
1.953568e+003,3.775608e-004
1.955497e+003,3.846577e-004
1.957425e+003,3.119696e-004
1.959354e+003,3.246692e-004
1.961282e+003,3.633341e-004
1.963211e+003,3.496385e-004
1.965139e+003,3.301073e-004
1.967068e+003,3.737471e-004
1.968996e+003,2.945621e-004
1.970925e+003,3.053049e-004
1.972853e+003,4.002116e-004
1.974782e+003,3.665508e-004
1.976710e+003,2.595502e-004
1.978639e+003,2.776526e-004
1.980567e+003,3.024866e-004
1.982496e+003,3.111738e-004
1.984424e+003,3.679768e-004
1.986353e+003,4.005432e-004
1.988281e+003,3.131633e-004
1.990210e+003,2.362105e-004
1.992138e+003,3.424427e-004
1.994067e+003,3.002982e-004
1.995995e+003,1.803197e-004
1.997924e+003,1.718340e-004
1.999852e+003,2.358127e-004
2.001781e+003,2.504993e-004
2.003709e+003,3.092838e-004
2.005638e+003,3.084217e-004
2.007566e+003,3.742445e-004
2.009495e+003,4.232948e-004
2.011423e+003,3.609133e-004
2.013352e+003,4.057833e-004
2.015280e+003,4.256828e-004
2.017208e+003,4.097963e-004
2.019137e+003,5.023042e-004
2.021066e+003,4.476064e-004
2.022994e+003,2.769232e-004
2.024922e+003,3.035144e-004
2.026851e+003,3.788873e-004
2.028780e+003,3.675457e-004
2.030708e+003,3.428738e-004
2.032636e+003,4.296296e-004
2.034565e+003,4.422000e-004
2.036494e+003,3.763006e-004
2.038422e+003,3.389609e-004
2.040350e+003,3.176728e-004
2.042279e+003,3.248350e-004
2.044208e+003,3.565692e-004
2.046136e+003,3.791858e-004
2.048064e+003,3.511971e-004
2.049993e+003,3.572656e-004
2.051921e+003,3.099801e-004
2.053850e+003,2.922080e-004
2.055778e+003,2.793103e-004
2.057707e+003,3.431391e-004
2.059635e+003,3.424096e-004
2.061564e+003,2.878314e-004
2.063492e+003,1.919548e-004
2.065421e+003,2.217565e-004
2.067349e+003,3.309032e-004
2.069278e+003,2.488748e-004
2.071206e+003,2.180767e-004
2.073135e+003,3.111075e-004
2.075063e+003,3.631352e-004
2.076992e+003,3.845582e-004
2.078920e+003,3.963977e-004
2.080849e+003,4.054848e-004
2.082777e+003,4.326478e-004
2.084706e+003,3.328927e-004
2.086634e+003,2.217565e-004
2.088563e+003,2.454600e-004
2.090491e+003,3.113396e-004
2.092420e+003,3.243377e-004
2.094348e+003,2.826259e-004
2.096277e+003,2.542456e-004
2.098205e+003,2.243091e-004
2.100134e+003,3.070623e-004
2.102062e+003,4.219018e-004
2.103991e+003,3.726859e-004
2.105919e+003,3.518272e-004
2.107848e+003,3.723211e-004
2.109776e+003,3.249677e-004
2.111705e+003,2.328953e-004
2.113633e+003,2.248727e-004
2.115562e+003,2.900860e-004
2.117490e+003,2.889587e-004
2.119419e+003,2.743371e-004
2.121347e+003,2.396252e-004
2.123276e+003,1.883084e-004
2.125204e+003,2.036233e-004
2.127133e+003,2.565995e-004
2.129061e+003,3.940762e-004
2.130990e+003,4.837281e-004
2.132918e+003,3.586915e-004
2.134847e+003,2.039879e-004
2.136775e+003,2.238781e-004
2.138704e+003,2.937663e-004
2.140632e+003,3.079907e-004
2.142561e+003,2.211266e-004
2.144489e+003,1.454497e-004
2.146418e+003,1.811816e-004
2.148346e+003,2.819959e-004
2.150275e+003,3.050065e-004
2.152203e+003,3.110412e-004
2.154132e+003,3.265261e-004
2.156060e+003,2.761606e-004
2.157989e+003,2.751328e-004
2.159917e+003,2.733424e-004
2.161846e+003,2.212924e-004
2.163774e+003,2.186403e-004
2.165703e+003,3.266919e-004
2.167631e+003,3.645943e-004
2.169560e+003,3.647933e-004
2.171488e+003,3.524904e-004
2.173417e+003,2.421779e-004
2.175345e+003,2.183419e-004
2.177274e+003,3.372035e-004
2.179202e+003,3.366729e-004
2.181131e+003,2.311714e-004
2.183059e+003,2.455595e-004
2.184988e+003,3.688059e-004
2.186916e+003,4.417688e-004
2.188845e+003,3.798490e-004
2.190773e+003,2.713863e-004
2.192702e+003,2.331274e-004
2.194630e+003,3.662192e-004
2.196559e+003,4.920872e-004
2.198487e+003,4.458817e-004
2.200416e+003,3.778261e-004
2.202344e+003,3.984207e-004
2.204273e+003,3.912904e-004
2.206201e+003,3.523909e-004
2.208130e+003,3.863490e-004
2.210058e+003,3.686069e-004
2.211987e+003,3.402210e-004
2.213915e+003,3.457256e-004
2.215844e+003,3.925838e-004
2.217772e+003,4.100616e-004
2.219701e+003,3.896322e-004
2.221629e+003,2.899533e-004
2.223558e+003,2.166512e-004
2.225486e+003,2.898539e-004
2.227415e+003,3.551433e-004
2.229343e+003,3.911246e-004
2.231272e+003,3.489422e-004
2.233200e+003,3.781577e-004
2.235129e+003,4.333111e-004
2.237057e+003,3.907598e-004
2.238986e+003,2.772879e-004
2.240914e+003,2.491069e-004
2.242843e+003,3.446976e-004
2.244771e+003,3.809434e-004
2.246700e+003,4.325814e-004
2.248628e+003,4.194143e-004
2.250557e+003,2.925727e-004
2.252485e+003,2.887266e-004
2.254414e+003,3.299415e-004
2.256342e+003,2.873340e-004
2.258271e+003,2.685350e-004
2.260199e+003,3.198613e-004
2.262128e+003,3.196954e-004
2.264056e+003,3.165786e-004
2.265985e+003,3.110743e-004
2.267913e+003,3.529878e-004
2.269842e+003,4.470425e-004
2.271770e+003,4.043904e-004
2.273699e+003,3.014587e-004
2.275627e+003,3.226465e-004
2.277556e+003,3.121354e-004
2.279484e+003,2.587877e-004
2.281413e+003,3.538168e-004
2.283341e+003,3.329259e-004
2.285270e+003,2.883950e-004
2.287198e+003,2.507977e-004
2.289127e+003,2.885940e-004
2.291055e+003,3.514624e-004
2.292984e+003,3.171754e-004
2.294912e+003,2.644570e-004
2.296841e+003,3.301736e-004
2.298769e+003,4.485351e-004
2.300698e+003,5.181941e-004
2.302626e+003,5.809962e-004
2.304555e+003,5.895232e-004
2.306483e+003,6.323262e-004
2.308412e+003,6.465949e-004
2.310340e+003,6.118200e-004
2.312269e+003,7.241846e-004
2.314197e+003,8.641334e-004
2.316125e+003,9.766297e-004
2.318054e+003,1.008910e-003
2.319983e+003,1.005290e-003
2.321911e+003,1.138685e-003
2.323840e+003,1.383028e-003
2.325768e+003,1.475710e-003
2.327697e+003,1.566284e-003
2.329625e+003,1.802549e-003
2.331553e+003,1.773670e-003
2.333482e+003,1.626012e-003
2.335411e+003,1.641510e-003
2.337339e+003,1.711195e-003
2.339268e+003,1.727328e-003
2.341196e+003,1.698188e-003
2.343125e+003,1.679893e-003
2.345053e+003,1.493431e-003
2.346981e+003,1.200945e-003
2.348910e+003,9.565057e-004
2.350839e+003,1.076832e-003
2.352767e+003,1.491868e-003
2.354696e+003,1.873491e-003
2.356624e+003,2.229671e-003
2.358552e+003,2.277099e-003
2.360481e+003,2.218147e-003
2.362409e+003,2.205026e-003
2.364338e+003,2.149181e-003
2.366267e+003,2.020701e-003
2.368195e+003,1.881977e-003
2.370124e+003,1.692134e-003
2.372052e+003,1.471255e-003
2.373980e+003,1.289468e-003
2.375909e+003,1.095068e-003
2.377838e+003,8.746579e-004
2.379766e+003,5.255918e-004
2.381695e+003,3.100133e-004
2.383623e+003,3.560054e-004
2.385552e+003,3.021550e-004
2.387480e+003,2.589203e-004
2.389408e+003,3.865148e-004
2.391337e+003,3.884715e-004
2.393266e+003,3.068965e-004
2.395194e+003,2.367410e-004
2.397123e+003,2.884282e-004
2.399051e+003,3.601175e-004
2.400979e+003,3.185681e-004
2.402908e+003,2.496373e-004
2.404836e+003,2.178115e-004
2.406765e+003,1.817782e-004
2.408694e+003,1.465434e-004
2.410622e+003,2.023304e-004
2.412551e+003,2.010376e-004
2.414479e+003,2.009050e-004
2.416407e+003,2.645565e-004
2.418336e+003,2.942305e-004
2.420264e+003,2.479465e-004
2.422193e+003,1.696131e-004
2.424122e+003,1.878112e-004
2.426050e+003,3.304721e-004
2.427979e+003,3.447971e-004
2.429907e+003,3.413816e-004
2.431835e+003,3.863490e-004
2.433764e+003,3.713925e-004
2.435692e+003,3.148543e-004
2.437621e+003,3.200934e-004
2.439550e+003,2.739392e-004
2.441478e+003,2.252373e-004
2.443406e+003,2.280883e-004
2.445335e+003,2.927053e-004
2.447263e+003,3.381982e-004
2.449192e+003,2.886934e-004
2.451121e+003,3.079907e-004
2.453049e+003,3.550438e-004
2.454978e+003,3.977906e-004
2.456906e+003,4.130797e-004
2.458834e+003,3.572324e-004
2.460763e+003,3.763337e-004
2.462691e+003,2.688665e-004
2.464620e+003,1.954022e-004
2.466549e+003,2.269944e-004
2.468477e+003,3.429733e-004
2.470406e+003,3.454935e-004
2.472334e+003,2.807029e-004
2.474262e+003,3.291457e-004
2.476191e+003,3.424096e-004
2.478119e+003,2.750665e-004
2.480048e+003,3.213534e-004
2.481977e+003,4.174575e-004
2.483905e+003,3.361092e-004
2.485833e+003,2.338236e-004
2.487762e+003,2.271933e-004
2.489690e+003,1.939437e-004
2.491619e+003,2.518254e-004
2.493547e+003,3.179712e-004
2.495476e+003,3.289136e-004
2.497405e+003,3.539826e-004
2.499333e+003,3.076591e-004
2.501261e+003,2.696291e-004
2.503190e+003,2.104190e-004
2.505118e+003,1.960652e-004
2.507047e+003,1.589068e-004
2.508975e+003,1.122064e-004
2.510904e+003,1.143938e-004
2.512833e+003,2.091261e-004
2.514761e+003,2.107505e-004
2.516689e+003,1.827727e-004
2.518618e+003,2.887597e-004
2.520546e+003,4.043572e-004
2.522475e+003,3.684411e-004
2.524403e+003,2.676730e-004
2.526332e+003,2.717841e-004
2.528260e+003,3.284494e-004
2.530189e+003,3.003645e-004
2.532117e+003,2.721820e-004
2.534046e+003,2.308068e-004
2.535974e+003,2.539804e-004
2.537903e+003,2.671093e-004
2.539831e+003,3.148212e-004
2.541760e+003,2.563674e-004
2.543688e+003,2.747681e-004
2.545617e+003,3.049070e-004
2.547545e+003,2.838858e-004
2.549474e+003,2.541462e-004
2.551402e+003,2.116124e-004
2.553331e+003,2.093250e-004
2.555259e+003,2.280552e-004
2.557188e+003,2.730440e-004
2.559116e+003,2.299117e-004
2.561045e+003,1.870819e-004
2.562973e+003,2.146622e-004
2.564902e+003,3.360097e-004
2.566830e+003,3.744103e-004
2.568759e+003,2.353154e-004
2.570687e+003,2.618710e-004
2.572616e+003,3.943415e-004
2.574544e+003,4.201440e-004
2.576473e+003,3.403868e-004
2.578401e+003,2.456590e-004
2.580330e+003,1.714694e-004
2.582258e+003,1.617242e-004
2.584187e+003,2.421116e-004
2.586115e+003,2.270938e-004
2.588044e+003,1.664310e-004
2.589972e+003,2.264971e-004
2.591901e+003,2.940979e-004
2.593829e+003,2.662142e-004
2.595758e+003,2.017006e-004
2.597686e+003,1.457480e-004
2.599615e+003,1.606304e-004
2.601543e+003,2.238118e-004
2.603472e+003,1.804855e-004
2.605400e+003,1.808170e-004
2.607329e+003,2.369730e-004
2.609257e+003,3.451950e-004
2.611186e+003,3.195296e-004
2.613114e+003,2.944626e-004
2.615043e+003,2.750333e-004
2.616971e+003,1.973580e-004
2.618900e+003,1.913581e-004
2.620828e+003,2.225521e-004
2.622757e+003,3.106764e-004
2.624685e+003,3.006961e-004
2.626614e+003,2.409513e-004
2.628542e+003,2.291492e-004
2.630471e+003,1.963304e-004
2.632399e+003,1.223481e-004
2.634328e+003,1.390858e-004
2.636256e+003,2.073360e-004
2.638185e+003,3.129312e-004
2.640113e+003,2.726130e-004
2.642042e+003,1.577467e-004
2.643970e+003,2.257678e-004
2.645899e+003,3.188665e-004
2.647827e+003,2.882292e-004
2.649756e+003,2.950926e-004
2.651684e+003,2.555386e-004
2.653613e+003,1.741543e-004
2.655541e+003,2.530190e-004
2.657470e+003,2.840184e-004
2.659398e+003,3.624056e-004
2.661327e+003,3.962982e-004
2.663255e+003,2.897544e-004
2.665184e+003,1.956011e-004
2.667112e+003,2.739724e-004
2.669041e+003,2.949268e-004
2.670969e+003,2.300774e-004
2.672898e+003,1.375612e-004
2.674826e+003,1.870819e-004
2.676755e+003,2.097560e-004
2.678683e+003,1.832699e-004
2.680612e+003,1.562551e-004
2.682540e+003,1.307335e-004
2.684469e+003,2.109162e-004
2.686397e+003,3.206902e-004
2.688326e+003,3.697012e-004
2.690254e+003,3.833975e-004
2.692183e+003,2.333263e-004
2.694111e+003,1.669614e-004
2.696040e+003,1.705081e-004
2.697968e+003,1.848279e-004
2.699897e+003,2.761606e-004
2.701825e+003,2.535494e-004
2.703754e+003,2.214581e-004
2.705682e+003,2.637608e-004
2.707611e+003,2.900860e-004
2.709539e+003,2.774868e-004
2.711468e+003,2.199000e-004
2.713396e+003,2.195685e-004
2.715325e+003,2.433051e-004
2.717253e+003,2.451617e-004
2.719182e+003,2.248727e-004
2.721110e+003,2.079659e-004
2.723039e+003,2.617384e-004
2.724967e+003,2.967504e-004
2.726896e+003,2.228173e-004
2.728824e+003,2.188392e-004
2.730753e+003,2.647554e-004
2.732681e+003,2.578594e-004
2.734610e+003,2.458910e-004
2.736538e+003,2.435372e-004
2.738467e+003,2.435040e-004
2.740395e+003,2.796419e-004
2.742324e+003,2.681703e-004
2.744252e+003,3.051060e-004
2.746181e+003,3.305716e-004
2.748109e+003,2.404540e-004
2.750038e+003,2.184745e-004
2.751966e+003,2.888592e-004
2.753895e+003,3.041776e-004
2.755823e+003,2.574947e-004
2.757752e+003,1.588736e-004
2.759680e+003,8.894087e-005
2.761609e+003,1.627849e-004
2.763537e+003,3.044097e-004
2.765466e+003,2.569311e-004
2.767394e+003,2.252705e-004
2.769323e+003,2.432720e-004
2.771251e+003,2.718505e-004
2.773180e+003,2.667778e-004
2.775108e+003,2.057448e-004
2.777037e+003,2.223200e-004
2.778965e+003,1.975569e-004
2.780894e+003,2.306079e-004
2.782822e+003,3.381319e-004
2.784750e+003,3.216186e-004
2.786679e+003,2.619041e-004
2.788608e+003,2.222206e-004
2.790536e+003,1.561888e-004
2.792465e+003,1.570175e-004
2.794393e+003,1.798557e-004
2.796322e+003,2.254694e-004
2.798250e+003,3.048076e-004
2.800178e+003,2.334921e-004
2.802107e+003,1.816456e-004
2.804036e+003,1.929161e-004
2.805964e+003,1.144932e-004
2.807893e+003,1.463777e-004
2.809821e+003,2.185740e-004
2.811750e+003,1.709722e-004
2.813678e+003,6.030814e-005
2.815606e+003,1.151892e-004
2.817535e+003,1.735576e-004
2.819464e+003,2.114135e-004
2.821392e+003,2.173806e-004
2.823321e+003,1.664310e-004
2.825249e+003,2.270938e-004
2.827177e+003,2.582572e-004
2.829106e+003,1.997448e-004
2.831034e+003,1.131675e-004
2.832963e+003,5.093000e-005
2.834892e+003,1.334513e-004
2.836820e+003,1.990155e-004
2.838749e+003,1.568186e-004
2.840677e+003,5.686173e-005
2.842605e+003,2.165186e-004
2.844534e+003,3.495391e-004
2.846462e+003,2.655511e-004
2.848391e+003,2.306410e-004
2.850320e+003,1.736902e-004
2.852248e+003,1.235413e-004
2.854177e+003,8.171623e-005
2.856105e+003,6.574291e-005
2.858033e+003,1.541338e-004
2.859962e+003,3.303726e-004
2.861890e+003,2.756964e-004
2.863819e+003,1.569843e-004
2.865748e+003,1.816125e-004
2.867676e+003,1.958332e-004
2.869604e+003,3.288473e-004
2.871533e+003,3.930813e-004
2.873461e+003,3.618419e-004
2.875390e+003,2.406861e-004
2.877319e+003,5.225552e-005
2.879247e+003,9.391202e-005
2.881176e+003,1.647074e-004
2.883104e+003,1.648400e-004
2.885032e+003,2.921417e-004
2.886961e+003,3.659539e-004
2.888889e+003,2.577599e-004
2.890818e+003,1.800877e-004
2.892747e+003,1.638456e-004
2.894675e+003,7.734173e-005
2.896604e+003,4.572521e-006
2.898532e+003,3.402999e-005
2.900460e+003,1.306672e-004
2.902389e+003,1.509849e-004
2.904317e+003,4.075678e-005
2.906246e+003,1.077653e-004
2.908175e+003,2.093250e-004
2.910103e+003,2.048829e-004
2.912031e+003,1.543989e-004
2.913960e+003,2.224526e-004
2.915888e+003,2.507645e-004
2.917817e+003,1.158189e-004
2.919745e+003,1.701766e-004
2.921674e+003,2.605780e-004
2.923603e+003,3.090849e-004
2.925531e+003,2.513613e-004
2.927459e+003,1.931150e-004
2.929388e+003,1.706738e-004
2.931316e+003,1.305015e-004
2.933245e+003,1.010706e-004
2.935173e+003,1.492282e-004
2.937102e+003,1.451514e-004
2.939031e+003,1.879107e-004
2.940959e+003,6.905683e-005
2.942887e+003,6.792531e-006
2.944816e+003,8.811235e-005
2.946744e+003,2.149274e-004
2.948673e+003,2.448302e-004
2.950601e+003,1.767729e-004
2.952530e+003,1.364343e-004
2.954458e+003,1.334513e-004
2.956387e+003,1.441570e-004
2.958315e+003,2.681703e-004
2.960244e+003,2.261324e-004
2.962172e+003,9.278522e-005
2.964101e+003,7.190682e-005
2.966029e+003,1.596029e-004
2.967958e+003,1.870819e-004
2.969886e+003,1.660996e-004
2.971815e+003,2.490406e-004
2.973743e+003,2.150932e-004
2.975672e+003,1.101184e-004
2.977600e+003,1.668619e-004
2.979529e+003,3.075265e-004
2.981457e+003,3.447308e-004
2.983386e+003,2.842174e-004
2.985314e+003,2.441339e-004
2.987243e+003,1.896675e-004
2.989171e+003,2.067393e-004
2.991100e+003,2.045846e-004
2.993028e+003,1.879107e-004
2.994957e+003,3.023539e-004
2.996885e+003,3.285488e-004
2.998814e+003,2.498031e-004
3.000742e+003,1.867505e-004
3.002671e+003,2.155904e-004
3.004599e+003,2.882624e-004
3.006528e+003,3.627041e-004
3.008456e+003,2.706569e-004
3.010385e+003,2.132368e-004
3.012313e+003,2.271269e-004
3.014242e+003,2.139661e-004
3.016170e+003,2.590529e-004
3.018099e+003,2.759948e-004
3.020027e+003,2.517260e-004
3.021956e+003,2.445649e-004
3.023884e+003,2.318676e-004
3.025813e+003,2.129715e-004
3.027741e+003,8.214705e-005
3.029670e+003,2.123944e-005
3.031598e+003,1.321918e-004
3.033527e+003,1.753144e-004
3.035455e+003,1.957337e-004
3.037384e+003,2.610753e-004
3.039312e+003,3.027850e-004
3.041241e+003,1.989824e-004
3.043169e+003,6.388713e-005
3.045098e+003,9.530396e-005
3.047026e+003,1.883416e-004
3.048955e+003,1.372297e-004
3.050883e+003,8.904029e-005
3.052812e+003,1.288443e-004
3.054740e+003,1.375943e-004
3.056669e+003,2.063084e-004
3.058597e+003,1.534377e-004
3.060526e+003,7.734173e-005
3.062454e+003,1.410082e-004
3.064383e+003,1.570175e-004
3.066311e+003,1.837671e-004
3.068240e+003,3.021218e-004
3.070168e+003,2.313372e-004
3.072097e+003,5.676232e-005
3.074025e+003,1.055116e-004
3.075954e+003,1.678895e-004
3.077882e+003,2.009382e-004
3.079811e+003,2.307405e-004
3.081739e+003,2.107173e-004
3.083668e+003,1.448199e-004
3.085596e+003,-5.851077e-005
3.087525e+003,-1.612003e-004
3.089453e+003,-1.148274e-004
3.091382e+003,3.628329e-005
3.093310e+003,2.402219e-004
3.095239e+003,1.722649e-004
3.097167e+003,-5.334547e-006
3.099096e+003,4.247991e-005
3.101024e+003,1.003415e-004
3.102953e+003,1.421351e-004
3.104881e+003,1.171778e-004
3.106810e+003,1.299049e-004
3.108738e+003,4.837839e-005
3.110667e+003,2.803230e-005
3.112595e+003,9.987748e-005
3.114524e+003,1.764746e-004
3.116452e+003,5.056549e-005
3.118381e+003,3.595192e-005
3.120309e+003,8.880831e-005
3.122238e+003,7.638067e-005
3.124166e+003,1.110795e-004
3.126095e+003,1.958000e-004
3.128023e+003,1.059756e-004
3.129952e+003,-5.500216e-006
3.131880e+003,1.660047e-005
3.133809e+003,7.399461e-005
3.135737e+003,6.362201e-005
3.137666e+003,1.053127e-004
3.139594e+003,7.498881e-005
3.141523e+003,9.729244e-005
3.143451e+003,2.659158e-004
3.145380e+003,2.504993e-004
3.147308e+003,5.238808e-005
3.149237e+003,8.357209e-005
3.151165e+003,2.436698e-004
3.153094e+003,1.993470e-004
3.155022e+003,7.290101e-005
3.156951e+003,7.843535e-005
3.158879e+003,8.019178e-005
3.160808e+003,1.128029e-004
3.162736e+003,1.151561e-004
3.164665e+003,4.874291e-005
3.166593e+003,-5.970343e-005
3.168522e+003,-1.078379e-004
3.170450e+003,-7.318693e-005
3.172379e+003,-5.824574e-005
3.174307e+003,1.650106e-005
3.176236e+003,1.667625e-004
3.178164e+003,1.230441e-004
3.180093e+003,3.850346e-005
3.182021e+003,1.508523e-004
3.183950e+003,1.677569e-004
3.185878e+003,1.073344e-004
3.187807e+003,1.857560e-004
3.189735e+003,2.609758e-004
3.191664e+003,1.610944e-004
3.193592e+003,1.458805e-004
3.195521e+003,2.032918e-004
3.197449e+003,1.403453e-004
3.199378e+003,5.086373e-005
3.201306e+003,-3.508753e-005
3.203235e+003,2.226665e-005
3.205163e+003,1.134658e-004
3.207092e+003,4.065737e-005
3.209020e+003,2.786662e-005
3.210948e+003,9.576793e-005
3.212877e+003,1.020648e-004
3.214806e+003,6.567664e-005
3.216734e+003,-3.366288e-005
3.218663e+003,1.623598e-005
3.220591e+003,3.353294e-005
3.222520e+003,-4.810796e-005
3.224448e+003,-3.710854e-005
3.226376e+003,-2.776544e-005
3.228305e+003,5.434017e-006
3.230234e+003,1.161503e-004
3.232162e+003,1.052465e-004
3.234091e+003,8.068888e-005
3.236019e+003,-2.644016e-005
3.237948e+003,-1.320522e-004
3.239876e+003,2.988793e-005
3.241804e+003,2.403546e-004
3.243733e+003,2.587545e-004
3.245662e+003,2.368404e-004
3.247590e+003,1.996122e-004
3.249519e+003,1.280488e-004
3.251447e+003,1.926840e-004
3.253375e+003,1.019986e-004
3.255304e+003,5.437636e-005
3.257232e+003,1.765409e-004
3.259161e+003,2.235135e-004
3.261090e+003,2.553728e-004
3.263018e+003,2.487090e-004
3.264947e+003,8.834434e-005
3.266875e+003,-1.652743e-004
3.268803e+003,-5.605918e-005
3.270732e+003,1.004409e-004
3.272660e+003,9.165842e-005
3.274589e+003,1.462783e-004
3.276518e+003,1.866842e-004
3.278446e+003,1.268225e-004
3.280375e+003,1.274522e-004
3.282303e+003,1.150566e-004
3.284231e+003,1.456154e-004
3.286160e+003,1.206578e-004
3.288088e+003,6.133544e-005
3.290017e+003,-1.306941e-004
3.291946e+003,6.421852e-005
3.293874e+003,2.146291e-004
3.295802e+003,1.181389e-004
3.297731e+003,1.018328e-004
3.299659e+003,1.182052e-004
3.301588e+003,5.460833e-005
3.303516e+003,-1.503362e-004
3.305445e+003,-1.162518e-004
3.307374e+003,7.886617e-005
3.309302e+003,6.332377e-005
3.311230e+003,5.434017e-006
3.313159e+003,1.795902e-005
3.315087e+003,7.551904e-005
3.317016e+003,1.890377e-004
3.318944e+003,1.733256e-004
3.320873e+003,8.668730e-005
3.322802e+003,8.642217e-005
3.324730e+003,7.853477e-005
3.326658e+003,-5.009578e-005
3.328587e+003,-3.422612e-005
3.330515e+003,6.136858e-005
3.332444e+003,-6.202250e-005
3.334372e+003,-8.494737e-005
3.336301e+003,4.241364e-005
3.338229e+003,2.892698e-005
3.340158e+003,-4.042334e-006
3.342086e+003,1.500568e-004
3.344015e+003,1.494602e-004
3.345943e+003,9.583421e-005
3.347872e+003,3.721112e-005
3.349800e+003,3.137907e-005
3.351729e+003,2.637550e-005
3.353657e+003,1.845605e-005
3.355586e+003,-2.349140e-005
3.357514e+003,6.690278e-005
3.359443e+003,4.072364e-005
3.361371e+003,-7.428016e-005
3.363300e+003,-7.753296e-006
3.365229e+003,8.297556e-005
3.367157e+003,3.810431e-006
3.369085e+003,-6.791947e-005
3.371014e+003,-9.773442e-005
3.372942e+003,-1.272329e-005
3.374871e+003,-5.964086e-006
3.376799e+003,1.702429e-004
3.378728e+003,2.060100e-004
3.380656e+003,4.443502e-005
3.382585e+003,3.078261e-005
3.384513e+003,6.425165e-005
3.386442e+003,-3.048225e-005
3.388370e+003,-2.080768e-005
3.390299e+003,1.656702e-007
3.392227e+003,1.746515e-004
3.394156e+003,2.571631e-004
3.396084e+003,1.645748e-004
3.398013e+003,2.054359e-005
3.399941e+003,3.091516e-005
3.401870e+003,3.545487e-005
3.403798e+003,1.358498e-006
3.405727e+003,9.649705e-005
3.407655e+003,1.805518e-004
3.409584e+003,8.426804e-005
3.411512e+003,7.286786e-005
3.413441e+003,9.252009e-005
3.415369e+003,-1.557297e-006
3.417298e+003,-3.402733e-005
3.419226e+003,1.170452e-004
3.421155e+003,1.424335e-004
3.423083e+003,-3.091296e-005
3.425012e+003,3.976103e-006
3.426940e+003,9.225497e-005
3.428869e+003,9.215554e-005
3.430797e+003,5.063176e-005
3.432726e+003,8.681205e-006
3.434654e+003,1.477367e-004
3.436583e+003,6.942136e-005
3.438511e+003,-7.103357e-005
3.440440e+003,4.194972e-005
3.442368e+003,-6.162888e-006
3.444297e+003,-6.394399e-005
3.446225e+003,9.046535e-005
3.448154e+003,2.360448e-004
3.450082e+003,1.749830e-004
3.452011e+003,1.081961e-004
3.453939e+003,9.165842e-005
3.455868e+003,4.798074e-005
3.457796e+003,1.151561e-004
3.459725e+003,1.120075e-004
3.461653e+003,1.391190e-004
3.463582e+003,2.861736e-004
3.465510e+003,1.670277e-004
3.467439e+003,1.158852e-004
3.469367e+003,1.741211e-004
3.471296e+003,1.194978e-004
3.473224e+003,1.594371e-004
3.475153e+003,3.330098e-005
3.477081e+003,-1.126556e-006
3.479010e+003,2.995420e-005
3.480938e+003,3.976103e-006
3.482867e+003,-6.265195e-005
3.484795e+003,1.262590e-004
3.486724e+003,2.495710e-004
3.488652e+003,1.759774e-004
3.490581e+003,2.258341e-004
3.492509e+003,2.063747e-004
3.494438e+003,1.052465e-004
3.496366e+003,1.640166e-005
3.498295e+003,-7.179553e-005
3.500223e+003,4.542914e-005
3.502152e+003,3.292452e-004
3.504080e+003,3.848898e-004
3.506009e+003,1.919548e-004
3.507937e+003,1.630169e-004
3.509866e+003,9.106188e-005
3.511794e+003,7.488357e-006
3.513723e+003,-1.020409e-004
3.515651e+003,-1.226780e-004
3.517580e+003,-1.202930e-004
3.519508e+003,-5.413765e-005
3.521437e+003,1.082955e-004
3.523365e+003,3.352470e-004
3.525294e+003,2.570305e-004
3.527222e+003,1.633539e-005
3.529151e+003,4.516404e-005
3.531079e+003,-3.200630e-005
3.533008e+003,-1.802454e-005
3.534936e+003,8.814549e-005
3.536865e+003,4.692033e-005
3.538793e+003,-1.168480e-004
3.540722e+003,-3.213806e-004
3.542650e+003,-3.117126e-004
3.544579e+003,-1.686490e-005
3.546507e+003,4.308236e-004
3.548436e+003,4.340408e-004
3.550364e+003,2.469188e-004
3.552293e+003,2.320665e-004
3.554221e+003,1.441901e-004
3.556150e+003,9.755757e-005
3.558078e+003,2.322986e-004
3.560007e+003,2.488748e-004
3.561935e+003,7.353066e-005
3.563864e+003,1.329210e-004
3.565792e+003,4.948737e-004
3.567721e+003,3.606481e-004
3.569649e+003,1.362685e-004
3.571578e+003,2.600143e-004
3.573506e+003,2.334589e-004
3.575435e+003,1.700109e-004
3.577363e+003,2.409181e-004
3.579292e+003,1.105161e-004
3.581220e+003,1.805843e-005
3.583149e+003,1.026614e-004
3.585077e+003,3.769638e-004
3.587006e+003,7.719799e-004
3.588934e+003,3.888031e-004
3.590863e+003,-1.992887e-004
3.592791e+003,-1.232569e-005
3.594720e+003,3.010276e-004
3.596648e+003,3.344844e-004
3.598577e+003,1.471732e-004
3.600505e+003,2.048166e-004
3.602434e+003,2.286519e-004
3.604362e+003,1.788944e-004
3.606291e+003,3.831653e-004
3.608219e+003,7.121370e-004
3.610148e+003,6.210444e-004
3.612076e+003,5.190566e-004
3.614005e+003,3.846245e-004
3.615933e+003,3.474168e-004
3.617862e+003,6.781534e-004
3.619790e+003,5.076781e-004
3.621719e+003,3.750935e-005
3.623647e+003,-5.957092e-005
3.625576e+003,3.294110e-004
3.627504e+003,1.172472e-003
3.629433e+003,1.321505e-003
3.631361e+003,4.501935e-004
3.633290e+003,2.174800e-004
3.635218e+003,1.857229e-004
3.637146e+003,2.109162e-004
3.639075e+003,2.281215e-004
3.641004e+003,3.220748e-005
3.642932e+003,1.086810e-005
3.644861e+003,3.196623e-004
3.646789e+003,8.466374e-004
3.648718e+003,1.130479e-003
3.650646e+003,7.635821e-004
3.652574e+003,1.071687e-004
3.654503e+003,3.646275e-004
3.656432e+003,7.567778e-004
3.658360e+003,4.209400e-004
3.660289e+003,1.104498e-004
3.662217e+003,-1.852153e-005
3.664146e+003,-6.159181e-005
3.666074e+003,-7.391575e-005
3.668002e+003,2.453606e-004
3.669931e+003,5.593313e-004
3.671860e+003,3.614439e-004
3.673788e+003,9.462449e-004
3.675717e+003,1.420823e-003
3.677645e+003,6.943152e-004
3.679573e+003,3.416800e-004
3.681502e+003,2.534831e-004
3.683430e+003,8.804606e-005
3.685359e+003,1.741211e-004
3.687288e+003,8.784428e-004
3.689216e+003,1.111411e-003
3.691145e+003,7.296277e-004
3.693073e+003,3.202591e-004
3.695001e+003,1.903305e-004
3.696930e+003,2.342546e-004
3.698858e+003,2.596497e-004
3.700787e+003,4.490326e-004
3.702716e+003,3.901960e-004
3.704644e+003,2.696954e-004
3.706573e+003,3.767980e-004
3.708501e+003,5.795695e-004
3.710429e+003,9.120769e-004
3.712358e+003,8.306358e-004
3.714286e+003,1.596029e-004
3.716215e+003,-4.525874e-005
3.718144e+003,2.173143e-004
3.720072e+003,2.583235e-004
3.722000e+003,2.261656e-004
3.723929e+003,1.919216e-004
3.725857e+003,1.462120e-004
3.727786e+003,-1.606704e-004
3.729714e+003,-6.109487e-005
3.731643e+003,5.686872e-004
3.733572e+003,9.390391e-004
3.735500e+003,9.671653e-004
3.737428e+003,4.481371e-004
3.739357e+003,7.386205e-005
3.741285e+003,3.168770e-004
3.743214e+003,1.172904e-003
3.745142e+003,1.031162e-003
3.747071e+003,5.987139e-004
3.749000e+003,1.296912e-003
3.750928e+003,1.402872e-003
3.752856e+003,6.300366e-004
3.754785e+003,1.582439e-004
3.756713e+003,2.712537e-004
3.758642e+003,3.109086e-004
3.760570e+003,3.264267e-004
3.762499e+003,1.386218e-004
3.764427e+003,2.478139e-004
3.766356e+003,2.549087e-004
3.768284e+003,2.121096e-004
3.770213e+003,2.801392e-004
3.772141e+003,5.334908e-005
3.774070e+003,-1.200943e-004
3.775998e+003,-7.298816e-005
3.777927e+003,2.193033e-004
3.779855e+003,3.323953e-004
3.781784e+003,2.528201e-005
3.783712e+003,-6.858205e-005
3.785641e+003,-4.002408e-005
3.787569e+003,-2.209984e-005
3.789498e+003,-2.089924e-004
3.791426e+003,-3.360148e-004
3.793355e+003,-3.657120e-004
3.795283e+003,9.310765e-006
3.797212e+003,3.999131e-004
3.799140e+003,6.307335e-004
3.801069e+003,8.429523e-004
3.802997e+003,2.752986e-004
3.804926e+003,2.379344e-004
3.806854e+003,5.175306e-004
3.808783e+003,8.396978e-005
3.810711e+003,-1.887567e-004
3.812640e+003,-1.429830e-004
3.814568e+003,1.944078e-004
3.816497e+003,4.235601e-004
3.818425e+003,6.257230e-004
3.820354e+003,1.257234e-003
3.822282e+003,8.523475e-004
3.824211e+003,1.152223e-004
3.826139e+003,1.356719e-004
3.828068e+003,1.015677e-004
3.829996e+003,2.435703e-004
3.831925e+003,3.361755e-004
3.833853e+003,3.534189e-004
3.835782e+003,7.088514e-004
3.837710e+003,9.570702e-004
3.839639e+003,6.850561e-004
3.841567e+003,5.765835e-004
3.843496e+003,5.846790e-004
3.845424e+003,2.090598e-004
3.847353e+003,-2.820116e-004
3.849281e+003,-2.292933e-004
3.851210e+003,8.474673e-004
3.853138e+003,1.987747e-003
3.855067e+003,1.232677e-003
3.856995e+003,3.508987e-004
3.858924e+003,2.228173e-004
3.860852e+003,3.919537e-004
3.862781e+003,6.135455e-004
3.864709e+003,5.560136e-004
3.866638e+003,1.538023e-004
3.868566e+003,5.796027e-004
3.870495e+003,8.281461e-004
3.872423e+003,7.521309e-004
3.874352e+003,7.152568e-004
3.876280e+003,4.007091e-004
3.878209e+003,5.524306e-004
3.880137e+003,6.728437e-004
3.882066e+003,4.695311e-004
3.883994e+003,5.341840e-004
3.885923e+003,6.503778e-004
3.887851e+003,3.603165e-004
3.889780e+003,6.120523e-004
3.891708e+003,6.180581e-004
3.893637e+003,3.375682e-004
3.895565e+003,1.683536e-004
3.897494e+003,1.150235e-004
3.899422e+003,4.026658e-004
3.901351e+003,5.956282e-004
3.903279e+003,6.727442e-004
3.905208e+003,4.175239e-004
3.907136e+003,-5.317688e-005
3.909065e+003,-1.127405e-004
3.910993e+003,-1.343378e-004
3.912922e+003,-2.042564e-004
3.914850e+003,-2.100647e-005
3.916779e+003,2.566658e-004
3.918707e+003,3.149207e-004
3.920636e+003,2.461231e-004
3.922564e+003,2.919096e-004
3.924493e+003,2.248727e-004
3.926421e+003,9.271894e-005
3.928350e+003,1.565203e-004
3.930278e+003,1.727621e-004
3.932207e+003,1.387875e-004
3.934135e+003,1.241378e-004
3.936064e+003,8.188193e-005
3.937992e+003,-3.690975e-005
3.939921e+003,-1.036309e-004
3.941849e+003,-3.936145e-005
3.943778e+003,-1.728259e-004
3.945706e+003,-6.258569e-005
3.947635e+003,1.707401e-004
3.949563e+003,1.820766e-004
3.951492e+003,-9.839695e-005
3.953420e+003,-2.441955e-004
3.955349e+003,-2.795944e-004
3.957277e+003,-2.076014e-004
3.959206e+003,-1.726603e-004
3.961134e+003,-3.681036e-005
3.963063e+003,-1.133169e-005
3.964991e+003,8.294242e-005
3.966920e+003,1.507529e-004
3.968848e+003,8.930542e-005
3.970777e+003,1.731267e-004
3.972705e+003,7.896560e-005
3.974634e+003,-1.104217e-004
3.976562e+003,-2.911837e-004
3.978491e+003,-1.794500e-004
3.980419e+003,7.714290e-005
3.982348e+003,2.164192e-004
3.984276e+003,1.501231e-004
3.986205e+003,2.995420e-005
3.988133e+003,2.243232e-005
3.990062e+003,8.953740e-005
3.991990e+003,1.643096e-004
3.993919e+003,3.459331e-005
3.995847e+003,-1.882931e-004
3.997776e+003,-7.378324e-005
3.999704e+003,-1.371728e-005
4.001633e+003,0.000000e+000
