3.991989e+002,9.379550e-003
4.011274e+002,8.117859e-003
4.030559e+002,3.550906e-003
4.049844e+002,9.903783e-004
4.069129e+002,3.099057e-003
4.088414e+002,5.167893e-003
4.107699e+002,5.105129e-003
4.126984e+002,2.058818e-003
4.146269e+002,-2.513319e-003
4.165554e+002,1.047536e-003
4.184839e+002,4.318989e-003
4.204124e+002,2.443772e-003
4.223409e+002,3.494621e-003
4.242694e+002,3.578668e-003
4.261979e+002,8.755543e-004
4.281264e+002,-5.224413e-004
4.300549e+002,-8.323242e-004
4.319834e+002,-4.764389e-003
4.339119e+002,-6.278296e-003
4.358404e+002,-6.194627e-004
4.377689e+002,1.007050e-003
4.396974e+002,-2.901476e-003
4.416259e+002,-5.585024e-003
4.435544e+002,-4.178644e-003
4.454829e+002,-1.252118e-003
4.474114e+002,1.548327e-003
4.493399e+002,-1.544544e-003
4.512684e+002,-8.556576e-003
4.531969e+002,-8.267989e-003
4.551254e+002,-3.900236e-003
4.570539e+002,-4.479437e-003
4.589824e+002,-6.900094e-003
4.609109e+002,-6.563181e-003
4.628394e+002,-5.874515e-003
4.647679e+002,-8.013986e-003
4.666964e+002,-7.538977e-003
4.686249e+002,-7.761298e-003
4.705533e+002,-7.754236e-003
4.724819e+002,-6.769888e-003
4.744103e+002,-6.301777e-003
4.763389e+002,-5.274555e-003
4.782673e+002,-4.328952e-003
4.801959e+002,-4.715228e-003
4.821243e+002,-5.269743e-003
4.840529e+002,-6.153621e-003
4.859813e+002,-5.589506e-003
4.879099e+002,-4.989314e-003
4.898383e+002,-5.980676e-003
4.917668e+002,-8.071004e-003
4.936953e+002,-6.890408e-003
4.956238e+002,-7.188546e-003
4.975523e+002,-1.099228e-002
4.994808e+002,-1.162734e-002
5.014093e+002,-8.194773e-003
5.033378e+002,-5.161673e-003
5.052663e+002,-4.438213e-003
5.071948e+002,-8.062125e-003
5.091233e+002,-1.057957e-002
5.110518e+002,-1.122327e-002
5.129803e+002,-1.198056e-002
5.149088e+002,-1.230247e-002
5.168373e+002,-1.129989e-002
5.187658e+002,-1.109293e-002
5.206943e+002,-1.128930e-002
5.226228e+002,-1.166573e-002
5.245513e+002,-1.195696e-002
5.264798e+002,-1.192260e-002
5.284083e+002,-1.186992e-002
5.303368e+002,-1.277700e-002
5.322653e+002,-1.340923e-002
5.341938e+002,-1.288753e-002
5.361223e+002,-1.245122e-002
5.380508e+002,-1.240160e-002
5.399792e+002,-1.182388e-002
5.419078e+002,-1.254300e-002
5.438363e+002,-1.226263e-002
5.457648e+002,-1.140357e-002
5.476932e+002,-1.121081e-002
5.496218e+002,-1.211836e-002
5.515503e+002,-1.208350e-002
5.534788e+002,-1.197895e-002
5.554072e+002,-1.122088e-002
5.573358e+002,-1.127764e-002
5.592643e+002,-1.107368e-002
5.611927e+002,-1.142893e-002
5.631212e+002,-1.134802e-002
5.650497e+002,-1.145117e-002
5.669783e+002,-1.086242e-002
5.689067e+002,-9.545865e-003
5.708352e+002,-9.964481e-003
5.727637e+002,-1.222803e-002
5.746923e+002,-1.321906e-002
5.766207e+002,-1.121946e-002
5.785492e+002,-1.014828e-002
5.804777e+002,-1.903790e-002
5.824063e+002,-2.073241e-002
5.843347e+002,-1.268636e-002
5.862632e+002,-1.041922e-002
5.881917e+002,-1.071895e-002
5.901202e+002,-1.153346e-002
5.920487e+002,-1.342215e-002
5.939772e+002,-1.500873e-002
5.959057e+002,-1.394692e-002
5.978342e+002,-1.065501e-002
5.997627e+002,-9.589622e-003
6.016912e+002,-9.117015e-003
6.036197e+002,-6.742061e-003
6.055482e+002,-5.091729e-003
6.074767e+002,-5.542695e-003
6.094052e+002,-4.389178e-003
6.113337e+002,-2.794066e-003
6.132622e+002,-3.979401e-003
6.151907e+002,-4.410466e-003
6.171192e+002,-4.428275e-003
6.190477e+002,-5.685238e-003
6.209762e+002,-4.823867e-003
6.229047e+002,-6.878243e-003
6.248332e+002,-1.143491e-002
6.267617e+002,-1.396428e-002
6.286902e+002,-1.432529e-002
6.306187e+002,-1.380402e-002
6.325472e+002,-1.298701e-002
6.344756e+002,-1.231088e-002
6.364042e+002,-1.285797e-002
6.383326e+002,-1.340518e-002
6.402612e+002,-1.326605e-002
6.421896e+002,-1.268156e-002
6.441182e+002,-1.307585e-002
6.460466e+002,-1.349664e-002
6.479752e+002,-1.344145e-002
6.499036e+002,-1.376729e-002
6.518322e+002,-1.374999e-002
6.537606e+002,-1.348642e-002
6.556891e+002,-1.359694e-002
6.576177e+002,-1.424635e-002
6.595461e+002,-1.443283e-002
6.614746e+002,-1.491157e-002
6.634031e+002,-1.477820e-002
6.653317e+002,-1.342002e-002
6.672601e+002,-8.968907e-003
6.691886e+002,-9.889444e-003
6.711171e+002,-1.373214e-002
6.730457e+002,-1.403425e-002
6.749741e+002,-1.402267e-002
6.769026e+002,-1.421441e-002
6.788311e+002,-1.418885e-002
6.807596e+002,-1.403021e-002
6.826881e+002,-1.372155e-002
6.846166e+002,-1.322363e-002
6.865451e+002,-1.288470e-002
6.884736e+002,-1.292143e-002
6.904021e+002,-1.274557e-002
6.923306e+002,-1.276925e-002
6.942591e+002,-1.241580e-002
6.961876e+002,-1.199013e-002
6.981161e+002,-1.197943e-002
7.000446e+002,-1.229371e-002
7.019731e+002,-1.228643e-002
7.039016e+002,-1.196573e-002
7.058301e+002,-1.217494e-002
7.077585e+002,-1.251390e-002
7.096871e+002,-1.218989e-002
7.116156e+002,-1.209258e-002
7.135441e+002,-1.279248e-002
7.154725e+002,-1.314211e-002
7.174011e+002,-1.332238e-002
7.193296e+002,-1.353287e-002
7.212581e+002,-1.334921e-002
7.231865e+002,-1.286968e-002
7.251151e+002,-1.248528e-002
7.270436e+002,-1.224214e-002
7.289720e+002,-1.215161e-002
7.309005e+002,-1.188237e-002
7.328290e+002,-1.195206e-002
7.347576e+002,-1.233664e-002
7.366860e+002,-1.283449e-002
7.386145e+002,-1.277378e-002
7.405430e+002,-1.195052e-002
7.424716e+002,-1.168450e-002
7.444000e+002,-1.185041e-002
7.463285e+002,-1.158514e-002
7.482570e+002,-1.154723e-002
7.501855e+002,-1.149425e-002
7.521140e+002,-1.087910e-002
7.540425e+002,-1.044244e-002
7.559710e+002,-1.050742e-002
7.578995e+002,-1.061763e-002
7.598280e+002,-1.043196e-002
7.617565e+002,-1.017731e-002
7.636850e+002,-9.548037e-003
7.656135e+002,-9.232961e-003
7.675420e+002,-9.255601e-003
7.694705e+002,-9.450169e-003
7.713990e+002,-9.796934e-003
7.733275e+002,-9.834187e-003
7.752560e+002,-9.817439e-003
7.771844e+002,-1.000496e-002
7.791130e+002,-1.017974e-002
7.810415e+002,-1.026113e-002
7.829700e+002,-1.061323e-002
7.848984e+002,-1.073557e-002
7.868270e+002,-1.057443e-002
7.887555e+002,-1.085289e-002
7.906840e+002,-1.130295e-002
7.926124e+002,-1.166760e-002
7.945410e+002,-1.213251e-002
7.964695e+002,-1.260645e-002
7.983979e+002,-1.267844e-002
8.003264e+002,-1.265778e-002
8.022549e+002,-1.260725e-002
8.041835e+002,-1.217346e-002
8.061119e+002,-1.225103e-002
8.080404e+002,-1.254403e-002
8.099689e+002,-1.203570e-002
8.118975e+002,-1.142364e-002
8.138259e+002,-1.125801e-002
8.157545e+002,-1.145546e-002
8.176830e+002,-1.136051e-002
8.196115e+002,-1.182282e-002
8.215399e+002,-1.205520e-002
8.234684e+002,-1.166031e-002
8.253970e+002,-1.162018e-002
8.273254e+002,-1.194993e-002
8.292539e+002,-1.197759e-002
8.311824e+002,-1.189529e-002
8.331110e+002,-1.159914e-002
8.350394e+002,-1.151516e-002
8.369679e+002,-1.126247e-002
8.388964e+002,-1.096178e-002
8.408250e+002,-1.104436e-002
8.427534e+002,-1.156653e-002
8.446819e+002,-1.191954e-002
8.466104e+002,-1.200982e-002
8.485389e+002,-1.213189e-002
8.504674e+002,-1.225351e-002
8.523959e+002,-1.202787e-002
8.543244e+002,-1.204389e-002
8.562529e+002,-1.234811e-002
8.581814e+002,-1.244607e-002
8.601099e+002,-1.235304e-002
8.620384e+002,-1.264587e-002
8.639669e+002,-1.259331e-002
8.658954e+002,-1.270586e-002
8.678239e+002,-1.319656e-002
8.697524e+002,-1.310861e-002
8.716809e+002,-1.270152e-002
8.736094e+002,-1.285350e-002
8.755378e+002,-1.334925e-002
8.774664e+002,-1.315963e-002
8.793949e+002,-1.307524e-002
8.813234e+002,-1.344980e-002
8.832518e+002,-1.312906e-002
8.851804e+002,-1.284170e-002
8.871089e+002,-1.272044e-002
8.890374e+002,-1.274592e-002
8.909658e+002,-1.257893e-002
8.928943e+002,-1.241161e-002
8.948229e+002,-1.271268e-002
8.967513e+002,-1.272671e-002
8.986798e+002,-1.257741e-002
9.006083e+002,-1.268951e-002
9.025369e+002,-1.253950e-002
9.044653e+002,-1.239345e-002
9.063938e+002,-1.273993e-002
9.083223e+002,-1.313819e-002
9.102509e+002,-1.306740e-002
9.121793e+002,-1.271384e-002
9.141078e+002,-1.284527e-002
9.160364e+002,-1.289693e-002
9.179648e+002,-1.263767e-002
9.198933e+002,-1.259933e-002
9.218218e+002,-1.271545e-002
9.237504e+002,-1.299798e-002
9.256788e+002,-1.329729e-002
9.276073e+002,-1.355917e-002
9.295358e+002,-1.359212e-002
9.314644e+002,-1.350325e-002
9.333928e+002,-1.330130e-002
9.353213e+002,-1.336550e-002
9.372498e+002,-1.345135e-002
9.391783e+002,-1.359459e-002
9.411068e+002,-1.347721e-002
9.430353e+002,-1.321437e-002
9.449637e+002,-1.324596e-002
9.468923e+002,-1.337881e-002
9.488208e+002,-1.355776e-002
9.507493e+002,-1.347550e-002
9.526777e+002,-1.338645e-002
9.546063e+002,-1.339429e-002
9.565348e+002,-1.326827e-002
9.584633e+002,-1.341852e-002
9.603917e+002,-1.343528e-002
9.623203e+002,-1.328032e-002
9.642488e+002,-1.318123e-002
9.661772e+002,-1.316281e-002
9.681057e+002,-1.330869e-002
9.700343e+002,-1.365323e-002
9.719628e+002,-1.367962e-002
9.738912e+002,-1.354000e-002
9.758197e+002,-1.369930e-002
9.777483e+002,-1.376270e-002
9.796768e+002,-1.375115e-002
9.816052e+002,-1.383496e-002
9.835337e+002,-1.391551e-002
9.854623e+002,-1.402091e-002
9.873907e+002,-1.405761e-002
9.893192e+002,-1.406203e-002
9.912477e+002,-1.412676e-002
9.931763e+002,-1.425199e-002
9.951047e+002,-1.435789e-002
9.970332e+002,-1.435465e-002
9.989617e+002,-1.426071e-002
1.000890e+003,-1.410883e-002
1.002819e+003,-1.390530e-002
1.004747e+003,-1.380751e-002
1.006676e+003,-1.359861e-002
1.008604e+003,-1.331718e-002
1.010533e+003,-1.309685e-002
1.012461e+003,-1.298849e-002
1.014390e+003,-1.292607e-002
1.016318e+003,-1.256084e-002
1.018247e+003,-1.208176e-002
1.020175e+003,-1.184658e-002
1.022104e+003,-1.152600e-002
1.024032e+003,-1.106083e-002
1.025961e+003,-1.052227e-002
1.027889e+003,-1.018233e-002
1.029818e+003,-9.872861e-003
1.031746e+003,-9.459960e-003
1.033675e+003,-9.019018e-003
1.035603e+003,-8.726063e-003
1.037532e+003,-8.329785e-003
1.039460e+003,-7.894688e-003
1.041389e+003,-7.697274e-003
1.043317e+003,-7.509310e-003
1.045246e+003,-7.136823e-003
1.047174e+003,-6.897484e-003
1.049103e+003,-6.674361e-003
1.051031e+003,-6.886298e-003
1.052960e+003,-6.931725e-003
1.054888e+003,-6.799018e-003
1.056817e+003,-6.615528e-003
1.058745e+003,-6.607761e-003
1.060674e+003,-6.708457e-003
1.062602e+003,-6.749074e-003
1.064531e+003,-6.656056e-003
1.066459e+003,-6.523101e-003
1.068388e+003,-6.445182e-003
1.070316e+003,-6.515724e-003
1.072245e+003,-6.414918e-003
1.074173e+003,-6.440775e-003
1.076102e+003,-6.522187e-003
1.078030e+003,-6.479491e-003
1.079959e+003,-6.823612e-003
1.081887e+003,-7.032966e-003
1.083816e+003,-6.718310e-003
1.085744e+003,-6.558449e-003
1.087673e+003,-6.539323e-003
1.089601e+003,-6.524015e-003
1.091530e+003,-6.468752e-003
1.093458e+003,-6.346254e-003
1.095387e+003,-6.352131e-003
1.097315e+003,-6.414787e-003
1.099244e+003,-6.401859e-003
1.101172e+003,-6.356931e-003
1.103101e+003,-6.437053e-003
1.105029e+003,-6.302790e-003
1.106958e+003,-6.237275e-003
1.108886e+003,-6.120005e-003
1.110815e+003,-6.104845e-003
1.112743e+003,-6.364180e-003
1.114672e+003,-6.641829e-003
1.116600e+003,-6.391313e-003
1.118529e+003,-6.104551e-003
1.120457e+003,-6.171817e-003
1.122386e+003,-6.320130e-003
1.124314e+003,-6.526789e-003
1.126243e+003,-6.819633e-003
1.128171e+003,-6.905376e-003
1.130100e+003,-6.712535e-003
1.132028e+003,-6.711263e-003
1.133957e+003,-6.929737e-003
1.135885e+003,-7.071206e-003
1.137814e+003,-7.464074e-003
1.139742e+003,-8.231708e-003
1.141671e+003,-8.496405e-003
1.143599e+003,-8.589062e-003
1.145528e+003,-8.814970e-003
1.147456e+003,-8.987310e-003
1.149385e+003,-9.233998e-003
1.151313e+003,-9.555427e-003
1.153242e+003,-9.761590e-003
1.155170e+003,-9.813520e-003
1.157099e+003,-9.917394e-003
1.159027e+003,-1.012293e-002
1.160956e+003,-1.035160e-002
1.162884e+003,-1.044002e-002
1.164813e+003,-1.049251e-002
1.166741e+003,-1.062620e-002
1.168670e+003,-1.065239e-002
1.170598e+003,-1.054073e-002
1.172526e+003,-1.058510e-002
1.174455e+003,-1.077907e-002
1.176384e+003,-1.066522e-002
1.178312e+003,-1.054820e-002
1.180240e+003,-1.064146e-002
1.182169e+003,-1.074814e-002
1.184098e+003,-1.089849e-002
1.186026e+003,-1.105114e-002
1.187954e+003,-1.112801e-002
1.189883e+003,-1.124264e-002
1.191812e+003,-1.135906e-002
1.193740e+003,-1.133504e-002
1.195668e+003,-1.158427e-002
1.197597e+003,-1.183249e-002
1.199526e+003,-1.194120e-002
1.201454e+003,-1.195197e-002
1.203382e+003,-1.193056e-002
1.205311e+003,-1.195835e-002
1.207240e+003,-1.182365e-002
1.209168e+003,-1.174939e-002
1.211096e+003,-1.168595e-002
1.213025e+003,-1.163947e-002
1.214953e+003,-1.157243e-002
1.216882e+003,-1.158372e-002
1.218810e+003,-1.166560e-002
1.220739e+003,-1.173117e-002
1.222667e+003,-1.162415e-002
1.224596e+003,-1.147776e-002
1.226524e+003,-1.138391e-002
1.228453e+003,-1.121449e-002
1.230381e+003,-1.121388e-002
1.232310e+003,-1.121675e-002
1.234238e+003,-1.114471e-002
1.236167e+003,-1.104371e-002
1.238095e+003,-1.088676e-002
1.240024e+003,-1.080790e-002
1.241952e+003,-1.094715e-002
1.243881e+003,-1.131154e-002
1.245809e+003,-1.148170e-002
1.247738e+003,-1.141383e-002
1.249666e+003,-1.126599e-002
1.251595e+003,-1.141502e-002
1.253523e+003,-1.164247e-002
1.255452e+003,-1.183742e-002
1.257380e+003,-1.202349e-002
1.259309e+003,-1.205662e-002
1.261237e+003,-1.198691e-002
1.263166e+003,-1.185696e-002
1.265094e+003,-1.157627e-002
1.267023e+003,-1.128617e-002
1.268951e+003,-1.107491e-002
1.270880e+003,-1.088395e-002
1.272808e+003,-1.084152e-002
1.274737e+003,-1.083647e-002
1.276665e+003,-1.071048e-002
1.278594e+003,-1.055774e-002
1.280522e+003,-1.050302e-002
1.282451e+003,-1.043151e-002
1.284379e+003,-1.016563e-002
1.286308e+003,-1.002354e-002
1.288236e+003,-9.923159e-003
1.290165e+003,-9.719082e-003
1.292093e+003,-9.647827e-003
1.294022e+003,-9.457821e-003
1.295950e+003,-9.234777e-003
1.297879e+003,-9.230625e-003
1.299807e+003,-9.332888e-003
1.301736e+003,-9.422611e-003
1.303664e+003,-9.657970e-003
1.305593e+003,-9.834251e-003
1.307521e+003,-9.859387e-003
1.309450e+003,-1.000933e-002
1.311378e+003,-1.035151e-002
1.313307e+003,-1.067017e-002
1.315235e+003,-1.090217e-002
1.317164e+003,-1.095794e-002
1.319092e+003,-1.113970e-002
1.321021e+003,-1.138104e-002
1.322949e+003,-1.153352e-002
1.324878e+003,-1.167305e-002
1.326806e+003,-1.180672e-002
1.328735e+003,-1.174936e-002
1.330663e+003,-1.164911e-002
1.332592e+003,-1.164695e-002
1.334520e+003,-1.175207e-002
1.336449e+003,-1.184422e-002
1.338377e+003,-1.185470e-002
1.340306e+003,-1.186644e-002
1.342234e+003,-1.188865e-002
1.344163e+003,-1.199129e-002
1.346091e+003,-1.210844e-002
1.348020e+003,-1.209751e-002
1.349948e+003,-1.214678e-002
1.351877e+003,-1.216486e-002
1.353805e+003,-1.213943e-002
1.355734e+003,-1.221560e-002
1.357662e+003,-1.230611e-002
1.359591e+003,-1.231358e-002
1.361519e+003,-1.235062e-002
1.363448e+003,-1.242227e-002
1.365376e+003,-1.262186e-002
1.367305e+003,-1.271873e-002
1.369233e+003,-1.278488e-002
1.371162e+003,-1.286733e-002
1.373090e+003,-1.285582e-002
1.375019e+003,-1.290548e-002
1.376947e+003,-1.297058e-002
1.378876e+003,-1.293819e-002
1.380804e+003,-1.300389e-002
1.382733e+003,-1.314979e-002
1.384661e+003,-1.315835e-002
1.386590e+003,-1.309193e-002
1.388518e+003,-1.317808e-002
1.390447e+003,-1.345421e-002
1.392375e+003,-1.355329e-002
1.394304e+003,-1.352118e-002
1.396232e+003,-1.368408e-002
1.398161e+003,-1.381891e-002
1.400089e+003,-1.388104e-002
1.402018e+003,-1.399181e-002
1.403946e+003,-1.412417e-002
1.405875e+003,-1.419549e-002
1.407803e+003,-1.429765e-002
1.409732e+003,-1.436969e-002
1.411660e+003,-1.429233e-002
1.413589e+003,-1.419488e-002
1.415517e+003,-1.402460e-002
1.417446e+003,-1.363772e-002
1.419374e+003,-1.315581e-002
1.421303e+003,-1.294453e-002
1.423231e+003,-1.254146e-002
1.425160e+003,-1.210183e-002
1.427088e+003,-1.190738e-002
1.429017e+003,-1.159337e-002
1.430945e+003,-1.119495e-002
1.432874e+003,-1.075047e-002
1.434802e+003,-1.022220e-002
1.436731e+003,-9.617267e-003
1.438659e+003,-9.384091e-003
1.440588e+003,-9.269127e-003
1.442516e+003,-8.896393e-003
1.444445e+003,-8.522202e-003
1.446373e+003,-8.098030e-003
1.448302e+003,-7.694832e-003
1.450230e+003,-7.521913e-003
1.452159e+003,-7.320386e-003
1.454087e+003,-6.879971e-003
1.456016e+003,-6.234695e-003
1.457944e+003,-5.850913e-003
1.459873e+003,-6.084654e-003
1.461801e+003,-6.323820e-003
1.463730e+003,-6.338613e-003
1.465658e+003,-6.321305e-003
1.467587e+003,-6.652532e-003
1.469515e+003,-6.984158e-003
1.471444e+003,-7.092819e-003
1.473372e+003,-7.184929e-003
1.475301e+003,-7.618230e-003
1.477229e+003,-8.116340e-003
1.479158e+003,-8.673710e-003
1.481086e+003,-9.152185e-003
1.483015e+003,-9.607933e-003
1.484943e+003,-9.964124e-003
1.486872e+003,-1.013669e-002
1.488800e+003,-1.038981e-002
1.490729e+003,-1.060418e-002
1.492657e+003,-1.098611e-002
1.494586e+003,-1.129737e-002
1.496514e+003,-1.138678e-002
1.498443e+003,-1.165515e-002
1.500371e+003,-1.201672e-002
1.502300e+003,-1.226408e-002
1.504228e+003,-1.227287e-002
1.506157e+003,-1.192850e-002
1.508085e+003,-1.206271e-002
1.510014e+003,-1.258446e-002
1.511942e+003,-1.278852e-002
1.513871e+003,-1.289944e-002
1.515799e+003,-1.287493e-002
1.517728e+003,-1.283581e-002
1.519656e+003,-1.283726e-002
1.521585e+003,-1.263757e-002
1.523513e+003,-1.269363e-002
1.525442e+003,-1.268382e-002
1.527370e+003,-1.276664e-002
1.529299e+003,-1.289426e-002
1.531227e+003,-1.287808e-002
1.533156e+003,-1.257693e-002
1.535084e+003,-1.247772e-002
1.537013e+003,-1.254674e-002
1.538941e+003,-1.207247e-002
1.540870e+003,-1.161221e-002
1.542798e+003,-1.166650e-002
1.544727e+003,-1.186073e-002
1.546655e+003,-1.206094e-002
1.548584e+003,-1.197907e-002
1.550512e+003,-1.189974e-002
1.552441e+003,-1.192772e-002
1.554369e+003,-1.175339e-002
1.556298e+003,-1.155898e-002
1.558226e+003,-1.098976e-002
1.560155e+003,-1.064107e-002
1.562083e+003,-1.083389e-002
1.564012e+003,-1.065106e-002
1.565940e+003,-1.053449e-002
1.567869e+003,-1.035186e-002
1.569797e+003,-9.828810e-003
1.571726e+003,-9.730001e-003
1.573654e+003,-9.729353e-003
1.575583e+003,-9.374071e-003
1.577511e+003,-9.264456e-003
1.579440e+003,-9.426664e-003
1.581368e+003,-9.444885e-003
1.583297e+003,-9.573707e-003
1.585225e+003,-9.580741e-003
1.587154e+003,-9.651845e-003
1.589082e+003,-9.777497e-003
1.591010e+003,-9.964902e-003
1.592939e+003,-1.027521e-002
1.594868e+003,-1.033183e-002
1.596796e+003,-1.045121e-002
1.598724e+003,-1.071284e-002
1.600653e+003,-1.097774e-002
1.602582e+003,-1.119253e-002
1.604510e+003,-1.149102e-002
1.606438e+003,-1.171765e-002
1.608367e+003,-1.190332e-002
1.610296e+003,-1.215493e-002
1.612224e+003,-1.238621e-002
1.614152e+003,-1.263982e-002
1.616081e+003,-1.270953e-002
1.618010e+003,-1.274814e-002
1.619938e+003,-1.307881e-002
1.621866e+003,-1.313562e-002
1.623795e+003,-1.321714e-002
1.625724e+003,-1.340448e-002
1.627652e+003,-1.361698e-002
1.629580e+003,-1.384686e-002
1.631509e+003,-1.412538e-002
1.633438e+003,-1.422195e-002
1.635366e+003,-1.410835e-002
1.637294e+003,-1.426982e-002
1.639223e+003,-1.471207e-002
1.641151e+003,-1.501606e-002
1.643080e+003,-1.541037e-002
1.645008e+003,-1.554102e-002
1.646937e+003,-1.552350e-002
1.648865e+003,-1.592154e-002
1.650794e+003,-1.616279e-002
1.652722e+003,-1.567402e-002
1.654651e+003,-1.592244e-002
1.656579e+003,-1.656947e-002
1.658508e+003,-1.676621e-002
1.660436e+003,-1.688265e-002
1.662365e+003,-1.694024e-002
1.664293e+003,-1.694546e-002
1.666222e+003,-1.706204e-002
1.668150e+003,-1.697972e-002
1.670079e+003,-1.682987e-002
1.672007e+003,-1.693549e-002
1.673936e+003,-1.689664e-002
1.675864e+003,-1.680115e-002
1.677793e+003,-1.714964e-002
1.679721e+003,-1.728798e-002
1.681650e+003,-1.715531e-002
1.683578e+003,-1.671386e-002
1.685507e+003,-1.664993e-002
1.687435e+003,-1.699683e-002
1.689364e+003,-1.703592e-002
1.691292e+003,-1.691350e-002
1.693221e+003,-1.675849e-002
1.695149e+003,-1.630981e-002
1.697078e+003,-1.615015e-002
1.699006e+003,-1.606471e-002
1.700935e+003,-1.573982e-002
1.702863e+003,-1.607717e-002
1.704792e+003,-1.598855e-002
1.706720e+003,-1.591260e-002
1.708649e+003,-1.609853e-002
1.710577e+003,-1.615574e-002
1.712506e+003,-1.604274e-002
1.714434e+003,-1.591257e-002
1.716363e+003,-1.568566e-002
1.718291e+003,-1.554623e-002
1.720220e+003,-1.580568e-002
1.722148e+003,-1.589101e-002
1.724077e+003,-1.588066e-002
1.726005e+003,-1.596038e-002
1.727934e+003,-1.589420e-002
1.729862e+003,-1.579120e-002
1.731791e+003,-1.571308e-002
1.733719e+003,-1.551410e-002
1.735648e+003,-1.560310e-002
1.737576e+003,-1.583539e-002
1.739505e+003,-1.571254e-002
1.741433e+003,-1.576510e-002
1.743362e+003,-1.577957e-002
1.745290e+003,-1.570288e-002
1.747219e+003,-1.555547e-002
1.749147e+003,-1.537161e-002
1.751076e+003,-1.517943e-002
1.753004e+003,-1.531430e-002
1.754933e+003,-1.548203e-002
1.756861e+003,-1.539074e-002
1.758790e+003,-1.547119e-002
1.760718e+003,-1.540363e-002
1.762647e+003,-1.518154e-002
1.764575e+003,-1.533439e-002
1.766504e+003,-1.534273e-002
1.768432e+003,-1.522927e-002
1.770361e+003,-1.527755e-002
1.772289e+003,-1.517488e-002
1.774218e+003,-1.519747e-002
1.776146e+003,-1.531475e-002
1.778075e+003,-1.542006e-002
1.780003e+003,-1.544920e-002
1.781932e+003,-1.543337e-002
1.783860e+003,-1.545159e-002
1.785789e+003,-1.537881e-002
1.787717e+003,-1.538236e-002
1.789646e+003,-1.540657e-002
1.791574e+003,-1.528970e-002
1.793503e+003,-1.525051e-002
1.795431e+003,-1.540494e-002
1.797360e+003,-1.547167e-002
1.799288e+003,-1.549332e-002
1.801217e+003,-1.541984e-002
1.803145e+003,-1.547292e-002
1.805074e+003,-1.548213e-002
1.807002e+003,-1.536691e-002
1.808931e+003,-1.537085e-002
1.810859e+003,-1.538306e-002
1.812788e+003,-1.543986e-002
1.814716e+003,-1.552293e-002
1.816645e+003,-1.549617e-002
1.818573e+003,-1.550764e-002
1.820502e+003,-1.557155e-002
1.822430e+003,-1.555461e-002
1.824359e+003,-1.540040e-002
1.826287e+003,-1.538124e-002
1.828216e+003,-1.548162e-002
1.830144e+003,-1.543826e-002
1.832073e+003,-1.557893e-002
1.834001e+003,-1.560786e-002
1.835930e+003,-1.553258e-002
1.837858e+003,-1.557945e-002
1.839787e+003,-1.556596e-002
1.841715e+003,-1.564836e-002
1.843644e+003,-1.554281e-002
1.845572e+003,-1.554933e-002
1.847501e+003,-1.578887e-002
1.849429e+003,-1.578114e-002
1.851358e+003,-1.565290e-002
1.853286e+003,-1.558437e-002
1.855215e+003,-1.553642e-002
1.857143e+003,-1.552219e-002
1.859072e+003,-1.559003e-002
1.861000e+003,-1.564363e-002
1.862929e+003,-1.562679e-002
1.864857e+003,-1.554198e-002
1.866786e+003,-1.555880e-002
1.868714e+003,-1.557644e-002
1.870643e+003,-1.564980e-002
1.872571e+003,-1.570314e-002
1.874500e+003,-1.559837e-002
1.876428e+003,-1.556055e-002
1.878357e+003,-1.563436e-002
1.880285e+003,-1.571397e-002
1.882214e+003,-1.575660e-002
1.884142e+003,-1.570857e-002
1.886071e+003,-1.574193e-002
1.887999e+003,-1.566364e-002
1.889928e+003,-1.556270e-002
1.891856e+003,-1.569908e-002
1.893785e+003,-1.573494e-002
1.895713e+003,-1.571867e-002
1.897642e+003,-1.577948e-002
1.899570e+003,-1.571221e-002
1.901499e+003,-1.561454e-002
1.903427e+003,-1.560355e-002
1.905356e+003,-1.563369e-002
1.907284e+003,-1.569665e-002
1.909213e+003,-1.578836e-002
1.911141e+003,-1.586804e-002
1.913070e+003,-1.580453e-002
1.914998e+003,-1.571142e-002
1.916927e+003,-1.564996e-002
1.918855e+003,-1.558533e-002
1.920784e+003,-1.560719e-002
1.922712e+003,-1.570058e-002
1.924641e+003,-1.578788e-002
1.926569e+003,-1.567971e-002
1.928498e+003,-1.567284e-002
1.930426e+003,-1.569994e-002
1.932355e+003,-1.577395e-002
1.934283e+003,-1.583609e-002
1.936212e+003,-1.585826e-002
1.938140e+003,-1.586938e-002
1.940069e+003,-1.579162e-002
1.941997e+003,-1.564552e-002
1.943926e+003,-1.561745e-002
1.945854e+003,-1.569799e-002
1.947783e+003,-1.578309e-002
1.949711e+003,-1.582881e-002
1.951640e+003,-1.579641e-002
1.953568e+003,-1.583967e-002
1.955497e+003,-1.589535e-002
1.957425e+003,-1.589500e-002
1.959354e+003,-1.587682e-002
1.961282e+003,-1.588232e-002
1.963211e+003,-1.587152e-002
1.965139e+003,-1.584073e-002
1.967068e+003,-1.587906e-002
1.968996e+003,-1.600609e-002
1.970925e+003,-1.597760e-002
1.972853e+003,-1.586165e-002
1.974782e+003,-1.586980e-002
1.976710e+003,-1.593557e-002
1.978639e+003,-1.594489e-002
1.980567e+003,-1.592170e-002
1.982496e+003,-1.595652e-002
1.984424e+003,-1.590692e-002
1.986353e+003,-1.580319e-002
1.988281e+003,-1.581763e-002
1.990210e+003,-1.587194e-002
1.992138e+003,-1.577306e-002
1.994067e+003,-1.578472e-002
1.995995e+003,-1.589839e-002
1.997924e+003,-1.596345e-002
1.999852e+003,-1.594668e-002
2.001781e+003,-1.592011e-002
2.003709e+003,-1.584887e-002
2.005638e+003,-1.581932e-002
2.007566e+003,-1.580619e-002
2.009495e+003,-1.582581e-002
2.011423e+003,-1.588018e-002
2.013352e+003,-1.582092e-002
2.015280e+003,-1.580545e-002
2.017208e+003,-1.581169e-002
2.019137e+003,-1.573708e-002
2.021066e+003,-1.577938e-002
2.022994e+003,-1.590906e-002
2.024922e+003,-1.590733e-002
2.026851e+003,-1.586778e-002
2.028780e+003,-1.587833e-002
2.030708e+003,-1.586405e-002
2.032636e+003,-1.579414e-002
2.034565e+003,-1.571602e-002
2.036494e+003,-1.577405e-002
2.038422e+003,-1.589813e-002
2.040350e+003,-1.592653e-002
2.042279e+003,-1.590481e-002
2.044208e+003,-1.593138e-002
2.046136e+003,-1.597920e-002
2.048064e+003,-1.591350e-002
2.049993e+003,-1.583664e-002
2.051921e+003,-1.586261e-002
2.053850e+003,-1.582315e-002
2.055778e+003,-1.576813e-002
2.057707e+003,-1.573625e-002
2.059635e+003,-1.575465e-002
2.061564e+003,-1.579785e-002
2.063492e+003,-1.587238e-002
2.065421e+003,-1.582057e-002
2.067349e+003,-1.576005e-002
2.069278e+003,-1.587871e-002
2.071206e+003,-1.583855e-002
2.073135e+003,-1.569851e-002
2.075063e+003,-1.570100e-002
2.076992e+003,-1.573174e-002
2.078920e+003,-1.568272e-002
2.080849e+003,-1.566505e-002
2.082777e+003,-1.574308e-002
2.084706e+003,-1.578347e-002
2.086634e+003,-1.579437e-002
2.088563e+003,-1.583168e-002
2.090491e+003,-1.583673e-002
2.092420e+003,-1.586261e-002
2.094348e+003,-1.584868e-002
2.096277e+003,-1.584711e-002
2.098205e+003,-1.583609e-002
2.100134e+003,-1.580034e-002
2.102062e+003,-1.577184e-002
2.103991e+003,-1.580060e-002
2.105919e+003,-1.578628e-002
2.107848e+003,-1.569656e-002
2.109776e+003,-1.571618e-002
2.111705e+003,-1.577679e-002
2.113633e+003,-1.571666e-002
2.115562e+003,-1.562580e-002
2.117490e+003,-1.566357e-002
2.119419e+003,-1.561074e-002
2.121347e+003,-1.560432e-002
2.123276e+003,-1.569186e-002
2.125204e+003,-1.571471e-002
2.127133e+003,-1.564226e-002
2.129061e+003,-1.550867e-002
2.130990e+003,-1.541824e-002
2.132918e+003,-1.547705e-002
2.134847e+003,-1.556126e-002
2.136775e+003,-1.555103e-002
2.138704e+003,-1.545549e-002
2.140632e+003,-1.542061e-002
2.142561e+003,-1.546438e-002
2.144489e+003,-1.550007e-002
2.146418e+003,-1.549805e-002
2.148346e+003,-1.544126e-002
2.150275e+003,-1.539029e-002
2.152203e+003,-1.537734e-002
2.154132e+003,-1.538626e-002
2.156060e+003,-1.541674e-002
2.157989e+003,-1.542326e-002
2.159917e+003,-1.543666e-002
2.161846e+003,-1.548283e-002
2.163774e+003,-1.541421e-002
2.165703e+003,-1.528641e-002
2.167631e+003,-1.521110e-002
2.169560e+003,-1.516407e-002
2.171488e+003,-1.519283e-002
2.173417e+003,-1.525979e-002
2.175345e+003,-1.525141e-002
2.177274e+003,-1.525906e-002
2.179202e+003,-1.522876e-002
2.181131e+003,-1.520758e-002
2.183059e+003,-1.524380e-002
2.184988e+003,-1.517616e-002
2.186916e+003,-1.513108e-002
2.188845e+003,-1.526181e-002
2.190773e+003,-1.537712e-002
2.192702e+003,-1.543890e-002
2.194630e+003,-1.536746e-002
2.196559e+003,-1.525055e-002
2.198487e+003,-1.519363e-002
2.200416e+003,-1.529904e-002
2.202344e+003,-1.535095e-002
2.204273e+003,-1.532623e-002
2.206201e+003,-1.540574e-002
2.208130e+003,-1.544421e-002
2.210058e+003,-1.547519e-002
2.211987e+003,-1.548613e-002
2.213915e+003,-1.544456e-002
2.215844e+003,-1.537846e-002
2.217772e+003,-1.530729e-002
2.219701e+003,-1.528126e-002
2.221629e+003,-1.536352e-002
2.223558e+003,-1.541578e-002
2.225486e+003,-1.543436e-002
2.227415e+003,-1.551586e-002
2.229343e+003,-1.559732e-002
2.231272e+003,-1.562787e-002
2.233200e+003,-1.556564e-002
2.235129e+003,-1.550649e-002
2.237057e+003,-1.563487e-002
2.238986e+003,-1.571736e-002
2.240914e+003,-1.574964e-002
2.242843e+003,-1.577139e-002
2.244771e+003,-1.576651e-002
2.246700e+003,-1.577248e-002
2.248628e+003,-1.576552e-002
2.250557e+003,-1.586034e-002
2.252485e+003,-1.588915e-002
2.254414e+003,-1.583453e-002
2.256342e+003,-1.578721e-002
2.258271e+003,-1.576769e-002
2.260199e+003,-1.572135e-002
2.262128e+003,-1.568563e-002
2.264056e+003,-1.574848e-002
2.265985e+003,-1.576401e-002
2.267913e+003,-1.574014e-002
2.269842e+003,-1.578168e-002
2.271770e+003,-1.582082e-002
2.273699e+003,-1.586411e-002
2.275627e+003,-1.593831e-002
2.277556e+003,-1.587813e-002
2.279484e+003,-1.583488e-002
2.281413e+003,-1.583469e-002
2.283341e+003,-1.584153e-002
2.285270e+003,-1.585162e-002
2.287198e+003,-1.589420e-002
2.289127e+003,-1.583271e-002
2.291055e+003,-1.573503e-002
2.292984e+003,-1.570030e-002
2.294912e+003,-1.570723e-002
2.296841e+003,-1.559463e-002
2.298769e+003,-1.537219e-002
2.300698e+003,-1.518778e-002
2.302626e+003,-1.500181e-002
2.304555e+003,-1.487059e-002
2.306483e+003,-1.470085e-002
2.308412e+003,-1.447103e-002
2.310340e+003,-1.412346e-002
2.312269e+003,-1.356437e-002
2.314197e+003,-1.299196e-002
2.316125e+003,-1.245573e-002
2.318054e+003,-1.190819e-002
2.319983e+003,-1.124419e-002
2.321911e+003,-1.050606e-002
2.323840e+003,-9.839888e-003
2.325768e+003,-9.364440e-003
2.327697e+003,-8.851171e-003
2.329625e+003,-8.159818e-003
2.331553e+003,-7.788312e-003
2.333482e+003,-7.686596e-003
2.335411e+003,-7.546694e-003
2.337339e+003,-7.366941e-003
2.339268e+003,-7.263465e-003
2.341196e+003,-7.466190e-003
2.343125e+003,-8.011742e-003
2.345053e+003,-9.241654e-003
2.346981e+003,-1.126741e-002
2.348910e+003,-1.253995e-002
2.350839e+003,-1.125656e-002
2.352767e+003,-8.733142e-003
2.354696e+003,-6.703824e-003
2.356624e+003,-5.391694e-003
2.358552e+003,-4.673829e-003
2.360481e+003,-4.433720e-003
2.362409e+003,-4.499703e-003
2.364338e+003,-4.766224e-003
2.366267e+003,-5.485180e-003
2.368195e+003,-6.494997e-003
2.370124e+003,-7.711921e-003
2.372052e+003,-9.181707e-003
2.373980e+003,-1.060217e-002
2.375909e+003,-1.201060e-002
2.377838e+003,-1.331596e-002
2.379766e+003,-1.437687e-002
2.381695e+003,-1.512679e-002
2.383623e+003,-1.545924e-002
2.385552e+003,-1.568380e-002
2.387480e+003,-1.577009e-002
2.389408e+003,-1.569131e-002
2.391337e+003,-1.561720e-002
2.393266e+003,-1.562190e-002
2.395194e+003,-1.561016e-002
2.397123e+003,-1.560866e-002
2.399051e+003,-1.560496e-002
2.400979e+003,-1.559831e-002
2.402908e+003,-1.564852e-002
2.404836e+003,-1.558482e-002
2.406765e+003,-1.562183e-002
2.408694e+003,-1.573756e-002
2.410622e+003,-1.565514e-002
2.412551e+003,-1.559303e-002
2.414479e+003,-1.551161e-002
2.416407e+003,-1.547912e-002
2.418336e+003,-1.554006e-002
2.420264e+003,-1.567786e-002
2.422193e+003,-1.571656e-002
2.424122e+003,-1.556851e-002
2.426050e+003,-1.547164e-002
2.427979e+003,-1.552344e-002
2.429907e+003,-1.554636e-002
2.431835e+003,-1.547279e-002
2.433764e+003,-1.546083e-002
2.435692e+003,-1.547772e-002
2.437621e+003,-1.545895e-002
2.439550e+003,-1.548504e-002
2.441478e+003,-1.555026e-002
2.443406e+003,-1.547954e-002
2.445335e+003,-1.543170e-002
2.447263e+003,-1.543816e-002
2.449192e+003,-1.545904e-002
2.451121e+003,-1.552200e-002
2.453049e+003,-1.549306e-002
2.454978e+003,-1.542297e-002
2.456906e+003,-1.539304e-002
2.458834e+003,-1.533829e-002
2.460763e+003,-1.529639e-002
2.462691e+003,-1.541028e-002
2.464620e+003,-1.542972e-002
2.466549e+003,-1.531388e-002
2.468477e+003,-1.531292e-002
2.470406e+003,-1.535067e-002
2.472334e+003,-1.540750e-002
2.474262e+003,-1.537839e-002
2.476191e+003,-1.536205e-002
2.478119e+003,-1.540708e-002
2.480048e+003,-1.540350e-002
2.481977e+003,-1.532047e-002
2.483905e+003,-1.527940e-002
2.485833e+003,-1.528366e-002
2.487762e+003,-1.530880e-002
2.489690e+003,-1.535825e-002
2.491619e+003,-1.527806e-002
2.493547e+003,-1.512788e-002
2.495476e+003,-1.504208e-002
2.497405e+003,-1.512426e-002
2.499333e+003,-1.528001e-002
2.501261e+003,-1.531593e-002
2.503190e+003,-1.522492e-002
2.505118e+003,-1.512528e-002
2.507047e+003,-1.515623e-002
2.508975e+003,-1.523631e-002
2.510904e+003,-1.520556e-002
2.512833e+003,-1.512477e-002
2.514761e+003,-1.510397e-002
2.516689e+003,-1.510922e-002
2.518618e+003,-1.502521e-002
2.520546e+003,-1.496423e-002
2.522475e+003,-1.505987e-002
2.524403e+003,-1.510893e-002
2.526332e+003,-1.504317e-002
2.528260e+003,-1.502095e-002
2.530189e+003,-1.506682e-002
2.532117e+003,-1.504992e-002
2.534046e+003,-1.505446e-002
2.535974e+003,-1.500607e-002
2.537903e+003,-1.498536e-002
2.539831e+003,-1.492873e-002
2.541760e+003,-1.495344e-002
2.543688e+003,-1.492857e-002
2.545617e+003,-1.494547e-002
2.547545e+003,-1.499496e-002
2.549474e+003,-1.496215e-002
2.551402e+003,-1.495578e-002
2.553331e+003,-1.499675e-002
2.555259e+003,-1.501935e-002
2.557188e+003,-1.505357e-002
2.559116e+003,-1.509392e-002
2.561045e+003,-1.500921e-002
2.562973e+003,-1.499957e-002
2.564902e+003,-1.493363e-002
2.566830e+003,-1.484772e-002
2.568759e+003,-1.495744e-002
2.570687e+003,-1.497672e-002
2.572616e+003,-1.482403e-002
2.574544e+003,-1.473455e-002
2.576473e+003,-1.481356e-002
2.578401e+003,-1.498920e-002
2.580330e+003,-1.510042e-002
2.582258e+003,-1.509952e-002
2.584187e+003,-1.495783e-002
2.586115e+003,-1.493692e-002
2.588044e+003,-1.509252e-002
2.589972e+003,-1.508032e-002
2.591901e+003,-1.491211e-002
2.593829e+003,-1.492943e-002
2.595758e+003,-1.504608e-002
2.597686e+003,-1.502025e-002
2.599615e+003,-1.501676e-002
2.601543e+003,-1.499506e-002
2.603472e+003,-1.493689e-002
2.605400e+003,-1.492697e-002
2.607329e+003,-1.488016e-002
2.609257e+003,-1.480341e-002
2.611186e+003,-1.479636e-002
2.613114e+003,-1.482451e-002
2.615043e+003,-1.483348e-002
2.616971e+003,-1.478871e-002
2.618900e+003,-1.473817e-002
2.620828e+003,-1.475607e-002
2.622757e+003,-1.465566e-002
2.624685e+003,-1.467180e-002
2.626614e+003,-1.475806e-002
2.628542e+003,-1.468394e-002
2.630471e+003,-1.458425e-002
2.632399e+003,-1.458940e-002
2.634328e+003,-1.457492e-002
2.636256e+003,-1.460376e-002
2.638185e+003,-1.452304e-002
2.640113e+003,-1.447209e-002
2.642042e+003,-1.456265e-002
2.643970e+003,-1.448584e-002
2.645899e+003,-1.438353e-002
2.647827e+003,-1.431576e-002
2.649756e+003,-1.429544e-002
2.651684e+003,-1.430240e-002
2.653613e+003,-1.429669e-002
2.655541e+003,-1.427139e-002
2.657470e+003,-1.427264e-002
2.659398e+003,-1.427550e-002
2.661327e+003,-1.422448e-002
2.663255e+003,-1.418145e-002
2.665184e+003,-1.422288e-002
2.667112e+003,-1.412753e-002
2.669041e+003,-1.402152e-002
2.670969e+003,-1.402687e-002
2.672898e+003,-1.405222e-002
2.674826e+003,-1.403050e-002
2.676755e+003,-1.395494e-002
2.678683e+003,-1.397051e-002
2.680612e+003,-1.396572e-002
2.682540e+003,-1.390428e-002
2.684469e+003,-1.385707e-002
2.686397e+003,-1.384930e-002
2.688326e+003,-1.377153e-002
2.690254e+003,-1.361646e-002
2.692183e+003,-1.360782e-002
2.694111e+003,-1.370113e-002
2.696040e+003,-1.371340e-002
2.697968e+003,-1.361158e-002
2.699897e+003,-1.347248e-002
2.701825e+003,-1.348919e-002
2.703754e+003,-1.348042e-002
2.705682e+003,-1.342250e-002
2.707611e+003,-1.333977e-002
2.709539e+003,-1.326200e-002
2.711468e+003,-1.320274e-002
2.713396e+003,-1.316236e-002
2.715325e+003,-1.314076e-002
2.717253e+003,-1.315979e-002
2.719182e+003,-1.305386e-002
2.721110e+003,-1.296029e-002
2.723039e+003,-1.287772e-002
2.724967e+003,-1.280805e-002
2.726896e+003,-1.274154e-002
2.728824e+003,-1.267297e-002
2.730753e+003,-1.259303e-002
2.732681e+003,-1.247379e-002
2.734610e+003,-1.241528e-002
2.736538e+003,-1.244014e-002
2.738467e+003,-1.239471e-002
2.740395e+003,-1.222256e-002
2.742324e+003,-1.212268e-002
2.744252e+003,-1.213666e-002
2.746181e+003,-1.211417e-002
2.748109e+003,-1.209129e-002
2.750038e+003,-1.196583e-002
2.751966e+003,-1.186392e-002
2.753895e+003,-1.171088e-002
2.755823e+003,-1.151468e-002
2.757752e+003,-1.144252e-002
2.759680e+003,-1.135089e-002
2.761609e+003,-1.109897e-002
2.763537e+003,-1.080655e-002
2.765466e+003,-1.064172e-002
2.767394e+003,-1.036086e-002
2.769323e+003,-1.009804e-002
2.771251e+003,-9.723878e-003
2.773180e+003,-9.243535e-003
2.775108e+003,-8.774675e-003
2.777037e+003,-8.313891e-003
2.778965e+003,-7.818057e-003
2.780894e+003,-7.241632e-003
2.782822e+003,-6.612950e-003
2.784750e+003,-5.862355e-003
2.786679e+003,-5.109216e-003
2.788608e+003,-4.438541e-003
2.790536e+003,-3.745050e-003
2.792465e+003,-2.985397e-003
2.794393e+003,-2.171634e-003
2.796322e+003,-1.412722e-003
2.798250e+003,-7.808633e-004
2.800178e+003,-2.616138e-004
2.802107e+003,3.603496e-004
2.804036e+003,9.090554e-004
2.805964e+003,1.254542e-003
2.807893e+003,1.675070e-003
2.809821e+003,2.027492e-003
2.811750e+003,2.124940e-003
2.813678e+003,2.007186e-003
2.815606e+003,1.905238e-003
2.817535e+003,1.707935e-003
2.819464e+003,1.385853e-003
2.821392e+003,1.008511e-003
2.823321e+003,6.526011e-004
2.825249e+003,2.133693e-004
2.827177e+003,-3.730615e-004
2.829106e+003,-9.815131e-004
2.831034e+003,-1.696161e-003
2.832963e+003,-2.339841e-003
2.834892e+003,-2.734573e-003
2.836820e+003,-3.246107e-003
2.838749e+003,-4.004681e-003
2.840677e+003,-4.735385e-003
2.842605e+003,-5.265193e-003
2.844534e+003,-6.027113e-003
2.846462e+003,-7.059894e-003
2.848391e+003,-7.802892e-003
2.850320e+003,-8.186872e-003
2.852248e+003,-8.460954e-003
2.854177e+003,-8.650357e-003
2.856105e+003,-8.781981e-003
2.858033e+003,-8.794125e-003
2.859962e+003,-8.743014e-003
2.861890e+003,-8.789449e-003
2.863819e+003,-8.823996e-003
2.865748e+003,-8.848444e-003
2.867676e+003,-8.772889e-003
2.869604e+003,-8.546375e-003
2.871533e+003,-8.446786e-003
2.873461e+003,-8.354391e-003
2.875390e+003,-8.268250e-003
2.877319e+003,-8.021110e-003
2.879247e+003,-7.748540e-003
2.881176e+003,-7.747433e-003
2.883104e+003,-7.802762e-003
2.885032e+003,-7.688615e-003
2.886961e+003,-7.702123e-003
2.888889e+003,-7.800581e-003
2.890818e+003,-7.939555e-003
2.892747e+003,-8.058612e-003
2.894675e+003,-8.159363e-003
2.896604e+003,-8.259212e-003
2.898532e+003,-8.361541e-003
2.900460e+003,-8.373079e-003
2.902389e+003,-8.396415e-003
2.904317e+003,-8.553002e-003
2.906246e+003,-8.590719e-003
2.908175e+003,-8.633239e-003
2.910103e+003,-8.822373e-003
2.912031e+003,-9.047057e-003
2.913960e+003,-9.370278e-003
2.915888e+003,-9.625045e-003
2.917817e+003,-9.646271e-003
2.919745e+003,-9.319688e-003
2.921674e+003,-8.913468e-003
2.923603e+003,-8.570513e-003
2.925531e+003,-8.278295e-003
2.927459e+003,-8.002081e-003
2.929388e+003,-7.734869e-003
2.931316e+003,-7.517224e-003
2.933245e+003,-7.305008e-003
2.935173e+003,-7.166091e-003
2.937102e+003,-7.062665e-003
2.939031e+003,-6.902018e-003
2.940959e+003,-6.919758e-003
2.942887e+003,-7.108205e-003
2.944816e+003,-7.241502e-003
2.946744e+003,-7.266821e-003
2.948673e+003,-7.505956e-003
2.950601e+003,-8.083396e-003
2.952530e+003,-8.640612e-003
2.954458e+003,-9.219985e-003
2.956387e+003,-9.825441e-003
2.958315e+003,-1.032679e-002
2.960244e+003,-1.101948e-002
2.962172e+003,-1.173068e-002
2.964101e+003,-1.225396e-002
2.966029e+003,-1.271516e-002
2.967958e+003,-1.320007e-002
2.969886e+003,-1.359032e-002
2.971815e+003,-1.397349e-002
2.973743e+003,-1.439405e-002
2.975672e+003,-1.478278e-002
2.977600e+003,-1.511021e-002
2.979529e+003,-1.528599e-002
2.981457e+003,-1.542918e-002
2.983386e+003,-1.565766e-002
2.985314e+003,-1.590532e-002
2.987243e+003,-1.613237e-002
2.989171e+003,-1.624876e-002
2.991100e+003,-1.648737e-002
2.993028e+003,-1.668322e-002
2.994957e+003,-1.674007e-002
2.996885e+003,-1.677268e-002
2.998814e+003,-1.680861e-002
3.000742e+003,-1.684660e-002
3.002671e+003,-1.695072e-002
3.004599e+003,-1.701779e-002
3.006528e+003,-1.698956e-002
3.008456e+003,-1.704098e-002
3.010385e+003,-1.712502e-002
3.012313e+003,-1.715073e-002
3.014242e+003,-1.716245e-002
3.016170e+003,-1.727305e-002
3.018099e+003,-1.727130e-002
3.020027e+003,-1.732425e-002
3.021956e+003,-1.733498e-002
3.023884e+003,-1.738910e-002
3.025813e+003,-1.749356e-002
3.027741e+003,-1.760618e-002
3.029670e+003,-1.766488e-002
3.031598e+003,-1.753789e-002
3.033527e+003,-1.748112e-002
3.035455e+003,-1.746902e-002
3.037384e+003,-1.741934e-002
3.039312e+003,-1.748755e-002
3.041241e+003,-1.768565e-002
3.043169e+003,-1.791047e-002
3.045098e+003,-1.795200e-002
3.047026e+003,-1.791028e-002
3.048955e+003,-1.788071e-002
3.050883e+003,-1.786084e-002
3.052812e+003,-1.784885e-002
3.054740e+003,-1.797689e-002
3.056669e+003,-1.798830e-002
3.058597e+003,-1.796691e-002
3.060526e+003,-1.808035e-002
3.062454e+003,-1.808048e-002
3.064383e+003,-1.815240e-002
3.066311e+003,-1.821462e-002
3.068240e+003,-1.808312e-002
3.070168e+003,-1.813908e-002
3.072097e+003,-1.825233e-002
3.074025e+003,-1.824175e-002
3.075954e+003,-1.825586e-002
3.077882e+003,-1.830904e-002
3.079811e+003,-1.833410e-002
3.081739e+003,-1.834557e-002
3.083668e+003,-1.828543e-002
3.085596e+003,-1.834382e-002
3.087525e+003,-1.847371e-002
3.089453e+003,-1.850829e-002
3.091382e+003,-1.846917e-002
3.093310e+003,-1.837021e-002
3.095239e+003,-1.836948e-002
3.097167e+003,-1.851477e-002
3.099096e+003,-1.848959e-002
3.101024e+003,-1.846272e-002
3.102953e+003,-1.852067e-002
3.104881e+003,-1.856217e-002
3.106810e+003,-1.851055e-002
3.108738e+003,-1.844605e-002
3.110667e+003,-1.842414e-002
3.112595e+003,-1.846355e-002
3.114524e+003,-1.854572e-002
3.116452e+003,-1.864293e-002
3.118381e+003,-1.862611e-002
3.120309e+003,-1.864125e-002
3.122238e+003,-1.859973e-002
3.124166e+003,-1.851690e-002
3.126095e+003,-1.854074e-002
3.128023e+003,-1.867994e-002
3.129952e+003,-1.876724e-002
3.131880e+003,-1.880459e-002
3.133809e+003,-1.877086e-002
3.135737e+003,-1.870377e-002
3.137666e+003,-1.865166e-002
3.139594e+003,-1.867248e-002
3.141523e+003,-1.869565e-002
3.143451e+003,-1.861541e-002
3.145380e+003,-1.867388e-002
3.147308e+003,-1.877064e-002
3.149237e+003,-1.877765e-002
3.151165e+003,-1.871431e-002
3.153094e+003,-1.861125e-002
3.155022e+003,-1.853585e-002
3.156951e+003,-1.864442e-002
3.158879e+003,-1.868867e-002
3.160808e+003,-1.848727e-002
3.162736e+003,-1.843097e-002
3.164665e+003,-1.851471e-002
3.166593e+003,-1.858843e-002
3.168522e+003,-1.865394e-002
3.170450e+003,-1.866619e-002
3.172379e+003,-1.863268e-002
3.174307e+003,-1.864839e-002
3.176236e+003,-1.859427e-002
3.178164e+003,-1.859417e-002
3.180093e+003,-1.865429e-002
3.182021e+003,-1.861487e-002
3.183950e+003,-1.854998e-002
3.185878e+003,-1.857192e-002
3.187807e+003,-1.851975e-002
3.189735e+003,-1.850807e-002
3.191664e+003,-1.863271e-002
3.193592e+003,-1.864277e-002
3.195521e+003,-1.869105e-002
3.197449e+003,-1.872031e-002
3.199378e+003,-1.872745e-002
3.201306e+003,-1.882699e-002
3.203235e+003,-1.873186e-002
3.205163e+003,-1.867464e-002
3.207092e+003,-1.875049e-002
3.209020e+003,-1.873002e-002
3.210948e+003,-1.865413e-002
3.212877e+003,-1.864867e-002
3.214806e+003,-1.870638e-002
3.216734e+003,-1.873983e-002
3.218663e+003,-1.864448e-002
3.220591e+003,-1.860176e-002
3.222520e+003,-1.854230e-002
3.224448e+003,-1.857642e-002
3.226376e+003,-1.865667e-002
3.228305e+003,-1.855166e-002
3.230234e+003,-1.835678e-002
3.232162e+003,-1.836666e-002
3.234091e+003,-1.838035e-002
3.236019e+003,-1.839508e-002
3.237948e+003,-1.841642e-002
3.239876e+003,-1.823327e-002
3.241804e+003,-1.792551e-002
3.243733e+003,-1.789865e-002
3.245662e+003,-1.800464e-002
3.247590e+003,-1.783470e-002
3.249519e+003,-1.773318e-002
3.251447e+003,-1.775986e-002
3.253375e+003,-1.785689e-002
3.255304e+003,-1.770538e-002
3.257232e+003,-1.757016e-002
3.259161e+003,-1.761461e-002
3.261090e+003,-1.757201e-002
3.263018e+003,-1.755800e-002
3.264947e+003,-1.769122e-002
3.266875e+003,-1.780334e-002
3.268803e+003,-1.776877e-002
3.270732e+003,-1.766482e-002
3.272660e+003,-1.763218e-002
3.274589e+003,-1.766663e-002
3.276518e+003,-1.763412e-002
3.278446e+003,-1.748561e-002
3.280375e+003,-1.747997e-002
3.282303e+003,-1.756618e-002
3.284231e+003,-1.751492e-002
3.286160e+003,-1.762546e-002
3.288088e+003,-1.777427e-002
3.290017e+003,-1.780350e-002
3.291946e+003,-1.770057e-002
3.293874e+003,-1.769994e-002
3.295802e+003,-1.779103e-002
3.297731e+003,-1.782999e-002
3.299659e+003,-1.787992e-002
3.301588e+003,-1.806151e-002
3.303516e+003,-1.825020e-002
3.305445e+003,-1.830449e-002
3.307374e+003,-1.828921e-002
3.309302e+003,-1.843583e-002
3.311230e+003,-1.864721e-002
3.313159e+003,-1.866239e-002
3.315087e+003,-1.866728e-002
3.317016e+003,-1.861461e-002
3.318944e+003,-1.873833e-002
3.320873e+003,-1.890006e-002
3.322802e+003,-1.901434e-002
3.324730e+003,-1.909974e-002
3.326658e+003,-1.920941e-002
3.328587e+003,-1.920719e-002
3.330515e+003,-1.927784e-002
3.332444e+003,-1.940517e-002
3.334372e+003,-1.936515e-002
3.336301e+003,-1.929708e-002
3.338229e+003,-1.941021e-002
3.340158e+003,-1.953754e-002
3.342086e+003,-1.950694e-002
3.344015e+003,-1.959829e-002
3.345943e+003,-1.952848e-002
3.347872e+003,-1.958993e-002
3.349800e+003,-1.978622e-002
3.351729e+003,-1.974209e-002
3.353657e+003,-1.972214e-002
3.355586e+003,-1.986311e-002
3.357514e+003,-1.981446e-002
3.359443e+003,-1.977856e-002
3.361371e+003,-1.996373e-002
3.363300e+003,-2.009152e-002
3.365229e+003,-2.007583e-002
3.367157e+003,-2.015014e-002
3.369085e+003,-2.028459e-002
3.371014e+003,-2.041103e-002
3.372942e+003,-2.035178e-002
3.374871e+003,-2.037495e-002
3.376799e+003,-2.042402e-002
3.378728e+003,-2.058262e-002
3.380656e+003,-2.076362e-002
3.382585e+003,-2.089279e-002
3.384513e+003,-2.089661e-002
3.386442e+003,-2.098638e-002
3.388370e+003,-2.107710e-002
3.390299e+003,-2.102953e-002
3.392227e+003,-2.092269e-002
3.394156e+003,-2.107025e-002
3.396084e+003,-2.115929e-002
3.398013e+003,-2.126411e-002
3.399941e+003,-2.141481e-002
3.401870e+003,-2.146192e-002
3.403798e+003,-2.134062e-002
3.405727e+003,-2.124212e-002
3.407655e+003,-2.129907e-002
3.409584e+003,-2.143994e-002
3.411512e+003,-2.154823e-002
3.413441e+003,-2.159104e-002
3.415369e+003,-2.160463e-002
3.417298e+003,-2.161664e-002
3.419226e+003,-2.159174e-002
3.421155e+003,-2.154069e-002
3.423083e+003,-2.154221e-002
3.425012e+003,-2.148107e-002
3.426940e+003,-2.142982e-002
3.428869e+003,-2.152149e-002
3.430797e+003,-2.165227e-002
3.432726e+003,-2.181502e-002
3.434654e+003,-2.176658e-002
3.436583e+003,-2.190481e-002
3.438511e+003,-2.196180e-002
3.440440e+003,-2.173516e-002
3.442368e+003,-2.184728e-002
3.444297e+003,-2.199399e-002
3.446225e+003,-2.189174e-002
3.448154e+003,-2.178278e-002
3.450082e+003,-2.186386e-002
3.452011e+003,-2.189139e-002
3.453939e+003,-2.195286e-002
3.455868e+003,-2.204278e-002
3.457796e+003,-2.199343e-002
3.459725e+003,-2.197289e-002
3.461653e+003,-2.190419e-002
3.463582e+003,-2.180163e-002
3.465510e+003,-2.197194e-002
3.467439e+003,-2.206587e-002
3.469367e+003,-2.205462e-002
3.471296e+003,-2.212475e-002
3.473224e+003,-2.207815e-002
3.475153e+003,-2.207069e-002
3.477081e+003,-2.216333e-002
3.479010e+003,-2.223835e-002
3.480938e+003,-2.227351e-002
3.482867e+003,-2.236110e-002
3.484795e+003,-2.226501e-002
3.486724e+003,-2.218640e-002
3.488652e+003,-2.227782e-002
3.490581e+003,-2.222254e-002
3.492509e+003,-2.226536e-002
3.494438e+003,-2.232047e-002
3.496366e+003,-2.217822e-002
3.498295e+003,-2.224430e-002
3.500223e+003,-2.231965e-002
3.502152e+003,-2.224848e-002
3.504080e+003,-2.211751e-002
3.506009e+003,-2.213691e-002
3.507937e+003,-2.222815e-002
3.509866e+003,-2.220586e-002
3.511794e+003,-2.212107e-002
3.513723e+003,-2.206757e-002
3.515651e+003,-2.224310e-002
3.517580e+003,-2.227467e-002
3.519508e+003,-2.216833e-002
3.521437e+003,-2.220869e-002
3.523365e+003,-2.224650e-002
3.525294e+003,-2.236306e-002
3.527222e+003,-2.241114e-002
3.529151e+003,-2.228399e-002
3.531079e+003,-2.224710e-002
3.533008e+003,-2.219840e-002
3.534936e+003,-2.216789e-002
3.536865e+003,-2.219182e-002
3.538793e+003,-2.234505e-002
3.540722e+003,-2.237923e-002
3.542650e+003,-2.232239e-002
3.544579e+003,-2.220114e-002
3.546507e+003,-2.197560e-002
3.548436e+003,-2.202977e-002
3.550364e+003,-2.213952e-002
3.552293e+003,-2.207544e-002
3.554221e+003,-2.214620e-002
3.556150e+003,-2.228141e-002
3.558078e+003,-2.229784e-002
3.560007e+003,-2.222947e-002
3.561935e+003,-2.226633e-002
3.563864e+003,-2.217878e-002
3.565792e+003,-2.199916e-002
3.567721e+003,-2.201478e-002
3.569649e+003,-2.221474e-002
3.571578e+003,-2.221055e-002
3.573506e+003,-2.215624e-002
3.575435e+003,-2.218275e-002
3.577363e+003,-2.202952e-002
3.579292e+003,-2.203359e-002
3.581220e+003,-2.208612e-002
3.583149e+003,-2.204552e-002
3.585077e+003,-2.195418e-002
3.587006e+003,-2.185844e-002
3.588934e+003,-2.192435e-002
3.590863e+003,-2.204955e-002
3.592791e+003,-2.203692e-002
3.594720e+003,-2.202433e-002
3.596648e+003,-2.193402e-002
3.598577e+003,-2.207018e-002
3.600505e+003,-2.206757e-002
3.602434e+003,-2.191190e-002
3.604362e+003,-2.199878e-002
3.606291e+003,-2.206656e-002
3.608219e+003,-2.187006e-002
3.610148e+003,-2.191153e-002
3.612076e+003,-2.206744e-002
3.614005e+003,-2.211354e-002
3.615933e+003,-2.198511e-002
3.617862e+003,-2.186090e-002
3.619790e+003,-2.192819e-002
3.621719e+003,-2.220227e-002
3.623647e+003,-2.226073e-002
3.625576e+003,-2.205519e-002
3.627504e+003,-2.169176e-002
3.629433e+003,-2.121293e-002
3.631361e+003,-2.180651e-002
3.633290e+003,-2.216798e-002
3.635218e+003,-2.223637e-002
3.637146e+003,-2.225654e-002
3.639075e+003,-2.220240e-002
3.641004e+003,-2.235387e-002
3.642932e+003,-2.238244e-002
3.644861e+003,-2.242492e-002
3.646789e+003,-2.221285e-002
3.648718e+003,-2.193937e-002
3.650646e+003,-2.206574e-002
3.652574e+003,-2.256398e-002
3.654503e+003,-2.255599e-002
3.656432e+003,-2.212608e-002
3.658360e+003,-2.233165e-002
3.660289e+003,-2.252938e-002
3.662217e+003,-2.265740e-002
3.664146e+003,-2.278117e-002
3.666074e+003,-2.295003e-002
3.668002e+003,-2.294189e-002
3.669931e+003,-2.245570e-002
3.671860e+003,-2.261387e-002
3.673788e+003,-2.277736e-002
3.675717e+003,-2.234852e-002
3.677645e+003,-2.261594e-002
3.679573e+003,-2.281336e-002
3.681502e+003,-2.285360e-002
3.683430e+003,-2.286404e-002
3.685359e+003,-2.300434e-002
3.687288e+003,-2.273677e-002
3.689216e+003,-2.222648e-002
3.691145e+003,-2.230987e-002
3.693073e+003,-2.254045e-002
3.695001e+003,-2.270772e-002
3.696930e+003,-2.269998e-002
3.698858e+003,-2.266199e-002
3.700787e+003,-2.244877e-002
3.702716e+003,-2.238766e-002
3.704644e+003,-2.257830e-002
3.706573e+003,-2.253608e-002
3.708501e+003,-2.252526e-002
3.710429e+003,-2.238326e-002
3.712358e+003,-2.229337e-002
3.714286e+003,-2.273878e-002
3.716215e+003,-2.296163e-002
3.718144e+003,-2.278629e-002
3.720072e+003,-2.272797e-002
3.722000e+003,-2.265325e-002
3.723929e+003,-2.257587e-002
3.725857e+003,-2.258710e-002
3.727786e+003,-2.297087e-002
3.729714e+003,-2.336950e-002
3.731643e+003,-2.304720e-002
3.733572e+003,-2.270312e-002
3.735500e+003,-2.242712e-002
3.737428e+003,-2.264425e-002
3.739357e+003,-2.292923e-002
3.741285e+003,-2.291040e-002
3.743214e+003,-2.246070e-002
3.745142e+003,-2.202127e-002
3.747071e+003,-2.283477e-002
3.749000e+003,-2.265092e-002
3.750928e+003,-2.216386e-002
3.752856e+003,-2.206212e-002
3.754785e+003,-2.245028e-002
3.756713e+003,-2.259868e-002
3.758642e+003,-2.256949e-002
3.760570e+003,-2.242266e-002
3.762499e+003,-2.270454e-002
3.764427e+003,-2.279091e-002
3.766356e+003,-2.261727e-002
3.768284e+003,-2.263372e-002
3.770213e+003,-2.241035e-002
3.772141e+003,-2.243981e-002
3.774070e+003,-2.261204e-002
3.775998e+003,-2.267177e-002
3.777927e+003,-2.262529e-002
3.779855e+003,-2.243622e-002
3.781784e+003,-2.256046e-002
3.783712e+003,-2.265045e-002
3.785641e+003,-2.263743e-002
3.787569e+003,-2.265885e-002
3.789498e+003,-2.282779e-002
3.791426e+003,-2.292464e-002
3.793355e+003,-2.291694e-002
3.795283e+003,-2.266595e-002
3.797212e+003,-2.240368e-002
3.799140e+003,-2.259544e-002
3.801069e+003,-2.241721e-002
3.802997e+003,-2.250946e-002
3.804926e+003,-2.285492e-002
3.806854e+003,-2.239792e-002
3.808783e+003,-2.256030e-002
3.810711e+003,-2.285599e-002
3.812640e+003,-2.293017e-002
3.814568e+003,-2.291185e-002
3.816497e+003,-2.239012e-002
3.818425e+003,-2.257166e-002
3.820354e+003,-2.224458e-002
3.822282e+003,-2.207251e-002
3.824211e+003,-2.283710e-002
3.826139e+003,-2.290044e-002
3.828068e+003,-2.286350e-002
3.829996e+003,-2.282220e-002
3.831925e+003,-2.267580e-002
3.833853e+003,-2.261352e-002
3.835782e+003,-2.254030e-002
3.837710e+003,-2.224005e-002
3.839639e+003,-2.254674e-002
3.841567e+003,-2.267661e-002
3.843496e+003,-2.244443e-002
3.845424e+003,-2.265954e-002
3.847353e+003,-2.303633e-002
3.849281e+003,-2.308340e-002
3.851210e+003,-2.272951e-002
3.853138e+003,-2.181455e-002
3.855067e+003,-2.178001e-002
3.856995e+003,-2.248823e-002
3.858924e+003,-2.293737e-002
3.860852e+003,-2.282455e-002
3.862781e+003,-2.257653e-002
3.864709e+003,-2.245928e-002
3.866638e+003,-2.285404e-002
3.868566e+003,-2.280497e-002
3.870495e+003,-2.254508e-002
3.872423e+003,-2.282201e-002
3.874352e+003,-2.269020e-002
3.876280e+003,-2.269325e-002
3.878209e+003,-2.278060e-002
3.880137e+003,-2.270778e-002
3.882066e+003,-2.292825e-002
3.883994e+003,-2.301034e-002
3.885923e+003,-2.261456e-002
3.887851e+003,-2.282710e-002
3.889780e+003,-2.284954e-002
3.891708e+003,-2.258827e-002
3.893637e+003,-2.267124e-002
3.895565e+003,-2.288041e-002
3.897494e+003,-2.307124e-002
3.899422e+003,-2.299120e-002
3.901351e+003,-2.299497e-002
3.903279e+003,-2.297744e-002
3.905208e+003,-2.285024e-002
3.907136e+003,-2.319328e-002
3.909065e+003,-2.327520e-002
3.910993e+003,-2.309612e-002
3.912922e+003,-2.304997e-002
3.914850e+003,-2.308481e-002
3.916779e+003,-2.302084e-002
3.918707e+003,-2.307988e-002
3.920636e+003,-2.327291e-002
3.922564e+003,-2.314962e-002
3.924493e+003,-2.301785e-002
3.926421e+003,-2.315198e-002
3.928350e+003,-2.353584e-002
3.930278e+003,-2.367872e-002
3.932207e+003,-2.339631e-002
3.934135e+003,-2.319197e-002
3.936064e+003,-2.325651e-002
3.937992e+003,-2.330893e-002
3.939921e+003,-2.327394e-002
3.941849e+003,-2.324184e-002
3.943778e+003,-2.323390e-002
3.945706e+003,-2.323525e-002
3.947635e+003,-2.310366e-002
3.949563e+003,-2.308949e-002
3.951492e+003,-2.327991e-002
3.953420e+003,-2.354196e-002
3.955349e+003,-2.376308e-002
3.957277e+003,-2.367094e-002
3.959206e+003,-2.363322e-002
3.961134e+003,-2.366432e-002
3.963063e+003,-2.346905e-002
3.964991e+003,-2.329297e-002
3.966920e+003,-2.335141e-002
3.968848e+003,-2.328842e-002
3.970777e+003,-2.338874e-002
3.972705e+003,-2.351651e-002
3.974634e+003,-2.357969e-002
3.976562e+003,-2.366768e-002
3.978491e+003,-2.352166e-002
3.980419e+003,-2.330896e-002
3.982348e+003,-2.338997e-002
3.984276e+003,-2.351852e-002
3.986205e+003,-2.344833e-002
3.988133e+003,-2.348876e-002
3.990062e+003,-2.340463e-002
3.991990e+003,-2.336614e-002
3.993919e+003,-2.355436e-002
3.995847e+003,-2.361813e-002
3.997776e+003,-2.346629e-002
3.999704e+003,-2.345904e-002
4.001633e+003,0.000000e+000
