3.991989e+002,-8.110291e-003
4.011274e+002,-2.963810e-003
4.030559e+002,-1.087083e-002
4.049844e+002,-1.904329e-002
4.069129e+002,-1.752682e-002
4.088414e+002,-1.244195e-002
4.107699e+002,-1.506112e-002
4.126984e+002,-1.518486e-002
4.146269e+002,-7.032803e-003
4.165554e+002,-1.665664e-003
4.184839e+002,-5.968224e-003
4.204124e+002,-4.513279e-003
4.223409e+002,-2.321154e-003
4.242694e+002,-2.547249e-003
4.261979e+002,-7.434955e-003
4.281264e+002,-2.935376e-003
4.300549e+002,1.476275e-003
4.319834e+002,1.217725e-003
4.339119e+002,4.019311e-003
4.358404e+002,6.569152e-003
4.377689e+002,4.977749e-003
4.396974e+002,-2.153995e-003
4.416259e+002,-1.015889e-002
4.435544e+002,-7.811353e-003
4.454829e+002,-4.285023e-003
4.474114e+002,-7.279739e-004
4.493399e+002,3.085544e-004
4.512684e+002,5.093368e-004
4.531969e+002,-3.461128e-004
4.551254e+002,-2.452239e-003
4.570539e+002,-3.956714e-003
4.589824e+002,-2.692458e-003
4.609109e+002,-1.290243e-003
4.628394e+002,-1.077936e-003
4.647679e+002,-3.078646e-003
4.666964e+002,-2.954694e-003
4.686249e+002,-1.162343e-003
4.705533e+002,1.137755e-003
4.724819e+002,2.143307e-004
4.744103e+002,-8.020305e-004
4.763389e+002,-6.733909e-004
4.782673e+002,-1.058005e-003
4.801959e+002,-3.423925e-003
4.821243e+002,-4.020832e-003
4.840529e+002,-3.476422e-003
4.859813e+002,-4.204930e-003
4.879099e+002,-4.958326e-003
4.898383e+002,-4.722963e-003
4.917668e+002,-4.627116e-003
4.936953e+002,-4.938541e-003
4.956238e+002,-4.746561e-003
4.975523e+002,-3.597760e-003
4.994808e+002,-4.448839e-003
5.014093e+002,-3.401472e-003
5.033378e+002,-2.565827e-003
5.052663e+002,-1.112507e-003
5.071948e+002,-2.699011e-003
5.091233e+002,-5.838098e-003
5.110518e+002,-6.344817e-003
5.129803e+002,-5.373269e-003
5.149088e+002,-5.606842e-003
5.168373e+002,-6.343804e-003
5.187658e+002,-6.123533e-003
5.206943e+002,-6.886625e-003
5.226228e+002,-6.993908e-003
5.245513e+002,-5.731544e-003
5.264798e+002,-6.615038e-003
5.284083e+002,-7.294321e-003
5.303368e+002,-6.498718e-003
5.322653e+002,-5.539718e-003
5.341938e+002,-4.682647e-003
5.361223e+002,-5.758520e-003
5.380508e+002,-6.729598e-003
5.399792e+002,-5.884845e-003
5.419078e+002,-4.692776e-003
5.438363e+002,-3.931365e-003
5.457648e+002,-3.163618e-003
5.476932e+002,-3.067558e-003
5.496218e+002,-2.996914e-003
5.515503e+002,-1.912125e-003
5.534788e+002,-1.715436e-003
5.554072e+002,-3.152105e-003
5.573358e+002,-4.149830e-003
5.592643e+002,-3.628648e-003
5.611927e+002,-3.408442e-003
5.631212e+002,-2.518854e-003
5.650497e+002,-1.785562e-003
5.669783e+002,-2.569285e-003
5.689067e+002,-2.633412e-003
5.708352e+002,-2.229786e-003
5.727637e+002,-2.611017e-003
5.746923e+002,-3.415707e-003
5.766207e+002,-4.646851e-003
5.785492e+002,-3.908478e-003
5.804777e+002,-2.821456e-003
5.824063e+002,-3.145427e-003
5.843347e+002,-2.762757e-003
5.862632e+002,-2.813358e-003
5.881917e+002,-3.067953e-003
5.901202e+002,-3.184965e-003
5.920487e+002,-3.884178e-003
5.939772e+002,-4.468812e-003
5.959057e+002,-3.401110e-003
5.978342e+002,-2.280648e-003
5.997627e+002,-2.327515e-003
6.016912e+002,-2.473193e-003
6.036197e+002,-1.732762e-003
6.055482e+002,8.622333e-005
6.074767e+002,4.027321e-004
6.094052e+002,-6.520521e-004
6.113337e+002,-1.701409e-003
6.132622e+002,-2.702041e-003
6.151907e+002,-2.700493e-003
6.171192e+002,-2.252136e-003
6.190477e+002,-2.159039e-003
6.209762e+002,-2.144071e-003
6.229047e+002,-2.664237e-003
6.248332e+002,-3.889958e-003
6.267617e+002,-5.128307e-003
6.286902e+002,-5.291249e-003
6.306187e+002,-4.546889e-003
6.325472e+002,-4.208933e-003
6.344756e+002,-4.243650e-003
6.364042e+002,-3.997556e-003
6.383326e+002,-3.665579e-003
6.402612e+002,-3.385593e-003
6.421896e+002,-2.876790e-003
6.441182e+002,-3.060057e-003
6.460466e+002,-3.504919e-003
6.479752e+002,-3.248837e-003
6.499036e+002,-2.877448e-003
6.518322e+002,-2.519315e-003
6.537606e+002,-2.207898e-003
6.556891e+002,-2.014542e-003
6.576177e+002,-2.334238e-003
6.595461e+002,-2.599226e-003
6.614746e+002,-2.736713e-003
6.634031e+002,-2.588851e-003
6.653317e+002,-1.674081e-003
6.672601e+002,-1.603738e-003
6.691886e+002,-1.907242e-003
6.711171e+002,-1.884183e-003
6.730457e+002,-1.139772e-003
6.749741e+002,-1.014075e-003
6.769026e+002,-1.136038e-003
6.788311e+002,-5.888563e-004
6.807596e+002,-7.186788e-004
6.826881e+002,-1.588783e-003
6.846166e+002,-1.856404e-003
6.865451e+002,-9.945383e-004
6.884736e+002,-7.777543e-004
6.904021e+002,-7.828147e-004
6.923306e+002,-1.341721e-004
6.942591e+002,1.497585e-004
6.961876e+002,-6.236648e-004
6.981161e+002,-1.153255e-003
7.000446e+002,-1.016422e-003
7.019731e+002,-8.182029e-004
7.039016e+002,-5.749587e-004
7.058301e+002,-9.361204e-004
7.077585e+002,-1.415727e-003
7.096871e+002,-1.361231e-003
7.116156e+002,-1.169513e-003
7.135441e+002,-1.436897e-003
7.154725e+002,-2.403276e-003
7.174011e+002,-3.136019e-003
7.193296e+002,-3.157960e-003
7.212581e+002,-3.390426e-003
7.231865e+002,-3.605877e-003
7.251151e+002,-3.386842e-003
7.270436e+002,-3.351992e-003
7.289720e+002,-3.657661e-003
7.309005e+002,-3.610740e-003
7.328290e+002,-3.477638e-003
7.347576e+002,-3.114933e-003
7.366860e+002,-2.390095e-003
7.386145e+002,-2.191810e-003
7.405430e+002,-2.684226e-003
7.424716e+002,-2.817177e-003
7.444000e+002,-2.752320e-003
7.463285e+002,-2.334469e-003
7.482570e+002,-1.981296e-003
7.501855e+002,-1.901865e-003
7.521140e+002,-1.310427e-003
7.540425e+002,-6.967466e-004
7.559710e+002,-8.474041e-004
7.578995e+002,-5.095676e-004
7.598280e+002,-2.281011e-004
7.617565e+002,-1.555365e-004
7.636850e+002,4.495965e-004
7.656135e+002,1.011234e-003
7.675420e+002,1.037373e-003
7.694705e+002,1.161176e-003
7.713990e+002,1.238525e-003
7.733275e+002,1.374718e-003
7.752560e+002,1.378507e-003
7.771844e+002,1.249159e-003
7.791130e+002,1.137489e-003
7.810415e+002,1.152405e-003
7.829700e+002,1.273616e-003
7.848984e+002,1.541344e-003
7.868270e+002,1.109916e-003
7.887555e+002,7.651090e-004
7.906840e+002,7.681295e-004
7.926124e+002,5.345821e-004
7.945410e+002,2.587877e-004
7.964695e+002,2.643907e-004
7.983979e+002,2.015680e-004
8.003264e+002,-1.385113e-004
8.022549e+002,-9.379234e-005
8.041835e+002,2.084631e-004
8.061119e+002,6.875451e-004
8.080404e+002,1.233807e-003
8.099689e+002,1.211977e-003
8.118975e+002,5.688863e-004
8.138259e+002,7.488118e-004
8.157545e+002,1.250056e-003
8.176830e+002,8.649302e-004
8.196115e+002,1.501231e-004
8.215399e+002,-1.854447e-004
8.234684e+002,2.229978e-005
8.253970e+002,-4.092775e-004
8.273254e+002,-1.001976e-003
8.292539e+002,-9.778105e-004
8.311824e+002,-1.097205e-003
8.331110e+002,-9.322851e-004
8.350394e+002,-9.843231e-004
8.369679e+002,-1.026306e-003
8.388964e+002,-1.010307e-003
8.408250e+002,-1.164590e-003
8.427534e+002,-1.422234e-003
8.446819e+002,-1.270421e-003
8.466104e+002,-1.214849e-003
8.485389e+002,-1.328463e-003
8.504674e+002,-1.583237e-003
8.523959e+002,-1.511592e-003
8.543244e+002,-1.377944e-003
8.562529e+002,-1.405753e-003
8.581814e+002,-1.570263e-003
8.601099e+002,-1.395284e-003
8.620384e+002,-1.350694e-003
8.639669e+002,-1.759262e-003
8.658954e+002,-1.774937e-003
8.678239e+002,-1.743290e-003
8.697524e+002,-1.917469e-003
8.716809e+002,-2.234171e-003
8.736094e+002,-2.252696e-003
8.755378e+002,-1.937162e-003
8.774664e+002,-1.648137e-003
8.793949e+002,-1.460707e-003
8.813234e+002,-1.418006e-003
8.832518e+002,-1.246369e-003
8.851804e+002,-1.226644e-003
8.871089e+002,-1.397497e-003
8.890374e+002,-1.031892e-003
8.909658e+002,-7.602243e-004
8.928943e+002,-3.693537e-004
8.948229e+002,-4.254202e-005
8.967513e+002,-3.176061e-004
8.986798e+002,-5.676126e-004
9.006083e+002,-8.127791e-004
9.025369e+002,-6.197274e-004
9.044653e+002,-2.789653e-004
9.063938e+002,-6.252529e-004
9.083223e+002,-6.933393e-004
9.102509e+002,-4.816674e-004
9.121793e+002,-6.019925e-004
9.141078e+002,-9.690166e-004
9.160364e+002,-1.118753e-003
9.179648e+002,-1.275277e-003
9.198933e+002,-1.383922e-003
9.218218e+002,-1.509743e-003
9.237504e+002,-1.887020e-003
9.256788e+002,-2.272539e-003
9.276073e+002,-2.500208e-003
9.295358e+002,-2.393654e-003
9.314644e+002,-2.326197e-003
9.333928e+002,-2.526002e-003
9.353213e+002,-2.710931e-003
9.372498e+002,-2.684753e-003
9.391783e+002,-2.856382e-003
9.411068e+002,-3.114801e-003
9.430353e+002,-3.009813e-003
9.449637e+002,-2.951304e-003
9.468923e+002,-3.057589e-003
9.488208e+002,-2.964994e-003
9.507493e+002,-2.831826e-003
9.526777e+002,-2.917406e-003
9.546063e+002,-2.958610e-003
9.565348e+002,-2.736252e-003
9.584633e+002,-2.533150e-003
9.603917e+002,-2.570109e-003
9.623203e+002,-2.739051e-003
9.642488e+002,-2.528308e-003
9.661772e+002,-2.067209e-003
9.681057e+002,-1.815359e-003
9.700343e+002,-2.086830e-003
9.719628e+002,-2.413656e-003
9.738912e+002,-2.575313e-003
9.758197e+002,-2.512034e-003
9.777483e+002,-2.340203e-003
9.796768e+002,-2.259849e-003
9.816052e+002,-2.131707e-003
9.835337e+002,-2.112484e-003
9.854623e+002,-2.037265e-003
9.873907e+002,-2.061174e-003
9.893192e+002,-1.993797e-003
9.912477e+002,-1.834034e-003
9.931763e+002,-1.777478e-003
9.951047e+002,-1.696624e-003
9.970332e+002,-1.647146e-003
9.989617e+002,-1.553425e-003
1.000890e+003,-1.441883e-003
1.002819e+003,-1.328034e-003
1.004747e+003,-1.351520e-003
1.006676e+003,-1.075821e-003
1.008604e+003,-7.963089e-004
1.010533e+003,-9.315577e-004
1.012461e+003,-9.440554e-004
1.014390e+003,-6.336567e-004
1.016318e+003,-2.520107e-004
1.018247e+003,7.359694e-005
1.020175e+003,2.137198e-005
1.022104e+003,1.413065e-004
1.024032e+003,6.620586e-004
1.025961e+003,9.116121e-004
1.027889e+003,8.239632e-004
1.029818e+003,1.012098e-003
1.031746e+003,1.309375e-003
1.033675e+003,1.629038e-003
1.035603e+003,2.163899e-003
1.037532e+003,2.433109e-003
1.039460e+003,2.475828e-003
1.041389e+003,2.419115e-003
1.043317e+003,2.410885e-003
1.045246e+003,2.480593e-003
1.047174e+003,2.532448e-003
1.049103e+003,2.496622e-003
1.051031e+003,2.515584e-003
1.052960e+003,2.792616e-003
1.054888e+003,2.909016e-003
1.056817e+003,2.688884e-003
1.058745e+003,2.451302e-003
1.060674e+003,2.268072e-003
1.062602e+003,2.391794e-003
1.064531e+003,2.639143e-003
1.066459e+003,2.722292e-003
1.068388e+003,2.743431e-003
1.070316e+003,2.595776e-003
1.072245e+003,2.585509e-003
1.074173e+003,2.773475e-003
1.076102e+003,2.770240e-003
1.078030e+003,2.506620e-003
1.079959e+003,2.595809e-003
1.081887e+003,2.858383e-003
1.083816e+003,2.990681e-003
1.085744e+003,3.063184e-003
1.087673e+003,3.036190e-003
1.089601e+003,2.828100e-003
1.091530e+003,2.869890e-003
1.093458e+003,3.346876e-003
1.095387e+003,3.572721e-003
1.097315e+003,3.556585e-003
1.099244e+003,3.415933e-003
1.101172e+003,3.648964e-003
1.103101e+003,3.865037e-003
1.105029e+003,3.587521e-003
1.106958e+003,3.411759e-003
1.108886e+003,3.376962e-003
1.110815e+003,3.521644e-003
1.112743e+003,3.728529e-003
1.114672e+003,3.735180e-003
1.116600e+003,3.696982e-003
1.118529e+003,3.563768e-003
1.120457e+003,3.499230e-003
1.122386e+003,3.581307e-003
1.124314e+003,3.709514e-003
1.126243e+003,3.478121e-003
1.128171e+003,3.261673e-003
1.130100e+003,3.258902e-003
1.132028e+003,2.939038e-003
1.133957e+003,2.675281e-003
1.135885e+003,2.583543e-003
1.137814e+003,2.409986e-003
1.139742e+003,2.164465e-003
1.141671e+003,1.900480e-003
1.143599e+003,1.410418e-003
1.145528e+003,1.035579e-003
1.147456e+003,8.242620e-004
1.149385e+003,5.811289e-004
1.151313e+003,5.000485e-004
1.153242e+003,3.845250e-004
1.155170e+003,1.488636e-004
1.157099e+003,-5.155351e-005
1.159027e+003,-3.166129e-004
1.160956e+003,-3.586273e-004
1.162884e+003,-4.187780e-004
1.164813e+003,-5.274386e-004
1.166741e+003,-5.178413e-004
1.168670e+003,-3.997107e-004
1.170598e+003,-2.146886e-004
1.172526e+003,-2.403541e-004
1.174455e+003,-2.057799e-004
1.176384e+003,-2.177023e-004
1.178312e+003,-2.405196e-004
1.180240e+003,-1.757405e-004
1.182169e+003,-1.122436e-004
1.184098e+003,2.780035e-005
1.186026e+003,-2.044322e-005
1.187954e+003,-1.972022e-004
1.189883e+003,-3.683605e-004
1.191812e+003,-4.583001e-004
1.193740e+003,-2.052831e-004
1.195668e+003,2.809858e-005
1.197597e+003,-3.167499e-005
1.199526e+003,-1.192662e-004
1.201454e+003,-1.933935e-004
1.203382e+003,-4.042165e-005
1.205311e+003,1.065721e-004
1.207240e+003,1.367657e-004
1.209168e+003,2.702259e-004
1.211096e+003,4.090998e-004
1.213025e+003,5.021052e-004
1.214953e+003,6.141427e-004
1.216882e+003,7.042715e-004
1.218810e+003,7.670010e-004
1.220739e+003,7.951824e-004
1.222667e+003,1.016316e-003
1.224596e+003,1.288770e-003
1.226524e+003,1.337492e-003
1.228453e+003,1.360691e-003
1.230381e+003,1.634692e-003
1.232310e+003,1.728227e-003
1.234238e+003,1.757668e-003
1.236167e+003,1.955594e-003
1.238095e+003,2.018105e-003
1.240024e+003,2.102532e-003
1.241952e+003,2.206391e-003
1.243881e+003,2.061515e-003
1.245809e+003,2.060882e-003
1.247738e+003,1.928834e-003
1.249666e+003,1.609549e-003
1.251595e+003,1.465071e-003
1.253523e+003,1.535525e-003
1.255452e+003,1.564455e-003
1.257380e+003,1.509922e-003
1.259309e+003,1.315988e-003
1.261237e+003,1.376480e-003
1.263166e+003,1.633927e-003
1.265094e+003,1.708600e-003
1.267023e+003,1.948937e-003
1.268951e+003,2.356580e-003
1.270880e+003,2.642577e-003
1.272808e+003,2.888402e-003
1.274737e+003,3.163435e-003
1.276665e+003,3.392424e-003
1.278594e+003,3.678904e-003
1.280522e+003,3.955642e-003
1.282451e+003,4.145205e-003
1.284379e+003,4.328527e-003
1.286308e+003,4.779782e-003
1.288236e+003,5.091484e-003
1.290165e+003,5.322900e-003
1.292093e+003,5.606898e-003
1.294022e+003,5.594814e-003
1.295950e+003,5.729862e-003
1.297879e+003,5.928028e-003
1.299807e+003,5.980934e-003
1.301736e+003,5.868646e-003
1.303664e+003,5.820185e-003
1.305593e+003,5.833954e-003
1.307521e+003,5.772872e-003
1.309450e+003,5.503296e-003
1.311378e+003,5.213195e-003
1.313307e+003,5.103284e-003
1.315235e+003,5.099563e-003
1.317164e+003,4.946379e-003
1.319092e+003,4.562249e-003
1.321021e+003,4.116371e-003
1.322949e+003,3.786316e-003
1.324878e+003,3.668979e-003
1.326806e+003,3.572955e-003
1.328735e+003,3.491214e-003
1.330663e+003,3.273925e-003
1.332592e+003,3.129226e-003
1.334520e+003,3.096621e-003
1.336449e+003,2.971564e-003
1.338377e+003,2.783712e-003
1.340306e+003,2.733728e-003
1.342234e+003,2.942007e-003
1.344163e+003,2.961456e-003
1.346091e+003,2.773942e-003
1.348020e+003,2.615942e-003
1.349948e+003,2.516818e-003
1.351877e+003,2.389795e-003
1.353805e+003,2.282562e-003
1.355734e+003,2.148415e-003
1.357662e+003,1.910197e-003
1.359591e+003,1.726064e-003
1.361519e+003,1.586336e-003
1.363448e+003,1.505633e-003
1.365376e+003,1.417233e-003
1.367305e+003,1.283553e-003
1.369233e+003,1.250787e-003
1.371162e+003,1.035546e-003
1.373090e+003,9.158289e-004
1.375019e+003,9.834707e-004
1.376947e+003,1.057068e-003
1.378876e+003,1.150877e-003
1.380804e+003,1.283420e-003
1.382733e+003,1.167721e-003
1.384661e+003,9.325640e-004
1.386590e+003,7.680299e-004
1.388518e+003,5.807308e-004
1.390447e+003,4.521173e-004
1.392375e+003,2.609758e-004
1.394304e+003,-4.466239e-005
1.396232e+003,-1.282760e-004
1.398161e+003,-1.554040e-004
1.400089e+003,-1.020516e-005
1.402018e+003,6.146800e-005
1.403946e+003,-2.624137e-005
1.405875e+003,8.900715e-005
1.407803e+003,1.940431e-004
1.409732e+003,1.620225e-004
1.411660e+003,1.658012e-004
1.413589e+003,3.469194e-004
1.415517e+003,6.464953e-004
1.417446e+003,9.355525e-004
1.419374e+003,1.325593e-003
1.421303e+003,1.964081e-003
1.423231e+003,2.465498e-003
1.425160e+003,3.157628e-003
1.427088e+003,3.760012e-003
1.429017e+003,3.880582e-003
1.430945e+003,4.131624e-003
1.432874e+003,4.446711e-003
1.434802e+003,4.576547e-003
1.436731e+003,4.610669e-003
1.438659e+003,5.111264e-003
1.440588e+003,5.557325e-003
1.442516e+003,6.017486e-003
1.444445e+003,6.446959e-003
1.446373e+003,6.798765e-003
1.448302e+003,7.052376e-003
1.450230e+003,7.398000e-003
1.452159e+003,7.873646e-003
1.454087e+003,8.180385e-003
1.456016e+003,7.810354e-003
1.457944e+003,7.948826e-003
1.459873e+003,8.522416e-003
1.461801e+003,8.692314e-003
1.463730e+003,8.552726e-003
1.465658e+003,8.543974e-003
1.467587e+003,8.586420e-003
1.469515e+003,8.431393e-003
1.471444e+003,8.090110e-003
1.473372e+003,7.780465e-003
1.475301e+003,7.705450e-003
1.477229e+003,7.475761e-003
1.479158e+003,7.195020e-003
1.481086e+003,6.703359e-003
1.483015e+003,6.221934e-003
1.484943e+003,5.799500e-003
1.486872e+003,5.385260e-003
1.488800e+003,4.890851e-003
1.490729e+003,4.491503e-003
1.492657e+003,4.272006e-003
1.494586e+003,3.937921e-003
1.496514e+003,3.399202e-003
1.498443e+003,3.059581e-003
1.500371e+003,2.857849e-003
1.502300e+003,2.682549e-003
1.504228e+003,2.259679e-003
1.506157e+003,1.524818e-003
1.508085e+003,1.535093e-003
1.510014e+003,1.793400e-003
1.511942e+003,1.859182e-003
1.513871e+003,1.865970e-003
1.515799e+003,1.656378e-003
1.517728e+003,1.610480e-003
1.519656e+003,1.418031e-003
1.521585e+003,1.262152e-003
1.523513e+003,1.751447e-003
1.525442e+003,2.079959e-003
1.527370e+003,2.320335e-003
1.529299e+003,2.482259e-003
1.531227e+003,2.655945e-003
1.533156e+003,2.803154e-003
1.535084e+003,3.273958e-003
1.537013e+003,3.495489e-003
1.538941e+003,3.234466e-003
1.540870e+003,3.350316e-003
1.542798e+003,3.936884e-003
1.544727e+003,4.493780e-003
1.546655e+003,4.861297e-003
1.548584e+003,5.059033e-003
1.550512e+003,5.255048e-003
1.552441e+003,5.369392e-003
1.554369e+003,5.386266e-003
1.556298e+003,5.369963e-003
1.558226e+003,5.073682e-003
1.560155e+003,5.559507e-003
1.562083e+003,6.570598e-003
1.564012e+003,7.098549e-003
1.565940e+003,7.499325e-003
1.567869e+003,7.569180e-003
1.569797e+003,7.532970e-003
1.571726e+003,7.838187e-003
1.573654e+003,7.944101e-003
1.575583e+003,7.652198e-003
1.577511e+003,7.684168e-003
1.579440e+003,7.829853e-003
1.581368e+003,7.803674e-003
1.583297e+003,7.632234e-003
1.585225e+003,7.399551e-003
1.587154e+003,7.229045e-003
1.589082e+003,6.869989e-003
1.591010e+003,6.386934e-003
1.592939e+003,5.864548e-003
1.594868e+003,5.421526e-003
1.596796e+003,5.032819e-003
1.598724e+003,4.627581e-003
1.600653e+003,4.056935e-003
1.602582e+003,3.533335e-003
1.604510e+003,3.062818e-003
1.606438e+003,2.690684e-003
1.608367e+003,2.348551e-003
1.610296e+003,2.102632e-003
1.612224e+003,1.720276e-003
1.614152e+003,1.330047e-003
1.616081e+003,7.065946e-004
1.618010e+003,5.499092e-004
1.619938e+003,5.668956e-004
1.621866e+003,2.667115e-004
1.623795e+003,-2.302755e-005
1.625724e+003,-7.500899e-005
1.627652e+003,-1.857097e-004
1.629580e+003,-3.069447e-004
1.631509e+003,-4.650853e-004
1.633438e+003,-7.888011e-004
1.635366e+003,-1.289582e-003
1.637294e+003,-1.406183e-003
1.639223e+003,-1.470482e-003
1.641151e+003,-1.703687e-003
1.643080e+003,-2.159929e-003
1.645008e+003,-2.837817e-003
1.646937e+003,-3.279717e-003
1.648865e+003,-3.284025e-003
1.650794e+003,-3.677276e-003
1.652722e+003,-4.556726e-003
1.654651e+003,-4.651408e-003
1.656579e+003,-4.435064e-003
1.658508e+003,-4.642950e-003
1.660436e+003,-4.979389e-003
1.662365e+003,-5.361880e-003
1.664293e+003,-5.467054e-003
1.666222e+003,-5.511157e-003
1.668150e+003,-5.877784e-003
1.670079e+003,-6.185700e-003
1.672007e+003,-6.126539e-003
1.673936e+003,-6.254651e-003
1.675864e+003,-6.211440e-003
1.677793e+003,-5.890140e-003
1.679721e+003,-5.775555e-003
1.681650e+003,-5.900567e-003
1.683578e+003,-6.196087e-003
1.685507e+003,-5.799259e-003
1.687435e+003,-5.436983e-003
1.689364e+003,-5.358018e-003
1.691292e+003,-5.166159e-003
1.693221e+003,-5.092712e-003
1.695149e+003,-5.299268e-003
1.697078e+003,-5.103485e-003
1.699006e+003,-5.289252e-003
1.700935e+003,-5.377196e-003
1.702863e+003,-4.824752e-003
1.704792e+003,-4.718440e-003
1.706720e+003,-4.684712e-003
1.708649e+003,-4.645376e-003
1.710577e+003,-4.621445e-003
1.712506e+003,-4.681664e-003
1.714434e+003,-4.819935e-003
1.716363e+003,-5.034777e-003
1.718291e+003,-5.114488e-003
1.720220e+003,-4.862237e-003
1.722148e+003,-4.830552e-003
1.724077e+003,-4.861975e-003
1.726005e+003,-4.825309e-003
1.727934e+003,-4.854963e-003
1.729862e+003,-4.920326e-003
1.731791e+003,-5.119924e-003
1.733719e+003,-5.514789e-003
1.735648e+003,-5.349084e-003
1.737576e+003,-5.067888e-003
1.739505e+003,-5.057179e-003
1.741433e+003,-4.991476e-003
1.743362e+003,-4.928581e-003
1.745290e+003,-4.669896e-003
1.747219e+003,-4.607807e-003
1.749147e+003,-4.624986e-003
1.751076e+003,-4.604954e-003
1.753004e+003,-4.367496e-003
1.754933e+003,-4.177988e-003
1.756861e+003,-4.136374e-003
1.758790e+003,-4.172442e-003
1.760718e+003,-4.303593e-003
1.762647e+003,-4.203289e-003
1.764575e+003,-3.981962e-003
1.766504e+003,-4.031764e-003
1.768432e+003,-4.090555e-003
1.770361e+003,-4.179859e-003
1.772289e+003,-4.346535e-003
1.774218e+003,-4.128760e-003
1.776146e+003,-3.829202e-003
1.778075e+003,-3.759372e-003
1.780003e+003,-3.821418e-003
1.781932e+003,-3.790971e-003
1.783860e+003,-3.794321e-003
1.785789e+003,-3.757565e-003
1.787717e+003,-3.602624e-003
1.789646e+003,-3.676553e-003
1.791574e+003,-3.930905e-003
1.793503e+003,-3.933762e-003
1.795431e+003,-3.788573e-003
1.797360e+003,-3.765416e-003
1.799288e+003,-3.720511e-003
1.801217e+003,-3.680101e-003
1.803145e+003,-3.587278e-003
1.805074e+003,-3.555598e-003
1.807002e+003,-3.610806e-003
1.808931e+003,-3.711509e-003
1.810859e+003,-3.592042e-003
1.812788e+003,-3.463372e-003
1.814716e+003,-3.528583e-003
1.816645e+003,-3.654014e-003
1.818573e+003,-3.711115e-003
1.820502e+003,-3.741699e-003
1.822430e+003,-3.792153e-003
1.824359e+003,-3.845065e-003
1.826287e+003,-3.872684e-003
1.828216e+003,-3.948866e-003
1.830144e+003,-4.001956e-003
1.832073e+003,-3.856297e-003
1.834001e+003,-3.824834e-003
1.835930e+003,-3.883915e-003
1.837858e+003,-3.862964e-003
1.839787e+003,-3.902798e-003
1.841715e+003,-3.930479e-003
1.843644e+003,-4.090686e-003
1.845572e+003,-4.020734e-003
1.847501e+003,-3.862044e-003
1.849429e+003,-3.824637e-003
1.851358e+003,-3.770639e-003
1.853286e+003,-3.749649e-003
1.855215e+003,-3.793336e-003
1.857143e+003,-3.840139e-003
1.859072e+003,-3.861322e-003
1.861000e+003,-3.830023e-003
1.862929e+003,-3.743998e-003
1.864857e+003,-3.713316e-003
1.866786e+003,-3.846543e-003
1.868714e+003,-3.984720e-003
1.870643e+003,-3.848349e-003
1.872571e+003,-3.655427e-003
1.874500e+003,-3.557405e-003
1.876428e+003,-3.581691e-003
1.878357e+003,-3.621584e-003
1.880285e+003,-3.506398e-003
1.882214e+003,-3.412321e-003
1.884142e+003,-3.446213e-003
1.886071e+003,-3.461860e-003
1.887999e+003,-3.535255e-003
1.889928e+003,-3.517047e-003
1.891856e+003,-3.422019e-003
1.893785e+003,-3.358765e-003
1.895713e+003,-3.306221e-003
1.897642e+003,-3.281460e-003
1.899570e+003,-3.265938e-003
1.901499e+003,-3.219994e-003
1.903427e+003,-3.197859e-003
1.905356e+003,-3.302736e-003
1.907284e+003,-3.323583e-003
1.909213e+003,-3.230189e-003
1.911141e+003,-3.088055e-003
1.913070e+003,-3.058083e-003
1.914998e+003,-3.136908e-003
1.916927e+003,-3.272120e-003
1.918855e+003,-3.239365e-003
1.920784e+003,-3.223151e-003
1.922712e+003,-3.327430e-003
1.924641e+003,-3.224829e-003
1.926569e+003,-3.182794e-003
1.928498e+003,-3.252619e-003
1.930426e+003,-3.283400e-003
1.932355e+003,-3.240911e-003
1.934283e+003,-3.230518e-003
1.936212e+003,-3.236241e-003
1.938140e+003,-3.227098e-003
1.940069e+003,-3.251435e-003
1.941997e+003,-3.366787e-003
1.943926e+003,-3.358567e-003
1.945854e+003,-3.391412e-003
1.947783e+003,-3.489865e-003
1.949711e+003,-3.474877e-003
1.951640e+003,-3.376289e-003
1.953568e+003,-3.404464e-003
1.955497e+003,-3.449665e-003
1.957425e+003,-3.373165e-003
1.959354e+003,-3.351071e-003
1.961282e+003,-3.377801e-003
1.963211e+003,-3.460282e-003
1.965139e+003,-3.464030e-003
1.967068e+003,-3.467941e-003
1.968996e+003,-3.393647e-003
1.970925e+003,-3.378360e-003
1.972853e+003,-3.453642e-003
1.974782e+003,-3.472346e-003
1.976710e+003,-3.418008e-003
1.978639e+003,-3.354786e-003
1.980567e+003,-3.356430e-003
1.982496e+003,-3.365669e-003
1.984424e+003,-3.343837e-003
1.986353e+003,-3.350150e-003
1.988281e+003,-3.278007e-003
1.990210e+003,-3.205753e-003
1.992138e+003,-3.158684e-003
1.994067e+003,-3.121019e-003
1.995995e+003,-3.076178e-003
1.997924e+003,-2.954891e-003
1.999852e+003,-2.937120e-003
2.001781e+003,-2.973814e-003
2.003709e+003,-2.957063e-003
2.005638e+003,-2.880740e-003
2.007566e+003,-2.890252e-003
2.009495e+003,-2.962098e-003
2.011423e+003,-3.002739e-003
2.013352e+003,-2.902398e-003
2.015280e+003,-2.847923e-003
2.017208e+003,-2.862011e-003
2.019137e+003,-2.921520e-003
2.021066e+003,-2.923856e-003
2.022994e+003,-2.839397e-003
2.024922e+003,-2.748303e-003
2.026851e+003,-2.781951e-003
2.028780e+003,-2.820008e-003
2.030708e+003,-2.782906e-003
2.032636e+003,-2.727000e-003
2.034565e+003,-2.730457e-003
2.036494e+003,-2.767333e-003
2.038422e+003,-2.729370e-003
2.040350e+003,-2.652349e-003
2.042279e+003,-2.630053e-003
2.044208e+003,-2.739084e-003
2.046136e+003,-2.767893e-003
2.048064e+003,-2.678068e-003
2.049993e+003,-2.635619e-003
2.051921e+003,-2.715179e-003
2.053850e+003,-2.756633e-003
2.055778e+003,-2.720447e-003
2.057707e+003,-2.632885e-003
2.059635e+003,-2.501229e-003
2.061564e+003,-2.497111e-003
2.063492e+003,-2.534369e-003
2.065421e+003,-2.611083e-003
2.067349e+003,-2.641218e-003
2.069278e+003,-2.587961e-003
2.071206e+003,-2.517668e-003
2.073135e+003,-2.426374e-003
2.075063e+003,-2.435534e-003
2.076992e+003,-2.499549e-003
2.078920e+003,-2.445089e-003
2.080849e+003,-2.350947e-003
2.082777e+003,-2.340961e-003
2.084706e+003,-2.340500e-003
2.086634e+003,-2.337039e-003
2.088563e+003,-2.331635e-003
2.090491e+003,-2.226325e-003
2.092420e+003,-2.123200e-003
2.094348e+003,-2.122936e-003
2.096277e+003,-2.065131e-003
2.098205e+003,-2.037100e-003
2.100134e+003,-2.052666e-003
2.102062e+003,-1.935777e-003
2.103991e+003,-1.796914e-003
2.105919e+003,-1.723951e-003
2.107848e+003,-1.687910e-003
2.109776e+003,-1.706096e-003
2.111705e+003,-1.667281e-003
2.113633e+003,-1.571220e-003
2.115562e+003,-1.563660e-003
2.117490e+003,-1.530875e-003
2.119419e+003,-1.490757e-003
2.121347e+003,-1.536752e-003
2.123276e+003,-1.470779e-003
2.125204e+003,-1.400403e-003
2.127133e+003,-1.378109e-003
2.129061e+003,-1.313235e-003
2.130990e+003,-1.325920e-003
2.132918e+003,-1.319379e-003
2.134847e+003,-1.284065e-003
2.136775e+003,-1.255455e-003
2.138704e+003,-1.219012e-003
2.140632e+003,-1.183954e-003
2.142561e+003,-1.179988e-003
2.144489e+003,-1.196609e-003
2.146418e+003,-1.152164e-003
2.148346e+003,-1.167960e-003
2.150275e+003,-1.202656e-003
2.152203e+003,-1.165878e-003
2.154132e+003,-1.086926e-003
2.156060e+003,-1.081241e-003
2.157989e+003,-1.215146e-003
2.159917e+003,-1.273394e-003
2.161846e+003,-1.216236e-003
2.163774e+003,-1.182533e-003
2.165703e+003,-1.133063e-003
2.167631e+003,-1.058700e-003
2.169560e+003,-9.834967e-004
2.171488e+003,-9.551641e-004
2.173417e+003,-9.940093e-004
2.175345e+003,-1.083059e-003
2.177274e+003,-1.108045e-003
2.179202e+003,-1.097370e-003
2.181131e+003,-1.092875e-003
2.183059e+003,-1.096081e-003
2.184988e+003,-1.096610e-003
2.186916e+003,-1.130353e-003
2.188845e+003,-1.092115e-003
2.190773e+003,-9.961912e-004
2.192702e+003,-9.411129e-004
2.194630e+003,-9.655452e-004
2.196559e+003,-1.080878e-003
2.198487e+003,-1.150446e-003
2.200416e+003,-1.115085e-003
2.202344e+003,-1.038404e-003
2.204273e+003,-9.385009e-004
2.206201e+003,-9.229282e-004
2.208130e+003,-1.004654e-003
2.210058e+003,-1.081770e-003
2.211987e+003,-1.060451e-003
2.213915e+003,-9.952656e-004
2.215844e+003,-1.044189e-003
2.217772e+003,-1.040255e-003
2.219701e+003,-9.474277e-004
2.221629e+003,-9.958936e-004
2.223558e+003,-1.028157e-003
2.225486e+003,-9.937118e-004
2.227415e+003,-8.955175e-004
2.229343e+003,-8.560682e-004
2.231272e+003,-8.595074e-004
2.233200e+003,-9.219032e-004
2.235129e+003,-9.193242e-004
2.237057e+003,-8.983942e-004
2.238986e+003,-1.034570e-003
2.240914e+003,-1.109103e-003
2.242843e+003,-1.019629e-003
2.244771e+003,-9.435595e-004
2.246700e+003,-1.038437e-003
2.248628e+003,-1.088942e-003
2.250557e+003,-1.090925e-003
2.252485e+003,-1.125396e-003
2.254414e+003,-1.124074e-003
2.256342e+003,-1.100675e-003
2.258271e+003,-1.178171e-003
2.260199e+003,-1.248649e-003
2.262128e+003,-1.332626e-003
2.264056e+003,-1.270883e-003
2.265985e+003,-1.209661e-003
2.267913e+003,-1.310493e-003
2.269842e+003,-1.372428e-003
2.271770e+003,-1.390528e-003
2.273699e+003,-1.361066e-003
2.275627e+003,-1.320238e-003
2.277556e+003,-1.358919e-003
2.279484e+003,-1.424380e-003
2.281413e+003,-1.494191e-003
2.283341e+003,-1.548307e-003
2.285270e+003,-1.544048e-003
2.287198e+003,-1.553788e-003
2.289127e+003,-1.551576e-003
2.291055e+003,-1.486266e-003
2.292984e+003,-1.546194e-003
2.294912e+003,-1.665829e-003
2.296841e+003,-1.632854e-003
2.298769e+003,-1.570296e-003
2.300698e+003,-1.623644e-003
2.302626e+003,-1.602318e-003
2.304555e+003,-1.532393e-003
2.306483e+003,-1.602087e-003
2.308412e+003,-1.540912e-003
2.310340e+003,-1.469854e-003
2.312269e+003,-1.461962e-003
2.314197e+003,-1.515620e-003
2.316125e+003,-1.432901e-003
2.318054e+003,-1.387390e-003
2.319983e+003,-1.400502e-003
2.321911e+003,-1.409684e-003
2.323840e+003,-1.434750e-003
2.325768e+003,-1.338968e-003
2.327697e+003,-1.229255e-003
2.329625e+003,-1.260576e-003
2.331553e+003,-1.334376e-003
2.333482e+003,-1.240587e-003
2.335411e+003,-1.156295e-003
2.337339e+003,-1.175428e-003
2.339268e+003,-1.238208e-003
2.341196e+003,-1.238572e-003
2.343125e+003,-1.223307e-003
2.345053e+003,-1.106823e-003
2.346981e+003,-9.823396e-004
2.348910e+003,-1.000985e-003
2.350839e+003,-1.037710e-003
2.352767e+003,-1.109764e-003
2.354696e+003,-1.141424e-003
2.356624e+003,-1.068847e-003
2.358552e+003,-1.061774e-003
2.360481e+003,-1.016092e-003
2.362409e+003,-1.069111e-003
2.364338e+003,-1.200839e-003
2.366267e+003,-1.209926e-003
2.368195e+003,-1.192016e-003
2.370124e+003,-1.031000e-003
2.372052e+003,-8.560682e-004
2.373980e+003,-8.299762e-004
2.375909e+003,-8.816627e-004
2.377838e+003,-7.800695e-004
2.379766e+003,-5.849849e-004
2.381695e+003,-4.765704e-004
2.383623e+003,-3.453513e-004
2.385552e+003,-2.082969e-004
2.387480e+003,-2.631371e-004
2.389408e+003,-2.519113e-004
2.391337e+003,-2.274719e-004
2.393266e+003,-2.956207e-004
2.395194e+003,-2.535008e-004
2.397123e+003,-1.323503e-004
2.399051e+003,-1.521911e-004
2.400979e+003,-2.800911e-004
2.402908e+003,-2.037928e-004
2.404836e+003,-4.933378e-005
2.406765e+003,-9.021462e-005
2.408694e+003,-1.382132e-004
2.410622e+003,-5.907397e-005
2.412551e+003,1.815783e-005
2.414479e+003,1.898622e-005
2.416407e+003,6.825666e-006
2.418336e+003,3.068320e-005
2.420264e+003,8.115284e-005
2.422193e+003,1.978884e-004
2.424122e+003,2.417138e-004
2.426050e+003,2.524553e-004
2.427979e+003,3.084217e-004
2.429907e+003,3.303394e-004
2.431835e+003,4.394139e-004
2.433764e+003,5.497101e-004
2.435692e+003,5.686872e-004
2.437621e+003,6.199162e-004
2.439550e+003,7.178455e-004
2.441478e+003,6.884080e-004
2.443406e+003,6.865827e-004
2.445335e+003,7.252467e-004
2.447263e+003,7.169826e-004
2.449192e+003,7.133982e-004
2.451121e+003,8.117801e-004
2.453049e+003,8.605146e-004
2.454978e+003,9.020495e-004
2.456906e+003,8.943133e-004
2.458834e+003,8.422883e-004
2.460763e+003,9.201455e-004
2.462691e+003,1.036276e-003
2.464620e+003,1.090484e-003
2.466549e+003,1.159880e-003
2.468477e+003,1.104801e-003
2.470406e+003,1.117291e-003
2.472334e+003,1.113105e-003
2.474262e+003,1.189317e-003
2.476191e+003,1.330379e-003
2.478119e+003,1.298374e-003
2.480048e+003,1.234937e-003
2.481977e+003,1.225135e-003
2.483905e+003,1.271024e-003
2.485833e+003,1.324463e-003
2.487762e+003,1.323300e-003
2.489690e+003,1.328817e-003
2.491619e+003,1.347928e-003
2.493547e+003,1.430596e-003
2.495476e+003,1.429233e-003
2.497405e+003,1.449812e-003
2.499333e+003,1.532799e-003
2.501261e+003,1.633096e-003
2.503190e+003,1.603330e-003
2.505118e+003,1.511252e-003
2.507047e+003,1.474413e-003
2.508975e+003,1.521792e-003
2.510904e+003,1.559600e-003
2.512833e+003,1.629570e-003
2.514761e+003,1.648761e-003
2.516689e+003,1.680359e-003
2.518618e+003,1.639215e-003
2.520546e+003,1.646167e-003
2.522475e+003,1.714920e-003
2.524403e+003,1.696059e-003
2.526332e+003,1.758666e-003
2.528260e+003,1.891394e-003
2.530189e+003,1.918284e-003
2.532117e+003,1.901744e-003
2.534046e+003,1.840248e-003
2.535974e+003,1.893158e-003
2.537903e+003,1.966943e-003
2.539831e+003,1.995170e-003
2.541760e+003,1.983253e-003
2.543688e+003,1.890163e-003
2.545617e+003,1.868865e-003
2.547545e+003,1.935458e-003
2.549474e+003,2.029656e-003
2.551402e+003,2.047666e-003
2.553331e+003,2.094075e-003
2.555259e+003,2.115051e-003
2.557188e+003,2.089081e-003
2.559116e+003,2.102998e-003
2.561045e+003,2.173889e-003
2.562973e+003,2.237630e-003
2.564902e+003,2.177052e-003
2.566830e+003,2.095840e-003
2.568759e+003,2.137127e-003
2.570687e+003,2.246057e-003
2.572616e+003,2.291821e-003
2.574544e+003,2.335958e-003
2.576473e+003,2.285193e-003
2.578401e+003,2.230603e-003
2.580330e+003,2.235465e-003
2.582258e+003,2.292954e-003
2.584187e+003,2.352549e-003
2.586115e+003,2.419182e-003
2.588044e+003,2.403888e-003
2.589972e+003,2.422047e-003
2.591901e+003,2.446504e-003
2.593829e+003,2.431310e-003
2.595758e+003,2.442706e-003
2.597686e+003,2.464032e-003
2.599615e+003,2.510052e-003
2.601543e+003,2.524883e-003
2.603472e+003,2.416416e-003
2.605400e+003,2.383732e-003
2.607329e+003,2.439307e-003
2.609257e+003,2.530515e-003
2.611186e+003,2.642611e-003
2.613114e+003,2.630810e-003
2.615043e+003,2.531348e-003
2.616971e+003,2.607242e-003
2.618900e+003,2.628776e-003
2.620828e+003,2.570244e-003
2.622757e+003,2.691318e-003
2.624685e+003,2.863053e-003
2.626614e+003,2.809724e-003
2.628542e+003,2.702520e-003
2.630471e+003,2.588909e-003
2.632399e+003,2.615176e-003
2.634328e+003,2.740864e-003
2.636256e+003,2.819395e-003
2.638185e+003,2.888702e-003
2.640113e+003,2.919256e-003
2.642042e+003,2.894739e-003
2.643970e+003,2.947611e-003
2.645899e+003,3.018373e-003
2.647827e+003,3.004193e-003
2.649756e+003,3.045032e-003
2.651684e+003,3.050204e-003
2.653613e+003,3.058880e-003
2.655541e+003,3.169376e-003
2.657470e+003,3.258401e-003
2.659398e+003,3.268082e-003
2.661327e+003,3.236402e-003
2.663255e+003,3.222282e-003
2.665184e+003,3.271521e-003
2.667112e+003,3.400672e-003
2.669041e+003,3.433967e-003
2.670969e+003,3.304105e-003
2.672898e+003,3.290651e-003
2.674826e+003,3.380802e-003
2.676755e+003,3.491815e-003
2.678683e+003,3.535339e-003
2.680612e+003,3.573088e-003
2.682540e+003,3.606531e-003
2.684469e+003,3.526888e-003
2.686397e+003,3.527155e-003
2.688326e+003,3.611409e-003
2.690254e+003,3.731370e-003
2.692183e+003,3.835753e-003
2.694111e+003,3.803730e-003
2.696040e+003,3.841737e-003
2.697968e+003,3.984533e-003
2.699897e+003,4.001286e-003
2.701825e+003,3.954305e-003
2.703754e+003,3.954572e-003
2.705682e+003,4.016235e-003
2.707611e+003,4.136006e-003
2.709539e+003,4.237409e-003
2.711468e+003,4.153903e-003
2.713396e+003,4.118278e-003
2.715325e+003,4.137345e-003
2.717253e+003,4.166582e-003
2.719182e+003,4.181034e-003
2.721110e+003,4.210609e-003
2.723039e+003,4.268627e-003
2.724967e+003,4.395765e-003
2.726896e+003,4.449222e-003
2.728824e+003,4.473994e-003
2.730753e+003,4.574571e-003
2.732681e+003,4.656483e-003
2.734610e+003,4.634111e-003
2.736538e+003,4.700693e-003
2.738467e+003,4.777336e-003
2.740395e+003,4.804338e-003
2.742324e+003,4.752077e-003
2.744252e+003,4.777738e-003
2.746181e+003,4.936459e-003
2.748109e+003,5.131111e-003
2.750038e+003,5.238884e-003
2.751966e+003,5.275540e-003
2.753895e+003,5.353928e-003
2.755823e+003,5.359765e-003
2.757752e+003,5.408543e-003
2.759680e+003,5.455950e-003
2.761609e+003,5.614080e-003
2.763537e+003,5.834995e-003
2.765466e+003,5.987485e-003
2.767394e+003,6.246639e-003
2.769323e+003,6.499659e-003
2.771251e+003,6.756831e-003
2.773180e+003,7.055138e-003
2.775108e+003,7.276922e-003
2.777037e+003,7.417987e-003
2.778965e+003,7.738908e-003
2.780894e+003,8.290234e-003
2.782822e+003,8.691435e-003
2.784750e+003,8.985527e-003
2.786679e+003,9.446796e-003
2.788608e+003,9.841543e-003
2.790536e+003,1.019414e-002
2.792465e+003,1.058159e-002
2.794393e+003,1.091910e-002
2.796322e+003,1.120518e-002
2.798250e+003,1.157335e-002
2.800178e+003,1.198264e-002
2.802107e+003,1.227737e-002
2.804036e+003,1.248741e-002
2.805964e+003,1.270012e-002
2.807893e+003,1.280149e-002
2.809821e+003,1.272236e-002
2.811750e+003,1.263066e-002
2.813678e+003,1.263659e-002
2.815606e+003,1.255129e-002
2.817535e+003,1.241506e-002
2.819464e+003,1.227669e-002
2.821392e+003,1.215305e-002
2.823321e+003,1.196422e-002
2.825249e+003,1.156675e-002
2.827177e+003,1.130298e-002
2.829106e+003,1.110945e-002
2.831034e+003,1.071178e-002
2.832963e+003,1.033267e-002
2.834892e+003,1.009334e-002
2.836820e+003,9.799619e-003
2.838749e+003,9.448117e-003
2.840677e+003,8.989383e-003
2.842605e+003,8.433217e-003
2.844534e+003,7.884207e-003
2.846462e+003,7.371679e-003
2.848391e+003,6.876116e-003
2.850320e+003,6.615341e-003
2.852248e+003,6.540997e-003
2.854177e+003,6.386059e-003
2.856105e+003,6.228522e-003
2.858033e+003,6.244959e-003
2.859962e+003,6.407950e-003
2.861890e+003,6.481497e-003
2.863819e+003,6.464547e-003
2.865748e+003,6.488358e-003
2.867676e+003,6.495388e-003
2.869604e+003,6.512272e-003
2.871533e+003,6.599193e-003
2.873461e+003,6.647302e-003
2.875390e+003,6.715977e-003
2.877319e+003,6.761711e-003
2.879247e+003,6.933413e-003
2.881176e+003,7.063523e-003
2.883104e+003,6.982200e-003
2.885032e+003,6.855447e-003
2.886961e+003,6.934693e-003
2.888889e+003,6.967015e-003
2.890818e+003,6.785942e-003
2.892747e+003,6.615710e-003
2.894675e+003,6.571675e-003
2.896604e+003,6.477361e-003
2.898532e+003,6.359631e-003
2.900460e+003,6.226135e-003
2.902389e+003,6.146380e-003
2.904317e+003,6.109146e-003
2.906246e+003,6.048832e-003
2.908175e+003,5.968908e-003
2.910103e+003,5.830764e-003
2.912031e+003,5.591391e-003
2.913960e+003,5.365266e-003
2.915888e+003,5.203940e-003
2.917817e+003,5.255820e-003
2.919745e+003,5.333935e-003
2.921674e+003,5.335243e-003
2.923603e+003,5.266787e-003
2.925531e+003,5.335814e-003
2.927459e+003,5.503565e-003
2.929388e+003,5.580181e-003
2.931316e+003,5.686587e-003
2.933245e+003,5.852693e-003
2.935173e+003,6.031462e-003
2.937102e+003,6.012413e-003
2.939031e+003,6.007541e-003
2.940959e+003,6.106424e-003
2.942887e+003,6.049202e-003
2.944816e+003,5.898369e-003
2.946744e+003,5.718178e-003
2.948673e+003,5.454776e-003
2.950601e+003,5.147038e-003
2.952530e+003,4.872421e-003
2.954458e+003,4.559470e-003
2.956387e+003,4.162266e-003
2.958315e+003,3.775787e-003
2.960244e+003,3.481227e-003
2.962172e+003,3.217441e-003
2.964101e+003,3.021843e-003
2.966029e+003,2.746399e-003
2.967958e+003,2.423013e-003
2.969886e+003,2.128436e-003
2.971815e+003,1.837952e-003
2.973743e+003,1.702213e-003
2.975672e+003,1.552450e-003
2.977600e+003,1.435649e-003
2.979529e+003,1.442132e-003
2.981457e+003,1.273218e-003
2.983386e+003,1.032689e-003
2.985314e+003,8.267850e-004
2.987243e+003,7.236536e-004
2.989171e+003,7.587693e-004
2.991100e+003,7.932571e-004
2.993028e+003,6.018659e-004
2.994957e+003,5.202176e-004
2.996885e+003,5.155402e-004
2.998814e+003,5.729671e-004
3.000742e+003,5.382646e-004
3.002671e+003,4.420673e-004
3.004599e+003,3.962982e-004
3.006528e+003,4.514871e-004
3.008456e+003,4.330126e-004
3.010385e+003,3.294441e-004
3.012313e+003,3.023871e-004
3.014242e+003,3.297094e-004
3.016170e+003,3.665840e-004
3.018099e+003,3.549111e-004
3.020027e+003,3.656223e-004
3.021956e+003,2.777521e-004
3.023884e+003,1.915238e-004
3.025813e+003,1.979547e-004
3.027741e+003,1.053790e-004
3.029670e+003,1.508855e-004
3.031598e+003,3.158491e-004
3.033527e+003,3.314005e-004
3.035455e+003,3.726527e-004
3.037384e+003,3.103117e-004
3.039312e+003,7.538648e-005
3.041241e+003,-2.395525e-005
3.043169e+003,1.673301e-005
3.045098e+003,8.778094e-005
3.047026e+003,1.014683e-004
3.048955e+003,-9.012365e-006
3.050883e+003,-9.183785e-005
3.052812e+003,-8.292658e-005
3.054740e+003,-1.310254e-004
3.056669e+003,-1.997523e-004
3.058597e+003,-2.559844e-004
3.060526e+003,-2.860513e-004
3.062454e+003,-2.225706e-004
3.064383e+003,-2.729056e-004
3.066311e+003,-3.338628e-004
3.068240e+003,-3.077724e-004
3.070168e+003,-3.357831e-004
3.072097e+003,-4.101051e-004
3.074025e+003,-3.806758e-004
3.075954e+003,-3.032694e-004
3.077882e+003,-3.794840e-004
3.079811e+003,-4.755112e-004
3.081739e+003,-5.067544e-004
3.083668e+003,-5.435881e-004
3.085596e+003,-5.218126e-004
3.087525e+003,-5.424298e-004
3.089453e+003,-5.923307e-004
3.091382e+003,-6.024558e-004
3.093310e+003,-6.100660e-004
3.095239e+003,-6.016286e-004
3.097167e+003,-6.353111e-004
3.099096e+003,-7.332334e-004
3.101024e+003,-7.181495e-004
3.102953e+003,-6.096028e-004
3.104881e+003,-6.739202e-004
3.106810e+003,-7.393859e-004
3.108738e+003,-6.389504e-004
3.110667e+003,-7.149408e-004
3.112595e+003,-7.664756e-004
3.114524e+003,-6.149298e-004
3.116452e+003,-6.354434e-004
3.118381e+003,-7.207296e-004
3.120309e+003,-8.540841e-004
3.122238e+003,-9.865712e-004
3.124166e+003,-9.567841e-004
3.126095e+003,-8.125145e-004
3.128023e+003,-8.051393e-004
3.129952e+003,-8.338124e-004
3.131880e+003,-8.055362e-004
3.133809e+003,-7.739176e-004
3.135737e+003,-8.318612e-004
3.137666e+003,-7.142131e-004
3.139594e+003,-5.812127e-004
3.141523e+003,-7.312818e-004
3.143451e+003,-8.984935e-004
3.145380e+003,-8.407902e-004
3.147308e+003,-6.924130e-004
3.149237e+003,-7.853283e-004
3.151165e+003,-8.763389e-004
3.153094e+003,-9.063630e-004
3.155022e+003,-9.039161e-004
3.156951e+003,-8.437004e-004
3.158879e+003,-7.810948e-004
3.160808e+003,-6.135402e-004
3.162736e+003,-5.985845e-004
3.164665e+003,-6.719021e-004
3.166593e+003,-7.765967e-004
3.168522e+003,-8.522653e-004
3.170450e+003,-7.943906e-004
3.172379e+003,-6.285615e-004
3.174307e+003,-5.859776e-004
3.176236e+003,-5.523575e-004
3.178164e+003,-6.170474e-004
3.180093e+003,-7.303887e-004
3.182021e+003,-7.758359e-004
3.183950e+003,-6.986323e-004
3.185878e+003,-6.131762e-004
3.187807e+003,-7.065385e-004
3.189735e+003,-7.669056e-004
3.191664e+003,-7.813263e-004
3.193592e+003,-8.169792e-004
3.195521e+003,-8.493552e-004
3.197449e+003,-6.884764e-004
3.199378e+003,-5.019556e-004
3.201306e+003,-5.037427e-004
3.203235e+003,-7.616797e-004
3.205163e+003,-8.269006e-004
3.207092e+003,-7.744468e-004
3.209020e+003,-6.845066e-004
3.210948e+003,-5.888563e-004
3.212877e+003,-5.140023e-004
3.214806e+003,-4.862348e-004
3.216734e+003,-5.736020e-004
3.218663e+003,-6.789156e-004
3.220591e+003,-6.226391e-004
3.222520e+003,-4.344019e-004
3.224448e+003,-3.250558e-004
3.226376e+003,-1.545097e-004
3.228305e+003,1.653420e-005
3.230234e+003,1.388338e-005
3.232162e+003,-1.031671e-004
3.234091e+003,-1.085667e-004
3.236019e+003,4.426933e-005
3.237948e+003,1.652709e-004
3.239876e+003,3.097480e-004
3.241804e+003,4.305251e-004
3.243733e+003,3.256309e-004
3.245662e+003,3.548117e-004
3.247590e+003,3.456593e-004
3.249519e+003,4.146384e-004
3.251447e+003,5.600280e-004
3.253375e+003,5.788728e-004
3.255304e+003,6.034586e-004
3.257232e+003,7.720131e-004
3.259161e+003,7.789836e-004
3.261090e+003,7.878796e-004
3.263018e+003,8.692794e-004
3.264947e+003,8.177886e-004
3.266875e+003,8.086265e-004
3.268803e+003,8.671214e-004
3.270732e+003,9.037760e-004
3.272660e+003,1.025084e-003
3.274589e+003,1.097559e-003
3.276518e+003,1.150279e-003
3.278446e+003,1.161143e-003
3.280375e+003,1.020833e-003
3.282303e+003,1.046639e-003
3.284231e+003,1.072082e-003
3.286160e+003,1.094902e-003
3.288088e+003,1.028438e-003
3.290017e+003,8.865440e-004
3.291946e+003,8.116805e-004
3.293874e+003,7.164516e-004
3.295802e+003,6.528997e-004
3.297731e+003,7.048356e-004
3.299659e+003,6.196508e-004
3.301588e+003,5.398570e-004
3.303516e+003,4.092988e-004
3.305445e+003,2.971483e-004
3.307374e+003,2.353154e-004
3.309302e+003,2.763467e-005
3.311230e+003,-7.915001e-005
3.313159e+003,-1.560664e-004
3.315087e+003,-2.057799e-004
3.317016e+003,-2.514477e-004
3.318944e+003,-3.809406e-004
3.320873e+003,-4.111975e-004
3.322802e+003,-5.903785e-004
3.324730e+003,-8.173430e-004
3.326658e+003,-9.444852e-004
3.328587e+003,-8.873832e-004
3.330515e+003,-8.116546e-004
3.332444e+003,-8.292817e-004
3.334372e+003,-9.115211e-004
3.336301e+003,-9.406169e-004
3.338229e+003,-8.385745e-004
3.340158e+003,-8.290502e-004
3.342086e+003,-1.004555e-003
3.344015e+003,-1.139706e-003
3.345943e+003,-1.099320e-003
3.347872e+003,-1.099221e-003
3.349800e+003,-1.045114e-003
3.351729e+003,-1.027331e-003
3.353657e+003,-1.226545e-003
3.355586e+003,-1.369686e-003
3.357514e+003,-1.484714e-003
3.359443e+003,-1.442610e-003
3.361371e+003,-1.478374e-003
3.363300e+003,-1.643185e-003
3.365229e+003,-1.803876e-003
3.367157e+003,-1.867324e-003
3.369085e+003,-1.984528e-003
3.371014e+003,-2.165237e-003
3.372942e+003,-2.103251e-003
3.374871e+003,-2.049566e-003
3.376799e+003,-2.129003e-003
3.378728e+003,-2.289481e-003
3.380656e+003,-2.467164e-003
3.382585e+003,-2.558152e-003
3.384513e+003,-2.682942e-003
3.386442e+003,-2.698485e-003
3.388370e+003,-2.542868e-003
3.390299e+003,-2.581934e-003
3.392227e+003,-2.745109e-003
3.394156e+003,-2.818428e-003
3.396084e+003,-2.789490e-003
3.398013e+003,-2.776387e-003
3.399941e+003,-2.805391e-003
3.401870e+003,-2.836533e-003
3.403798e+003,-2.886698e-003
3.405727e+003,-3.008333e-003
3.407655e+003,-2.962888e-003
3.409584e+003,-2.847198e-003
3.411512e+003,-2.961243e-003
3.413441e+003,-3.219533e-003
3.415369e+003,-3.182137e-003
3.417298e+003,-3.021692e-003
3.419226e+003,-3.024785e-003
3.421155e+003,-3.140855e-003
3.423083e+003,-3.167072e-003
3.425012e+003,-3.207726e-003
3.426940e+003,-3.317533e-003
3.428869e+003,-3.210028e-003
3.430797e+003,-3.128092e-003
3.432726e+003,-3.142302e-003
3.434654e+003,-3.256828e-003
3.436583e+003,-3.372277e-003
3.438511e+003,-3.257881e-003
3.440440e+003,-3.188748e-003
3.442368e+003,-3.150526e-003
3.444297e+003,-3.212495e-003
3.446225e+003,-3.276823e-003
3.448154e+003,-3.286491e-003
3.450082e+003,-3.287609e-003
3.452011e+003,-3.377012e-003
3.453939e+003,-3.443912e-003
3.455868e+003,-3.621222e-003
3.457796e+003,-3.636107e-003
3.459725e+003,-3.486973e-003
3.461653e+003,-3.405483e-003
3.463582e+003,-3.502027e-003
3.465510e+003,-3.660454e-003
3.467439e+003,-3.634168e-003
3.469367e+003,-3.518164e-003
3.471296e+003,-3.460578e-003
3.473224e+003,-3.512676e-003
3.475153e+003,-3.643303e-003
3.477081e+003,-3.667058e-003
3.479010e+003,-3.672775e-003
3.480938e+003,-3.621321e-003
3.482867e+003,-3.659731e-003
3.484795e+003,-3.564011e-003
3.486724e+003,-3.459197e-003
3.488652e+003,-3.449862e-003
3.490581e+003,-3.582874e-003
3.492509e+003,-3.723106e-003
3.494438e+003,-3.612547e-003
3.496366e+003,-3.437896e-003
3.498295e+003,-3.553659e-003
3.500223e+003,-3.726982e-003
3.502152e+003,-3.725274e-003
3.504080e+003,-3.711936e-003
3.506009e+003,-3.656741e-003
3.507937e+003,-3.490523e-003
3.509866e+003,-3.432078e-003
3.511794e+003,-3.501665e-003
3.513723e+003,-3.559246e-003
3.515651e+003,-3.752375e-003
3.517580e+003,-3.780033e-003
3.519508e+003,-3.721726e-003
3.521437e+003,-3.721989e-003
3.523365e+003,-3.793599e-003
3.525294e+003,-3.920398e-003
3.527222e+003,-3.892224e-003
3.529151e+003,-3.731746e-003
3.531079e+003,-3.644157e-003
3.533008e+003,-3.738677e-003
3.534936e+003,-3.744524e-003
3.536865e+003,-3.741699e-003
3.538793e+003,-3.690516e-003
3.540722e+003,-3.550110e-003
3.542650e+003,-3.550143e-003
3.544579e+003,-3.681087e-003
3.546507e+003,-3.703296e-003
3.548436e+003,-3.734012e-003
3.550364e+003,-3.719952e-003
3.552293e+003,-3.666335e-003
3.554221e+003,-3.753492e-003
3.556150e+003,-3.810021e-003
3.558078e+003,-3.698992e-003
3.560007e+003,-3.748926e-003
3.561935e+003,-3.683124e-003
3.563864e+003,-3.774843e-003
3.565792e+003,-3.927195e-003
3.567721e+003,-3.840237e-003
3.569649e+003,-3.649973e-003
3.571578e+003,-3.582053e-003
3.573506e+003,-3.510769e-003
3.575435e+003,-3.472674e-003
3.577363e+003,-3.549781e-003
3.579292e+003,-3.501731e-003
3.581220e+003,-3.610839e-003
3.583149e+003,-3.766960e-003
3.585077e+003,-3.589184e-003
3.587006e+003,-3.752802e-003
3.588934e+003,-3.720970e-003
3.590863e+003,-3.546922e-003
3.592791e+003,-3.706548e-003
3.594720e+003,-3.762953e-003
3.596648e+003,-3.572950e-003
3.598577e+003,-3.458113e-003
3.600505e+003,-3.400354e-003
3.602434e+003,-3.407324e-003
3.604362e+003,-3.356989e-003
3.606291e+003,-3.372047e-003
3.608219e+003,-3.516094e-003
3.610148e+003,-3.560232e-003
3.612076e+003,-3.708027e-003
3.614005e+003,-3.707271e-003
3.615933e+003,-3.596216e-003
3.617862e+003,-3.517507e-003
3.619790e+003,-3.403280e-003
3.621719e+003,-3.494894e-003
3.623647e+003,-3.526545e-003
3.625576e+003,-3.486184e-003
3.627504e+003,-3.593686e-003
3.629433e+003,-3.616688e-003
3.631361e+003,-3.413011e-003
3.633290e+003,-3.336998e-003
3.635218e+003,-3.306385e-003
3.637146e+003,-3.404233e-003
3.639075e+003,-3.555762e-003
3.641004e+003,-3.492856e-003
3.642932e+003,-3.507779e-003
3.644861e+003,-3.710031e-003
3.646789e+003,-3.783778e-003
3.648718e+003,-3.939475e-003
3.650646e+003,-3.973031e-003
3.652574e+003,-3.821812e-003
3.654503e+003,-3.859647e-003
3.656432e+003,-4.014004e-003
3.658360e+003,-4.017550e-003
3.660289e+003,-3.827527e-003
3.662217e+003,-3.769982e-003
3.664146e+003,-3.803387e-003
3.666074e+003,-3.795372e-003
3.668002e+003,-3.961277e-003
3.669931e+003,-4.156394e-003
3.671860e+003,-4.178677e-003
3.673788e+003,-4.200007e-003
3.675717e+003,-4.132173e-003
3.677645e+003,-3.942135e-003
3.679573e+003,-4.073815e-003
3.681502e+003,-3.995817e-003
3.683430e+003,-3.874983e-003
3.685359e+003,-3.874819e-003
3.687288e+003,-3.981994e-003
3.689216e+003,-4.062753e-003
3.691145e+003,-3.841945e-003
3.693073e+003,-3.633281e-003
3.695001e+003,-3.774383e-003
3.696930e+003,-3.729282e-003
3.698858e+003,-3.678360e-003
3.700787e+003,-3.700931e-003
3.702716e+003,-3.576335e-003
3.704644e+003,-3.504262e-003
3.706573e+003,-3.721627e-003
3.708501e+003,-3.916425e-003
3.710429e+003,-3.925093e-003
3.712358e+003,-3.860501e-003
3.714286e+003,-3.725372e-003
3.716215e+003,-3.646227e-003
3.718144e+003,-3.595592e-003
3.720072e+003,-3.568908e-003
3.722000e+003,-3.484113e-003
3.723929e+003,-3.508567e-003
3.725857e+003,-3.526282e-003
3.727786e+003,-3.289582e-003
3.729714e+003,-3.556420e-003
3.731643e+003,-4.152850e-003
3.733572e+003,-4.262221e-003
3.735500e+003,-4.051658e-003
3.737428e+003,-3.754116e-003
3.739357e+003,-3.570682e-003
3.741285e+003,-3.506135e-003
3.743214e+003,-3.734045e-003
3.745142e+003,-3.579621e-003
3.747071e+003,-3.477539e-003
3.749000e+003,-3.627170e-003
3.750928e+003,-3.557405e-003
3.752856e+003,-3.133717e-003
3.754785e+003,-2.873499e-003
3.756713e+003,-2.883110e-003
3.758642e+003,-3.029293e-003
3.760570e+003,-2.981185e-003
3.762499e+003,-2.877086e-003
3.764427e+003,-2.835578e-003
3.766356e+003,-2.902858e-003
3.768284e+003,-2.934224e-003
3.770213e+003,-2.910725e-003
3.772141e+003,-2.759201e-003
3.774070e+003,-2.587500e-003
3.775998e+003,-2.723180e-003
3.777927e+003,-2.977006e-003
3.779855e+003,-2.970490e-003
3.781784e+003,-2.775136e-003
3.783712e+003,-2.667827e-003
3.785641e+003,-2.587336e-003
3.787569e+003,-2.646124e-003
3.789498e+003,-2.579431e-003
3.791426e+003,-2.613586e-003
3.793355e+003,-2.795581e-003
3.795283e+003,-2.742376e-003
3.797212e+003,-2.733025e-003
3.799140e+003,-3.088746e-003
3.801069e+003,-3.168256e-003
3.802997e+003,-2.905755e-003
3.804926e+003,-3.035051e-003
3.806854e+003,-3.014716e-003
3.808783e+003,-2.992077e-003
3.810711e+003,-2.864282e-003
3.812640e+003,-2.640493e-003
3.814568e+003,-2.853584e-003
3.816497e+003,-2.806642e-003
3.818425e+003,-2.636146e-003
3.820354e+003,-2.651097e-003
3.822282e+003,-2.663974e-003
3.824211e+003,-2.632391e-003
3.826139e+003,-2.719427e-003
3.828068e+003,-2.626200e-003
3.829996e+003,-2.496749e-003
3.831925e+003,-2.471941e-003
3.833853e+003,-2.595899e-003
3.835782e+003,-2.766313e-003
3.837710e+003,-2.646520e-003
3.839639e+003,-2.694632e-003
3.841567e+003,-2.856218e-003
3.843496e+003,-2.808124e-003
3.845424e+003,-2.525738e-003
3.847353e+003,-2.609337e-003
3.849281e+003,-2.822213e-003
3.851210e+003,-2.923856e-003
3.853138e+003,-3.015012e-003
3.855067e+003,-2.679781e-003
3.856995e+003,-2.477707e-003
3.858924e+003,-2.584206e-003
3.860852e+003,-2.519611e-003
3.862781e+003,-2.403738e-003
3.864709e+003,-2.511211e-003
3.866638e+003,-2.569813e-003
3.868566e+003,-2.741092e-003
3.870495e+003,-2.520863e-003
3.872423e+003,-2.556571e-003
3.874352e+003,-2.555583e-003
3.876280e+003,-2.488150e-003
3.878209e+003,-2.664270e-003
3.880137e+003,-2.724530e-003
3.882066e+003,-2.474280e-003
3.883994e+003,-2.575972e-003
3.885923e+003,-2.640723e-003
3.887851e+003,-2.515559e-003
3.889780e+003,-2.476982e-003
3.891708e+003,-2.708692e-003
3.893637e+003,-2.817835e-003
3.895565e+003,-2.591090e-003
3.897494e+003,-2.463309e-003
3.899422e+003,-2.539640e-003
3.901351e+003,-2.609469e-003
3.903279e+003,-2.564147e-003
3.905208e+003,-2.341752e-003
3.907136e+003,-2.136685e-003
3.909065e+003,-2.160094e-003
3.910993e+003,-2.318616e-003
3.912922e+003,-2.326592e-003
3.914850e+003,-2.351408e-003
3.916779e+003,-2.718472e-003
3.918707e+003,-2.563093e-003
3.920636e+003,-2.358065e-003
3.922564e+003,-2.557922e-003
3.924493e+003,-2.495629e-003
3.926421e+003,-2.489040e-003
3.928350e+003,-2.436424e-003
3.930278e+003,-2.249697e-003
3.932207e+003,-2.206150e-003
3.934135e+003,-1.959790e-003
3.936064e+003,-1.874714e-003
3.937992e+003,-2.058701e-003
3.939921e+003,-2.326691e-003
3.941849e+003,-2.293963e-003
3.943778e+003,-2.133553e-003
3.945706e+003,-2.440180e-003
3.947635e+003,-2.576269e-003
3.949563e+003,-2.356252e-003
3.951492e+003,-2.060745e-003
3.953420e+003,-2.066780e-003
3.955349e+003,-2.193063e-003
3.957277e+003,-2.210930e-003
3.959206e+003,-2.370620e-003
3.961134e+003,-2.556736e-003
3.963063e+003,-2.440608e-003
3.964991e+003,-2.398070e-003
3.966920e+003,-2.481331e-003
3.968848e+003,-2.410624e-003
3.970777e+003,-2.374542e-003
3.972705e+003,-2.394577e-003
3.974634e+003,-2.302401e-003
3.976562e+003,-2.198041e-003
3.978491e+003,-2.359185e-003
3.980419e+003,-2.327746e-003
3.982348e+003,-2.208293e-003
3.984276e+003,-2.126761e-003
3.986205e+003,-2.167183e-003
3.988133e+003,-2.000096e-003
3.990062e+003,-2.024634e-003
3.991990e+003,-2.066351e-003
3.993919e+003,-2.058272e-003
3.995847e+003,-2.219831e-003
3.997776e+003,-2.316573e-003
3.999704e+003,-2.299665e-003
4.001633e+003,0.000000e+000
