3.991989e+002,-2.715673e-003
4.011274e+002,1.116003e-002
4.030559e+002,1.128818e-002
4.049844e+002,4.817706e-003
4.069129e+002,8.209153e-003
4.088414e+002,2.168165e-002
4.107699e+002,2.817624e-002
4.126984e+002,1.843724e-002
4.146269e+002,1.332980e-002
4.165554e+002,1.580769e-002
4.184839e+002,1.205741e-002
4.204124e+002,5.929573e-003
4.223409e+002,5.821495e-003
4.242694e+002,1.248714e-002
4.261979e+002,1.682770e-002
4.281264e+002,1.014873e-002
4.300549e+002,6.642525e-003
4.319834e+002,1.283292e-002
4.339119e+002,1.609581e-002
4.358404e+002,1.477081e-002
4.377689e+002,1.401720e-002
4.396974e+002,1.365645e-002
4.416259e+002,1.528923e-002
4.435544e+002,1.787144e-002
4.454829e+002,1.678130e-002
4.474114e+002,1.585336e-002
4.493399e+002,1.699981e-002
4.512684e+002,1.807757e-002
4.531969e+002,1.598208e-002
4.551254e+002,1.319243e-002
4.570539e+002,1.311702e-002
4.589824e+002,1.562468e-002
4.609109e+002,1.379444e-002
4.628394e+002,1.264710e-002
4.647679e+002,1.392768e-002
4.666964e+002,1.626712e-002
4.686249e+002,1.410303e-002
4.705533e+002,1.226851e-002
4.724819e+002,1.262513e-002
4.744103e+002,1.392871e-002
4.763389e+002,1.576251e-002
4.782673e+002,1.520389e-002
4.801959e+002,1.243381e-002
4.821243e+002,1.223654e-002
4.840529e+002,1.385769e-002
4.859813e+002,1.264297e-002
4.879099e+002,1.153545e-002
4.898383e+002,2.242587e-002
4.917668e+002,2.530608e-002
4.936953e+002,1.490117e-002
4.956238e+002,1.552529e-002
4.975523e+002,1.711412e-002
4.994808e+002,1.735748e-002
5.014093e+002,1.460407e-002
5.033378e+002,1.359638e-002
5.052663e+002,1.226568e-002
5.071948e+002,1.444075e-002
5.091233e+002,1.462984e-002
5.110518e+002,1.490195e-002
5.129803e+002,1.590540e-002
5.149088e+002,1.274277e-002
5.168373e+002,1.106771e-002
5.187658e+002,9.284827e-003
5.206943e+002,1.163172e-002
5.226228e+002,1.227996e-002
5.245513e+002,7.306371e-003
5.264798e+002,6.877260e-003
5.284083e+002,9.551173e-003
5.303368e+002,1.201091e-002
5.322653e+002,1.340384e-002
5.341938e+002,1.473386e-002
5.361223e+002,1.442431e-002
5.380508e+002,1.278095e-002
5.399792e+002,1.171501e-002
5.419078e+002,1.309213e-002
5.438363e+002,1.524201e-002
5.457648e+002,1.664006e-002
5.476932e+002,1.604242e-002
5.496218e+002,1.710402e-002
5.515503e+002,1.807640e-002
5.534788e+002,1.730234e-002
5.554072e+002,1.601058e-002
5.573358e+002,1.575402e-002
5.592643e+002,1.669398e-002
5.611927e+002,1.675004e-002
5.631212e+002,1.690096e-002
5.650497e+002,1.594970e-002
5.669783e+002,1.511025e-002
5.689067e+002,1.535253e-002
5.708352e+002,1.487377e-002
5.727637e+002,1.586629e-002
5.746923e+002,1.653217e-002
5.766207e+002,1.618165e-002
5.785492e+002,1.693404e-002
5.804777e+002,1.816853e-002
5.824063e+002,1.815471e-002
5.843347e+002,1.704326e-002
5.862632e+002,1.632749e-002
5.881917e+002,1.590217e-002
5.901202e+002,1.507029e-002
5.920487e+002,1.757676e-002
5.939772e+002,2.341470e-002
5.959057e+002,2.577802e-002
5.978342e+002,2.178730e-002
5.997627e+002,2.186635e-002
6.016912e+002,2.517534e-002
6.036197e+002,2.623732e-002
6.055482e+002,2.668382e-002
6.074767e+002,2.822068e-002
6.094052e+002,2.859306e-002
6.113337e+002,2.667934e-002
6.132622e+002,2.524406e-002
6.151907e+002,2.610130e-002
6.171192e+002,2.770817e-002
6.190477e+002,2.812084e-002
6.209762e+002,2.553770e-002
6.229047e+002,2.223670e-002
6.248332e+002,2.008941e-002
6.267617e+002,1.717358e-002
6.286902e+002,1.453945e-002
6.306187e+002,1.333779e-002
6.325472e+002,1.319127e-002
6.344756e+002,1.347442e-002
6.364042e+002,1.340593e-002
6.383326e+002,1.366722e-002
6.402612e+002,1.398349e-002
6.421896e+002,1.396183e-002
6.441182e+002,1.331746e-002
6.460466e+002,1.239798e-002
6.479752e+002,1.250613e-002
6.499036e+002,1.290466e-002
6.518322e+002,1.251408e-002
6.537606e+002,1.191330e-002
6.556891e+002,1.108276e-002
6.576177e+002,1.116840e-002
6.595461e+002,1.161334e-002
6.614746e+002,1.149663e-002
6.634031e+002,1.125204e-002
6.653317e+002,1.113658e-002
6.672601e+002,1.181901e-002
6.691886e+002,1.209710e-002
6.711171e+002,1.085169e-002
6.730457e+002,1.090337e-002
6.749741e+002,1.182122e-002
6.769026e+002,1.194177e-002
6.788311e+002,1.215281e-002
6.807596e+002,1.329468e-002
6.826881e+002,1.360818e-002
6.846166e+002,1.360390e-002
6.865451e+002,1.378976e-002
6.884736e+002,1.348316e-002
6.904021e+002,1.338030e-002
6.923306e+002,1.370887e-002
6.942591e+002,1.350709e-002
6.961876e+002,1.320114e-002
6.981161e+002,1.353327e-002
7.000446e+002,1.378620e-002
7.019731e+002,1.345917e-002
7.039016e+002,1.360571e-002
7.058301e+002,1.410471e-002
7.077585e+002,1.453081e-002
7.096871e+002,1.474404e-002
7.116156e+002,1.463597e-002
7.135441e+002,1.521212e-002
7.154725e+002,1.608409e-002
7.174011e+002,1.642652e-002
7.193296e+002,1.617466e-002
7.212581e+002,1.605050e-002
7.231865e+002,1.607982e-002
7.251151e+002,1.652216e-002
7.270436e+002,1.671829e-002
7.289720e+002,1.725942e-002
7.309005e+002,1.800860e-002
7.328290e+002,1.786205e-002
7.347576e+002,1.768639e-002
7.366860e+002,1.805733e-002
7.386145e+002,1.832559e-002
7.405430e+002,1.818229e-002
7.424716e+002,1.813374e-002
7.444000e+002,1.797942e-002
7.463285e+002,1.837374e-002
7.482570e+002,1.889541e-002
7.501855e+002,1.884918e-002
7.521140e+002,1.892057e-002
7.540425e+002,1.889669e-002
7.559710e+002,1.886357e-002
7.578995e+002,1.916082e-002
7.598280e+002,1.934533e-002
7.617565e+002,1.906962e-002
7.636850e+002,1.937751e-002
7.656135e+002,1.997508e-002
7.675420e+002,1.992450e-002
7.694705e+002,1.960367e-002
7.713990e+002,1.964583e-002
7.733275e+002,1.972803e-002
7.752560e+002,1.938718e-002
7.771844e+002,1.930248e-002
7.791130e+002,1.954593e-002
7.810415e+002,1.884481e-002
7.829700e+002,1.819044e-002
7.848984e+002,1.833053e-002
7.868270e+002,1.813050e-002
7.887555e+002,1.761223e-002
7.906840e+002,1.715765e-002
7.926124e+002,1.671818e-002
7.945410e+002,1.658191e-002
7.964695e+002,1.649462e-002
7.983979e+002,1.638402e-002
8.003264e+002,1.641726e-002
8.022549e+002,1.639114e-002
8.041835e+002,1.632649e-002
8.061119e+002,1.646303e-002
8.080404e+002,1.710402e-002
8.099689e+002,1.748102e-002
8.118975e+002,1.712956e-002
8.138259e+002,1.678051e-002
8.157545e+002,1.679770e-002
8.176830e+002,1.722459e-002
8.196115e+002,1.728655e-002
8.215399e+002,1.724114e-002
8.234684e+002,1.779759e-002
8.253970e+002,1.790421e-002
8.273254e+002,1.734210e-002
8.292539e+002,1.729907e-002
8.311824e+002,1.753587e-002
8.331110e+002,1.774071e-002
8.350394e+002,1.796757e-002
8.369679e+002,1.800974e-002
8.388964e+002,1.780136e-002
8.408250e+002,1.756327e-002
8.427534e+002,1.733213e-002
8.446819e+002,1.747706e-002
8.466104e+002,1.787969e-002
8.485389e+002,1.798069e-002
8.504674e+002,1.791232e-002
8.523959e+002,1.811460e-002
8.543244e+002,1.811288e-002
8.562529e+002,1.758179e-002
8.581814e+002,1.739490e-002
8.601099e+002,1.762458e-002
8.620384e+002,1.791591e-002
8.639669e+002,1.750593e-002
8.658954e+002,1.704226e-002
8.678239e+002,1.675592e-002
8.697524e+002,1.667673e-002
8.716809e+002,1.686869e-002
8.736094e+002,1.710068e-002
8.755378e+002,1.706862e-002
8.774664e+002,1.695140e-002
8.793949e+002,1.724914e-002
8.813234e+002,1.744574e-002
8.832518e+002,1.725690e-002
8.851804e+002,1.718550e-002
8.871089e+002,1.740904e-002
8.890374e+002,1.777895e-002
8.909658e+002,1.794526e-002
8.928943e+002,1.806835e-002
8.948229e+002,1.813889e-002
8.967513e+002,1.813043e-002
8.986798e+002,1.800697e-002
9.006083e+002,1.762154e-002
9.025369e+002,1.775610e-002
9.044653e+002,1.798128e-002
9.063938e+002,1.782911e-002
9.083223e+002,1.737734e-002
9.102509e+002,1.712239e-002
9.121793e+002,1.694561e-002
9.141078e+002,1.637115e-002
9.160364e+002,1.629337e-002
9.179648e+002,1.627902e-002
9.198933e+002,1.616933e-002
9.218218e+002,1.617945e-002
9.237504e+002,1.613797e-002
9.256788e+002,1.593513e-002
9.276073e+002,1.561393e-002
9.295358e+002,1.516336e-002
9.314644e+002,1.512346e-002
9.333928e+002,1.522266e-002
9.353213e+002,1.487785e-002
9.372498e+002,1.455946e-002
9.391783e+002,1.462292e-002
9.411068e+002,1.459468e-002
9.430353e+002,1.433317e-002
9.449637e+002,1.405070e-002
9.468923e+002,1.443434e-002
9.488208e+002,1.477537e-002
9.507493e+002,1.458769e-002
9.526777e+002,1.459663e-002
9.546063e+002,1.496252e-002
9.565348e+002,1.529380e-002
9.584633e+002,1.511811e-002
9.603917e+002,1.468772e-002
9.623203e+002,1.474795e-002
9.642488e+002,1.506147e-002
9.661772e+002,1.491495e-002
9.681057e+002,1.454616e-002
9.700343e+002,1.437440e-002
9.719628e+002,1.437553e-002
9.738912e+002,1.412631e-002
9.758197e+002,1.374263e-002
9.777483e+002,1.370073e-002
9.796768e+002,1.372707e-002
9.816052e+002,1.344208e-002
9.835337e+002,1.310688e-002
9.854623e+002,1.310975e-002
9.873907e+002,1.284879e-002
9.893192e+002,1.251548e-002
9.912477e+002,1.236071e-002
9.931763e+002,1.221006e-002
9.951047e+002,1.210746e-002
9.970332e+002,1.193629e-002
9.989617e+002,1.190639e-002
1.000890e+003,1.185013e-002
1.002819e+003,1.207666e-002
1.004747e+003,1.222829e-002
1.006676e+003,1.200591e-002
1.008604e+003,1.199371e-002
1.010533e+003,1.221551e-002
1.012461e+003,1.229022e-002
1.014390e+003,1.227464e-002
1.016318e+003,1.248145e-002
1.018247e+003,1.249710e-002
1.020175e+003,1.250658e-002
1.022104e+003,1.278569e-002
1.024032e+003,1.308971e-002
1.025961e+003,1.348269e-002
1.027889e+003,1.392854e-002
1.029818e+003,1.392454e-002
1.031746e+003,1.378657e-002
1.033675e+003,1.423000e-002
1.035603e+003,1.453040e-002
1.037532e+003,1.479745e-002
1.039460e+003,1.531910e-002
1.041389e+003,1.569575e-002
1.043317e+003,1.579738e-002
1.045246e+003,1.545161e-002
1.047174e+003,1.587017e-002
1.049103e+003,1.621484e-002
1.051031e+003,1.579422e-002
1.052960e+003,1.534151e-002
1.054888e+003,1.537199e-002
1.056817e+003,1.511022e-002
1.058745e+003,1.514854e-002
1.060674e+003,1.525890e-002
1.062602e+003,1.535301e-002
1.064531e+003,1.531168e-002
1.066459e+003,1.519884e-002
1.068388e+003,1.532153e-002
1.070316e+003,1.550435e-002
1.072245e+003,1.533385e-002
1.074173e+003,1.549597e-002
1.076102e+003,1.568328e-002
1.078030e+003,1.566892e-002
1.079959e+003,1.574502e-002
1.081887e+003,1.563513e-002
1.083816e+003,1.539774e-002
1.085744e+003,1.561146e-002
1.087673e+003,1.586584e-002
1.089601e+003,1.597119e-002
1.091530e+003,1.605483e-002
1.093458e+003,1.614224e-002
1.095387e+003,1.657489e-002
1.097315e+003,1.661079e-002
1.099244e+003,1.636148e-002
1.101172e+003,1.642256e-002
1.103101e+003,1.667631e-002
1.105029e+003,1.700101e-002
1.106958e+003,1.693504e-002
1.108886e+003,1.693245e-002
1.110815e+003,1.688770e-002
1.112743e+003,1.702000e-002
1.114672e+003,1.697845e-002
1.116600e+003,1.705239e-002
1.118529e+003,1.717575e-002
1.120457e+003,1.721580e-002
1.122386e+003,1.740445e-002
1.124314e+003,1.737272e-002
1.126243e+003,1.700174e-002
1.128171e+003,1.720101e-002
1.130100e+003,1.740935e-002
1.132028e+003,1.709464e-002
1.133957e+003,1.646595e-002
1.135885e+003,1.606456e-002
1.137814e+003,1.607357e-002
1.139742e+003,1.574169e-002
1.141671e+003,1.527685e-002
1.143599e+003,1.491101e-002
1.145528e+003,1.457765e-002
1.147456e+003,1.432071e-002
1.149385e+003,1.399601e-002
1.151313e+003,1.361918e-002
1.153242e+003,1.338129e-002
1.155170e+003,1.320630e-002
1.157099e+003,1.310258e-002
1.159027e+003,1.304378e-002
1.160956e+003,1.293439e-002
1.162884e+003,1.292473e-002
1.164813e+003,1.283620e-002
1.166741e+003,1.266460e-002
1.168670e+003,1.276812e-002
1.170598e+003,1.293149e-002
1.172526e+003,1.292907e-002
1.174455e+003,1.283081e-002
1.176384e+003,1.281398e-002
1.178312e+003,1.283869e-002
1.180240e+003,1.280736e-002
1.182169e+003,1.267013e-002
1.184098e+003,1.245775e-002
1.186026e+003,1.232407e-002
1.187954e+003,1.239395e-002
1.189883e+003,1.215175e-002
1.191812e+003,1.181189e-002
1.193740e+003,1.181057e-002
1.195668e+003,1.184084e-002
1.197597e+003,1.169639e-002
1.199526e+003,1.147655e-002
1.201454e+003,1.144447e-002
1.203382e+003,1.149567e-002
1.205311e+003,1.145468e-002
1.207240e+003,1.150435e-002
1.209168e+003,1.154906e-002
1.211096e+003,1.144784e-002
1.213025e+003,1.132553e-002
1.214953e+003,1.127934e-002
1.216882e+003,1.117264e-002
1.218810e+003,1.129308e-002
1.220739e+003,1.148880e-002
1.222667e+003,1.150598e-002
1.224596e+003,1.148870e-002
1.226524e+003,1.154532e-002
1.228453e+003,1.163509e-002
1.230381e+003,1.168107e-002
1.232310e+003,1.174500e-002
1.234238e+003,1.187581e-002
1.236167e+003,1.193029e-002
1.238095e+003,1.184697e-002
1.240024e+003,1.173969e-002
1.241952e+003,1.175228e-002
1.243881e+003,1.179725e-002
1.245809e+003,1.164533e-002
1.247738e+003,1.145628e-002
1.249666e+003,1.150972e-002
1.251595e+003,1.169897e-002
1.253523e+003,1.180791e-002
1.255452e+003,1.176586e-002
1.257380e+003,1.163672e-002
1.259309e+003,1.143569e-002
1.261237e+003,1.136695e-002
1.263166e+003,1.158179e-002
1.265094e+003,1.188354e-002
1.267023e+003,1.193816e-002
1.268951e+003,1.200185e-002
1.270880e+003,1.211915e-002
1.272808e+003,1.201153e-002
1.274737e+003,1.200672e-002
1.276665e+003,1.190724e-002
1.278594e+003,1.178200e-002
1.280522e+003,1.178272e-002
1.282451e+003,1.180944e-002
1.284379e+003,1.204675e-002
1.286308e+003,1.227580e-002
1.288236e+003,1.214981e-002
1.290165e+003,1.190605e-002
1.292093e+003,1.183610e-002
1.294022e+003,1.170891e-002
1.295950e+003,1.181983e-002
1.297879e+003,1.193789e-002
1.299807e+003,1.181748e-002
1.301736e+003,1.166242e-002
1.303664e+003,1.163815e-002
1.305593e+003,1.146022e-002
1.307521e+003,1.118856e-002
1.309450e+003,1.099814e-002
1.311378e+003,1.093490e-002
1.313307e+003,1.076572e-002
1.315235e+003,1.074058e-002
1.317164e+003,1.072757e-002
1.319092e+003,1.058431e-002
1.321021e+003,1.048199e-002
1.322949e+003,1.043590e-002
1.324878e+003,1.050643e-002
1.326806e+003,1.075349e-002
1.328735e+003,1.091183e-002
1.330663e+003,1.103647e-002
1.332592e+003,1.113209e-002
1.334520e+003,1.117519e-002
1.336449e+003,1.102628e-002
1.338377e+003,1.099681e-002
1.340306e+003,1.103192e-002
1.342234e+003,1.105075e-002
1.344163e+003,1.112233e-002
1.346091e+003,1.118400e-002
1.348020e+003,1.121351e-002
1.349948e+003,1.125207e-002
1.351877e+003,1.121803e-002
1.353805e+003,1.117822e-002
1.355734e+003,1.122351e-002
1.357662e+003,1.106981e-002
1.359591e+003,1.090496e-002
1.361519e+003,1.073287e-002
1.363448e+003,1.060597e-002
1.365376e+003,1.057310e-002
1.367305e+003,1.047849e-002
1.369233e+003,1.030111e-002
1.371162e+003,1.027851e-002
1.373090e+003,1.016399e-002
1.375019e+003,1.004163e-002
1.376947e+003,1.006662e-002
1.378876e+003,9.970798e-003
1.380804e+003,9.771897e-003
1.382733e+003,9.614923e-003
1.384661e+003,9.578643e-003
1.386590e+003,9.594699e-003
1.388518e+003,9.593649e-003
1.390447e+003,9.576577e-003
1.392375e+003,9.265702e-003
1.394304e+003,9.017630e-003
1.396232e+003,9.065602e-003
1.398161e+003,8.946221e-003
1.400089e+003,8.825352e-003
1.402018e+003,8.820213e-003
1.403946e+003,8.713172e-003
1.405875e+003,8.643403e-003
1.407803e+003,8.699345e-003
1.409732e+003,8.803814e-003
1.411660e+003,8.883213e-003
1.413589e+003,8.892581e-003
1.415517e+003,8.880677e-003
1.417446e+003,8.875130e-003
1.419374e+003,8.994761e-003
1.421303e+003,9.446762e-003
1.423231e+003,9.653881e-003
1.425160e+003,9.910725e-003
1.427088e+003,1.033993e-002
1.429017e+003,1.078790e-002
1.430945e+003,1.129499e-002
1.432874e+003,1.177952e-002
1.434802e+003,1.200679e-002
1.436731e+003,1.216443e-002
1.438659e+003,1.277051e-002
1.440588e+003,1.321488e-002
1.442516e+003,1.348908e-002
1.444445e+003,1.372361e-002
1.446373e+003,1.402678e-002
1.448302e+003,1.428102e-002
1.450230e+003,1.450108e-002
1.452159e+003,1.459640e-002
1.454087e+003,1.450892e-002
1.456016e+003,1.400255e-002
1.457944e+003,1.381486e-002
1.459873e+003,1.412956e-002
1.461801e+003,1.433618e-002
1.463730e+003,1.396388e-002
1.465658e+003,1.346755e-002
1.467587e+003,1.336841e-002
1.469515e+003,1.289941e-002
1.471444e+003,1.201694e-002
1.473372e+003,1.147308e-002
1.475301e+003,1.140909e-002
1.477229e+003,1.115405e-002
1.479158e+003,1.082828e-002
1.481086e+003,1.037199e-002
1.483015e+003,1.000796e-002
1.484943e+003,9.605471e-003
1.486872e+003,9.284895e-003
1.488800e+003,8.947406e-003
1.490729e+003,8.755261e-003
1.492657e+003,8.733726e-003
1.494586e+003,8.534444e-003
1.496514e+003,8.299691e-003
1.498443e+003,8.348428e-003
1.500371e+003,8.587704e-003
1.502300e+003,8.682071e-003
1.504228e+003,8.141221e-003
1.506157e+003,7.282717e-003
1.508085e+003,7.366725e-003
1.510014e+003,7.855325e-003
1.511942e+003,8.034245e-003
1.513871e+003,8.182513e-003
1.515799e+003,8.111647e-003
1.517728e+003,8.065771e-003
1.519656e+003,7.943089e-003
1.521585e+003,7.659415e-003
1.523513e+003,7.839705e-003
1.525442e+003,7.844192e-003
1.527370e+003,7.948927e-003
1.529299e+003,8.016964e-003
1.531227e+003,7.949028e-003
1.533156e+003,7.932763e-003
1.535084e+003,8.241841e-003
1.537013e+003,8.171135e-003
1.538941e+003,7.491268e-003
1.540870e+003,7.312538e-003
1.542798e+003,7.658976e-003
1.544727e+003,7.806677e-003
1.546655e+003,8.074650e-003
1.548584e+003,7.893790e-003
1.550512e+003,7.759248e-003
1.552441e+003,7.840751e-003
1.554369e+003,7.642182e-003
1.556298e+003,7.327600e-003
1.558226e+003,6.621699e-003
1.560155e+003,6.903787e-003
1.562083e+003,7.703156e-003
1.564012e+003,7.993137e-003
1.565940e+003,8.189367e-003
1.567869e+003,8.386226e-003
1.569797e+003,8.360385e-003
1.571726e+003,8.569826e-003
1.573654e+003,8.505013e-003
1.575583e+003,8.287059e-003
1.577511e+003,8.646579e-003
1.579440e+003,9.002711e-003
1.581368e+003,9.015295e-003
1.583297e+003,9.117708e-003
1.585225e+003,9.202410e-003
1.587154e+003,9.310012e-003
1.589082e+003,9.418623e-003
1.591010e+003,9.483437e-003
1.592939e+003,9.448185e-003
1.594868e+003,9.436130e-003
1.596796e+003,9.485875e-003
1.598724e+003,9.510429e-003
1.600653e+003,9.502436e-003
1.602582e+003,9.538337e-003
1.604510e+003,9.568244e-003
1.606438e+003,9.536846e-003
1.608367e+003,9.419199e-003
1.610296e+003,9.335740e-003
1.612224e+003,9.233581e-003
1.614152e+003,9.040871e-003
1.616081e+003,8.530964e-003
1.618010e+003,8.535999e-003
1.619938e+003,8.732745e-003
1.621866e+003,8.525118e-003
1.623795e+003,8.321272e-003
1.625724e+003,8.368526e-003
1.627652e+003,8.380382e-003
1.629580e+003,8.348023e-003
1.631509e+003,8.243563e-003
1.633438e+003,7.900808e-003
1.635366e+003,7.385969e-003
1.637294e+003,7.450649e-003
1.639223e+003,7.662416e-003
1.641151e+003,7.663495e-003
1.643080e+003,7.434267e-003
1.645008e+003,6.931225e-003
1.646937e+003,6.626140e-003
1.648865e+003,6.734384e-003
1.650794e+003,6.319050e-003
1.652722e+003,5.420889e-003
1.654651e+003,5.933637e-003
1.656579e+003,6.696797e-003
1.658508e+003,6.902239e-003
1.660436e+003,6.934760e-003
1.662365e+003,6.892981e-003
1.664293e+003,7.154798e-003
1.666222e+003,7.350111e-003
1.668150e+003,7.063995e-003
1.670079e+003,6.966072e-003
1.672007e+003,7.350144e-003
1.673936e+003,7.365849e-003
1.675864e+003,7.388968e-003
1.677793e+003,7.840683e-003
1.679721e+003,7.798783e-003
1.681650e+003,7.456008e-003
1.683578e+003,6.925703e-003
1.685507e+003,7.096596e-003
1.687435e+003,7.517495e-003
1.689364e+003,7.619758e-003
1.691292e+003,7.840008e-003
1.693221e+003,7.878505e-003
1.695149e+003,7.521069e-003
1.697078e+003,7.565235e-003
1.699006e+003,7.347280e-003
1.700935e+003,7.314121e-003
1.702863e+003,7.855730e-003
1.704792e+003,7.742011e-003
1.706720e+003,8.027258e-003
1.708649e+003,8.405008e-003
1.710577e+003,8.480348e-003
1.712506e+003,8.409603e-003
1.714434e+003,8.152295e-003
1.716363e+003,7.859239e-003
1.718291e+003,7.890786e-003
1.720220e+003,8.408488e-003
1.722148e+003,8.591962e-003
1.724077e+003,8.628868e-003
1.726005e+003,8.807533e-003
1.727934e+003,8.786299e-003
1.729862e+003,8.695086e-003
1.731791e+003,8.587332e-003
1.733719e+003,8.162457e-003
1.735648e+003,8.428453e-003
1.737576e+003,8.678455e-003
1.739505e+003,8.534242e-003
1.741433e+003,8.625320e-003
1.743362e+003,8.608320e-003
1.745290e+003,8.785725e-003
1.747219e+003,8.855178e-003
1.749147e+003,8.826198e-003
1.751076e+003,8.897890e-003
1.753004e+003,9.236965e-003
1.754933e+003,9.266819e-003
1.756861e+003,9.063369e-003
1.758790e+003,9.112057e-003
1.760718e+003,9.028319e-003
1.762647e+003,9.078627e-003
1.764575e+003,9.355986e-003
1.766504e+003,9.227962e-003
1.768432e+003,9.084176e-003
1.770361e+003,8.923898e-003
1.772289e+003,8.747587e-003
1.774218e+003,9.027812e-003
1.776146e+003,9.181022e-003
1.778075e+003,9.193475e-003
1.780003e+003,9.209788e-003
1.781932e+003,9.296065e-003
1.783860e+003,9.394075e-003
1.785789e+003,9.264315e-003
1.787717e+003,9.260659e-003
1.789646e+003,9.260355e-003
1.791574e+003,9.018542e-003
1.793503e+003,9.047062e-003
1.795431e+003,9.160819e-003
1.797360e+003,9.224679e-003
1.799288e+003,9.262250e-003
1.801217e+003,9.294441e-003
1.803145e+003,9.450994e-003
1.805074e+003,9.476494e-003
1.807002e+003,9.408228e-003
1.808931e+003,9.297081e-003
1.810859e+003,9.252197e-003
1.812788e+003,9.351449e-003
1.814716e+003,9.390147e-003
1.816645e+003,9.337366e-003
1.818573e+003,9.393838e-003
1.820502e+003,9.476732e-003
1.822430e+003,9.440023e-003
1.824359e+003,9.272472e-003
1.826287e+003,9.197435e-003
1.828216e+003,9.203629e-003
1.830144e+003,9.186673e-003
1.832073e+003,9.319254e-003
1.834001e+003,9.396208e-003
1.835930e+003,9.414391e-003
1.837858e+003,9.469552e-003
1.839787e+003,9.476088e-003
1.841715e+003,9.342207e-003
1.843644e+003,9.157130e-003
1.845572e+003,9.183831e-003
1.847501e+003,9.266955e-003
1.849429e+003,9.340277e-003
1.851358e+003,9.437924e-003
1.853286e+003,9.480524e-003
1.855215e+003,9.450555e-003
1.857143e+003,9.474022e-003
1.859072e+003,9.513916e-003
1.861000e+003,9.511139e-003
1.862929e+003,9.470670e-003
1.864857e+003,9.376198e-003
1.866786e+003,9.274029e-003
1.868714e+003,9.204813e-003
1.870643e+003,9.410903e-003
1.872571e+003,9.585215e-003
1.874500e+003,9.614821e-003
1.876428e+003,9.657540e-003
1.878357e+003,9.542231e-003
1.880285e+003,9.508939e-003
1.882214e+003,9.659505e-003
1.884142e+003,9.685119e-003
1.886071e+003,9.548599e-003
1.887999e+003,9.447440e-003
1.889928e+003,9.462305e-003
1.891856e+003,9.529226e-003
1.893785e+003,9.464235e-003
1.895713e+003,9.430204e-003
1.897642e+003,9.493088e-003
1.899570e+003,9.565975e-003
1.901499e+003,9.558455e-003
1.903427e+003,9.556084e-003
1.905356e+003,9.548938e-003
1.907284e+003,9.476494e-003
1.909213e+003,9.361911e-003
1.911141e+003,9.395294e-003
1.913070e+003,9.514289e-003
1.914998e+003,9.546906e-003
1.916927e+003,9.478019e-003
1.918855e+003,9.426749e-003
1.920784e+003,9.409278e-003
1.922712e+003,9.377722e-003
1.924641e+003,9.467486e-003
1.926569e+003,9.499523e-003
1.928498e+003,9.413917e-003
1.930426e+003,9.445983e-003
1.932355e+003,9.433894e-003
1.934283e+003,9.291292e-003
1.936212e+003,9.271457e-003
1.938140e+003,9.314277e-003
1.940069e+003,9.380092e-003
1.941997e+003,9.318611e-003
1.943926e+003,9.313330e-003
1.945854e+003,9.347420e-003
1.947783e+003,9.416591e-003
1.949711e+003,9.389030e-003
1.951640e+003,9.329545e-003
1.953568e+003,9.402302e-003
1.955497e+003,9.481540e-003
1.957425e+003,9.428036e-003
1.959354e+003,9.354563e-003
1.961282e+003,9.360353e-003
1.963211e+003,9.343797e-003
1.965139e+003,9.355580e-003
1.967068e+003,9.351043e-003
1.968996e+003,9.328022e-003
1.970925e+003,9.312551e-003
1.972853e+003,9.317189e-003
1.974782e+003,9.387608e-003
1.976710e+003,9.365296e-003
1.978639e+003,9.284793e-003
1.980567e+003,9.273149e-003
1.982496e+003,9.335808e-003
1.984424e+003,9.315631e-003
1.986353e+003,9.288889e-003
1.988281e+003,9.232431e-003
1.990210e+003,9.242415e-003
1.992138e+003,9.248880e-003
1.994067e+003,9.209584e-003
1.995995e+003,9.105865e-003
1.997924e+003,9.126370e-003
1.999852e+003,9.151377e-003
2.001781e+003,9.178348e-003
2.003709e+003,9.182002e-003
2.005638e+003,9.168026e-003
2.007566e+003,9.214221e-003
2.009495e+003,9.252976e-003
2.011423e+003,9.222344e-003
2.013352e+003,9.174896e-003
2.015280e+003,9.209957e-003
2.017208e+003,9.223258e-003
2.019137e+003,9.305205e-003
2.021066e+003,9.280629e-003
2.022994e+003,9.117471e-003
2.024922e+003,9.048753e-003
2.026851e+003,9.128367e-003
2.028780e+003,9.192020e-003
2.030708e+003,9.141597e-003
2.032636e+003,9.132867e-003
2.034565e+003,9.115406e-003
2.036494e+003,9.169820e-003
2.038422e+003,9.194897e-003
2.040350e+003,9.102583e-003
2.042279e+003,9.114595e-003
2.044208e+003,9.129720e-003
2.046136e+003,9.122276e-003
2.048064e+003,9.104748e-003
2.049993e+003,9.093210e-003
2.051921e+003,9.058395e-003
2.053850e+003,9.103395e-003
2.055778e+003,9.178145e-003
2.057707e+003,9.181631e-003
2.059635e+003,9.139127e-003
2.061564e+003,9.059004e-003
2.063492e+003,9.029842e-003
2.065421e+003,9.081741e-003
2.067349e+003,9.118114e-003
2.069278e+003,9.124746e-003
2.071206e+003,9.097575e-003
2.073135e+003,9.074398e-003
2.075063e+003,9.049836e-003
2.076992e+003,9.031364e-003
2.078920e+003,9.045100e-003
2.080849e+003,9.085631e-003
2.082777e+003,9.113038e-003
2.084706e+003,9.065466e-003
2.086634e+003,9.082958e-003
2.088563e+003,9.089692e-003
2.090491e+003,8.996487e-003
2.092420e+003,8.956301e-003
2.094348e+003,9.015498e-003
2.096277e+003,9.072098e-003
2.098205e+003,9.062286e-003
2.100134e+003,9.127047e-003
2.102062e+003,9.155810e-003
2.103991e+003,9.187620e-003
2.105919e+003,9.186199e-003
2.107848e+003,9.093819e-003
2.109776e+003,9.082315e-003
2.111705e+003,9.121870e-003
2.113633e+003,9.058565e-003
2.115562e+003,9.012623e-003
2.117490e+003,9.053862e-003
2.119419e+003,9.067226e-003
2.121347e+003,9.001121e-003
2.123276e+003,8.993612e-003
2.125204e+003,8.990905e-003
2.127133e+003,8.994761e-003
2.129061e+003,9.054572e-003
2.130990e+003,9.175505e-003
2.132918e+003,9.191750e-003
2.134847e+003,9.100621e-003
2.136775e+003,9.019727e-003
2.138704e+003,9.054707e-003
2.140632e+003,9.063099e-003
2.142561e+003,9.006804e-003
2.144489e+003,9.010254e-003
2.146418e+003,9.056230e-003
2.148346e+003,9.123595e-003
2.150275e+003,9.082349e-003
2.152203e+003,9.006060e-003
2.154132e+003,9.086308e-003
2.156060e+003,9.091180e-003
2.157989e+003,8.986981e-003
2.159917e+003,8.986711e-003
2.161846e+003,9.026087e-003
2.163774e+003,9.004335e-003
2.165703e+003,8.964216e-003
2.167631e+003,8.991581e-003
2.169560e+003,9.068443e-003
2.171488e+003,9.088270e-003
2.173417e+003,9.040194e-003
2.175345e+003,9.014619e-003
2.177274e+003,9.073012e-003
2.179202e+003,9.079711e-003
2.181131e+003,9.009544e-003
2.183059e+003,9.023279e-003
2.184988e+003,8.988470e-003
2.186916e+003,8.994051e-003
2.188845e+003,9.029402e-003
2.190773e+003,9.077680e-003
2.192702e+003,9.097136e-003
2.194630e+003,9.103361e-003
2.196559e+003,9.077985e-003
2.198487e+003,8.971184e-003
2.200416e+003,8.929479e-003
2.202344e+003,8.977679e-003
2.204273e+003,9.012352e-003
2.206201e+003,9.037048e-003
2.208130e+003,9.019963e-003
2.210058e+003,8.958500e-003
2.211987e+003,8.991683e-003
2.213915e+003,9.028725e-003
2.215844e+003,8.995708e-003
2.217772e+003,8.986068e-003
2.219701e+003,8.936176e-003
2.221629e+003,8.925488e-003
2.223558e+003,9.015464e-003
2.225486e+003,9.007717e-003
2.227415e+003,8.934721e-003
2.229343e+003,8.913448e-003
2.231272e+003,8.978356e-003
2.233200e+003,9.108741e-003
2.235129e+003,9.127182e-003
2.237057e+003,8.992326e-003
2.238986e+003,9.048009e-003
2.240914e+003,9.107050e-003
2.242843e+003,9.035762e-003
2.244771e+003,9.036878e-003
2.246700e+003,9.029977e-003
2.248628e+003,9.045607e-003
2.250557e+003,9.121735e-003
2.252485e+003,9.203764e-003
2.254414e+003,9.149888e-003
2.256342e+003,9.029301e-003
2.258271e+003,8.948522e-003
2.260199e+003,9.015870e-003
2.262128e+003,9.076564e-003
2.264056e+003,8.943313e-003
2.265985e+003,8.874893e-003
2.267913e+003,8.914767e-003
2.269842e+003,8.894576e-003
2.271770e+003,8.830560e-003
2.273699e+003,8.809798e-003
2.275627e+003,8.881623e-003
2.277556e+003,8.936988e-003
2.279484e+003,8.970136e-003
2.281413e+003,9.037826e-003
2.283341e+003,9.002609e-003
2.285270e+003,8.912163e-003
2.287198e+003,8.942264e-003
2.289127e+003,8.973079e-003
2.291055e+003,9.003049e-003
2.292984e+003,9.095240e-003
2.294912e+003,9.036202e-003
2.296841e+003,9.060594e-003
2.298769e+003,9.138416e-003
2.300698e+003,9.146538e-003
2.302626e+003,9.174219e-003
2.304555e+003,9.158889e-003
2.306483e+003,9.077850e-003
2.308412e+003,9.160311e-003
2.310340e+003,9.235138e-003
2.312269e+003,9.379347e-003
2.314197e+003,9.537151e-003
2.316125e+003,9.568143e-003
2.318054e+003,9.664418e-003
2.319983e+003,9.725642e-003
2.321911e+003,9.795518e-003
2.323840e+003,9.973612e-003
2.325768e+003,1.006686e-002
2.327697e+003,1.018407e-002
2.329625e+003,1.036633e-002
2.331553e+003,1.041262e-002
2.333482e+003,1.029619e-002
2.335411e+003,1.024574e-002
2.337339e+003,1.025259e-002
2.339268e+003,1.029290e-002
2.341196e+003,1.020045e-002
2.343125e+003,1.012705e-002
2.345053e+003,9.913572e-003
2.346981e+003,9.503519e-003
2.348910e+003,9.291428e-003
2.350839e+003,9.611738e-003
2.352767e+003,1.008975e-002
2.354696e+003,1.039212e-002
2.356624e+003,1.060095e-002
2.358552e+003,1.072095e-002
2.360481e+003,1.074493e-002
2.362409e+003,1.072442e-002
2.364338e+003,1.064427e-002
2.366267e+003,1.050962e-002
2.368195e+003,1.037583e-002
2.370124e+003,1.012671e-002
2.372052e+003,9.836866e-003
2.373980e+003,9.452146e-003
2.375909e+003,9.164405e-003
2.377838e+003,9.015363e-003
2.379766e+003,8.963033e-003
2.381695e+003,8.908983e-003
2.383623e+003,8.741738e-003
2.385552e+003,8.710434e-003
2.387480e+003,8.676494e-003
2.389408e+003,8.668044e-003
2.391337e+003,8.674162e-003
2.393266e+003,8.700022e-003
2.395194e+003,8.732779e-003
2.397123e+003,8.681463e-003
2.399051e+003,8.648000e-003
2.400979e+003,8.663379e-003
2.402908e+003,8.600851e-003
2.404836e+003,8.546339e-003
2.406765e+003,8.563405e-003
2.408694e+003,8.665644e-003
2.410622e+003,8.776460e-003
2.412551e+003,8.783560e-003
2.414479e+003,8.709385e-003
2.416407e+003,8.720203e-003
2.418336e+003,8.740656e-003
2.420264e+003,8.763579e-003
2.422193e+003,8.754518e-003
2.424122e+003,8.801346e-003
2.426050e+003,8.865526e-003
2.427979e+003,8.846859e-003
2.429907e+003,8.764762e-003
2.431835e+003,8.685824e-003
2.433764e+003,8.731765e-003
2.435692e+003,8.786671e-003
2.437621e+003,8.749987e-003
2.439550e+003,8.688697e-003
2.441478e+003,8.688798e-003
2.443406e+003,8.680009e-003
2.445335e+003,8.670241e-003
2.447263e+003,8.629815e-003
2.449192e+003,8.640834e-003
2.451121e+003,8.726965e-003
2.453049e+003,8.750461e-003
2.454978e+003,8.787652e-003
2.456906e+003,8.780383e-003
2.458834e+003,8.775176e-003
2.460763e+003,8.804253e-003
2.462691e+003,8.777745e-003
2.464620e+003,8.650062e-003
2.466549e+003,8.618628e-003
2.468477e+003,8.629072e-003
2.470406e+003,8.630930e-003
2.472334e+003,8.612308e-003
2.474262e+003,8.572699e-003
2.476191e+003,8.558201e-003
2.478119e+003,8.628801e-003
2.480048e+003,8.716113e-003
2.481977e+003,8.719494e-003
2.483905e+003,8.768548e-003
2.485833e+003,8.757290e-003
2.487762e+003,8.613423e-003
2.489690e+003,8.539514e-003
2.491619e+003,8.608083e-003
2.493547e+003,8.682646e-003
2.495476e+003,8.686601e-003
2.497405e+003,8.645532e-003
2.499333e+003,8.611936e-003
2.501261e+003,8.638096e-003
2.503190e+003,8.677677e-003
2.505118e+003,8.698872e-003
2.507047e+003,8.771760e-003
2.508975e+003,8.702828e-003
2.510904e+003,8.724091e-003
2.512833e+003,8.756648e-003
2.514761e+003,8.675683e-003
2.516689e+003,8.635459e-003
2.518618e+003,8.595950e-003
2.520546e+003,8.630051e-003
2.522475e+003,8.703098e-003
2.524403e+003,8.649115e-003
2.526332e+003,8.601289e-003
2.528260e+003,8.698601e-003
2.530189e+003,8.774668e-003
2.532117e+003,8.758102e-003
2.534046e+003,8.742211e-003
2.535974e+003,8.713780e-003
2.537903e+003,8.638333e-003
2.539831e+003,8.633195e-003
2.541760e+003,8.751238e-003
2.543688e+003,8.802393e-003
2.545617e+003,8.808007e-003
2.547545e+003,8.785285e-003
2.549474e+003,8.842429e-003
2.551402e+003,8.894914e-003
2.553331e+003,8.741332e-003
2.555259e+003,8.706782e-003
2.557188e+003,8.739034e-003
2.559116e+003,8.729263e-003
2.561045e+003,8.739338e-003
2.562973e+003,8.721826e-003
2.564902e+003,8.720237e-003
2.566830e+003,8.730447e-003
2.568759e+003,8.725274e-003
2.570687e+003,8.679536e-003
2.572616e+003,8.675007e-003
2.574544e+003,8.685858e-003
2.576473e+003,8.716721e-003
2.578401e+003,8.761719e-003
2.580330e+003,8.820822e-003
2.582258e+003,8.849937e-003
2.584187e+003,8.927044e-003
2.586115e+003,8.925623e-003
2.588044e+003,8.873811e-003
2.589972e+003,8.970304e-003
2.591901e+003,8.979708e-003
2.593829e+003,8.884160e-003
2.595758e+003,8.892378e-003
2.597686e+003,8.966246e-003
2.599615e+003,8.946053e-003
2.601543e+003,8.949875e-003
2.603472e+003,8.887677e-003
2.605400e+003,8.868198e-003
2.607329e+003,8.860893e-003
2.609257e+003,8.821701e-003
2.611186e+003,8.897349e-003
2.613114e+003,8.932760e-003
2.615043e+003,8.902152e-003
2.616971e+003,9.041648e-003
2.618900e+003,9.147316e-003
2.620828e+003,9.120516e-003
2.622757e+003,9.123088e-003
2.624685e+003,9.110906e-003
2.626614e+003,9.042393e-003
2.628542e+003,9.056162e-003
2.630471e+003,9.125592e-003
2.632399e+003,9.179566e-003
2.634328e+003,9.199263e-003
2.636256e+003,9.189989e-003
2.638185e+003,9.212800e-003
2.640113e+003,9.284793e-003
2.642042e+003,9.369832e-003
2.643970e+003,9.376807e-003
2.645899e+003,9.419233e-003
2.647827e+003,9.433623e-003
2.649756e+003,9.428307e-003
2.651684e+003,9.511410e-003
2.653613e+003,9.615905e-003
2.655541e+003,9.670652e-003
2.657470e+003,9.624476e-003
2.659398e+003,9.607910e-003
2.661327e+003,9.637213e-003
2.663255e+003,9.761257e-003
2.665184e+003,9.854998e-003
2.667112e+003,9.855507e-003
2.669041e+003,9.800364e-003
2.670969e+003,9.861100e-003
2.672898e+003,9.828121e-003
2.674826e+003,9.843271e-003
2.676755e+003,9.934658e-003
2.678683e+003,9.927675e-003
2.680612e+003,9.951508e-003
2.682540e+003,1.003217e-002
2.684469e+003,1.006445e-002
2.686397e+003,1.015256e-002
2.688326e+003,1.026789e-002
2.690254e+003,1.025487e-002
2.692183e+003,1.017776e-002
2.694111e+003,1.026840e-002
2.696040e+003,1.029894e-002
2.697968e+003,1.026762e-002
2.699897e+003,1.037620e-002
2.701825e+003,1.052004e-002
2.703754e+003,1.057351e-002
2.705682e+003,1.057922e-002
2.707611e+003,1.061375e-002
2.709539e+003,1.067517e-002
2.711468e+003,1.071681e-002
2.713396e+003,1.078450e-002
2.715325e+003,1.085978e-002
2.717253e+003,1.098098e-002
2.719182e+003,1.102607e-002
2.721110e+003,1.104120e-002
2.723039e+003,1.122072e-002
2.724967e+003,1.127948e-002
2.726896e+003,1.134811e-002
2.728824e+003,1.149071e-002
2.730753e+003,1.166296e-002
2.732681e+003,1.181741e-002
2.734610e+003,1.177386e-002
2.736538e+003,1.185010e-002
2.738467e+003,1.203602e-002
2.740395e+003,1.204658e-002
2.742324e+003,1.209666e-002
2.744252e+003,1.216419e-002
2.746181e+003,1.221326e-002
2.748109e+003,1.231817e-002
2.750038e+003,1.249604e-002
2.751966e+003,1.267241e-002
2.753895e+003,1.275037e-002
2.755823e+003,1.275737e-002
2.757752e+003,1.286872e-002
2.759680e+003,1.310842e-002
2.761609e+003,1.338744e-002
2.763537e+003,1.356917e-002
2.765466e+003,1.376489e-002
2.767394e+003,1.411316e-002
2.769323e+003,1.449159e-002
2.771251e+003,1.483324e-002
2.773180e+003,1.527537e-002
2.775108e+003,1.577756e-002
2.777037e+003,1.624634e-002
2.778965e+003,1.683621e-002
2.780894e+003,1.744091e-002
2.782822e+003,1.803868e-002
2.784750e+003,1.878167e-002
2.786679e+003,1.960932e-002
2.788608e+003,2.044835e-002
2.790536e+003,2.116591e-002
2.792465e+003,2.187388e-002
2.794393e+003,2.271105e-002
2.796322e+003,2.354917e-002
2.798250e+003,2.428060e-002
2.800178e+003,2.499044e-002
2.802107e+003,2.575584e-002
2.804036e+003,2.623869e-002
2.805964e+003,2.660360e-002
2.807893e+003,2.690281e-002
2.809821e+003,2.705601e-002
2.811750e+003,2.705185e-002
2.813678e+003,2.698214e-002
2.815606e+003,2.677240e-002
2.817535e+003,2.648011e-002
2.819464e+003,2.610355e-002
2.821392e+003,2.566349e-002
2.823321e+003,2.518053e-002
2.825249e+003,2.465330e-002
2.827177e+003,2.406120e-002
2.829106e+003,2.336962e-002
2.831034e+003,2.278095e-002
2.832963e+003,2.218192e-002
2.834892e+003,2.152055e-002
2.836820e+003,2.087618e-002
2.838749e+003,2.016990e-002
2.840677e+003,1.958711e-002
2.842605e+003,1.909272e-002
2.844534e+003,1.822316e-002
2.846462e+003,1.745757e-002
2.848391e+003,1.700388e-002
2.850320e+003,1.669787e-002
2.852248e+003,1.640563e-002
2.854177e+003,1.608505e-002
2.856105e+003,1.593217e-002
2.858033e+003,1.604884e-002
2.859962e+003,1.612955e-002
2.861890e+003,1.603489e-002
2.863819e+003,1.595121e-002
2.865748e+003,1.605091e-002
2.867676e+003,1.615059e-002
2.869604e+003,1.633702e-002
2.871533e+003,1.658243e-002
2.873461e+003,1.670241e-002
2.875390e+003,1.680197e-002
2.877319e+003,1.694127e-002
2.879247e+003,1.702944e-002
2.881176e+003,1.707979e-002
2.883104e+003,1.718081e-002
2.885032e+003,1.722877e-002
2.886961e+003,1.715531e-002
2.888889e+003,1.708613e-002
2.890818e+003,1.698592e-002
2.892747e+003,1.688977e-002
2.894675e+003,1.679973e-002
2.896604e+003,1.670882e-002
2.898532e+003,1.660911e-002
2.900460e+003,1.652154e-002
2.902389e+003,1.638158e-002
2.904317e+003,1.639118e-002
2.906246e+003,1.647115e-002
2.908175e+003,1.635904e-002
2.910103e+003,1.625422e-002
2.912031e+003,1.612023e-002
2.913960e+003,1.596479e-002
2.915888e+003,1.603956e-002
2.917817e+003,1.619423e-002
2.919745e+003,1.640377e-002
2.921674e+003,1.666192e-002
2.923603e+003,1.689418e-002
2.925531e+003,1.732882e-002
2.927459e+003,1.775352e-002
2.929388e+003,1.802504e-002
2.931316e+003,1.814404e-002
2.933245e+003,1.836247e-002
2.935173e+003,1.856987e-002
2.937102e+003,1.867913e-002
2.939031e+003,1.868906e-002
2.940959e+003,1.862459e-002
2.942887e+003,1.848229e-002
2.944816e+003,1.817251e-002
2.946744e+003,1.789343e-002
2.948673e+003,1.754774e-002
2.950601e+003,1.703613e-002
2.952530e+003,1.645745e-002
2.954458e+003,1.582072e-002
2.956387e+003,1.520166e-002
2.958315e+003,1.460198e-002
2.960244e+003,1.390117e-002
2.962172e+003,1.310111e-002
2.964101e+003,1.245294e-002
2.966029e+003,1.188619e-002
2.967958e+003,1.138226e-002
2.969886e+003,1.092331e-002
2.971815e+003,1.053322e-002
2.973743e+003,1.017589e-002
2.975672e+003,9.986564e-003
2.977600e+003,9.677022e-003
2.979529e+003,9.228809e-003
2.981457e+003,9.120516e-003
2.983386e+003,8.987421e-003
2.985314e+003,8.862617e-003
2.987243e+003,8.752828e-003
2.989171e+003,8.598890e-003
2.991100e+003,8.521604e-003
2.993028e+003,8.465482e-003
2.994957e+003,8.432474e-003
2.996885e+003,8.377004e-003
2.998814e+003,8.271018e-003
3.000742e+003,8.317388e-003
3.002671e+003,8.352380e-003
3.004599e+003,8.334951e-003
3.006528e+003,8.483760e-003
3.008456e+003,8.459637e-003
3.010385e+003,8.372647e-003
3.012313e+003,8.263014e-003
3.014242e+003,8.150573e-003
3.016170e+003,8.100845e-003
3.018099e+003,8.075290e-003
3.020027e+003,8.105875e-003
3.021956e+003,8.112964e-003
3.023884e+003,8.134705e-003
3.025813e+003,8.138081e-003
3.027741e+003,8.087510e-003
3.029670e+003,8.152126e-003
3.031598e+003,8.041232e-003
3.033527e+003,8.055713e-003
3.035455e+003,8.144192e-003
3.037384e+003,8.168669e-003
3.039312e+003,8.202164e-003
3.041241e+003,8.153982e-003
3.043169e+003,8.024693e-003
3.045098e+003,8.053147e-003
3.047026e+003,8.084540e-003
3.048955e+003,8.057029e-003
3.050883e+003,8.177482e-003
3.052812e+003,8.236472e-003
3.054740e+003,8.202840e-003
3.056669e+003,8.147230e-003
3.058597e+003,8.089064e-003
3.060526e+003,7.973934e-003
3.062454e+003,7.944203e-003
3.064383e+003,8.013488e-003
3.066311e+003,8.090683e-003
3.068240e+003,8.137102e-003
3.070168e+003,8.095680e-003
3.072097e+003,8.120627e-003
3.074025e+003,8.167082e-003
3.075954e+003,8.246670e-003
3.077882e+003,8.145576e-003
3.079811e+003,8.162356e-003
3.081739e+003,8.246872e-003
3.083668e+003,8.197943e-003
3.085596e+003,8.158878e-003
3.087525e+003,8.181837e-003
3.089453e+003,8.203886e-003
3.091382e+003,8.179575e-003
3.093310e+003,8.089772e-003
3.095239e+003,8.139465e-003
3.097167e+003,8.257476e-003
3.099096e+003,8.248628e-003
3.101024e+003,8.200171e-003
3.102953e+003,8.259569e-003
3.104881e+003,8.348834e-003
3.106810e+003,8.396631e-003
3.108738e+003,8.363594e-003
3.110667e+003,8.313234e-003
3.112595e+003,8.196052e-003
3.114524e+003,8.101520e-003
3.116452e+003,8.098921e-003
3.118381e+003,8.111175e-003
3.120309e+003,8.267201e-003
3.122238e+003,8.508055e-003
3.124166e+003,8.662128e-003
3.126095e+003,8.556038e-003
3.128023e+003,8.400854e-003
3.129952e+003,8.486429e-003
3.131880e+003,8.635358e-003
3.133809e+003,8.563777e-003
3.135737e+003,8.506737e-003
3.137666e+003,8.557525e-003
3.139594e+003,8.552760e-003
3.141523e+003,8.512008e-003
3.143451e+003,8.525186e-003
3.145380e+003,8.636169e-003
3.147308e+003,8.714050e-003
3.149237e+003,8.657092e-003
3.151165e+003,8.612544e-003
3.153094e+003,8.700461e-003
3.155022e+003,8.788396e-003
3.156951e+003,8.865120e-003
3.158879e+003,8.791911e-003
3.160808e+003,8.796882e-003
3.162736e+003,8.958127e-003
3.164665e+003,8.974736e-003
3.166593e+003,9.083838e-003
3.168522e+003,9.118723e-003
3.170450e+003,9.065061e-003
3.172379e+003,9.114629e-003
3.174307e+003,9.182037e-003
3.176236e+003,9.087763e-003
3.178164e+003,9.059004e-003
3.180093e+003,9.086139e-003
3.182021e+003,9.122445e-003
3.183950e+003,9.135506e-003
3.185878e+003,9.122445e-003
3.187807e+003,9.197908e-003
3.189735e+003,9.117505e-003
3.191664e+003,9.117505e-003
3.193592e+003,9.247188e-003
3.195521e+003,9.293425e-003
3.197449e+003,9.239335e-003
3.199378e+003,9.190531e-003
3.201306e+003,9.079676e-003
3.203235e+003,9.054775e-003
3.205163e+003,9.135270e-003
3.207092e+003,9.376977e-003
3.209020e+003,9.408127e-003
3.210948e+003,9.273420e-003
3.212877e+003,9.281916e-003
3.214806e+003,9.469417e-003
3.216734e+003,9.562825e-003
3.218663e+003,9.540775e-003
3.220591e+003,9.467385e-003
3.222520e+003,9.505213e-003
3.224448e+003,9.610281e-003
3.226376e+003,9.806770e-003
3.228305e+003,9.874184e-003
3.230234e+003,9.888556e-003
3.232162e+003,9.862185e-003
3.234091e+003,9.882623e-003
3.236019e+003,9.870523e-003
3.237948e+003,9.854084e-003
3.239876e+003,9.905268e-003
3.241804e+003,1.004811e-002
3.243733e+003,1.020622e-002
3.245662e+003,1.020290e-002
3.247590e+003,1.017450e-002
3.249519e+003,1.042422e-002
3.251447e+003,1.055399e-002
3.253375e+003,1.046763e-002
3.255304e+003,1.036436e-002
3.257232e+003,1.040423e-002
3.259161e+003,1.058499e-002
3.261090e+003,1.088016e-002
3.263018e+003,1.101931e-002
3.264947e+003,1.098614e-002
3.266875e+003,1.091227e-002
3.268803e+003,1.089606e-002
3.270732e+003,1.095892e-002
3.272660e+003,1.084510e-002
3.274589e+003,1.081049e-002
3.276518e+003,1.092049e-002
3.278446e+003,1.104565e-002
3.280375e+003,1.099851e-002
3.282303e+003,1.103838e-002
3.284231e+003,1.110890e-002
3.286160e+003,1.102648e-002
3.288088e+003,1.099467e-002
3.290017e+003,1.098128e-002
3.291946e+003,1.094468e-002
3.293874e+003,1.096997e-002
3.295802e+003,1.091047e-002
3.297731e+003,1.078480e-002
3.299659e+003,1.081011e-002
3.301588e+003,1.077203e-002
3.303516e+003,1.059263e-002
3.305445e+003,1.053919e-002
3.307374e+003,1.044537e-002
3.309302e+003,1.029918e-002
3.311230e+003,1.032934e-002
3.313159e+003,1.035645e-002
3.315087e+003,1.019537e-002
3.317016e+003,9.929946e-003
3.318944e+003,9.769593e-003
3.320873e+003,9.853033e-003
3.322802e+003,9.977749e-003
3.324730e+003,1.002515e-002
3.326658e+003,9.936794e-003
3.328587e+003,9.792299e-003
3.330515e+003,9.699587e-003
3.332444e+003,9.682103e-003
3.334372e+003,9.813853e-003
3.336301e+003,9.912929e-003
3.338229e+003,9.870828e-003
3.340158e+003,9.718087e-003
3.342086e+003,9.634910e-003
3.344015e+003,9.671669e-003
3.345943e+003,9.831883e-003
3.347872e+003,9.862253e-003
3.349800e+003,9.808091e-003
3.351729e+003,9.834358e-003
3.353657e+003,9.859032e-003
3.355586e+003,9.775287e-003
3.357514e+003,9.612653e-003
3.359443e+003,9.510598e-003
3.361371e+003,9.562791e-003
3.363300e+003,9.570175e-003
3.365229e+003,9.539996e-003
3.367157e+003,9.512020e-003
3.369085e+003,9.443646e-003
3.371014e+003,9.427732e-003
3.372942e+003,9.443613e-003
3.374871e+003,9.318611e-003
3.376799e+003,9.049125e-003
3.378728e+003,8.853690e-003
3.380656e+003,8.770002e-003
3.382585e+003,8.805504e-003
3.384513e+003,8.782073e-003
3.386442e+003,8.724801e-003
3.388370e+003,8.596490e-003
3.390299e+003,8.603824e-003
3.392227e+003,8.558708e-003
3.394156e+003,8.348867e-003
3.396084e+003,8.315699e-003
3.398013e+003,8.342753e-003
3.399941e+003,8.310498e-003
3.401870e+003,8.291247e-003
3.403798e+003,8.160938e-003
3.405727e+003,8.153409e-003
3.407655e+003,8.224517e-003
3.409584e+003,8.306411e-003
3.411512e+003,8.386058e-003
3.413441e+003,8.417711e-003
3.415369e+003,8.473151e-003
3.417298e+003,8.465414e-003
3.419226e+003,8.403049e-003
3.421155e+003,8.309248e-003
3.423083e+003,8.325156e-003
3.425012e+003,8.387071e-003
3.426940e+003,8.452947e-003
3.428869e+003,8.488592e-003
3.430797e+003,8.377781e-003
3.432726e+003,8.296313e-003
3.434654e+003,8.332587e-003
3.436583e+003,8.268383e-003
3.438511e+003,8.318469e-003
3.440440e+003,8.498695e-003
3.442368e+003,8.398218e-003
3.444297e+003,8.266628e-003
3.446225e+003,8.223673e-003
3.448154e+003,8.473253e-003
3.450082e+003,8.588177e-003
3.452011e+003,8.502682e-003
3.453939e+003,8.538061e-003
3.455868e+003,8.525726e-003
3.457796e+003,8.475043e-003
3.459725e+003,8.439264e-003
3.461653e+003,8.508866e-003
3.463582e+003,8.565534e-003
3.465510e+003,8.448758e-003
3.467439e+003,8.385585e-003
3.469367e+003,8.457271e-003
3.471296e+003,8.416190e-003
3.473224e+003,8.366804e-003
3.475153e+003,8.413825e-003
3.477081e+003,8.525861e-003
3.479010e+003,8.668449e-003
3.480938e+003,8.774668e-003
3.482867e+003,8.916052e-003
3.484795e+003,8.807127e-003
3.486724e+003,8.559790e-003
3.488652e+003,8.652123e-003
3.490581e+003,8.757797e-003
3.492509e+003,8.662737e-003
3.494438e+003,8.773823e-003
3.496366e+003,8.962288e-003
3.498295e+003,8.930900e-003
3.500223e+003,8.969054e-003
3.502152e+003,9.063707e-003
3.504080e+003,8.982246e-003
3.506009e+003,8.951836e-003
3.507937e+003,8.841821e-003
3.509866e+003,8.725038e-003
3.511794e+003,8.791303e-003
3.513723e+003,8.993915e-003
3.515651e+003,9.115102e-003
3.517580e+003,9.093616e-003
3.519508e+003,9.050580e-003
3.521437e+003,8.941351e-003
3.523365e+003,8.905838e-003
3.525294e+003,9.081165e-003
3.527222e+003,9.153374e-003
3.529151e+003,9.098895e-003
3.531079e+003,9.123020e-003
3.533008e+003,9.082857e-003
3.534936e+003,9.111583e-003
3.536865e+003,9.273217e-003
3.538793e+003,9.307135e-003
3.540722e+003,9.198958e-003
3.542650e+003,9.251554e-003
3.544579e+003,9.204238e-003
3.546507e+003,9.179465e-003
3.548436e+003,9.229451e-003
3.550364e+003,9.257816e-003
3.552293e+003,9.130633e-003
3.554221e+003,9.046081e-003
3.556150e+003,9.127148e-003
3.558078e+003,9.233649e-003
3.560007e+003,9.220246e-003
3.561935e+003,9.327108e-003
3.563864e+003,9.477036e-003
3.565792e+003,9.259305e-003
3.567721e+003,9.056230e-003
3.569649e+003,9.048618e-003
3.571578e+003,9.198721e-003
3.573506e+003,9.262283e-003
3.575435e+003,9.008360e-003
3.577363e+003,9.167146e-003
3.579292e+003,9.469417e-003
3.581220e+003,9.403589e-003
3.583149e+003,9.336858e-003
3.585077e+003,9.476901e-003
3.587006e+003,9.388014e-003
3.588934e+003,9.300974e-003
3.590863e+003,9.264992e-003
3.592791e+003,9.076767e-003
3.594720e+003,9.081233e-003
3.596648e+003,9.274063e-003
3.598577e+003,9.413950e-003
3.600505e+003,9.398883e-003
3.602434e+003,9.468875e-003
3.604362e+003,9.546228e-003
3.606291e+003,9.345457e-003
3.608219e+003,9.385508e-003
3.610148e+003,9.316478e-003
3.612076e+003,9.201361e-003
3.614005e+003,9.250538e-003
3.615933e+003,9.229655e-003
3.617862e+003,9.019997e-003
3.619790e+003,9.000343e-003
3.621719e+003,9.305543e-003
3.623647e+003,9.529869e-003
3.625576e+003,9.313838e-003
3.627504e+003,9.012115e-003
3.629433e+003,9.222514e-003
3.631361e+003,9.443071e-003
3.633290e+003,9.233479e-003
3.635218e+003,9.192562e-003
3.637146e+003,9.421603e-003
3.639075e+003,9.626406e-003
3.641004e+003,9.764984e-003
3.642932e+003,9.706160e-003
3.644861e+003,9.513307e-003
3.646789e+003,9.248880e-003
3.648718e+003,9.055519e-003
3.650646e+003,8.947608e-003
3.652574e+003,9.082519e-003
3.654503e+003,9.079541e-003
3.656432e+003,9.112903e-003
3.658360e+003,9.512596e-003
3.660289e+003,9.663571e-003
3.662217e+003,9.767187e-003
3.664146e+003,9.890013e-003
3.666074e+003,9.840628e-003
3.668002e+003,9.721543e-003
3.669931e+003,9.439955e-003
3.671860e+003,9.271828e-003
3.673788e+003,9.100925e-003
3.675717e+003,8.947507e-003
3.677645e+003,9.205659e-003
3.679573e+003,9.443681e-003
3.681502e+003,9.595173e-003
3.683430e+003,9.688507e-003
3.685359e+003,9.890251e-003
3.687288e+003,9.783555e-003
3.689216e+003,9.312348e-003
3.691145e+003,9.060358e-003
3.693073e+003,9.268207e-003
3.695001e+003,9.536305e-003
3.696930e+003,9.570005e-003
3.698858e+003,9.650087e-003
3.700787e+003,9.558523e-003
3.702716e+003,9.451232e-003
3.704644e+003,9.726930e-003
3.706573e+003,9.670482e-003
3.708501e+003,9.406332e-003
3.710429e+003,9.336654e-003
3.712358e+003,9.301685e-003
3.714286e+003,9.423973e-003
3.716215e+003,9.580777e-003
3.718144e+003,9.565094e-003
3.720072e+003,9.675090e-003
3.722000e+003,9.840323e-003
3.723929e+003,9.803720e-003
3.725857e+003,9.721170e-003
3.727786e+003,9.726287e-003
3.729714e+003,9.493800e-003
3.731643e+003,9.181766e-003
3.733572e+003,9.246680e-003
3.735500e+003,9.426851e-003
3.737428e+003,9.321522e-003
3.739357e+003,9.489770e-003
3.741285e+003,9.861066e-003
3.743214e+003,9.908047e-003
3.745142e+003,9.738959e-003
3.747071e+003,9.400745e-003
3.749000e+003,8.857714e-003
3.750928e+003,8.816291e-003
3.752856e+003,9.117741e-003
3.754785e+003,9.345998e-003
3.756713e+003,9.420417e-003
3.758642e+003,9.467317e-003
3.760570e+003,9.669805e-003
3.762499e+003,9.736554e-003
3.764427e+003,9.702975e-003
3.766356e+003,9.693827e-003
3.768284e+003,9.504502e-003
3.770213e+003,9.644938e-003
3.772141e+003,9.990700e-003
3.774070e+003,9.976325e-003
3.775998e+003,9.877810e-003
3.777927e+003,9.676377e-003
3.779855e+003,9.696977e-003
3.781784e+003,9.881912e-003
3.783712e+003,9.529598e-003
3.785641e+003,9.293729e-003
3.787569e+003,9.507380e-003
3.789498e+003,9.781454e-003
3.791426e+003,9.733402e-003
3.793355e+003,9.874285e-003
3.795283e+003,9.945371e-003
3.797212e+003,9.752209e-003
3.799140e+003,9.748007e-003
3.801069e+003,9.553104e-003
3.802997e+003,9.476494e-003
3.804926e+003,9.619428e-003
3.806854e+003,9.909098e-003
3.808783e+003,1.013485e-002
3.810711e+003,9.968831e-003
3.812640e+003,9.996668e-003
3.814568e+003,9.991480e-003
3.816497e+003,9.737807e-003
3.818425e+003,9.726151e-003
3.820354e+003,9.726219e-003
3.822282e+003,9.621359e-003
3.824211e+003,9.519878e-003
3.826139e+003,9.562655e-003
3.828068e+003,9.738926e-003
3.829996e+003,9.842458e-003
3.831925e+003,9.889471e-003
3.833853e+003,9.803482e-003
3.835782e+003,9.656423e-003
3.837710e+003,9.472228e-003
3.839639e+003,9.473954e-003
3.841567e+003,9.483539e-003
3.843496e+003,9.652052e-003
3.845424e+003,9.958559e-003
3.847353e+003,1.001060e-002
3.849281e+003,9.824292e-003
3.851210e+003,9.761833e-003
3.853138e+003,9.636739e-003
3.855067e+003,9.404436e-003
3.856995e+003,9.395869e-003
3.858924e+003,9.650053e-003
3.860852e+003,9.777828e-003
3.862781e+003,9.652086e-003
3.864709e+003,9.713106e-003
3.866638e+003,9.853033e-003
3.868566e+003,9.503757e-003
3.870495e+003,9.237236e-003
3.872423e+003,9.266988e-003
3.874352e+003,9.254092e-003
3.876280e+003,9.371762e-003
3.878209e+003,9.521165e-003
3.880137e+003,9.653170e-003
3.882066e+003,9.753157e-003
3.883994e+003,9.761799e-003
3.885923e+003,9.644294e-003
3.887851e+003,9.680036e-003
3.889780e+003,9.532003e-003
3.891708e+003,9.471719e-003
3.893637e+003,9.710734e-003
3.895565e+003,9.898250e-003
3.897494e+003,9.855711e-003
3.899422e+003,9.946252e-003
3.901351e+003,9.980529e-003
3.903279e+003,9.706872e-003
3.905208e+003,9.660996e-003
3.907136e+003,9.800737e-003
3.909065e+003,9.883810e-003
3.910993e+003,9.639416e-003
3.912922e+003,9.795484e-003
3.914850e+003,9.843306e-003
3.916779e+003,9.631759e-003
3.918707e+003,9.413679e-003
3.920636e+003,9.623832e-003
3.922564e+003,9.997922e-003
3.924493e+003,9.875269e-003
3.926421e+003,9.787012e-003
3.928350e+003,9.731471e-003
3.930278e+003,9.873438e-003
3.932207e+003,9.897335e-003
3.934135e+003,9.815412e-003
3.936064e+003,9.891165e-003
3.937992e+003,9.835544e-003
3.939921e+003,9.649410e-003
3.941849e+003,9.589314e-003
3.943778e+003,9.664350e-003
3.945706e+003,9.574816e-003
3.947635e+003,9.879607e-003
3.949563e+003,1.017003e-002
3.951492e+003,9.950694e-003
3.953420e+003,9.870388e-003
3.955349e+003,1.002868e-002
3.957277e+003,1.004251e-002
3.959206e+003,9.982325e-003
3.961134e+003,9.898623e-003
3.963063e+003,1.008958e-002
3.964991e+003,1.013726e-002
3.966920e+003,9.868015e-003
3.968848e+003,9.960762e-003
3.970777e+003,1.000074e-002
3.972705e+003,9.942286e-003
3.974634e+003,1.005536e-002
3.976562e+003,1.011769e-002
3.978491e+003,1.011535e-002
3.980419e+003,1.018268e-002
3.982348e+003,1.017013e-002
3.984276e+003,9.973578e-003
3.986205e+003,1.010386e-002
3.988133e+003,1.011729e-002
3.990062e+003,9.976596e-003
3.991990e+003,9.785318e-003
3.993919e+003,9.901301e-003
3.995847e+003,1.007930e-002
3.997776e+003,1.006852e-002
3.999704e+003,1.007564e-002
4.001633e+003,0.000000e+000
