3.991989e+002,-1.702894e-003
4.011274e+002,-6.191188e-003
4.030559e+002,1.890662e-003
4.049844e+002,5.295865e-003
4.069129e+002,1.813829e-003
4.088414e+002,-2.659034e-003
4.107699e+002,-2.289052e-003
4.126984e+002,-1.206258e-003
4.146269e+002,-7.296278e-004
4.165554e+002,1.065970e-003
4.184839e+002,2.136328e-003
4.204124e+002,8.980319e-004
4.223409e+002,1.931364e-003
4.242694e+002,3.183829e-003
4.261979e+002,1.198553e-003
4.281264e+002,5.035980e-004
4.300549e+002,3.913213e-003
4.319834e+002,6.092445e-003
4.339119e+002,5.494034e-003
4.358404e+002,5.763975e-003
4.377689e+002,8.248628e-003
4.396974e+002,6.932639e-003
4.416259e+002,4.388870e-003
4.435544e+002,4.833587e-003
4.454829e+002,2.856082e-003
4.474114e+002,3.474346e-003
4.493399e+002,2.534981e-003
4.512684e+002,2.862319e-003
4.531969e+002,4.308180e-003
4.551254e+002,3.140206e-003
4.570539e+002,2.130601e-003
4.589824e+002,3.766128e-003
4.609109e+002,5.156493e-003
4.628394e+002,6.332700e-003
4.647679e+002,2.402822e-003
4.666964e+002,2.919427e-004
4.686249e+002,1.693997e-003
4.705533e+002,-2.072089e-003
4.724819e+002,-4.312057e-003
4.744103e+002,-2.375893e-003
4.763389e+002,-1.669130e-003
4.782673e+002,-1.169616e-005
4.801959e+002,2.237930e-003
4.821243e+002,3.826560e-003
4.840529e+002,2.166729e-003
4.859813e+002,1.515442e-003
4.879099e+002,3.937114e-004
4.898383e+002,-1.128106e-003
4.917668e+002,1.916321e-003
4.936953e+002,4.347636e-003
4.956238e+002,2.297317e-003
4.975523e+002,6.617599e-004
4.994808e+002,9.654385e-004
5.014093e+002,-6.185684e-005
5.033378e+002,-2.714092e-003
5.052663e+002,-2.654819e-003
5.071948e+002,-1.173776e-003
5.091233e+002,-1.090694e-003
5.110518e+002,-2.208821e-003
5.129803e+002,-2.362085e-003
5.149088e+002,-3.662458e-003
5.168373e+002,-4.577119e-003
5.187658e+002,-4.637115e-003
5.206943e+002,-4.040070e-003
5.226228e+002,-3.950804e-003
5.245513e+002,-5.194152e-003
5.264798e+002,-5.655510e-003
5.284083e+002,-5.012669e-003
5.303368e+002,-4.736171e-003
5.322653e+002,-4.012822e-003
5.341938e+002,-3.440263e-003
5.361223e+002,-3.848809e-003
5.380508e+002,-3.047291e-003
5.399792e+002,-2.288789e-003
5.419078e+002,-3.031629e-003
5.438363e+002,-3.346402e-003
5.457648e+002,-2.418829e-003
5.476932e+002,-1.061939e-003
5.496218e+002,-1.569899e-003
5.515503e+002,-2.481924e-003
5.534788e+002,-3.115525e-003
5.554072e+002,-3.627827e-003
5.573358e+002,-3.273863e-003
5.592643e+002,-2.073178e-003
5.611927e+002,-2.052765e-003
5.631212e+002,-2.766971e-003
5.650497e+002,-3.043343e-003
5.669783e+002,-2.129893e-003
5.689067e+002,-1.638168e-003
5.708352e+002,-3.586259e-003
5.727637e+002,-3.703165e-003
5.746923e+002,-2.183469e-003
5.766207e+002,1.387781e-003
5.785492e+002,1.433223e-003
5.804777e+002,-1.044487e-002
5.824063e+002,-1.033892e-002
5.843347e+002,-5.631831e-003
5.862632e+002,-6.201346e-003
5.881917e+002,-5.387996e-003
5.901202e+002,-3.623851e-003
5.920487e+002,-3.305399e-003
5.939772e+002,-2.088930e-004
5.959057e+002,1.503173e-003
5.978342e+002,-1.013282e-003
5.997627e+002,-1.759427e-003
6.016912e+002,-1.272337e-003
6.036197e+002,-1.452253e-003
6.055482e+002,-1.675401e-003
6.074767e+002,-1.155932e-003
6.094052e+002,3.172417e-004
6.113337e+002,1.256403e-003
6.132622e+002,1.750116e-003
6.151907e+002,1.767848e-003
6.171192e+002,2.032952e-003
6.190477e+002,1.549025e-003
6.209762e+002,3.598190e-004
6.229047e+002,-1.210652e-003
6.248332e+002,-2.926259e-003
6.267617e+002,-3.973590e-003
6.286902e+002,-4.167520e-003
6.306187e+002,-4.307234e-003
6.325472e+002,-4.182024e-003
6.344756e+002,-4.429718e-003
6.364042e+002,-3.771427e-003
6.383326e+002,-3.219533e-003
6.402612e+002,-3.626545e-003
6.421896e+002,-3.568908e-003
6.441182e+002,-2.551169e-003
6.460466e+002,-2.227875e-003
6.479752e+002,-2.339379e-003
6.499036e+002,-2.797260e-003
6.518322e+002,-3.136118e-003
6.537606e+002,-2.394577e-003
6.556891e+002,-2.265485e-003
6.576177e+002,-2.631239e-003
6.595461e+002,-2.887586e-003
6.614746e+002,-2.896802e-003
6.634031e+002,-2.348014e-003
6.653317e+002,-2.007319e-003
6.672601e+002,-1.131444e-003
6.691886e+002,-8.448247e-004
6.711171e+002,-9.924226e-004
6.730457e+002,-9.820751e-004
6.749741e+002,-1.112639e-003
6.769026e+002,-9.732152e-004
6.788311e+002,-7.680964e-004
6.807596e+002,-2.864487e-004
6.826881e+002,-1.223799e-004
6.846166e+002,-1.899159e-004
6.865451e+002,-1.398587e-003
6.884736e+002,-2.336446e-003
6.904021e+002,3.828006e-004
6.923306e+002,1.489375e-003
6.942591e+002,7.374606e-004
6.961876e+002,5.686173e-005
6.981161e+002,-2.492621e-004
7.000446e+002,-7.909178e-004
7.019731e+002,-1.045875e-003
7.039016e+002,-1.003365e-003
7.058301e+002,-1.211214e-003
7.077585e+002,-1.405291e-003
7.096871e+002,-1.299823e-003
7.116156e+002,-9.653138e-004
7.135441e+002,-8.003438e-004
7.154725e+002,-1.695567e-003
7.174011e+002,-2.486569e-003
7.193296e+002,-2.381067e-003
7.212581e+002,-2.196953e-003
7.231865e+002,-1.515422e-003
7.251151e+002,-1.533120e-003
7.270436e+002,-1.546525e-003
7.289720e+002,-1.236424e-003
7.309005e+002,-1.669229e-003
7.328290e+002,-1.702234e-003
7.347576e+002,-1.713786e-003
7.366860e+002,-1.460211e-003
7.386145e+002,-1.339595e-003
7.405430e+002,-1.118687e-003
7.424716e+002,-7.238391e-004
7.444000e+002,-6.313738e-004
7.463285e+002,-3.782260e-004
7.482570e+002,3.441008e-004
7.501855e+002,6.379009e-004
7.521140e+002,8.707735e-004
7.540425e+002,1.037406e-003
7.559710e+002,1.460417e-003
7.578995e+002,1.640479e-003
7.598280e+002,1.888799e-003
7.617565e+002,2.036347e-003
7.636850e+002,2.363009e-003
7.656135e+002,2.659312e-003
7.675420e+002,2.856882e-003
7.694705e+002,3.023478e-003
7.713990e+002,3.240308e-003
7.733275e+002,3.051539e-003
7.752560e+002,3.147582e-003
7.771844e+002,3.164870e-003
7.791130e+002,2.985009e-003
7.810415e+002,3.100092e-003
7.829700e+002,3.164737e-003
7.848984e+002,3.402676e-003
7.868270e+002,3.594704e-003
7.887555e+002,2.795451e-003
7.906840e+002,1.885438e-003
7.926124e+002,1.956892e-003
7.945410e+002,2.205126e-003
7.964695e+002,1.850996e-003
7.983979e+002,1.907435e-003
8.003264e+002,2.228105e-003
8.022549e+002,2.496989e-003
8.041835e+002,2.400157e-003
8.061119e+002,1.974133e-003
8.080404e+002,1.749052e-003
8.099689e+002,1.620491e-003
8.118975e+002,1.115763e-003
8.138259e+002,1.152339e-003
8.157545e+002,1.459785e-003
8.176830e+002,1.295284e-003
8.196115e+002,1.502042e-003
8.215399e+002,1.646632e-003
8.234684e+002,1.513281e-003
8.253970e+002,1.368469e-003
8.273254e+002,1.741666e-003
8.292539e+002,2.109890e-003
8.311824e+002,2.036747e-003
8.331110e+002,2.248255e-003
8.350394e+002,2.381000e-003
8.369679e+002,2.066908e-003
8.388964e+002,1.994870e-003
8.408250e+002,2.094375e-003
8.427534e+002,2.190806e-003
8.446819e+002,2.124774e-003
8.466104e+002,1.720476e-003
8.485389e+002,1.697257e-003
8.504674e+002,1.673806e-003
8.523959e+002,1.315357e-003
8.543244e+002,1.056437e-003
8.562529e+002,1.080718e-003
8.581814e+002,1.374618e-003
8.601099e+002,1.653983e-003
8.620384e+002,1.449113e-003
8.639669e+002,1.143402e-003
8.658954e+002,8.922215e-004
8.678239e+002,1.067730e-003
8.697524e+002,1.066402e-003
8.716809e+002,6.141759e-004
8.736094e+002,5.227720e-004
8.755378e+002,8.248264e-004
8.774664e+002,9.938653e-004
8.793949e+002,1.215333e-003
8.813234e+002,1.200713e-003
8.832518e+002,1.503106e-003
8.851804e+002,1.500513e-003
8.871089e+002,1.200314e-003
8.890374e+002,1.191908e-003
8.909658e+002,1.532366e-003
8.928943e+002,1.302794e-003
8.948229e+002,1.372159e-003
8.967513e+002,1.643306e-003
8.986798e+002,1.921080e-003
9.006083e+002,2.050096e-003
9.025369e+002,2.298617e-003
9.044653e+002,2.113420e-003
9.063938e+002,1.686147e-003
9.083223e+002,1.611279e-003
9.102509e+002,1.753343e-003
9.121793e+002,1.516240e-003
9.141078e+002,9.801830e-004
9.160364e+002,8.335905e-004
9.179648e+002,8.945457e-004
9.198933e+002,5.762518e-004
9.218218e+002,1.522445e-004
9.237504e+002,-1.145955e-004
9.256788e+002,-3.514430e-004
9.276073e+002,-7.488460e-004
9.295358e+002,-9.303344e-004
9.314644e+002,-1.024290e-003
9.333928e+002,-1.064352e-003
9.353213e+002,-1.170538e-003
9.372498e+002,-1.494059e-003
9.391783e+002,-1.992642e-003
9.411068e+002,-1.877650e-003
9.430353e+002,-1.928091e-003
9.449637e+002,-2.041519e-003
9.468923e+002,-2.309355e-003
9.488208e+002,-2.444661e-003
9.507493e+002,-2.504523e-003
9.526777e+002,-2.550609e-003
9.546063e+002,-2.490621e-003
9.565348e+002,-2.261860e-003
9.584633e+002,-2.460608e-003
9.603917e+002,-2.579991e-003
9.623203e+002,-2.708462e-003
9.642488e+002,-2.891042e-003
9.661772e+002,-2.639900e-003
9.681057e+002,-2.462321e-003
9.700343e+002,-2.473786e-003
9.719628e+002,-2.456753e-003
9.738912e+002,-2.683897e-003
9.758197e+002,-2.428714e-003
9.777483e+002,-2.304906e-003
9.796768e+002,-2.585919e-003
9.816052e+002,-2.732597e-003
9.835337e+002,-2.613586e-003
9.854623e+002,-2.624751e-003
9.873907e+002,-2.754427e-003
9.893192e+002,-2.682349e-003
9.912477e+002,-2.488842e-003
9.931763e+002,-2.345542e-003
9.951047e+002,-2.179447e-003
9.970332e+002,-2.328207e-003
9.989617e+002,-2.353418e-003
1.000890e+003,-2.230347e-003
1.002819e+003,-2.198931e-003
1.004747e+003,-2.203612e-003
1.006676e+003,-1.827072e-003
1.008604e+003,-1.383691e-003
1.010533e+003,-1.168621e-003
1.012461e+003,-9.882241e-004
1.014390e+003,-9.568833e-004
1.016318e+003,-6.440455e-004
1.018247e+003,-4.521436e-004
1.020175e+003,-4.417171e-004
1.022104e+003,-1.258911e-004
1.024032e+003,3.778261e-004
1.025961e+003,8.162616e-004
1.027889e+003,9.480048e-004
1.029818e+003,1.088723e-003
1.031746e+003,1.382762e-003
1.033675e+003,1.562327e-003
1.035603e+003,1.610514e-003
1.037532e+003,2.041607e-003
1.039460e+003,2.372771e-003
1.041389e+003,2.420248e-003
1.043317e+003,2.439440e-003
1.045246e+003,2.461899e-003
1.047174e+003,2.597309e-003
1.049103e+003,2.601976e-003
1.051031e+003,2.471496e-003
1.052960e+003,2.374070e-003
1.054888e+003,2.259679e-003
1.056817e+003,2.290122e-003
1.058745e+003,2.281229e-003
1.060674e+003,2.068473e-003
1.062602e+003,1.934426e-003
1.064531e+003,1.776665e-003
1.066459e+003,1.713390e-003
1.068388e+003,2.136827e-003
1.070316e+003,2.321934e-003
1.072245e+003,2.167562e-003
1.074173e+003,2.360677e-003
1.076102e+003,2.438274e-003
1.078030e+003,2.419415e-003
1.079959e+003,2.575710e-003
1.081887e+003,2.473795e-003
1.083816e+003,2.376335e-003
1.085744e+003,2.289589e-003
1.087673e+003,2.211220e-003
1.089601e+003,2.230603e-003
1.091530e+003,2.408120e-003
1.093458e+003,2.409053e-003
1.095387e+003,2.198232e-003
1.097315e+003,2.097172e-003
1.099244e+003,1.981256e-003
1.101172e+003,1.729291e-003
1.103101e+003,1.787378e-003
1.105029e+003,1.983553e-003
1.106958e+003,2.245990e-003
1.108886e+003,2.166729e-003
1.110815e+003,1.986881e-003
1.112743e+003,1.927037e-003
1.114672e+003,1.989078e-003
1.116600e+003,2.158005e-003
1.118529e+003,2.245757e-003
1.120457e+003,2.176220e-003
1.122386e+003,2.169393e-003
1.124314e+003,2.131167e-003
1.126243e+003,1.867534e-003
1.128171e+003,1.765120e-003
1.130100e+003,1.953297e-003
1.132028e+003,2.005189e-003
1.133957e+003,1.799422e-003
1.135885e+003,1.348892e-003
1.137814e+003,9.935000e-004
1.139742e+003,8.371094e-004
1.141671e+003,2.848142e-004
1.143599e+003,-3.164804e-004
1.145528e+003,-6.398438e-004
1.147456e+003,-9.098678e-004
1.149385e+003,-1.210190e-003
1.151313e+003,-1.535431e-003
1.153242e+003,-1.975095e-003
1.155170e+003,-2.150203e-003
1.157099e+003,-2.197184e-003
1.159027e+003,-2.414381e-003
1.160956e+003,-2.514604e-003
1.162884e+003,-2.461036e-003
1.164813e+003,-2.437050e-003
1.166741e+003,-2.579727e-003
1.168670e+003,-2.663447e-003
1.170598e+003,-2.440180e-003
1.172526e+003,-2.160325e-003
1.174455e+003,-2.079971e-003
1.176384e+003,-1.956096e-003
1.178312e+003,-2.074299e-003
1.180240e+003,-2.260673e-003
1.182169e+003,-2.170183e-003
1.184098e+003,-2.017774e-003
1.186026e+003,-2.042707e-003
1.187954e+003,-2.030801e-003
1.189883e+003,-2.117166e-003
1.191812e+003,-2.211920e-003
1.193740e+003,-2.231468e-003
1.195668e+003,-2.138301e-003
1.197597e+003,-2.152083e-003
1.199526e+003,-2.241060e-003
1.201454e+003,-2.280450e-003
1.203382e+003,-2.160094e-003
1.205311e+003,-1.960153e-003
1.207240e+003,-1.829118e-003
1.209168e+003,-1.798597e-003
1.211096e+003,-1.651900e-003
1.213025e+003,-1.523049e-003
1.214953e+003,-1.489403e-003
1.216882e+003,-1.464009e-003
1.218810e+003,-1.478638e-003
1.220739e+003,-1.474906e-003
1.222667e+003,-1.378571e-003
1.224596e+003,-1.246964e-003
1.226524e+003,-1.120241e-003
1.228453e+003,-1.027595e-003
1.230381e+003,-9.509323e-004
1.232310e+003,-9.837281e-004
1.234238e+003,-9.738764e-004
1.236167e+003,-9.378066e-004
1.238095e+003,-8.960135e-004
1.240024e+003,-9.889514e-004
1.241952e+003,-1.227437e-003
1.243881e+003,-1.486101e-003
1.245809e+003,-1.708835e-003
1.247738e+003,-1.844493e-003
1.249666e+003,-1.972225e-003
1.251595e+003,-2.176216e-003
1.253523e+003,-2.371609e-003
1.255452e+003,-2.591782e-003
1.257380e+003,-2.800190e-003
1.259309e+003,-2.907960e-003
1.261237e+003,-3.091904e-003
1.263166e+003,-3.269029e-003
1.265094e+003,-3.299546e-003
1.267023e+003,-3.307964e-003
1.268951e+003,-3.280276e-003
1.270880e+003,-3.213285e-003
1.272808e+003,-3.292805e-003
1.274737e+003,-3.511164e-003
1.276665e+003,-3.658811e-003
1.278594e+003,-3.630094e-003
1.280522e+003,-3.678196e-003
1.282451e+003,-3.771986e-003
1.284379e+003,-3.867594e-003
1.286308e+003,-3.771986e-003
1.288236e+003,-3.726555e-003
1.290165e+003,-3.757368e-003
1.292093e+003,-3.767715e-003
1.294022e+003,-3.895310e-003
1.295950e+003,-3.947947e-003
1.297879e+003,-3.950541e-003
1.299807e+003,-4.049032e-003
1.301736e+003,-3.991745e-003
1.303664e+003,-4.044830e-003
1.305593e+003,-4.164861e-003
1.307521e+003,-4.169817e-003
1.309450e+003,-4.265699e-003
1.311378e+003,-4.454119e-003
1.313307e+003,-4.470517e-003
1.315235e+003,-4.416599e-003
1.317164e+003,-4.401118e-003
1.319092e+003,-4.390097e-003
1.321021e+003,-4.330887e-003
1.322949e+003,-4.091245e-003
1.324878e+003,-3.831468e-003
1.326806e+003,-3.665842e-003
1.328735e+003,-3.492232e-003
1.330663e+003,-3.329863e-003
1.332592e+003,-3.311318e-003
1.334520e+003,-3.296257e-003
1.336449e+003,-3.371324e-003
1.338377e+003,-3.455976e-003
1.340306e+003,-3.352715e-003
1.342234e+003,-3.221375e-003
1.344163e+003,-3.215324e-003
1.346091e+003,-3.422545e-003
1.348020e+003,-3.525921e-003
1.349948e+003,-3.556847e-003
1.351877e+003,-3.624311e-003
1.353805e+003,-3.641791e-003
1.355734e+003,-3.653061e-003
1.357662e+003,-3.710754e-003
1.359591e+003,-3.802533e-003
1.361519e+003,-3.928640e-003
1.363448e+003,-4.194691e-003
1.365376e+003,-4.487209e-003
1.367305e+003,-4.822491e-003
1.369233e+003,-5.009917e-003
1.371162e+003,-5.042080e-003
1.373090e+003,-5.212257e-003
1.375019e+003,-5.533240e-003
1.376947e+003,-5.721112e-003
1.378876e+003,-5.776961e-003
1.380804e+003,-5.839471e-003
1.382733e+003,-5.938254e-003
1.384661e+003,-5.970119e-003
1.386590e+003,-5.860197e-003
1.388518e+003,-6.021427e-003
1.390447e+003,-6.219344e-003
1.392375e+003,-6.184850e-003
1.394304e+003,-6.124971e-003
1.396232e+003,-6.167374e-003
1.398161e+003,-6.281758e-003
1.400089e+003,-6.482266e-003
1.402018e+003,-6.622446e-003
1.403946e+003,-6.562071e-003
1.405875e+003,-6.593630e-003
1.407803e+003,-6.568599e-003
1.409732e+003,-6.483898e-003
1.411660e+003,-6.402838e-003
1.413589e+003,-6.246094e-003
1.415517e+003,-6.024760e-003
1.417446e+003,-5.687429e-003
1.419374e+003,-5.310462e-003
1.421303e+003,-5.304832e-003
1.423231e+003,-5.073816e-003
1.425160e+003,-4.745021e-003
1.427088e+003,-4.435753e-003
1.429017e+003,-3.909857e-003
1.430945e+003,-3.438455e-003
1.432874e+003,-3.047455e-003
1.434802e+003,-2.446836e-003
1.436731e+003,-1.864289e-003
1.438659e+003,-1.821595e-003
1.440588e+003,-1.704644e-003
1.442516e+003,-1.455192e-003
1.444445e+003,-1.253208e-003
1.446373e+003,-9.869348e-004
1.448302e+003,-7.474237e-004
1.450230e+003,-6.842088e-004
1.452159e+003,-6.027205e-004
1.454087e+003,-4.969912e-004
1.456016e+003,-5.427017e-005
1.457944e+003,-4.959882e-005
1.459873e+003,-6.209848e-004
1.461801e+003,-9.978440e-004
1.463730e+003,-1.124471e-003
1.465658e+003,-1.456447e-003
1.467587e+003,-1.896818e-003
1.469515e+003,-2.181425e-003
1.471444e+003,-2.165798e-003
1.473372e+003,-2.318452e-003
1.475301e+003,-2.658968e-003
1.477229e+003,-3.104208e-003
1.479158e+003,-3.624607e-003
1.481086e+003,-4.035310e-003
1.483015e+003,-4.412860e-003
1.484943e+003,-4.640950e-003
1.486872e+003,-4.693497e-003
1.488800e+003,-4.697135e-003
1.490729e+003,-4.786084e-003
1.492657e+003,-5.043685e-003
1.494586e+003,-5.053183e-003
1.496514e+003,-4.944798e-003
1.498443e+003,-5.034711e-003
1.500371e+003,-5.273245e-003
1.502300e+003,-5.389698e-003
1.504228e+003,-5.052004e-003
1.506157e+003,-4.356803e-003
1.508085e+003,-4.664815e-003
1.510014e+003,-5.239986e-003
1.511942e+003,-5.236156e-003
1.513871e+003,-5.247319e-003
1.515799e+003,-5.094251e-003
1.517728e+003,-4.944896e-003
1.519656e+003,-4.840677e-003
1.521585e+003,-4.631804e-003
1.523513e+003,-4.904961e-003
1.525442e+003,-4.937951e-003
1.527370e+003,-4.829569e-003
1.529299e+003,-4.947811e-003
1.531227e+003,-4.931497e-003
1.533156e+003,-4.587119e-003
1.535084e+003,-4.661537e-003
1.537013e+003,-4.562726e-003
1.538941e+003,-3.811959e-003
1.540870e+003,-3.539790e-003
1.542798e+003,-3.876888e-003
1.544727e+003,-4.044469e-003
1.546655e+003,-4.263894e-003
1.548584e+003,-4.349455e-003
1.550512e+003,-4.341254e-003
1.552441e+003,-4.259071e-003
1.554369e+003,-4.113466e-003
1.556298e+003,-3.864770e-003
1.558226e+003,-3.184340e-003
1.560155e+003,-3.328942e-003
1.562083e+003,-3.943153e-003
1.564012e+003,-3.830122e-003
1.565940e+003,-3.499791e-003
1.567869e+003,-3.130263e-003
1.569797e+003,-2.961111e-003
1.571726e+003,-3.125032e-003
1.573654e+003,-2.967561e-003
1.575583e+003,-2.580748e-003
1.577511e+003,-2.680472e-003
1.579440e+003,-2.898185e-003
1.581368e+003,-2.852827e-003
1.583297e+003,-2.707968e-003
1.585225e+003,-2.569285e-003
1.587154e+003,-2.596393e-003
1.589082e+003,-2.602980e-003
1.591010e+003,-2.659660e-003
1.592939e+003,-2.782807e-003
1.594868e+003,-2.836994e-003
1.596796e+003,-2.836665e-003
1.598724e+003,-2.912798e-003
1.600653e+003,-3.076441e-003
1.602582e+003,-3.310989e-003
1.604510e+003,-3.445490e-003
1.606438e+003,-3.447134e-003
1.608367e+003,-3.512150e-003
1.610296e+003,-3.689958e-003
1.612224e+003,-3.947323e-003
1.614152e+003,-4.158626e-003
1.616081e+003,-3.996933e-003
1.618010e+003,-4.183042e-003
1.619938e+003,-4.571087e-003
1.621866e+003,-4.639213e-003
1.623795e+003,-4.839498e-003
1.625724e+003,-5.119368e-003
1.627652e+003,-5.197525e-003
1.629580e+003,-5.342734e-003
1.631509e+003,-5.521692e-003
1.633438e+003,-5.489793e-003
1.635366e+003,-5.419902e-003
1.637294e+003,-5.946686e-003
1.639223e+003,-6.331265e-003
1.641151e+003,-6.459187e-003
1.643080e+003,-6.515463e-003
1.645008e+003,-6.442570e-003
1.646937e+003,-6.524733e-003
1.648865e+003,-6.909127e-003
1.650794e+003,-6.829418e-003
1.652722e+003,-6.201542e-003
1.654651e+003,-6.851695e-003
1.656579e+003,-7.559915e-003
1.658508e+003,-7.754952e-003
1.660436e+003,-7.709383e-003
1.662365e+003,-7.549690e-003
1.664293e+003,-7.661465e-003
1.666222e+003,-7.711628e-003
1.668150e+003,-7.298850e-003
1.670079e+003,-7.042453e-003
1.672007e+003,-7.231368e-003
1.673936e+003,-7.094742e-003
1.675864e+003,-6.855641e-003
1.677793e+003,-7.076976e-003
1.679721e+003,-6.914671e-003
1.681650e+003,-6.332212e-003
1.683578e+003,-5.648838e-003
1.685507e+003,-5.601739e-003
1.687435e+003,-5.730758e-003
1.689364e+003,-5.700837e-003
1.691292e+003,-5.540699e-003
1.693221e+003,-5.278155e-003
1.695149e+003,-4.772484e-003
1.697078e+003,-4.691268e-003
1.699006e+003,-4.396264e-003
1.700935e+003,-4.217760e-003
1.702863e+003,-4.739121e-003
1.704792e+003,-4.718702e-003
1.706720e+003,-4.702969e-003
1.708649e+003,-4.768748e-003
1.710577e+003,-4.937164e-003
1.712506e+003,-5.154044e-003
1.714434e+003,-4.957344e-003
1.716363e+003,-4.489669e-003
1.718291e+003,-4.543971e-003
1.720220e+003,-5.049417e-003
1.722148e+003,-5.204433e-003
1.724077e+003,-5.244798e-003
1.726005e+003,-5.361389e-003
1.727934e+003,-5.409365e-003
1.729862e+003,-5.358837e-003
1.731791e+003,-5.127325e-003
1.733719e+003,-4.661898e-003
1.735648e+003,-4.927861e-003
1.737576e+003,-5.190485e-003
1.739505e+003,-5.068707e-003
1.741433e+003,-5.029798e-003
1.743362e+003,-4.950432e-003
1.745290e+003,-4.908663e-003
1.747219e+003,-4.784675e-003
1.749147e+003,-4.525937e-003
1.751076e+003,-4.385997e-003
1.753004e+003,-4.589578e-003
1.754933e+003,-4.531544e-003
1.756861e+003,-4.499933e-003
1.758790e+003,-4.550430e-003
1.760718e+003,-4.352932e-003
1.762647e+003,-4.306152e-003
1.764575e+003,-4.450151e-003
1.766504e+003,-4.516558e-003
1.768432e+003,-4.541643e-003
1.770361e+003,-4.292832e-003
1.772289e+003,-3.905457e-003
1.774218e+003,-3.978777e-003
1.776146e+003,-4.241090e-003
1.778075e+003,-4.373401e-003
1.780003e+003,-4.321046e-003
1.781932e+003,-4.305332e-003
1.783860e+003,-4.208901e-003
1.785789e+003,-3.985376e-003
1.787717e+003,-4.054382e-003
1.789646e+003,-4.102962e-003
1.791574e+003,-3.877906e-003
1.793503e+003,-3.972769e-003
1.795431e+003,-4.184781e-003
1.797360e+003,-4.167716e-003
1.799288e+003,-4.085500e-003
1.801217e+003,-4.020209e-003
1.803145e+003,-4.090391e-003
1.805074e+003,-4.205422e-003
1.807002e+003,-4.186422e-003
1.808931e+003,-4.149010e-003
1.810859e+003,-4.189671e-003
1.812788e+003,-4.279380e-003
1.814716e+003,-4.343156e-003
1.816645e+003,-4.334529e-003
1.818573e+003,-4.354212e-003
1.820502e+003,-4.344797e-003
1.822430e+003,-4.306709e-003
1.824359e+003,-4.279446e-003
1.826287e+003,-4.349717e-003
1.828216e+003,-4.359952e-003
1.830144e+003,-4.384521e-003
1.832073e+003,-4.502622e-003
1.834001e+003,-4.563742e-003
1.835930e+003,-4.594037e-003
1.837858e+003,-4.598856e-003
1.839787e+003,-4.515804e-003
1.841715e+003,-4.406760e-003
1.843644e+003,-4.252377e-003
1.845572e+003,-4.407842e-003
1.847501e+003,-4.530363e-003
1.849429e+003,-4.474977e-003
1.851358e+003,-4.519608e-003
1.853286e+003,-4.549480e-003
1.855215e+003,-4.531445e-003
1.857143e+003,-4.551054e-003
1.859072e+003,-4.622526e-003
1.861000e+003,-4.616101e-003
1.862929e+003,-4.517378e-003
1.864857e+003,-4.363462e-003
1.866786e+003,-4.309629e-003
1.868714e+003,-4.287287e-003
1.870643e+003,-4.357918e-003
1.872571e+003,-4.439295e-003
1.874500e+003,-4.485537e-003
1.876428e+003,-4.409580e-003
1.878357e+003,-4.376124e-003
1.880285e+003,-4.431293e-003
1.882214e+003,-4.455333e-003
1.884142e+003,-4.415385e-003
1.886071e+003,-4.329838e-003
1.887999e+003,-4.274721e-003
1.889928e+003,-4.285483e-003
1.891856e+003,-4.359722e-003
1.893785e+003,-4.364577e-003
1.895713e+003,-4.281447e-003
1.897642e+003,-4.202797e-003
1.899570e+003,-4.254051e-003
1.901499e+003,-4.250409e-003
1.903427e+003,-4.183304e-003
1.905356e+003,-4.182681e-003
1.907284e+003,-4.228326e-003
1.909213e+003,-4.222321e-003
1.911141e+003,-4.278363e-003
1.913070e+003,-4.259563e-003
1.914998e+003,-4.195807e-003
1.916927e+003,-4.060225e-003
1.918855e+003,-4.155508e-003
1.920784e+003,-4.287451e-003
1.922712e+003,-4.226849e-003
1.924641e+003,-4.184223e-003
1.926569e+003,-4.135062e-003
1.928498e+003,-4.202075e-003
1.930426e+003,-4.303888e-003
1.932355e+003,-4.246767e-003
1.934283e+003,-4.274524e-003
1.936212e+003,-4.424897e-003
1.938140e+003,-4.476191e-003
1.940069e+003,-4.418042e-003
1.941997e+003,-4.305430e-003
1.943926e+003,-4.344698e-003
1.945854e+003,-4.483930e-003
1.947783e+003,-4.559185e-003
1.949711e+003,-4.533905e-003
1.951640e+003,-4.540758e-003
1.953568e+003,-4.593578e-003
1.955497e+003,-4.626166e-003
1.957425e+003,-4.670552e-003
1.959354e+003,-4.668618e-003
1.961282e+003,-4.610233e-003
1.963211e+003,-4.646949e-003
1.965139e+003,-4.665995e-003
1.967068e+003,-4.758654e-003
1.968996e+003,-4.819116e-003
1.970925e+003,-4.805025e-003
1.972853e+003,-4.790246e-003
1.974782e+003,-4.738629e-003
1.976710e+003,-4.676812e-003
1.978639e+003,-4.623281e-003
1.980567e+003,-4.655604e-003
1.982496e+003,-4.682647e-003
1.984424e+003,-4.614724e-003
1.986353e+003,-4.520067e-003
1.988281e+003,-4.490751e-003
1.990210e+003,-4.505901e-003
1.992138e+003,-4.559972e-003
1.994067e+003,-4.543479e-003
1.995995e+003,-4.484487e-003
1.997924e+003,-4.450020e-003
1.999852e+003,-4.479732e-003
2.001781e+003,-4.503966e-003
2.003709e+003,-4.448216e-003
2.005638e+003,-4.393213e-003
2.007566e+003,-4.448052e-003
2.009495e+003,-4.539512e-003
2.011423e+003,-4.492587e-003
2.013352e+003,-4.420535e-003
2.015280e+003,-4.480847e-003
2.017208e+003,-4.497768e-003
2.019137e+003,-4.446117e-003
2.021066e+003,-4.475174e-003
2.022994e+003,-4.517083e-003
2.024922e+003,-4.518100e-003
2.026851e+003,-4.536462e-003
2.028780e+003,-4.489308e-003
2.030708e+003,-4.443952e-003
2.032636e+003,-4.524527e-003
2.034565e+003,-4.559251e-003
2.036494e+003,-4.487766e-003
2.038422e+003,-4.504589e-003
2.040350e+003,-4.582366e-003
2.042279e+003,-4.656259e-003
2.044208e+003,-4.633935e-003
2.046136e+003,-4.535642e-003
2.048064e+003,-4.496031e-003
2.049993e+003,-4.583579e-003
2.051921e+003,-4.614921e-003
2.053850e+003,-4.625444e-003
2.055778e+003,-4.663143e-003
2.057707e+003,-4.629903e-003
2.059635e+003,-4.718538e-003
2.061564e+003,-4.790508e-003
2.063492e+003,-4.759735e-003
2.065421e+003,-4.712671e-003
2.067349e+003,-4.728600e-003
2.069278e+003,-4.787690e-003
2.071206e+003,-4.707886e-003
2.073135e+003,-4.668355e-003
2.075063e+003,-4.691759e-003
2.076992e+003,-4.701953e-003
2.078920e+003,-4.681270e-003
2.080849e+003,-4.612462e-003
2.082777e+003,-4.538233e-003
2.084706e+003,-4.502753e-003
2.086634e+003,-4.495604e-003
2.088563e+003,-4.547315e-003
2.090491e+003,-4.553447e-003
2.092420e+003,-4.569152e-003
2.094348e+003,-4.525084e-003
2.096277e+003,-4.476814e-003
2.098205e+003,-4.508787e-003
2.100134e+003,-4.520657e-003
2.102062e+003,-4.483405e-003
2.103991e+003,-4.474649e-003
2.105919e+003,-4.509082e-003
2.107848e+003,-4.502688e-003
2.109776e+003,-4.436573e-003
2.111705e+003,-4.284859e-003
2.113633e+003,-4.295785e-003
2.115562e+003,-4.303593e-003
2.117490e+003,-4.219204e-003
2.119419e+003,-4.240106e-003
2.121347e+003,-4.204011e-003
2.123276e+003,-4.210639e-003
2.125204e+003,-4.245027e-003
2.127133e+003,-4.217858e-003
2.129061e+003,-4.163877e-003
2.130990e+003,-4.160595e-003
2.132918e+003,-4.263041e-003
2.134847e+003,-4.292700e-003
2.136775e+003,-4.234790e-003
2.138704e+003,-4.141921e-003
2.140632e+003,-4.134799e-003
2.142561e+003,-4.142019e-003
2.144489e+003,-4.077097e-003
2.146418e+003,-4.065445e-003
2.148346e+003,-4.114811e-003
2.150275e+003,-4.167355e-003
2.152203e+003,-4.207916e-003
2.154132e+003,-4.239023e-003
2.156060e+003,-4.263763e-003
2.157989e+003,-4.280168e-003
2.159917e+003,-4.326918e-003
2.161846e+003,-4.345912e-003
2.163774e+003,-4.363855e-003
2.165703e+003,-4.327968e-003
2.167631e+003,-4.351357e-003
2.169560e+003,-4.291749e-003
2.171488e+003,-4.250573e-003
2.173417e+003,-4.347421e-003
2.175345e+003,-4.369563e-003
2.177274e+003,-4.385701e-003
2.179202e+003,-4.289321e-003
2.181131e+003,-4.260678e-003
2.183059e+003,-4.310351e-003
2.184988e+003,-4.378879e-003
2.186916e+003,-4.394623e-003
2.188845e+003,-4.325737e-003
2.190773e+003,-4.280988e-003
2.192702e+003,-4.183140e-003
2.194630e+003,-4.211001e-003
2.196559e+003,-4.274721e-003
2.198487e+003,-4.276427e-003
2.200416e+003,-4.268914e-003
2.202344e+003,-4.211197e-003
2.204273e+003,-4.202173e-003
2.206201e+003,-4.258316e-003
2.208130e+003,-4.194954e-003
2.210058e+003,-4.169521e-003
2.211987e+003,-4.184387e-003
2.213915e+003,-4.193970e-003
2.215844e+003,-4.121670e-003
2.217772e+003,-4.077623e-003
2.219701e+003,-4.116551e-003
2.221629e+003,-4.071780e-003
2.223558e+003,-4.007603e-003
2.225486e+003,-3.991188e-003
2.227415e+003,-3.987609e-003
2.229343e+003,-4.019618e-003
2.231272e+003,-4.069876e-003
2.233200e+003,-4.055728e-003
2.235129e+003,-4.073651e-003
2.237057e+003,-3.995455e-003
2.238986e+003,-3.936094e-003
2.240914e+003,-4.007307e-003
2.242843e+003,-4.023492e-003
2.244771e+003,-3.980419e-003
2.246700e+003,-3.996211e-003
2.248628e+003,-4.116485e-003
2.250557e+003,-4.174903e-003
2.252485e+003,-4.109527e-003
2.254414e+003,-4.083301e-003
2.256342e+003,-4.157346e-003
2.258271e+003,-4.125150e-003
2.260199e+003,-4.091245e-003
2.262128e+003,-4.133552e-003
2.264056e+003,-4.174444e-003
2.265985e+003,-4.143726e-003
2.267913e+003,-4.221600e-003
2.269842e+003,-4.258021e-003
2.271770e+003,-4.237087e-003
2.273699e+003,-4.279446e-003
2.275627e+003,-4.252410e-003
2.277556e+003,-4.303888e-003
2.279484e+003,-4.364184e-003
2.281413e+003,-4.369104e-003
2.283341e+003,-4.423159e-003
2.285270e+003,-4.492587e-003
2.287198e+003,-4.524297e-003
2.289127e+003,-4.507245e-003
2.291055e+003,-4.557054e-003
2.292984e+003,-4.591840e-003
2.294912e+003,-4.515903e-003
2.296841e+003,-4.459531e-003
2.298769e+003,-4.435819e-003
2.300698e+003,-4.429095e-003
2.302626e+003,-4.434933e-003
2.304555e+003,-4.426242e-003
2.306483e+003,-4.434474e-003
2.308412e+003,-4.511705e-003
2.310340e+003,-4.460154e-003
2.312269e+003,-4.421781e-003
2.314197e+003,-4.442116e-003
2.316125e+003,-4.366578e-003
2.318054e+003,-4.213855e-003
2.319983e+003,-4.190393e-003
2.321911e+003,-4.146942e-003
2.323840e+003,-4.099319e-003
2.325768e+003,-4.011772e-003
2.327697e+003,-3.828644e-003
2.329625e+003,-3.733224e-003
2.331553e+003,-3.672446e-003
2.333482e+003,-3.656084e-003
2.335411e+003,-3.653784e-003
2.337339e+003,-3.644223e-003
2.339268e+003,-3.591484e-003
2.341196e+003,-3.677933e-003
2.343125e+003,-3.758682e-003
2.345053e+003,-3.816130e-003
2.346981e+003,-4.053266e-003
2.348910e+003,-4.298573e-003
2.350839e+003,-4.188784e-003
2.352767e+003,-3.944499e-003
2.354696e+003,-3.815868e-003
2.356624e+003,-3.781643e-003
2.358552e+003,-3.773431e-003
2.360481e+003,-3.572030e-003
2.362409e+003,-3.416989e-003
2.364338e+003,-3.503999e-003
2.366267e+003,-3.620204e-003
2.368195e+003,-3.561809e-003
2.370124e+003,-3.574067e-003
2.372052e+003,-3.762394e-003
2.373980e+003,-4.048277e-003
2.375909e+003,-4.177528e-003
2.377838e+003,-4.207161e-003
2.379766e+003,-4.207260e-003
2.381695e+003,-4.281677e-003
2.383623e+003,-4.334069e-003
2.385552e+003,-4.407645e-003
2.387480e+003,-4.407186e-003
2.389408e+003,-4.409384e-003
2.391337e+003,-4.427357e-003
2.393266e+003,-4.400199e-003
2.395194e+003,-4.359263e-003
2.397123e+003,-4.391016e-003
2.399051e+003,-4.402922e-003
2.400979e+003,-4.356475e-003
2.402908e+003,-4.367693e-003
2.404836e+003,-4.415779e-003
2.406765e+003,-4.378223e-003
2.408694e+003,-4.381240e-003
2.410622e+003,-4.434441e-003
2.412551e+003,-4.418173e-003
2.414479e+003,-4.305627e-003
2.416407e+003,-4.331380e-003
2.418336e+003,-4.376583e-003
2.420264e+003,-4.299065e-003
2.422193e+003,-4.160529e-003
2.424122e+003,-4.123673e-003
2.426050e+003,-4.160070e-003
2.427979e+003,-4.182024e-003
2.429907e+003,-4.244929e-003
2.431835e+003,-4.246373e-003
2.433764e+003,-4.163154e-003
2.435692e+003,-4.118684e-003
2.437621e+003,-4.095512e-003
2.439550e+003,-4.080085e-003
2.441478e+003,-3.993486e-003
2.443406e+003,-4.040956e-003
2.445335e+003,-4.118651e-003
2.447263e+003,-4.104636e-003
2.449192e+003,-3.957830e-003
2.451121e+003,-3.913371e-003
2.453049e+003,-3.943481e-003
2.454978e+003,-3.974115e-003
2.456906e+003,-4.051724e-003
2.458834e+003,-4.111923e-003
2.460763e+003,-4.096398e-003
2.462691e+003,-3.981043e-003
2.464620e+003,-3.962263e-003
2.466549e+003,-3.986098e-003
2.468477e+003,-3.955334e-003
2.470406e+003,-4.000051e-003
2.472334e+003,-4.047456e-003
2.474262e+003,-4.038724e-003
2.476191e+003,-4.019191e-003
2.478119e+003,-4.087667e-003
2.480048e+003,-4.127513e-003
2.481977e+003,-4.174903e-003
2.483905e+003,-4.244437e-003
2.485833e+003,-4.176281e-003
2.487762e+003,-4.063968e-003
2.489690e+003,-3.973754e-003
2.491619e+003,-3.983078e-003
2.493547e+003,-4.044600e-003
2.495476e+003,-4.061112e-003
2.497405e+003,-4.152226e-003
2.499333e+003,-4.191968e-003
2.501261e+003,-4.132501e-003
2.503190e+003,-4.118454e-003
2.505118e+003,-4.019290e-003
2.507047e+003,-3.947126e-003
2.508975e+003,-4.080478e-003
2.510904e+003,-4.067348e-003
2.512833e+003,-4.047193e-003
2.514761e+003,-4.213626e-003
2.516689e+003,-4.170014e-003
2.518618e+003,-4.035769e-003
2.520546e+003,-3.959110e-003
2.522475e+003,-3.940592e-003
2.524403e+003,-4.034424e-003
2.526332e+003,-4.071780e-003
2.528260e+003,-4.025100e-003
2.530189e+003,-3.992468e-003
2.532117e+003,-4.009145e-003
2.534046e+003,-3.984063e-003
2.535974e+003,-3.935470e-003
2.537903e+003,-3.918526e-003
2.539831e+003,-3.862668e-003
2.541760e+003,-3.868941e-003
2.543688e+003,-3.879482e-003
2.545617e+003,-3.814685e-003
2.547545e+003,-3.839121e-003
2.549474e+003,-3.890680e-003
2.551402e+003,-3.821254e-003
2.553331e+003,-3.823750e-003
2.555259e+003,-3.874523e-003
2.557188e+003,-3.786931e-003
2.559116e+003,-3.686738e-003
2.561045e+003,-3.723566e-003
2.562973e+003,-3.734505e-003
2.564902e+003,-3.602426e-003
2.566830e+003,-3.582085e-003
2.568759e+003,-3.638867e-003
2.570687e+003,-3.580607e-003
2.572616e+003,-3.590991e-003
2.574544e+003,-3.633380e-003
2.576473e+003,-3.506102e-003
2.578401e+003,-3.529766e-003
2.580330e+003,-3.681087e-003
2.582258e+003,-3.668602e-003
2.584187e+003,-3.602887e-003
2.586115e+003,-3.551227e-003
2.588044e+003,-3.602952e-003
2.589972e+003,-3.704446e-003
2.591901e+003,-3.617871e-003
2.593829e+003,-3.524015e-003
2.595758e+003,-3.516915e-003
2.597686e+003,-3.542748e-003
2.599615e+003,-3.628780e-003
2.601543e+003,-3.608341e-003
2.603472e+003,-3.528846e-003
2.605400e+003,-3.554415e-003
2.607329e+003,-3.553396e-003
2.609257e+003,-3.459296e-003
2.611186e+003,-3.439935e-003
2.613114e+003,-3.510243e-003
2.615043e+003,-3.428429e-003
2.616971e+003,-3.340812e-003
2.618900e+003,-3.372902e-003
2.620828e+003,-3.349788e-003
2.622757e+003,-3.284320e-003
2.624685e+003,-3.384771e-003
2.626614e+003,-3.385691e-003
2.628542e+003,-3.282380e-003
2.630471e+003,-3.252224e-003
2.632399e+003,-3.195688e-003
2.634328e+003,-3.165526e-003
2.636256e+003,-3.101083e-003
2.638185e+003,-3.095457e-003
2.640113e+003,-3.042421e-003
2.642042e+003,-2.984574e-003
2.643970e+003,-2.973221e-003
2.645899e+003,-2.839331e-003
2.647827e+003,-2.726539e-003
2.649756e+003,-2.683074e-003
2.651684e+003,-2.655675e-003
2.653613e+003,-2.551696e-003
2.655541e+003,-2.516515e-003
2.657470e+003,-2.635191e-003
2.659398e+003,-2.682118e-003
2.661327e+003,-2.666905e-003
2.663255e+003,-2.614310e-003
2.665184e+003,-2.476389e-003
2.667112e+003,-2.372598e-003
2.669041e+003,-2.377672e-003
2.670969e+003,-2.420213e-003
2.672898e+003,-2.365414e-003
2.674826e+003,-2.317990e-003
2.676755e+003,-2.241423e-003
2.678683e+003,-2.216436e-003
2.680612e+003,-2.171732e-003
2.682540e+003,-2.104702e-003
2.684469e+003,-2.137477e-003
2.686397e+003,-2.112484e-003
2.688326e+003,-1.937525e-003
2.690254e+003,-1.846077e-003
2.692183e+003,-1.904900e-003
2.694111e+003,-1.813148e-003
2.696040e+003,-1.708901e-003
2.697968e+003,-1.694445e-003
2.699897e+003,-1.711937e-003
2.701825e+003,-1.770878e-003
2.703754e+003,-1.791601e-003
2.705682e+003,-1.710320e-003
2.707611e+003,-1.646882e-003
2.709539e+003,-1.603639e-003
2.711468e+003,-1.546360e-003
2.713396e+003,-1.428475e-003
2.715325e+003,-1.369125e-003
2.717253e+003,-1.326283e-003
2.719182e+003,-1.190265e-003
2.721110e+003,-1.126850e-003
2.723039e+003,-1.044321e-003
2.724967e+003,-8.597058e-004
2.726896e+003,-7.368720e-004
2.728824e+003,-8.328203e-004
2.730753e+003,-7.833770e-004
2.732681e+003,-6.979376e-004
2.734610e+003,-6.688585e-004
2.736538e+003,-6.415973e-004
2.738467e+003,-5.521590e-004
2.740395e+003,-3.738892e-004
2.742324e+003,-2.007790e-004
2.744252e+003,-9.210286e-005
2.746181e+003,8.117916e-006
2.748109e+003,1.056989e-005
2.750038e+003,1.277505e-004
2.751966e+003,1.872808e-004
2.753895e+003,3.215855e-004
2.755823e+003,5.574734e-004
2.757752e+003,6.617267e-004
2.759680e+003,7.825022e-004
2.761609e+003,9.504952e-004
2.763537e+003,1.180047e-003
2.765466e+003,1.509690e-003
2.767394e+003,1.737042e-003
2.769323e+003,1.999364e-003
2.771251e+003,2.348518e-003
2.773180e+003,2.721991e-003
2.775108e+003,3.189536e-003
2.777037e+003,3.768000e-003
2.778965e+003,4.224895e-003
2.780894e+003,4.711512e-003
2.782822e+003,5.222652e-003
2.784750e+003,5.755043e-003
2.786679e+003,6.285633e-003
2.788608e+003,6.725635e-003
2.790536e+003,7.294611e-003
2.792465e+003,7.950918e-003
2.794393e+003,8.448217e-003
2.796322e+003,8.793400e-003
2.798250e+003,9.215609e-003
2.800178e+003,9.578542e-003
2.802107e+003,9.894759e-003
2.804036e+003,1.023024e-002
2.805964e+003,1.040725e-002
2.807893e+003,1.038516e-002
2.809821e+003,1.030142e-002
2.811750e+003,1.024309e-002
2.813678e+003,1.002807e-002
2.815606e+003,9.780234e-003
2.817535e+003,9.555475e-003
2.819464e+003,9.415136e-003
2.821392e+003,9.226304e-003
2.823321e+003,8.877633e-003
2.825249e+003,8.301716e-003
2.827177e+003,7.837545e-003
2.829106e+003,7.407505e-003
2.831034e+003,6.992301e-003
2.832963e+003,6.610462e-003
2.834892e+003,6.169435e-003
2.836820e+003,5.738189e-003
2.838749e+003,5.225872e-003
2.840677e+003,4.757203e-003
2.842605e+003,4.294460e-003
2.844534e+003,3.768668e-003
2.846462e+003,3.201319e-003
2.848391e+003,2.635510e-003
2.850320e+003,2.252785e-003
2.852248e+003,2.154142e-003
2.854177e+003,2.211020e-003
2.856105e+003,2.148981e-003
2.858033e+003,2.022199e-003
2.859962e+003,2.045502e-003
2.861890e+003,2.273268e-003
2.863819e+003,2.432510e-003
2.865748e+003,2.308943e-003
2.867676e+003,2.344353e-003
2.869604e+003,2.584842e-003
2.871533e+003,2.820062e-003
2.873461e+003,2.928630e-003
2.875390e+003,2.968795e-003
2.877319e+003,3.110737e-003
2.879247e+003,3.149084e-003
2.881176e+003,3.148483e-003
2.883104e+003,3.175117e-003
2.885032e+003,3.104196e-003
2.886961e+003,3.011767e-003
2.888889e+003,3.018873e-003
2.890818e+003,2.840473e-003
2.892747e+003,2.664013e-003
2.894675e+003,2.551246e-003
2.896604e+003,2.538114e-003
2.898532e+003,2.614376e-003
2.900460e+003,2.546879e-003
2.902389e+003,2.394659e-003
2.904317e+003,2.250486e-003
2.906246e+003,2.130767e-003
2.908175e+003,2.073700e-003
2.910103e+003,1.998398e-003
2.912031e+003,1.885105e-003
2.913960e+003,1.668285e-003
2.915888e+003,1.561562e-003
2.917817e+003,1.674671e-003
2.919745e+003,1.705540e-003
2.921674e+003,1.944976e-003
2.923603e+003,2.341855e-003
2.925531e+003,2.473629e-003
2.927459e+003,2.634443e-003
2.929388e+003,2.890570e-003
2.931316e+003,2.990013e-003
2.933245e+003,2.985609e-003
2.935173e+003,3.006128e-003
2.937102e+003,3.131796e-003
2.939031e+003,3.137670e-003
2.940959e+003,2.907148e-003
2.942887e+003,2.763038e-003
2.944816e+003,2.533981e-003
2.946744e+003,2.091312e-003
2.948673e+003,1.632298e-003
2.950601e+003,1.175429e-003
2.952530e+003,5.922770e-004
2.954458e+003,9.616563e-005
2.956387e+003,-3.827945e-004
2.958315e+003,-1.004918e-003
2.960244e+003,-1.449941e-003
2.962172e+003,-1.937624e-003
2.964101e+003,-2.474313e-003
2.966029e+003,-2.862011e-003
2.967958e+003,-3.333611e-003
2.969886e+003,-3.665875e-003
2.971815e+003,-3.804766e-003
2.973743e+003,-4.012330e-003
2.975672e+003,-4.244076e-003
2.977600e+003,-4.371564e-003
2.979529e+003,-4.497113e-003
2.981457e+003,-4.540102e-003
2.983386e+003,-4.547315e-003
2.985314e+003,-4.592562e-003
2.987243e+003,-4.745021e-003
2.989171e+003,-4.843659e-003
2.991100e+003,-4.851719e-003
2.993028e+003,-4.895132e-003
2.994957e+003,-4.855717e-003
2.996885e+003,-4.868823e-003
2.998814e+003,-4.840939e-003
3.000742e+003,-4.823278e-003
3.002671e+003,-4.742726e-003
3.004599e+003,-4.611151e-003
3.006528e+003,-4.608626e-003
3.008456e+003,-4.674616e-003
3.010385e+003,-4.840153e-003
3.012313e+003,-4.995177e-003
3.014242e+003,-5.042965e-003
3.016170e+003,-4.949089e-003
3.018099e+003,-4.850802e-003
3.020027e+003,-4.733254e-003
3.021956e+003,-4.685925e-003
3.023884e+003,-4.759473e-003
3.025813e+003,-4.738531e-003
3.027741e+003,-4.691923e-003
3.029670e+003,-4.666421e-003
3.031598e+003,-4.658521e-003
3.033527e+003,-4.678484e-003
3.035455e+003,-4.630165e-003
3.037384e+003,-4.514329e-003
3.039312e+003,-4.536396e-003
3.041241e+003,-4.656062e-003
3.043169e+003,-4.686023e-003
3.045098e+003,-4.687629e-003
3.047026e+003,-4.626395e-003
3.048955e+003,-4.640328e-003
3.050883e+003,-4.661308e-003
3.052812e+003,-4.624559e-003
3.054740e+003,-4.642393e-003
3.056669e+003,-4.755279e-003
3.058597e+003,-4.706509e-003
3.060526e+003,-4.643016e-003
3.062454e+003,-4.717260e-003
3.064383e+003,-4.663995e-003
3.066311e+003,-4.654227e-003
3.068240e+003,-4.610692e-003
3.070168e+003,-4.566890e-003
3.072097e+003,-4.542790e-003
3.074025e+003,-4.504065e-003
3.075954e+003,-4.499801e-003
3.077882e+003,-4.450839e-003
3.079811e+003,-4.468320e-003
3.081739e+003,-4.533839e-003
3.083668e+003,-4.519640e-003
3.085596e+003,-4.532462e-003
3.087525e+003,-4.505508e-003
3.089453e+003,-4.478092e-003
3.091382e+003,-4.434343e-003
3.093310e+003,-4.272982e-003
3.095239e+003,-4.215102e-003
3.097167e+003,-4.267798e-003
3.099096e+003,-4.243813e-003
3.101024e+003,-4.122229e-003
3.102953e+003,-3.970963e-003
3.104881e+003,-4.008784e-003
3.106810e+003,-4.097973e-003
3.108738e+003,-4.009244e-003
3.110667e+003,-3.937407e-003
3.112595e+003,-3.973754e-003
3.114524e+003,-3.899809e-003
3.116452e+003,-3.779409e-003
3.118381e+003,-3.810974e-003
3.120309e+003,-3.889761e-003
3.122238e+003,-3.816130e-003
3.124166e+003,-3.805456e-003
3.126095e+003,-3.887758e-003
3.128023e+003,-3.815342e-003
3.129952e+003,-3.734045e-003
3.131880e+003,-3.713119e-003
3.133809e+003,-3.779080e-003
3.135737e+003,-3.739794e-003
3.137666e+003,-3.591221e-003
3.139594e+003,-3.559772e-003
3.141523e+003,-3.427804e-003
3.143451e+003,-3.310627e-003
3.145380e+003,-3.424386e-003
3.147308e+003,-3.459263e-003
3.149237e+003,-3.389341e-003
3.151165e+003,-3.204569e-003
3.153094e+003,-3.035874e-003
3.155022e+003,-3.192136e-003
3.156951e+003,-3.220783e-003
3.158879e+003,-3.069927e-003
3.160808e+003,-3.081903e-003
3.162736e+003,-3.161217e-003
3.164665e+003,-3.154474e-003
3.166593e+003,-3.102103e-003
3.168522e+003,-2.993196e-003
3.170450e+003,-3.007773e-003
3.172379e+003,-2.953246e-003
3.174307e+003,-2.823826e-003
3.176236e+003,-2.778922e-003
3.178164e+003,-2.751497e-003
3.180093e+003,-2.659034e-003
3.182021e+003,-2.696114e-003
3.183950e+003,-2.831332e-003
3.185878e+003,-2.865105e-003
3.187807e+003,-2.781786e-003
3.189735e+003,-2.733157e-003
3.191664e+003,-2.702699e-003
3.193592e+003,-2.715377e-003
3.195521e+003,-2.717780e-003
3.197449e+003,-2.596558e-003
3.199378e+003,-2.645071e-003
3.201306e+003,-2.849700e-003
3.203235e+003,-2.767893e-003
3.205163e+003,-2.696081e-003
3.207092e+003,-2.749422e-003
3.209020e+003,-2.693710e-003
3.210948e+003,-2.643852e-003
3.212877e+003,-2.529757e-003
3.214806e+003,-2.511310e-003
3.216734e+003,-2.570603e-003
3.218663e+003,-2.645202e-003
3.220591e+003,-2.625574e-003
3.222520e+003,-2.455007e-003
3.224448e+003,-2.235753e-003
3.226376e+003,-2.279856e-003
3.228305e+003,-2.363469e-003
3.230234e+003,-2.238423e-003
3.232162e+003,-2.166688e-003
3.234091e+003,-2.114594e-003
3.236019e+003,-1.938317e-003
3.237948e+003,-2.087324e-003
3.239876e+003,-2.127717e-003
3.241804e+003,-1.992675e-003
3.243733e+003,-1.871283e-003
3.245662e+003,-1.719957e-003
3.247590e+003,-1.628034e-003
3.249519e+003,-1.560457e-003
3.251447e+003,-1.473354e-003
3.253375e+003,-1.454532e-003
3.255304e+003,-1.408825e-003
3.257232e+003,-1.356177e-003
3.259161e+003,-1.378505e-003
3.261090e+003,-1.304448e-003
3.263018e+003,-1.205300e-003
3.264947e+003,-1.358588e-003
3.266875e+003,-1.353469e-003
3.268803e+003,-1.039826e-003
3.270732e+003,-1.075523e-003
3.272660e+003,-1.221193e-003
3.274589e+003,-1.128404e-003
3.276518e+003,-1.102427e-003
3.278446e+003,-1.153486e-003
3.280375e+003,-1.227801e-003
3.282303e+003,-1.056584e-003
3.284231e+003,-9.832322e-004
3.286160e+003,-1.286113e-003
3.288088e+003,-1.303919e-003
3.290017e+003,-1.091289e-003
3.291946e+003,-1.265003e-003
3.293874e+003,-1.493266e-003
3.295802e+003,-1.505880e-003
3.297731e+003,-1.553623e-003
3.299659e+003,-1.543355e-003
3.301588e+003,-1.598786e-003
3.303516e+003,-1.733884e-003
3.305445e+003,-1.799586e-003
3.307374e+003,-2.036210e-003
3.309302e+003,-2.031955e-003
3.311230e+003,-1.951049e-003
3.313159e+003,-2.041849e-003
3.315087e+003,-2.197480e-003
3.317016e+003,-2.416259e-003
3.318944e+003,-2.608382e-003
3.320873e+003,-2.679418e-003
3.322802e+003,-2.640954e-003
3.324730e+003,-2.549917e-003
3.326658e+003,-2.547249e-003
3.328587e+003,-2.639011e-003
3.330515e+003,-2.652283e-003
3.332444e+003,-2.620239e-003
3.334372e+003,-2.563917e-003
3.336301e+003,-2.538981e-003
3.338229e+003,-2.581275e-003
3.340158e+003,-2.558514e-003
3.342086e+003,-2.513023e-003
3.344015e+003,-2.298446e-003
3.345943e+003,-2.317232e-003
3.347872e+003,-2.367226e-003
3.349800e+003,-2.309520e-003
3.351729e+003,-2.318452e-003
3.353657e+003,-2.318221e-003
3.355586e+003,-2.298743e-003
3.357514e+003,-2.289844e-003
3.359443e+003,-2.236313e-003
3.361371e+003,-2.299369e-003
3.363300e+003,-2.408515e-003
3.365229e+003,-2.496189e-003
3.367157e+003,-2.691438e-003
3.369085e+003,-2.906775e-003
3.371014e+003,-2.887027e-003
3.372942e+003,-3.039855e-003
3.374871e+003,-3.278927e-003
3.376799e+003,-3.375795e-003
3.378728e+003,-3.469946e-003
3.380656e+003,-3.557701e-003
3.382585e+003,-3.653061e-003
3.384513e+003,-3.790445e-003
3.386442e+003,-3.957108e-003
3.388370e+003,-4.105555e-003
3.390299e+003,-4.079625e-003
3.392227e+003,-4.152193e-003
3.394156e+003,-4.336596e-003
3.396084e+003,-4.286500e-003
3.398013e+003,-4.110905e-003
3.399941e+003,-4.204372e-003
3.401870e+003,-4.428505e-003
3.403798e+003,-4.469435e-003
3.405727e+003,-4.416337e-003
3.407655e+003,-4.545512e-003
3.409584e+003,-4.484553e-003
3.411512e+003,-4.409777e-003
3.413441e+003,-4.357820e-003
3.415369e+003,-4.464089e-003
3.417298e+003,-4.729879e-003
3.419226e+003,-4.633116e-003
3.421155e+003,-4.445232e-003
3.423083e+003,-4.428374e-003
3.425012e+003,-4.420863e-003
3.426940e+003,-4.464220e-003
3.428869e+003,-4.398100e-003
3.430797e+003,-4.421355e-003
3.432726e+003,-4.436377e-003
3.434654e+003,-4.426734e-003
3.436583e+003,-4.451135e-003
3.438511e+003,-4.371433e-003
3.440440e+003,-4.222518e-003
3.442368e+003,-4.172015e-003
3.444297e+003,-4.194790e-003
3.446225e+003,-4.094757e-003
3.448154e+003,-4.065871e-003
3.450082e+003,-4.165977e-003
3.452011e+003,-4.323408e-003
3.453939e+003,-4.352571e-003
3.455868e+003,-4.208113e-003
3.457796e+003,-4.285122e-003
3.459725e+003,-4.422503e-003
3.461653e+003,-4.386423e-003
3.463582e+003,-4.263959e-003
3.465510e+003,-4.406760e-003
3.467439e+003,-4.447134e-003
3.469367e+003,-4.230361e-003
3.471296e+003,-4.186849e-003
3.473224e+003,-4.407022e-003
3.475153e+003,-4.322227e-003
3.477081e+003,-4.143627e-003
3.479010e+003,-4.125051e-003
3.480938e+003,-4.138245e-003
3.482867e+003,-4.247488e-003
3.484795e+003,-4.405874e-003
3.486724e+003,-4.451233e-003
3.488652e+003,-4.326656e-003
3.490581e+003,-4.146909e-003
3.492509e+003,-4.369104e-003
3.494438e+003,-4.428242e-003
3.496366e+003,-4.268520e-003
3.498295e+003,-4.198596e-003
3.500223e+003,-4.190130e-003
3.502152e+003,-4.182582e-003
3.504080e+003,-4.223207e-003
3.506009e+003,-4.238432e-003
3.507937e+003,-4.170079e-003
3.509866e+003,-4.125150e-003
3.511794e+003,-4.118192e-003
3.513723e+003,-4.158396e-003
3.515651e+003,-4.258579e-003
3.517580e+003,-3.968468e-003
3.519508e+003,-3.931004e-003
3.521437e+003,-4.005961e-003
3.523365e+003,-3.886510e-003
3.525294e+003,-3.853374e-003
3.527222e+003,-3.984162e-003
3.529151e+003,-3.930446e-003
3.531079e+003,-3.874622e-003
3.533008e+003,-3.941216e-003
3.534936e+003,-4.022573e-003
3.536865e+003,-4.111824e-003
3.538793e+003,-4.031961e-003
3.540722e+003,-4.063771e-003
3.542650e+003,-4.126594e-003
3.544579e+003,-4.142216e-003
3.546507e+003,-3.889334e-003
3.548436e+003,-3.815769e-003
3.550364e+003,-3.780296e-003
3.552293e+003,-3.863686e-003
3.554221e+003,-3.997327e-003
3.556150e+003,-3.831928e-003
3.558078e+003,-3.848908e-003
3.560007e+003,-3.875640e-003
3.561935e+003,-3.822535e-003
3.563864e+003,-3.870320e-003
3.565792e+003,-3.857578e-003
3.567721e+003,-3.656347e-003
3.569649e+003,-3.684142e-003
3.571578e+003,-3.819448e-003
3.573506e+003,-3.947586e-003
3.575435e+003,-3.978974e-003
3.577363e+003,-3.843784e-003
3.579292e+003,-3.703394e-003
3.581220e+003,-3.583926e-003
3.583149e+003,-3.690319e-003
3.585077e+003,-3.575480e-003
3.587006e+003,-3.280473e-003
3.588934e+003,-3.361000e-003
3.590863e+003,-3.525001e-003
3.592791e+003,-3.507779e-003
3.594720e+003,-3.538508e-003
3.596648e+003,-3.566936e-003
3.598577e+003,-3.432801e-003
3.600505e+003,-3.452788e-003
3.602434e+003,-3.574856e-003
3.604362e+003,-3.652371e-003
3.606291e+003,-3.647443e-003
3.608219e+003,-3.654540e-003
3.610148e+003,-3.575053e-003
3.612076e+003,-3.454957e-003
3.614005e+003,-3.454793e-003
3.615933e+003,-3.459658e-003
3.617862e+003,-3.432045e-003
3.619790e+003,-3.546002e-003
3.621719e+003,-3.657530e-003
3.623647e+003,-3.660848e-003
3.625576e+003,-3.813437e-003
3.627504e+003,-3.595329e-003
3.629433e+003,-3.269489e-003
3.631361e+003,-3.527729e-003
3.633290e+003,-3.639393e-003
3.635218e+003,-3.705826e-003
3.637146e+003,-3.775566e-003
3.639075e+003,-3.893307e-003
3.641004e+003,-3.830319e-003
3.642932e+003,-3.674516e-003
3.644861e+003,-3.783843e-003
3.646789e+003,-3.578766e-003
3.648718e+003,-3.045382e-003
3.650646e+003,-3.042092e-003
3.652574e+003,-3.711838e-003
3.654503e+003,-3.787884e-003
3.656432e+003,-3.397724e-003
3.658360e+003,-3.590268e-003
3.660289e+003,-3.809299e-003
3.662217e+003,-3.949851e-003
3.664146e+003,-4.005698e-003
3.666074e+003,-3.823192e-003
3.668002e+003,-3.706351e-003
3.669931e+003,-3.472872e-003
3.671860e+003,-3.585010e-003
3.673788e+003,-3.508929e-003
3.675717e+003,-2.887126e-003
3.677645e+003,-3.345613e-003
3.679573e+003,-3.758584e-003
3.681502e+003,-3.957797e-003
3.683430e+003,-3.925422e-003
3.685359e+003,-3.845459e-003
3.687288e+003,-3.606074e-003
3.689216e+003,-3.372639e-003
3.691145e+003,-3.543734e-003
3.693073e+003,-3.674713e-003
3.695001e+003,-3.828742e-003
3.696930e+003,-3.999034e-003
3.698858e+003,-3.963116e-003
3.700787e+003,-3.613730e-003
3.702716e+003,-3.728198e-003
3.704644e+003,-4.060586e-003
3.706573e+003,-3.966662e-003
3.708501e+003,-3.618560e-003
3.710429e+003,-3.284320e-003
3.712358e+003,-3.020145e-003
3.714286e+003,-3.518099e-003
3.716215e+003,-3.835114e-003
3.718144e+003,-3.531344e-003
3.720072e+003,-3.459165e-003
3.722000e+003,-3.552969e-003
3.723929e+003,-3.683847e-003
3.725857e+003,-3.547185e-003
3.727786e+003,-3.440954e-003
3.729714e+003,-3.395883e-003
3.731643e+003,-3.321446e-003
3.733572e+003,-3.264820e-003
3.735500e+003,-2.942353e-003
3.737428e+003,-3.119045e-003
3.739357e+003,-3.444833e-003
3.741285e+003,-3.527104e-003
3.743214e+003,-3.057326e-003
3.745142e+003,-2.528934e-003
3.747071e+003,-2.730490e-003
3.749000e+003,-1.970939e-003
3.750928e+003,-1.803249e-003
3.752856e+003,-2.151951e-003
3.754785e+003,-2.640625e-003
3.756713e+003,-2.808881e-003
3.758642e+003,-2.890581e-003
3.760570e+003,-2.768189e-003
3.762499e+003,-2.774543e-003
3.764427e+003,-2.667728e-003
3.766356e+003,-2.851181e-003
3.768284e+003,-2.664896e-003
3.770213e+003,-2.418499e-003
3.772141e+003,-2.650142e-003
3.774070e+003,-2.831332e-003
3.775998e+003,-2.882814e-003
3.777927e+003,-2.742179e-003
3.779855e+003,-2.799597e-003
3.781784e+003,-2.952489e-003
3.783712e+003,-2.939786e-003
3.785641e+003,-3.027286e-003
3.787569e+003,-3.026891e-003
3.789498e+003,-2.782445e-003
3.791426e+003,-2.684226e-003
3.793355e+003,-2.678957e-003
3.795283e+003,-2.539804e-003
3.797212e+003,-2.679813e-003
3.799140e+003,-2.850753e-003
3.801069e+003,-2.399256e-003
3.802997e+003,-2.405649e-003
3.804926e+003,-2.557197e-003
3.806854e+003,-2.196260e-003
3.808783e+003,-2.521720e-003
3.810711e+003,-2.781688e-003
3.812640e+003,-2.818921e-003
3.814568e+003,-2.595207e-003
3.816497e+003,-2.048906e-003
3.818425e+003,-2.119375e-003
3.820354e+003,-2.043267e-003
3.822282e+003,-2.111824e-003
3.824211e+003,-2.520073e-003
3.826139e+003,-2.625014e-003
3.828068e+003,-2.702963e-003
3.829996e+003,-2.453425e-003
3.831925e+003,-2.393193e-003
3.833853e+003,-2.420015e-003
3.835782e+003,-2.298017e-003
3.837710e+003,-2.105988e-003
3.839639e+003,-2.213040e-003
3.841567e+003,-2.484164e-003
3.843496e+003,-2.463902e-003
3.845424e+003,-2.543461e-003
3.847353e+003,-2.801638e-003
3.849281e+003,-2.807202e-003
3.851210e+003,-2.440839e-003
3.853138e+003,-1.597796e-003
3.855067e+003,-1.790512e-003
3.856995e+003,-2.476026e-003
3.858924e+003,-2.671647e-003
3.860852e+003,-2.441827e-003
3.862781e+003,-2.184359e-003
3.864709e+003,-2.137938e-003
3.866638e+003,-2.160292e-003
3.868566e+003,-2.045872e-003
3.870495e+003,-1.905230e-003
3.872423e+003,-2.197085e-003
3.874352e+003,-2.346695e-003
3.876280e+003,-2.475038e-003
3.878209e+003,-2.555682e-003
3.880137e+003,-2.492993e-003
3.882066e+003,-2.635059e-003
3.883994e+003,-2.648133e-003
3.885923e+003,-2.175787e-003
3.887851e+003,-2.568923e-003
3.889780e+003,-2.584931e-003
3.891708e+003,-2.393852e-003
3.893637e+003,-2.543296e-003
3.895565e+003,-2.610127e-003
3.897494e+003,-2.321154e-003
3.899422e+003,-2.137674e-003
3.901351e+003,-2.072254e-003
3.903279e+003,-2.048016e-003
3.905208e+003,-2.182612e-003
3.907136e+003,-2.465055e-003
3.909065e+003,-2.617340e-003
3.910993e+003,-2.534369e-003
3.912922e+003,-2.353748e-003
3.914850e+003,-2.055403e-003
3.916779e+003,-1.955733e-003
3.918707e+003,-2.246763e-003
3.920636e+003,-2.349727e-003
3.922564e+003,-2.310805e-003
3.924493e+003,-2.118814e-003
3.926421e+003,-2.046796e-003
3.928350e+003,-2.234468e-003
3.930278e+003,-2.233446e-003
3.932207e+003,-1.971236e-003
3.934135e+003,-2.001020e-003
3.936064e+003,-2.194843e-003
3.937992e+003,-2.271353e-003
3.939921e+003,-2.358460e-003
3.941849e+003,-2.404726e-003
3.943778e+003,-2.438071e-003
3.945706e+003,-2.306224e-003
3.947635e+003,-2.021501e-003
3.949563e+003,-2.073672e-003
3.951492e+003,-2.072452e-003
3.953420e+003,-2.262420e-003
3.955349e+003,-2.376091e-003
3.957277e+003,-2.229820e-003
3.959206e+003,-2.307180e-003
3.961134e+003,-2.404232e-003
3.963063e+003,-2.442190e-003
3.964991e+003,-2.506862e-003
3.966920e+003,-2.590695e-003
3.968848e+003,-2.544779e-003
3.970777e+003,-2.351869e-003
3.972705e+003,-2.329492e-003
3.974634e+003,-2.482912e-003
3.976562e+003,-2.292711e-003
3.978491e+003,-2.108659e-003
3.980419e+003,-2.228798e-003
3.982348e+003,-2.427165e-003
3.984276e+003,-2.395533e-003
3.986205e+003,-2.289118e-003
3.988133e+003,-2.271452e-003
3.990062e+003,-2.426243e-003
3.991990e+003,-2.454348e-003
3.993919e+003,-2.414381e-003
3.995847e+003,-2.575214e-003
3.997776e+003,-2.535456e-003
3.999704e+003,-2.337863e-003
4.001633e+003,0.000000e+000
