3.991989e+002,8.837883e-004
4.011274e+002,4.047270e-003
4.030559e+002,-1.481147e-003
4.049844e+002,-7.427562e-003
4.069129e+002,-3.540612e-003
4.088414e+002,7.669397e-003
4.107699e+002,1.364339e-002
4.126984e+002,1.330370e-002
4.146269e+002,1.210988e-002
4.165554e+002,1.038564e-002
4.184839e+002,6.167351e-003
4.204124e+002,3.555416e-003
4.223409e+002,4.915883e-003
4.242694e+002,5.776801e-003
4.261979e+002,2.365075e-003
4.281264e+002,-8.725032e-004
4.300549e+002,4.704930e-004
4.319834e+002,-4.652326e-003
4.339119e+002,-2.318616e-003
4.358404e+002,5.875094e-003
4.377689e+002,5.449542e-003
4.396974e+002,3.840901e-003
4.416259e+002,3.794204e-003
4.435544e+002,6.410774e-003
4.454829e+002,8.665306e-003
4.474114e+002,1.195883e-002
4.493399e+002,8.400617e-003
4.512684e+002,1.794331e-003
4.531969e+002,-2.648921e-004
4.551254e+002,3.102161e-003
4.570539e+002,5.996757e-003
4.589824e+002,3.427288e-003
4.609109e+002,3.720341e-003
4.628394e+002,5.323470e-003
4.647679e+002,5.845540e-003
4.666964e+002,5.598238e-003
4.686249e+002,3.912912e-003
4.705533e+002,5.551150e-003
4.724819e+002,8.514981e-003
4.744103e+002,9.287772e-003
4.763389e+002,8.267945e-003
4.782673e+002,7.536273e-003
4.801959e+002,9.236526e-003
4.821243e+002,1.015263e-002
4.840529e+002,9.327074e-003
4.859813e+002,7.321669e-003
4.879099e+002,5.475009e-003
4.898383e+002,6.498448e-003
4.917668e+002,6.450187e-003
4.936953e+002,6.073561e-003
4.956238e+002,7.083191e-003
4.975523e+002,5.475042e-003
4.994808e+002,4.953685e-003
5.014093e+002,6.261464e-003
5.033378e+002,6.424864e-003
5.052663e+002,5.237576e-003
5.071948e+002,3.121116e-003
5.091233e+002,3.267148e-003
5.110518e+002,3.117746e-003
5.129803e+002,3.879345e-003
5.149088e+002,3.105631e-003
5.168373e+002,3.231862e-003
5.187658e+002,3.231361e-003
5.206943e+002,3.370551e-003
5.226228e+002,2.684850e-003
5.245513e+002,3.120682e-003
5.264798e+002,3.811385e-003
5.284083e+002,3.904821e-003
5.303368e+002,3.361569e-003
5.322653e+002,2.393560e-003
5.341938e+002,1.307580e-003
5.361223e+002,1.777230e-003
5.380508e+002,1.873691e-003
5.399792e+002,3.049870e-003
5.419078e+002,3.293489e-003
5.438363e+002,2.416683e-003
5.457648e+002,2.772875e-003
5.476932e+002,3.374892e-003
5.496218e+002,2.691951e-003
5.515503e+002,2.464798e-003
5.534788e+002,2.039144e-003
5.554072e+002,2.763205e-003
5.573358e+002,2.781312e-003
5.592643e+002,3.234966e-003
5.611927e+002,2.611476e-003
5.631212e+002,1.959421e-003
5.650497e+002,1.588764e-003
5.669783e+002,2.641077e-003
5.689067e+002,3.170177e-003
5.708352e+002,3.193575e-003
5.727637e+002,2.322500e-003
5.746923e+002,1.360957e-003
5.766207e+002,2.390795e-003
5.785492e+002,2.878929e-003
5.804777e+002,-7.995835e-003
5.824063e+002,-8.488931e-003
5.843347e+002,1.981622e-003
5.862632e+002,4.376051e-003
5.881917e+002,3.385110e-003
5.901202e+002,1.529241e-003
5.920487e+002,2.663468e-004
5.939772e+002,3.931144e-004
5.959057e+002,4.200445e-004
5.978342e+002,8.948777e-004
5.997627e+002,1.513547e-003
6.016912e+002,1.044879e-003
6.036197e+002,1.206627e-003
6.055482e+002,1.488111e-003
6.074767e+002,1.857085e-003
6.094052e+002,2.729894e-003
6.113337e+002,3.299298e-003
6.132622e+002,2.001927e-003
6.151907e+002,1.144698e-003
6.171192e+002,4.116204e-004
6.190477e+002,7.514339e-004
6.209762e+002,2.602409e-003
6.229047e+002,2.473828e-003
6.248332e+002,8.403628e-004
6.267617e+002,1.276179e-004
6.286902e+002,2.885608e-004
6.306187e+002,1.314028e-003
6.325472e+002,1.578222e-003
6.344756e+002,2.056621e-003
6.364042e+002,2.277132e-003
6.383326e+002,1.891261e-003
6.402612e+002,1.530571e-003
6.421896e+002,2.356846e-003
6.441182e+002,2.117349e-003
6.460466e+002,1.575562e-003
6.479752e+002,1.343574e-003
6.499036e+002,8.543063e-004
6.518322e+002,1.020766e-003
6.537606e+002,1.778861e-003
6.556891e+002,1.746058e-003
6.576177e+002,1.752944e-003
6.595461e+002,1.684717e-003
6.614746e+002,1.369765e-003
6.634031e+002,1.208388e-003
6.653317e+002,1.743429e-003
6.672601e+002,3.213035e-003
6.691886e+002,2.727426e-003
6.711171e+002,1.693797e-003
6.730457e+002,1.981389e-003
6.749741e+002,2.176020e-003
6.769026e+002,2.086018e-003
6.788311e+002,2.631043e-003
6.807596e+002,2.693551e-003
6.826881e+002,2.493190e-003
6.846166e+002,3.074997e-003
6.865451e+002,3.270987e-003
6.884736e+002,2.843841e-003
6.904021e+002,2.407387e-003
6.923306e+002,2.510386e-003
6.942591e+002,2.842341e-003
6.961876e+002,3.136602e-003
6.981161e+002,3.115209e-003
7.000446e+002,2.722592e-003
7.019731e+002,2.638143e-003
7.039016e+002,2.822297e-003
7.058301e+002,2.850645e-003
7.077585e+002,2.780378e-003
7.096871e+002,2.920324e-003
7.116156e+002,3.121650e-003
7.135441e+002,2.851679e-003
7.154725e+002,2.645611e-003
7.174011e+002,2.466731e-003
7.193296e+002,2.864187e-003
7.212581e+002,3.402108e-003
7.231865e+002,3.855075e-003
7.251151e+002,4.206326e-003
7.270436e+002,4.491336e-003
7.289720e+002,4.460671e-003
7.309005e+002,4.422744e-003
7.328290e+002,4.763836e-003
7.347576e+002,4.782260e-003
7.366860e+002,4.540351e-003
7.386145e+002,4.704847e-003
7.405430e+002,5.118774e-003
7.424716e+002,5.486853e-003
7.444000e+002,5.596191e-003
7.463285e+002,5.932495e-003
7.482570e+002,6.015268e-003
7.501855e+002,5.661980e-003
7.521140e+002,6.306544e-003
7.540425e+002,6.906211e-003
7.559710e+002,6.468582e-003
7.578995e+002,6.579311e-003
7.598280e+002,6.660559e-003
7.617565e+002,6.892341e-003
7.636850e+002,7.223015e-003
7.656135e+002,7.717659e-003
7.675420e+002,7.962290e-003
7.694705e+002,7.596525e-003
7.713990e+002,7.444109e-003
7.733275e+002,7.398237e-003
7.752560e+002,7.078241e-003
7.771844e+002,6.844541e-003
7.791130e+002,6.809805e-003
7.810415e+002,6.675060e-003
7.829700e+002,6.408959e-003
7.848984e+002,6.744850e-003
7.868270e+002,7.087435e-003
7.887555e+002,6.757167e-003
7.906840e+002,6.398770e-003
7.926124e+002,6.304829e-003
7.945410e+002,6.198002e-003
7.964695e+002,6.275750e-003
7.983979e+002,6.391507e-003
8.003264e+002,6.663957e-003
8.022549e+002,7.266241e-003
8.041835e+002,7.558458e-003
8.061119e+002,7.379464e-003
8.080404e+002,7.242993e-003
8.099689e+002,7.114615e-003
8.118975e+002,7.097235e-003
8.138259e+002,7.301755e-003
8.157545e+002,7.078476e-003
8.176830e+002,7.226148e-003
8.196115e+002,6.990786e-003
8.215399e+002,6.513348e-003
8.234684e+002,6.768340e-003
8.253970e+002,7.163893e-003
8.273254e+002,7.408314e-003
8.292539e+002,7.756347e-003
8.311824e+002,7.905498e-003
8.331110e+002,7.782490e-003
8.350394e+002,7.293769e-003
8.369679e+002,7.244577e-003
8.388964e+002,7.229382e-003
8.408250e+002,7.309471e-003
8.427534e+002,7.320389e-003
8.446819e+002,6.983884e-003
8.466104e+002,6.814584e-003
8.485389e+002,6.744816e-003
8.504674e+002,6.646327e-003
8.523959e+002,6.722506e-003
8.543244e+002,6.701609e-003
8.562529e+002,6.951190e-003
8.581814e+002,7.323994e-003
8.601099e+002,7.205328e-003
8.620384e+002,6.830033e-003
8.639669e+002,6.951392e-003
8.658954e+002,7.088614e-003
8.678239e+002,6.602859e-003
8.697524e+002,6.569959e-003
8.716809e+002,6.678997e-003
8.736094e+002,6.623920e-003
8.755378e+002,6.398871e-003
8.774664e+002,6.676507e-003
8.793949e+002,6.446723e-003
8.813234e+002,6.000990e-003
8.832518e+002,5.949122e-003
8.851804e+002,5.879897e-003
8.871089e+002,5.600319e-003
8.890374e+002,5.538062e-003
8.909658e+002,5.918019e-003
8.928943e+002,6.127427e-003
8.948229e+002,5.904180e-003
8.967513e+002,5.682760e-003
8.986798e+002,5.677288e-003
9.006083e+002,5.619988e-003
9.025369e+002,5.574543e-003
9.044653e+002,5.713377e-003
9.063938e+002,5.652313e-003
9.083223e+002,5.259375e-003
9.102509e+002,4.967192e-003
9.121793e+002,5.476250e-003
9.141078e+002,5.592901e-003
9.160364e+002,5.383415e-003
9.179648e+002,5.283154e-003
9.198933e+002,5.138220e-003
9.218218e+002,5.297978e-003
9.237504e+002,5.231103e-003
9.256788e+002,4.575475e-003
9.276073e+002,4.461373e-003
9.295358e+002,4.728495e-003
9.314644e+002,4.806147e-003
9.333928e+002,4.998999e-003
9.353213e+002,5.097820e-003
9.372498e+002,4.968565e-003
9.391783e+002,4.591716e-003
9.411068e+002,4.509716e-003
9.430353e+002,4.558700e-003
9.449637e+002,4.613516e-003
9.468923e+002,4.625672e-003
9.488208e+002,4.226133e-003
9.507493e+002,4.085197e-003
9.526777e+002,4.016636e-003
9.546063e+002,4.083558e-003
9.565348e+002,4.127042e-003
9.584633e+002,3.823218e-003
9.603917e+002,3.581474e-003
9.623203e+002,3.640577e-003
9.642488e+002,3.571385e-003
9.661772e+002,3.410590e-003
9.681057e+002,3.267281e-003
9.700343e+002,2.952649e-003
9.719628e+002,2.914119e-003
9.738912e+002,2.899709e-003
9.758197e+002,2.668414e-003
9.777483e+002,2.530015e-003
9.796768e+002,2.562511e-003
9.816052e+002,2.576510e-003
9.835337e+002,2.534181e-003
9.854623e+002,2.465931e-003
9.873907e+002,2.426679e-003
9.893192e+002,2.412951e-003
9.912477e+002,2.334093e-003
9.931763e+002,2.322001e-003
9.951047e+002,2.342121e-003
9.970332e+002,2.458134e-003
9.989617e+002,2.783913e-003
1.000890e+003,3.224952e-003
1.002819e+003,3.604693e-003
1.004747e+003,3.690232e-003
1.006676e+003,3.744371e-003
1.008604e+003,3.877440e-003
1.010533e+003,4.215728e-003
1.012461e+003,4.534625e-003
1.014390e+003,4.775460e-003
1.016318e+003,5.063089e-003
1.018247e+003,5.219768e-003
1.020175e+003,5.306900e-003
1.022104e+003,5.515779e-003
1.024032e+003,5.783718e-003
1.025961e+003,6.139861e-003
1.027889e+003,6.255077e-003
1.029818e+003,6.363094e-003
1.031746e+003,6.556436e-003
1.033675e+003,6.880997e-003
1.035603e+003,7.120442e-003
1.037532e+003,7.412359e-003
1.039460e+003,7.656312e-003
1.041389e+003,7.630144e-003
1.043317e+003,7.638237e-003
1.045246e+003,7.913192e-003
1.047174e+003,8.139431e-003
1.049103e+003,8.190684e-003
1.051031e+003,8.191021e-003
1.052960e+003,8.026651e-003
1.054888e+003,7.779420e-003
1.056817e+003,7.700593e-003
1.058745e+003,7.756111e-003
1.060674e+003,7.993035e-003
1.062602e+003,8.175963e-003
1.064531e+003,8.044338e-003
1.066459e+003,7.902900e-003
1.068388e+003,7.949905e-003
1.070316e+003,8.238261e-003
1.072245e+003,8.434771e-003
1.074173e+003,8.364743e-003
1.076102e+003,8.359878e-003
1.078030e+003,8.466495e-003
1.079959e+003,8.330122e-003
1.081887e+003,8.185552e-003
1.083816e+003,8.186160e-003
1.085744e+003,8.256597e-003
1.087673e+003,8.141424e-003
1.089601e+003,8.186733e-003
1.091530e+003,8.133591e-003
1.093458e+003,7.928039e-003
1.095387e+003,7.778306e-003
1.097315e+003,7.982235e-003
1.099244e+003,8.152160e-003
1.101172e+003,8.169953e-003
1.103101e+003,7.942886e-003
1.105029e+003,7.869935e-003
1.106958e+003,7.916296e-003
1.108886e+003,7.878910e-003
1.110815e+003,7.712499e-003
1.112743e+003,7.598548e-003
1.114672e+003,7.566213e-003
1.116600e+003,7.936880e-003
1.118529e+003,8.284256e-003
1.120457e+003,8.154591e-003
1.122386e+003,8.081029e-003
1.124314e+003,8.214489e-003
1.126243e+003,8.173532e-003
1.128171e+003,7.946058e-003
1.130100e+003,7.887513e-003
1.132028e+003,7.832754e-003
1.133957e+003,7.676817e-003
1.135885e+003,7.653513e-003
1.137814e+003,7.278168e-003
1.139742e+003,6.636906e-003
1.141671e+003,6.475679e-003
1.143599e+003,6.271178e-003
1.145528e+003,5.723651e-003
1.147456e+003,5.225704e-003
1.149385e+003,4.890918e-003
1.151313e+003,4.666932e-003
1.153242e+003,4.443029e-003
1.155170e+003,4.328861e-003
1.157099e+003,4.206393e-003
1.159027e+003,4.014864e-003
1.160956e+003,3.778027e-003
1.162884e+003,3.699321e-003
1.164813e+003,3.499531e-003
1.166741e+003,3.432565e-003
1.168670e+003,3.328612e-003
1.170598e+003,3.268216e-003
1.172526e+003,3.367112e-003
1.174455e+003,3.361502e-003
1.176384e+003,3.462723e-003
1.178312e+003,3.425351e-003
1.180240e+003,3.242010e-003
1.182169e+003,3.216407e-003
1.184098e+003,3.067589e-003
1.186026e+003,2.787514e-003
1.187954e+003,2.723425e-003
1.189883e+003,2.738763e-003
1.191812e+003,2.655545e-003
1.193740e+003,2.514818e-003
1.195668e+003,2.203627e-003
1.197597e+003,1.947772e-003
1.199526e+003,2.077295e-003
1.201454e+003,2.299283e-003
1.203382e+003,2.399524e-003
1.205311e+003,2.454168e-003
1.207240e+003,2.472362e-003
1.209168e+003,2.307444e-003
1.211096e+003,2.257381e-003
1.213025e+003,2.531415e-003
1.214953e+003,2.596109e-003
1.216882e+003,2.355747e-003
1.218810e+003,2.279464e-003
1.220739e+003,2.227872e-003
1.222667e+003,2.230270e-003
1.224596e+003,2.326065e-003
1.226524e+003,2.251552e-003
1.228453e+003,2.056787e-003
1.230381e+003,1.869032e-003
1.232310e+003,1.755140e-003
1.234238e+003,1.656411e-003
1.236167e+003,1.631433e-003
1.238095e+003,1.681756e-003
1.240024e+003,1.881211e-003
1.241952e+003,1.866469e-003
1.243881e+003,1.357833e-003
1.245809e+003,1.077762e-003
1.247738e+003,1.303094e-003
1.249666e+003,1.685814e-003
1.251595e+003,1.819219e-003
1.253523e+003,1.803182e-003
1.255452e+003,1.910863e-003
1.257380e+003,1.885005e-003
1.259309e+003,2.023464e-003
1.261237e+003,2.176886e-003
1.263166e+003,2.271337e-003
1.265094e+003,2.377402e-003
1.267023e+003,2.416516e-003
1.268951e+003,2.391927e-003
1.270880e+003,2.364408e-003
1.272808e+003,2.243792e-003
1.274737e+003,2.145818e-003
1.276665e+003,2.133697e-003
1.278594e+003,2.113120e-003
1.280522e+003,2.035781e-003
1.282451e+003,1.938353e-003
1.284379e+003,1.847169e-003
1.286308e+003,1.710729e-003
1.288236e+003,1.726230e-003
1.290165e+003,1.689373e-003
1.292093e+003,1.562626e-003
1.294022e+003,1.534627e-003
1.295950e+003,1.566118e-003
1.297879e+003,1.548227e-003
1.299807e+003,1.412712e-003
1.301736e+003,1.252083e-003
1.303664e+003,1.055076e-003
1.305593e+003,9.013522e-004
1.307521e+003,9.989465e-004
1.309450e+003,9.885518e-004
1.311378e+003,6.385646e-004
1.313307e+003,4.227310e-004
1.315235e+003,4.063802e-004
1.317164e+003,5.728676e-004
1.319092e+003,5.152748e-004
1.321021e+003,3.378667e-004
1.322949e+003,2.988061e-004
1.324878e+003,4.322498e-004
1.326806e+003,5.686209e-004
1.328735e+003,8.167264e-004
1.330663e+003,1.084638e-003
1.332592e+003,1.304057e-003
1.334520e+003,1.376014e-003
1.336449e+003,1.494960e-003
1.338377e+003,1.735845e-003
1.340306e+003,1.854124e-003
1.342234e+003,1.759697e-003
1.344163e+003,1.721407e-003
1.346091e+003,1.713756e-003
1.348020e+003,1.828735e-003
1.349948e+003,1.777829e-003
1.351877e+003,1.696392e-003
1.353805e+003,1.750482e-003
1.355734e+003,1.783119e-003
1.357662e+003,1.678729e-003
1.359591e+003,1.644071e-003
1.361519e+003,1.619726e-003
1.363448e+003,1.392435e-003
1.365376e+003,1.036110e-003
1.367305e+003,8.093568e-004
1.369233e+003,6.250262e-004
1.371162e+003,4.476064e-004
1.373090e+003,3.903618e-004
1.375019e+003,2.290829e-004
1.376947e+003,6.060639e-005
1.378876e+003,-1.089642e-004
1.380804e+003,-3.180366e-004
1.382733e+003,-3.936527e-004
1.384661e+003,-2.602230e-004
1.386590e+003,-1.205580e-004
1.388518e+003,-4.039811e-004
1.390447e+003,-8.053377e-004
1.392375e+003,-7.987893e-004
1.394304e+003,-5.811134e-004
1.396232e+003,-8.148625e-004
1.398161e+003,-1.000588e-003
1.400089e+003,-1.059625e-003
1.402018e+003,-1.284693e-003
1.403946e+003,-1.447365e-003
1.405875e+003,-1.539129e-003
1.407803e+003,-1.701310e-003
1.409732e+003,-1.681969e-003
1.411660e+003,-1.514531e-003
1.413589e+003,-1.399676e-003
1.415517e+003,-1.221027e-003
1.417446e+003,-7.682948e-004
1.419374e+003,-3.251551e-004
1.421303e+003,-3.803116e-004
1.423231e+003,-2.129996e-004
1.425160e+003,5.653035e-005
1.427088e+003,2.747018e-004
1.429017e+003,7.670674e-004
1.430945e+003,1.245936e-003
1.432874e+003,1.745359e-003
1.434802e+003,2.501888e-003
1.436731e+003,3.187734e-003
1.438659e+003,3.229559e-003
1.440588e+003,3.434335e-003
1.442516e+003,3.904386e-003
1.444445e+003,4.290277e-003
1.446373e+003,4.606249e-003
1.448302e+003,5.079046e-003
1.450230e+003,5.306196e-003
1.452159e+003,5.383985e-003
1.454087e+003,5.660000e-003
1.456016e+003,6.550853e-003
1.457944e+003,6.562357e-003
1.459873e+003,5.736879e-003
1.461801e+003,5.310221e-003
1.463730e+003,5.271951e-003
1.465658e+003,4.962801e-003
1.467587e+003,4.275688e-003
1.469515e+003,3.968449e-003
1.471444e+003,4.103259e-003
1.473372e+003,3.887335e-003
1.475301e+003,3.195645e-003
1.477229e+003,2.500155e-003
1.479158e+003,1.833127e-003
1.481086e+003,1.511718e-003
1.483015e+003,1.092842e-003
1.484943e+003,7.902364e-004
1.486872e+003,8.758532e-004
1.488800e+003,8.990280e-004
1.490729e+003,7.113073e-004
1.492657e+003,2.654185e-004
1.494586e+003,2.542788e-004
1.496514e+003,4.235601e-004
1.498443e+003,1.217515e-004
1.500371e+003,-2.568785e-004
1.502300e+003,-3.564091e-004
1.504228e+003,8.092087e-005
1.506157e+003,1.014456e-003
1.508085e+003,6.902664e-004
1.510014e+003,-8.733255e-005
1.511942e+003,-3.814372e-004
1.513871e+003,-4.738564e-004
1.515799e+003,-2.379697e-004
1.517728e+003,-8.299284e-005
1.519656e+003,1.033242e-004
1.521585e+003,3.898312e-004
1.523513e+003,6.246215e-005
1.525442e+003,2.206783e-005
1.527370e+003,-1.382463e-004
1.529299e+003,-3.943148e-004
1.531227e+003,-3.915341e-004
1.533156e+003,6.392026e-005
1.535084e+003,7.094577e-005
1.537013e+003,2.362105e-004
1.538941e+003,1.116793e-003
1.540870e+003,1.376014e-003
1.542798e+003,9.700876e-004
1.544727e+003,6.596030e-004
1.546655e+003,2.120433e-004
1.548584e+003,1.761763e-004
1.550512e+003,2.515602e-004
1.552441e+003,2.649543e-004
1.554369e+003,5.088392e-004
1.556298e+003,9.211084e-004
1.558226e+003,1.997433e-003
1.560155e+003,1.900979e-003
1.562083e+003,1.018043e-003
1.564012e+003,1.033752e-003
1.565940e+003,1.222842e-003
1.567869e+003,1.562925e-003
1.569797e+003,2.044370e-003
1.571726e+003,1.778362e-003
1.573654e+003,1.860979e-003
1.575583e+003,2.696952e-003
1.577511e+003,2.685583e-003
1.579440e+003,2.317237e-003
1.581368e+003,2.433209e-003
1.583297e+003,2.413218e-003
1.585225e+003,2.552612e-003
1.587154e+003,2.707254e-003
1.589082e+003,2.746199e-003
1.591010e+003,2.769307e-003
1.592939e+003,2.786580e-003
1.594868e+003,2.834903e-003
1.596796e+003,2.980138e-003
1.598724e+003,2.929931e-003
1.600653e+003,2.827600e-003
1.602582e+003,2.802754e-003
1.604510e+003,2.705221e-003
1.606438e+003,2.557945e-003
1.608367e+003,2.439573e-003
1.610296e+003,2.135995e-003
1.612224e+003,1.897451e-003
1.614152e+003,1.951433e-003
1.616081e+003,2.138559e-003
1.618010e+003,1.750948e-003
1.619938e+003,1.266571e-003
1.621866e+003,1.319245e-003
1.623795e+003,1.188984e-003
1.625724e+003,8.370762e-004
1.627652e+003,6.856867e-004
1.629580e+003,3.870786e-004
1.631509e+003,8.887459e-005
1.633438e+003,3.127654e-004
1.635366e+003,8.300051e-004
1.637294e+003,3.987855e-004
1.639223e+003,-1.885249e-004
1.641151e+003,-4.099396e-004
1.643080e+003,-5.518942e-004
1.645008e+003,-2.605542e-004
1.646937e+003,-8.514614e-005
1.648865e+003,-6.251205e-004
1.650794e+003,-4.593261e-004
1.652722e+003,6.066107e-004
1.654651e+003,-9.054589e-005
1.656579e+003,-9.226306e-004
1.658508e+003,-9.797610e-004
1.660436e+003,-8.374832e-004
1.662365e+003,-5.265119e-004
1.664293e+003,-5.195953e-004
1.666222e+003,-5.850511e-004
1.668150e+003,-1.188687e-004
1.670079e+003,2.056122e-004
1.672007e+003,-7.931565e-005
1.673936e+003,6.057325e-005
1.675864e+003,1.282477e-004
1.677793e+003,-3.945134e-004
1.679721e+003,-5.226400e-004
1.681650e+003,-3.076731e-004
1.683578e+003,4.793495e-004
1.685507e+003,2.619704e-004
1.687435e+003,-5.005656e-004
1.689364e+003,-6.734902e-004
1.691292e+003,-6.878147e-004
1.693221e+003,-5.013929e-004
1.695149e+003,2.135683e-004
1.697078e+003,3.022876e-004
1.699006e+003,5.098676e-004
1.700935e+003,7.342743e-004
1.702863e+003,-1.739502e-005
1.704792e+003,-7.934878e-005
1.706720e+003,-1.704412e-004
1.708649e+003,-3.994459e-004
1.710577e+003,-6.314731e-004
1.712506e+003,-5.585788e-004
1.714434e+003,-1.906777e-004
1.716363e+003,2.578594e-004
1.718291e+003,2.097891e-004
1.720220e+003,-3.834235e-004
1.722148e+003,-6.252198e-004
1.724077e+003,-6.167827e-004
1.726005e+003,-6.233008e-004
1.727934e+003,-5.717489e-004
1.729862e+003,-5.187679e-004
1.731791e+003,-2.907533e-004
1.733719e+003,2.536157e-004
1.735648e+003,-1.145624e-004
1.737576e+003,-4.777950e-004
1.739505e+003,-2.543287e-004
1.741433e+003,-3.374716e-004
1.743362e+003,-3.539923e-004
1.745290e+003,-4.338392e-004
1.747219e+003,-4.011342e-004
1.749147e+003,-1.916050e-004
1.751076e+003,-3.555137e-005
1.753004e+003,-3.549524e-004
1.754933e+003,-5.254860e-004
1.756861e+003,-3.418750e-004
1.758790e+003,-3.507809e-004
1.760718e+003,-3.706448e-004
1.762647e+003,-4.473441e-004
1.764575e+003,-7.616135e-004
1.766504e+003,-7.078286e-004
1.768432e+003,-4.843814e-004
1.770361e+003,-3.735250e-004
1.772289e+003,-1.777940e-004
1.774218e+003,-3.834566e-004
1.776146e+003,-6.846720e-004
1.778075e+003,-7.840384e-004
1.780003e+003,-7.070347e-004
1.781932e+003,-7.029658e-004
1.783860e+003,-7.395182e-004
1.785789e+003,-7.255592e-004
1.787717e+003,-6.482142e-004
1.789646e+003,-5.522582e-004
1.791574e+003,-3.865022e-004
1.793503e+003,-4.274837e-004
1.795431e+003,-6.280983e-004
1.797360e+003,-6.701819e-004
1.799288e+003,-5.920660e-004
1.801217e+003,-6.279991e-004
1.803145e+003,-7.881396e-004
1.805074e+003,-8.137712e-004
1.807002e+003,-8.115554e-004
1.808931e+003,-8.066937e-004
1.810859e+003,-8.414185e-004
1.812788e+003,-8.697916e-004
1.814716e+003,-8.858953e-004
1.816645e+003,-9.525522e-004
1.818573e+003,-9.543376e-004
1.820502e+003,-9.199855e-004
1.822430e+003,-9.216056e-004
1.824359e+003,-8.292817e-004
1.826287e+003,-7.875112e-004
1.828216e+003,-6.482804e-004
1.830144e+003,-5.695981e-004
1.832073e+003,-8.999483e-004
1.834001e+003,-9.801246e-004
1.835930e+003,-9.111573e-004
1.837858e+003,-9.932490e-004
1.839787e+003,-1.049973e-003
1.841715e+003,-9.793973e-004
1.843644e+003,-6.193304e-004
1.845572e+003,-7.297271e-004
1.847501e+003,-1.041743e-003
1.849429e+003,-1.079357e-003
1.851358e+003,-1.019728e-003
1.853286e+003,-9.743061e-004
1.855215e+003,-9.792981e-004
1.857143e+003,-9.714960e-004
1.859072e+003,-9.278547e-004
1.861000e+003,-9.254741e-004
1.862929e+003,-9.952656e-004
1.864857e+003,-9.588339e-004
1.866786e+003,-8.369540e-004
1.868714e+003,-7.042559e-004
1.870643e+003,-8.819273e-004
1.872571e+003,-1.121529e-003
1.874500e+003,-1.118753e-003
1.876428e+003,-1.055758e-003
1.878357e+003,-9.850835e-004
1.880285e+003,-9.963565e-004
1.882214e+003,-1.050271e-003
1.884142e+003,-1.000687e-003
1.886071e+003,-1.019496e-003
1.887999e+003,-1.058072e-003
1.889928e+003,-1.031430e-003
1.891856e+003,-1.069012e-003
1.893785e+003,-1.077440e-003
1.895713e+003,-1.093437e-003
1.897642e+003,-1.093867e-003
1.899570e+003,-9.749673e-004
1.901499e+003,-9.149928e-004
1.903427e+003,-9.235233e-004
1.905356e+003,-9.469648e-004
1.907284e+003,-9.969515e-004
1.909213e+003,-1.005216e-003
1.911141e+003,-1.040189e-003
1.913070e+003,-1.004389e-003
1.914998e+003,-9.200517e-004
1.916927e+003,-7.717346e-004
1.918855e+003,-6.695533e-004
1.920784e+003,-7.117321e-004
1.922712e+003,-8.763389e-004
1.924641e+003,-1.028488e-003
1.926569e+003,-9.927861e-004
1.928498e+003,-9.819429e-004
1.930426e+003,-1.003629e-003
1.932355e+003,-1.017216e-003
1.934283e+003,-1.015298e-003
1.936212e+003,-9.679255e-004
1.938140e+003,-1.014769e-003
1.940069e+003,-1.003166e-003
1.941997e+003,-8.606317e-004
1.943926e+003,-8.922440e-004
1.945854e+003,-9.487171e-004
1.947783e+003,-9.829017e-004
1.949711e+003,-1.019860e-003
1.951640e+003,-1.002075e-003
1.953568e+003,-1.012918e-003
1.955497e+003,-1.026571e-003
1.957425e+003,-1.086563e-003
1.959354e+003,-1.103088e-003
1.961282e+003,-1.077903e-003
1.963211e+003,-1.127941e-003
1.965139e+003,-1.148695e-003
1.967068e+003,-1.088215e-003
1.968996e+003,-1.201566e-003
1.970925e+003,-1.243957e-003
1.972853e+003,-1.225521e-003
1.974782e+003,-1.227636e-003
1.976710e+003,-1.160822e-003
1.978639e+003,-1.040255e-003
1.980567e+003,-1.056154e-003
1.982496e+003,-1.113003e-003
1.984424e+003,-1.062864e-003
1.986353e+003,-1.023166e-003
1.988281e+003,-1.074598e-003
1.990210e+003,-1.067426e-003
1.992138e+003,-9.881249e-004
1.994067e+003,-1.039693e-003
1.995995e+003,-1.110524e-003
1.997924e+003,-1.150810e-003
1.999852e+003,-1.112540e-003
2.001781e+003,-1.172851e-003
2.003709e+003,-1.226777e-003
2.005638e+003,-1.164590e-003
2.007566e+003,-1.108971e-003
2.009495e+003,-1.120769e-003
2.011423e+003,-1.178799e-003
2.013352e+003,-1.163764e-003
2.015280e+003,-1.081142e-003
2.017208e+003,-1.048189e-003
2.019137e+003,-1.063393e-003
2.021066e+003,-1.082398e-003
2.022994e+003,-1.125859e-003
2.024922e+003,-1.108277e-003
2.026851e+003,-1.116076e-003
2.028780e+003,-1.158146e-003
2.030708e+003,-1.168886e-003
2.032636e+003,-1.107087e-003
2.034565e+003,-1.065244e-003
2.036494e+003,-1.102030e-003
2.038422e+003,-1.153288e-003
2.040350e+003,-1.169513e-003
2.042279e+003,-1.081836e-003
2.044208e+003,-1.109467e-003
2.046136e+003,-1.157518e-003
2.048064e+003,-1.105798e-003
2.049993e+003,-1.008422e-003
2.051921e+003,-1.003365e-003
2.053850e+003,-1.002241e-003
2.055778e+003,-1.024091e-003
2.057707e+003,-1.005216e-003
2.059635e+003,-9.750665e-004
2.061564e+003,-1.011960e-003
2.063492e+003,-1.132006e-003
2.065421e+003,-1.088843e-003
2.067349e+003,-9.085783e-004
2.069278e+003,-9.085122e-004
2.071206e+003,-9.025935e-004
2.073135e+003,-8.651951e-004
2.075063e+003,-8.811006e-004
2.076992e+003,-8.927730e-004
2.078920e+003,-8.910206e-004
2.080849e+003,-8.569611e-004
2.082777e+003,-8.159209e-004
2.084706e+003,-9.217048e-004
2.086634e+003,-1.016654e-003
2.088563e+003,-1.000224e-003
2.090491e+003,-9.513951e-004
2.092420e+003,-9.241185e-004
2.094348e+003,-8.514386e-004
2.096277e+003,-8.059000e-004
2.098205e+003,-8.492560e-004
2.100134e+003,-8.764051e-004
2.102062e+003,-8.251809e-004
2.103991e+003,-8.578870e-004
2.105919e+003,-8.515378e-004
2.107848e+003,-7.375004e-004
2.109776e+003,-8.111254e-004
2.111705e+003,-9.342689e-004
2.113633e+003,-9.164807e-004
2.115562e+003,-8.220391e-004
2.117490e+003,-7.796726e-004
2.119419e+003,-7.369712e-004
2.121347e+003,-7.595959e-004
2.123276e+003,-8.517362e-004
2.125204e+003,-8.004430e-004
2.127133e+003,-6.901966e-004
2.129061e+003,-6.467254e-004
2.130990e+003,-5.925292e-004
2.132918e+003,-6.605877e-004
2.134847e+003,-7.397166e-004
2.136775e+003,-7.407421e-004
2.138704e+003,-6.423913e-004
2.140632e+003,-6.216465e-004
2.142561e+003,-7.168263e-004
2.144489e+003,-7.489122e-004
2.146418e+003,-7.457036e-004
2.148346e+003,-7.206305e-004
2.150275e+003,-7.093172e-004
2.152203e+003,-5.549387e-004
2.154132e+003,-5.234673e-004
2.156060e+003,-6.553605e-004
2.157989e+003,-6.978053e-004
2.159917e+003,-6.802721e-004
2.161846e+003,-7.574459e-004
2.163774e+003,-7.335973e-004
2.165703e+003,-6.290248e-004
2.167631e+003,-5.590751e-004
2.169560e+003,-5.760838e-004
2.171488e+003,-6.126468e-004
2.173417e+003,-6.801728e-004
2.175345e+003,-7.069355e-004
2.177274e+003,-6.645577e-004
2.179202e+003,-6.313077e-004
2.181131e+003,-6.375278e-004
2.183059e+003,-6.004043e-004
2.184988e+003,-5.406759e-004
2.186916e+003,-5.462024e-004
2.188845e+003,-5.866063e-004
2.190773e+003,-6.321017e-004
2.192702e+003,-6.152938e-004
2.194630e+003,-5.485519e-004
2.196559e+003,-5.721129e-004
2.198487e+003,-5.781022e-004
2.200416e+003,-6.124814e-004
2.202344e+003,-6.096028e-004
2.204273e+003,-6.112902e-004
2.206201e+003,-6.309106e-004
2.208130e+003,-5.794590e-004
2.210058e+003,-5.515302e-004
2.211987e+003,-5.836613e-004
2.213915e+003,-6.194296e-004
2.215844e+003,-5.450772e-004
2.217772e+003,-5.518611e-004
2.219701e+003,-6.448727e-004
2.221629e+003,-7.098796e-004
2.223558e+003,-7.012126e-004
2.225486e+003,-6.415642e-004
2.227415e+003,-6.482804e-004
2.229343e+003,-6.320355e-004
2.231272e+003,-6.572132e-004
2.233200e+003,-5.980220e-004
2.235129e+003,-5.298875e-004
2.237057e+003,-5.672156e-004
2.238986e+003,-6.509933e-004
2.240914e+003,-6.759383e-004
2.242843e+003,-6.083454e-004
2.244771e+003,-5.759845e-004
2.246700e+003,-6.117204e-004
2.248628e+003,-5.958050e-004
2.250557e+003,-6.346162e-004
2.252485e+003,-7.004848e-004
2.254414e+003,-6.789818e-004
2.256342e+003,-6.450712e-004
2.258271e+003,-6.768976e-004
2.260199e+003,-6.876493e-004
2.262128e+003,-6.680646e-004
2.264056e+003,-6.903951e-004
2.265985e+003,-7.016095e-004
2.267913e+003,-6.711082e-004
2.269842e+003,-6.708435e-004
2.271770e+003,-6.060293e-004
2.273699e+003,-6.648555e-004
2.275627e+003,-7.446121e-004
2.277556e+003,-7.111366e-004
2.279484e+003,-6.858629e-004
2.281413e+003,-6.562868e-004
2.283341e+003,-7.205973e-004
2.285270e+003,-7.687578e-004
2.287198e+003,-7.957466e-004
2.289127e+003,-7.684933e-004
2.291055e+003,-7.855929e-004
2.292984e+003,-8.008399e-004
2.294912e+003,-8.100340e-004
2.296841e+003,-7.749099e-004
2.298769e+003,-7.504668e-004
2.300698e+003,-8.477017e-004
2.302626e+003,-8.925747e-004
2.304555e+003,-9.283506e-004
2.306483e+003,-9.045444e-004
2.308412e+003,-9.526845e-004
2.310340e+003,-1.045214e-003
2.312269e+003,-9.631318e-004
2.314197e+003,-7.679641e-004
2.316125e+003,-5.782016e-004
2.318054e+003,-5.491476e-004
2.319983e+003,-5.929594e-004
2.321911e+003,-5.612592e-004
2.323840e+003,-4.471786e-004
2.325768e+003,-3.657120e-004
2.327697e+003,-2.795944e-004
2.329625e+003,6.925070e-006
2.331553e+003,7.760686e-005
2.333482e+003,-1.004839e-004
2.335411e+003,-4.949943e-005
2.337339e+003,6.763184e-005
2.339268e+003,7.240391e-005
2.341196e+003,-2.836181e-005
2.343125e+003,-4.042165e-005
2.345053e+003,-1.411612e-004
2.346981e+003,-3.658776e-004
2.348910e+003,-6.637637e-004
2.350839e+003,-6.179739e-004
2.352767e+003,-2.754553e-004
2.354696e+003,3.340040e-005
2.356624e+003,1.725964e-004
2.358552e+003,1.929824e-004
2.360481e+003,2.471508e-004
2.362409e+003,3.324948e-004
2.364338e+003,2.903181e-004
2.366267e+003,1.323907e-004
2.368195e+003,1.278993e-005
2.370124e+003,-8.024323e-005
2.372052e+003,-2.311478e-004
2.373980e+003,-3.762728e-004
2.375909e+003,-4.992086e-004
2.377838e+003,-6.503978e-004
2.379766e+003,-8.872510e-004
2.381695e+003,-9.981416e-004
2.383623e+003,-8.474041e-004
2.385552e+003,-7.709739e-004
2.387480e+003,-8.264707e-004
2.389408e+003,-7.414036e-004
2.391337e+003,-7.014772e-004
2.393266e+003,-7.369050e-004
2.395194e+003,-7.260223e-004
2.397123e+003,-6.926777e-004
2.399051e+003,-6.058307e-004
2.400979e+003,-5.926285e-004
2.402908e+003,-6.767984e-004
2.404836e+003,-6.354103e-004
2.406765e+003,-6.501331e-004
2.408694e+003,-7.269485e-004
2.410622e+003,-6.576763e-004
2.412551e+003,-6.348809e-004
2.414479e+003,-5.845879e-004
2.416407e+003,-5.052983e-004
2.418336e+003,-4.422798e-004
2.420264e+003,-5.205219e-004
2.422193e+003,-6.000734e-004
2.424122e+003,-5.554020e-004
2.426050e+003,-5.598693e-004
2.427979e+003,-6.217127e-004
2.429907e+003,-5.816760e-004
2.431835e+003,-5.015915e-004
2.433764e+003,-5.367047e-004
2.435692e+003,-5.461031e-004
2.437621e+003,-5.137375e-004
2.439550e+003,-5.679766e-004
2.441478e+003,-5.932572e-004
2.443406e+003,-5.461031e-004
2.445335e+003,-5.652963e-004
2.447263e+003,-5.850511e-004
2.449192e+003,-5.391205e-004
2.451121e+003,-5.946138e-004
2.453049e+003,-6.140365e-004
2.454978e+003,-5.330645e-004
2.456906e+003,-4.832892e-004
2.458834e+003,-4.460863e-004
2.460763e+003,-4.319193e-004
2.462691e+003,-5.487836e-004
2.464620e+003,-5.094351e-004
2.466549e+003,-4.046100e-004
2.468477e+003,-4.537655e-004
2.470406e+003,-5.435219e-004
2.472334e+003,-5.050004e-004
2.474262e+003,-4.482709e-004
2.476191e+003,-4.461525e-004
2.478119e+003,-4.799794e-004
2.480048e+003,-4.846792e-004
2.481977e+003,-3.954734e-004
2.483905e+003,-3.613751e-004
2.485833e+003,-3.739885e-004
2.487762e+003,-3.133681e-004
2.489690e+003,-3.705455e-004
2.491619e+003,-4.036831e-004
2.493547e+003,-3.277045e-004
2.495476e+003,-2.647266e-004
2.497405e+003,-2.591965e-004
2.499333e+003,-3.425040e-004
2.501261e+003,-3.699496e-004
2.503190e+003,-3.724326e-004
2.505118e+003,-3.480661e-004
2.507047e+003,-3.328033e-004
2.508975e+003,-3.443580e-004
2.510904e+003,-3.950431e-004
2.512833e+003,-3.306843e-004
2.514761e+003,-2.774752e-004
2.516689e+003,-4.039480e-004
2.518618e+003,-3.747830e-004
2.520546e+003,-2.899255e-004
2.522475e+003,-3.438945e-004
2.524403e+003,-3.361141e-004
2.526332e+003,-3.031700e-004
2.528260e+003,-2.959187e-004
2.530189e+003,-2.747599e-004
2.532117e+003,-2.844951e-004
2.534046e+003,-3.276052e-004
2.535974e+003,-3.123416e-004
2.537903e+003,-3.321411e-004
2.539831e+003,-2.234316e-004
2.541760e+003,-1.668972e-004
2.543688e+003,-1.727265e-004
2.545617e+003,-1.347021e-004
2.547545e+003,-8.488111e-005
2.549474e+003,-1.091629e-004
2.551402e+003,-1.708718e-004
2.553331e+003,-2.234978e-004
2.555259e+003,-1.048897e-004
2.557188e+003,-6.692560e-005
2.559116e+003,-1.036972e-004
2.561045e+003,-1.051878e-004
2.562973e+003,-1.011464e-004
2.564902e+003,-5.274619e-005
2.566830e+003,-1.729562e-005
2.568759e+003,-1.140324e-004
2.570687e+003,-1.726272e-004
2.572616e+003,-8.749819e-005
2.574544e+003,-8.647899e-006
2.576473e+003,-7.050351e-005
2.578401e+003,-1.052541e-004
2.580330e+003,-1.211874e-004
2.582258e+003,-3.250328e-005
2.584187e+003,5.023411e-005
2.586115e+003,-4.721344e-005
2.588044e+003,-1.219161e-004
2.589972e+003,-2.991901e-005
2.591901e+003,3.876856e-005
2.593829e+003,6.262379e-006
2.595758e+003,-1.269015e-005
2.597686e+003,-8.438420e-005
2.599615e+003,-1.555033e-004
2.601543e+003,-4.645144e-005
2.603472e+003,5.686173e-005
2.605400e+003,1.085938e-004
2.607329e+003,2.006730e-004
2.609257e+003,3.236082e-004
2.611186e+003,2.935011e-004
2.613114e+003,2.353817e-004
2.615043e+003,2.569974e-004
2.616971e+003,2.648548e-004
2.618900e+003,3.330254e-004
2.620828e+003,4.627313e-004
2.622757e+003,5.908503e-004
2.624685e+003,5.850109e-004
2.626614e+003,5.184927e-004
2.628542e+003,5.273501e-004
2.630471e+003,5.743938e-004
2.632399e+003,6.575455e-004
2.634328e+003,7.115396e-004
2.636256e+003,6.996252e-004
2.638185e+003,7.922281e-004
2.640113e+003,8.535427e-004
2.642042e+003,8.643990e-004
2.643970e+003,9.266867e-004
2.645899e+003,1.012032e-003
2.647827e+003,1.051787e-003
2.649756e+003,1.056969e-003
2.651684e+003,1.116926e-003
2.653613e+003,1.172804e-003
2.655541e+003,1.244174e-003
2.657470e+003,1.214701e-003
2.659398e+003,1.182207e-003
2.661327e+003,1.250156e-003
2.663255e+003,1.251717e-003
2.665184e+003,1.200547e-003
2.667112e+003,1.326358e-003
2.669041e+003,1.417831e-003
2.670969e+003,1.501776e-003
2.672898e+003,1.564089e-003
2.674826e+003,1.576193e-003
2.676755e+003,1.608984e-003
2.678683e+003,1.630235e-003
2.680612e+003,1.659338e-003
2.682540e+003,1.670879e-003
2.684469e+003,1.686014e-003
2.686397e+003,1.807973e-003
2.688326e+003,1.947606e-003
2.690254e+003,2.058652e-003
2.692183e+003,1.971903e-003
2.694111e+003,1.896153e-003
2.696040e+003,1.978760e-003
2.697968e+003,2.122376e-003
2.699897e+003,2.231969e-003
2.701825e+003,2.230437e-003
2.703754e+003,2.252851e-003
2.705682e+003,2.369805e-003
2.707611e+003,2.394093e-003
2.709539e+003,2.407453e-003
2.711468e+003,2.484559e-003
2.713396e+003,2.566177e-003
2.715325e+003,2.615076e-003
2.717253e+003,2.638543e-003
2.719182e+003,2.777443e-003
2.721110e+003,2.876361e-003
2.723039e+003,3.022777e-003
2.724967e+003,3.198348e-003
2.726896e+003,3.227756e-003
2.728824e+003,3.294190e-003
2.730753e+003,3.448295e-003
2.732681e+003,3.566641e-003
2.734610e+003,3.679605e-003
2.736538e+003,3.734912e-003
2.738467e+003,3.837090e-003
2.740395e+003,3.975638e-003
2.742324e+003,4.027204e-003
2.744252e+003,4.144972e-003
2.746181e+003,4.258555e-003
2.748109e+003,4.300216e-003
2.750038e+003,4.458762e-003
2.751966e+003,4.615960e-003
2.753895e+003,4.679358e-003
2.755823e+003,4.759380e-003
2.757752e+003,4.882071e-003
2.759680e+003,5.039959e-003
2.761609e+003,5.284898e-003
2.763537e+003,5.691455e-003
2.765466e+003,6.013085e-003
2.767394e+003,6.319285e-003
2.769323e+003,6.698984e-003
2.771251e+003,7.176593e-003
2.773180e+003,7.599964e-003
2.775108e+003,8.032693e-003
2.777037e+003,8.699379e-003
2.778965e+003,9.355580e-003
2.780894e+003,1.003637e-002
2.782822e+003,1.084463e-002
2.784750e+003,1.166820e-002
2.786679e+003,1.230818e-002
2.788608e+003,1.302377e-002
2.790536e+003,1.389607e-002
2.792465e+003,1.481332e-002
2.794393e+003,1.568095e-002
2.796322e+003,1.647931e-002
2.798250e+003,1.718164e-002
2.800178e+003,1.774178e-002
2.802107e+003,1.832562e-002
2.804036e+003,1.892043e-002
2.805964e+003,1.935843e-002
2.807893e+003,1.971628e-002
2.809821e+003,1.998324e-002
2.811750e+003,2.015417e-002
2.813678e+003,2.015563e-002
2.815606e+003,1.998462e-002
2.817535e+003,1.969596e-002
2.819464e+003,1.951480e-002
2.821392e+003,1.921869e-002
2.823321e+003,1.875973e-002
2.825249e+003,1.830789e-002
2.827177e+003,1.768318e-002
2.829106e+003,1.713218e-002
2.831034e+003,1.653506e-002
2.832963e+003,1.593530e-002
2.834892e+003,1.559497e-002
2.836820e+003,1.508891e-002
2.838749e+003,1.439376e-002
2.840677e+003,1.369831e-002
2.842605e+003,1.326728e-002
2.844534e+003,1.282050e-002
2.846462e+003,1.214852e-002
2.848391e+003,1.170204e-002
2.850320e+003,1.138236e-002
2.852248e+003,1.107002e-002
2.854177e+003,1.085570e-002
2.856105e+003,1.062699e-002
2.858033e+003,1.043393e-002
2.859962e+003,1.048311e-002
2.861890e+003,1.040267e-002
2.863819e+003,1.036541e-002
2.865748e+003,1.040091e-002
2.867676e+003,1.029806e-002
2.869604e+003,1.039697e-002
2.871533e+003,1.056306e-002
2.873461e+003,1.072659e-002
2.875390e+003,1.087177e-002
2.877319e+003,1.106009e-002
2.879247e+003,1.124258e-002
2.881176e+003,1.120624e-002
2.883104e+003,1.117982e-002
2.885032e+003,1.133015e-002
2.886961e+003,1.122891e-002
2.888889e+003,1.115476e-002
2.890818e+003,1.113406e-002
2.892747e+003,1.101163e-002
2.894675e+003,1.084299e-002
2.896604e+003,1.073685e-002
2.898532e+003,1.072883e-002
2.900460e+003,1.075291e-002
2.902389e+003,1.070173e-002
2.904317e+003,1.043936e-002
2.906246e+003,1.045134e-002
2.908175e+003,1.069171e-002
2.910103e+003,1.068203e-002
2.912031e+003,1.062821e-002
2.913960e+003,1.063093e-002
2.915888e+003,1.077166e-002
2.917817e+003,1.088502e-002
2.919745e+003,1.112393e-002
2.921674e+003,1.137889e-002
2.923603e+003,1.171586e-002
2.925531e+003,1.203483e-002
2.927459e+003,1.219783e-002
2.929388e+003,1.233181e-002
2.931316e+003,1.249822e-002
2.933245e+003,1.263301e-002
2.935173e+003,1.265566e-002
2.937102e+003,1.264420e-002
2.939031e+003,1.254525e-002
2.940959e+003,1.230525e-002
2.942887e+003,1.198346e-002
2.944816e+003,1.171184e-002
2.946744e+003,1.149026e-002
2.948673e+003,1.099090e-002
2.950601e+003,1.021762e-002
2.952530e+003,9.480389e-003
2.954458e+003,8.790289e-003
2.956387e+003,8.017538e-003
2.958315e+003,7.392001e-003
2.960244e+003,6.587485e-003
2.962172e+003,5.751316e-003
2.964101e+003,5.199011e-003
2.966029e+003,4.585889e-003
2.967958e+003,3.895827e-003
2.969886e+003,3.242244e-003
2.971815e+003,2.721425e-003
2.973743e+003,2.320235e-003
2.975672e+003,2.002892e-003
2.977600e+003,1.779626e-003
2.979529e+003,1.535226e-003
2.981457e+003,1.327222e-003
2.983386e+003,1.087129e-003
2.985314e+003,8.683830e-004
2.987243e+003,7.141284e-004
2.989171e+003,6.043212e-004
2.991100e+003,4.005764e-004
2.993028e+003,3.630357e-004
2.994957e+003,3.894664e-004
2.996885e+003,3.036471e-004
2.998814e+003,1.874134e-004
3.000742e+003,1.449856e-004
3.002671e+003,8.194821e-005
3.004599e+003,9.815412e-005
3.006528e+003,1.783972e-004
3.008456e+003,1.425660e-004
3.010385e+003,9.129387e-005
3.012313e+003,1.328878e-004
3.014242e+003,1.079641e-004
3.016170e+003,7.190682e-005
3.018099e+003,1.317941e-004
3.020027e+003,-6.020038e-005
3.021956e+003,-1.202599e-004
3.023884e+003,1.050362e-005
3.025813e+003,5.864765e-006
3.027741e+003,-1.696794e-004
3.029670e+003,-2.336978e-004
3.031598e+003,-1.431817e-004
3.033527e+003,-6.818450e-005
3.035455e+003,-1.915105e-005
3.037384e+003,-5.533349e-006
3.039312e+003,3.008675e-005
3.041241e+003,-3.084670e-005
3.043169e+003,-2.135957e-004
3.045098e+003,-2.728725e-004
3.047026e+003,-2.481362e-004
3.048955e+003,-2.134964e-004
3.050883e+003,-2.210141e-004
3.052812e+003,-2.189277e-004
3.054740e+003,-2.090586e-004
3.056669e+003,-1.379482e-004
3.058597e+003,-1.816359e-004
3.060526e+003,-2.519113e-004
3.062454e+003,-1.007489e-004
3.064383e+003,-3.956024e-005
3.066311e+003,-9.577994e-005
3.068240e+003,8.614936e-006
3.070168e+003,-2.302755e-005
3.072097e+003,-1.834907e-004
3.074025e+003,-2.674750e-004
3.075954e+003,-1.709049e-004
3.077882e+003,-7.056977e-005
3.079811e+003,-3.495501e-005
3.081739e+003,-8.713378e-005
3.083668e+003,-1.637838e-004
3.085596e+003,-2.324062e-004
3.087525e+003,-2.718128e-004
3.089453e+003,-1.943539e-004
3.091382e+003,-6.238691e-005
3.093310e+003,-5.291184e-005
3.095239e+003,-6.891334e-005
3.097167e+003,-9.001586e-005
3.099096e+003,1.709750e-005
3.101024e+003,4.632386e-005
3.102953e+003,3.366549e-005
3.104881e+003,-2.594318e-005
3.106810e+003,4.688720e-005
3.108738e+003,4.526346e-005
3.110667e+003,-3.396106e-005
3.112595e+003,-4.452986e-005
3.114524e+003,6.975276e-005
3.116452e+003,7.727546e-005
3.118381e+003,8.019178e-005
3.120309e+003,1.644091e-004
3.122238e+003,1.527416e-004
3.124166e+003,1.305346e-004
3.126095e+003,1.370972e-004
3.128023e+003,1.021311e-004
3.129952e+003,9.291778e-005
3.131880e+003,1.322912e-004
3.133809e+003,3.440676e-004
3.135737e+003,4.918218e-004
3.137666e+003,4.736774e-004
3.139594e+003,4.500940e-004
3.141523e+003,4.531124e-004
3.143451e+003,5.606583e-004
3.145380e+003,6.146736e-004
3.147308e+003,4.729808e-004
3.149237e+003,4.568604e-004
3.151165e+003,5.961922e-004
3.153094e+003,7.579395e-004
3.155022e+003,8.323289e-004
3.156951e+003,8.373418e-004
3.158879e+003,8.902626e-004
3.160808e+003,9.980166e-004
3.162736e+003,1.045975e-003
3.164665e+003,1.179183e-003
3.166593e+003,1.112607e-003
3.168522e+003,1.007316e-003
3.170450e+003,1.177588e-003
3.172379e+003,1.296015e-003
3.174307e+003,1.266904e-003
3.176236e+003,1.358896e-003
3.178164e+003,1.406895e-003
3.180093e+003,1.457491e-003
3.182021e+003,1.399016e-003
3.183950e+003,1.319345e-003
3.185878e+003,1.374452e-003
3.187807e+003,1.504203e-003
3.189735e+003,1.474048e-003
3.191664e+003,1.349258e-003
3.193592e+003,1.340450e-003
3.195521e+003,1.323167e-003
3.197449e+003,1.304523e-003
3.199378e+003,1.332905e-003
3.201306e+003,1.303825e-003
3.203235e+003,1.320176e-003
3.205163e+003,1.400978e-003
3.207092e+003,1.356537e-003
3.209020e+003,1.363882e-003
3.210948e+003,1.329814e-003
3.212877e+003,1.399515e-003
3.214806e+003,1.584973e-003
3.216734e+003,1.508858e-003
3.218663e+003,1.462179e-003
3.220591e+003,1.595415e-003
3.222520e+003,1.687311e-003
3.224448e+003,1.635956e-003
3.226376e+003,1.563091e-003
3.228305e+003,1.661699e-003
3.230234e+003,1.864073e-003
3.232162e+003,1.843076e-003
3.234091e+003,1.884206e-003
3.236019e+003,2.007519e-003
3.237948e+003,1.964713e-003
3.239876e+003,2.026593e-003
3.241804e+003,2.266340e-003
3.243733e+003,2.446604e-003
3.245662e+003,2.538714e-003
3.247590e+003,2.671614e-003
3.249519e+003,2.763438e-003
3.251447e+003,2.746199e-003
3.253375e+003,2.634077e-003
3.255304e+003,2.728560e-003
3.257232e+003,2.970196e-003
3.259161e+003,3.125021e-003
3.261090e+003,3.193008e-003
3.263018e+003,3.256398e-003
3.264947e+003,3.163068e-003
3.266875e+003,3.045566e-003
3.268803e+003,3.263943e-003
3.270732e+003,3.421577e-003
3.272660e+003,3.340666e-003
3.274589e+003,3.333988e-003
3.276518e+003,3.440280e-003
3.278446e+003,3.467165e-003
3.280375e+003,3.527990e-003
3.282303e+003,3.452570e-003
3.284231e+003,3.531832e-003
3.286160e+003,3.524449e-003
3.288088e+003,3.366911e-003
3.290017e+003,3.246316e-003
3.291946e+003,3.342603e-003
3.293874e+003,3.344072e-003
3.295802e+003,3.192974e-003
3.297731e+003,3.139338e-003
3.299659e+003,3.110971e-003
3.301588e+003,2.895073e-003
3.303516e+003,2.667147e-003
3.305445e+003,2.584343e-003
3.307374e+003,2.591576e-003
3.309302e+003,2.510519e-003
3.311230e+003,2.431010e-003
3.313159e+003,2.363909e-003
3.315087e+003,2.224675e-003
3.317016e+003,2.150679e-003
3.318944e+003,2.053758e-003
3.320873e+003,1.973900e-003
3.322802e+003,1.877018e-003
3.324730e+003,1.730755e-003
3.326658e+003,1.533663e-003
3.328587e+003,1.501843e-003
3.330515e+003,1.473150e-003
3.332444e+003,1.444891e-003
3.334372e+003,1.422286e-003
3.336301e+003,1.447983e-003
3.338229e+003,1.500978e-003
3.340158e+003,1.518833e-003
3.342086e+003,1.656976e-003
3.344015e+003,1.637087e-003
3.345943e+003,1.700816e-003
3.347872e+003,1.792402e-003
3.349800e+003,1.748719e-003
3.351729e+003,1.759631e-003
3.353657e+003,1.730089e-003
3.355586e+003,1.653916e-003
3.357514e+003,1.574631e-003
3.359443e+003,1.422917e-003
3.361371e+003,1.328884e-003
3.363300e+003,1.383227e-003
3.365229e+003,1.337857e-003
3.367157e+003,1.120380e-003
3.369085e+003,8.422551e-004
3.371014e+003,6.553222e-004
3.372942e+003,6.230353e-004
3.374871e+003,4.921204e-004
3.376799e+003,4.581872e-004
3.378728e+003,2.528863e-004
3.380656e+003,-4.784292e-005
3.382585e+003,-2.135957e-004
3.384513e+003,-3.956721e-004
3.386442e+003,-4.740880e-004
3.388370e+003,-5.333954e-004
3.390299e+003,-7.722639e-004
3.392227e+003,-9.136372e-004
3.394156e+003,-1.057741e-003
3.396084e+003,-1.112904e-003
3.398013e+003,-1.208174e-003
3.399941e+003,-1.434552e-003
3.401870e+003,-1.415727e-003
3.403798e+003,-1.286179e-003
3.405727e+003,-1.277094e-003
3.407655e+003,-1.308775e-003
3.409584e+003,-1.356111e-003
3.411512e+003,-1.498846e-003
3.413441e+003,-1.640050e-003
3.415369e+003,-1.550751e-003
3.417298e+003,-1.408230e-003
3.419226e+003,-1.385375e-003
3.421155e+003,-1.426263e-003
3.423083e+003,-1.447035e-003
3.425012e+003,-1.522257e-003
3.426940e+003,-1.557981e-003
3.428869e+003,-1.553392e-003
3.430797e+003,-1.490063e-003
3.432726e+003,-1.474444e-003
3.434654e+003,-1.543355e-003
3.436583e+003,-1.784111e-003
3.438511e+003,-1.815986e-003
3.440440e+003,-1.607072e-003
3.442368e+003,-1.672595e-003
3.444297e+003,-1.715073e-003
3.446225e+003,-1.579209e-003
3.448154e+003,-1.500299e-003
3.450082e+003,-1.653649e-003
3.452011e+003,-1.744577e-003
3.453939e+003,-1.676655e-003
3.455868e+003,-1.606973e-003
3.457796e+003,-1.565343e-003
3.459725e+003,-1.608261e-003
3.461653e+003,-1.646057e-003
3.463582e+003,-1.604860e-003
3.465510e+003,-1.634867e-003
3.467439e+003,-1.745963e-003
3.469367e+003,-1.729990e-003
3.471296e+003,-1.546326e-003
3.473224e+003,-1.373056e-003
3.475153e+003,-1.435444e-003
3.477081e+003,-1.527936e-003
3.479010e+003,-1.683553e-003
3.480938e+003,-1.709462e-003
3.482867e+003,-1.848089e-003
3.484795e+003,-1.569107e-003
3.486724e+003,-1.359844e-003
3.488652e+003,-1.615061e-003
3.490581e+003,-1.663981e-003
3.492509e+003,-1.554812e-003
3.494438e+003,-1.578912e-003
3.496366e+003,-1.529818e-003
3.498295e+003,-1.557915e-003
3.500223e+003,-1.487719e-003
3.502152e+003,-1.545798e-003
3.504080e+003,-1.594429e-003
3.506009e+003,-1.643582e-003
3.507937e+003,-1.688405e-003
3.509866e+003,-1.663254e-003
3.511794e+003,-1.559368e-003
3.513723e+003,-1.544775e-003
3.515651e+003,-1.576073e-003
3.517580e+003,-1.544081e-003
3.519508e+003,-1.570395e-003
3.521437e+003,-1.637442e-003
3.523365e+003,-1.494191e-003
3.525294e+003,-1.490691e-003
3.527222e+003,-1.660416e-003
3.529151e+003,-1.758437e-003
3.531079e+003,-1.648599e-003
3.533008e+003,-1.551378e-003
3.534936e+003,-1.445714e-003
3.536865e+003,-1.459287e-003
3.538793e+003,-1.682134e-003
3.540722e+003,-1.800147e-003
3.542650e+003,-1.740617e-003
3.544579e+003,-1.617702e-003
3.546507e+003,-1.396275e-003
3.548436e+003,-1.362156e-003
3.550364e+003,-1.355550e-003
3.552293e+003,-1.325722e-003
3.554221e+003,-1.401988e-003
3.556150e+003,-1.490955e-003
3.558078e+003,-1.570494e-003
3.560007e+003,-1.660251e-003
3.561935e+003,-1.643482e-003
3.563864e+003,-1.620640e-003
3.565792e+003,-1.498549e-003
3.567721e+003,-1.399676e-003
3.569649e+003,-1.590368e-003
3.571578e+003,-1.866928e-003
3.573506e+003,-1.765136e-003
3.575435e+003,-1.639356e-003
3.577363e+003,-1.613014e-003
3.579292e+003,-1.590434e-003
3.581220e+003,-1.621663e-003
3.583149e+003,-1.729858e-003
3.585077e+003,-1.674015e-003
3.587006e+003,-1.393698e-003
3.588934e+003,-1.520969e-003
3.590863e+003,-1.903713e-003
3.592791e+003,-1.821298e-003
3.594720e+003,-1.700683e-003
3.596648e+003,-1.868116e-003
3.598577e+003,-2.015465e-003
3.600505e+003,-1.832054e-003
3.602434e+003,-1.834991e-003
3.604362e+003,-1.994159e-003
3.606291e+003,-1.873659e-003
3.608219e+003,-1.532228e-003
3.610148e+003,-1.438845e-003
3.612076e+003,-1.535629e-003
3.614005e+003,-1.822321e-003
3.615933e+003,-1.968004e-003
3.617862e+003,-1.738637e-003
3.619790e+003,-1.726261e-003
3.621719e+003,-2.079080e-003
3.623647e+003,-2.227347e-003
3.625576e+003,-2.095370e-003
3.627504e+003,-1.579011e-003
3.629433e+003,-1.161516e-003
3.631361e+003,-1.786322e-003
3.633290e+003,-1.967014e-003
3.635218e+003,-1.946299e-003
3.637146e+003,-2.045872e-003
3.639075e+003,-2.144170e-003
3.641004e+003,-2.465154e-003
3.642932e+003,-2.639472e-003
3.644861e+003,-2.456489e-003
3.646789e+003,-1.917832e-003
3.648718e+003,-1.282347e-003
3.650646e+003,-1.394095e-003
3.652574e+003,-2.227710e-003
3.654503e+003,-2.371345e-003
3.656432e+003,-1.938350e-003
3.658360e+003,-2.191876e-003
3.660289e+003,-2.501130e-003
3.662217e+003,-2.683304e-003
3.664146e+003,-2.729206e-003
3.666074e+003,-2.817539e-003
3.668002e+003,-2.689429e-003
3.669931e+003,-2.069056e-003
3.671860e+003,-2.202129e-003
3.673788e+003,-2.152247e-003
3.675717e+003,-1.745600e-003
3.677645e+003,-2.174370e-003
3.679573e+003,-2.451778e-003
3.681502e+003,-2.569681e-003
3.683430e+003,-2.687684e-003
3.685359e+003,-2.702304e-003
3.687288e+003,-2.283482e-003
3.689216e+003,-2.051776e-003
3.691145e+003,-2.226029e-003
3.693073e+003,-2.390557e-003
3.695001e+003,-2.592177e-003
3.696930e+003,-2.550378e-003
3.698858e+003,-2.441432e-003
3.700787e+003,-2.274484e-003
3.702716e+003,-2.277945e-003
3.704644e+003,-2.355428e-003
3.706573e+003,-2.210733e-003
3.708501e+003,-1.977272e-003
3.710429e+003,-1.704347e-003
3.712358e+003,-1.609878e-003
3.714286e+003,-2.203612e-003
3.716215e+003,-2.475862e-003
3.718144e+003,-2.186370e-003
3.720072e+003,-2.119804e-003
3.722000e+003,-2.115121e-003
3.723929e+003,-2.116440e-003
3.725857e+003,-2.204634e-003
3.727786e+003,-2.426967e-003
3.729714e+003,-2.274220e-003
3.731643e+003,-1.766885e-003
3.733572e+003,-1.573960e-003
3.735500e+003,-1.239365e-003
3.737428e+003,-1.492705e-003
3.739357e+003,-1.997688e-003
3.741285e+003,-1.878475e-003
3.743214e+003,-1.013612e-003
3.745142e+003,-5.472944e-004
3.747071e+003,-1.225587e-003
3.749000e+003,-9.278547e-004
3.750928e+003,-5.258500e-004
3.752856e+003,-5.970293e-004
3.754785e+003,-1.135641e-003
3.756713e+003,-1.312178e-003
3.758642e+003,-1.195122e-003
3.760570e+003,-1.113928e-003
3.762499e+003,-1.326812e-003
3.764427e+003,-1.373056e-003
3.766356e+003,-1.332857e-003
3.768284e+003,-1.334905e-003
3.770213e+003,-9.805544e-004
3.772141e+003,-1.079952e-003
3.774070e+003,-1.366350e-003
3.775998e+003,-1.353898e-003
3.777927e+003,-1.171463e-003
3.779855e+003,-1.032554e-003
3.781784e+003,-1.300385e-003
3.783712e+003,-1.358324e-003
3.785641e+003,-1.228990e-003
3.787569e+003,-1.387192e-003
3.789498e+003,-1.717251e-003
3.791426e+003,-1.642360e-003
3.793355e+003,-1.495082e-003
3.795283e+003,-1.370413e-003
3.797212e+003,-1.380223e-003
3.799140e+003,-1.228660e-003
3.801069e+003,-7.297932e-004
3.802997e+003,-1.092446e-003
3.804926e+003,-1.389504e-003
3.806854e+003,-9.611151e-004
3.808783e+003,-1.266060e-003
3.810711e+003,-1.438746e-003
3.812640e+003,-1.406117e-003
3.814568e+003,-1.136765e-003
3.816497e+003,-5.692671e-004
3.818425e+003,-9.460391e-004
3.820354e+003,-8.549108e-004
3.822282e+003,-7.902894e-004
3.824211e+003,-1.449776e-003
3.826139e+003,-1.338472e-003
3.828068e+003,-1.313070e-003
3.829996e+003,-1.288756e-003
3.831925e+003,-1.089008e-003
3.833853e+003,-1.176486e-003
3.835782e+003,-1.056882e-003
3.837710e+003,-7.290986e-004
3.839639e+003,-9.638922e-004
3.841567e+003,-1.143440e-003
3.843496e+003,-1.044949e-003
3.845424e+003,-1.267547e-003
3.847353e+003,-1.659690e-003
3.849281e+003,-1.763849e-003
3.851210e+003,-9.869017e-004
3.853138e+003,3.578293e-004
3.855067e+003,4.870977e-005
3.856995e+003,-9.967200e-004
3.858924e+003,-1.255422e-003
3.860852e+003,-1.197535e-003
3.862781e+003,-9.712316e-004
3.864709e+003,-8.792819e-004
3.866638e+003,-1.284891e-003
3.868566e+003,-1.185143e-003
3.870495e+003,-7.375997e-004
3.872423e+003,-8.020305e-004
3.874352e+003,-1.010770e-003
3.876280e+003,-1.344715e-003
3.878209e+003,-1.364170e-003
3.880137e+003,-1.180286e-003
3.882066e+003,-1.293513e-003
3.883994e+003,-1.212205e-003
3.885923e+003,-7.352181e-004
3.887851e+003,-1.178237e-003
3.889780e+003,-1.196147e-003
3.891708e+003,-9.651816e-004
3.893637e+003,-1.330875e-003
3.895565e+003,-1.607435e-003
3.897494e+003,-1.368233e-003
3.899422e+003,-1.085340e-003
3.901351e+003,-1.235070e-003
3.903279e+003,-1.266556e-003
3.905208e+003,-1.176056e-003
3.907136e+003,-1.566598e-003
3.909065e+003,-1.742663e-003
3.910993e+003,-1.532063e-003
3.912922e+003,-1.366185e-003
3.914850e+003,-1.321163e-003
3.916779e+003,-1.251655e-003
3.918707e+003,-1.349406e-003
3.920636e+003,-1.502611e-003
3.922564e+003,-1.481940e-003
3.924493e+003,-1.341974e-003
3.926421e+003,-1.514002e-003
3.928350e+003,-1.651438e-003
3.930278e+003,-1.748537e-003
3.932207e+003,-1.651438e-003
3.934135e+003,-1.659888e-003
3.936064e+003,-1.658105e-003
3.937992e+003,-1.514266e-003
3.939921e+003,-1.420054e-003
3.941849e+003,-1.294009e-003
3.943778e+003,-1.374608e-003
3.945706e+003,-1.425272e-003
3.947635e+003,-1.381775e-003
3.949563e+003,-1.414704e-003
3.951492e+003,-1.562306e-003
3.953420e+003,-1.687943e-003
3.955349e+003,-1.778765e-003
3.957277e+003,-1.670417e-003
3.959206e+003,-1.705601e-003
3.961134e+003,-1.706624e-003
3.963063e+003,-1.446011e-003
3.964991e+003,-1.331403e-003
3.966920e+003,-1.389306e-003
3.968848e+003,-1.364468e-003
3.970777e+003,-1.289582e-003
3.972705e+003,-1.288393e-003
3.974634e+003,-1.293778e-003
3.976562e+003,-1.354988e-003
3.978491e+003,-1.414373e-003
3.980419e+003,-1.502974e-003
3.982348e+003,-1.439506e-003
3.984276e+003,-1.431250e-003
3.986205e+003,-1.592316e-003
3.988133e+003,-1.517304e-003
3.990062e+003,-1.287005e-003
3.991990e+003,-1.369885e-003
3.993919e+003,-1.523545e-003
3.995847e+003,-1.677183e-003
3.997776e+003,-1.676127e-003
3.999704e+003,-1.578747e-003
4.001633e+003,0.000000e+000
