3.991989e+002,1.390582e-002
4.011274e+002,9.304663e-003
4.030559e+002,-5.660243e-004
4.049844e+002,-7.769598e-003
4.069129e+002,1.656705e-006
4.088414e+002,1.174796e-002
4.107699e+002,5.669701e-003
4.126984e+002,-6.715145e-003
4.146269e+002,-3.723434e-003
4.165554e+002,4.727959e-003
4.184839e+002,9.594631e-003
4.204124e+002,1.790876e-002
4.223409e+002,2.013911e-002
4.242694e+002,1.393668e-002
4.261979e+002,1.958656e-003
4.281264e+002,6.861102e-003
4.300549e+002,1.282343e-002
4.319834e+002,1.211673e-002
4.339119e+002,1.501846e-002
4.358404e+002,1.642039e-002
4.377689e+002,1.595290e-002
4.396974e+002,6.784057e-003
4.416259e+002,-2.427528e-003
4.435544e+002,1.760529e-003
4.454829e+002,5.446119e-003
4.474114e+002,7.469997e-003
4.493399e+002,8.649724e-003
4.512684e+002,7.450750e-003
4.531969e+002,5.441053e-003
4.551254e+002,6.811420e-003
4.570539e+002,7.750343e-003
4.589824e+002,4.755896e-003
4.609109e+002,4.469374e-003
4.628394e+002,5.601829e-003
4.647679e+002,4.125938e-003
4.666964e+002,5.098423e-003
4.686249e+002,6.944557e-003
4.705533e+002,7.485773e-003
4.724819e+002,6.090362e-003
4.744103e+002,6.152765e-003
4.763389e+002,6.320362e-003
4.782673e+002,5.019780e-003
4.801959e+002,4.517751e-003
4.821243e+002,6.046749e-003
4.840529e+002,6.719140e-003
4.859813e+002,4.940615e-003
4.879099e+002,3.846316e-003
4.898383e+002,4.407112e-003
4.917668e+002,5.254109e-003
4.936953e+002,4.998831e-003
4.956238e+002,5.676080e-003
4.975523e+002,6.528988e-003
4.994808e+002,9.750921e-003
5.014093e+002,1.197808e-002
5.033378e+002,3.498495e-003
5.052663e+002,1.697390e-003
5.071948e+002,2.546379e-003
5.091233e+002,3.081337e-003
5.110518e+002,2.324832e-003
5.129803e+002,2.622542e-003
5.149088e+002,3.249688e-003
5.168373e+002,3.492316e-003
5.187658e+002,3.108401e-003
5.206943e+002,1.747455e-003
5.226228e+002,8.986960e-004
5.245513e+002,2.767740e-003
5.264798e+002,2.552912e-003
5.284083e+002,1.987713e-003
5.303368e+002,2.595976e-003
5.322653e+002,3.254929e-003
5.341938e+002,3.467633e-003
5.361223e+002,2.765972e-003
5.380508e+002,1.824709e-003
5.399792e+002,2.000262e-003
5.419078e+002,1.916055e-003
5.438363e+002,2.430510e-003
5.457648e+002,2.921858e-003
5.476932e+002,3.056311e-003
5.496218e+002,2.382899e-003
5.515503e+002,2.731061e-003
5.534788e+002,2.900476e-003
5.554072e+002,2.348817e-003
5.573358e+002,1.445689e-003
5.592643e+002,1.376646e-003
5.611927e+002,1.935724e-003
5.631212e+002,2.874193e-003
5.650497e+002,3.016638e-003
5.669783e+002,2.017406e-003
5.689067e+002,1.836288e-003
5.708352e+002,2.215983e-003
5.727637e+002,2.258313e-003
5.746923e+002,1.985250e-003
5.766207e+002,4.186847e-004
5.785492e+002,-1.623446e-003
5.804777e+002,-4.269964e-003
5.824063e+002,-2.481660e-003
5.843347e+002,5.738961e-004
5.862632e+002,1.709099e-003
5.881917e+002,2.081823e-003
5.901202e+002,2.382432e-003
5.920487e+002,2.774442e-003
5.939772e+002,1.902642e-004
5.959057e+002,-7.722639e-004
5.978342e+002,1.804878e-003
5.997627e+002,2.132931e-003
6.016912e+002,1.476907e-003
6.036197e+002,1.333204e-003
6.055482e+002,2.091479e-003
6.074767e+002,2.370505e-003
6.094052e+002,1.137223e-003
6.113337e+002,-6.857306e-004
6.132622e+002,-1.794901e-003
6.151907e+002,-1.911082e-004
6.171192e+002,5.157061e-004
6.190477e+002,2.986072e-004
6.209762e+002,1.147389e-003
6.229047e+002,1.795363e-003
6.248332e+002,1.864772e-003
6.267617e+002,8.970359e-004
6.286902e+002,7.205006e-004
6.306187e+002,1.780990e-003
6.325472e+002,2.155707e-003
6.344756e+002,2.085719e-003
6.364042e+002,2.186843e-003
6.383326e+002,1.773371e-003
6.402612e+002,1.622985e-003
6.421896e+002,2.168328e-003
6.441182e+002,2.685583e-003
6.460466e+002,2.131633e-003
6.479752e+002,1.295616e-003
6.499036e+002,9.400685e-004
6.518322e+002,1.248793e-003
6.537606e+002,2.022266e-003
6.556891e+002,2.242193e-003
6.576177e+002,1.950268e-003
6.595461e+002,1.746091e-003
6.614746e+002,2.061415e-003
6.634031e+002,2.287891e-003
6.653317e+002,2.250253e-003
6.672601e+002,1.634659e-003
6.691886e+002,1.908101e-003
6.711171e+002,2.298283e-003
6.730457e+002,2.366474e-003
6.749741e+002,2.724025e-003
6.769026e+002,3.248420e-003
6.788311e+002,2.936703e-003
6.807596e+002,2.310342e-003
6.826881e+002,2.151478e-003
6.846166e+002,2.302680e-003
6.865451e+002,3.067556e-003
6.884736e+002,3.457647e-003
6.904021e+002,2.933534e-003
6.923306e+002,2.711622e-003
6.942591e+002,3.185531e-003
6.961876e+002,2.883265e-003
6.981161e+002,2.619542e-003
7.000446e+002,2.960888e-003
7.019731e+002,3.018640e-003
7.039016e+002,2.919090e-003
7.058301e+002,2.660279e-003
7.077585e+002,2.474328e-003
7.096871e+002,2.672114e-003
7.116156e+002,3.207861e-003
7.135441e+002,3.414865e-003
7.154725e+002,2.929964e-003
7.174011e+002,2.246523e-003
7.193296e+002,2.664880e-003
7.212581e+002,2.996452e-003
7.231865e+002,3.089613e-003
7.251151e+002,3.354490e-003
7.270436e+002,2.792350e-003
7.289720e+002,2.532681e-003
7.309005e+002,2.830501e-003
7.328290e+002,3.117846e-003
7.347576e+002,3.310316e-003
7.366860e+002,3.847821e-003
7.386145e+002,4.151328e-003
7.405430e+002,3.671352e-003
7.424716e+002,3.424316e-003
7.444000e+002,3.997608e-003
7.463285e+002,4.311560e-003
7.482570e+002,4.145172e-003
7.501855e+002,4.518454e-003
7.521140e+002,4.948088e-003
7.540425e+002,4.999971e-003
7.559710e+002,4.821124e-003
7.578995e+002,4.413104e-003
7.598280e+002,4.073658e-003
7.617565e+002,4.045029e-003
7.636850e+002,4.591113e-003
7.656135e+002,5.502524e-003
7.675420e+002,5.491182e-003
7.694705e+002,5.155956e-003
7.713990e+002,5.201895e-003
7.733275e+002,5.071972e-003
7.752560e+002,4.491603e-003
7.771844e+002,4.225263e-003
7.791130e+002,4.322972e-003
7.810415e+002,4.790133e-003
7.829700e+002,5.093294e-003
7.848984e+002,5.180099e-003
7.868270e+002,5.088634e-003
7.887555e+002,4.842164e-003
7.906840e+002,4.590109e-003
7.926124e+002,4.832582e-003
7.945410e+002,5.216549e-003
7.964695e+002,5.333902e-003
7.983979e+002,5.175874e-003
8.003264e+002,5.243310e-003
8.022549e+002,5.412468e-003
8.041835e+002,5.604682e-003
8.061119e+002,5.923225e-003
8.080404e+002,6.540122e-003
8.099689e+002,6.442822e-003
8.118975e+002,6.086868e-003
8.138259e+002,6.615408e-003
8.157545e+002,7.169620e-003
8.176830e+002,6.489334e-003
8.196115e+002,5.569072e-003
8.215399e+002,5.373787e-003
8.234684e+002,5.170844e-003
8.253970e+002,4.655411e-003
8.273254e+002,3.983363e-003
8.292539e+002,3.920702e-003
8.311824e+002,3.714961e-003
8.331110e+002,3.158863e-003
8.350394e+002,2.879396e-003
8.369679e+002,3.417670e-003
8.388964e+002,3.485268e-003
8.408250e+002,3.384877e-003
8.427534e+002,3.400672e-003
8.446819e+002,3.609605e-003
8.466104e+002,3.688260e-003
8.485389e+002,3.471908e-003
8.504674e+002,3.002024e-003
8.523959e+002,2.961789e-003
8.543244e+002,2.984742e-003
8.562529e+002,3.157361e-003
8.581814e+002,3.139939e-003
8.601099e+002,3.355992e-003
8.620384e+002,3.306443e-003
8.639669e+002,2.962156e-003
8.658954e+002,3.031586e-003
8.678239e+002,3.458815e-003
8.697524e+002,3.422011e-003
8.716809e+002,3.013835e-003
8.736094e+002,2.846710e-003
8.755378e+002,2.960355e-003
8.774664e+002,2.949379e-003
8.793949e+002,3.133164e-003
8.813234e+002,3.205892e-003
8.832518e+002,3.109903e-003
8.851804e+002,2.576743e-003
8.871089e+002,2.429611e-003
8.890374e+002,2.747032e-003
8.909658e+002,2.659846e-003
8.928943e+002,2.828867e-003
8.948229e+002,2.922959e-003
8.967513e+002,2.659212e-003
8.986798e+002,2.364175e-003
9.006083e+002,2.127171e-003
9.025369e+002,1.937787e-003
9.044653e+002,2.249021e-003
9.063938e+002,2.356013e-003
9.083223e+002,2.205326e-003
9.102509e+002,2.177918e-003
9.121793e+002,1.913991e-003
9.141078e+002,1.706637e-003
9.160364e+002,1.896386e-003
9.179648e+002,2.275234e-003
9.198933e+002,2.300882e-003
9.218218e+002,2.103365e-003
9.237504e+002,1.951833e-003
9.256788e+002,1.741533e-003
9.276073e+002,1.790339e-003
9.295358e+002,2.228139e-003
9.314644e+002,2.313007e-003
9.333928e+002,2.343354e-003
9.353213e+002,2.402123e-003
9.372498e+002,2.423846e-003
9.391783e+002,2.544780e-003
9.411068e+002,2.513485e-003
9.430353e+002,2.741164e-003
9.449637e+002,3.025246e-003
9.468923e+002,2.665580e-003
9.488208e+002,2.716690e-003
9.507493e+002,3.205024e-003
9.526777e+002,3.274325e-003
9.546063e+002,2.838005e-003
9.565348e+002,2.704087e-003
9.584633e+002,3.073395e-003
9.603917e+002,2.966026e-003
9.623203e+002,2.536981e-003
9.642488e+002,2.787281e-003
9.661772e+002,2.952148e-003
9.681057e+002,2.976201e-003
9.700343e+002,2.890270e-003
9.719628e+002,2.553145e-003
9.738912e+002,2.392794e-003
9.758197e+002,2.397858e-003
9.777483e+002,2.305378e-003
9.796768e+002,2.481659e-003
9.816052e+002,2.699186e-003
9.835337e+002,2.633143e-003
9.854623e+002,2.501888e-003
9.873907e+002,2.425879e-003
9.893192e+002,2.406154e-003
9.912477e+002,2.454535e-003
9.931763e+002,2.482692e-003
9.951047e+002,2.504520e-003
9.970332e+002,2.665346e-003
9.989617e+002,3.103329e-003
1.000890e+003,3.754698e-003
1.002819e+003,3.976775e-003
1.004747e+003,3.648028e-003
1.006676e+003,3.827931e-003
1.008604e+003,4.130387e-003
1.010533e+003,4.262069e-003
1.012461e+003,4.461407e-003
1.014390e+003,4.594763e-003
1.016318e+003,4.991893e-003
1.018247e+003,5.327696e-003
1.020175e+003,5.316191e-003
1.022104e+003,5.533297e-003
1.024032e+003,5.997127e-003
1.025961e+003,6.154681e-003
1.027889e+003,6.051587e-003
1.029818e+003,6.105349e-003
1.031746e+003,6.358690e-003
1.033675e+003,6.630715e-003
1.035603e+003,6.959372e-003
1.037532e+003,7.129401e-003
1.039460e+003,7.141695e-003
1.041389e+003,7.144154e-003
1.043317e+003,7.072616e-003
1.045246e+003,7.125797e-003
1.047174e+003,7.447615e-003
1.049103e+003,7.561358e-003
1.051031e+003,7.592209e-003
1.052960e+003,7.750950e-003
1.054888e+003,7.765286e-003
1.056817e+003,7.765387e-003
1.058745e+003,7.989829e-003
1.060674e+003,7.787077e-003
1.062602e+003,7.816494e-003
1.064531e+003,8.167826e-003
1.066459e+003,8.261191e-003
1.068388e+003,8.124037e-003
1.070316e+003,7.999009e-003
1.072245e+003,8.098616e-003
1.074173e+003,8.394942e-003
1.076102e+003,8.423994e-003
1.078030e+003,8.344173e-003
1.079959e+003,8.203683e-003
1.081887e+003,8.151586e-003
1.083816e+003,8.138790e-003
1.085744e+003,8.555802e-003
1.087673e+003,8.976664e-003
1.089601e+003,8.907631e-003
1.091530e+003,8.812098e-003
1.093458e+003,9.286249e-003
1.095387e+003,9.379448e-003
1.097315e+003,9.419605e-003
1.099244e+003,9.469823e-003
1.101172e+003,9.591515e-003
1.103101e+003,9.586942e-003
1.105029e+003,9.305510e-003
1.106958e+003,9.291056e-003
1.108886e+003,9.412427e-003
1.110815e+003,9.454652e-003
1.112743e+003,9.316308e-003
1.114672e+003,9.139127e-003
1.116600e+003,9.288517e-003
1.118529e+003,9.330290e-003
1.120457e+003,9.287806e-003
1.122386e+003,9.355342e-003
1.124314e+003,9.465793e-003
1.126243e+003,9.359946e-003
1.128171e+003,9.360895e-003
1.130100e+003,9.573122e-003
1.132028e+003,9.340513e-003
1.133957e+003,9.083838e-003
1.135885e+003,8.997061e-003
1.137814e+003,8.899041e-003
1.139742e+003,8.571347e-003
1.141671e+003,8.176874e-003
1.143599e+003,8.104187e-003
1.145528e+003,7.958544e-003
1.147456e+003,7.649028e-003
1.149385e+003,7.292286e-003
1.151313e+003,6.921596e-003
1.153242e+003,6.583617e-003
1.155170e+003,6.253530e-003
1.157099e+003,6.056123e-003
1.159027e+003,5.889670e-003
1.160956e+003,5.635194e-003
1.162884e+003,5.417165e-003
1.164813e+003,5.390359e-003
1.166741e+003,5.415856e-003
1.168670e+003,5.375464e-003
1.170598e+003,5.420989e-003
1.172526e+003,5.365367e-003
1.174455e+003,5.385495e-003
1.176384e+003,5.268363e-003
1.178312e+003,5.178188e-003
1.180240e+003,5.116762e-003
1.182169e+003,4.868467e-003
1.184098e+003,4.826853e-003
1.186026e+003,4.889745e-003
1.187954e+003,4.796298e-003
1.189883e+003,4.551869e-003
1.191812e+003,4.403698e-003
1.193740e+003,4.520396e-003
1.195668e+003,4.503421e-003
1.197597e+003,4.451364e-003
1.199526e+003,4.409991e-003
1.201454e+003,4.237844e-003
1.203382e+003,4.224628e-003
1.205311e+003,4.293991e-003
1.207240e+003,4.216364e-003
1.209168e+003,4.338199e-003
1.211096e+003,4.536266e-003
1.213025e+003,4.587363e-003
1.214953e+003,4.665526e-003
1.216882e+003,4.726251e-003
1.218810e+003,4.633509e-003
1.220739e+003,4.491202e-003
1.222667e+003,4.495386e-003
1.224596e+003,4.617802e-003
1.226524e+003,4.685052e-003
1.228453e+003,4.649885e-003
1.230381e+003,4.715097e-003
1.232310e+003,4.712183e-003
1.234238e+003,4.743703e-003
1.236167e+003,4.751575e-003
1.238095e+003,4.686291e-003
1.240024e+003,4.831543e-003
1.241952e+003,5.186906e-003
1.243881e+003,5.309416e-003
1.245809e+003,5.469305e-003
1.247738e+003,5.632877e-003
1.249666e+003,5.791206e-003
1.251595e+003,5.956815e-003
1.253523e+003,6.171015e-003
1.255452e+003,6.518461e-003
1.257380e+003,6.873086e-003
1.259309e+003,7.208326e-003
1.261237e+003,7.629773e-003
1.263166e+003,8.098954e-003
1.265094e+003,8.447542e-003
1.267023e+003,8.772030e-003
1.268951e+003,9.083567e-003
1.270880e+003,9.222514e-003
1.272808e+003,9.279546e-003
1.274737e+003,9.598798e-003
1.276665e+003,1.038981e-002
1.278594e+003,1.098883e-002
1.280522e+003,1.114664e-002
1.282451e+003,1.151803e-002
1.284379e+003,1.215066e-002
1.286308e+003,1.297058e-002
1.288236e+003,1.354469e-002
1.290165e+003,1.396416e-002
1.292093e+003,1.449135e-002
1.294022e+003,1.470517e-002
1.295950e+003,1.486646e-002
1.297879e+003,1.493974e-002
1.299807e+003,1.488128e-002
1.301736e+003,1.468228e-002
1.303664e+003,1.462909e-002
1.305593e+003,1.478363e-002
1.307521e+003,1.482981e-002
1.309450e+003,1.439136e-002
1.311378e+003,1.385892e-002
1.313307e+003,1.362910e-002
1.315235e+003,1.349574e-002
1.317164e+003,1.310883e-002
1.319092e+003,1.249127e-002
1.321021e+003,1.182163e-002
1.322949e+003,1.137168e-002
1.324878e+003,1.110707e-002
1.326806e+003,1.088944e-002
1.328735e+003,1.082835e-002
1.330663e+003,1.070985e-002
1.332592e+003,1.053284e-002
1.334520e+003,1.033779e-002
1.336449e+003,1.023865e-002
1.338377e+003,1.023319e-002
1.340306e+003,1.022291e-002
1.342234e+003,1.020154e-002
1.344163e+003,1.008642e-002
1.346091e+003,1.004977e-002
1.348020e+003,1.011125e-002
1.349948e+003,1.004963e-002
1.351877e+003,9.861947e-003
1.353805e+003,9.650223e-003
1.355734e+003,9.519369e-003
1.357662e+003,9.456514e-003
1.359591e+003,9.491192e-003
1.361519e+003,9.420181e-003
1.363448e+003,9.215406e-003
1.365376e+003,8.984174e-003
1.367305e+003,8.920820e-003
1.369233e+003,8.945579e-003
1.371162e+003,8.864883e-003
1.373090e+003,8.967429e-003
1.375019e+003,9.080624e-003
1.376947e+003,9.055249e-003
1.378876e+003,9.132968e-003
1.380804e+003,9.290853e-003
1.382733e+003,9.265939e-003
1.384661e+003,9.097880e-003
1.386590e+003,8.979641e-003
1.388518e+003,8.834044e-003
1.390447e+003,8.620149e-003
1.392375e+003,8.331844e-003
1.394304e+003,8.068776e-003
1.396232e+003,8.013691e-003
1.398161e+003,7.966644e-003
1.400089e+003,7.906746e-003
1.402018e+003,7.898715e-003
1.403946e+003,7.847296e-003
1.405875e+003,7.802224e-003
1.407803e+003,7.781376e-003
1.409732e+003,7.622792e-003
1.411660e+003,7.437132e-003
1.413589e+003,7.321434e-003
1.415517e+003,7.516214e-003
1.417446e+003,7.852154e-003
1.419374e+003,8.300129e-003
1.421303e+003,8.993374e-003
1.423231e+003,9.716155e-003
1.425160e+003,1.040430e-002
1.427088e+003,1.100572e-002
1.429017e+003,1.138994e-002
1.430945e+003,1.163856e-002
1.432874e+003,1.193176e-002
1.434802e+003,1.223047e-002
1.436731e+003,1.246961e-002
1.438659e+003,1.301141e-002
1.440588e+003,1.351174e-002
1.442516e+003,1.405984e-002
1.444445e+003,1.466586e-002
1.446373e+003,1.531995e-002
1.448302e+003,1.600374e-002
1.450230e+003,1.669260e-002
1.452159e+003,1.736900e-002
1.454087e+003,1.790262e-002
1.456016e+003,1.800255e-002
1.457944e+003,1.856154e-002
1.459873e+003,1.925056e-002
1.461801e+003,1.960163e-002
1.463730e+003,1.968906e-002
1.465658e+003,1.984285e-002
1.467587e+003,1.982391e-002
1.469515e+003,1.967360e-002
1.471444e+003,1.950268e-002
1.473372e+003,1.929313e-002
1.475301e+003,1.896691e-002
1.477229e+003,1.849307e-002
1.479158e+003,1.808566e-002
1.481086e+003,1.750717e-002
1.483015e+003,1.692081e-002
1.484943e+003,1.629443e-002
1.486872e+003,1.569390e-002
1.488800e+003,1.518989e-002
1.490729e+003,1.465239e-002
1.492657e+003,1.410560e-002
1.494586e+003,1.359877e-002
1.496514e+003,1.303176e-002
1.498443e+003,1.254754e-002
1.500371e+003,1.212828e-002
1.502300e+003,1.167899e-002
1.504228e+003,1.115058e-002
1.506157e+003,1.057263e-002
1.508085e+003,1.058183e-002
1.510014e+003,1.048905e-002
1.511942e+003,1.028499e-002
1.513871e+003,1.022712e-002
1.515799e+003,1.005316e-002
1.517728e+003,9.964288e-003
1.519656e+003,9.790774e-003
1.521585e+003,9.714461e-003
1.523513e+003,1.004390e-002
1.525442e+003,1.032283e-002
1.527370e+003,1.054533e-002
1.529299e+003,1.071226e-002
1.531227e+003,1.085828e-002
1.533156e+003,1.104412e-002
1.535084e+003,1.140610e-002
1.537013e+003,1.162294e-002
1.538941e+003,1.176059e-002
1.540870e+003,1.215008e-002
1.542798e+003,1.255538e-002
1.544727e+003,1.301179e-002
1.546655e+003,1.340952e-002
1.548584e+003,1.371151e-002
1.550512e+003,1.414270e-002
1.552441e+003,1.441348e-002
1.554369e+003,1.468536e-002
1.556298e+003,1.498135e-002
1.558226e+003,1.510716e-002
1.560155e+003,1.581250e-002
1.562083e+003,1.660835e-002
1.564012e+003,1.705770e-002
1.565940e+003,1.747992e-002
1.567869e+003,1.779086e-002
1.569797e+003,1.804607e-002
1.571726e+003,1.835518e-002
1.573654e+003,1.841601e-002
1.575583e+003,1.844810e-002
1.577511e+003,1.857174e-002
1.579440e+003,1.862310e-002
1.581368e+003,1.859930e-002
1.583297e+003,1.840008e-002
1.585225e+003,1.808852e-002
1.587154e+003,1.783709e-002
1.589082e+003,1.735789e-002
1.591010e+003,1.680497e-002
1.592939e+003,1.630658e-002
1.594868e+003,1.574375e-002
1.596796e+003,1.515111e-002
1.598724e+003,1.457714e-002
1.600653e+003,1.385543e-002
1.602582e+003,1.321928e-002
1.604510e+003,1.267480e-002
1.606438e+003,1.218913e-002
1.608367e+003,1.165963e-002
1.610296e+003,1.122201e-002
1.612224e+003,1.067674e-002
1.614152e+003,1.016582e-002
1.616081e+003,9.704330e-003
1.618010e+003,9.596935e-003
1.619938e+003,9.375859e-003
1.621866e+003,9.010289e-003
1.623795e+003,8.792114e-003
1.625724e+003,8.763544e-003
1.627652e+003,8.575842e-003
1.629580e+003,8.311376e-003
1.631509e+003,8.111276e-003
1.633438e+003,7.921121e-003
1.635366e+003,7.722246e-003
1.637294e+003,7.527778e-003
1.639223e+003,7.214963e-003
1.641151e+003,6.864872e-003
1.643080e+003,6.326480e-003
1.645008e+003,5.756588e-003
1.646937e+003,5.405322e-003
1.648865e+003,5.201861e-003
1.650794e+003,4.795594e-003
1.652722e+003,4.365441e-003
1.654651e+003,4.291113e-003
1.656579e+003,4.189331e-003
1.658508e+003,3.835786e-003
1.660436e+003,3.586686e-003
1.662365e+003,3.383474e-003
1.664293e+003,3.150452e-003
1.666222e+003,2.941573e-003
1.668150e+003,2.623309e-003
1.670079e+003,2.261311e-003
1.672007e+003,2.144153e-003
1.673936e+003,1.798690e-003
1.675864e+003,1.592655e-003
1.677793e+003,1.522225e-003
1.679721e+003,1.316254e-003
1.681650e+003,9.676967e-004
1.683578e+003,6.634856e-004
1.685507e+003,7.668350e-004
1.687435e+003,6.804432e-004
1.689364e+003,5.441697e-004
1.691292e+003,5.294401e-004
1.693221e+003,3.979233e-004
1.695149e+003,2.522233e-004
1.697078e+003,2.783488e-004
1.699006e+003,1.603652e-004
1.700935e+003,3.292784e-004
1.702863e+003,5.431413e-004
1.704792e+003,5.003802e-004
1.706720e+003,5.302694e-004
1.708649e+003,5.449991e-004
1.710577e+003,5.139147e-004
1.712506e+003,3.920200e-004
1.714434e+003,2.569642e-004
1.716363e+003,9.265266e-005
1.718291e+003,1.964630e-004
1.720220e+003,4.270757e-004
1.722148e+003,3.249677e-004
1.724077e+003,2.428410e-004
1.726005e+003,3.587579e-004
1.727934e+003,3.258298e-004
1.729862e+003,2.561354e-004
1.731791e+003,1.276842e-004
1.733719e+003,-6.407651e-005
1.735648e+003,2.296250e-005
1.737576e+003,7.313299e-005
1.739505e+003,1.430964e-004
1.741433e+003,1.771707e-004
1.743362e+003,4.861036e-005
1.745290e+003,1.333187e-004
1.747219e+003,6.090464e-005
1.749147e+003,6.792531e-006
1.751076e+003,4.741740e-005
1.753004e+003,1.910929e-004
1.754933e+003,2.807692e-004
1.756861e+003,2.970820e-004
1.758790e+003,2.027945e-004
1.760718e+003,2.823112e-005
1.762647e+003,1.746199e-005
1.764575e+003,1.602326e-004
1.766504e+003,1.325564e-004
1.768432e+003,1.200612e-004
1.770361e+003,8.685300e-005
1.772289e+003,1.789242e-006
1.774218e+003,6.103719e-005
1.776146e+003,1.599675e-004
1.778075e+003,1.749167e-004
1.780003e+003,9.063105e-005
1.781932e+003,1.491951e-004
1.783860e+003,2.949600e-004
1.785789e+003,4.433609e-004
1.787717e+003,3.419122e-004
1.789646e+003,1.951371e-004
1.791574e+003,9.447542e-005
1.793503e+003,6.179938e-005
1.795431e+003,7.575102e-005
1.797360e+003,8.244532e-005
1.799288e+003,7.074694e-005
1.801217e+003,-1.070216e-005
1.803145e+003,3.224062e-005
1.805074e+003,1.166475e-004
1.807002e+003,9.782270e-005
1.808931e+003,4.585993e-005
1.810859e+003,1.007060e-004
1.812788e+003,1.998442e-004
1.814716e+003,1.709059e-004
1.816645e+003,1.164818e-004
1.818573e+003,3.933188e-005
1.820502e+003,-1.544019e-005
1.822430e+003,-5.964086e-006
1.824359e+003,6.126916e-005
1.826287e+003,9.079676e-005
1.828216e+003,-1.033770e-005
1.830144e+003,1.355203e-005
1.832073e+003,7.995980e-005
1.834001e+003,6.693591e-005
1.835930e+003,5.334908e-005
1.837858e+003,8.966996e-005
1.839787e+003,7.558532e-005
1.841715e+003,4.224795e-005
1.843644e+003,-7.779176e-005
1.845572e+003,-7.563843e-005
1.847501e+003,-1.978057e-005
1.849429e+003,7.140973e-005
1.851358e+003,1.364011e-004
1.853286e+003,1.412734e-004
1.855215e+003,1.661990e-004
1.857143e+003,1.696794e-004
1.859072e+003,1.056110e-004
1.861000e+003,8.009236e-005
1.862929e+003,1.050145e-004
1.864857e+003,1.776348e-004
1.866786e+003,1.015346e-004
1.868714e+003,2.952343e-005
1.870643e+003,1.034899e-004
1.872571e+003,1.710716e-004
1.874500e+003,2.004078e-004
1.876428e+003,1.823749e-004
1.878357e+003,1.174098e-004
1.880285e+003,8.913971e-005
1.882214e+003,1.263585e-004
1.884142e+003,1.508523e-004
1.886071e+003,8.271044e-005
1.887999e+003,7.058124e-005
1.889928e+003,8.788036e-005
1.891856e+003,1.273196e-004
1.893785e+003,1.678563e-004
1.895713e+003,1.133332e-004
1.897642e+003,1.679558e-004
1.899570e+003,1.992807e-004
1.901499e+003,1.831042e-004
1.903427e+003,3.038128e-004
1.905356e+003,3.607807e-004
1.907284e+003,3.367392e-004
1.909213e+003,3.568676e-004
1.911141e+003,3.656886e-004
1.913070e+003,3.435370e-004
1.914998e+003,2.665457e-004
1.916927e+003,1.838666e-004
1.918855e+003,2.401225e-004
1.920784e+003,2.546103e-004
1.922712e+003,2.325970e-004
1.924641e+003,2.620699e-004
1.926569e+003,2.740387e-004
1.928498e+003,2.915780e-004
1.930426e+003,3.323953e-004
1.932355e+003,4.162304e-004
1.934283e+003,4.446544e-004
1.936212e+003,4.014055e-004
1.938140e+003,3.239729e-004
1.940069e+003,2.408187e-004
1.941997e+003,1.909603e-004
1.943926e+003,2.292486e-004
1.945854e+003,2.866377e-004
1.947783e+003,2.289834e-004
1.949711e+003,2.203310e-004
1.951640e+003,2.923406e-004
1.953568e+003,3.274878e-004
1.955497e+003,3.414811e-004
1.957425e+003,3.203918e-004
1.959354e+003,2.531515e-004
1.961282e+003,2.675404e-004
1.963211e+003,2.555386e-004
1.965139e+003,2.690323e-004
1.967068e+003,3.011934e-004
1.968996e+003,3.636326e-004
1.970925e+003,4.819700e-004
1.972853e+003,5.017071e-004
1.974782e+003,4.257159e-004
1.976710e+003,3.806118e-004
1.978639e+003,4.224988e-004
1.980567e+003,4.571589e-004
1.982496e+003,4.740423e-004
1.984424e+003,3.967957e-004
1.986353e+003,4.076737e-004
1.988281e+003,4.924853e-004
1.990210e+003,5.628812e-004
1.992138e+003,6.503446e-004
1.994067e+003,6.459976e-004
1.995995e+003,5.911821e-004
1.997924e+003,6.381000e-004
1.999852e+003,7.013842e-004
2.001781e+003,6.068762e-004
2.003709e+003,5.622840e-004
2.005638e+003,6.447698e-004
2.007566e+003,6.257894e-004
2.009495e+003,5.501414e-004
2.011423e+003,4.862159e-004
2.013352e+003,4.985225e-004
2.015280e+003,5.646396e-004
2.017208e+003,6.743703e-004
2.019137e+003,7.284660e-004
2.021066e+003,6.974680e-004
2.022994e+003,7.157546e-004
2.024922e+003,7.467208e-004
2.026851e+003,7.824690e-004
2.028780e+003,7.466543e-004
2.030708e+003,7.575412e-004
2.032636e+003,8.314658e-004
2.034565e+003,8.007592e-004
2.036494e+003,8.243284e-004
2.038422e+003,8.898310e-004
2.040350e+003,9.897472e-004
2.042279e+003,1.023822e-003
2.044208e+003,9.915738e-004
2.046136e+003,1.048798e-003
2.048064e+003,1.163635e-003
2.049993e+003,1.197523e-003
2.051921e+003,1.194766e-003
2.053850e+003,1.243842e-003
2.055778e+003,1.251618e-003
2.057707e+003,1.228690e-003
2.059635e+003,1.333636e-003
2.061564e+003,1.426707e-003
2.063492e+003,1.401642e-003
2.065421e+003,1.373754e-003
2.067349e+003,1.403371e-003
2.069278e+003,1.424546e-003
2.071206e+003,1.432923e-003
2.073135e+003,1.516373e-003
2.075063e+003,1.537454e-003
2.076992e+003,1.518601e-003
2.078920e+003,1.532599e-003
2.080849e+003,1.543406e-003
2.082777e+003,1.636255e-003
2.084706e+003,1.770011e-003
2.086634e+003,1.775068e-003
2.088563e+003,1.776099e-003
2.090491e+003,1.870629e-003
2.092420e+003,1.964913e-003
2.094348e+003,1.977428e-003
2.096277e+003,1.959388e-003
2.098205e+003,2.030688e-003
2.100134e+003,2.055289e-003
2.102062e+003,2.081657e-003
2.103991e+003,2.124807e-003
2.105919e+003,2.130068e-003
2.107848e+003,2.107526e-003
2.109776e+003,2.103931e-003
2.111705e+003,2.231902e-003
2.113633e+003,2.331994e-003
2.115562e+003,2.359378e-003
2.117490e+003,2.411252e-003
2.119419e+003,2.533181e-003
2.121347e+003,2.575343e-003
2.123276e+003,2.585376e-003
2.125204e+003,2.556578e-003
2.127133e+003,2.508086e-003
2.129061e+003,2.639343e-003
2.130990e+003,2.702687e-003
2.132918e+003,2.751067e-003
2.134847e+003,2.773775e-003
2.136775e+003,2.728093e-003
2.138704e+003,2.781745e-003
2.140632e+003,2.883198e-003
2.142561e+003,2.849445e-003
2.144489e+003,2.830368e-003
2.146418e+003,2.897174e-003
2.148346e+003,2.948745e-003
2.150275e+003,2.962390e-003
2.152203e+003,2.966493e-003
2.154132e+003,2.992315e-003
2.156060e+003,3.019807e-003
2.157989e+003,2.971330e-003
2.159917e+003,2.974133e-003
2.161846e+003,3.018706e-003
2.163774e+003,3.029350e-003
2.165703e+003,3.030451e-003
2.167631e+003,3.126189e-003
2.169560e+003,3.247351e-003
2.171488e+003,3.346543e-003
2.173417e+003,3.341434e-003
2.175345e+003,3.269651e-003
2.177274e+003,3.175651e-003
2.179202e+003,3.217408e-003
2.181131e+003,3.309114e-003
2.183059e+003,3.352186e-003
2.184988e+003,3.288948e-003
2.186916e+003,3.201052e-003
2.188845e+003,3.214003e-003
2.190773e+003,3.324406e-003
2.192702e+003,3.405614e-003
2.194630e+003,3.352553e-003
2.196559e+003,3.287680e-003
2.198487e+003,3.299264e-003
2.200416e+003,3.240641e-003
2.202344e+003,3.241176e-003
2.204273e+003,3.219444e-003
2.206201e+003,3.178956e-003
2.208130e+003,3.222949e-003
2.210058e+003,3.161166e-003
2.211987e+003,3.060815e-003
2.213915e+003,3.142142e-003
2.215844e+003,3.151954e-003
2.217772e+003,3.122151e-003
2.219701e+003,3.157561e-003
2.221629e+003,3.076532e-003
2.223558e+003,3.057011e-003
2.225486e+003,3.017772e-003
2.227415e+003,3.002525e-003
2.229343e+003,3.049904e-003
2.231272e+003,3.068056e-003
2.233200e+003,3.034455e-003
2.235129e+003,3.031586e-003
2.237057e+003,3.040828e-003
2.238986e+003,3.021376e-003
2.240914e+003,2.953582e-003
2.242843e+003,2.904413e-003
2.244771e+003,2.829434e-003
2.246700e+003,2.755635e-003
2.248628e+003,2.755668e-003
2.250557e+003,2.849178e-003
2.252485e+003,2.871591e-003
2.254414e+003,2.796651e-003
2.256342e+003,2.797419e-003
2.258271e+003,2.750467e-003
2.260199e+003,2.662013e-003
2.262128e+003,2.632710e-003
2.264056e+003,2.708288e-003
2.265985e+003,2.781745e-003
2.267913e+003,2.659312e-003
2.269842e+003,2.554145e-003
2.271770e+003,2.583743e-003
2.273699e+003,2.657345e-003
2.275627e+003,2.716090e-003
2.277556e+003,2.721658e-003
2.279484e+003,2.693385e-003
2.281413e+003,2.717357e-003
2.283341e+003,2.591376e-003
2.285270e+003,2.486225e-003
2.287198e+003,2.577276e-003
2.289127e+003,2.630343e-003
2.291055e+003,2.677415e-003
2.292984e+003,2.689150e-003
2.294912e+003,2.596042e-003
2.296841e+003,2.563377e-003
2.298769e+003,2.550645e-003
2.300698e+003,2.585243e-003
2.302626e+003,2.617009e-003
2.304555e+003,2.581076e-003
2.306483e+003,2.542447e-003
2.308412e+003,2.633977e-003
2.310340e+003,2.622943e-003
2.312269e+003,2.569377e-003
2.314197e+003,2.629243e-003
2.316125e+003,2.632177e-003
2.318054e+003,2.551645e-003
2.319983e+003,2.490824e-003
2.321911e+003,2.447737e-003
2.323840e+003,2.466664e-003
2.325768e+003,2.512952e-003
2.327697e+003,2.451802e-003
2.329625e+003,2.369439e-003
2.331553e+003,2.333893e-003
2.333482e+003,2.411019e-003
2.335411e+003,2.502121e-003
2.337339e+003,2.537247e-003
2.339268e+003,2.527582e-003
2.341196e+003,2.485692e-003
2.343125e+003,2.521783e-003
2.345053e+003,2.714289e-003
2.346981e+003,2.881564e-003
2.348910e+003,2.888735e-003
2.350839e+003,2.783412e-003
2.352767e+003,2.584009e-003
2.354696e+003,2.446804e-003
2.356624e+003,2.510786e-003
2.358552e+003,2.543546e-003
2.360481e+003,2.482726e-003
2.362409e+003,2.468197e-003
2.364338e+003,2.500355e-003
2.366267e+003,2.565444e-003
2.368195e+003,2.594409e-003
2.370124e+003,2.662146e-003
2.372052e+003,2.873259e-003
2.373980e+003,3.025680e-003
2.375909e+003,3.069625e-003
2.377838e+003,3.332552e-003
2.379766e+003,3.649265e-003
2.381695e+003,3.745239e-003
2.383623e+003,3.772311e-003
2.385552e+003,3.942735e-003
2.387480e+003,4.022756e-003
2.389408e+003,4.097607e-003
2.391337e+003,4.130520e-003
2.393266e+003,4.138448e-003
2.395194e+003,4.228040e-003
2.397123e+003,4.225832e-003
2.399051e+003,4.194182e-003
2.400979e+003,4.269631e-003
2.402908e+003,4.338400e-003
2.404836e+003,4.400752e-003
2.406765e+003,4.446946e-003
2.408694e+003,4.409689e-003
2.410622e+003,4.478614e-003
2.412551e+003,4.556389e-003
2.414479e+003,4.578154e-003
2.416407e+003,4.591046e-003
2.418336e+003,4.627012e-003
2.420264e+003,4.668908e-003
2.422193e+003,4.734457e-003
2.424122e+003,4.795896e-003
2.426050e+003,4.839953e-003
2.427979e+003,4.922082e-003
2.429907e+003,5.031110e-003
2.431835e+003,5.089941e-003
2.433764e+003,5.132989e-003
2.435692e+003,5.192439e-003
2.437621e+003,5.177081e-003
2.439550e+003,5.256792e-003
2.441478e+003,5.256993e-003
2.443406e+003,5.265445e-003
2.445335e+003,5.297911e-003
2.447263e+003,5.288553e-003
2.449192e+003,5.299689e-003
2.451121e+003,5.374625e-003
2.453049e+003,5.425116e-003
2.454978e+003,5.491249e-003
2.456906e+003,5.528196e-003
2.458834e+003,5.582530e-003
2.460763e+003,5.698303e-003
2.462691e+003,5.749671e-003
2.464620e+003,5.827708e-003
2.466549e+003,5.883020e-003
2.468477e+003,5.830730e-003
2.470406e+003,5.861828e-003
2.472334e+003,5.920067e-003
2.474262e+003,6.012346e-003
2.476191e+003,6.154916e-003
2.478119e+003,6.167318e-003
2.480048e+003,6.137677e-003
2.481977e+003,6.158781e-003
2.483905e+003,6.205935e-003
2.485833e+003,6.223144e-003
2.487762e+003,6.338012e-003
2.489690e+003,6.514323e-003
2.491619e+003,6.500500e-003
2.493547e+003,6.505545e-003
2.495476e+003,6.566360e-003
2.497405e+003,6.612817e-003
2.499333e+003,6.681857e-003
2.501261e+003,6.856120e-003
2.503190e+003,6.857669e-003
2.505118e+003,6.771302e-003
2.507047e+003,6.765042e-003
2.508975e+003,6.824682e-003
2.510904e+003,6.872783e-003
2.512833e+003,6.905369e-003
2.514761e+003,6.950045e-003
2.516689e+003,6.913112e-003
2.518618e+003,6.920216e-003
2.520546e+003,6.971089e-003
2.522475e+003,6.995029e-003
2.524403e+003,7.030049e-003
2.526332e+003,7.032339e-003
2.528260e+003,7.039950e-003
2.530189e+003,7.125224e-003
2.532117e+003,7.209539e-003
2.534046e+003,7.182555e-003
2.535974e+003,7.222712e-003
2.537903e+003,7.262366e-003
2.539831e+003,7.273957e-003
2.541760e+003,7.324365e-003
2.543688e+003,7.318098e-003
2.545617e+003,7.266881e-003
2.547545e+003,7.348055e-003
2.549474e+003,7.447042e-003
2.551402e+003,7.374847e-003
2.553331e+003,7.336160e-003
2.555259e+003,7.412695e-003
2.557188e+003,7.492144e-003
2.559116e+003,7.452064e-003
2.561045e+003,7.498617e-003
2.562973e+003,7.548310e-003
2.564902e+003,7.511528e-003
2.566830e+003,7.495009e-003
2.568759e+003,7.511865e-003
2.570687e+003,7.580441e-003
2.572616e+003,7.649770e-003
2.574544e+003,7.709261e-003
2.576473e+003,7.580745e-003
2.578401e+003,7.494470e-003
2.580330e+003,7.549692e-003
2.582258e+003,7.680222e-003
2.584187e+003,7.739988e-003
2.586115e+003,7.735637e-003
2.588044e+003,7.740730e-003
2.589972e+003,7.759282e-003
2.591901e+003,7.787954e-003
2.593829e+003,7.846384e-003
2.595758e+003,7.877324e-003
2.597686e+003,7.874118e-003
2.599615e+003,7.914912e-003
2.601543e+003,7.973393e-003
2.603472e+003,7.876446e-003
2.605400e+003,7.914473e-003
2.607329e+003,7.984530e-003
2.609257e+003,7.994959e-003
2.611186e+003,8.044844e-003
2.613114e+003,8.112491e-003
2.615043e+003,8.196221e-003
2.616971e+003,8.314652e-003
2.618900e+003,8.289322e-003
2.620828e+003,8.234547e-003
2.622757e+003,8.318705e-003
2.624685e+003,8.526369e-003
2.626614e+003,8.485551e-003
2.628542e+003,8.321104e-003
2.630471e+003,8.342281e-003
2.632399e+003,8.394942e-003
2.634328e+003,8.326102e-003
2.636256e+003,8.368560e-003
2.638185e+003,8.484031e-003
2.640113e+003,8.566751e-003
2.642042e+003,8.593111e-003
2.643970e+003,8.667807e-003
2.645899e+003,8.746302e-003
2.647827e+003,8.693835e-003
2.649756e+003,8.688190e-003
2.651684e+003,8.757222e-003
2.653613e+003,8.836715e-003
2.655541e+003,8.972538e-003
2.657470e+003,9.052373e-003
2.659398e+003,9.008495e-003
2.661327e+003,9.028928e-003
2.663255e+003,9.080049e-003
2.665184e+003,9.060426e-003
2.667112e+003,9.074162e-003
2.669041e+003,9.153542e-003
2.670969e+003,9.174286e-003
2.672898e+003,9.222209e-003
2.674826e+003,9.250437e-003
2.676755e+003,9.298705e-003
2.678683e+003,9.314413e-003
2.680612e+003,9.340345e-003
2.682540e+003,9.398037e-003
2.684469e+003,9.454923e-003
2.686397e+003,9.588704e-003
2.688326e+003,9.672922e-003
2.690254e+003,9.631081e-003
2.692183e+003,9.635248e-003
2.694111e+003,9.713885e-003
2.696040e+003,9.839442e-003
2.697968e+003,9.909742e-003
2.699897e+003,9.877675e-003
2.701825e+003,9.846932e-003
2.703754e+003,9.909742e-003
2.705682e+003,1.005991e-002
2.707611e+003,1.023533e-002
2.709539e+003,1.027970e-002
2.711468e+003,1.023787e-002
2.713396e+003,1.024818e-002
2.715325e+003,1.027383e-002
2.717253e+003,1.028337e-002
2.719182e+003,1.028961e-002
2.721110e+003,1.034027e-002
2.723039e+003,1.043447e-002
2.724967e+003,1.056414e-002
2.726896e+003,1.065728e-002
2.728824e+003,1.071671e-002
2.730753e+003,1.080080e-002
2.732681e+003,1.091913e-002
2.734610e+003,1.096748e-002
2.736538e+003,1.109354e-002
2.738467e+003,1.115296e-002
2.740395e+003,1.124714e-002
2.742324e+003,1.137508e-002
2.744252e+003,1.137787e-002
2.746181e+003,1.142277e-002
2.748109e+003,1.156165e-002
2.750038e+003,1.164332e-002
2.751966e+003,1.170575e-002
2.753895e+003,1.183736e-002
2.755823e+003,1.193104e-002
2.757752e+003,1.198339e-002
2.759680e+003,1.215250e-002
2.761609e+003,1.240405e-002
2.763537e+003,1.259924e-002
2.765466e+003,1.272571e-002
2.767394e+003,1.303033e-002
2.769323e+003,1.332826e-002
2.771251e+003,1.358404e-002
2.773180e+003,1.396624e-002
2.775108e+003,1.443637e-002
2.777037e+003,1.482693e-002
2.778965e+003,1.524325e-002
2.780894e+003,1.583446e-002
2.782822e+003,1.633207e-002
2.784750e+003,1.680293e-002
2.786679e+003,1.751383e-002
2.788608e+003,1.818259e-002
2.790536e+003,1.883475e-002
2.792465e+003,1.948944e-002
2.794393e+003,2.003577e-002
2.796322e+003,2.056611e-002
2.798250e+003,2.116034e-002
2.800178e+003,2.181702e-002
2.802107e+003,2.244457e-002
2.804036e+003,2.297423e-002
2.805964e+003,2.348583e-002
2.807893e+003,2.385480e-002
2.809821e+003,2.401183e-002
2.811750e+003,2.417647e-002
2.813678e+003,2.436299e-002
2.815606e+003,2.433709e-002
2.817535e+003,2.422804e-002
2.819464e+003,2.412929e-002
2.821392e+003,2.404933e-002
2.823321e+003,2.386747e-002
2.825249e+003,2.353298e-002
2.827177e+003,2.328578e-002
2.829106e+003,2.305529e-002
2.831034e+003,2.251286e-002
2.832963e+003,2.204190e-002
2.834892e+003,2.169638e-002
2.836820e+003,2.126583e-002
2.838749e+003,2.083119e-002
2.840677e+003,2.028126e-002
2.842605e+003,1.971382e-002
2.844534e+003,1.920442e-002
2.846462e+003,1.874257e-002
2.848391e+003,1.827085e-002
2.850320e+003,1.781099e-002
2.852248e+003,1.742032e-002
2.854177e+003,1.721539e-002
2.856105e+003,1.701456e-002
2.858033e+003,1.674215e-002
2.859962e+003,1.664109e-002
2.861890e+003,1.652157e-002
2.863819e+003,1.643691e-002
2.865748e+003,1.644080e-002
2.867676e+003,1.650918e-002
2.869604e+003,1.652632e-002
2.871533e+003,1.650732e-002
2.873461e+003,1.648492e-002
2.875390e+003,1.656270e-002
2.877319e+003,1.665111e-002
2.879247e+003,1.681643e-002
2.881176e+003,1.697865e-002
2.883104e+003,1.697335e-002
2.885032e+003,1.699333e-002
2.886961e+003,1.707004e-002
2.888889e+003,1.695950e-002
2.890818e+003,1.685005e-002
2.892747e+003,1.676168e-002
2.894675e+003,1.669377e-002
2.896604e+003,1.671460e-002
2.898532e+003,1.671212e-002
2.900460e+003,1.662653e-002
2.902389e+003,1.655651e-002
2.904317e+003,1.642597e-002
2.906246e+003,1.635732e-002
2.908175e+003,1.644286e-002
2.910103e+003,1.642641e-002
2.912031e+003,1.635109e-002
2.913960e+003,1.631731e-002
2.915888e+003,1.623527e-002
2.917817e+003,1.629543e-002
2.919745e+003,1.639166e-002
2.921674e+003,1.638148e-002
2.923603e+003,1.634053e-002
2.925531e+003,1.645374e-002
2.927459e+003,1.668747e-002
2.929388e+003,1.678575e-002
2.931316e+003,1.685191e-002
2.933245e+003,1.697931e-002
2.935173e+003,1.712442e-002
2.937102e+003,1.716186e-002
2.939031e+003,1.713831e-002
2.940959e+003,1.710333e-002
2.942887e+003,1.702172e-002
2.944816e+003,1.694437e-002
2.946744e+003,1.672407e-002
2.948673e+003,1.640343e-002
2.950601e+003,1.608326e-002
2.952530e+003,1.568291e-002
2.954458e+003,1.518954e-002
2.956387e+003,1.489204e-002
2.958315e+003,1.447439e-002
2.960244e+003,1.382731e-002
2.962172e+003,1.329163e-002
2.964101e+003,1.286620e-002
2.966029e+003,1.247128e-002
2.967958e+003,1.198837e-002
2.969886e+003,1.141018e-002
2.971815e+003,1.084408e-002
2.973743e+003,1.050419e-002
2.975672e+003,1.014099e-002
2.977600e+003,9.820428e-003
2.979529e+003,9.600052e-003
2.981457e+003,9.282119e-003
2.983386e+003,8.863430e-003
2.985314e+003,8.506770e-003
2.987243e+003,8.354305e-003
2.989171e+003,8.266796e-003
2.991100e+003,8.097536e-003
2.993028e+003,7.919502e-003
2.994957e+003,7.771189e-003
2.996885e+003,7.645015e-003
2.998814e+003,7.531554e-003
3.000742e+003,7.420582e-003
3.002671e+003,7.290534e-003
3.004599e+003,7.186328e-003
3.006528e+003,7.244846e-003
3.008456e+003,7.212706e-003
3.010385e+003,7.148567e-003
3.012313e+003,7.161973e-003
3.014242e+003,7.127616e-003
3.016170e+003,7.033181e-003
3.018099e+003,7.009306e-003
3.020027e+003,6.977857e-003
3.021956e+003,6.934221e-003
3.023884e+003,6.865040e-003
3.025813e+003,6.712242e-003
3.027741e+003,6.514391e-003
3.029670e+003,6.564173e-003
3.031598e+003,6.761643e-003
3.033527e+003,6.693735e-003
3.035455e+003,6.592498e-003
3.037384e+003,6.507698e-003
3.039312e+003,6.350620e-003
3.041241e+003,6.222606e-003
3.043169e+003,6.216119e-003
3.045098e+003,6.232892e-003
3.047026e+003,6.232119e-003
3.048955e+003,6.118085e-003
3.050883e+003,5.981640e-003
3.052812e+003,5.905053e-003
3.054740e+003,5.847689e-003
3.056669e+003,5.798560e-003
3.058597e+003,5.766795e-003
3.060526e+003,5.685479e-003
3.062454e+003,5.610019e-003
3.064383e+003,5.537089e-003
3.066311e+003,5.516752e-003
3.068240e+003,5.526082e-003
3.070168e+003,5.491283e-003
3.072097e+003,5.426425e-003
3.074025e+003,5.288889e-003
3.075954e+003,5.270073e-003
3.077882e+003,5.263969e-003
3.079811e+003,5.113041e-003
3.081739e+003,5.031914e-003
3.083668e+003,5.025847e-003
3.085596e+003,4.975805e-003
3.087525e+003,4.926539e-003
3.089453e+003,4.989379e-003
3.091382e+003,4.851713e-003
3.093310e+003,4.655579e-003
3.095239e+003,4.739750e-003
3.097167e+003,4.821727e-003
3.099096e+003,4.692722e-003
3.101024e+003,4.495252e-003
3.102953e+003,4.407380e-003
3.104881e+003,4.371666e-003
3.106810e+003,4.372001e-003
3.108738e+003,4.430108e-003
3.110667e+003,4.380737e-003
3.112595e+003,4.254908e-003
3.114524e+003,4.270434e-003
3.116452e+003,4.222285e-003
3.118381e+003,4.099446e-003
3.120309e+003,4.029545e-003
3.122238e+003,3.968182e-003
3.124166e+003,3.878309e-003
3.126095e+003,3.845815e-003
3.128023e+003,3.912276e-003
3.129952e+003,3.944575e-003
3.131880e+003,3.897365e-003
3.133809e+003,3.920768e-003
3.135737e+003,3.848991e-003
3.137666e+003,3.855442e-003
3.139594e+003,3.847085e-003
3.141523e+003,3.822549e-003
3.143451e+003,3.790293e-003
3.145380e+003,3.741363e-003
3.147308e+003,3.747445e-003
3.149237e+003,3.679873e-003
3.151165e+003,3.629284e-003
3.153094e+003,3.627613e-003
3.155022e+003,3.684852e-003
3.156951e+003,3.768434e-003
3.158879e+003,3.785580e-003
3.160808e+003,3.866976e-003
3.162736e+003,3.769069e-003
3.164665e+003,3.633093e-003
3.166593e+003,3.603524e-003
3.168522e+003,3.647293e-003
3.170450e+003,3.644520e-003
3.172379e+003,3.766395e-003
3.174307e+003,3.805535e-003
3.176236e+003,3.771543e-003
3.178164e+003,3.748147e-003
3.180093e+003,3.668077e-003
3.182021e+003,3.626778e-003
3.183950e+003,3.627313e-003
3.185878e+003,3.639441e-003
3.187807e+003,3.667943e-003
3.189735e+003,3.550004e-003
3.191664e+003,3.350449e-003
3.193592e+003,3.292153e-003
3.195521e+003,3.308146e-003
3.197449e+003,3.406082e-003
3.199378e+003,3.572721e-003
3.201306e+003,3.653742e-003
3.203235e+003,3.609605e-003
3.205163e+003,3.532032e-003
3.207092e+003,3.529159e-003
3.209020e+003,3.657752e-003
3.210948e+003,3.734578e-003
3.212877e+003,3.754798e-003
3.214806e+003,3.811217e-003
3.216734e+003,3.762685e-003
3.218663e+003,3.642048e-003
3.220591e+003,3.714059e-003
3.222520e+003,3.923510e-003
3.224448e+003,4.008710e-003
3.226376e+003,4.079946e-003
3.228305e+003,4.217501e-003
3.230234e+003,4.262269e-003
3.232162e+003,4.252967e-003
3.234091e+003,4.305904e-003
3.236019e+003,4.361961e-003
3.237948e+003,4.511691e-003
3.239876e+003,4.743435e-003
3.241804e+003,4.864078e-003
3.243733e+003,4.787420e-003
3.245662e+003,4.818141e-003
3.247590e+003,4.833855e-003
3.249519e+003,4.874398e-003
3.251447e+003,5.011568e-003
3.253375e+003,5.036003e-003
3.255304e+003,5.080119e-003
3.257232e+003,5.362750e-003
3.259161e+003,5.482760e-003
3.261090e+003,5.382610e-003
3.263018e+003,5.427498e-003
3.264947e+003,5.540546e-003
3.266875e+003,5.572227e-003
3.268803e+003,5.614382e-003
3.270732e+003,5.674502e-003
3.272660e+003,5.852324e-003
3.274589e+003,5.908009e-003
3.276518e+003,5.870527e-003
3.278446e+003,5.796276e-003
3.280375e+003,5.769447e-003
3.282303e+003,5.945663e-003
3.284231e+003,5.927893e-003
3.286160e+003,5.864213e-003
3.288088e+003,5.854876e-003
3.290017e+003,5.751686e-003
3.291946e+003,5.685849e-003
3.293874e+003,5.693201e-003
3.295802e+003,5.679403e-003
3.297731e+003,5.541384e-003
3.299659e+003,5.328132e-003
3.301588e+003,5.262628e-003
3.303516e+003,5.241734e-003
3.305445e+003,5.169235e-003
3.307374e+003,5.071805e-003
3.309302e+003,4.862000e-003
3.311230e+003,4.710742e-003
3.313159e+003,4.598212e-003
3.315087e+003,4.407179e-003
3.317016e+003,4.227438e-003
3.318944e+003,3.994398e-003
3.320873e+003,3.968148e-003
3.322802e+003,3.856312e-003
3.324730e+003,3.641981e-003
3.326658e+003,3.619795e-003
3.328587e+003,3.728863e-003
3.330515e+003,3.788689e-003
3.332444e+003,3.566006e-003
3.334372e+003,3.249821e-003
3.336301e+003,3.141007e-003
3.338229e+003,3.164937e-003
3.340158e+003,3.139105e-003
3.342086e+003,3.000990e-003
3.344015e+003,2.945843e-003
3.345943e+003,2.912151e-003
3.347872e+003,2.750600e-003
3.349800e+003,2.790849e-003
3.351729e+003,2.897474e-003
3.353657e+003,2.736896e-003
3.355586e+003,2.530948e-003
3.357514e+003,2.296685e-003
3.359443e+003,2.266540e-003
3.361371e+003,2.368573e-003
3.363300e+003,2.312574e-003
3.365229e+003,2.149547e-003
3.367157e+003,1.904673e-003
3.369085e+003,1.601734e-003
3.371014e+003,1.440237e-003
3.372942e+003,1.431793e-003
3.374871e+003,1.407227e-003
3.376799e+003,1.407227e-003
3.378728e+003,1.267236e-003
3.380656e+003,1.156625e-003
3.382585e+003,1.027375e-003
3.384513e+003,9.749361e-004
3.386442e+003,9.676967e-004
3.388370e+003,1.001504e-003
3.390299e+003,7.910331e-004
3.392227e+003,7.166839e-004
3.394156e+003,7.922281e-004
3.396084e+003,6.694588e-004
3.398013e+003,4.377224e-004
3.399941e+003,3.195960e-004
3.401870e+003,3.829332e-004
3.403798e+003,3.774281e-004
3.405727e+003,2.951257e-004
3.407655e+003,3.017571e-004
3.409584e+003,2.351497e-004
3.411512e+003,1.368651e-004
3.413441e+003,8.032434e-005
3.415369e+003,4.171776e-005
3.417298e+003,-1.491029e-006
3.419226e+003,1.848919e-005
3.421155e+003,9.503882e-005
3.423083e+003,1.347439e-004
3.425012e+003,1.929824e-004
3.426940e+003,4.632386e-005
3.428869e+003,-8.034262e-005
3.430797e+003,3.071634e-005
3.432726e+003,-3.213883e-005
3.434654e+003,-2.811838e-004
3.436583e+003,-4.208965e-004
3.438511e+003,-2.657200e-004
3.440440e+003,-2.739983e-004
3.442368e+003,-3.889519e-004
3.444297e+003,-3.198907e-004
3.446225e+003,-2.589978e-004
3.448154e+003,-4.258286e-004
3.450082e+003,-4.733930e-004
3.452011e+003,-5.299868e-004
3.453939e+003,-7.393528e-004
3.455868e+003,-8.146972e-004
3.457796e+003,-5.927609e-004
3.459725e+003,-4.720691e-004
3.461653e+003,-5.356127e-004
3.463582e+003,-6.514896e-004
3.465510e+003,-8.608301e-004
3.467439e+003,-9.537425e-004
3.469367e+003,-7.878750e-004
3.471296e+003,-6.734570e-004
3.473224e+003,-7.938283e-004
3.475153e+003,-9.837281e-004
3.477081e+003,-9.397242e-004
3.479010e+003,-8.528936e-004
3.480938e+003,-8.193603e-004
3.482867e+003,-8.391367e-004
3.484795e+003,-7.509298e-004
3.486724e+003,-6.941333e-004
3.488652e+003,-7.478868e-004
3.490581e+003,-8.615245e-004
3.492509e+003,-9.393275e-004
3.494438e+003,-7.600259e-004
3.496366e+003,-5.731388e-004
3.498295e+003,-7.250299e-004
3.500223e+003,-9.368808e-004
3.502152e+003,-1.074598e-003
3.504080e+003,-1.148695e-003
3.506009e+003,-1.032917e-003
3.507937e+003,-8.010383e-004
3.509866e+003,-8.179052e-004
3.511794e+003,-9.351285e-004
3.513723e+003,-1.062236e-003
3.515651e+003,-1.166242e-003
3.517580e+003,-1.026141e-003
3.519508e+003,-1.088579e-003
3.521437e+003,-1.133195e-003
3.523365e+003,-1.147241e-003
3.525294e+003,-1.137426e-003
3.527222e+003,-9.897448e-004
3.529151e+003,-9.023290e-004
3.531079e+003,-9.956623e-004
3.533008e+003,-1.165779e-003
3.534936e+003,-1.263979e-003
3.536865e+003,-1.168886e-003
3.538793e+003,-9.949349e-004
3.540722e+003,-8.550101e-004
3.542650e+003,-9.116864e-004
3.544579e+003,-9.422039e-004
3.546507e+003,-9.460722e-004
3.548436e+003,-1.148331e-003
3.550364e+003,-1.177973e-003
3.552293e+003,-1.184020e-003
3.554221e+003,-1.334376e-003
3.556150e+003,-1.430028e-003
3.558078e+003,-1.367672e-003
3.560007e+003,-1.327010e-003
3.561935e+003,-1.130452e-003
3.563864e+003,-1.197700e-003
3.565792e+003,-1.341676e-003
3.567721e+003,-1.229750e-003
3.569649e+003,-1.231006e-003
3.571578e+003,-1.379694e-003
3.573506e+003,-1.387126e-003
3.575435e+003,-1.281059e-003
3.577363e+003,-1.294339e-003
3.579292e+003,-1.232426e-003
3.581220e+003,-1.296982e-003
3.583149e+003,-1.512517e-003
3.585077e+003,-1.482964e-003
3.587006e+003,-1.517073e-003
3.588934e+003,-1.418303e-003
3.590863e+003,-1.497394e-003
3.592791e+003,-1.565607e-003
3.594720e+003,-1.566895e-003
3.596648e+003,-1.451427e-003
3.598577e+003,-1.424347e-003
3.600505e+003,-1.416586e-003
3.602434e+003,-1.456711e-003
3.604362e+003,-1.347556e-003
3.606291e+003,-1.586869e-003
3.608219e+003,-1.695897e-003
3.610148e+003,-1.310394e-003
3.612076e+003,-1.203416e-003
3.614005e+003,-1.403508e-003
3.615933e+003,-1.729858e-003
3.617862e+003,-1.617240e-003
3.619790e+003,-1.309205e-003
3.621719e+003,-1.417577e-003
3.623647e+003,-1.637574e-003
3.625576e+003,-1.685831e-003
3.627504e+003,-1.615391e-003
3.629433e+003,-1.286906e-003
3.631361e+003,-1.405522e-003
3.633290e+003,-1.630147e-003
3.635218e+003,-1.626417e-003
3.637146e+003,-1.592877e-003
3.639075e+003,-1.563131e-003
3.641004e+003,-1.495247e-003
3.642932e+003,-1.553689e-003
3.644861e+003,-1.744610e-003
3.646789e+003,-1.793284e-003
3.648718e+003,-1.818724e-003
3.650646e+003,-1.754213e-003
3.652574e+003,-1.712598e-003
3.654503e+003,-1.724248e-003
3.656432e+003,-1.735799e-003
3.658360e+003,-2.011738e-003
3.660289e+003,-2.219469e-003
3.662217e+003,-2.237929e-003
3.664146e+003,-2.183667e-003
3.666074e+003,-2.312849e-003
3.668002e+003,-2.457544e-003
3.669931e+003,-2.361756e-003
3.671860e+003,-2.406011e-003
3.673788e+003,-2.714553e-003
3.675717e+003,-2.350485e-003
3.677645e+003,-1.941813e-003
3.679573e+003,-2.187887e-003
3.681502e+003,-2.322077e-003
3.683430e+003,-2.344257e-003
3.685359e+003,-2.330349e-003
3.687288e+003,-2.033802e-003
3.689216e+003,-1.724215e-003
3.691145e+003,-1.693884e-003
3.693073e+003,-1.709957e-003
3.695001e+003,-2.078058e-003
3.696930e+003,-2.233182e-003
3.698858e+003,-2.190887e-003
3.700787e+003,-1.910838e-003
3.702716e+003,-1.798366e-003
3.704644e+003,-1.886195e-003
3.706573e+003,-1.956228e-003
3.708501e+003,-2.051413e-003
3.710429e+003,-1.904273e-003
3.712358e+003,-1.616414e-003
3.714286e+003,-1.766588e-003
3.716215e+003,-1.868512e-003
3.718144e+003,-1.703423e-003
3.720072e+003,-1.670813e-003
3.722000e+003,-1.582676e-003
3.723929e+003,-1.672364e-003
3.725857e+003,-1.655564e-003
3.727786e+003,-1.399148e-003
3.729714e+003,-1.779425e-003
3.731643e+003,-2.170809e-003
3.733572e+003,-2.115220e-003
3.735500e+003,-1.823311e-003
3.737428e+003,-1.613377e-003
3.739357e+003,-1.680880e-003
3.741285e+003,-1.650612e-003
3.743214e+003,-1.681804e-003
3.745142e+003,-1.252680e-003
3.747071e+003,-1.351718e-003
3.749000e+003,-1.326382e-003
3.750928e+003,-1.122323e-003
3.752856e+003,-8.584492e-004
3.754785e+003,-1.083158e-003
3.756713e+003,-1.290408e-003
3.758642e+003,-1.219012e-003
3.760570e+003,-1.075523e-003
3.762499e+003,-9.947366e-004
3.764427e+003,-9.543045e-004
3.766356e+003,-9.173073e-004
3.768284e+003,-8.935997e-004
3.770213e+003,-7.799703e-004
3.772141e+003,-8.947239e-004
3.774070e+003,-9.083799e-004
3.775998e+003,-9.512629e-004
3.777927e+003,-1.039098e-003
3.779855e+003,-1.081671e-003
3.781784e+003,-1.018802e-003
3.783712e+003,-9.581065e-004
3.785641e+003,-7.399151e-004
3.787569e+003,-6.587019e-004
3.789498e+003,-7.948536e-004
3.791426e+003,-9.707357e-004
3.793355e+003,-1.022637e-003
3.795283e+003,-8.926739e-004
3.797212e+003,-8.267352e-004
3.799140e+003,-9.621400e-004
3.801069e+003,-7.679641e-004
3.802997e+003,-6.759713e-004
3.804926e+003,-1.077440e-003
3.806854e+003,-1.002505e-003
3.808783e+003,-1.001216e-003
3.810711e+003,-1.017513e-003
3.812640e+003,-1.011695e-003
3.814568e+003,-1.115085e-003
3.816497e+003,-6.675352e-004
3.818425e+003,-5.743962e-004
3.820354e+003,-5.109906e-004
3.822282e+003,-3.245923e-004
3.824211e+003,-5.263465e-004
3.826139e+003,-7.682287e-004
3.828068e+003,-7.170248e-004
3.829996e+003,-7.085564e-004
3.831925e+003,-6.172459e-004
3.833853e+003,-7.576444e-004
3.835782e+003,-8.551423e-004
3.837710e+003,-6.881125e-004
3.839639e+003,-6.452366e-004
3.841567e+003,-6.754089e-004
3.843496e+003,-7.467952e-004
3.845424e+003,-7.707755e-004
3.847353e+003,-9.741739e-004
3.849281e+003,-1.107946e-003
3.851210e+003,-1.058534e-003
3.853138e+003,-8.027581e-004
3.855067e+003,-3.797488e-004
3.856995e+003,-4.894783e-004
3.858924e+003,-7.894626e-004
3.860852e+003,-8.288187e-004
3.862781e+003,-6.992277e-004
3.864709e+003,-5.645021e-004
3.866638e+003,-6.520851e-004
3.868566e+003,-9.500727e-004
3.870495e+003,-5.808157e-004
3.872423e+003,-7.146430e-004
3.874352e+003,-7.793418e-004
3.876280e+003,-7.353173e-004
3.878209e+003,-8.567958e-004
3.880137e+003,-8.290171e-004
3.882066e+003,-7.603235e-004
3.883994e+003,-1.077374e-003
3.885923e+003,-9.625037e-004
3.887851e+003,-8.983611e-004
3.889780e+003,-8.635748e-004
3.891708e+003,-9.466673e-004
3.893637e+003,-1.098924e-003
3.895565e+003,-8.683697e-004
3.897494e+003,-7.919431e-004
3.899422e+003,-7.128237e-004
3.901351e+003,-6.892703e-004
3.903279e+003,-5.951102e-004
3.905208e+003,-6.124814e-004
3.907136e+003,-7.971356e-004
3.909065e+003,-8.038825e-004
3.910993e+003,-8.425098e-004
3.912922e+003,-9.131412e-004
3.914850e+003,-9.471301e-004
3.916779e+003,-9.470640e-004
3.918707e+003,-7.523852e-004
3.920636e+003,-7.058107e-004
3.922564e+003,-9.077517e-004
3.924493e+003,-7.741160e-004
3.926421e+003,-7.174879e-004
3.928350e+003,-7.854606e-004
3.930278e+003,-7.116328e-004
3.932207e+003,-6.389504e-004
3.934135e+003,-4.343026e-004
3.936064e+003,-3.973273e-004
3.937992e+003,-4.913648e-004
3.939921e+003,-6.814961e-004
3.941849e+003,-7.425944e-004
3.943778e+003,-7.376989e-004
3.945706e+003,-8.512402e-004
3.947635e+003,-7.395513e-004
3.949563e+003,-5.329652e-004
3.951492e+003,-4.226178e-004
3.953420e+003,-4.670381e-004
3.955349e+003,-4.192083e-004
3.957277e+003,-5.003008e-004
3.959206e+003,-7.079279e-004
3.961134e+003,-7.802680e-004
3.963063e+003,-7.109051e-004
3.964991e+003,-7.244014e-004
3.966920e+003,-6.461961e-004
3.968848e+003,-6.439794e-004
3.970777e+003,-6.615471e-004
3.972705e+003,-5.781022e-004
3.974634e+003,-4.232798e-004
3.976562e+003,-4.641586e-004
3.978491e+003,-5.677781e-004
3.980419e+003,-5.698297e-004
3.982348e+003,-7.184803e-004
3.984276e+003,-6.812645e-004
3.986205e+003,-5.880292e-004
3.988133e+003,-4.498266e-004
3.990062e+003,-4.345674e-004
3.991990e+003,-5.985845e-004
3.993919e+003,-5.818745e-004
3.995847e+003,-4.346667e-004
3.997776e+003,-3.737899e-004
3.999704e+003,-4.939463e-004
4.001633e+003,0.000000e+000
