3.991989e+002,8.535256e-003
4.011274e+002,-1.512061e-002
4.030559e+002,-1.561419e-002
4.049844e+002,-3.328778e-003
4.069129e+002,5.568065e-003
4.088414e+002,1.015839e-002
4.107699e+002,2.254516e-003
4.126984e+002,-1.232493e-003
4.146269e+002,5.807123e-003
4.165554e+002,9.577322e-003
4.184839e+002,1.054432e-002
4.204124e+002,1.660098e-002
4.223409e+002,1.858405e-002
4.242694e+002,1.512909e-002
4.261979e+002,8.810509e-003
4.281264e+002,1.096660e-002
4.300549e+002,1.194794e-002
4.319834e+002,9.890284e-003
4.339119e+002,1.340559e-002
4.358404e+002,1.588735e-002
4.377689e+002,1.404570e-002
4.396974e+002,7.225743e-003
4.416259e+002,1.209451e-003
4.435544e+002,6.276288e-003
4.454829e+002,7.643025e-003
4.474114e+002,8.165563e-003
4.493399e+002,9.891878e-003
4.512684e+002,1.001796e-002
4.531969e+002,9.819784e-003
4.551254e+002,9.638399e-003
4.570539e+002,9.084920e-003
4.589824e+002,8.950043e-003
4.609109e+002,9.084616e-003
4.628394e+002,8.729027e-003
4.647679e+002,8.176266e-003
4.666964e+002,8.184370e-003
4.686249e+002,1.000996e-002
4.705533e+002,9.261641e-003
4.724819e+002,6.596501e-003
4.744103e+002,7.558627e-003
4.763389e+002,1.322830e-002
4.782673e+002,1.295030e-002
4.801959e+002,8.491497e-003
4.821243e+002,4.289675e-003
4.840529e+002,7.496493e-003
4.859813e+002,1.322372e-002
4.879099e+002,9.388692e-003
4.898383e+002,5.561587e-003
4.917668e+002,2.849311e-003
4.936953e+002,5.155889e-003
4.956238e+002,6.307082e-003
4.975523e+002,8.583480e-003
4.994808e+002,6.473325e-003
5.014093e+002,5.988963e-003
5.033378e+002,6.403074e-003
5.052663e+002,9.363400e-003
5.071948e+002,7.884376e-003
5.091233e+002,4.619845e-003
5.110518e+002,4.440384e-003
5.129803e+002,5.031143e-003
5.149088e+002,4.902713e-003
5.168373e+002,5.260750e-003
5.187658e+002,5.333298e-003
5.206943e+002,4.803534e-003
5.226228e+002,4.556858e-003
5.245513e+002,5.867940e-003
5.264798e+002,5.047970e-003
5.284083e+002,4.092020e-003
5.303368e+002,4.464621e-003
5.322653e+002,4.663483e-003
5.341938e+002,5.399082e-003
5.361223e+002,5.577160e-003
5.380508e+002,4.901741e-003
5.399792e+002,4.490498e-003
5.419078e+002,5.441892e-003
5.438363e+002,5.242506e-003
5.457648e+002,4.572328e-003
5.476932e+002,4.364738e-003
5.496218e+002,3.566741e-003
5.515503e+002,3.872793e-003
5.534788e+002,4.274684e-003
5.554072e+002,3.744270e-003
5.573358e+002,2.826499e-003
5.592643e+002,3.632993e-003
5.611927e+002,4.200873e-003
5.631212e+002,3.998477e-003
5.650497e+002,4.428200e-003
5.669783e+002,4.524179e-003
5.689067e+002,4.689004e-003
5.708352e+002,4.369625e-003
5.727637e+002,4.620582e-003
5.746923e+002,3.878877e-003
5.766207e+002,1.568113e-003
5.785492e+002,2.953716e-003
5.804777e+002,8.728621e-003
5.824063e+002,8.241097e-003
5.843347e+002,5.035803e-003
5.862632e+002,5.010663e-003
5.881917e+002,4.761825e-003
5.901202e+002,4.944871e-003
5.920487e+002,5.280336e-003
5.939772e+002,3.987977e-003
5.959057e+002,2.774075e-003
5.978342e+002,4.926539e-003
5.997627e+002,5.914827e-003
6.016912e+002,5.367547e-003
6.036197e+002,6.004316e-003
6.055482e+002,7.107306e-003
6.074767e+002,6.342551e-003
6.094052e+002,5.691925e-003
6.113337e+002,4.592720e-003
6.132622e+002,4.652095e-003
6.151907e+002,5.110694e-003
6.171192e+002,4.742296e-003
6.190477e+002,3.521877e-003
6.209762e+002,3.991890e-003
6.229047e+002,4.327188e-003
6.248332e+002,3.648429e-003
6.267617e+002,3.488241e-003
6.286902e+002,3.674159e-003
6.306187e+002,3.647360e-003
6.325472e+002,3.463558e-003
6.344756e+002,4.295899e-003
6.364042e+002,4.459566e-003
6.383326e+002,3.914349e-003
6.402612e+002,3.847052e-003
6.421896e+002,3.648897e-003
6.441182e+002,3.902380e-003
6.460466e+002,3.922708e-003
6.479752e+002,3.546330e-003
6.499036e+002,3.831441e-003
6.518322e+002,4.479250e-003
6.537606e+002,4.334350e-003
6.556891e+002,4.075765e-003
6.576177e+002,3.789993e-003
6.595461e+002,3.660325e-003
6.614746e+002,3.739825e-003
6.634031e+002,3.234933e-003
6.653317e+002,3.815429e-003
6.672601e+002,4.279034e-003
6.691886e+002,4.014195e-003
6.711171e+002,3.720341e-003
6.730457e+002,3.908130e-003
6.749741e+002,4.375114e-003
6.769026e+002,4.671822e-003
6.788311e+002,4.688770e-003
6.807596e+002,4.539045e-003
6.826881e+002,4.787520e-003
6.846166e+002,5.107877e-003
6.865451e+002,5.105296e-003
6.884736e+002,4.947083e-003
6.904021e+002,5.172789e-003
6.923306e+002,5.316594e-003
6.942591e+002,5.131346e-003
6.961876e+002,4.856237e-003
6.981161e+002,4.542628e-003
7.000446e+002,4.289708e-003
7.019731e+002,4.297672e-003
7.039016e+002,4.630025e-003
7.058301e+002,4.666597e-003
7.077585e+002,4.444770e-003
7.096871e+002,4.667234e-003
7.116156e+002,5.220741e-003
7.135441e+002,5.312669e-003
7.154725e+002,4.595499e-003
7.174011e+002,4.064092e-003
7.193296e+002,4.092522e-003
7.212581e+002,4.477141e-003
7.231865e+002,4.590912e-003
7.251151e+002,4.916151e-003
7.270436e+002,4.929220e-003
7.289720e+002,5.146769e-003
7.309005e+002,5.449005e-003
7.328290e+002,5.308611e-003
7.347576e+002,5.484807e-003
7.366860e+002,6.042281e-003
7.386145e+002,6.301031e-003
7.405430e+002,6.094394e-003
7.424716e+002,5.776935e-003
7.444000e+002,5.674703e-003
7.463285e+002,6.128032e-003
7.482570e+002,6.342114e-003
7.501855e+002,6.501206e-003
7.521140e+002,6.956442e-003
7.540425e+002,7.146748e-003
7.559710e+002,6.838179e-003
7.578995e+002,6.837809e-003
7.598280e+002,7.090668e-003
7.617565e+002,6.631086e-003
7.636850e+002,6.293466e-003
7.656135e+002,6.547085e-003
7.675420e+002,6.621598e-003
7.694705e+002,6.731053e-003
7.713990e+002,6.667961e-003
7.733275e+002,6.434885e-003
7.752560e+002,6.526197e-003
7.771844e+002,6.783519e-003
7.791130e+002,6.990618e-003
7.810415e+002,7.203745e-003
7.829700e+002,7.523867e-003
7.848984e+002,7.787684e-003
7.868270e+002,7.726361e-003
7.887555e+002,6.876317e-003
7.906840e+002,6.459065e-003
7.926124e+002,6.460545e-003
7.945410e+002,6.603801e-003
7.964695e+002,6.743740e-003
7.983979e+002,6.686837e-003
8.003264e+002,7.370702e-003
8.022549e+002,7.335654e-003
8.041835e+002,6.619849e-003
8.061119e+002,7.289288e-003
8.080404e+002,8.089772e-003
8.099689e+002,8.158540e-003
8.118975e+002,8.179744e-003
8.138259e+002,8.464164e-003
8.157545e+002,8.950281e-003
8.176830e+002,8.568339e-003
8.196115e+002,7.714354e-003
8.215399e+002,7.321871e-003
8.234684e+002,7.091139e-003
8.253970e+002,6.432632e-003
8.273254e+002,5.726941e-003
8.292539e+002,5.370567e-003
8.311824e+002,5.369627e-003
8.331110e+002,5.649090e-003
8.350394e+002,5.341650e-003
8.369679e+002,5.405590e-003
8.388964e+002,5.335579e-003
8.408250e+002,5.123702e-003
8.427534e+002,5.033590e-003
8.446819e+002,5.207461e-003
8.466104e+002,5.248609e-003
8.485389e+002,5.206455e-003
8.504674e+002,4.998496e-003
8.523959e+002,4.618438e-003
8.543244e+002,4.490331e-003
8.562529e+002,4.922518e-003
8.581814e+002,4.997055e-003
8.601099e+002,5.205952e-003
8.620384e+002,5.199682e-003
8.639669e+002,4.838077e-003
8.658954e+002,5.069324e-003
8.678239e+002,5.205349e-003
8.697524e+002,5.010026e-003
8.716809e+002,4.916252e-003
8.736094e+002,4.767420e-003
8.755378e+002,4.623864e-003
8.774664e+002,4.690813e-003
8.793949e+002,4.811441e-003
8.813234e+002,4.598949e-003
8.832518e+002,4.477375e-003
8.851804e+002,4.362597e-003
8.871089e+002,4.316580e-003
8.890374e+002,4.383482e-003
8.909658e+002,4.160494e-003
8.928943e+002,4.355936e-003
8.948229e+002,4.323942e-003
8.967513e+002,4.398677e-003
8.986798e+002,4.406944e-003
9.006083e+002,4.173674e-003
9.025369e+002,4.250959e-003
9.044653e+002,4.462679e-003
9.063938e+002,4.292787e-003
9.083223e+002,4.093325e-003
9.102509e+002,4.030314e-003
9.121793e+002,3.744671e-003
9.141078e+002,3.566808e-003
9.160364e+002,3.616922e-003
9.179648e+002,3.756904e-003
9.198933e+002,3.742399e-003
9.218218e+002,3.650768e-003
9.237504e+002,3.712321e-003
9.256788e+002,3.344740e-003
9.276073e+002,3.171045e-003
9.295358e+002,3.754531e-003
9.314644e+002,4.164441e-003
9.333928e+002,4.067304e-003
9.353213e+002,3.960624e-003
9.372498e+002,4.187591e-003
9.391783e+002,4.111421e-003
9.411068e+002,4.255276e-003
9.430353e+002,4.725145e-003
9.449637e+002,4.691449e-003
9.468923e+002,4.229178e-003
9.488208e+002,4.233929e-003
9.507493e+002,4.587061e-003
9.526777e+002,4.548755e-003
9.546063e+002,4.348841e-003
9.565348e+002,4.698918e-003
9.584633e+002,4.963002e-003
9.603917e+002,4.996686e-003
9.623203e+002,4.715264e-003
9.642488e+002,4.082956e-003
9.661772e+002,3.896395e-003
9.681057e+002,3.960190e-003
9.700343e+002,2.982607e-003
9.719628e+002,2.454168e-003
9.738912e+002,2.810391e-003
9.758197e+002,3.759410e-003
9.777483e+002,4.544469e-003
9.796768e+002,4.399547e-003
9.816052e+002,3.909735e-003
9.835337e+002,3.588957e-003
9.854623e+002,3.688461e-003
9.873907e+002,3.840366e-003
9.893192e+002,4.137545e-003
9.912477e+002,4.311158e-003
9.931763e+002,4.297605e-003
9.951047e+002,4.236505e-003
9.970332e+002,4.350347e-003
9.989617e+002,4.472119e-003
1.000890e+003,4.729701e-003
1.002819e+003,5.106570e-003
1.004747e+003,5.328770e-003
1.006676e+003,5.638315e-003
1.008604e+003,5.790938e-003
1.010533e+003,5.967699e-003
1.012461e+003,6.185533e-003
1.014390e+003,6.391809e-003
1.016318e+003,6.702450e-003
1.018247e+003,6.929878e-003
1.020175e+003,6.995298e-003
1.022104e+003,7.049783e-003
1.024032e+003,7.500066e-003
1.025961e+003,7.834746e-003
1.027889e+003,7.621376e-003
1.029818e+003,7.602324e-003
1.031746e+003,7.670813e-003
1.033675e+003,7.841121e-003
1.035603e+003,8.266830e-003
1.037532e+003,8.529613e-003
1.039460e+003,8.692990e-003
1.041389e+003,8.852506e-003
1.043317e+003,8.883855e-003
1.045246e+003,8.966584e-003
1.047174e+003,9.031635e-003
1.049103e+003,9.078221e-003
1.051031e+003,9.326702e-003
1.052960e+003,9.506499e-003
1.054888e+003,9.341124e-003
1.056817e+003,9.286790e-003
1.058745e+003,9.358423e-003
1.060674e+003,9.408160e-003
1.062602e+003,9.594395e-003
1.064531e+003,9.709243e-003
1.066459e+003,9.720560e-003
1.068388e+003,9.805889e-003
1.070316e+003,9.789994e-003
1.072245e+003,9.864354e-003
1.074173e+003,1.000965e-002
1.076102e+003,9.955541e-003
1.078030e+003,9.808261e-003
1.079959e+003,9.751633e-003
1.081887e+003,9.926115e-003
1.083816e+003,9.908793e-003
1.085744e+003,1.017963e-002
1.087673e+003,1.046085e-002
1.089601e+003,1.027644e-002
1.091530e+003,1.035903e-002
1.093458e+003,1.081738e-002
1.095387e+003,1.090180e-002
1.097315e+003,1.095437e-002
1.099244e+003,1.091550e-002
1.101172e+003,1.090445e-002
1.103101e+003,1.092647e-002
1.105029e+003,1.075617e-002
1.106958e+003,1.076184e-002
1.108886e+003,1.082910e-002
1.110815e+003,1.089253e-002
1.112743e+003,1.101931e-002
1.114672e+003,1.090717e-002
1.116600e+003,1.089436e-002
1.118529e+003,1.102685e-002
1.120457e+003,1.087632e-002
1.122386e+003,1.077166e-002
1.124314e+003,1.099657e-002
1.126243e+003,1.093925e-002
1.128171e+003,1.079843e-002
1.130100e+003,1.088859e-002
1.132028e+003,1.071613e-002
1.133957e+003,1.051522e-002
1.135885e+003,1.035642e-002
1.137814e+003,1.023689e-002
1.139742e+003,1.002016e-002
1.141671e+003,9.616515e-003
1.143599e+003,9.286452e-003
1.145528e+003,9.139026e-003
1.147456e+003,8.904858e-003
1.149385e+003,8.561479e-003
1.151313e+003,8.298339e-003
1.153242e+003,8.008797e-003
1.155170e+003,7.618341e-003
1.157099e+003,7.514124e-003
1.159027e+003,7.380509e-003
1.160956e+003,7.175953e-003
1.162884e+003,6.937454e-003
1.164813e+003,6.815628e-003
1.166741e+003,6.790486e-003
1.168670e+003,6.884565e-003
1.170598e+003,6.824513e-003
1.172526e+003,6.697436e-003
1.174455e+003,6.663418e-003
1.176384e+003,6.619613e-003
1.178312e+003,6.574500e-003
1.180240e+003,6.605147e-003
1.182169e+003,6.474872e-003
1.184098e+003,6.323690e-003
1.186026e+003,6.141138e-003
1.187954e+003,5.852727e-003
1.189883e+003,5.487558e-003
1.191812e+003,5.341785e-003
1.193740e+003,5.615692e-003
1.195668e+003,5.714754e-003
1.197597e+003,5.741277e-003
1.199526e+003,5.780662e-003
1.201454e+003,5.577999e-003
1.203382e+003,5.531686e-003
1.205311e+003,5.535881e-003
1.207240e+003,5.300058e-003
1.209168e+003,5.339504e-003
1.211096e+003,5.422030e-003
1.213025e+003,5.544975e-003
1.214953e+003,5.767467e-003
1.216882e+003,5.765821e-003
1.218810e+003,5.701694e-003
1.220739e+003,5.736342e-003
1.222667e+003,5.792247e-003
1.224596e+003,5.865153e-003
1.226524e+003,5.815417e-003
1.228453e+003,5.683331e-003
1.230381e+003,5.724759e-003
1.232310e+003,5.829790e-003
1.234238e+003,5.861694e-003
1.236167e+003,5.949290e-003
1.238095e+003,5.925408e-003
1.240024e+003,6.030018e-003
1.241952e+003,6.408152e-003
1.243881e+003,6.510624e-003
1.245809e+003,6.590378e-003
1.247738e+003,6.676944e-003
1.249666e+003,6.749999e-003
1.251595e+003,7.096596e-003
1.253523e+003,7.451592e-003
1.255452e+003,7.675872e-003
1.257380e+003,7.941435e-003
1.259309e+003,8.221748e-003
1.261237e+003,8.620757e-003
1.263166e+003,9.158584e-003
1.265094e+003,9.483708e-003
1.267023e+003,9.771999e-003
1.268951e+003,1.029734e-002
1.270880e+003,1.065157e-002
1.272808e+003,1.088869e-002
1.274737e+003,1.124163e-002
1.276665e+003,1.160667e-002
1.278594e+003,1.191361e-002
1.280522e+003,1.219063e-002
1.282451e+003,1.265931e-002
1.284379e+003,1.323223e-002
1.286308e+003,1.389262e-002
1.288236e+003,1.424633e-002
1.290165e+003,1.450830e-002
1.292093e+003,1.491389e-002
1.294022e+003,1.522482e-002
1.295950e+003,1.570022e-002
1.297879e+003,1.598683e-002
1.299807e+003,1.600862e-002
1.301736e+003,1.586271e-002
1.303664e+003,1.587890e-002
1.305593e+003,1.596978e-002
1.307521e+003,1.580426e-002
1.309450e+003,1.536056e-002
1.311378e+003,1.499040e-002
1.313307e+003,1.482645e-002
1.315235e+003,1.447024e-002
1.317164e+003,1.399129e-002
1.319092e+003,1.348522e-002
1.321021e+003,1.290477e-002
1.322949e+003,1.247398e-002
1.324878e+003,1.214668e-002
1.326806e+003,1.182980e-002
1.328735e+003,1.176447e-002
1.330663e+003,1.161300e-002
1.332592e+003,1.134355e-002
1.334520e+003,1.128148e-002
1.336449e+003,1.138185e-002
1.338377e+003,1.132746e-002
1.340306e+003,1.125765e-002
1.342234e+003,1.133223e-002
1.344163e+003,1.126142e-002
1.346091e+003,1.123412e-002
1.348020e+003,1.122813e-002
1.349948e+003,1.108158e-002
1.351877e+003,1.084310e-002
1.353805e+003,1.072577e-002
1.355734e+003,1.065728e-002
1.357662e+003,1.049689e-002
1.359591e+003,1.032235e-002
1.361519e+003,1.018492e-002
1.363448e+003,1.022047e-002
1.365376e+003,1.016775e-002
1.367305e+003,9.984902e-003
1.369233e+003,9.952999e-003
1.371162e+003,9.900386e-003
1.373090e+003,9.908929e-003
1.375019e+003,1.002651e-002
1.376947e+003,1.014001e-002
1.378876e+003,1.022491e-002
1.380804e+003,1.031434e-002
1.382733e+003,1.029005e-002
1.384661e+003,1.014998e-002
1.386590e+003,9.933743e-003
1.388518e+003,9.720052e-003
1.390447e+003,9.515204e-003
1.392375e+003,9.284793e-003
1.394304e+003,9.080320e-003
1.396232e+003,8.934924e-003
1.398161e+003,8.906075e-003
1.400089e+003,8.960056e-003
1.402018e+003,8.907698e-003
1.403946e+003,8.897586e-003
1.405875e+003,8.931543e-003
1.407803e+003,8.796815e-003
1.409732e+003,8.512582e-003
1.411660e+003,8.245083e-003
1.413589e+003,8.179035e-003
1.415517e+003,8.412542e-003
1.417446e+003,8.775885e-003
1.419374e+003,9.259271e-003
1.421303e+003,9.938997e-003
1.423231e+003,1.058947e-002
1.425160e+003,1.136658e-002
1.427088e+003,1.198847e-002
1.429017e+003,1.233593e-002
1.430945e+003,1.262472e-002
1.432874e+003,1.295713e-002
1.434802e+003,1.324299e-002
1.436731e+003,1.352702e-002
1.438659e+003,1.403270e-002
1.440588e+003,1.452084e-002
1.442516e+003,1.507200e-002
1.444445e+003,1.561057e-002
1.446373e+003,1.623066e-002
1.448302e+003,1.688336e-002
1.450230e+003,1.737717e-002
1.452159e+003,1.802797e-002
1.454087e+003,1.879616e-002
1.456016e+003,1.903507e-002
1.457944e+003,1.955265e-002
1.459873e+003,2.028518e-002
1.461801e+003,2.055808e-002
1.463730e+003,2.060575e-002
1.465658e+003,2.080085e-002
1.467587e+003,2.093288e-002
1.469515e+003,2.076584e-002
1.471444e+003,2.040605e-002
1.473372e+003,2.003906e-002
1.475301e+003,1.979534e-002
1.477229e+003,1.944231e-002
1.479158e+003,1.899717e-002
1.481086e+003,1.833865e-002
1.483015e+003,1.775993e-002
1.484943e+003,1.718109e-002
1.486872e+003,1.665521e-002
1.488800e+003,1.605909e-002
1.490729e+003,1.545675e-002
1.492657e+003,1.497109e-002
1.494586e+003,1.440136e-002
1.496514e+003,1.373527e-002
1.498443e+003,1.336906e-002
1.500371e+003,1.306372e-002
1.502300e+003,1.260879e-002
1.504228e+003,1.198625e-002
1.506157e+003,1.142512e-002
1.508085e+003,1.128941e-002
1.510014e+003,1.116982e-002
1.511942e+003,1.103522e-002
1.513871e+003,1.093252e-002
1.515799e+003,1.076582e-002
1.517728e+003,1.076830e-002
1.519656e+003,1.062223e-002
1.521585e+003,1.045599e-002
1.523513e+003,1.075604e-002
1.525442e+003,1.106210e-002
1.527370e+003,1.131121e-002
1.529299e+003,1.143376e-002
1.531227e+003,1.155699e-002
1.533156e+003,1.182003e-002
1.535084e+003,1.227447e-002
1.537013e+003,1.252922e-002
1.538941e+003,1.253161e-002
1.540870e+003,1.282804e-002
1.542798e+003,1.330048e-002
1.544727e+003,1.384968e-002
1.546655e+003,1.434413e-002
1.548584e+003,1.467898e-002
1.550512e+003,1.500477e-002
1.552441e+003,1.527921e-002
1.554369e+003,1.560311e-002
1.556298e+003,1.579756e-002
1.558226e+003,1.580374e-002
1.560155e+003,1.646279e-002
1.562083e+003,1.733875e-002
1.564012e+003,1.791398e-002
1.565940e+003,1.836150e-002
1.567869e+003,1.865080e-002
1.569797e+003,1.886520e-002
1.571726e+003,1.913025e-002
1.573654e+003,1.924955e-002
1.575583e+003,1.929236e-002
1.577511e+003,1.937596e-002
1.579440e+003,1.943992e-002
1.581368e+003,1.945780e-002
1.583297e+003,1.922184e-002
1.585225e+003,1.894885e-002
1.587154e+003,1.867301e-002
1.589082e+003,1.821321e-002
1.591010e+003,1.769518e-002
1.592939e+003,1.715427e-002
1.594868e+003,1.663465e-002
1.596796e+003,1.609736e-002
1.598724e+003,1.548800e-002
1.600653e+003,1.472543e-002
1.602582e+003,1.411987e-002
1.604510e+003,1.354148e-002
1.606438e+003,1.300120e-002
1.608367e+003,1.244868e-002
1.610296e+003,1.202328e-002
1.612224e+003,1.159176e-002
1.614152e+003,1.113093e-002
1.616081e+003,1.061605e-002
1.618010e+003,1.045385e-002
1.619938e+003,1.029772e-002
1.621866e+003,9.908793e-003
1.623795e+003,9.566517e-003
1.625724e+003,9.578101e-003
1.627652e+003,9.513713e-003
1.629580e+003,9.377451e-003
1.631509e+003,9.160987e-003
1.633438e+003,8.913414e-003
1.635366e+003,8.557728e-003
1.637294e+003,8.322556e-003
1.639223e+003,8.099191e-003
1.641151e+003,7.802494e-003
1.643080e+003,7.361771e-003
1.645008e+003,6.831481e-003
1.646937e+003,6.372711e-003
1.648865e+003,6.092580e-003
1.650794e+003,5.642847e-003
1.652722e+003,5.146233e-003
1.654651e+003,5.086924e-003
1.656579e+003,5.045356e-003
1.658508e+003,4.730036e-003
1.660436e+003,4.493545e-003
1.662365e+003,4.276390e-003
1.664293e+003,4.207832e-003
1.666222e+003,4.028776e-003
1.668150e+003,3.649398e-003
1.670079e+003,3.207895e-003
1.672007e+003,3.015337e-003
1.673936e+003,2.706821e-003
1.675864e+003,2.614676e-003
1.677793e+003,2.493623e-003
1.679721e+003,2.293220e-003
1.681650e+003,2.030255e-003
1.683578e+003,1.711161e-003
1.685507e+003,1.643140e-003
1.687435e+003,1.508094e-003
1.689364e+003,1.452804e-003
1.691292e+003,1.461713e-003
1.693221e+003,1.309740e-003
1.695149e+003,1.202241e-003
1.697078e+003,1.329183e-003
1.699006e+003,1.156093e-003
1.700935e+003,1.183070e-003
1.702863e+003,1.387981e-003
1.704792e+003,1.366973e-003
1.706720e+003,1.538850e-003
1.708649e+003,1.536656e-003
1.710577e+003,1.390075e-003
1.712506e+003,1.292791e-003
1.714434e+003,1.208056e-003
1.716363e+003,1.023722e-003
1.718291e+003,1.098821e-003
1.720220e+003,1.292326e-003
1.722148e+003,1.215665e-003
1.724077e+003,1.166890e-003
1.726005e+003,1.268233e-003
1.727934e+003,1.246966e-003
1.729862e+003,1.198387e-003
1.731791e+003,1.031029e-003
1.733719e+003,8.522812e-004
1.735648e+003,1.072181e-003
1.737576e+003,1.116394e-003
1.739505e+003,1.071949e-003
1.741433e+003,1.213239e-003
1.743362e+003,1.198686e-003
1.745290e+003,1.212143e-003
1.747219e+003,1.138153e-003
1.749147e+003,1.005190e-003
1.751076e+003,9.238311e-004
1.753004e+003,9.313687e-004
1.754933e+003,1.017777e-003
1.756861e+003,1.174299e-003
1.758790e+003,1.186160e-003
1.760718e+003,1.040030e-003
1.762647e+003,1.004791e-003
1.764575e+003,1.073577e-003
1.766504e+003,1.100449e-003
1.768432e+003,1.129616e-003
1.770361e+003,1.043517e-003
1.772289e+003,9.194814e-004
1.774218e+003,1.025283e-003
1.776146e+003,1.151276e-003
1.778075e+003,1.212076e-003
1.780003e+003,1.148950e-003
1.781932e+003,1.048732e-003
1.783860e+003,9.750025e-004
1.785789e+003,1.059792e-003
1.787717e+003,1.196659e-003
1.789646e+003,1.117524e-003
1.791574e+003,9.881865e-004
1.793503e+003,9.564725e-004
1.795431e+003,1.005522e-003
1.797360e+003,9.795189e-004
1.799288e+003,9.643094e-004
1.801217e+003,9.875887e-004
1.803145e+003,1.032955e-003
1.805074e+003,1.047170e-003
1.807002e+003,1.067266e-003
1.808931e+003,9.866589e-004
1.810859e+003,1.009674e-003
1.812788e+003,1.139449e-003
1.814716e+003,1.184300e-003
1.816645e+003,1.128453e-003
1.818573e+003,1.068727e-003
1.820502e+003,1.037107e-003
1.822430e+003,9.730431e-004
1.824359e+003,8.829914e-004
1.826287e+003,9.064323e-004
1.828216e+003,8.268845e-004
1.830144e+003,8.078962e-004
1.832073e+003,1.060025e-003
1.834001e+003,1.130978e-003
1.835930e+003,1.008677e-003
1.837858e+003,9.475067e-004
1.839787e+003,9.254914e-004
1.841715e+003,8.951433e-004
1.843644e+003,8.466041e-004
1.845572e+003,8.890674e-004
1.847501e+003,9.528861e-004
1.849429e+003,9.770282e-004
1.851358e+003,1.001902e-003
1.853286e+003,9.662687e-004
1.855215e+003,9.861939e-004
1.857143e+003,9.690914e-004
1.859072e+003,9.622838e-004
1.861000e+003,9.697223e-004
1.862929e+003,9.804155e-004
1.864857e+003,1.041557e-003
1.866786e+003,9.168583e-004
1.868714e+003,8.248927e-004
1.870643e+003,9.287455e-004
1.872571e+003,1.052817e-003
1.874500e+003,1.091314e-003
1.876428e+003,1.050426e-003
1.878357e+003,1.059261e-003
1.880285e+003,1.090650e-003
1.882214e+003,1.083608e-003
1.884142e+003,1.066601e-003
1.886071e+003,1.091547e-003
1.887999e+003,1.064907e-003
1.889928e+003,1.022991e-003
1.891856e+003,1.061851e-003
1.893785e+003,1.134233e-003
1.895713e+003,1.156658e-003
1.897642e+003,1.189549e-003
1.899570e+003,1.218489e-003
1.901499e+003,1.248727e-003
1.903427e+003,1.257466e-003
1.905356e+003,1.160844e-003
1.907284e+003,1.119450e-003
1.909213e+003,1.161907e-003
1.911141e+003,1.277272e-003
1.913070e+003,1.365112e-003
1.914998e+003,1.290997e-003
1.916927e+003,1.103107e-003
1.918855e+003,1.089886e-003
1.920784e+003,1.194168e-003
1.922712e+003,1.204600e-003
1.924641e+003,1.217127e-003
1.926569e+003,1.249624e-003
1.928498e+003,1.222044e-003
1.930426e+003,1.285646e-003
1.932355e+003,1.286510e-003
1.934283e+003,1.225467e-003
1.936212e+003,1.279266e-003
1.938140e+003,1.307979e-003
1.940069e+003,1.334035e-003
1.941997e+003,1.306251e-003
1.943926e+003,1.252914e-003
1.945854e+003,1.164498e-003
1.947783e+003,1.077795e-003
1.949711e+003,1.081316e-003
1.951640e+003,1.180612e-003
1.953568e+003,1.216628e-003
1.955497e+003,1.162538e-003
1.957425e+003,1.169615e-003
1.959354e+003,1.175529e-003
1.961282e+003,1.220915e-003
1.963211e+003,1.264445e-003
1.965139e+003,1.248561e-003
1.967068e+003,1.190646e-003
1.968996e+003,1.261321e-003
1.970925e+003,1.328518e-003
1.972853e+003,1.335398e-003
1.974782e+003,1.347164e-003
1.976710e+003,1.335165e-003
1.978639e+003,1.282290e-003
1.980567e+003,1.263381e-003
1.982496e+003,1.309042e-003
1.984424e+003,1.364713e-003
1.986353e+003,1.360592e-003
1.988281e+003,1.381698e-003
1.990210e+003,1.399781e-003
1.992138e+003,1.441866e-003
1.994067e+003,1.526049e-003
1.995995e+003,1.544969e-003
1.997924e+003,1.602898e-003
1.999852e+003,1.636688e-003
2.001781e+003,1.505467e-003
2.003709e+003,1.433688e-003
2.005638e+003,1.507961e-003
2.007566e+003,1.468063e-003
2.009495e+003,1.408789e-003
2.011423e+003,1.415837e-003
2.013352e+003,1.510621e-003
2.015280e+003,1.557239e-003
2.017208e+003,1.489009e-003
2.019137e+003,1.454300e-003
2.021066e+003,1.577490e-003
2.022994e+003,1.619327e-003
2.024922e+003,1.634493e-003
2.026851e+003,1.677432e-003
2.028780e+003,1.601667e-003
2.030708e+003,1.592888e-003
2.032636e+003,1.680392e-003
2.034565e+003,1.781655e-003
2.036494e+003,1.819186e-003
2.038422e+003,1.847203e-003
2.040350e+003,1.864473e-003
2.042279e+003,1.851462e-003
2.044208e+003,1.831430e-003
2.046136e+003,1.827271e-003
2.048064e+003,1.912926e-003
2.049993e+003,2.031986e-003
2.051921e+003,1.994471e-003
2.053850e+003,1.941349e-003
2.055778e+003,1.951766e-003
2.057707e+003,2.007286e-003
2.059635e+003,2.195235e-003
2.061564e+003,2.291055e-003
2.063492e+003,2.226940e-003
2.065421e+003,2.145585e-003
2.067349e+003,2.171491e-003
2.069278e+003,2.217681e-003
2.071206e+003,2.267806e-003
2.073135e+003,2.305312e-003
2.075063e+003,2.367773e-003
2.076992e+003,2.411019e-003
2.078920e+003,2.474395e-003
2.080849e+003,2.538580e-003
2.082777e+003,2.572743e-003
2.084706e+003,2.587109e-003
2.086634e+003,2.566544e-003
2.088563e+003,2.627743e-003
2.090491e+003,2.689884e-003
2.092420e+003,2.772108e-003
2.094348e+003,2.886767e-003
2.096277e+003,2.937804e-003
2.098205e+003,2.889236e-003
2.100134e+003,2.837505e-003
2.102062e+003,2.910683e-003
2.103991e+003,2.967661e-003
2.105919e+003,2.996352e-003
2.107848e+003,3.047001e-003
2.109776e+003,3.103596e-003
2.111705e+003,3.185731e-003
2.113633e+003,3.234032e-003
2.115562e+003,3.191138e-003
2.117490e+003,3.225553e-003
2.119419e+003,3.347478e-003
2.121347e+003,3.420008e-003
2.123276e+003,3.397833e-003
2.125204e+003,3.331684e-003
2.127133e+003,3.312553e-003
2.129061e+003,3.385177e-003
2.130990e+003,3.465529e-003
2.132918e+003,3.506178e-003
2.134847e+003,3.507314e-003
2.136775e+003,3.482663e-003
2.138704e+003,3.529660e-003
2.140632e+003,3.664769e-003
2.142561e+003,3.670316e-003
2.144489e+003,3.578668e-003
2.146418e+003,3.661962e-003
2.148346e+003,3.762886e-003
2.150275e+003,3.895927e-003
2.152203e+003,3.879044e-003
2.154132e+003,3.767599e-003
2.156060e+003,3.804399e-003
2.157989e+003,3.838761e-003
2.159917e+003,3.854740e-003
2.161846e+003,3.873495e-003
2.163774e+003,3.935246e-003
2.165703e+003,3.951563e-003
2.167631e+003,3.927857e-003
2.169560e+003,4.018342e-003
2.171488e+003,4.130989e-003
2.173417e+003,4.097305e-003
2.175345e+003,4.050882e-003
2.177274e+003,4.037437e-003
2.179202e+003,4.019880e-003
2.181131e+003,4.075564e-003
2.183059e+003,4.126841e-003
2.184988e+003,4.105533e-003
2.186916e+003,4.073457e-003
2.188845e+003,4.104631e-003
2.190773e+003,4.124667e-003
2.192702e+003,4.187223e-003
2.194630e+003,4.206493e-003
2.196559e+003,4.132929e-003
2.198487e+003,4.080515e-003
2.200416e+003,4.096402e-003
2.202344e+003,4.101386e-003
2.204273e+003,4.102189e-003
2.206201e+003,4.086736e-003
2.208130e+003,3.999915e-003
2.210058e+003,3.948921e-003
2.211987e+003,3.932504e-003
2.213915e+003,3.962296e-003
2.215844e+003,3.908833e-003
2.217772e+003,3.895493e-003
2.219701e+003,4.013426e-003
2.221629e+003,3.923777e-003
2.223558e+003,3.823819e-003
2.225486e+003,3.855342e-003
2.227415e+003,3.874097e-003
2.229343e+003,3.828633e-003
2.231272e+003,3.836756e-003
2.233200e+003,3.811451e-003
2.235129e+003,3.788321e-003
2.237057e+003,3.787285e-003
2.238986e+003,3.746008e-003
2.240914e+003,3.648396e-003
2.242843e+003,3.557721e-003
2.244771e+003,3.571218e-003
2.246700e+003,3.581841e-003
2.248628e+003,3.553579e-003
2.250557e+003,3.602188e-003
2.252485e+003,3.602923e-003
2.254414e+003,3.543657e-003
2.256342e+003,3.559525e-003
2.258271e+003,3.562565e-003
2.260199e+003,3.483398e-003
2.262128e+003,3.427054e-003
2.264056e+003,3.483732e-003
2.265985e+003,3.561329e-003
2.267913e+003,3.553378e-003
2.269842e+003,3.525953e-003
2.271770e+003,3.425418e-003
2.273699e+003,3.358163e-003
2.275627e+003,3.419908e-003
2.277556e+003,3.402709e-003
2.279484e+003,3.359832e-003
2.281413e+003,3.410590e-003
2.283341e+003,3.383040e-003
2.285270e+003,3.344940e-003
2.287198e+003,3.388450e-003
2.289127e+003,3.356460e-003
2.291055e+003,3.361335e-003
2.292984e+003,3.353555e-003
2.294912e+003,3.210031e-003
2.296841e+003,3.209330e-003
2.298769e+003,3.258334e-003
2.300698e+003,3.348346e-003
2.302626e+003,3.401139e-003
2.304555e+003,3.312519e-003
2.306483e+003,3.306743e-003
2.308412e+003,3.402575e-003
2.310340e+003,3.348947e-003
2.312269e+003,3.222749e-003
2.314197e+003,3.205992e-003
2.316125e+003,3.265478e-003
2.318054e+003,3.215272e-003
2.319983e+003,3.115410e-003
2.321911e+003,3.061683e-003
2.323840e+003,3.011600e-003
2.325768e+003,2.978370e-003
2.327697e+003,3.062350e-003
2.329625e+003,3.059280e-003
2.331553e+003,2.987178e-003
2.333482e+003,3.106566e-003
2.335411e+003,3.197180e-003
2.337339e+003,3.098523e-003
2.339268e+003,3.079869e-003
2.341196e+003,3.061015e-003
2.343125e+003,3.011833e-003
2.345053e+003,3.114642e-003
2.346981e+003,3.373523e-003
2.348910e+003,3.495155e-003
2.350839e+003,3.422613e-003
2.352767e+003,3.275694e-003
2.354696e+003,3.189770e-003
2.356624e+003,3.158395e-003
2.358552e+003,3.085609e-003
2.360481e+003,3.084874e-003
2.362409e+003,3.114742e-003
2.364338e+003,3.207261e-003
2.366267e+003,3.363305e-003
2.368195e+003,3.340232e-003
2.370124e+003,3.423013e-003
2.372052e+003,3.596976e-003
2.373980e+003,3.761649e-003
2.375909e+003,3.893420e-003
2.377838e+003,4.123697e-003
2.379766e+003,4.313367e-003
2.381695e+003,4.391849e-003
2.383623e+003,4.553041e-003
2.385552e+003,4.698215e-003
2.387480e+003,4.744172e-003
2.389408e+003,4.831878e-003
2.391337e+003,4.941855e-003
2.393266e+003,4.986731e-003
2.395194e+003,5.039121e-003
2.397123e+003,5.071000e-003
2.399051e+003,5.046026e-003
2.400979e+003,5.039222e-003
2.402908e+003,5.096177e-003
2.404836e+003,5.221646e-003
2.406765e+003,5.231137e-003
2.408694e+003,5.201056e-003
2.410622e+003,5.276848e-003
2.412551e+003,5.352720e-003
2.414479e+003,5.367447e-003
2.416407e+003,5.380429e-003
2.418336e+003,5.344770e-003
2.420264e+003,5.387810e-003
2.422193e+003,5.522256e-003
2.424122e+003,5.565817e-003
2.426050e+003,5.566488e-003
2.427979e+003,5.654125e-003
2.429907e+003,5.752794e-003
2.431835e+003,5.821730e-003
2.433764e+003,5.861089e-003
2.435692e+003,5.866597e-003
2.437621e+003,5.901157e-003
2.439550e+003,5.983723e-003
2.441478e+003,6.034855e-003
2.443406e+003,6.017855e-003
2.445335e+003,5.986142e-003
2.447263e+003,6.003947e-003
2.449192e+003,6.003208e-003
2.451121e+003,6.103232e-003
2.453049e+003,6.213901e-003
2.454978e+003,6.265430e-003
2.456906e+003,6.251312e-003
2.458834e+003,6.257833e-003
2.460763e+003,6.353478e-003
2.462691e+003,6.437744e-003
2.464620e+003,6.552635e-003
2.466549e+003,6.680680e-003
2.468477e+003,6.634686e-003
2.470406e+003,6.578840e-003
2.472334e+003,6.585501e-003
2.474262e+003,6.685693e-003
2.476191e+003,6.765682e-003
2.478119e+003,6.791327e-003
2.480048e+003,6.852788e-003
2.481977e+003,6.932067e-003
2.483905e+003,6.980853e-003
2.485833e+003,6.949742e-003
2.487762e+003,6.970011e-003
2.489690e+003,7.046112e-003
2.491619e+003,7.066285e-003
2.493547e+003,7.166521e-003
2.495476e+003,7.219039e-003
2.497405e+003,7.194851e-003
2.499333e+003,7.255392e-003
2.501261e+003,7.457120e-003
2.503190e+003,7.455637e-003
2.505118e+003,7.299800e-003
2.507047e+003,7.292859e-003
2.508975e+003,7.305091e-003
2.510904e+003,7.391563e-003
2.512833e+003,7.507517e-003
2.514761e+003,7.628694e-003
2.516689e+003,7.714894e-003
2.518618e+003,7.681032e-003
2.520546e+003,7.629570e-003
2.522475e+003,7.636618e-003
2.524403e+003,7.642621e-003
2.526332e+003,7.734017e-003
2.528260e+003,7.818754e-003
2.530189e+003,7.825096e-003
2.532117e+003,7.824152e-003
2.534046e+003,7.783602e-003
2.535974e+003,7.843416e-003
2.537903e+003,7.881137e-003
2.539831e+003,7.835994e-003
2.541760e+003,7.878100e-003
2.543688e+003,7.896522e-003
2.545617e+003,7.859374e-003
2.547545e+003,7.953381e-003
2.549474e+003,8.075088e-003
2.551402e+003,8.106347e-003
2.553331e+003,8.051156e-003
2.555259e+003,7.997422e-003
2.557188e+003,7.979165e-003
2.559116e+003,7.962190e-003
2.561045e+003,8.035325e-003
2.562973e+003,8.063409e-003
2.564902e+003,8.029149e-003
2.566830e+003,8.021994e-003
2.568759e+003,8.110533e-003
2.570687e+003,8.200948e-003
2.572616e+003,8.227996e-003
2.574544e+003,8.156920e-003
2.576473e+003,8.004611e-003
2.578401e+003,7.974946e-003
2.580330e+003,8.101419e-003
2.582258e+003,8.217899e-003
2.584187e+003,8.216008e-003
2.586115e+003,8.217831e-003
2.588044e+003,8.335830e-003
2.589972e+003,8.437305e-003
2.591901e+003,8.449602e-003
2.593829e+003,8.475888e-003
2.595758e+003,8.506331e-003
2.597686e+003,8.497545e-003
2.599615e+003,8.475414e-003
2.601543e+003,8.498898e-003
2.603472e+003,8.412812e-003
2.605400e+003,8.417879e-003
2.607329e+003,8.507683e-003
2.609257e+003,8.624306e-003
2.611186e+003,8.648101e-003
2.613114e+003,8.690150e-003
2.615043e+003,8.766858e-003
2.616971e+003,8.814769e-003
2.618900e+003,8.757053e-003
2.620828e+003,8.793568e-003
2.622757e+003,8.934248e-003
2.624685e+003,9.028218e-003
2.626614e+003,9.016716e-003
2.628542e+003,8.868603e-003
2.630471e+003,8.815919e-003
2.632399e+003,8.920449e-003
2.634328e+003,8.922783e-003
2.636256e+003,8.870531e-003
2.638185e+003,8.901983e-003
2.640113e+003,9.048753e-003
2.642042e+003,9.078120e-003
2.643970e+003,9.007921e-003
2.645899e+003,9.143830e-003
2.647827e+003,9.257410e-003
2.649756e+003,9.227591e-003
2.651684e+003,9.265431e-003
2.653613e+003,9.374844e-003
2.655541e+003,9.448388e-003
2.657470e+003,9.508363e-003
2.659398e+003,9.497051e-003
2.661327e+003,9.513781e-003
2.663255e+003,9.589347e-003
2.665184e+003,9.647207e-003
2.667112e+003,9.670144e-003
2.669041e+003,9.678884e-003
2.670969e+003,9.672956e-003
2.672898e+003,9.708769e-003
2.674826e+003,9.763900e-003
2.676755e+003,9.839239e-003
2.678683e+003,9.861066e-003
2.680612e+003,9.939167e-003
2.682540e+003,1.001871e-002
2.684469e+003,1.001084e-002
2.686397e+003,1.000640e-002
2.688326e+003,1.003122e-002
2.690254e+003,1.009602e-002
2.692183e+003,1.018672e-002
2.694111e+003,1.024788e-002
2.696040e+003,1.027617e-002
2.697968e+003,1.039840e-002
2.699897e+003,1.049245e-002
2.701825e+003,1.040637e-002
2.703754e+003,1.038896e-002
2.705682e+003,1.049662e-002
2.707611e+003,1.064091e-002
2.709539e+003,1.073539e-002
2.711468e+003,1.073888e-002
2.713396e+003,1.079578e-002
2.715325e+003,1.087428e-002
2.717253e+003,1.087316e-002
2.719182e+003,1.088726e-002
2.721110e+003,1.102998e-002
2.723039e+003,1.104721e-002
2.724967e+003,1.099250e-002
2.726896e+003,1.101363e-002
2.728824e+003,1.116098e-002
2.730753e+003,1.125683e-002
2.732681e+003,1.136964e-002
2.734610e+003,1.142927e-002
2.736538e+003,1.144036e-002
2.738467e+003,1.150728e-002
2.740395e+003,1.163652e-002
2.742324e+003,1.169063e-002
2.744252e+003,1.176004e-002
2.746181e+003,1.186307e-002
2.748109e+003,1.206637e-002
2.750038e+003,1.224697e-002
2.751966e+003,1.226534e-002
2.753895e+003,1.225839e-002
2.755823e+003,1.235499e-002
2.757752e+003,1.243712e-002
2.759680e+003,1.252561e-002
2.761609e+003,1.275716e-002
2.763537e+003,1.303941e-002
2.765466e+003,1.316702e-002
2.767394e+003,1.338501e-002
2.769323e+003,1.373958e-002
2.771251e+003,1.404444e-002
2.773180e+003,1.443804e-002
2.775108e+003,1.485217e-002
2.777037e+003,1.522056e-002
2.778965e+003,1.564409e-002
2.780894e+003,1.619461e-002
2.782822e+003,1.671133e-002
2.784750e+003,1.722821e-002
2.786679e+003,1.789402e-002
2.788608e+003,1.854121e-002
2.790536e+003,1.914677e-002
2.792465e+003,1.979184e-002
2.794393e+003,2.051865e-002
2.796322e+003,2.116556e-002
2.798250e+003,2.172525e-002
2.800178e+003,2.237204e-002
2.802107e+003,2.298199e-002
2.804036e+003,2.345453e-002
2.805964e+003,2.384521e-002
2.807893e+003,2.416239e-002
2.809821e+003,2.434297e-002
2.811750e+003,2.450733e-002
2.813678e+003,2.466610e-002
2.815606e+003,2.473182e-002
2.817535e+003,2.474789e-002
2.819464e+003,2.469002e-002
2.821392e+003,2.443518e-002
2.823321e+003,2.418198e-002
2.825249e+003,2.390752e-002
2.827177e+003,2.370609e-002
2.829106e+003,2.337623e-002
2.831034e+003,2.282380e-002
2.832963e+003,2.239552e-002
2.834892e+003,2.206118e-002
2.836820e+003,2.157564e-002
2.838749e+003,2.109480e-002
2.840677e+003,2.064255e-002
2.842605e+003,2.022255e-002
2.844534e+003,1.964135e-002
2.846462e+003,1.908333e-002
2.848391e+003,1.870961e-002
2.850320e+003,1.832825e-002
2.852248e+003,1.797834e-002
2.854177e+003,1.763535e-002
2.856105e+003,1.730348e-002
2.858033e+003,1.715603e-002
2.859962e+003,1.710150e-002
2.861890e+003,1.691619e-002
2.863819e+003,1.682108e-002
2.865748e+003,1.681481e-002
2.867676e+003,1.674001e-002
2.869604e+003,1.672321e-002
2.871533e+003,1.675871e-002
2.873461e+003,1.676808e-002
2.875390e+003,1.683917e-002
2.877319e+003,1.701921e-002
2.879247e+003,1.723649e-002
2.881176e+003,1.743353e-002
2.883104e+003,1.743315e-002
2.885032e+003,1.729807e-002
2.886961e+003,1.725228e-002
2.888889e+003,1.728176e-002
2.890818e+003,1.727672e-002
2.892747e+003,1.715579e-002
2.894675e+003,1.705460e-002
2.896604e+003,1.703558e-002
2.898532e+003,1.697734e-002
2.900460e+003,1.690413e-002
2.902389e+003,1.688570e-002
2.904317e+003,1.687275e-002
2.906246e+003,1.677087e-002
2.908175e+003,1.670382e-002
2.910103e+003,1.662536e-002
2.912031e+003,1.652808e-002
2.913960e+003,1.658783e-002
2.915888e+003,1.665341e-002
2.917817e+003,1.668347e-002
2.919745e+003,1.665703e-002
2.921674e+003,1.673912e-002
2.923603e+003,1.673533e-002
2.925531e+003,1.678843e-002
2.927459e+003,1.691571e-002
2.929388e+003,1.697311e-002
2.931316e+003,1.709261e-002
2.933245e+003,1.727765e-002
2.935173e+003,1.747264e-002
2.937102e+003,1.746146e-002
2.939031e+003,1.735024e-002
2.940959e+003,1.738538e-002
2.942887e+003,1.734575e-002
2.944816e+003,1.712601e-002
2.946744e+003,1.692336e-002
2.948673e+003,1.672276e-002
2.950601e+003,1.631717e-002
2.952530e+003,1.596551e-002
2.954458e+003,1.562891e-002
2.956387e+003,1.521689e-002
2.958315e+003,1.469972e-002
2.960244e+003,1.415509e-002
2.962172e+003,1.357669e-002
2.964101e+003,1.312556e-002
2.966029e+003,1.273652e-002
2.967958e+003,1.218743e-002
2.969886e+003,1.163025e-002
2.971815e+003,1.114436e-002
2.973743e+003,1.077506e-002
2.975672e+003,1.038207e-002
2.977600e+003,1.015097e-002
2.979529e+003,9.940218e-003
2.981457e+003,9.463998e-003
2.983386e+003,9.171546e-003
2.985314e+003,8.853926e-003
2.987243e+003,8.607542e-003
2.989171e+003,8.578241e-003
2.991100e+003,8.509507e-003
2.993028e+003,8.297766e-003
2.994957e+003,8.120830e-003
2.996885e+003,7.929388e-003
2.998814e+003,7.765826e-003
3.000742e+003,7.616015e-003
3.002671e+003,7.503977e-003
3.004599e+003,7.511427e-003
3.006528e+003,7.511427e-003
3.008456e+003,7.325140e-003
3.010385e+003,7.231168e-003
3.012313e+003,7.301856e-003
3.014242e+003,7.197546e-003
3.016170e+003,7.132769e-003
3.018099e+003,7.202902e-003
3.020027e+003,7.251517e-003
3.021956e+003,7.159144e-003
3.023884e+003,6.967890e-003
3.025813e+003,6.902440e-003
3.027741e+003,6.849018e-003
3.029670e+003,6.893688e-003
3.031598e+003,7.014087e-003
3.033527e+003,6.919307e-003
3.035455e+003,6.814247e-003
3.037384e+003,6.674724e-003
3.039312e+003,6.542746e-003
3.041241e+003,6.453785e-003
3.043169e+003,6.380982e-003
3.045098e+003,6.461319e-003
3.047026e+003,6.529090e-003
3.048955e+003,6.389119e-003
3.050883e+003,6.125209e-003
3.052812e+003,5.988963e-003
3.054740e+003,6.050781e-003
3.056669e+003,6.053032e-003
3.058597e+003,5.952112e-003
3.060526e+003,5.905456e-003
3.062454e+003,5.879091e-003
3.064383e+003,5.773678e-003
3.066311e+003,5.754909e-003
3.068240e+003,5.723315e-003
3.070168e+003,5.588437e-003
3.072097e+003,5.466519e-003
3.074025e+003,5.467861e-003
3.075954e+003,5.439107e-003
3.077882e+003,5.403577e-003
3.079811e+003,5.307873e-003
3.081739e+003,5.203236e-003
3.083668e+003,5.179126e-003
3.085596e+003,5.211452e-003
3.087525e+003,5.182614e-003
3.089453e+003,5.126786e-003
3.091382e+003,5.006071e-003
3.093310e+003,4.919569e-003
3.095239e+003,4.864346e-003
3.097167e+003,4.845113e-003
3.099096e+003,4.772646e-003
3.101024e+003,4.671453e-003
3.102953e+003,4.589874e-003
3.104881e+003,4.483201e-003
3.106810e+003,4.530474e-003
3.108738e+003,4.588434e-003
3.110667e+003,4.455549e-003
3.112595e+003,4.412535e-003
3.114524e+003,4.514604e-003
3.116452e+003,4.476371e-003
3.118381e+003,4.343587e-003
3.120309e+003,4.237911e-003
3.122238e+003,4.170596e-003
3.124166e+003,4.046032e-003
3.126095e+003,3.952967e-003
3.128023e+003,3.937420e-003
3.129952e+003,3.955141e-003
3.131880e+003,3.919665e-003
3.133809e+003,3.886031e-003
3.135737e+003,3.904286e-003
3.137666e+003,4.019612e-003
3.139594e+003,4.089613e-003
3.141523e+003,4.047136e-003
3.143451e+003,3.965774e-003
3.145380e+003,3.869751e-003
3.147308e+003,3.895292e-003
3.149237e+003,3.846216e-003
3.151165e+003,3.737285e-003
3.153094e+003,3.644387e-003
3.155022e+003,3.687792e-003
3.156951e+003,3.793201e-003
3.158879e+003,3.911607e-003
3.160808e+003,3.981256e-003
3.162736e+003,3.910906e-003
3.164665e+003,3.813190e-003
3.166593e+003,3.698553e-003
3.168522e+003,3.653676e-003
3.170450e+003,3.736650e-003
3.172379e+003,3.831842e-003
3.174307e+003,3.773982e-003
3.176236e+003,3.744337e-003
3.178164e+003,3.803195e-003
3.180093e+003,3.854172e-003
3.182021e+003,3.737987e-003
3.183950e+003,3.643785e-003
3.185878e+003,3.660659e-003
3.187807e+003,3.779230e-003
3.189735e+003,3.736249e-003
3.191664e+003,3.628683e-003
3.193592e+003,3.586018e-003
3.195521e+003,3.554414e-003
3.197449e+003,3.592398e-003
3.199378e+003,3.605395e-003
3.201306e+003,3.607233e-003
3.203235e+003,3.523314e-003
3.205163e+003,3.633627e-003
3.207092e+003,3.703098e-003
3.209020e+003,3.738789e-003
3.210948e+003,3.762986e-003
3.212877e+003,3.763354e-003
3.214806e+003,3.790594e-003
3.216734e+003,3.802493e-003
3.218663e+003,3.708678e-003
3.220591e+003,3.861560e-003
3.222520e+003,3.999715e-003
3.224448e+003,3.980587e-003
3.226376e+003,4.092890e-003
3.228305e+003,4.257986e-003
3.230234e+003,4.308180e-003
3.232162e+003,4.265849e-003
3.234091e+003,4.307344e-003
3.236019e+003,4.450193e-003
3.237948e+003,4.532181e-003
3.239876e+003,4.718279e-003
3.241804e+003,4.817874e-003
3.243733e+003,4.676946e-003
3.245662e+003,4.619443e-003
3.247590e+003,4.751843e-003
3.249519e+003,4.993837e-003
3.251447e+003,5.047635e-003
3.253375e+003,5.030339e-003
3.255304e+003,5.062921e-003
3.257232e+003,5.304787e-003
3.259161e+003,5.495779e-003
3.261090e+003,5.498631e-003
3.263018e+003,5.542894e-003
3.264947e+003,5.475176e-003
3.266875e+003,5.354532e-003
3.268803e+003,5.501451e-003
3.270732e+003,5.670406e-003
3.272660e+003,5.683969e-003
3.274589e+003,5.758670e-003
3.276518e+003,5.807425e-003
3.278446e+003,5.809205e-003
3.280375e+003,5.741982e-003
3.282303e+003,5.777976e-003
3.284231e+003,5.850107e-003
3.286160e+003,5.924870e-003
3.288088e+003,5.931219e-003
3.290017e+003,5.802455e-003
3.291946e+003,5.650399e-003
3.293874e+003,5.483666e-003
3.295802e+003,5.430685e-003
3.297731e+003,5.454675e-003
3.299659e+003,5.367950e-003
3.301588e+003,5.317164e-003
3.303516e+003,5.167793e-003
3.305445e+003,5.065167e-003
3.307374e+003,5.009322e-003
3.309302e+003,4.852417e-003
3.311230e+003,4.644661e-003
3.313159e+003,4.463985e-003
3.315087e+003,4.356003e-003
3.317016e+003,4.308682e-003
3.318944e+003,4.054159e-003
3.320873e+003,3.859655e-003
3.322802e+003,3.743100e-003
3.324730e+003,3.469971e-003
3.326658e+003,3.394995e-003
3.328587e+003,3.482864e-003
3.330515e+003,3.520808e-003
3.332444e+003,3.367713e-003
3.334372e+003,3.122251e-003
3.336301e+003,3.007763e-003
3.338229e+003,3.155191e-003
3.340158e+003,3.270085e-003
3.342086e+003,3.147815e-003
3.344015e+003,3.016871e-003
3.345943e+003,2.735529e-003
3.347872e+003,2.525583e-003
3.349800e+003,2.629810e-003
3.351729e+003,2.706854e-003
3.353657e+003,2.530815e-003
3.355586e+003,2.431810e-003
3.357514e+003,2.265874e-003
3.359443e+003,2.199364e-003
3.361371e+003,2.220412e-003
3.363300e+003,2.069505e-003
3.365229e+003,1.882942e-003
3.367157e+003,1.776631e-003
3.369085e+003,1.545534e-003
3.371014e+003,1.367306e-003
3.372942e+003,1.361954e-003
3.374871e+003,1.290831e-003
3.376799e+003,1.245570e-003
3.378728e+003,1.171741e-003
3.380656e+003,1.035778e-003
3.382585e+003,8.255899e-004
3.384513e+003,5.514353e-004
3.386442e+003,4.409728e-004
3.388370e+003,5.778111e-004
3.390299e+003,5.102656e-004
3.392227e+003,3.956349e-004
3.394156e+003,4.641908e-004
3.396084e+003,4.444554e-004
3.398013e+003,3.179380e-004
3.399941e+003,2.428741e-004
3.401870e+003,2.138335e-004
3.403798e+003,2.605780e-004
3.405727e+003,5.265318e-005
3.407655e+003,5.106256e-005
3.409584e+003,2.024299e-004
3.411512e+003,7.528706e-005
3.413441e+003,-1.030015e-004
3.415369e+003,-2.268095e-004
3.417298e+003,-1.608360e-004
3.419226e+003,-6.864830e-005
3.421155e+003,-1.750450e-004
3.423083e+003,-2.733360e-004
3.425012e+003,-2.006134e-004
3.426940e+003,-2.703559e-004
3.428869e+003,-3.204536e-004
3.430797e+003,-3.380013e-004
3.432726e+003,-3.560449e-004
3.434654e+003,-4.811047e-004
3.436583e+003,-6.606208e-004
3.438511e+003,-6.130108e-004
3.440440e+003,-4.721684e-004
3.442368e+003,-4.373478e-004
3.444297e+003,-3.530322e-004
3.446225e+003,-3.710421e-004
3.448154e+003,-5.853489e-004
3.450082e+003,-6.956550e-004
3.452011e+003,-7.948536e-004
3.453939e+003,-8.150941e-004
3.455868e+003,-9.017008e-004
3.457796e+003,-9.725209e-004
3.459725e+003,-9.362857e-004
3.461653e+003,-8.301085e-004
3.463582e+003,-7.979625e-004
3.465510e+003,-1.002340e-003
3.467439e+003,-1.147769e-003
3.469367e+003,-1.176321e-003
3.471296e+003,-1.134947e-003
3.473224e+003,-1.119778e-003
3.475153e+003,-1.139045e-003
3.477081e+003,-1.043561e-003
3.479010e+003,-1.034372e-003
3.480938e+003,-1.096908e-003
3.482867e+003,-1.049709e-003
3.484795e+003,-9.631979e-004
3.486724e+003,-9.850835e-004
3.488652e+003,-9.502710e-004
3.490581e+003,-1.118390e-003
3.492509e+003,-1.247426e-003
3.494438e+003,-1.012720e-003
3.496366e+003,-8.642361e-004
3.498295e+003,-1.062468e-003
3.500223e+003,-1.197700e-003
3.502152e+003,-1.216369e-003
3.504080e+003,-1.354096e-003
3.506009e+003,-1.327902e-003
3.507937e+003,-1.242140e-003
3.509866e+003,-1.204507e-003
3.511794e+003,-1.192016e-003
3.513723e+003,-1.321857e-003
3.515651e+003,-1.474015e-003
3.517580e+003,-1.384054e-003
3.519508e+003,-1.347391e-003
3.521437e+003,-1.328397e-003
3.523365e+003,-1.303060e-003
3.525294e+003,-1.325061e-003
3.527222e+003,-1.390065e-003
3.529151e+003,-1.376358e-003
3.531079e+003,-1.343526e-003
3.533008e+003,-1.442775e-003
3.534936e+003,-1.494356e-003
3.536865e+003,-1.506474e-003
3.538793e+003,-1.490030e-003
3.540722e+003,-1.385210e-003
3.542650e+003,-1.342337e-003
3.544579e+003,-1.366483e-003
3.546507e+003,-1.465528e-003
3.548436e+003,-1.566631e-003
3.550364e+003,-1.641733e-003
3.552293e+003,-1.541308e-003
3.554221e+003,-1.645463e-003
3.556150e+003,-1.761374e-003
3.558078e+003,-1.698373e-003
3.560007e+003,-1.633217e-003
3.561935e+003,-1.533681e-003
3.563864e+003,-1.743026e-003
3.565792e+003,-1.837168e-003
3.567721e+003,-1.662264e-003
3.569649e+003,-1.756853e-003
3.571578e+003,-1.902624e-003
3.573506e+003,-1.780976e-003
3.575435e+003,-1.520837e-003
3.577363e+003,-1.456447e-003
3.579292e+003,-1.602384e-003
3.581220e+003,-1.911399e-003
3.583149e+003,-2.149280e-003
3.585077e+003,-1.977899e-003
3.587006e+003,-1.885931e-003
3.588934e+003,-1.820836e-003
3.590863e+003,-1.792888e-003
3.592791e+003,-1.952105e-003
3.594720e+003,-2.027866e-003
3.596648e+003,-1.880125e-003
3.598577e+003,-1.877189e-003
3.600505e+003,-1.855579e-003
3.602434e+003,-1.900678e-003
3.604362e+003,-1.918261e-003
3.606291e+003,-2.061933e-003
3.608219e+003,-1.930334e-003
3.610148e+003,-1.670516e-003
3.612076e+003,-1.901403e-003
3.614005e+003,-2.031625e-003
3.615933e+003,-2.047455e-003
3.617862e+003,-1.938878e-003
3.619790e+003,-1.850993e-003
3.621719e+003,-2.088215e-003
3.623647e+003,-2.158116e-003
3.625576e+003,-2.104273e-003
3.627504e+003,-2.194447e-003
3.629433e+003,-1.994225e-003
3.631361e+003,-1.985551e-003
3.633290e+003,-2.198041e-003
3.635218e+003,-2.112747e-003
3.637146e+003,-1.976909e-003
3.639075e+003,-1.958207e-003
3.641004e+003,-1.962231e-003
3.642932e+003,-2.065032e-003
3.644861e+003,-2.296106e-003
3.646789e+003,-2.430592e-003
3.648718e+003,-2.543494e-003
3.650646e+003,-2.439093e-003
3.652574e+003,-2.203876e-003
3.654503e+003,-2.271847e-003
3.656432e+003,-2.157721e-003
3.658360e+003,-2.208260e-003
3.660289e+003,-2.419752e-003
3.662217e+003,-2.534600e-003
3.664146e+003,-2.644412e-003
3.666074e+003,-2.726374e-003
3.668002e+003,-2.872478e-003
3.669931e+003,-2.975986e-003
3.671860e+003,-2.958083e-003
3.673788e+003,-3.269752e-003
3.675717e+003,-3.023337e-003
3.677645e+003,-2.386240e-003
3.679573e+003,-2.468647e-003
3.681502e+003,-2.478267e-003
3.683430e+003,-2.508081e-003
3.685359e+003,-2.689330e-003
3.687288e+003,-2.738458e-003
3.689216e+003,-2.539310e-003
3.691145e+003,-2.490687e-003
3.693073e+003,-2.270298e-003
3.695001e+003,-2.240071e-003
3.696930e+003,-2.364821e-003
3.698858e+003,-2.504589e-003
3.700787e+003,-2.418466e-003
3.702716e+003,-2.215348e-003
3.704644e+003,-2.299731e-003
3.706573e+003,-2.487096e-003
3.708501e+003,-2.496650e-003
3.710429e+003,-2.364656e-003
3.712358e+003,-2.151852e-003
3.714286e+003,-2.058701e-003
3.716215e+003,-2.308630e-003
3.718144e+003,-2.372235e-003
3.720072e+003,-2.244620e-003
3.722000e+003,-2.190854e-003
3.723929e+003,-2.211392e-003
3.725857e+003,-2.146939e-003
3.727786e+003,-1.944683e-003
3.729714e+003,-2.073376e-003
3.731643e+003,-2.472304e-003
3.733572e+003,-2.628011e-003
3.735500e+003,-2.469470e-003
3.737428e+003,-2.168798e-003
3.739357e+003,-2.009364e-003
3.741285e+003,-1.902855e-003
3.743214e+003,-2.243236e-003
3.745142e+003,-1.891440e-003
3.747071e+003,-1.806021e-003
3.749000e+003,-1.894739e-003
3.750928e+003,-1.643251e-003
3.752856e+003,-1.528563e-003
3.754785e+003,-1.537478e-003
3.756713e+003,-1.349604e-003
3.758642e+003,-1.450503e-003
3.760570e+003,-1.524502e-003
3.762499e+003,-1.426923e-003
3.764427e+003,-1.417015e-003
3.766356e+003,-1.268174e-003
3.768284e+003,-1.341445e-003
3.770213e+003,-1.309106e-003
3.772141e+003,-1.173380e-003
3.774070e+003,-1.149356e-003
3.775998e+003,-1.239860e-003
3.777927e+003,-1.346631e-003
3.779855e+003,-1.354360e-003
3.781784e+003,-1.268934e-003
3.783712e+003,-1.156328e-003
3.785641e+003,-8.971047e-004
3.787569e+003,-1.032752e-003
3.789498e+003,-1.357763e-003
3.791426e+003,-1.391254e-003
3.793355e+003,-1.326911e-003
3.795283e+003,-1.335268e-003
3.797212e+003,-1.284362e-003
3.799140e+003,-1.472793e-003
3.801069e+003,-1.578747e-003
3.802997e+003,-1.476359e-003
3.804926e+003,-1.904075e-003
3.806854e+003,-1.857261e-003
3.808783e+003,-1.576601e-003
3.810711e+003,-1.448125e-003
3.812640e+003,-1.425536e-003
3.814568e+003,-1.664377e-003
3.816497e+003,-1.308181e-003
3.818425e+003,-1.234970e-003
3.820354e+003,-1.254992e-003
3.822282e+003,-1.127214e-003
3.824211e+003,-1.222746e-003
3.826139e+003,-1.380619e-003
3.828068e+003,-1.153288e-003
3.829996e+003,-9.838934e-004
3.831925e+003,-9.998936e-004
3.833853e+003,-1.163929e-003
3.835782e+003,-1.313532e-003
3.837710e+003,-1.243528e-003
3.839639e+003,-1.441950e-003
3.841567e+003,-1.537808e-003
3.843496e+003,-1.240356e-003
3.845424e+003,-1.085439e-003
3.847353e+003,-1.448653e-003
3.849281e+003,-1.677744e-003
3.851210e+003,-1.737350e-003
3.853138e+003,-1.666654e-003
3.855067e+003,-1.352511e-003
3.856995e+003,-1.180980e-003
3.858924e+003,-1.121034e-003
3.860852e+003,-1.269397e-003
3.862781e+003,-1.142449e-003
3.864709e+003,-1.045610e-003
3.866638e+003,-1.095916e-003
3.868566e+003,-1.386994e-003
3.870495e+003,-1.046965e-003
3.872423e+003,-1.105071e-003
3.874352e+003,-1.271049e-003
3.876280e+003,-1.225686e-003
3.878209e+003,-1.352412e-003
3.880137e+003,-1.300616e-003
3.882066e+003,-1.101436e-003
3.883994e+003,-1.256082e-003
3.885923e+003,-1.024753e-003
3.887851e+003,-1.033446e-003
3.889780e+003,-1.291201e-003
3.891708e+003,-1.361495e-003
3.893637e+003,-1.344914e-003
3.895565e+003,-1.298403e-003
3.897494e+003,-1.152660e-003
3.899422e+003,-8.869203e-004
3.901351e+003,-1.056584e-003
3.903279e+003,-1.247459e-003
3.905208e+003,-1.084910e-003
3.907136e+003,-1.094528e-003
3.909065e+003,-1.117233e-003
3.910993e+003,-1.086530e-003
3.912922e+003,-1.152627e-003
3.914850e+003,-1.176420e-003
3.916779e+003,-1.240125e-003
3.918707e+003,-1.196213e-003
3.920636e+003,-1.257008e-003
3.922564e+003,-1.518493e-003
3.924493e+003,-1.412689e-003
3.926421e+003,-1.289020e-003
3.928350e+003,-1.269826e-003
3.930278e+003,-1.074697e-003
3.932207e+003,-8.859945e-004
3.934135e+003,-6.684946e-004
3.936064e+003,-5.837937e-004
3.937992e+003,-7.159993e-004
3.939921e+003,-1.042173e-003
3.941849e+003,-1.180980e-003
3.943778e+003,-9.431296e-004
3.945706e+003,-9.008741e-004
3.947635e+003,-9.864720e-004
3.949563e+003,-9.895134e-004
3.951492e+003,-9.061646e-004
3.953420e+003,-8.750493e-004
3.955349e+003,-6.716375e-004
3.957277e+003,-5.116194e-004
3.959206e+003,-7.741160e-004
3.961134e+003,-9.473285e-004
3.963063e+003,-8.790835e-004
3.964991e+003,-1.056617e-003
3.966920e+003,-1.205300e-003
3.968848e+003,-1.015364e-003
3.970777e+003,-8.339777e-004
3.972705e+003,-7.841046e-004
3.974634e+003,-7.597613e-004
3.976562e+003,-6.111579e-004
3.978491e+003,-5.507029e-004
3.980419e+003,-6.494053e-004
3.982348e+003,-7.962096e-004
3.984276e+003,-6.895681e-004
3.986205e+003,-7.757698e-004
3.988133e+003,-5.549387e-004
3.990062e+003,-3.043620e-004
3.991990e+003,-3.445567e-004
3.993919e+003,-4.964286e-004
3.995847e+003,-7.361443e-004
3.997776e+003,-8.733959e-004
3.999704e+003,-7.259230e-004
4.001633e+003,0.000000e+000
