3.991989e+002,-1.634826e-002
4.011274e+002,-1.887503e-002
4.030559e+002,-2.880556e-002
4.049844e+002,-2.971728e-002
4.069129e+002,-2.302341e-002
4.088414e+002,-1.844104e-002
4.107699e+002,-2.687894e-002
4.126984e+002,-2.880386e-002
4.146269e+002,-1.961026e-002
4.165554e+002,-1.707937e-002
4.184839e+002,-1.951581e-002
4.204124e+002,-1.275145e-002
4.223409e+002,-9.629808e-003
4.242694e+002,-1.558053e-002
4.261979e+002,-2.020113e-002
4.281264e+002,-1.267117e-002
4.300549e+002,-7.920002e-003
4.319834e+002,-1.216788e-002
4.339119e+002,-1.253566e-002
4.358404e+002,-1.049060e-002
4.377689e+002,-1.105195e-002
4.396974e+002,-1.802607e-002
4.416259e+002,-2.340253e-002
4.435544e+002,-1.724888e-002
4.454829e+002,-1.448430e-002
4.474114e+002,-1.299277e-002
4.493399e+002,-1.252276e-002
4.512684e+002,-1.466677e-002
4.531969e+002,-1.613419e-002
4.551254e+002,-1.686423e-002
4.570539e+002,-1.614208e-002
4.589824e+002,-1.544712e-002
4.609109e+002,-1.529418e-002
4.628394e+002,-1.427498e-002
4.647679e+002,-1.530742e-002
4.666964e+002,-1.640174e-002
4.686249e+002,-1.560601e-002
4.705533e+002,-1.471994e-002
4.724819e+002,-1.558104e-002
4.744103e+002,-1.468721e-002
4.763389e+002,-1.379866e-002
4.782673e+002,-1.472485e-002
4.801959e+002,-1.592653e-002
4.821243e+002,-1.601650e-002
4.840529e+002,-1.628926e-002
4.859813e+002,-1.809319e-002
4.879099e+002,-1.778948e-002
4.898383e+002,-1.642940e-002
4.917668e+002,-1.750983e-002
4.936953e+002,-1.856408e-002
4.956238e+002,-1.785184e-002
4.975523e+002,-1.693335e-002
4.994808e+002,-1.825945e-002
5.014093e+002,-1.726604e-002
5.033378e+002,-1.654456e-002
5.052663e+002,-1.581942e-002
5.071948e+002,-1.504361e-002
5.091233e+002,-1.831294e-002
5.110518e+002,-1.983899e-002
5.129803e+002,-1.825833e-002
5.149088e+002,-1.817490e-002
5.168373e+002,-1.937517e-002
5.187658e+002,-1.939079e-002
5.206943e+002,-1.963845e-002
5.226228e+002,-1.888226e-002
5.245513e+002,-1.825452e-002
5.264798e+002,-1.856601e-002
5.284083e+002,-1.947155e-002
5.303368e+002,-1.943889e-002
5.322653e+002,-1.907684e-002
5.341938e+002,-1.759278e-002
5.361223e+002,-1.710371e-002
5.380508e+002,-1.766294e-002
5.399792e+002,-1.780236e-002
5.419078e+002,-1.768635e-002
5.438363e+002,-1.832397e-002
5.457648e+002,-1.778133e-002
5.476932e+002,-1.794958e-002
5.496218e+002,-1.808274e-002
5.515503e+002,-1.673388e-002
5.534788e+002,-1.655288e-002
5.554072e+002,-1.749118e-002
5.573358e+002,-1.795607e-002
5.592643e+002,-1.800966e-002
5.611927e+002,-1.722659e-002
5.631212e+002,-1.621556e-002
5.650497e+002,-1.593981e-002
5.669783e+002,-1.694788e-002
5.689067e+002,-1.761073e-002
5.708352e+002,-1.719372e-002
5.727637e+002,-1.619449e-002
5.746923e+002,-1.672387e-002
5.766207e+002,-1.906717e-002
5.785492e+002,-1.843945e-002
5.804777e+002,-1.466908e-002
5.824063e+002,-1.557535e-002
5.843347e+002,-1.765130e-002
5.862632e+002,-1.739403e-002
5.881917e+002,-1.767115e-002
5.901202e+002,-1.766959e-002
5.920487e+002,-1.702859e-002
5.939772e+002,-1.516218e-002
5.959057e+002,-1.311434e-002
5.978342e+002,-1.402585e-002
5.997627e+002,-1.430996e-002
6.016912e+002,-1.421573e-002
6.036197e+002,-1.391259e-002
6.055482e+002,-1.244504e-002
6.074767e+002,-1.046473e-002
6.094052e+002,-9.985982e-003
6.113337e+002,-1.145956e-002
6.132622e+002,-1.255749e-002
6.151907e+002,-1.196009e-002
6.171192e+002,-1.207998e-002
6.190477e+002,-1.208672e-002
6.209762e+002,-1.206693e-002
6.229047e+002,-1.339535e-002
6.248332e+002,-1.596201e-002
6.267617e+002,-1.742208e-002
6.286902e+002,-1.741775e-002
6.306187e+002,-1.664457e-002
6.325472e+002,-1.654699e-002
6.344756e+002,-1.645799e-002
6.364042e+002,-1.637995e-002
6.383326e+002,-1.644328e-002
6.402612e+002,-1.676159e-002
6.421896e+002,-1.659827e-002
6.441182e+002,-1.664945e-002
6.460466e+002,-1.738429e-002
6.479752e+002,-1.722468e-002
6.499036e+002,-1.701591e-002
6.518322e+002,-1.728190e-002
6.537606e+002,-1.726050e-002
6.556891e+002,-1.768015e-002
6.576177e+002,-1.825322e-002
6.595461e+002,-1.865582e-002
6.614746e+002,-1.866090e-002
6.634031e+002,-1.865994e-002
6.653317e+002,-1.831412e-002
6.672601e+002,-1.843180e-002
6.691886e+002,-1.785909e-002
6.711171e+002,-1.716168e-002
6.730457e+002,-1.662557e-002
6.749741e+002,-1.680641e-002
6.769026e+002,-1.691646e-002
6.788311e+002,-1.660962e-002
6.807596e+002,-1.646491e-002
6.826881e+002,-1.614798e-002
6.846166e+002,-1.596575e-002
6.865451e+002,-1.593761e-002
6.884736e+002,-1.570387e-002
6.904021e+002,-1.563078e-002
6.923306e+002,-1.516919e-002
6.942591e+002,-1.471117e-002
6.961876e+002,-1.510218e-002
6.981161e+002,-1.530458e-002
7.000446e+002,-1.508682e-002
7.019731e+002,-1.465588e-002
7.039016e+002,-1.443863e-002
7.058301e+002,-1.481445e-002
7.077585e+002,-1.497121e-002
7.096871e+002,-1.457226e-002
7.116156e+002,-1.393418e-002
7.135441e+002,-1.432811e-002
7.154725e+002,-1.516256e-002
7.174011e+002,-1.531782e-002
7.193296e+002,-1.501151e-002
7.212581e+002,-1.547778e-002
7.231865e+002,-1.551375e-002
7.251151e+002,-1.495959e-002
7.270436e+002,-1.509786e-002
7.289720e+002,-1.524671e-002
7.309005e+002,-1.490132e-002
7.328290e+002,-1.504790e-002
7.347576e+002,-1.499186e-002
7.366860e+002,-1.438414e-002
7.386145e+002,-1.421207e-002
7.405430e+002,-1.467154e-002
7.424716e+002,-1.474470e-002
7.444000e+002,-1.457864e-002
7.463285e+002,-1.426267e-002
7.482570e+002,-1.428781e-002
7.501855e+002,-1.385303e-002
7.521140e+002,-1.300576e-002
7.540425e+002,-1.273044e-002
7.559710e+002,-1.294938e-002
7.578995e+002,-1.284852e-002
7.598280e+002,-1.270470e-002
7.617565e+002,-1.271178e-002
7.636850e+002,-1.273749e-002
7.656135e+002,-1.257867e-002
7.675420e+002,-1.242269e-002
7.694705e+002,-1.228215e-002
7.713990e+002,-1.228621e-002
7.733275e+002,-1.244819e-002
7.752560e+002,-1.290272e-002
7.771844e+002,-1.310839e-002
7.791130e+002,-1.325069e-002
7.810415e+002,-1.344608e-002
7.829700e+002,-1.343885e-002
7.848984e+002,-1.300984e-002
7.868270e+002,-1.308354e-002
7.887555e+002,-1.354607e-002
7.906840e+002,-1.386259e-002
7.926124e+002,-1.414302e-002
7.945410e+002,-1.449446e-002
7.964695e+002,-1.440273e-002
7.983979e+002,-1.399043e-002
8.003264e+002,-1.415354e-002
8.022549e+002,-1.460706e-002
8.041835e+002,-1.431778e-002
8.061119e+002,-1.412048e-002
8.080404e+002,-1.386731e-002
8.099689e+002,-1.384510e-002
8.118975e+002,-1.422092e-002
8.138259e+002,-1.387819e-002
8.157545e+002,-1.323658e-002
8.176830e+002,-1.358249e-002
8.196115e+002,-1.414867e-002
8.215399e+002,-1.447648e-002
8.234684e+002,-1.439786e-002
8.253970e+002,-1.427684e-002
8.273254e+002,-1.414697e-002
8.292539e+002,-1.416737e-002
8.311824e+002,-1.444764e-002
8.331110e+002,-1.434959e-002
8.350394e+002,-1.393139e-002
8.369679e+002,-1.363062e-002
8.388964e+002,-1.392170e-002
8.408250e+002,-1.393579e-002
8.427534e+002,-1.382122e-002
8.446819e+002,-1.377323e-002
8.466104e+002,-1.407147e-002
8.485389e+002,-1.434962e-002
8.504674e+002,-1.458175e-002
8.523959e+002,-1.461833e-002
8.543244e+002,-1.459344e-002
8.562529e+002,-1.456518e-002
8.581814e+002,-1.471764e-002
8.601099e+002,-1.473394e-002
8.620384e+002,-1.460171e-002
8.639669e+002,-1.511124e-002
8.658954e+002,-1.553268e-002
8.678239e+002,-1.540168e-002
8.697524e+002,-1.534376e-002
8.716809e+002,-1.554713e-002
8.736094e+002,-1.579689e-002
8.755378e+002,-1.572142e-002
8.774664e+002,-1.552120e-002
8.793949e+002,-1.522690e-002
8.813234e+002,-1.499426e-002
8.832518e+002,-1.517728e-002
8.851804e+002,-1.569624e-002
8.871089e+002,-1.581986e-002
8.890374e+002,-1.533234e-002
8.909658e+002,-1.533112e-002
8.928943e+002,-1.504025e-002
8.948229e+002,-1.451596e-002
8.967513e+002,-1.451580e-002
8.986798e+002,-1.467718e-002
9.006083e+002,-1.464781e-002
9.025369e+002,-1.444738e-002
9.044653e+002,-1.436331e-002
9.063938e+002,-1.484385e-002
9.083223e+002,-1.501727e-002
9.102509e+002,-1.521638e-002
9.121793e+002,-1.540200e-002
9.141078e+002,-1.522732e-002
9.160364e+002,-1.488765e-002
9.179648e+002,-1.478643e-002
9.198933e+002,-1.497041e-002
9.218218e+002,-1.524927e-002
9.237504e+002,-1.529648e-002
9.256788e+002,-1.563503e-002
9.276073e+002,-1.576404e-002
9.295358e+002,-1.541949e-002
9.314644e+002,-1.528196e-002
9.333928e+002,-1.550931e-002
9.353213e+002,-1.557558e-002
9.372498e+002,-1.545009e-002
9.391783e+002,-1.549821e-002
9.411068e+002,-1.536979e-002
9.430353e+002,-1.518787e-002
9.449637e+002,-1.539253e-002
9.468923e+002,-1.542748e-002
9.488208e+002,-1.536499e-002
9.507493e+002,-1.521526e-002
9.526777e+002,-1.501090e-002
9.546063e+002,-1.502242e-002
9.565348e+002,-1.486956e-002
9.584633e+002,-1.495504e-002
9.603917e+002,-1.532124e-002
9.623203e+002,-1.539438e-002
9.642488e+002,-1.514592e-002
9.661772e+002,-1.487696e-002
9.681057e+002,-1.472478e-002
9.700343e+002,-1.470614e-002
9.719628e+002,-1.489822e-002
9.738912e+002,-1.516183e-002
9.758197e+002,-1.530288e-002
9.777483e+002,-1.523541e-002
9.796768e+002,-1.508362e-002
9.816052e+002,-1.501846e-002
9.835337e+002,-1.525941e-002
9.854623e+002,-1.538853e-002
9.873907e+002,-1.553044e-002
9.893192e+002,-1.546809e-002
9.912477e+002,-1.541792e-002
9.931763e+002,-1.555924e-002
9.951047e+002,-1.554403e-002
9.970332e+002,-1.543196e-002
9.989617e+002,-1.548709e-002
1.000890e+003,-1.525771e-002
1.002819e+003,-1.492754e-002
1.004747e+003,-1.485730e-002
1.006676e+003,-1.463977e-002
1.008604e+003,-1.425520e-002
1.010533e+003,-1.418279e-002
1.012461e+003,-1.406925e-002
1.014390e+003,-1.387318e-002
1.016318e+003,-1.352002e-002
1.018247e+003,-1.306399e-002
1.020175e+003,-1.311688e-002
1.022104e+003,-1.304396e-002
1.024032e+003,-1.239442e-002
1.025961e+003,-1.185928e-002
1.027889e+003,-1.163524e-002
1.029818e+003,-1.129592e-002
1.031746e+003,-1.093852e-002
1.033675e+003,-1.049837e-002
1.035603e+003,-9.864666e-003
1.037532e+003,-9.533127e-003
1.039460e+003,-9.268283e-003
1.041389e+003,-8.890647e-003
1.043317e+003,-8.693100e-003
1.045246e+003,-8.598385e-003
1.047174e+003,-8.408407e-003
1.049103e+003,-8.272801e-003
1.051031e+003,-7.941442e-003
1.052960e+003,-7.609342e-003
1.054888e+003,-7.652024e-003
1.056817e+003,-7.857985e-003
1.058745e+003,-7.837842e-003
1.060674e+003,-7.785415e-003
1.062602e+003,-7.764000e-003
1.064531e+003,-7.736594e-003
1.066459e+003,-7.698738e-003
1.068388e+003,-7.688875e-003
1.070316e+003,-7.592639e-003
1.072245e+003,-7.530575e-003
1.074173e+003,-7.533832e-003
1.076102e+003,-7.721133e-003
1.078030e+003,-7.884602e-003
1.079959e+003,-7.830358e-003
1.081887e+003,-7.697989e-003
1.083816e+003,-7.744536e-003
1.085744e+003,-7.704239e-003
1.087673e+003,-7.614974e-003
1.089601e+003,-7.688875e-003
1.091530e+003,-7.599932e-003
1.093458e+003,-7.225665e-003
1.095387e+003,-7.082974e-003
1.097315e+003,-7.035607e-003
1.099244e+003,-7.123818e-003
1.101172e+003,-6.981452e-003
1.103101e+003,-7.017219e-003
1.105029e+003,-7.363813e-003
1.106958e+003,-7.429875e-003
1.108886e+003,-7.280213e-003
1.110815e+003,-7.174043e-003
1.112743e+003,-7.182452e-003
1.114672e+003,-7.243848e-003
1.116600e+003,-7.238765e-003
1.118529e+003,-7.442089e-003
1.120457e+003,-7.556659e-003
1.122386e+003,-7.380036e-003
1.124314e+003,-7.253494e-003
1.126243e+003,-7.527970e-003
1.128171e+003,-7.611816e-003
1.130100e+003,-7.562422e-003
1.132028e+003,-7.779004e-003
1.133957e+003,-8.077119e-003
1.135885e+003,-8.321627e-003
1.137814e+003,-8.377727e-003
1.139742e+003,-8.580681e-003
1.141671e+003,-8.991107e-003
1.143599e+003,-9.196435e-003
1.145528e+003,-9.305224e-003
1.147456e+003,-9.551116e-003
1.149385e+003,-9.842932e-003
1.151313e+003,-1.022473e-002
1.153242e+003,-1.062196e-002
1.155170e+003,-1.080144e-002
1.157099e+003,-1.075435e-002
1.159027e+003,-1.084565e-002
1.160956e+003,-1.096527e-002
1.162884e+003,-1.109213e-002
1.164813e+003,-1.117542e-002
1.166741e+003,-1.127951e-002
1.168670e+003,-1.132197e-002
1.170598e+003,-1.121362e-002
1.172526e+003,-1.123112e-002
1.174455e+003,-1.117916e-002
1.176384e+003,-1.109881e-002
1.178312e+003,-1.124229e-002
1.180240e+003,-1.136177e-002
1.182169e+003,-1.146682e-002
1.184098e+003,-1.156094e-002
1.186026e+003,-1.158369e-002
1.187954e+003,-1.162840e-002
1.189883e+003,-1.189707e-002
1.191812e+003,-1.212651e-002
1.193740e+003,-1.208063e-002
1.195668e+003,-1.214040e-002
1.197597e+003,-1.227410e-002
1.199526e+003,-1.238952e-002
1.201454e+003,-1.245544e-002
1.203382e+003,-1.240659e-002
1.205311e+003,-1.232924e-002
1.207240e+003,-1.233130e-002
1.209168e+003,-1.228231e-002
1.211096e+003,-1.226891e-002
1.213025e+003,-1.225332e-002
1.214953e+003,-1.225158e-002
1.216882e+003,-1.227757e-002
1.218810e+003,-1.235317e-002
1.220739e+003,-1.230634e-002
1.222667e+003,-1.220110e-002
1.224596e+003,-1.206381e-002
1.226524e+003,-1.196244e-002
1.228453e+003,-1.189652e-002
1.230381e+003,-1.168943e-002
1.232310e+003,-1.160260e-002
1.234238e+003,-1.150271e-002
1.236167e+003,-1.134744e-002
1.238095e+003,-1.142965e-002
1.240024e+003,-1.140302e-002
1.241952e+003,-1.124106e-002
1.243881e+003,-1.137765e-002
1.245809e+003,-1.149551e-002
1.247738e+003,-1.149858e-002
1.249666e+003,-1.161666e-002
1.251595e+003,-1.172788e-002
1.253523e+003,-1.173220e-002
1.255452e+003,-1.178244e-002
1.257380e+003,-1.182191e-002
1.259309e+003,-1.181414e-002
1.261237e+003,-1.177054e-002
1.263166e+003,-1.164769e-002
1.265094e+003,-1.155262e-002
1.267023e+003,-1.132600e-002
1.268951e+003,-1.097829e-002
1.270880e+003,-1.073657e-002
1.272808e+003,-1.055703e-002
1.274737e+003,-1.042333e-002
1.276665e+003,-1.022955e-002
1.278594e+003,-1.001529e-002
1.280522e+003,-9.813131e-003
1.282451e+003,-9.614059e-003
1.284379e+003,-9.495946e-003
1.286308e+003,-9.129636e-003
1.288236e+003,-8.948979e-003
1.290165e+003,-8.845652e-003
1.292093e+003,-8.679588e-003
1.294022e+003,-8.650097e-003
1.295950e+003,-8.504170e-003
1.297879e+003,-8.279400e-003
1.299807e+003,-8.282651e-003
1.301736e+003,-8.486104e-003
1.303664e+003,-8.561741e-003
1.305593e+003,-8.563463e-003
1.307521e+003,-8.665947e-003
1.309450e+003,-9.005258e-003
1.311378e+003,-9.305938e-003
1.313307e+003,-9.419660e-003
1.315235e+003,-9.541132e-003
1.317164e+003,-9.780833e-003
1.319092e+003,-1.011494e-002
1.321021e+003,-1.054545e-002
1.322949e+003,-1.085939e-002
1.324878e+003,-1.098298e-002
1.326806e+003,-1.104888e-002
1.328735e+003,-1.106341e-002
1.330663e+003,-1.112123e-002
1.332592e+003,-1.118976e-002
1.334520e+003,-1.119085e-002
1.336449e+003,-1.123112e-002
1.338377e+003,-1.132736e-002
1.340306e+003,-1.151597e-002
1.342234e+003,-1.148586e-002
1.344163e+003,-1.138094e-002
1.346091e+003,-1.148057e-002
1.348020e+003,-1.150880e-002
1.349948e+003,-1.162769e-002
1.351877e+003,-1.172556e-002
1.353805e+003,-1.172214e-002
1.355734e+003,-1.177090e-002
1.357662e+003,-1.191273e-002
1.359591e+003,-1.199219e-002
1.361519e+003,-1.215090e-002
1.363448e+003,-1.224527e-002
1.365376e+003,-1.226608e-002
1.367305e+003,-1.237835e-002
1.369233e+003,-1.239951e-002
1.371162e+003,-1.251909e-002
1.373090e+003,-1.258932e-002
1.375019e+003,-1.249533e-002
1.376947e+003,-1.246651e-002
1.378876e+003,-1.238038e-002
1.380804e+003,-1.224108e-002
1.382733e+003,-1.231291e-002
1.384661e+003,-1.252037e-002
1.386590e+003,-1.272118e-002
1.388518e+003,-1.275773e-002
1.390447e+003,-1.274306e-002
1.392375e+003,-1.295855e-002
1.394304e+003,-1.318531e-002
1.396232e+003,-1.326290e-002
1.398161e+003,-1.332466e-002
1.400089e+003,-1.329931e-002
1.402018e+003,-1.333675e-002
1.403946e+003,-1.333797e-002
1.405875e+003,-1.333128e-002
1.407803e+003,-1.336531e-002
1.409732e+003,-1.347704e-002
1.411660e+003,-1.363457e-002
1.413589e+003,-1.361354e-002
1.415517e+003,-1.351180e-002
1.417446e+003,-1.340788e-002
1.419374e+003,-1.314166e-002
1.421303e+003,-1.258533e-002
1.423231e+003,-1.220941e-002
1.425160e+003,-1.163279e-002
1.427088e+003,-1.120726e-002
1.429017e+003,-1.091681e-002
1.430945e+003,-1.057155e-002
1.432874e+003,-1.019421e-002
1.434802e+003,-9.961599e-003
1.436731e+003,-9.683634e-003
1.438659e+003,-9.079993e-003
1.440588e+003,-8.747334e-003
1.442516e+003,-8.511903e-003
1.444445e+003,-8.126128e-003
1.446373e+003,-7.592248e-003
1.448302e+003,-7.135128e-003
1.450230e+003,-6.755664e-003
1.452159e+003,-6.359380e-003
1.454087e+003,-6.071944e-003
1.456016e+003,-6.083968e-003
1.457944e+003,-5.538147e-003
1.459873e+003,-5.074602e-003
1.461801e+003,-5.101717e-003
1.463730e+003,-5.214353e-003
1.465658e+003,-5.200078e-003
1.467587e+003,-5.254455e-003
1.469515e+003,-5.588328e-003
1.471444e+003,-6.101382e-003
1.473372e+003,-6.297532e-003
1.475301e+003,-6.472408e-003
1.477229e+003,-6.811511e-003
1.479158e+003,-7.184114e-003
1.481086e+003,-7.706388e-003
1.483015e+003,-8.189538e-003
1.484943e+003,-8.651592e-003
1.486872e+003,-9.009477e-003
1.488800e+003,-9.416029e-003
1.490729e+003,-9.825538e-003
1.492657e+003,-1.011296e-002
1.494586e+003,-1.038282e-002
1.496514e+003,-1.065911e-002
1.498443e+003,-1.084769e-002
1.500371e+003,-1.099590e-002
1.502300e+003,-1.123799e-002
1.504228e+003,-1.177690e-002
1.506157e+003,-1.221199e-002
1.508085e+003,-1.200766e-002
1.510014e+003,-1.192531e-002
1.511942e+003,-1.198098e-002
1.513871e+003,-1.206310e-002
1.515799e+003,-1.242540e-002
1.517728e+003,-1.243467e-002
1.519656e+003,-1.251967e-002
1.521585e+003,-1.255353e-002
1.523513e+003,-1.236205e-002
1.525442e+003,-1.224546e-002
1.527370e+003,-1.208662e-002
1.529299e+003,-1.205182e-002
1.531227e+003,-1.215403e-002
1.533156e+003,-1.204569e-002
1.535084e+003,-1.178593e-002
1.537013e+003,-1.194858e-002
1.538941e+003,-1.204605e-002
1.540870e+003,-1.175394e-002
1.542798e+003,-1.151271e-002
1.544727e+003,-1.125462e-002
1.546655e+003,-1.103928e-002
1.548584e+003,-1.097173e-002
1.550512e+003,-1.082904e-002
1.552441e+003,-1.080225e-002
1.554369e+003,-1.076556e-002
1.556298e+003,-1.085086e-002
1.558226e+003,-1.094770e-002
1.560155e+003,-1.008392e-002
1.562083e+003,-9.430003e-003
1.564012e+003,-9.194489e-003
1.565940e+003,-8.953068e-003
1.567869e+003,-8.909475e-003
1.569797e+003,-8.726583e-003
1.571726e+003,-8.399112e-003
1.573654e+003,-8.395765e-003
1.575583e+003,-8.458517e-003
1.577511e+003,-8.313337e-003
1.579440e+003,-8.233334e-003
1.581368e+003,-8.081120e-003
1.583297e+003,-8.095820e-003
1.585225e+003,-8.248484e-003
1.587154e+003,-8.264414e-003
1.589082e+003,-8.403987e-003
1.591010e+003,-8.726290e-003
1.592939e+003,-9.035601e-003
1.594868e+003,-9.243826e-003
1.596796e+003,-9.497696e-003
1.598724e+003,-9.783522e-003
1.600653e+003,-1.024091e-002
1.602582e+003,-1.060460e-002
1.604510e+003,-1.080900e-002
1.606438e+003,-1.101670e-002
1.608367e+003,-1.133162e-002
1.610296e+003,-1.161034e-002
1.612224e+003,-1.191686e-002
1.614152e+003,-1.231761e-002
1.616081e+003,-1.265955e-002
1.618010e+003,-1.265019e-002
1.619938e+003,-1.276220e-002
1.621866e+003,-1.301939e-002
1.623795e+003,-1.321910e-002
1.625724e+003,-1.324391e-002
1.627652e+003,-1.333177e-002
1.629580e+003,-1.344193e-002
1.631509e+003,-1.364385e-002
1.633438e+003,-1.392613e-002
1.635366e+003,-1.422801e-002
1.637294e+003,-1.430224e-002
1.639223e+003,-1.446398e-002
1.641151e+003,-1.476677e-002
1.643080e+003,-1.531529e-002
1.645008e+003,-1.579242e-002
1.646937e+003,-1.590743e-002
1.648865e+003,-1.602774e-002
1.650794e+003,-1.663226e-002
1.652722e+003,-1.699479e-002
1.654651e+003,-1.667790e-002
1.656579e+003,-1.666498e-002
1.658508e+003,-1.699237e-002
1.660436e+003,-1.727254e-002
1.662365e+003,-1.737318e-002
1.664293e+003,-1.732848e-002
1.666222e+003,-1.728684e-002
1.668150e+003,-1.746247e-002
1.670079e+003,-1.762871e-002
1.672007e+003,-1.762174e-002
1.673936e+003,-1.768009e-002
1.675864e+003,-1.758648e-002
1.677793e+003,-1.756256e-002
1.679721e+003,-1.765826e-002
1.681650e+003,-1.788965e-002
1.683578e+003,-1.808048e-002
1.685507e+003,-1.771384e-002
1.687435e+003,-1.761811e-002
1.689364e+003,-1.762412e-002
1.691292e+003,-1.761592e-002
1.693221e+003,-1.769555e-002
1.695149e+003,-1.771358e-002
1.697078e+003,-1.737076e-002
1.699006e+003,-1.746441e-002
1.700935e+003,-1.727722e-002
1.702863e+003,-1.702974e-002
1.704792e+003,-1.702515e-002
1.706720e+003,-1.679751e-002
1.708649e+003,-1.667885e-002
1.710577e+003,-1.669288e-002
1.712506e+003,-1.671686e-002
1.714434e+003,-1.677042e-002
1.716363e+003,-1.687592e-002
1.718291e+003,-1.664515e-002
1.720220e+003,-1.637398e-002
1.722148e+003,-1.642439e-002
1.724077e+003,-1.652086e-002
1.726005e+003,-1.655448e-002
1.727934e+003,-1.656143e-002
1.729862e+003,-1.654434e-002
1.731791e+003,-1.668526e-002
1.733719e+003,-1.684023e-002
1.735648e+003,-1.670379e-002
1.737576e+003,-1.677724e-002
1.739505e+003,-1.679592e-002
1.741433e+003,-1.656284e-002
1.743362e+003,-1.641865e-002
1.745290e+003,-1.636821e-002
1.747219e+003,-1.639057e-002
1.749147e+003,-1.643301e-002
1.751076e+003,-1.637807e-002
1.753004e+003,-1.618399e-002
1.754933e+003,-1.605810e-002
1.756861e+003,-1.603262e-002
1.758790e+003,-1.617719e-002
1.760718e+003,-1.627541e-002
1.762647e+003,-1.607688e-002
1.764575e+003,-1.595997e-002
1.766504e+003,-1.602595e-002
1.768432e+003,-1.612072e-002
1.770361e+003,-1.623047e-002
1.772289e+003,-1.618444e-002
1.774218e+003,-1.606267e-002
1.776146e+003,-1.598296e-002
1.778075e+003,-1.600468e-002
1.780003e+003,-1.609198e-002
1.781932e+003,-1.604559e-002
1.783860e+003,-1.605641e-002
1.785789e+003,-1.597913e-002
1.787717e+003,-1.592410e-002
1.789646e+003,-1.602154e-002
1.791574e+003,-1.617046e-002
1.793503e+003,-1.614399e-002
1.795431e+003,-1.616812e-002
1.797360e+003,-1.614472e-002
1.799288e+003,-1.604150e-002
1.801217e+003,-1.609153e-002
1.803145e+003,-1.605255e-002
1.805074e+003,-1.598421e-002
1.807002e+003,-1.598354e-002
1.808931e+003,-1.609415e-002
1.810859e+003,-1.602368e-002
1.812788e+003,-1.591461e-002
1.814716e+003,-1.598753e-002
1.816645e+003,-1.598926e-002
1.818573e+003,-1.605970e-002
1.820502e+003,-1.611005e-002
1.822430e+003,-1.613840e-002
1.824359e+003,-1.611934e-002
1.826287e+003,-1.614651e-002
1.828216e+003,-1.624352e-002
1.830144e+003,-1.618179e-002
1.832073e+003,-1.605593e-002
1.834001e+003,-1.598695e-002
1.835930e+003,-1.607174e-002
1.837858e+003,-1.617036e-002
1.839787e+003,-1.622881e-002
1.841715e+003,-1.631284e-002
1.843644e+003,-1.631530e-002
1.845572e+003,-1.621719e-002
1.847501e+003,-1.614750e-002
1.849429e+003,-1.613167e-002
1.851358e+003,-1.613406e-002
1.853286e+003,-1.609613e-002
1.855215e+003,-1.603438e-002
1.857143e+003,-1.610935e-002
1.859072e+003,-1.625492e-002
1.861000e+003,-1.615175e-002
1.862929e+003,-1.603387e-002
1.864857e+003,-1.600318e-002
1.866786e+003,-1.617831e-002
1.868714e+003,-1.628533e-002
1.870643e+003,-1.613649e-002
1.872571e+003,-1.604619e-002
1.874500e+003,-1.602962e-002
1.876428e+003,-1.611768e-002
1.878357e+003,-1.620646e-002
1.880285e+003,-1.618319e-002
1.882214e+003,-1.616104e-002
1.884142e+003,-1.618172e-002
1.886071e+003,-1.617100e-002
1.887999e+003,-1.620353e-002
1.889928e+003,-1.619609e-002
1.891856e+003,-1.617205e-002
1.893785e+003,-1.619156e-002
1.895713e+003,-1.624368e-002
1.897642e+003,-1.623037e-002
1.899570e+003,-1.621894e-002
1.901499e+003,-1.615555e-002
1.903427e+003,-1.611513e-002
1.905356e+003,-1.625096e-002
1.907284e+003,-1.623302e-002
1.909213e+003,-1.615092e-002
1.911141e+003,-1.613614e-002
1.913070e+003,-1.610648e-002
1.914998e+003,-1.622163e-002
1.916927e+003,-1.635110e-002
1.918855e+003,-1.629344e-002
1.920784e+003,-1.632293e-002
1.922712e+003,-1.637098e-002
1.924641e+003,-1.629564e-002
1.926569e+003,-1.625332e-002
1.928498e+003,-1.623790e-002
1.930426e+003,-1.622220e-002
1.932355e+003,-1.623404e-002
1.934283e+003,-1.625798e-002
1.936212e+003,-1.622124e-002
1.938140e+003,-1.620433e-002
1.940069e+003,-1.630646e-002
1.941997e+003,-1.634463e-002
1.943926e+003,-1.621087e-002
1.945854e+003,-1.622242e-002
1.947783e+003,-1.634680e-002
1.949711e+003,-1.636604e-002
1.951640e+003,-1.635260e-002
1.953568e+003,-1.637287e-002
1.955497e+003,-1.637274e-002
1.957425e+003,-1.638355e-002
1.959354e+003,-1.634731e-002
1.961282e+003,-1.633537e-002
1.963211e+003,-1.636396e-002
1.965139e+003,-1.638869e-002
1.967068e+003,-1.635611e-002
1.968996e+003,-1.636281e-002
1.970925e+003,-1.632809e-002
1.972853e+003,-1.634810e-002
1.974782e+003,-1.636584e-002
1.976710e+003,-1.640085e-002
1.978639e+003,-1.639083e-002
1.980567e+003,-1.636741e-002
1.982496e+003,-1.638534e-002
1.984424e+003,-1.647598e-002
1.986353e+003,-1.646775e-002
1.988281e+003,-1.640059e-002
1.990210e+003,-1.637494e-002
1.992138e+003,-1.628032e-002
1.994067e+003,-1.618971e-002
1.995995e+003,-1.613231e-002
1.997924e+003,-1.616484e-002
1.999852e+003,-1.623360e-002
2.001781e+003,-1.627241e-002
2.003709e+003,-1.630547e-002
2.005638e+003,-1.631010e-002
2.007566e+003,-1.632615e-002
2.009495e+003,-1.638084e-002
2.011423e+003,-1.640148e-002
2.013352e+003,-1.623197e-002
2.015280e+003,-1.616908e-002
2.017208e+003,-1.633639e-002
2.019137e+003,-1.644226e-002
2.021066e+003,-1.639102e-002
2.022994e+003,-1.629037e-002
2.024922e+003,-1.629538e-002
2.026851e+003,-1.628348e-002
2.028780e+003,-1.630920e-002
2.030708e+003,-1.630107e-002
2.032636e+003,-1.623848e-002
2.034565e+003,-1.622814e-002
2.036494e+003,-1.629430e-002
2.038422e+003,-1.628785e-002
2.040350e+003,-1.621409e-002
2.042279e+003,-1.619666e-002
2.044208e+003,-1.623889e-002
2.046136e+003,-1.620531e-002
2.048064e+003,-1.618249e-002
2.049993e+003,-1.623758e-002
2.051921e+003,-1.623225e-002
2.053850e+003,-1.616998e-002
2.055778e+003,-1.619347e-002
2.057707e+003,-1.617534e-002
2.059635e+003,-1.603521e-002
2.061564e+003,-1.605028e-002
2.063492e+003,-1.612308e-002
2.065421e+003,-1.621422e-002
2.067349e+003,-1.626159e-002
2.069278e+003,-1.623037e-002
2.071206e+003,-1.622708e-002
2.073135e+003,-1.626478e-002
2.075063e+003,-1.617499e-002
2.076992e+003,-1.618878e-002
2.078920e+003,-1.616442e-002
2.080849e+003,-1.607509e-002
2.082777e+003,-1.602215e-002
2.084706e+003,-1.603978e-002
2.086634e+003,-1.615858e-002
2.088563e+003,-1.622926e-002
2.090491e+003,-1.612209e-002
2.092420e+003,-1.605060e-002
2.094348e+003,-1.607279e-002
2.096277e+003,-1.604236e-002
2.098205e+003,-1.597993e-002
2.100134e+003,-1.603064e-002
2.102062e+003,-1.603805e-002
2.103991e+003,-1.600442e-002
2.105919e+003,-1.595546e-002
2.107848e+003,-1.592285e-002
2.109776e+003,-1.599801e-002
2.111705e+003,-1.602129e-002
2.113633e+003,-1.592343e-002
2.115562e+003,-1.589254e-002
2.117490e+003,-1.585874e-002
2.119419e+003,-1.578264e-002
2.121347e+003,-1.579440e-002
2.123276e+003,-1.580865e-002
2.125204e+003,-1.584807e-002
2.127133e+003,-1.583683e-002
2.129061e+003,-1.570784e-002
2.130990e+003,-1.568662e-002
2.132918e+003,-1.568476e-002
2.134847e+003,-1.564740e-002
2.136775e+003,-1.566690e-002
2.138704e+003,-1.570729e-002
2.140632e+003,-1.563542e-002
2.142561e+003,-1.561474e-002
2.144489e+003,-1.565741e-002
2.146418e+003,-1.557468e-002
2.148346e+003,-1.545709e-002
2.150275e+003,-1.541242e-002
2.152203e+003,-1.550432e-002
2.154132e+003,-1.561438e-002
2.156060e+003,-1.557034e-002
2.157989e+003,-1.558638e-002
2.159917e+003,-1.557181e-002
2.161846e+003,-1.554262e-002
2.163774e+003,-1.551998e-002
2.165703e+003,-1.552146e-002
2.167631e+003,-1.546979e-002
2.169560e+003,-1.532207e-002
2.171488e+003,-1.527505e-002
2.173417e+003,-1.533483e-002
2.175345e+003,-1.538121e-002
2.177274e+003,-1.542563e-002
2.179202e+003,-1.544955e-002
2.181131e+003,-1.547813e-002
2.183059e+003,-1.543052e-002
2.184988e+003,-1.540238e-002
2.186916e+003,-1.545808e-002
2.188845e+003,-1.548437e-002
2.190773e+003,-1.539854e-002
2.192702e+003,-1.533093e-002
2.194630e+003,-1.535690e-002
2.196559e+003,-1.547717e-002
2.198487e+003,-1.560537e-002
2.200416e+003,-1.563187e-002
2.202344e+003,-1.557539e-002
2.204273e+003,-1.556401e-002
2.206201e+003,-1.555560e-002
2.208130e+003,-1.558654e-002
2.210058e+003,-1.565824e-002
2.211987e+003,-1.568582e-002
2.213915e+003,-1.564117e-002
2.215844e+003,-1.566006e-002
2.217772e+003,-1.574487e-002
2.219701e+003,-1.568847e-002
2.221629e+003,-1.564552e-002
2.223558e+003,-1.569234e-002
2.225486e+003,-1.575922e-002
2.227415e+003,-1.571263e-002
2.229343e+003,-1.572215e-002
2.231272e+003,-1.576341e-002
2.233200e+003,-1.588171e-002
2.235129e+003,-1.582191e-002
2.237057e+003,-1.576750e-002
2.238986e+003,-1.581472e-002
2.240914e+003,-1.593183e-002
2.242843e+003,-1.599299e-002
2.244771e+003,-1.596326e-002
2.246700e+003,-1.594889e-002
2.248628e+003,-1.590583e-002
2.250557e+003,-1.589784e-002
2.252485e+003,-1.595614e-002
2.254414e+003,-1.596776e-002
2.256342e+003,-1.591711e-002
2.258271e+003,-1.592969e-002
2.260199e+003,-1.597964e-002
2.262128e+003,-1.607171e-002
2.264056e+003,-1.610581e-002
2.265985e+003,-1.602448e-002
2.267913e+003,-1.602924e-002
2.269842e+003,-1.607260e-002
2.271770e+003,-1.605274e-002
2.273699e+003,-1.604444e-002
2.275627e+003,-1.602617e-002
2.277556e+003,-1.607653e-002
2.279484e+003,-1.614543e-002
2.281413e+003,-1.612982e-002
2.283341e+003,-1.614108e-002
2.285270e+003,-1.622514e-002
2.287198e+003,-1.630343e-002
2.289127e+003,-1.628399e-002
2.291055e+003,-1.620988e-002
2.292984e+003,-1.619060e-002
2.294912e+003,-1.630474e-002
2.296841e+003,-1.633528e-002
2.298769e+003,-1.630474e-002
2.300698e+003,-1.625367e-002
2.302626e+003,-1.622744e-002
2.304555e+003,-1.618808e-002
2.306483e+003,-1.616758e-002
2.308412e+003,-1.616094e-002
2.310340e+003,-1.619596e-002
2.312269e+003,-1.621125e-002
2.314197e+003,-1.622025e-002
2.316125e+003,-1.621387e-002
2.318054e+003,-1.627340e-002
2.319983e+003,-1.634545e-002
2.321911e+003,-1.637038e-002
2.323840e+003,-1.626561e-002
2.325768e+003,-1.629854e-002
2.327697e+003,-1.637797e-002
2.329625e+003,-1.642194e-002
2.331553e+003,-1.650893e-002
2.333482e+003,-1.650491e-002
2.335411e+003,-1.645719e-002
2.337339e+003,-1.645741e-002
2.339268e+003,-1.642736e-002
2.341196e+003,-1.646440e-002
2.343125e+003,-1.651729e-002
2.345053e+003,-1.647636e-002
2.346981e+003,-1.636502e-002
2.348910e+003,-1.639871e-002
2.350839e+003,-1.650300e-002
2.352767e+003,-1.663635e-002
2.354696e+003,-1.674708e-002
2.356624e+003,-1.674106e-002
2.358552e+003,-1.674326e-002
2.360481e+003,-1.678311e-002
2.362409e+003,-1.687733e-002
2.364338e+003,-1.691882e-002
2.366267e+003,-1.682853e-002
2.368195e+003,-1.674345e-002
2.370124e+003,-1.663246e-002
2.372052e+003,-1.658685e-002
2.373980e+003,-1.656708e-002
2.375909e+003,-1.656886e-002
2.377838e+003,-1.641884e-002
2.379766e+003,-1.629730e-002
2.381695e+003,-1.629548e-002
2.383623e+003,-1.617959e-002
2.385552e+003,-1.598054e-002
2.387480e+003,-1.591155e-002
2.389408e+003,-1.591471e-002
2.391337e+003,-1.588740e-002
2.393266e+003,-1.582775e-002
2.395194e+003,-1.579980e-002
2.397123e+003,-1.585785e-002
2.399051e+003,-1.591008e-002
2.400979e+003,-1.588810e-002
2.402908e+003,-1.577964e-002
2.404836e+003,-1.570208e-002
2.406765e+003,-1.575791e-002
2.408694e+003,-1.579689e-002
2.410622e+003,-1.578127e-002
2.412551e+003,-1.571998e-002
2.414479e+003,-1.570084e-002
2.416407e+003,-1.573334e-002
2.418336e+003,-1.579590e-002
2.420264e+003,-1.577248e-002
2.422193e+003,-1.569914e-002
2.424122e+003,-1.564801e-002
2.426050e+003,-1.558846e-002
2.427979e+003,-1.551084e-002
2.429907e+003,-1.542102e-002
2.431835e+003,-1.539269e-002
2.433764e+003,-1.538760e-002
2.435692e+003,-1.536215e-002
2.437621e+003,-1.539502e-002
2.439550e+003,-1.536042e-002
2.441478e+003,-1.534683e-002
2.443406e+003,-1.539138e-002
2.445335e+003,-1.536231e-002
2.447263e+003,-1.544370e-002
2.449192e+003,-1.552922e-002
2.451121e+003,-1.545009e-002
2.453049e+003,-1.534091e-002
2.454978e+003,-1.530595e-002
2.456906e+003,-1.529044e-002
2.458834e+003,-1.531798e-002
2.460763e+003,-1.531795e-002
2.462691e+003,-1.529399e-002
2.464620e+003,-1.519456e-002
2.466549e+003,-1.514058e-002
2.468477e+003,-1.518848e-002
2.470406e+003,-1.516554e-002
2.472334e+003,-1.521747e-002
2.474262e+003,-1.521731e-002
2.476191e+003,-1.513901e-002
2.478119e+003,-1.514474e-002
2.480048e+003,-1.517536e-002
2.481977e+003,-1.514208e-002
2.483905e+003,-1.509741e-002
2.485833e+003,-1.510532e-002
2.487762e+003,-1.508861e-002
2.489690e+003,-1.505658e-002
2.491619e+003,-1.502290e-002
2.493547e+003,-1.497470e-002
2.495476e+003,-1.499560e-002
2.497405e+003,-1.501702e-002
2.499333e+003,-1.492073e-002
2.501261e+003,-1.476136e-002
2.503190e+003,-1.487235e-002
2.505118e+003,-1.503011e-002
2.507047e+003,-1.493388e-002
2.508975e+003,-1.472353e-002
2.510904e+003,-1.468545e-002
2.512833e+003,-1.473586e-002
2.514761e+003,-1.473615e-002
2.516689e+003,-1.473785e-002
2.518618e+003,-1.481452e-002
2.520546e+003,-1.484190e-002
2.522475e+003,-1.483508e-002
2.524403e+003,-1.483002e-002
2.526332e+003,-1.472023e-002
2.528260e+003,-1.464800e-002
2.530189e+003,-1.462878e-002
2.532117e+003,-1.462090e-002
2.534046e+003,-1.470508e-002
2.535974e+003,-1.468631e-002
2.537903e+003,-1.467850e-002
2.539831e+003,-1.470351e-002
2.541760e+003,-1.467164e-002
2.543688e+003,-1.468083e-002
2.545617e+003,-1.469371e-002
2.547545e+003,-1.462990e-002
2.549474e+003,-1.457028e-002
2.551402e+003,-1.465261e-002
2.553331e+003,-1.466959e-002
2.555259e+003,-1.464512e-002
2.557188e+003,-1.470297e-002
2.559116e+003,-1.480110e-002
2.561045e+003,-1.464947e-002
2.562973e+003,-1.450734e-002
2.564902e+003,-1.468564e-002
2.566830e+003,-1.479185e-002
2.568759e+003,-1.466783e-002
2.570687e+003,-1.466632e-002
2.572616e+003,-1.464130e-002
2.574544e+003,-1.457617e-002
2.576473e+003,-1.466139e-002
2.578401e+003,-1.469842e-002
2.580330e+003,-1.465120e-002
2.582258e+003,-1.462208e-002
2.584187e+003,-1.463615e-002
2.586115e+003,-1.463589e-002
2.588044e+003,-1.450270e-002
2.589972e+003,-1.443472e-002
2.591901e+003,-1.445591e-002
2.593829e+003,-1.450314e-002
2.595758e+003,-1.450228e-002
2.597686e+003,-1.443719e-002
2.599615e+003,-1.441421e-002
2.601543e+003,-1.439065e-002
2.603472e+003,-1.450539e-002
2.605400e+003,-1.461539e-002
2.607329e+003,-1.457133e-002
2.609257e+003,-1.449891e-002
2.611186e+003,-1.449302e-002
2.613114e+003,-1.455922e-002
2.615043e+003,-1.454134e-002
2.616971e+003,-1.442991e-002
2.618900e+003,-1.440889e-002
2.620828e+003,-1.440357e-002
2.622757e+003,-1.426661e-002
2.624685e+003,-1.410838e-002
2.626614e+003,-1.416942e-002
2.628542e+003,-1.434542e-002
2.630471e+003,-1.448856e-002
2.632399e+003,-1.438571e-002
2.634328e+003,-1.433490e-002
2.636256e+003,-1.433978e-002
2.638185e+003,-1.428367e-002
2.640113e+003,-1.416791e-002
2.642042e+003,-1.406733e-002
2.643970e+003,-1.408439e-002
2.645899e+003,-1.407114e-002
2.647827e+003,-1.402001e-002
2.649756e+003,-1.398356e-002
2.651684e+003,-1.395786e-002
2.653613e+003,-1.390537e-002
2.655541e+003,-1.390107e-002
2.657470e+003,-1.384629e-002
2.659398e+003,-1.377108e-002
2.661327e+003,-1.382632e-002
2.663255e+003,-1.384603e-002
2.665184e+003,-1.380177e-002
2.667112e+003,-1.375272e-002
2.669041e+003,-1.369262e-002
2.670969e+003,-1.370103e-002
2.672898e+003,-1.368534e-002
2.674826e+003,-1.365711e-002
2.676755e+003,-1.361903e-002
2.678683e+003,-1.359553e-002
2.680612e+003,-1.360506e-002
2.682540e+003,-1.364334e-002
2.684469e+003,-1.359202e-002
2.686397e+003,-1.343490e-002
2.688326e+003,-1.334137e-002
2.690254e+003,-1.333671e-002
2.692183e+003,-1.330934e-002
2.694111e+003,-1.326178e-002
2.696040e+003,-1.319071e-002
2.697968e+003,-1.313311e-002
2.699897e+003,-1.315285e-002
2.701825e+003,-1.314883e-002
2.703754e+003,-1.313170e-002
2.705682e+003,-1.303650e-002
2.707611e+003,-1.287415e-002
2.709539e+003,-1.282458e-002
2.711468e+003,-1.283224e-002
2.713396e+003,-1.282699e-002
2.715325e+003,-1.287602e-002
2.717253e+003,-1.281194e-002
2.719182e+003,-1.272098e-002
2.721110e+003,-1.265360e-002
2.723039e+003,-1.261649e-002
2.724967e+003,-1.256866e-002
2.726896e+003,-1.244999e-002
2.728824e+003,-1.240595e-002
2.730753e+003,-1.235375e-002
2.732681e+003,-1.222893e-002
2.734610e+003,-1.214462e-002
2.736538e+003,-1.214040e-002
2.738467e+003,-1.212207e-002
2.740395e+003,-1.198839e-002
2.742324e+003,-1.193059e-002
2.744252e+003,-1.188659e-002
2.746181e+003,-1.181869e-002
2.748109e+003,-1.174829e-002
2.750038e+003,-1.159511e-002
2.751966e+003,-1.147699e-002
2.753895e+003,-1.140111e-002
2.755823e+003,-1.132858e-002
2.757752e+003,-1.125449e-002
2.759680e+003,-1.112523e-002
2.761609e+003,-1.096130e-002
2.763537e+003,-1.074963e-002
2.765466e+003,-1.055254e-002
2.767394e+003,-1.016381e-002
2.769323e+003,-9.811318e-003
2.771251e+003,-9.533029e-003
2.773180e+003,-9.068604e-003
2.775108e+003,-8.569310e-003
2.777037e+003,-8.147494e-003
2.778965e+003,-7.721068e-003
2.780894e+003,-7.164005e-003
2.782822e+003,-6.592096e-003
2.784750e+003,-6.073480e-003
2.786679e+003,-5.314554e-003
2.788608e+003,-4.572628e-003
2.790536e+003,-3.871436e-003
2.792465e+003,-3.098155e-003
2.794393e+003,-2.370489e-003
2.796322e+003,-1.785167e-003
2.798250e+003,-1.182037e-003
2.800178e+003,-4.650191e-004
2.802107e+003,2.555055e-004
2.804036e+003,8.902626e-004
2.805964e+003,1.352049e-003
2.807893e+003,1.574897e-003
2.809821e+003,1.672210e-003
2.811750e+003,1.804213e-003
2.813678e+003,1.806908e-003
2.815606e+003,1.698787e-003
2.817535e+003,1.552850e-003
2.819464e+003,1.320542e-003
2.821392e+003,1.007083e-003
2.823321e+003,5.191893e-004
2.825249e+003,-2.915698e-005
2.827177e+003,-5.100640e-004
2.829106e+003,-9.279539e-004
2.831034e+003,-1.493167e-003
2.832963e+003,-2.049401e-003
2.834892e+003,-2.561347e-003
2.836820e+003,-3.179045e-003
2.838749e+003,-3.827034e-003
2.840677e+003,-4.552890e-003
2.842605e+003,-5.278188e-003
2.844534e+003,-6.078773e-003
2.846462e+003,-6.872111e-003
2.848391e+003,-7.539270e-003
2.850320e+003,-8.061443e-003
2.852248e+003,-8.347077e-003
2.854177e+003,-8.461117e-003
2.856105e+003,-8.576977e-003
2.858033e+003,-8.681863e-003
2.859962e+003,-8.664519e-003
2.861890e+003,-8.714437e-003
2.863819e+003,-8.746164e-003
2.865748e+003,-8.702063e-003
2.867676e+003,-8.600302e-003
2.869604e+003,-8.510960e-003
2.871533e+003,-8.410682e-003
2.873461e+003,-8.192042e-003
2.875390e+003,-8.078777e-003
2.877319e+003,-8.083559e-003
2.879247e+003,-7.831627e-003
2.881176e+003,-7.657363e-003
2.883104e+003,-7.658405e-003
2.885032e+003,-7.721687e-003
2.886961e+003,-7.747108e-003
2.888889e+003,-7.829252e-003
2.890818e+003,-7.882779e-003
2.892747e+003,-7.985360e-003
2.894675e+003,-8.160696e-003
2.896604e+003,-8.225011e-003
2.898532e+003,-8.289283e-003
2.900460e+003,-8.410649e-003
2.902389e+003,-8.469955e-003
2.904317e+003,-8.584416e-003
2.906246e+003,-8.610404e-003
2.908175e+003,-8.680011e-003
2.910103e+003,-8.881427e-003
2.912031e+003,-9.103193e-003
2.913960e+003,-9.305808e-003
2.915888e+003,-9.562461e-003
2.917817e+003,-9.505346e-003
2.919745e+003,-9.265785e-003
2.921674e+003,-9.077721e-003
2.923603e+003,-8.919213e-003
2.925531e+003,-8.569668e-003
2.927459e+003,-8.301148e-003
2.929388e+003,-8.149412e-003
2.931316e+003,-7.855219e-003
2.933245e+003,-7.558189e-003
2.935173e+003,-7.327814e-003
2.937102e+003,-7.142820e-003
2.939031e+003,-7.022012e-003
2.940959e+003,-6.963845e-003
2.942887e+003,-7.135845e-003
2.944816e+003,-7.301554e-003
2.946744e+003,-7.447626e-003
2.948673e+003,-7.773764e-003
2.950601e+003,-8.185636e-003
2.952530e+003,-8.672638e-003
2.954458e+003,-9.242172e-003
2.956387e+003,-9.800984e-003
2.958315e+003,-1.042109e-002
2.960244e+003,-1.092621e-002
2.962172e+003,-1.143026e-002
2.964101e+003,-1.190210e-002
2.966029e+003,-1.248335e-002
2.967958e+003,-1.304811e-002
2.969886e+003,-1.344158e-002
2.971815e+003,-1.383576e-002
2.973743e+003,-1.424494e-002
2.975672e+003,-1.466338e-002
2.977600e+003,-1.497031e-002
2.979529e+003,-1.512557e-002
2.981457e+003,-1.540190e-002
2.983386e+003,-1.563209e-002
2.985314e+003,-1.589350e-002
2.987243e+003,-1.606235e-002
2.989171e+003,-1.615200e-002
2.991100e+003,-1.622711e-002
2.993028e+003,-1.636406e-002
2.994957e+003,-1.652501e-002
2.996885e+003,-1.669479e-002
2.998814e+003,-1.677361e-002
3.000742e+003,-1.688459e-002
3.002671e+003,-1.694581e-002
3.004599e+003,-1.688176e-002
3.006528e+003,-1.689256e-002
3.008456e+003,-1.708374e-002
3.010385e+003,-1.721907e-002
3.012313e+003,-1.715786e-002
3.014242e+003,-1.719261e-002
3.016170e+003,-1.720608e-002
3.018099e+003,-1.712894e-002
3.020027e+003,-1.707552e-002
3.021956e+003,-1.720353e-002
3.023884e+003,-1.737350e-002
3.025813e+003,-1.742981e-002
3.027741e+003,-1.749474e-002
3.029670e+003,-1.742303e-002
3.031598e+003,-1.736341e-002
3.033527e+003,-1.747899e-002
3.035455e+003,-1.758416e-002
3.037384e+003,-1.757427e-002
3.039312e+003,-1.758629e-002
3.041241e+003,-1.768810e-002
3.043169e+003,-1.783044e-002
3.045098e+003,-1.780732e-002
3.047026e+003,-1.772115e-002
3.048955e+003,-1.775583e-002
3.050883e+003,-1.785387e-002
3.052812e+003,-1.796443e-002
3.054740e+003,-1.798687e-002
3.056669e+003,-1.794583e-002
3.058597e+003,-1.809081e-002
3.060526e+003,-1.818701e-002
3.062454e+003,-1.810915e-002
3.064383e+003,-1.813540e-002
3.066311e+003,-1.817420e-002
3.068240e+003,-1.814223e-002
3.070168e+003,-1.819063e-002
3.072097e+003,-1.828839e-002
3.074025e+003,-1.827914e-002
3.075954e+003,-1.820264e-002
3.077882e+003,-1.819895e-002
3.079811e+003,-1.830757e-002
3.081739e+003,-1.847203e-002
3.083668e+003,-1.853655e-002
3.085596e+003,-1.851540e-002
3.087525e+003,-1.855128e-002
3.089453e+003,-1.857344e-002
3.091382e+003,-1.865264e-002
3.093310e+003,-1.868022e-002
3.095239e+003,-1.863188e-002
3.097167e+003,-1.863623e-002
3.099096e+003,-1.874217e-002
3.101024e+003,-1.878010e-002
3.102953e+003,-1.875109e-002
3.104881e+003,-1.878797e-002
3.106810e+003,-1.886126e-002
3.108738e+003,-1.884010e-002
3.110667e+003,-1.890954e-002
3.112595e+003,-1.901570e-002
3.114524e+003,-1.892937e-002
3.116452e+003,-1.884400e-002
3.118381e+003,-1.888486e-002
3.120309e+003,-1.897416e-002
3.122238e+003,-1.905864e-002
3.124166e+003,-1.917456e-002
3.126095e+003,-1.926855e-002
3.128023e+003,-1.923105e-002
3.129952e+003,-1.914134e-002
3.131880e+003,-1.911163e-002
3.133809e+003,-1.914378e-002
3.135737e+003,-1.924095e-002
3.137666e+003,-1.924174e-002
3.139594e+003,-1.912073e-002
3.141523e+003,-1.910881e-002
3.143451e+003,-1.911642e-002
3.145380e+003,-1.911458e-002
3.147308e+003,-1.912951e-002
3.149237e+003,-1.922693e-002
3.151165e+003,-1.930694e-002
3.153094e+003,-1.931533e-002
3.155022e+003,-1.930028e-002
3.156951e+003,-1.927600e-002
3.158879e+003,-1.917900e-002
3.160808e+003,-1.911483e-002
3.162736e+003,-1.920164e-002
3.164665e+003,-1.924066e-002
3.166593e+003,-1.928405e-002
3.168522e+003,-1.928044e-002
3.170450e+003,-1.930627e-002
3.172379e+003,-1.933951e-002
3.174307e+003,-1.929369e-002
3.176236e+003,-1.914857e-002
3.178164e+003,-1.918503e-002
3.180093e+003,-1.932855e-002
3.182021e+003,-1.931480e-002
3.183950e+003,-1.928770e-002
3.185878e+003,-1.931771e-002
3.187807e+003,-1.927828e-002
3.189735e+003,-1.927115e-002
3.191664e+003,-1.931768e-002
3.193592e+003,-1.943265e-002
3.195521e+003,-1.946759e-002
3.197449e+003,-1.938629e-002
3.199378e+003,-1.927027e-002
3.201306e+003,-1.917910e-002
3.203235e+003,-1.925667e-002
3.205163e+003,-1.931964e-002
3.207092e+003,-1.942095e-002
3.209020e+003,-1.944377e-002
3.210948e+003,-1.929720e-002
3.212877e+003,-1.920183e-002
3.214806e+003,-1.920157e-002
3.216734e+003,-1.925961e-002
3.218663e+003,-1.935381e-002
3.220591e+003,-1.929042e-002
3.222520e+003,-1.908376e-002
3.224448e+003,-1.908506e-002
3.226376e+003,-1.907352e-002
3.228305e+003,-1.895915e-002
3.230234e+003,-1.889438e-002
3.232162e+003,-1.894190e-002
3.234091e+003,-1.894938e-002
3.236019e+003,-1.890006e-002
3.237948e+003,-1.891760e-002
3.239876e+003,-1.886913e-002
3.241804e+003,-1.874354e-002
3.243733e+003,-1.879022e-002
3.245662e+003,-1.878762e-002
3.247590e+003,-1.879596e-002
3.249519e+003,-1.866401e-002
3.251447e+003,-1.858744e-002
3.253375e+003,-1.859963e-002
3.255304e+003,-1.852950e-002
3.257232e+003,-1.840613e-002
3.259161e+003,-1.835722e-002
3.261090e+003,-1.848206e-002
3.263018e+003,-1.843472e-002
3.264947e+003,-1.833518e-002
3.266875e+003,-1.843049e-002
3.268803e+003,-1.845047e-002
3.270732e+003,-1.837806e-002
3.272660e+003,-1.824880e-002
3.274589e+003,-1.812539e-002
3.276518e+003,-1.816867e-002
3.278446e+003,-1.828346e-002
3.280375e+003,-1.833661e-002
3.282303e+003,-1.822885e-002
3.284231e+003,-1.815571e-002
3.286160e+003,-1.818748e-002
3.288088e+003,-1.831815e-002
3.290017e+003,-1.848702e-002
3.291946e+003,-1.857865e-002
3.293874e+003,-1.864426e-002
3.295802e+003,-1.855014e-002
3.297731e+003,-1.852493e-002
3.299659e+003,-1.861988e-002
3.301588e+003,-1.863049e-002
3.303516e+003,-1.870409e-002
3.305445e+003,-1.888280e-002
3.307374e+003,-1.911547e-002
3.309302e+003,-1.919102e-002
3.311230e+003,-1.924399e-002
3.313159e+003,-1.937491e-002
3.315087e+003,-1.937897e-002
3.317016e+003,-1.947665e-002
3.318944e+003,-1.972616e-002
3.320873e+003,-1.970701e-002
3.322802e+003,-1.976090e-002
3.324730e+003,-2.003556e-002
3.326658e+003,-2.014416e-002
3.328587e+003,-2.008488e-002
3.330515e+003,-2.000338e-002
3.332444e+003,-2.003793e-002
3.334372e+003,-2.022555e-002
3.336301e+003,-2.030239e-002
3.338229e+003,-2.029812e-002
3.340158e+003,-2.031507e-002
3.342086e+003,-2.027788e-002
3.344015e+003,-2.025047e-002
3.345943e+003,-2.036714e-002
3.347872e+003,-2.047251e-002
3.349800e+003,-2.042370e-002
3.351729e+003,-2.036215e-002
3.353657e+003,-2.047086e-002
3.355586e+003,-2.062212e-002
3.357514e+003,-2.077347e-002
3.359443e+003,-2.072909e-002
3.361371e+003,-2.060812e-002
3.363300e+003,-2.067810e-002
3.365229e+003,-2.085272e-002
3.367157e+003,-2.090744e-002
3.369085e+003,-2.106176e-002
3.371014e+003,-2.125884e-002
3.372942e+003,-2.133806e-002
3.374871e+003,-2.146485e-002
3.376799e+003,-2.147003e-002
3.378728e+003,-2.148589e-002
3.380656e+003,-2.155567e-002
3.382585e+003,-2.166989e-002
3.384513e+003,-2.173570e-002
3.386442e+003,-2.181212e-002
3.388370e+003,-2.166941e-002
3.390299e+003,-2.171616e-002
3.392227e+003,-2.181779e-002
3.394156e+003,-2.183531e-002
3.396084e+003,-2.185866e-002
3.398013e+003,-2.188790e-002
3.399941e+003,-2.197226e-002
3.401870e+003,-2.212466e-002
3.403798e+003,-2.209622e-002
3.405727e+003,-2.210936e-002
3.407655e+003,-2.198577e-002
3.409584e+003,-2.195207e-002
3.411512e+003,-2.215495e-002
3.413441e+003,-2.226382e-002
3.415369e+003,-2.223835e-002
3.417298e+003,-2.218275e-002
3.419226e+003,-2.215221e-002
3.421155e+003,-2.236444e-002
3.423083e+003,-2.250726e-002
3.425012e+003,-2.251252e-002
3.426940e+003,-2.253608e-002
3.428869e+003,-2.244588e-002
3.430797e+003,-2.240334e-002
3.432726e+003,-2.247983e-002
3.434654e+003,-2.261607e-002
3.436583e+003,-2.276545e-002
3.438511e+003,-2.268853e-002
3.440440e+003,-2.259761e-002
3.442368e+003,-2.259761e-002
3.444297e+003,-2.262541e-002
3.446225e+003,-2.268910e-002
3.448154e+003,-2.284219e-002
3.450082e+003,-2.278953e-002
3.452011e+003,-2.272671e-002
3.453939e+003,-2.293256e-002
3.455868e+003,-2.315983e-002
3.457796e+003,-2.307582e-002
3.459725e+003,-2.282216e-002
3.461653e+003,-2.274164e-002
3.463582e+003,-2.286482e-002
3.465510e+003,-2.305851e-002
3.467439e+003,-2.304927e-002
3.469367e+003,-2.297461e-002
3.471296e+003,-2.305521e-002
3.473224e+003,-2.305729e-002
3.475153e+003,-2.314824e-002
3.477081e+003,-2.312396e-002
3.479010e+003,-2.313234e-002
3.480938e+003,-2.310809e-002
3.482867e+003,-2.307029e-002
3.484795e+003,-2.292373e-002
3.486724e+003,-2.299523e-002
3.488652e+003,-2.314623e-002
3.490581e+003,-2.320440e-002
3.492509e+003,-2.323628e-002
3.494438e+003,-2.317686e-002
3.496366e+003,-2.297499e-002
3.498295e+003,-2.303903e-002
3.500223e+003,-2.325802e-002
3.502152e+003,-2.324668e-002
3.504080e+003,-2.322382e-002
3.506009e+003,-2.311934e-002
3.507937e+003,-2.301864e-002
3.509866e+003,-2.311387e-002
3.511794e+003,-2.326612e-002
3.513723e+003,-2.327529e-002
3.515651e+003,-2.322127e-002
3.517580e+003,-2.318386e-002
3.519508e+003,-2.319800e-002
3.521437e+003,-2.323487e-002
3.523365e+003,-2.337819e-002
3.525294e+003,-2.332883e-002
3.527222e+003,-2.315148e-002
3.529151e+003,-2.292574e-002
3.531079e+003,-2.288472e-002
3.533008e+003,-2.303061e-002
3.534936e+003,-2.318085e-002
3.536865e+003,-2.315138e-002
3.538793e+003,-2.300189e-002
3.540722e+003,-2.287972e-002
3.542650e+003,-2.289390e-002
3.544579e+003,-2.290025e-002
3.546507e+003,-2.292810e-002
3.548436e+003,-2.310661e-002
3.550364e+003,-2.317535e-002
3.552293e+003,-2.312282e-002
3.554221e+003,-2.314799e-002
3.556150e+003,-2.318559e-002
3.558078e+003,-2.318436e-002
3.560007e+003,-2.316646e-002
3.561935e+003,-2.296462e-002
3.563864e+003,-2.309480e-002
3.565792e+003,-2.318923e-002
3.567721e+003,-2.300798e-002
3.569649e+003,-2.302282e-002
3.571578e+003,-2.313307e-002
3.573506e+003,-2.312754e-002
3.575435e+003,-2.292546e-002
3.577363e+003,-2.274941e-002
3.579292e+003,-2.280412e-002
3.581220e+003,-2.298250e-002
3.583149e+003,-2.304368e-002
3.585077e+003,-2.291945e-002
3.587006e+003,-2.296452e-002
3.588934e+003,-2.287869e-002
3.590863e+003,-2.285171e-002
3.592791e+003,-2.296983e-002
3.594720e+003,-2.304453e-002
3.596648e+003,-2.295943e-002
3.598577e+003,-2.280431e-002
3.600505e+003,-2.268479e-002
3.602434e+003,-2.282116e-002
3.604362e+003,-2.290559e-002
3.606291e+003,-2.315085e-002
3.608219e+003,-2.315157e-002
3.610148e+003,-2.290905e-002
3.612076e+003,-2.296286e-002
3.614005e+003,-2.308987e-002
3.615933e+003,-2.320541e-002
3.617862e+003,-2.303121e-002
3.619790e+003,-2.266925e-002
3.621719e+003,-2.272885e-002
3.623647e+003,-2.285319e-002
3.625576e+003,-2.303174e-002
3.627504e+003,-2.322290e-002
3.629433e+003,-2.290713e-002
3.631361e+003,-2.294463e-002
3.633290e+003,-2.315974e-002
3.635218e+003,-2.324630e-002
3.637146e+003,-2.329470e-002
3.639075e+003,-2.321238e-002
3.641004e+003,-2.299931e-002
3.642932e+003,-2.319448e-002
3.644861e+003,-2.355973e-002
3.646789e+003,-2.374363e-002
3.648718e+003,-2.353352e-002
3.650646e+003,-2.308572e-002
3.652574e+003,-2.298426e-002
3.654503e+003,-2.322127e-002
3.656432e+003,-2.329401e-002
3.658360e+003,-2.347727e-002
3.660289e+003,-2.358418e-002
3.662217e+003,-2.360696e-002
3.664146e+003,-2.364920e-002
3.666074e+003,-2.375452e-002
3.668002e+003,-2.400770e-002
3.669931e+003,-2.397337e-002
3.671860e+003,-2.407683e-002
3.673788e+003,-2.436775e-002
3.675717e+003,-2.393373e-002
3.677645e+003,-2.362990e-002
3.679573e+003,-2.381214e-002
3.681502e+003,-2.378946e-002
3.683430e+003,-2.376230e-002
3.685359e+003,-2.397032e-002
3.687288e+003,-2.405200e-002
3.689216e+003,-2.379508e-002
3.691145e+003,-2.363872e-002
3.693073e+003,-2.351312e-002
3.695001e+003,-2.362453e-002
3.696930e+003,-2.365745e-002
3.698858e+003,-2.372691e-002
3.700787e+003,-2.363464e-002
3.702716e+003,-2.354771e-002
3.704644e+003,-2.348685e-002
3.706573e+003,-2.374755e-002
3.708501e+003,-2.395389e-002
3.710429e+003,-2.364449e-002
3.712358e+003,-2.335449e-002
3.714286e+003,-2.355361e-002
3.716215e+003,-2.399030e-002
3.718144e+003,-2.404764e-002
3.720072e+003,-2.396189e-002
3.722000e+003,-2.388491e-002
3.723929e+003,-2.373623e-002
3.725857e+003,-2.358022e-002
3.727786e+003,-2.347187e-002
3.729714e+003,-2.388008e-002
3.731643e+003,-2.430751e-002
3.733572e+003,-2.443942e-002
3.735500e+003,-2.409845e-002
3.737428e+003,-2.373055e-002
3.739357e+003,-2.368302e-002
3.741285e+003,-2.385458e-002
3.743214e+003,-2.402980e-002
3.745142e+003,-2.359155e-002
3.747071e+003,-2.383912e-002
3.749000e+003,-2.386537e-002
3.750928e+003,-2.368534e-002
3.752856e+003,-2.344619e-002
3.754785e+003,-2.342406e-002
3.756713e+003,-2.330886e-002
3.758642e+003,-2.334136e-002
3.760570e+003,-2.337854e-002
3.762499e+003,-2.336363e-002
3.764427e+003,-2.342617e-002
3.766356e+003,-2.342152e-002
3.768284e+003,-2.340438e-002
3.770213e+003,-2.327570e-002
3.772141e+003,-2.327890e-002
3.774070e+003,-2.338893e-002
3.775998e+003,-2.346173e-002
3.777927e+003,-2.351133e-002
3.779855e+003,-2.337672e-002
3.781784e+003,-2.337251e-002
3.783712e+003,-2.342033e-002
3.785641e+003,-2.329916e-002
3.787569e+003,-2.322718e-002
3.789498e+003,-2.323302e-002
3.791426e+003,-2.330808e-002
3.793355e+003,-2.333050e-002
3.795283e+003,-2.322133e-002
3.797212e+003,-2.332054e-002
3.799140e+003,-2.367756e-002
3.801069e+003,-2.343574e-002
3.802997e+003,-2.330861e-002
3.804926e+003,-2.366680e-002
3.806854e+003,-2.339822e-002
3.808783e+003,-2.337942e-002
3.810711e+003,-2.339016e-002
3.812640e+003,-2.344089e-002
3.814568e+003,-2.369049e-002
3.816497e+003,-2.325748e-002
3.818425e+003,-2.322919e-002
3.820354e+003,-2.322413e-002
3.822282e+003,-2.289047e-002
3.824211e+003,-2.294827e-002
3.826139e+003,-2.331367e-002
3.828068e+003,-2.349583e-002
3.829996e+003,-2.331678e-002
3.831925e+003,-2.320170e-002
3.833853e+003,-2.339389e-002
3.835782e+003,-2.345590e-002
3.837710e+003,-2.322897e-002
3.839639e+003,-2.303689e-002
3.841567e+003,-2.303784e-002
3.843496e+003,-2.323977e-002
3.845424e+003,-2.339091e-002
3.847353e+003,-2.356525e-002
3.849281e+003,-2.365804e-002
3.851210e+003,-2.384335e-002
3.853138e+003,-2.359503e-002
3.855067e+003,-2.309219e-002
3.856995e+003,-2.320346e-002
3.858924e+003,-2.338724e-002
3.860852e+003,-2.351770e-002
3.862781e+003,-2.350147e-002
3.864709e+003,-2.331219e-002
3.866638e+003,-2.338526e-002
3.868566e+003,-2.371690e-002
3.870495e+003,-2.331995e-002
3.872423e+003,-2.321942e-002
3.874352e+003,-2.329548e-002
3.876280e+003,-2.360674e-002
3.878209e+003,-2.374128e-002
3.880137e+003,-2.362390e-002
3.882066e+003,-2.352906e-002
3.883994e+003,-2.371891e-002
3.885923e+003,-2.332623e-002
3.887851e+003,-2.341728e-002
3.889780e+003,-2.363464e-002
3.891708e+003,-2.386537e-002
3.893637e+003,-2.409450e-002
3.895565e+003,-2.406335e-002
3.897494e+003,-2.383943e-002
3.899422e+003,-2.363235e-002
3.901351e+003,-2.364019e-002
3.903279e+003,-2.364603e-002
3.905208e+003,-2.347464e-002
3.907136e+003,-2.355198e-002
3.909065e+003,-2.370332e-002
3.910993e+003,-2.376039e-002
3.912922e+003,-2.370824e-002
3.914850e+003,-2.373730e-002
3.916779e+003,-2.389256e-002
3.918707e+003,-2.381274e-002
3.920636e+003,-2.368650e-002
3.922564e+003,-2.377058e-002
3.924493e+003,-2.359494e-002
3.926421e+003,-2.358644e-002
3.928350e+003,-2.386251e-002
3.930278e+003,-2.395010e-002
3.932207e+003,-2.363724e-002
3.934135e+003,-2.336378e-002
3.936064e+003,-2.338290e-002
3.937992e+003,-2.346506e-002
3.939921e+003,-2.373883e-002
3.941849e+003,-2.376010e-002
3.943778e+003,-2.354815e-002
3.945706e+003,-2.384203e-002
3.947635e+003,-2.388839e-002
3.949563e+003,-2.365171e-002
3.951492e+003,-2.358151e-002
3.953420e+003,-2.364392e-002
3.955349e+003,-2.360561e-002
3.957277e+003,-2.364719e-002
3.959206e+003,-2.367496e-002
3.961134e+003,-2.371656e-002
3.963063e+003,-2.364882e-002
3.964991e+003,-2.380741e-002
3.966920e+003,-2.404071e-002
3.968848e+003,-2.402425e-002
3.970777e+003,-2.390212e-002
3.972705e+003,-2.384542e-002
3.974634e+003,-2.383887e-002
3.976562e+003,-2.369413e-002
3.978491e+003,-2.366837e-002
3.980419e+003,-2.378225e-002
3.982348e+003,-2.391119e-002
3.984276e+003,-2.373102e-002
3.986205e+003,-2.378990e-002
3.988133e+003,-2.382544e-002
3.990062e+003,-2.370467e-002
3.991990e+003,-2.362161e-002
3.993919e+003,-2.367220e-002
3.995847e+003,-2.399462e-002
3.997776e+003,-2.415033e-002
3.999704e+003,-2.401563e-002
4.001633e+003,0.000000e+000
