3.991989e+002,1.324480e-002
4.011274e+002,1.834194e-002
4.030559e+002,6.516745e-003
4.049844e+002,-4.616822e-003
4.069129e+002,-4.238728e-003
4.088414e+002,2.113153e-003
4.107699e+002,-3.388058e-003
4.126984e+002,-5.481254e-003
4.146269e+002,8.378066e-004
4.165554e+002,5.396801e-003
4.184839e+002,4.764673e-003
4.204124e+002,4.498634e-003
4.223409e+002,7.096730e-003
4.242694e+002,6.724457e-003
4.261979e+002,-1.683190e-003
4.281264e+002,1.875820e-003
4.300549e+002,8.303236e-003
4.319834e+002,1.033731e-002
4.339119e+002,8.984512e-003
4.358404e+002,6.715170e-003
4.377689e+002,1.177938e-002
4.396974e+002,7.301081e-003
4.416259e+002,-1.614566e-003
4.435544e+002,-5.059273e-005
4.454829e+002,1.277006e-003
4.474114e+002,6.049517e-004
4.493399e+002,-8.503473e-004
4.512684e+002,1.499682e-003
4.531969e+002,6.241303e-004
4.551254e+002,-2.123364e-003
4.570539e+002,1.223373e-003
4.589824e+002,-2.519216e-003
4.609109e+002,-3.359948e-003
4.628394e+002,1.289437e-004
4.647679e+002,8.194821e-005
4.666964e+002,-5.658257e-004
4.686249e+002,5.981166e-004
4.705533e+002,2.475361e-003
4.724819e+002,2.692251e-003
4.744103e+002,2.924927e-003
4.763389e+002,1.598175e-003
4.782673e+002,-2.231998e-004
4.801959e+002,-1.104080e-003
4.821243e+002,-1.331800e-003
4.840529e+002,-2.422124e-003
4.859813e+002,-2.596756e-003
4.879099e+002,-1.062666e-003
4.898383e+002,-1.466927e-004
4.917668e+002,-1.157419e-003
4.936953e+002,-6.739202e-004
4.956238e+002,2.191605e-003
4.975523e+002,1.534062e-003
4.994808e+002,-6.885756e-004
5.014093e+002,-3.025409e-004
5.033378e+002,1.056271e-003
5.052663e+002,3.078167e-003
5.071948e+002,1.507429e-003
5.091233e+002,-1.178733e-003
5.110518e+002,-7.338619e-004
5.129803e+002,-5.456834e-005
5.149088e+002,-3.883892e-004
5.168373e+002,-1.003265e-003
5.187658e+002,-1.351421e-003
5.206943e+002,-2.076013e-003
5.226228e+002,-5.459045e-004
5.245513e+002,8.580246e-004
5.264798e+002,-1.913069e-004
5.284083e+002,-1.483789e-003
5.303368e+002,4.198787e-004
5.322653e+002,1.367704e-003
5.341938e+002,1.099453e-003
5.361223e+002,-3.651218e-005
5.380508e+002,-5.324688e-004
5.399792e+002,-6.738541e-004
5.419078e+002,-1.546090e-004
5.438363e+002,1.314260e-003
5.457648e+002,5.498097e-004
5.476932e+002,-8.481317e-004
5.496218e+002,-1.110755e-003
5.515503e+002,-1.474215e-004
5.534788e+002,-7.541713e-004
5.554072e+002,-1.829943e-003
5.573358e+002,-1.217228e-003
5.592643e+002,-9.655121e-004
5.611927e+002,-4.885185e-004
5.631212e+002,-3.727967e-004
5.650497e+002,-1.738736e-003
5.669783e+002,-1.545759e-004
5.689067e+002,4.834793e-003
5.708352e+002,3.514629e-003
5.727637e+002,-8.506118e-004
5.746923e+002,-1.167432e-003
5.766207e+002,-1.139442e-003
5.785492e+002,-2.306455e-003
5.804777e+002,-5.522150e-003
5.824063e+002,-5.091533e-003
5.843347e+002,-1.582511e-003
5.862632e+002,7.229234e-004
5.881917e+002,9.176219e-004
5.901202e+002,-2.228355e-004
5.920487e+002,-6.321515e-005
5.939772e+002,-8.912965e-006
5.959057e+002,6.074402e-004
5.978342e+002,1.215195e-004
5.997627e+002,-6.333921e-004
6.016912e+002,-1.043396e-003
6.036197e+002,-4.369506e-004
6.055482e+002,3.360429e-004
6.074767e+002,5.972208e-004
6.094052e+002,1.138966e-004
6.113337e+002,-4.890150e-004
6.132622e+002,-2.225468e-003
6.151907e+002,-1.952930e-003
6.171192e+002,-1.733224e-003
6.190477e+002,-1.804998e-003
6.209762e+002,-1.218913e-003
6.229047e+002,-2.778394e-004
6.248332e+002,1.500998e-005
6.267617e+002,-2.653888e-004
6.286902e+002,-4.468807e-004
6.306187e+002,3.013924e-004
6.325472e+002,2.613737e-004
6.344756e+002,-1.592793e-004
6.364042e+002,-1.527452e-005
6.383326e+002,-3.379659e-006
6.402612e+002,-4.004390e-004
6.421896e+002,1.935791e-004
6.441182e+002,3.258298e-004
6.460466e+002,-3.940169e-004
6.479752e+002,-7.799703e-004
6.499036e+002,-7.812602e-004
6.518322e+002,-4.886178e-004
6.537606e+002,1.219172e-004
6.556891e+002,-2.135957e-004
6.576177e+002,-1.010770e-003
6.595461e+002,-1.452418e-003
6.614746e+002,-1.028422e-003
6.634031e+002,-1.010869e-003
6.653317e+002,-6.939679e-004
6.672601e+002,-7.089534e-004
6.691886e+002,-1.827620e-004
6.711171e+002,3.359102e-004
6.730457e+002,4.696306e-004
6.749741e+002,3.268909e-004
6.769026e+002,-4.197880e-005
6.788311e+002,-2.810183e-004
6.807596e+002,-4.034845e-004
6.826881e+002,-4.505879e-004
6.846166e+002,-7.425944e-004
6.865451e+002,-6.613486e-004
6.884736e+002,-1.149268e-004
6.904021e+002,-1.214524e-004
6.923306e+002,1.589399e-004
6.942591e+002,1.867505e-004
6.961876e+002,-3.958707e-004
6.981161e+002,-8.409555e-004
7.000446e+002,-7.895949e-004
7.019731e+002,-6.361051e-004
7.039016e+002,-7.759299e-005
7.058301e+002,-1.038297e-004
7.077585e+002,-6.977391e-004
7.096871e+002,-6.135732e-004
7.116156e+002,2.001342e-005
7.135441e+002,9.722616e-005
7.154725e+002,-3.036004e-004
7.174011e+002,-7.863205e-004
7.193296e+002,-8.133413e-004
7.212581e+002,-6.605877e-004
7.231865e+002,-5.031470e-004
7.251151e+002,-5.350832e-004
7.270436e+002,-3.178048e-004
7.289720e+002,-3.651218e-005
7.309005e+002,-1.976327e-004
7.328290e+002,-5.023197e-004
7.347576e+002,-4.284768e-004
7.366860e+002,-3.313391e-006
7.386145e+002,2.700508e-005
7.405430e+002,-1.150262e-004
7.424716e+002,-4.178511e-004
7.444000e+002,-8.040149e-004
7.463285e+002,-7.287347e-004
7.482570e+002,-8.127791e-004
7.501855e+002,-3.412459e-004
7.521140e+002,-2.343601e-004
7.540425e+002,-6.834810e-004
7.559710e+002,-1.091983e-003
7.578995e+002,-5.443161e-004
7.598280e+002,-2.000504e-004
7.617565e+002,-6.287270e-004
7.636850e+002,-1.065442e-003
7.656135e+002,-1.130948e-003
7.675420e+002,-9.034202e-004
7.694705e+002,-1.676590e-004
7.713990e+002,-1.931672e-005
7.733275e+002,-3.801130e-004
7.752560e+002,-5.967315e-004
7.771844e+002,-8.730983e-004
7.791130e+002,-1.188778e-003
7.810415e+002,-1.054303e-003
7.829700e+002,-1.022273e-003
7.848984e+002,-6.375278e-004
7.868270e+002,-1.295017e-004
7.887555e+002,-2.164439e-004
7.906840e+002,-4.260935e-004
7.926124e+002,-3.350547e-004
7.945410e+002,-2.652895e-004
7.964695e+002,-2.282998e-004
7.983979e+002,-1.366564e-004
8.003264e+002,-1.694144e-004
8.022549e+002,-4.646220e-004
8.041835e+002,-5.315422e-004
8.061119e+002,-4.501245e-004
8.080404e+002,1.317941e-004
8.099689e+002,-4.529187e-005
8.118975e+002,-8.699900e-004
8.138259e+002,-8.910536e-004
8.157545e+002,-5.776390e-004
8.176830e+002,-7.916454e-004
8.196115e+002,-8.663525e-004
8.215399e+002,-6.595290e-004
8.234684e+002,-2.185303e-004
8.253970e+002,-1.789532e-004
8.273254e+002,-4.128526e-004
8.292539e+002,-6.129446e-004
8.311824e+002,-7.931007e-004
8.331110e+002,-6.948611e-004
8.350394e+002,-3.480330e-004
8.369679e+002,-2.864487e-004
8.388964e+002,-4.348653e-004
8.408250e+002,-6.196282e-004
8.427534e+002,-6.554597e-004
8.446819e+002,-3.211820e-004
8.466104e+002,-2.022693e-004
8.485389e+002,-1.154237e-004
8.504674e+002,-2.279355e-004
8.523959e+002,-3.645202e-004
8.543244e+002,-3.397891e-004
8.562529e+002,-2.958855e-004
8.581814e+002,-4.184800e-004
8.601099e+002,-1.820003e-004
8.620384e+002,-7.958067e-005
8.639669e+002,-5.547401e-004
8.658954e+002,-5.160542e-004
8.678239e+002,3.843566e-006
8.697524e+002,-6.755505e-005
8.716809e+002,-3.641229e-004
8.736094e+002,-3.167784e-004
8.755378e+002,-1.835569e-004
8.774664e+002,-4.572473e-006
8.793949e+002,1.622214e-004
8.813234e+002,2.347187e-004
8.832518e+002,1.714031e-004
8.851804e+002,-5.162858e-004
8.871089e+002,-1.009679e-003
8.890374e+002,-6.270726e-004
8.909658e+002,-5.100640e-004
8.928943e+002,-2.245245e-004
8.948229e+002,1.222818e-004
8.967513e+002,1.326890e-004
8.986798e+002,5.394557e-005
9.006083e+002,-6.467283e-005
9.025369e+002,-4.638518e-005
9.044653e+002,1.401592e-005
9.063938e+002,-2.569778e-004
9.083223e+002,-3.875615e-004
9.102509e+002,-2.718128e-004
9.121793e+002,-3.512775e-004
9.141078e+002,-3.429675e-004
9.160364e+002,-2.023687e-004
9.179648e+002,-1.919362e-004
9.198933e+002,-5.291184e-005
9.218218e+002,-1.352983e-004
9.237504e+002,-2.057468e-004
9.256788e+002,-3.222084e-004
9.276073e+002,-5.112223e-004
9.295358e+002,-2.793626e-004
9.314644e+002,-2.402151e-005
9.333928e+002,-1.040947e-004
9.353213e+002,-2.830381e-004
9.372498e+002,-2.479044e-004
9.391783e+002,-2.078663e-004
9.411068e+002,-2.762169e-004
9.430353e+002,-2.239946e-004
9.449637e+002,-2.989980e-004
9.468923e+002,-4.126209e-004
9.488208e+002,-4.261928e-004
9.507493e+002,-3.218442e-004
9.526777e+002,-1.551390e-004
9.546063e+002,-4.913500e-005
9.565348e+002,-1.356627e-004
9.584633e+002,-2.605542e-004
9.603917e+002,-2.749917e-004
9.623203e+002,-3.108186e-004
9.642488e+002,-3.128052e-004
9.661772e+002,-5.897459e-005
9.681057e+002,2.042863e-004
9.700343e+002,-2.948919e-006
9.719628e+002,-3.440601e-004
9.738912e+002,-3.133018e-004
9.758197e+002,-4.133161e-004
9.777483e+002,-4.992086e-004
9.796768e+002,-1.616971e-004
9.816052e+002,1.092898e-004
9.835337e+002,-1.119916e-005
9.854623e+002,-1.303960e-004
9.873907e+002,-1.612334e-004
9.893192e+002,-1.824971e-004
9.912477e+002,-2.149205e-004
9.931763e+002,-2.375061e-004
9.951047e+002,-3.297573e-004
9.970332e+002,-2.648921e-004
9.989617e+002,-2.280017e-004
1.000890e+003,-3.723994e-004
1.002819e+003,-3.842511e-004
1.004747e+003,-2.958193e-004
1.006676e+003,-1.753099e-004
1.008604e+003,-5.953779e-005
1.010533e+003,-1.591799e-004
1.012461e+003,-2.506198e-004
1.014390e+003,-3.312141e-004
1.016318e+003,-2.943293e-004
1.018247e+003,-8.763069e-005
1.020175e+003,-2.120723e-004
1.022104e+003,-4.835539e-004
1.024032e+003,-3.952086e-004
1.025961e+003,-3.471391e-004
1.027889e+003,-5.165837e-004
1.029818e+003,-6.854990e-004
1.031746e+003,-4.675677e-004
1.033675e+003,-2.871772e-004
1.035603e+003,-6.222127e-005
1.037532e+003,5.262004e-005
1.039460e+003,2.064300e-005
1.041389e+003,-1.332778e-004
1.043317e+003,-3.579651e-004
1.045246e+003,-4.856060e-004
1.047174e+003,-2.709519e-004
1.049103e+003,-3.188974e-004
1.051031e+003,-3.342601e-004
1.052960e+003,-2.572428e-004
1.054888e+003,-1.878956e-004
1.056817e+003,-2.314790e-004
1.058745e+003,-2.147549e-004
1.060674e+003,-3.753458e-004
1.062602e+003,-2.671107e-004
1.064531e+003,-2.567129e-004
1.066459e+003,-3.403189e-004
1.068388e+003,-4.410882e-004
1.070316e+003,-3.913354e-004
1.072245e+003,-2.742964e-004
1.074173e+003,-1.905452e-004
1.076102e+003,-1.919693e-004
1.078030e+003,-4.803435e-004
1.079959e+003,-4.550563e-004
1.081887e+003,-2.299225e-004
1.083816e+003,-3.638581e-004
1.085744e+003,-4.183807e-004
1.087673e+003,-2.332672e-004
1.089601e+003,-2.978060e-004
1.091530e+003,-3.190961e-004
1.093458e+003,2.667372e-005
1.095387e+003,-3.015187e-006
1.097315e+003,-7.590345e-005
1.099244e+003,-3.214469e-004
1.101172e+003,-1.460634e-004
1.103101e+003,3.886797e-005
1.105029e+003,-3.136661e-004
1.106958e+003,-3.991480e-004
1.108886e+003,-1.986925e-004
1.110815e+003,-9.332856e-005
1.112743e+003,-9.044651e-005
1.114672e+003,-2.540638e-004
1.116600e+003,-2.351880e-004
1.118529e+003,-1.846168e-004
1.120457e+003,-3.075075e-004
1.122386e+003,-3.207184e-004
1.124314e+003,-1.330790e-004
1.126243e+003,-4.518788e-004
1.128171e+003,-6.429869e-004
1.130100e+003,-5.003008e-004
1.132028e+003,-4.981165e-004
1.133957e+003,-3.912692e-004
1.135885e+003,-2.336978e-004
1.137814e+003,-2.462155e-004
1.139742e+003,-3.134674e-004
1.141671e+003,-1.749456e-004
1.143599e+003,-4.323777e-005
1.145528e+003,-1.476864e-004
1.147456e+003,-3.002232e-004
1.149385e+003,-4.022266e-004
1.151313e+003,-4.203006e-004
1.153242e+003,-4.055369e-004
1.155170e+003,-3.757100e-004
1.157099e+003,-3.429013e-004
1.159027e+003,-4.322834e-004
1.160956e+003,-2.759189e-004
1.162884e+003,-1.513630e-004
1.164813e+003,-2.133639e-004
1.166741e+003,-1.875644e-004
1.168670e+003,-1.002852e-004
1.170598e+003,-1.374845e-004
1.172526e+003,-4.004390e-004
1.174455e+003,-3.488607e-004
1.176384e+003,-1.436454e-004
1.178312e+003,-2.206829e-004
1.180240e+003,-2.769454e-004
1.182169e+003,-2.554214e-004
1.184098e+003,-2.114762e-004
1.186026e+003,-2.007876e-005
1.187954e+003,-8.769695e-005
1.189883e+003,-3.350547e-004
1.191812e+003,-2.312140e-004
1.193740e+003,-6.371208e-005
1.195668e+003,-1.459309e-004
1.197597e+003,-5.993534e-005
1.199526e+003,1.825075e-004
1.201454e+003,2.282873e-004
1.203382e+003,2.170334e-005
1.205311e+003,-9.766816e-005
1.207240e+003,-1.853123e-004
1.209168e+003,-1.818347e-004
1.211096e+003,-1.774297e-004
1.213025e+003,-1.708055e-004
1.214953e+003,-1.025046e-004
1.216882e+003,-1.169474e-004
1.218810e+003,-2.024349e-004
1.220739e+003,-2.226699e-004
1.222667e+003,-1.628895e-004
1.224596e+003,-8.835949e-005
1.226524e+003,-1.556027e-004
1.228453e+003,-1.327809e-004
1.230381e+003,-8.226403e-005
1.232310e+003,-1.248642e-004
1.234238e+003,-1.783570e-004
1.236167e+003,-1.455003e-004
1.238095e+003,-2.182322e-004
1.240024e+003,-1.141318e-004
1.241952e+003,2.505006e-005
1.243881e+003,-1.058172e-004
1.245809e+003,-9.425612e-005
1.247738e+003,-7.573781e-005
1.249666e+003,-9.965576e-005
1.251595e+003,-6.864830e-005
1.253523e+003,-9.940098e-006
1.255452e+003,-1.951551e-005
1.257380e+003,2.796603e-005
1.259309e+003,1.520879e-005
1.261237e+003,-3.982529e-005
1.263166e+003,-1.471126e-005
1.265094e+003,-9.409965e-006
1.267023e+003,-6.765444e-005
1.268951e+003,-1.901146e-004
1.270880e+003,-1.767010e-004
1.272808e+003,-8.302597e-005
1.274737e+003,8.738325e-005
1.276665e+003,1.506535e-004
1.278594e+003,1.948056e-004
1.280522e+003,-2.041009e-005
1.282451e+003,-2.173712e-004
1.284379e+003,-2.160796e-004
1.286308e+003,1.328695e-005
1.288236e+003,4.430247e-005
1.290165e+003,-5.473398e-005
1.292093e+003,-2.015407e-004
1.294022e+003,-3.093948e-004
1.295950e+003,-1.858091e-004
1.297879e+003,-1.430823e-004
1.299807e+003,-1.515618e-004
1.301736e+003,-3.308499e-004
1.303664e+003,-3.010509e-004
1.305593e+003,1.640166e-005
1.307521e+003,1.253310e-004
1.309450e+003,1.087595e-004
1.311378e+003,3.151162e-005
1.313307e+003,3.555428e-005
1.315235e+003,1.706738e-004
1.317164e+003,2.735745e-004
1.319092e+003,2.103195e-004
1.321021e+003,2.110690e-005
1.322949e+003,-3.700914e-005
1.324878e+003,-8.395354e-005
1.326806e+003,-7.020535e-005
1.328735e+003,1.520787e-004
1.330663e+003,1.462120e-004
1.332592e+003,7.104519e-005
1.334520e+003,5.537051e-005
1.336449e+003,1.683242e-005
1.338377e+003,4.705059e-006
1.340306e+003,1.057105e-004
1.342234e+003,1.523439e-004
1.344163e+003,8.516283e-005
1.346091e+003,3.035184e-005
1.348020e+003,9.394516e-005
1.349948e+003,7.064752e-005
1.351877e+003,-3.783742e-005
1.353805e+003,-5.672177e-005
1.355734e+003,-4.628579e-005
1.357662e+003,-1.598423e-004
1.359591e+003,-2.243258e-004
1.361519e+003,-1.480508e-004
1.363448e+003,-1.219161e-004
1.365376e+003,-1.665660e-004
1.367305e+003,-1.564308e-004
1.369233e+003,-6.533541e-005
1.371162e+003,-1.868027e-004
1.373090e+003,-2.517457e-004
1.375019e+003,-1.659036e-004
1.376947e+003,-1.377826e-004
1.378876e+003,-1.166303e-005
1.380804e+003,1.721655e-004
1.382733e+003,1.648400e-004
1.384661e+003,1.285620e-005
1.386590e+003,-1.776284e-004
1.388518e+003,-1.629558e-004
1.390447e+003,-7.753296e-006
1.392375e+003,-7.613535e-005
1.394304e+003,-1.931285e-004
1.396232e+003,-1.486801e-004
1.398161e+003,-2.096216e-004
1.400089e+003,-1.725609e-004
1.402018e+003,-1.005833e-004
1.403946e+003,-1.101567e-004
1.405875e+003,-4.178001e-005
1.407803e+003,9.189041e-005
1.409732e+003,4.075678e-005
1.411660e+003,-9.737002e-005
1.413589e+003,-1.530192e-004
1.415517e+003,-1.846830e-004
1.417446e+003,-3.304525e-004
1.419374e+003,-4.183145e-004
1.421303e+003,-2.304192e-004
1.423231e+003,-2.150529e-004
1.425160e+003,-6.811824e-005
1.427088e+003,8.900715e-005
1.429017e+003,1.070243e-005
1.430945e+003,-4.969821e-005
1.432874e+003,-1.241355e-004
1.434802e+003,-3.261815e-004
1.436731e+003,-5.029815e-004
1.438659e+003,-2.334660e-004
1.440588e+003,-1.168480e-004
1.442516e+003,-1.855772e-004
1.444445e+003,-2.135626e-004
1.446373e+003,-1.997523e-004
1.448302e+003,-1.981957e-004
1.450230e+003,-1.931616e-004
1.452159e+003,-1.438110e-004
1.454087e+003,-1.174112e-004
1.456016e+003,-6.609847e-004
1.457944e+003,-7.360450e-004
1.459873e+003,-2.923095e-004
1.461801e+003,-1.259905e-004
1.463730e+003,-2.368438e-004
1.465658e+003,-9.127468e-005
1.467587e+003,-4.452986e-005
1.469515e+003,-1.395050e-004
1.471444e+003,-4.128857e-004
1.473372e+003,-3.773984e-004
1.475301e+003,-6.785321e-005
1.477229e+003,2.253173e-005
1.479158e+003,-3.976067e-006
1.481086e+003,-1.330790e-004
1.483015e+003,-8.713378e-005
1.484943e+003,-8.123706e-005
1.486872e+003,-2.208485e-004
1.488800e+003,-2.812832e-004
1.490729e+003,-2.516795e-004
1.492657e+003,-1.744488e-004
1.494586e+003,-2.574414e-004
1.496514e+003,-3.164142e-004
1.498443e+003,-2.369431e-004
1.500371e+003,-1.310254e-004
1.502300e+003,-2.524740e-005
1.504228e+003,-2.879718e-004
1.506157e+003,-8.656912e-004
1.508085e+003,-6.153269e-004
1.510014e+003,-2.485336e-004
1.511942e+003,-2.062104e-004
1.513871e+003,-1.442085e-004
1.515799e+003,-3.298566e-004
1.517728e+003,-3.126065e-004
1.519656e+003,-4.432397e-004
1.521585e+003,-6.803051e-004
1.523513e+003,-3.531315e-004
1.525442e+003,-2.553552e-004
1.527370e+003,-2.175036e-004
1.529299e+003,-1.743163e-004
1.531227e+003,-2.182322e-004
1.533156e+003,-3.026733e-004
1.535084e+003,-8.537803e-005
1.537013e+003,-1.667647e-004
1.538941e+003,-7.782504e-004
1.540870e+003,-9.543045e-004
1.542798e+003,-6.337560e-004
1.544727e+003,-3.199900e-004
1.546655e+003,-1.180737e-004
1.548584e+003,-7.683104e-005
1.550512e+003,-8.971771e-005
1.552441e+003,-1.595774e-004
1.554369e+003,-3.006867e-004
1.556298e+003,-5.254860e-004
1.558226e+003,-1.142548e-003
1.560155e+003,-9.108928e-004
1.562083e+003,-2.149205e-004
1.564012e+003,-5.741750e-005
1.565940e+003,-1.693116e-005
1.567869e+003,-2.376717e-004
1.569797e+003,-3.864691e-004
1.571726e+003,-1.840537e-004
1.573654e+003,-2.970776e-004
1.575583e+003,-5.201910e-004
1.577511e+003,-3.815365e-004
1.579440e+003,-2.179010e-004
1.581368e+003,-7.196117e-005
1.583297e+003,-2.789797e-005
1.585225e+003,-1.351848e-005
1.587154e+003,1.232761e-004
1.589082e+003,1.318272e-004
1.591010e+003,-1.481066e-005
1.592939e+003,-4.022286e-005
1.594868e+003,4.748367e-005
1.596796e+003,7.913129e-005
1.598724e+003,7.903187e-005
1.600653e+003,5.135807e-006
1.602582e+003,-6.102861e-005
1.604510e+003,4.602562e-005
1.606438e+003,6.965334e-005
1.608367e+003,-4.178001e-005
1.610296e+003,5.941340e-005
1.612224e+003,9.861810e-005
1.614152e+003,-9.932449e-005
1.616081e+003,-4.993741e-004
1.618010e+003,-2.393937e-004
1.619938e+003,3.306903e-005
1.621866e+003,-2.005140e-004
1.623795e+003,-3.480661e-004
1.625724e+003,-1.487795e-004
1.627652e+003,-6.255256e-005
1.629580e+003,-6.238691e-005
1.631509e+003,-5.042708e-005
1.633438e+003,-2.142250e-004
1.635366e+003,-4.334750e-004
1.637294e+003,-2.542293e-004
1.639223e+003,-9.922512e-005
1.641151e+003,-9.912573e-005
1.643080e+003,-1.947182e-004
1.645008e+003,-5.418672e-004
1.646937e+003,-5.529200e-004
1.648865e+003,-2.211797e-004
1.650794e+003,-3.883230e-004
1.652722e+003,-9.185637e-004
1.654651e+003,-4.897100e-004
1.656579e+003,-4.923439e-005
1.658508e+003,-1.401547e-005
1.660436e+003,-1.167155e-004
1.662365e+003,-2.321413e-004
1.664293e+003,-4.969821e-005
1.666222e+003,9.593364e-005
1.668150e+003,-1.622602e-004
1.670079e+003,-4.071590e-004
1.672007e+003,-2.430033e-004
1.673936e+003,-3.064480e-004
1.675864e+003,-3.773652e-004
1.677793e+003,-1.880943e-004
1.679721e+003,-1.028690e-004
1.681650e+003,-2.634351e-004
1.683578e+003,-6.894026e-004
1.685507e+003,-4.589290e-004
1.687435e+003,-2.093235e-004
1.689364e+003,-2.104164e-004
1.691292e+003,-1.794500e-004
1.693221e+003,-2.612827e-004
1.695149e+003,-5.143001e-004
1.697078e+003,-4.442327e-004
1.699006e+003,-7.637965e-004
1.700935e+003,-8.478671e-004
1.702863e+003,-3.177055e-004
1.704792e+003,-2.016070e-004
1.706720e+003,-6.248630e-005
1.708649e+003,1.948325e-005
1.710577e+003,-1.895226e-005
1.712506e+003,-1.425192e-004
1.714434e+003,-2.980378e-004
1.716363e+003,-5.040075e-004
1.718291e+003,-4.976531e-004
1.720220e+003,-2.335322e-004
1.722148e+003,-1.461628e-004
1.724077e+003,-7.527402e-005
1.726005e+003,-2.909071e-005
1.727934e+003,-1.017096e-004
1.729862e+003,-5.427017e-005
1.731791e+003,-1.432148e-004
1.733719e+003,-5.583140e-004
1.735648e+003,-4.825610e-004
1.737576e+003,-3.501519e-004
1.739505e+003,-4.325813e-004
1.741433e+003,-2.579713e-004
1.743362e+003,-1.838550e-004
1.745290e+003,-1.101567e-004
1.747219e+003,-1.234730e-004
1.749147e+003,-2.843295e-004
1.751076e+003,-4.019287e-004
1.753004e+003,-2.067734e-004
1.754933e+003,-9.173847e-005
1.756861e+003,-8.852513e-005
1.758790e+003,-5.927275e-005
1.760718e+003,-1.709049e-004
1.762647e+003,-1.687851e-004
1.764575e+003,-3.561763e-005
1.766504e+003,-6.314889e-005
1.768432e+003,-1.228436e-004
1.770361e+003,-2.519113e-004
1.772289e+003,-3.785570e-004
1.774218e+003,-2.204842e-004
1.776146e+003,-6.884708e-005
1.778075e+003,3.247148e-006
1.780003e+003,-4.618640e-005
1.781932e+003,-7.868621e-005
1.783860e+003,-1.298660e-004
1.785789e+003,-7.252436e-005
1.787717e+003,5.619897e-005
1.789646e+003,-1.921770e-006
1.791574e+003,-2.397911e-004
1.793503e+003,-2.753891e-004
1.795431e+003,-1.694807e-004
1.797360e+003,-1.915719e-004
1.799288e+003,-2.116418e-004
1.801217e+003,-2.399567e-004
1.803145e+003,-1.581862e-004
1.805074e+003,-2.402151e-005
1.807002e+003,5.467151e-006
1.808931e+003,-7.861996e-005
1.810859e+003,-5.523093e-005
1.812788e+003,5.546993e-005
1.814716e+003,1.318935e-004
1.816645e+003,1.288774e-004
1.818573e+003,6.564349e-005
1.820502e+003,9.642113e-006
1.822430e+003,-4.771276e-006
1.824359e+003,-7.424704e-005
1.826287e+003,-7.712920e-005
1.828216e+003,-1.481502e-004
1.830144e+003,-1.604054e-004
1.832073e+003,5.865121e-005
1.834001e+003,1.536697e-004
1.835930e+003,5.957909e-005
1.837858e+003,-3.147722e-006
1.839787e+003,-5.198420e-005
1.841715e+003,-1.536485e-004
1.843644e+003,-3.332337e-004
1.845572e+003,-1.909426e-004
1.847501e+003,-5.036082e-005
1.849429e+003,-3.515379e-005
1.851358e+003,4.390482e-005
1.853286e+003,8.847690e-005
1.855215e+003,5.908201e-005
1.857143e+003,-3.101235e-005
1.859072e+003,-2.262996e-005
1.861000e+003,4.930625e-005
1.862929e+003,1.463446e-004
1.864857e+003,1.895681e-004
1.866786e+003,-9.840698e-006
1.868714e+003,-1.987587e-004
1.870643e+003,-7.868621e-005
1.872571e+003,7.532020e-005
1.874500e+003,1.512169e-004
1.876428e+003,1.264579e-004
1.878357e+003,1.190669e-004
1.880285e+003,8.393663e-005
1.882214e+003,4.370600e-005
1.884142e+003,-9.211165e-006
1.886071e+003,1.736258e-005
1.887999e+003,-3.873196e-005
1.889928e+003,-8.763069e-005
1.891856e+003,1.650106e-005
1.893785e+003,8.406919e-005
1.895713e+003,9.384574e-005
1.897642e+003,1.196304e-004
1.899570e+003,9.364689e-005
1.901499e+003,5.391243e-005
1.903427e+003,1.108475e-004
1.905356e+003,1.206909e-004
1.907284e+003,1.580781e-004
1.909213e+003,2.525217e-004
1.911141e+003,2.276574e-004
1.913070e+003,1.677569e-004
1.914998e+003,9.639762e-005
1.916927e+003,1.484430e-005
1.918855e+003,-2.382272e-005
1.920784e+003,-2.365706e-005
1.922712e+003,-5.658925e-005
1.924641e+003,4.877604e-005
1.926569e+003,1.042522e-004
1.928498e+003,5.924770e-005
1.930426e+003,4.049168e-005
1.932355e+003,1.318935e-004
1.934283e+003,1.251985e-004
1.936212e+003,1.267893e-004
1.938140e+003,1.099195e-004
1.940069e+003,6.160055e-005
1.941997e+003,2.080867e-005
1.943926e+003,2.998734e-005
1.945854e+003,4.354031e-005
1.947783e+003,6.902369e-005
1.949711e+003,4.112129e-005
1.951640e+003,4.804462e-006
1.953568e+003,2.107376e-005
1.955497e+003,4.148580e-005
1.957425e+003,3.605133e-005
1.959354e+003,-2.431970e-005
1.961282e+003,4.112129e-005
1.963211e+003,2.398971e-005
1.965139e+003,-5.559536e-005
1.967068e+003,-3.578329e-005
1.968996e+003,4.870977e-005
1.970925e+003,1.686187e-004
1.972853e+003,1.612270e-004
1.974782e+003,1.182052e-004
1.976710e+003,9.364689e-005
1.978639e+003,8.698556e-005
1.980567e+003,5.626524e-005
1.982496e+003,4.771564e-005
1.984424e+003,-2.584378e-005
1.986353e+003,-8.382831e-006
1.988281e+003,1.156863e-004
1.990210e+003,1.305015e-004
1.992138e+003,9.311664e-005
1.994067e+003,9.063105e-005
1.995995e+003,1.115435e-004
1.997924e+003,2.383654e-004
1.999852e+003,2.710547e-004
2.001781e+003,1.317941e-004
2.003709e+003,-2.080768e-005
2.005638e+003,-1.656670e-005
2.007566e+003,1.292230e-006
2.009495e+003,-2.475042e-005
2.011423e+003,-2.475042e-005
2.013352e+003,8.695242e-005
2.015280e+003,4.513091e-005
2.017208e+003,-2.375646e-005
2.019137e+003,7.587762e-006
2.021066e+003,8.645531e-005
2.022994e+003,8.148425e-005
2.024922e+003,2.965598e-005
2.026851e+003,-2.226550e-005
2.028780e+003,-6.112800e-005
2.030708e+003,-3.488874e-005
2.032636e+003,2.027850e-005
2.034565e+003,2.017910e-005
2.036494e+003,-9.840698e-006
2.038422e+003,-4.970077e-006
2.040350e+003,-1.686490e-005
2.042279e+003,-1.457895e-006
2.044208e+003,4.824584e-005
2.046136e+003,8.254474e-005
2.048064e+003,8.735011e-005
2.049993e+003,9.497254e-005
2.051921e+003,7.213879e-005
2.053850e+003,6.445049e-005
2.055778e+003,3.638270e-005
2.057707e+003,1.948325e-005
2.059635e+003,9.225497e-005
2.061564e+003,5.924770e-005
2.063492e+003,-5.036345e-006
2.065421e+003,-9.352732e-005
2.067349e+003,-8.739880e-005
2.069278e+003,-8.613996e-005
2.071206e+003,-7.842119e-005
2.073135e+003,-1.822368e-006
2.075063e+003,3.876856e-005
2.076992e+003,1.520879e-005
2.078920e+003,-4.771276e-006
2.080849e+003,-3.442490e-005
2.082777e+003,-2.226550e-005
2.084706e+003,2.905953e-005
2.086634e+003,-1.769322e-005
2.088563e+003,-9.727065e-005
2.090491e+003,7.952177e-007
2.092420e+003,1.345263e-005
2.094348e+003,-2.017816e-005
2.096277e+003,6.491443e-005
2.098205e+003,9.016708e-005
2.100134e+003,4.009404e-005
2.102062e+003,5.497285e-005
2.103991e+003,1.052133e-004
2.105919e+003,1.014351e-004
2.107848e+003,7.694405e-005
2.109776e+003,8.449262e-006
2.111705e+003,-3.230449e-005
2.113633e+003,3.296962e-005
2.115562e+003,5.782275e-005
2.117490e+003,2.362521e-005
2.119419e+003,2.137198e-005
2.121347e+003,1.351890e-005
2.123276e+003,-3.260267e-005
2.125204e+003,-3.008467e-005
2.127133e+003,-2.468416e-005
2.129061e+003,5.924770e-005
2.130990e+003,1.161835e-004
2.132918e+003,1.003746e-004
2.134847e+003,2.001342e-005
2.136775e+003,-4.280707e-005
2.138704e+003,-2.687088e-005
2.140632e+003,-1.921732e-005
2.142561e+003,-4.343655e-005
2.144489e+003,-3.551824e-005
2.146418e+003,-4.241136e-006
2.148346e+003,6.382085e-005
2.150275e+003,9.974491e-005
2.152203e+003,4.476640e-005
2.154132e+003,5.759078e-005
2.156060e+003,1.215858e-004
2.157989e+003,-2.504861e-005
2.159917e+003,-1.027034e-004
2.161846e+003,-5.602605e-005
2.163774e+003,-1.620224e-005
2.165703e+003,-4.678274e-005
2.167631e+003,-6.490474e-005
2.169560e+003,-1.981370e-005
2.171488e+003,4.171776e-005
2.173417e+003,-4.506206e-006
2.175345e+003,-4.075296e-005
2.177274e+003,-7.600283e-005
2.179202e+003,-4.843927e-005
2.181131e+003,1.129885e-005
2.183059e+003,1.358517e-005
2.184988e+003,-6.145929e-005
2.186916e+003,-8.348975e-005
2.188845e+003,-7.521362e-006
2.190773e+003,1.102841e-004
2.192702e+003,1.470738e-004
2.194630e+003,6.242902e-005
2.196559e+003,-3.379540e-005
2.198487e+003,-9.210286e-005
2.200416e+003,-7.464457e-005
2.202344e+003,-2.610884e-005
2.204273e+003,-4.701466e-005
2.206201e+003,-2.832868e-005
2.208130e+003,-2.266309e-005
2.210058e+003,-9.110905e-005
2.211987e+003,-1.205249e-004
2.213915e+003,-2.644016e-005
2.215844e+003,-1.756101e-006
2.217772e+003,-2.942203e-005
2.219701e+003,-1.000636e-005
2.221629e+003,-4.870677e-006
2.223558e+003,-4.747848e-005
2.225486e+003,-6.858205e-005
2.227415e+003,1.885368e-005
2.229343e+003,1.249171e-005
2.231272e+003,9.774652e-006
2.233200e+003,1.732945e-005
2.235129e+003,6.746614e-005
2.237057e+003,8.953740e-005
2.238986e+003,-1.252449e-005
2.240914e+003,-8.448358e-005
2.242843e+003,-1.769322e-005
2.244771e+003,1.176274e-005
2.246700e+003,-3.710854e-005
2.248628e+003,-6.341392e-005
2.250557e+003,-2.604257e-005
2.252485e+003,2.412225e-005
2.254414e+003,3.492468e-005
2.256342e+003,-2.783250e-006
2.258271e+003,-3.406046e-005
2.260199e+003,4.188345e-005
2.262128e+003,6.189880e-005
2.264056e+003,1.226795e-004
2.265985e+003,1.533383e-004
2.267913e+003,4.108640e-006
2.269842e+003,5.394557e-005
2.271770e+003,1.155869e-004
2.273699e+003,4.529659e-005
2.275627e+003,4.831211e-005
2.277556e+003,2.664058e-005
2.279484e+003,-4.906874e-005
2.281413e+003,-9.476232e-006
2.283341e+003,1.855510e-006
2.285270e+003,-8.123706e-005
2.287198e+003,-3.790369e-005
2.289127e+003,1.795902e-005
2.291055e+003,6.077208e-005
2.292984e+003,1.292247e-005
2.294912e+003,-4.585509e-005
2.296841e+003,-4.539126e-005
2.298769e+003,-6.185684e-005
2.300698e+003,-5.301443e-007
2.302626e+003,1.149766e-005
2.304555e+003,-5.513154e-005
2.306483e+003,-7.987882e-005
2.308412e+003,-9.402422e-005
2.310340e+003,-1.031009e-004
2.312269e+003,-1.626908e-004
2.314197e+003,-2.276706e-004
2.316125e+003,-2.945280e-004
2.318054e+003,-4.058018e-004
2.319983e+003,-4.605177e-004
2.321911e+003,-6.141358e-004
2.323840e+003,-8.150941e-004
2.325768e+003,-8.229651e-004
2.327697e+003,-7.692871e-004
2.329625e+003,-7.206966e-004
2.331553e+003,-7.822855e-004
2.333482e+003,-8.599042e-004
2.335411e+003,-8.206832e-004
2.337339e+003,-8.750493e-004
2.339268e+003,-9.086775e-004
2.341196e+003,-8.947900e-004
2.343125e+003,-8.802739e-004
2.345053e+003,-7.760344e-004
2.346981e+003,-5.230370e-004
2.348910e+003,-3.723001e-004
2.350839e+003,-4.649198e-004
2.352767e+003,-7.771259e-004
2.354696e+003,-1.052486e-003
2.356624e+003,-1.051031e-003
2.358552e+003,-1.161450e-003
2.360481e+003,-1.252151e-003
2.362409e+003,-1.259122e-003
2.364338e+003,-1.269958e-003
2.366267e+003,-1.209430e-003
2.368195e+003,-1.182830e-003
2.370124e+003,-1.047494e-003
2.372052e+003,-8.012037e-004
2.373980e+003,-6.218450e-004
2.375909e+003,-5.494785e-004
2.377838e+003,-3.093948e-004
2.379766e+003,-1.476202e-004
2.381695e+003,-1.222805e-004
2.383623e+003,-3.353035e-005
2.385552e+003,9.924779e-005
2.387480e+003,1.259276e-004
2.389408e+003,7.879989e-005
2.391337e+003,4.821270e-005
2.393266e+003,9.874056e-006
2.395194e+003,-5.433948e-006
2.397123e+003,1.610344e-005
2.399051e+003,-5.933901e-005
2.400979e+003,-1.275473e-004
2.402908e+003,-1.080698e-004
2.404836e+003,-6.699186e-005
2.406765e+003,-4.224385e-005
2.408694e+003,-1.390413e-004
2.410622e+003,-1.799799e-004
2.412551e+003,-1.265205e-004
2.414479e+003,-1.477196e-004
2.416407e+003,-2.081644e-004
2.418336e+003,-2.007790e-004
2.420264e+003,-1.890879e-004
2.422193e+003,-1.579213e-004
2.424122e+003,-1.337084e-004
2.426050e+003,-1.509987e-004
2.427979e+003,-1.289385e-004
2.429907e+003,-1.225786e-004
2.431835e+003,-6.811824e-005
2.433764e+003,1.474490e-005
2.435692e+003,1.454609e-005
2.437621e+003,-2.385585e-005
2.439550e+003,-1.192824e-006
2.441478e+003,-5.870955e-005
2.443406e+003,-1.392400e-004
2.445335e+003,-1.725609e-004
2.447263e+003,-2.046539e-004
2.449192e+003,-1.705074e-004
2.451121e+003,-9.200348e-005
2.453049e+003,-1.082354e-004
2.454978e+003,-1.282098e-004
2.456906e+003,-1.026371e-004
2.458834e+003,-8.826011e-005
2.460763e+003,-5.211672e-005
2.462691e+003,-3.525319e-005
2.464620e+003,2.359208e-005
2.466549e+003,6.054011e-005
2.468477e+003,-2.120573e-006
2.470406e+003,1.898622e-005
2.472334e+003,-6.917836e-005
2.474262e+003,-6.331453e-005
2.476191e+003,2.982065e-007
2.478119e+003,-3.946085e-005
2.480048e+003,-4.840613e-005
2.481977e+003,-5.688742e-005
2.483905e+003,-7.958067e-005
2.485833e+003,-7.785801e-005
2.487762e+003,-7.653895e-006
2.489690e+003,3.956385e-005
2.491619e+003,1.815783e-005
2.493547e+003,6.793009e-005
2.495476e+003,1.981461e-005
2.497405e+003,-3.816874e-005
2.499333e+003,-2.574439e-005
2.501261e+003,7.541962e-005
2.503190e+003,4.761622e-005
2.505118e+003,-4.482804e-005
2.507047e+003,-1.177093e-004
2.508975e+003,-1.388426e-004
2.510904e+003,-7.351821e-005
2.512833e+003,-4.930065e-005
2.514761e+003,-2.683849e-006
2.516689e+003,4.801388e-005
2.518618e+003,-2.243117e-005
2.520546e+003,-6.709125e-005
2.522475e+003,-1.067448e-004
2.524403e+003,-9.468676e-005
2.526332e+003,-5.542971e-005
2.528260e+003,-3.747298e-005
2.530189e+003,-2.236490e-005
2.532117e+003,4.301011e-005
2.534046e+003,3.237316e-005
2.535974e+003,3.870228e-005
2.537903e+003,1.703123e-005
2.539831e+003,-7.189492e-005
2.541760e+003,-9.379234e-005
2.543688e+003,-1.025377e-004
2.545617e+003,-1.474877e-004
2.547545e+003,-1.345221e-005
2.549474e+003,4.509777e-005
2.551402e+003,2.620982e-005
2.553331e+003,1.865486e-005
2.555259e+003,-8.965145e-005
2.557188e+003,-1.190674e-004
2.559116e+003,-1.376832e-004
2.561045e+003,-5.513154e-005
2.562973e+003,1.007286e-005
2.564902e+003,-1.090304e-004
2.566830e+003,-1.007489e-004
2.568759e+003,3.542173e-005
2.570687e+003,4.045855e-005
2.572616e+003,-5.721872e-005
2.574544e+003,-5.125533e-005
2.576473e+003,-2.209984e-005
2.578401e+003,-1.176242e-005
2.580330e+003,-5.668864e-005
2.582258e+003,-2.183478e-005
2.584187e+003,-2.418778e-006
2.586115e+003,-4.416543e-005
2.588044e+003,-1.179556e-005
2.589972e+003,5.931398e-005
2.591901e+003,-2.445223e-005
2.593829e+003,-2.246430e-005
2.595758e+003,9.082990e-005
2.597686e+003,1.299049e-004
2.599615e+003,1.477035e-004
2.601543e+003,1.497684e-005
2.603472e+003,-2.246901e-004
2.605400e+003,-2.155828e-004
2.607329e+003,-1.092292e-004
2.609257e+003,-1.106663e-005
2.611186e+003,-2.713593e-005
2.613114e+003,-5.642360e-005
2.615043e+003,-6.331453e-005
2.616971e+003,-3.276833e-005
2.618900e+003,-4.963196e-005
2.620828e+003,-9.332856e-005
2.622757e+003,-3.449116e-005
2.624685e+003,1.195309e-004
2.626614e+003,9.875066e-005
2.628542e+003,-9.442175e-005
2.630471e+003,-2.419105e-004
2.632399e+003,-1.331784e-004
2.634328e+003,-1.036972e-004
2.636256e+003,-1.620615e-004
2.638185e+003,-1.140324e-004
2.640113e+003,-1.471126e-005
2.642042e+003,-9.045499e-006
2.643970e+003,-3.508753e-005
2.645899e+003,-4.260828e-005
2.647827e+003,-7.666540e-005
2.649756e+003,-1.442748e-004
2.651684e+003,-1.359277e-004
2.653613e+003,-5.688742e-005
2.655541e+003,3.601819e-005
2.657470e+003,4.751681e-005
2.659398e+003,5.066490e-005
2.661327e+003,5.470774e-005
2.663255e+003,6.206449e-005
2.665184e+003,-1.010576e-005
2.667112e+003,-5.947153e-005
2.669041e+003,-9.803256e-005
2.670969e+003,-1.597430e-004
2.672898e+003,-1.119786e-004
2.674826e+003,-8.484798e-005
2.676755e+003,-6.921149e-005
2.678683e+003,-9.561431e-005
2.680612e+003,-1.602729e-004
2.682540e+003,-1.334434e-004
2.684469e+003,-9.872822e-005
2.686397e+003,-2.584378e-005
2.688326e+003,-6.864830e-005
2.690254e+003,-1.575238e-004
2.692183e+003,-1.739189e-004
2.694111e+003,-1.924330e-004
2.696040e+003,-1.671953e-004
2.697968e+003,-6.089609e-005
2.699897e+003,-2.077455e-005
2.701825e+003,-9.975513e-005
2.703754e+003,-1.327809e-004
2.705682e+003,-8.633872e-005
2.707611e+003,-1.656702e-007
2.709539e+003,5.888318e-005
2.711468e+003,-2.594318e-005
2.713396e+003,-8.965145e-005
2.715325e+003,-7.176240e-005
2.717253e+003,-9.919199e-005
2.719182e+003,-1.866040e-004
2.721110e+003,-1.915719e-004
2.723039e+003,-1.012458e-004
2.724967e+003,-7.232559e-005
2.726896e+003,-7.815617e-005
2.728824e+003,-8.574243e-005
2.730753e+003,-7.878560e-005
2.732681e+003,2.667372e-005
2.734610e+003,4.135325e-005
2.736538e+003,-4.466239e-005
2.738467e+003,-8.488111e-005
2.740395e+003,-5.662238e-005
2.742324e+003,-1.040616e-004
2.744252e+003,-1.670959e-004
2.746181e+003,-2.570772e-004
2.748109e+003,-2.151192e-004
2.750038e+003,-1.148605e-004
2.751966e+003,-6.145929e-005
2.753895e+003,-9.591245e-005
2.755823e+003,-2.153841e-004
2.757752e+003,-3.458479e-004
2.759680e+003,-3.772990e-004
2.761609e+003,-2.355523e-004
2.763537e+003,-1.120780e-004
2.765466e+003,-1.707724e-004
2.767394e+003,-1.410618e-004
2.769323e+003,-7.464457e-005
2.771251e+003,-5.354131e-005
2.773180e+003,8.946283e-006
2.775108e+003,-3.598208e-005
2.777037e+003,-2.141919e-004
2.778965e+003,-2.440961e-004
2.780894e+003,-1.676921e-004
2.782822e+003,-1.318866e-004
2.784750e+003,-1.596436e-004
2.786679e+003,-1.294023e-004
2.788608e+003,-1.489120e-004
2.790536e+003,-1.498394e-004
2.792465e+003,-5.420391e-005
2.794393e+003,1.027156e-006
2.796322e+003,-7.437955e-005
2.798250e+003,-1.140324e-004
2.800178e+003,-1.279117e-004
2.802107e+003,-1.008814e-004
2.804036e+003,2.233292e-005
2.805964e+003,1.161503e-004
2.807893e+003,-1.822368e-006
2.809821e+003,-1.525555e-004
2.811750e+003,-1.275473e-004
2.813678e+003,-2.372332e-005
2.815606e+003,-7.418078e-005
2.817535e+003,-1.053535e-004
2.819464e+003,-9.591245e-005
2.821392e+003,-1.160199e-004
2.823321e+003,-1.319528e-004
2.825249e+003,-1.578881e-004
2.827177e+003,-8.594120e-005
2.829106e+003,1.723004e-005
2.831034e+003,-2.706967e-005
2.832963e+003,-1.331968e-005
2.834892e+003,-2.919011e-005
2.836820e+003,-8.418543e-005
2.838749e+003,-2.723533e-005
2.840677e+003,-1.024384e-004
2.842605e+003,-1.665329e-004
2.844534e+003,-1.523236e-004
2.846462e+003,-8.017697e-005
2.848391e+003,-3.531945e-005
2.850320e+003,-5.165290e-005
2.852248e+003,-1.732876e-005
2.854177e+003,-8.070702e-005
2.856105e+003,-2.468447e-004
2.858033e+003,-2.853229e-004
2.859962e+003,-1.445729e-004
2.861890e+003,-1.066454e-004
2.863819e+003,-1.570932e-004
2.865748e+003,-6.589860e-005
2.867676e+003,-2.193418e-005
2.869604e+003,-8.643811e-005
2.871533e+003,-1.899159e-004
2.873461e+003,-2.626072e-004
2.875390e+003,-2.254517e-004
2.877319e+003,-1.620615e-004
2.879247e+003,-2.375646e-005
2.881176e+003,-3.863257e-005
2.883104e+003,-1.737533e-004
2.885032e+003,-2.568785e-004
2.886961e+003,-1.855772e-004
2.888889e+003,-1.464278e-004
2.890818e+003,-1.603060e-004
2.892747e+003,-2.007128e-004
2.894675e+003,-2.113769e-004
2.896604e+003,-1.546753e-004
2.898532e+003,-1.699775e-004
2.900460e+003,-2.474076e-004
2.902389e+003,-3.049911e-004
2.904317e+003,-3.267775e-004
2.906246e+003,-2.445929e-004
2.908175e+003,-1.402669e-004
2.910103e+003,-2.056474e-004
2.912031e+003,-2.503880e-004
2.913960e+003,-1.271830e-004
2.915888e+003,-9.992077e-005
2.917817e+003,-9.554806e-005
2.919745e+003,-1.017758e-004
2.921674e+003,-1.725278e-004
2.923603e+003,-2.996933e-004
2.925531e+003,-3.580975e-004
2.927459e+003,-3.433648e-004
2.929388e+003,-3.263139e-004
2.931316e+003,-2.818129e-004
2.933245e+003,-3.119774e-004
2.935173e+003,-2.519444e-004
2.937102e+003,-1.376501e-004
2.939031e+003,-2.018057e-004
2.940959e+003,-1.923999e-004
2.942887e+003,-2.762169e-004
2.944816e+003,-3.013489e-004
2.946744e+003,-1.852129e-004
2.948673e+003,-1.118130e-004
2.950601e+003,-9.286479e-005
2.952530e+003,-6.122739e-005
2.954458e+003,-1.040947e-004
2.956387e+003,-1.981295e-004
2.958315e+003,-1.835569e-004
2.960244e+003,-2.100853e-004
2.962172e+003,-2.352542e-004
2.964101e+003,-9.790005e-005
2.966029e+003,-3.220509e-005
2.967958e+003,-9.259977e-005
2.969886e+003,-2.026336e-004
2.971815e+003,-2.695943e-004
2.973743e+003,-2.460499e-004
2.975672e+003,-2.742632e-004
2.977600e+003,-3.012496e-004
2.979529e+003,-9.919199e-005
2.981457e+003,-6.135990e-005
2.983386e+003,-1.468915e-004
2.985314e+003,-2.412482e-004
2.987243e+003,-1.738195e-004
2.989171e+003,-8.869077e-005
2.991100e+003,-1.084342e-004
2.993028e+003,-2.332672e-004
2.994957e+003,-2.612165e-004
2.996885e+003,-2.023687e-004
2.998814e+003,-1.609353e-004
3.000742e+003,-1.811060e-004
3.002671e+003,-2.450565e-004
3.004599e+003,-3.149242e-004
3.006528e+003,-2.466129e-004
3.008456e+003,-2.703228e-004
3.010385e+003,-3.197252e-004
3.012313e+003,-2.068728e-004
3.014242e+003,-1.416912e-004
3.016170e+003,-1.270836e-004
3.018099e+003,-4.678274e-005
3.020027e+003,3.084889e-005
3.021956e+003,-7.461145e-005
3.023884e+003,-2.013089e-004
3.025813e+003,-1.917706e-004
3.027741e+003,-2.002160e-004
3.029670e+003,-1.616640e-004
3.031598e+003,-1.335428e-004
3.033527e+003,-1.891210e-004
3.035455e+003,-1.964735e-004
3.037384e+003,-6.145929e-005
3.039312e+003,-1.099911e-004
3.041241e+003,-2.995609e-004
3.043169e+003,-4.290395e-004
3.045098e+003,-2.491628e-004
3.047026e+003,-1.332778e-004
3.048955e+003,-2.211134e-004
3.050883e+003,-2.383009e-004
3.052812e+003,-3.369419e-004
3.054740e+003,-3.956721e-004
3.056669e+003,-3.143945e-004
3.058597e+003,-2.354860e-004
3.060526e+003,-1.946851e-004
3.062454e+003,-1.682221e-004
3.064383e+003,-2.019713e-004
3.066311e+003,-2.479044e-004
3.068240e+003,-2.408177e-004
3.070168e+003,-2.540638e-004
3.072097e+003,-2.211797e-004
3.074025e+003,-2.153179e-004
3.075954e+003,-1.634526e-004
3.077882e+003,-9.415673e-005
3.079811e+003,-1.342384e-004
3.081739e+003,-2.056474e-004
3.083668e+003,-1.522905e-004
3.085596e+003,-4.254202e-005
3.087525e+003,-7.971318e-005
3.089453e+003,-1.442748e-004
3.091382e+003,-2.050844e-004
3.093310e+003,-1.589480e-004
3.095239e+003,-3.571702e-005
3.097167e+003,-5.625796e-005
3.099096e+003,-2.708857e-004
3.101024e+003,-3.553828e-004
3.102953e+003,-2.868791e-004
3.104881e+003,-2.858527e-004
3.106810e+003,-3.090637e-004
3.108738e+003,-2.574414e-004
3.110667e+003,-3.140965e-004
3.112595e+003,-3.761735e-004
3.114524e+003,-3.218442e-004
3.116452e+003,-2.431689e-004
3.118381e+003,-2.098866e-004
3.120309e+003,-2.585342e-004
3.122238e+003,-3.404844e-004
3.124166e+003,-3.955066e-004
3.126095e+003,-4.555528e-004
3.128023e+003,-3.783253e-004
3.129952e+003,-2.861507e-004
3.131880e+003,-2.310485e-004
3.133809e+003,-1.973015e-004
3.135737e+003,-2.328036e-004
3.137666e+003,-2.275381e-004
3.139594e+003,-2.421092e-004
3.141523e+003,-2.349893e-004
3.143451e+003,-2.119399e-004
3.145380e+003,-2.403210e-004
3.147308e+003,-1.886574e-004
3.149237e+003,-1.961092e-004
3.151165e+003,-3.530322e-004
3.153094e+003,-4.284768e-004
3.155022e+003,-3.945796e-004
3.156951e+003,-3.143614e-004
3.158879e+003,-2.088599e-004
3.160808e+003,-1.825633e-004
3.162736e+003,-2.360159e-004
3.164665e+003,-2.971107e-004
3.166593e+003,-4.032859e-004
3.168522e+003,-3.954072e-004
3.170450e+003,-3.253207e-004
3.172379e+003,-2.719122e-004
3.174307e+003,-2.306842e-004
3.176236e+003,-1.657380e-004
3.178164e+003,-2.704883e-004
3.180093e+003,-3.351540e-004
3.182021e+003,-2.681041e-004
3.183950e+003,-2.625741e-004
3.185878e+003,-3.332337e-004
3.187807e+003,-3.223739e-004
3.189735e+003,-3.502512e-004
3.191664e+003,-3.613089e-004
3.193592e+003,-2.824752e-004
3.195521e+003,-2.241602e-004
3.197449e+003,-1.474877e-004
3.199378e+003,-9.882759e-005
3.201306e+003,-1.495413e-004
3.203235e+003,-3.124410e-004
3.205163e+003,-2.579050e-004
3.207092e+003,-1.778602e-004
3.209020e+003,-2.095222e-004
3.210948e+003,-2.444935e-004
3.212877e+003,-1.948838e-004
3.214806e+003,-1.411612e-004
3.216734e+003,-2.279024e-004
3.218663e+003,-4.533352e-004
3.220591e+003,-3.920968e-004
3.222520e+003,-2.057468e-004
3.224448e+003,-3.205529e-004
3.226376e+003,-2.671107e-004
3.228305e+003,-7.898437e-005
3.230234e+003,-6.854891e-005
3.232162e+003,-1.500050e-004
3.234091e+003,-1.372858e-004
3.236019e+003,-1.048234e-004
3.237948e+003,-1.800131e-004
3.239876e+003,-2.114431e-004
3.241804e+003,-8.484798e-005
3.243733e+003,-2.267102e-004
3.245662e+003,-2.449571e-004
3.247590e+003,-1.704081e-004
3.249519e+003,-1.330790e-004
3.251447e+003,-2.268095e-004
3.253375e+003,-3.304857e-004
3.255304e+003,-3.929244e-004
3.257232e+003,-1.839544e-004
3.259161e+003,-7.915001e-005
3.261090e+003,-1.780590e-004
3.263018e+003,-2.294920e-004
3.264947e+003,-2.920115e-004
3.266875e+003,-4.356597e-004
3.268803e+003,-3.987838e-004
3.270732e+003,-3.147587e-004
3.272660e+003,-2.121717e-004
3.274589e+003,-1.370870e-004
3.276518e+003,-1.592793e-004
3.278446e+003,-2.259816e-004
3.280375e+003,-2.809851e-004
3.282303e+003,-1.680565e-004
3.284231e+003,-2.242264e-004
3.286160e+003,-3.253538e-004
3.288088e+003,-2.868791e-004
3.290017e+003,-3.750810e-004
3.291946e+003,-4.235115e-004
3.293874e+003,-3.979893e-004
3.295802e+003,-3.576009e-004
3.297731e+003,-3.448216e-004
3.299659e+003,-3.129376e-004
3.301588e+003,-2.420761e-004
3.303516e+003,-1.737202e-004
3.305445e+003,-2.143243e-004
3.307374e+003,-3.234003e-004
3.309302e+003,-2.933360e-004
3.311230e+003,-3.283005e-004
3.313159e+003,-4.667733e-004
3.315087e+003,-4.750479e-004
3.317016e+003,-4.345012e-004
3.318944e+003,-4.277485e-004
3.320873e+003,-1.708055e-004
3.322802e+003,-1.936915e-004
3.324730e+003,-5.475592e-004
3.326658e+003,-5.794590e-004
3.328587e+003,-3.335317e-004
3.330515e+003,-1.176762e-004
3.332444e+003,-1.702093e-004
3.334372e+003,-2.988656e-004
3.336301e+003,-3.060176e-004
3.338229e+003,-2.206498e-004
3.340158e+003,-2.935346e-004
3.342086e+003,-3.585279e-004
3.344015e+003,-2.267433e-004
3.345943e+003,-1.158874e-004
3.347872e+003,-1.566295e-004
3.349800e+003,-1.427180e-004
3.351729e+003,-8.567618e-005
3.353657e+003,-1.626246e-004
3.355586e+003,-2.520107e-004
3.357514e+003,-3.115139e-004
3.359443e+003,-2.439968e-004
3.361371e+003,-1.878956e-004
3.363300e+003,-2.752897e-004
3.365229e+003,-3.123748e-004
3.367157e+003,-3.326708e-004
3.369085e+003,-3.644871e-004
3.371014e+003,-3.250558e-004
3.372942e+003,-3.045607e-004
3.374871e+003,-3.005874e-004
3.376799e+003,-1.985600e-004
3.378728e+003,-1.613990e-004
3.380656e+003,-1.796156e-004
3.382585e+003,-2.387976e-004
3.384513e+003,-2.731705e-004
3.386442e+003,-3.137323e-004
3.388370e+003,-1.875644e-004
3.390299e+003,-2.899917e-004
3.392227e+003,-4.225185e-004
3.394156e+003,-2.960842e-004
3.396084e+003,-1.618627e-004
3.398013e+003,-1.105873e-004
3.399941e+003,1.974834e-005
3.401870e+003,-1.069435e-004
3.403798e+003,-2.628059e-004
3.405727e+003,-3.344587e-004
3.407655e+003,-1.580869e-004
3.409584e+003,-1.166303e-005
3.411512e+003,-2.324062e-004
3.413441e+003,-4.259280e-004
3.415369e+003,-2.229349e-004
3.417298e+003,-8.786259e-005
3.419226e+003,-2.130327e-004
3.421155e+003,-2.787004e-004
3.423083e+003,-1.731902e-004
3.425012e+003,-2.122710e-004
3.426940e+003,-1.963411e-004
3.428869e+003,-1.578881e-004
3.430797e+003,-8.050825e-005
3.432726e+003,-1.174112e-004
3.434654e+003,-2.737996e-004
3.436583e+003,-3.955066e-004
3.438511e+003,-2.842964e-004
3.440440e+003,-2.060448e-004
3.442368e+003,-1.393063e-004
3.444297e+003,-2.182653e-004
3.446225e+003,-3.018125e-004
3.448154e+003,-3.308499e-004
3.450082e+003,-1.900153e-004
3.452011e+003,-5.973657e-005
3.453939e+003,-1.096929e-004
3.455868e+003,-2.212128e-004
3.457796e+003,-5.741750e-005
3.459725e+003,7.164171e-005
3.461653e+003,5.361419e-005
3.463582e+003,-8.832636e-005
3.465510e+003,-1.425192e-004
3.467439e+003,-1.004839e-004
3.469367e+003,-1.678246e-004
3.471296e+003,-2.139600e-004
3.473224e+003,-2.242595e-004
3.475153e+003,-2.594945e-004
3.477081e+003,-1.442748e-004
3.479010e+003,-1.519924e-004
3.480938e+003,-1.665660e-004
3.482867e+003,-1.433805e-004
3.484795e+003,9.391202e-005
3.486724e+003,-2.614197e-005
3.488652e+003,-2.763825e-004
3.490581e+003,-3.825958e-004
3.492509e+003,-4.358914e-004
3.494438e+003,-1.884255e-004
3.496366e+003,7.193995e-005
3.498295e+003,1.385025e-005
3.500223e+003,-1.671953e-004
3.502152e+003,-2.443611e-004
3.504080e+003,-1.970035e-004
3.506009e+003,-4.058730e-005
3.507937e+003,-1.749442e-005
3.509866e+003,2.465243e-005
3.511794e+003,-7.547278e-005
3.513723e+003,-2.506198e-004
3.515651e+003,-3.729953e-004
3.517580e+003,-2.033622e-004
3.519508e+003,-1.973015e-004
3.521437e+003,-2.823096e-004
3.523365e+003,-3.509796e-004
3.525294e+003,-3.333992e-004
3.527222e+003,-2.499906e-004
3.529151e+003,-1.746475e-004
3.531079e+003,-7.206056e-005
3.533008e+003,-1.207568e-004
3.534936e+003,-2.376717e-004
3.536865e+003,-1.849480e-004
3.538793e+003,-1.106663e-005
3.540722e+003,1.215858e-004
3.542650e+003,1.827727e-004
3.544579e+003,1.244361e-004
3.546507e+003,-5.900771e-005
3.548436e+003,-2.809851e-004
3.550364e+003,-2.827401e-004
3.552293e+003,-2.851242e-004
3.554221e+003,-2.468778e-004
3.556150e+003,-2.068397e-004
3.558078e+003,-1.278123e-004
3.560007e+003,-1.194649e-004
3.561935e+003,-1.232569e-005
3.563864e+003,-1.201605e-004
3.565792e+003,-2.855216e-004
3.567721e+003,-3.099577e-004
3.569649e+003,-2.565142e-004
3.571578e+003,-2.560506e-004
3.573506e+003,-1.049891e-004
3.575435e+003,9.384574e-005
3.577363e+003,1.540012e-004
3.579292e+003,9.530396e-005
3.581220e+003,-7.162989e-005
3.583149e+003,-2.215439e-004
3.585077e+003,-1.678577e-004
3.587006e+003,-2.748262e-004
3.588934e+003,-3.129376e-004
3.590863e+003,-2.278030e-004
3.592791e+003,-2.577395e-004
3.594720e+003,-2.818461e-004
3.596648e+003,-9.614434e-005
3.598577e+003,1.620557e-004
3.600505e+003,8.797979e-005
3.602434e+003,-3.472309e-005
3.604362e+003,2.130571e-005
3.606291e+003,-6.135990e-005
3.608219e+003,-3.076400e-004
3.610148e+003,-3.165135e-004
3.612076e+003,-2.712168e-004
3.614005e+003,-2.351218e-004
3.615933e+003,-2.317108e-004
3.617862e+003,-2.329692e-004
3.619790e+003,-8.189962e-005
3.621719e+003,4.393796e-005
3.623647e+003,-2.180165e-005
3.625576e+003,-7.941503e-005
3.627504e+003,-1.568282e-004
3.629433e+003,-2.990974e-004
3.631361e+003,-9.193723e-005
3.633290e+003,-6.715750e-005
3.635218e+003,6.952078e-005
3.637146e+003,9.971177e-005
3.639075e+003,1.822410e-005
3.641004e+003,2.743371e-004
3.642932e+003,3.245366e-004
3.644861e+003,1.816125e-004
3.646789e+003,-3.021719e-005
3.648718e+003,-3.522045e-004
3.650646e+003,-4.465166e-004
3.652574e+003,-1.920687e-004
3.654503e+003,-5.108968e-005
3.656432e+003,-1.684870e-004
3.658360e+003,-2.458844e-004
3.660289e+003,-2.195238e-004
3.662217e+003,-1.141318e-004
3.664146e+003,1.091904e-004
3.666074e+003,1.358377e-004
3.668002e+003,-1.466927e-004
3.669931e+003,-4.362555e-004
3.671860e+003,-4.322503e-004
3.673788e+003,-5.140353e-004
3.675717e+003,-5.154585e-004
3.677645e+003,-6.825559e-006
3.679573e+003,1.789242e-006
3.681502e+003,7.445857e-005
3.683430e+003,1.358708e-004
3.685359e+003,1.507198e-004
3.687288e+003,-1.009808e-004
3.689216e+003,-2.835017e-004
3.691145e+003,-6.848266e-005
3.693073e+003,8.867574e-005
3.695001e+003,-3.820187e-005
3.696930e+003,-1.058172e-004
3.698858e+003,-1.438110e-004
3.700787e+003,-7.040413e-005
3.702716e+003,-7.753296e-006
3.704644e+003,-1.355161e-005
3.706573e+003,-3.840065e-005
3.708501e+003,-1.118130e-004
3.710429e+003,-1.605048e-004
3.712358e+003,-1.981295e-004
3.714286e+003,-6.367896e-005
3.716215e+003,-3.992468e-005
3.718144e+003,1.713064e-005
3.720072e+003,2.306190e-005
3.722000e+003,2.090808e-005
3.723929e+003,3.217434e-005
3.725857e+003,-4.499370e-005
3.727786e+003,1.366331e-004
3.729714e+003,7.850163e-005
3.731643e+003,-2.496926e-004
3.733572e+003,-4.862679e-004
3.735500e+003,-5.373666e-004
3.737428e+003,-2.526729e-004
3.739357e+003,-4.539126e-005
3.741285e+003,1.295560e-005
3.743214e+003,-3.487945e-004
3.745142e+003,-6.414980e-004
3.747071e+003,-5.174772e-004
3.749000e+003,-6.761368e-004
3.750928e+003,-5.671494e-004
3.752856e+003,-3.723994e-004
3.754785e+003,-2.026999e-004
3.756713e+003,-6.626803e-007
3.758642e+003,1.269219e-004
3.760570e+003,1.404906e-005
3.762499e+003,4.251305e-005
3.764427e+003,-1.848840e-005
3.766356e+003,4.267874e-005
3.768284e+003,1.013689e-004
3.770213e+003,5.991048e-005
3.772141e+003,1.847947e-004
3.774070e+003,3.007292e-004
3.775998e+003,2.769563e-004
3.777927e+003,1.136646e-004
3.779855e+003,-9.094342e-005
3.781784e+003,8.582564e-005
3.783712e+003,2.544114e-004
3.785641e+003,3.208560e-004
3.787569e+003,1.662321e-004
3.789498e+003,4.440188e-005
3.791426e+003,7.899873e-005
3.793355e+003,1.183046e-004
3.795283e+003,1.324901e-004
3.797212e+003,8.290928e-005
3.799140e+003,-1.248642e-004
3.801069e+003,-4.346005e-004
3.802997e+003,-2.725082e-004
3.804926e+003,-1.767010e-004
3.806854e+003,-1.670959e-004
3.808783e+003,2.958970e-005
3.810711e+003,1.668619e-004
3.812640e+003,1.482670e-004
3.814568e+003,-2.003153e-004
3.816497e+003,-1.209224e-004
3.818425e+003,1.849936e-004
3.820354e+003,2.713863e-004
3.822282e+003,2.135019e-004
3.824211e+003,1.885405e-004
3.826139e+003,9.580107e-005
3.828068e+003,2.551076e-004
3.829996e+003,2.949268e-004
3.831925e+003,2.458579e-004
3.833853e+003,1.365006e-004
3.835782e+003,2.438734e-005
3.837710e+003,-9.819819e-005
3.839639e+003,4.718544e-005
3.841567e+003,3.023208e-004
3.843496e+003,3.807113e-004
3.845424e+003,4.042577e-004
3.847353e+003,3.128317e-004
3.849281e+003,3.776603e-004
3.851210e+003,1.869493e-004
3.853138e+003,-2.513815e-004
3.855067e+003,-2.109132e-004
3.856995e+003,1.832036e-004
3.858924e+003,3.380656e-004
3.860852e+003,2.105516e-004
3.862781e+003,1.333187e-004
3.864709e+003,2.254694e-004
3.866638e+003,3.069960e-004
3.868566e+003,3.711028e-006
3.870495e+003,2.939089e-005
3.872423e+003,2.681703e-004
3.874352e+003,3.640305e-004
3.876280e+003,3.289136e-004
3.878209e+003,1.670608e-004
3.880137e+003,-4.141735e-006
3.882066e+003,1.211218e-004
3.883994e+003,9.940326e-006
3.885923e+003,-3.637965e-005
3.887851e+003,2.184745e-004
3.889780e+003,2.729446e-004
3.891708e+003,9.020022e-005
3.893637e+003,-1.842214e-005
3.895565e+003,1.548630e-004
3.897494e+003,2.687671e-004
3.899422e+003,2.439682e-004
3.901351e+003,-4.903810e-006
3.903279e+003,-7.795740e-005
3.905208e+003,9.907190e-006
3.907136e+003,1.026945e-004
3.909065e+003,3.180375e-004
3.910993e+003,5.092705e-004
3.912922e+003,5.158719e-004
3.914850e+003,4.111892e-004
3.916779e+003,1.916233e-004
3.918707e+003,3.081896e-004
3.920636e+003,3.723211e-004
3.922564e+003,2.049492e-004
3.924493e+003,3.273551e-004
3.926421e+003,4.983235e-004
3.928350e+003,3.568345e-004
3.930278e+003,2.246406e-004
3.932207e+003,3.591889e-004
3.934135e+003,7.417089e-004
3.936064e+003,1.005090e-003
3.937992e+003,7.546535e-004
3.939921e+003,4.387174e-004
3.941849e+003,4.103601e-004
3.943778e+003,4.785534e-004
3.945706e+003,5.055551e-004
3.947635e+003,5.920116e-004
3.949563e+003,6.809079e-004
3.951492e+003,7.715484e-004
3.953420e+003,6.358768e-004
3.955349e+003,6.738061e-004
3.957277e+003,7.065946e-004
3.959206e+003,5.191561e-004
3.961134e+003,6.272162e-004
3.963063e+003,7.714488e-004
3.964991e+003,4.945419e-004
3.966920e+003,4.293642e-004
3.968848e+003,7.117056e-004
3.970777e+003,7.251139e-004
3.972705e+003,4.334770e-004
3.974634e+003,5.156729e-004
3.976562e+003,5.928079e-004
3.978491e+003,3.462893e-004
3.980419e+003,5.208811e-004
3.982348e+003,4.775583e-004
3.984276e+003,4.495633e-004
3.986205e+003,3.815072e-004
3.988133e+003,4.930492e-004
3.990062e+003,7.207329e-004
3.991990e+003,7.113737e-004
3.993919e+003,6.020318e-004
3.995847e+003,5.382978e-004
3.997776e+003,3.924512e-004
3.999704e+003,5.567766e-004
4.001633e+003,0.000000e+000
