3.991989e+002,-1.015753e-002
4.011274e+002,-9.708455e-003
4.030559e+002,-1.320817e-002
4.049844e+002,-2.140752e-002
4.069129e+002,-1.900958e-002
4.088414e+002,-8.453610e-003
4.107699e+002,-1.021929e-002
4.126984e+002,-1.263094e-002
4.146269e+002,-8.318539e-003
4.165554e+002,-4.541839e-003
4.184839e+002,-5.958746e-003
4.204124e+002,2.270938e-004
4.223409e+002,5.197066e-003
4.242694e+002,3.517301e-003
4.261979e+002,-3.377275e-003
4.281264e+002,2.708921e-003
4.300549e+002,8.370485e-003
4.319834e+002,4.496223e-003
4.339119e+002,3.647227e-003
4.358404e+002,7.238243e-003
4.377689e+002,7.850838e-003
4.396974e+002,5.481509e-004
4.416259e+002,-8.592051e-003
4.435544e+002,-6.293907e-003
4.454829e+002,-2.364227e-003
4.474114e+002,2.233334e-003
4.493399e+002,1.973368e-003
4.512684e+002,-7.420321e-004
4.531969e+002,-1.442610e-003
4.551254e+002,-1.023463e-003
4.570539e+002,-1.331701e-003
4.589824e+002,-1.550123e-003
4.609109e+002,-2.733486e-003
4.628394e+002,-1.959790e-003
4.647679e+002,-1.010307e-003
4.666964e+002,-5.055630e-004
4.686249e+002,1.694474e-004
4.705533e+002,8.328601e-004
4.724819e+002,-1.224794e-003
4.744103e+002,-1.209529e-003
4.763389e+002,1.306009e-004
4.782673e+002,-9.320867e-004
4.801959e+002,-2.459454e-003
4.821243e+002,-1.937426e-003
4.840529e+002,-4.158232e-003
4.859813e+002,-6.248282e-003
4.879099e+002,-4.973526e-003
4.898383e+002,-3.708750e-003
4.917668e+002,-4.406595e-003
4.936953e+002,-5.227415e-003
4.956238e+002,-5.587118e-003
4.975523e+002,-4.988725e-003
4.994808e+002,-5.608117e-003
5.014093e+002,-5.300512e-003
5.033378e+002,-4.115008e-003
5.052663e+002,-1.840402e-003
5.071948e+002,-1.621564e-003
5.091233e+002,-4.525543e-003
5.110518e+002,-6.917377e-003
5.129803e+002,-7.533636e-003
5.149088e+002,-6.874623e-003
5.168373e+002,-6.336882e-003
5.187658e+002,-6.264318e-003
5.206943e+002,-6.291980e-003
5.226228e+002,-5.655510e-003
5.245513e+002,-4.827374e-003
5.264798e+002,-5.509980e-003
5.284083e+002,-5.583193e-003
5.303368e+002,-3.934813e-003
5.322653e+002,-3.960654e-003
5.341938e+002,-4.555414e-003
5.361223e+002,-4.972281e-003
5.380508e+002,-5.018237e-003
5.399792e+002,-4.208113e-003
5.419078e+002,-3.275179e-003
5.438363e+002,-3.464325e-003
5.457648e+002,-4.228129e-003
5.476932e+002,-4.110085e-003
5.496218e+002,-3.630620e-003
5.515503e+002,-2.352693e-003
5.534788e+002,-2.437412e-003
5.554072e+002,-2.863920e-003
5.573358e+002,-3.316185e-003
5.592643e+002,-3.467054e-003
5.611927e+002,-2.714290e-003
5.631212e+002,-1.601196e-003
5.650497e+002,-7.970695e-004
5.669783e+002,-1.186895e-003
5.689067e+002,-1.460872e-003
5.708352e+002,-1.734940e-003
5.727637e+002,-2.643589e-003
5.746923e+002,-3.234958e-003
5.766207e+002,-4.024903e-003
5.785492e+002,-5.412899e-003
5.804777e+002,-9.538800e-003
5.824063e+002,-7.939522e-003
5.843347e+002,-3.748335e-003
5.862632e+002,-3.061702e-003
5.881917e+002,-3.117926e-003
5.901202e+002,-3.272153e-003
5.920487e+002,-3.310594e-003
5.939772e+002,-4.309892e-003
5.959057e+002,-3.526414e-003
5.978342e+002,-1.931357e-003
5.997627e+002,-2.185216e-003
6.016912e+002,-2.693084e-003
6.036197e+002,-1.869040e-003
6.055482e+002,2.241102e-004
6.074767e+002,1.323533e-003
6.094052e+002,9.161278e-004
6.113337e+002,-1.406645e-003
6.132622e+002,-3.051930e-003
6.151907e+002,-2.658836e-003
6.171192e+002,-3.205522e-003
6.190477e+002,-3.087956e-003
6.209762e+002,-2.864019e-003
6.229047e+002,-3.914685e-003
6.248332e+002,-5.370062e-003
6.267617e+002,-6.137940e-003
6.286902e+002,-5.500721e-003
6.306187e+002,-4.182090e-003
6.325472e+002,-3.763314e-003
6.344756e+002,-3.550274e-003
6.364042e+002,-3.113156e-003
6.383326e+002,-3.082923e-003
6.402612e+002,-3.187465e-003
6.421896e+002,-2.740203e-003
6.441182e+002,-2.850194e-003
6.460466e+002,-3.068414e-003
6.479752e+002,-3.092891e-003
6.499036e+002,-3.106248e-003
6.518322e+002,-2.666180e-003
6.537606e+002,-2.042937e-003
6.556891e+002,-2.133355e-003
6.576177e+002,-2.534237e-003
6.595461e+002,-2.576071e-003
6.614746e+002,-2.473193e-003
6.634031e+002,-2.212941e-003
6.653317e+002,-1.611199e-003
6.672601e+002,-1.270784e-003
6.691886e+002,-1.323608e-003
6.711171e+002,-1.111350e-003
6.730457e+002,-6.025551e-004
6.749741e+002,-6.259808e-004
6.769026e+002,-7.225490e-004
6.788311e+002,-6.824885e-004
6.807596e+002,-4.105686e-004
6.826881e+002,-4.235446e-004
6.846166e+002,-1.676590e-004
6.865451e+002,4.436262e-004
6.884736e+002,6.504442e-004
6.904021e+002,2.901523e-004
6.923306e+002,4.777905e-004
6.942591e+002,3.560386e-004
6.961876e+002,-2.214115e-004
6.981161e+002,-4.921260e-004
7.000446e+002,-4.904712e-004
7.019731e+002,-5.478239e-004
7.039016e+002,-4.755112e-004
7.058301e+002,-9.446505e-004
7.077585e+002,-1.165647e-003
7.096871e+002,-1.210091e-003
7.116156e+002,-1.173016e-003
7.135441e+002,-1.644473e-003
7.154725e+002,-2.602322e-003
7.174011e+002,-3.035742e-003
7.193296e+002,-2.826756e-003
7.212581e+002,-3.025904e-003
7.231865e+002,-2.933203e-003
7.251151e+002,-2.822937e-003
7.270436e+002,-3.106708e-003
7.289720e+002,-3.152631e-003
7.309005e+002,-3.359356e-003
7.328290e+002,-3.534499e-003
7.347576e+002,-3.040348e-003
7.366860e+002,-2.497737e-003
7.386145e+002,-2.297358e-003
7.405430e+002,-2.442552e-003
7.424716e+002,-2.418730e-003
7.444000e+002,-2.128673e-003
7.463285e+002,-1.769327e-003
7.482570e+002,-1.911333e-003
7.501855e+002,-1.223704e-003
7.521140e+002,-3.132025e-004
7.540425e+002,6.279354e-005
7.559710e+002,7.114461e-005
7.578995e+002,-1.123761e-004
7.598280e+002,-1.338078e-004
7.617565e+002,1.901647e-004
7.636850e+002,4.839271e-004
7.656135e+002,1.256868e-003
7.675420e+002,1.615935e-003
7.694705e+002,1.514079e-003
7.713990e+002,1.223008e-003
7.733275e+002,1.186924e-003
7.752560e+002,1.324962e-003
7.771844e+002,1.518601e-003
7.791130e+002,1.487845e-003
7.810415e+002,1.309508e-003
7.829700e+002,1.223340e-003
7.848984e+002,1.608784e-003
7.868270e+002,1.789540e-003
7.887555e+002,1.695128e-003
7.906840e+002,1.074839e-003
7.926124e+002,6.073075e-004
7.945410e+002,7.944189e-004
7.964695e+002,8.697442e-004
7.983979e+002,8.047758e-004
8.003264e+002,7.201687e-004
8.022549e+002,5.428427e-004
8.041835e+002,5.665639e-004
8.061119e+002,9.865592e-004
8.080404e+002,1.486748e-003
8.099689e+002,1.191377e-003
8.118975e+002,1.024220e-003
8.138259e+002,1.370663e-003
8.157545e+002,1.466567e-003
8.176830e+002,1.050857e-003
8.196115e+002,6.633528e-004
8.215399e+002,2.539804e-004
8.234684e+002,1.854245e-004
8.253970e+002,-3.309161e-004
8.273254e+002,-1.024124e-003
8.292539e+002,-1.046172e-003
8.311824e+002,-1.020687e-003
8.331110e+002,-1.009877e-003
8.350394e+002,-7.523191e-004
8.369679e+002,-4.450271e-004
8.388964e+002,-7.325718e-004
8.408250e+002,-8.842419e-004
8.427534e+002,-8.198564e-004
8.446819e+002,-9.272926e-004
8.466104e+002,-1.065773e-003
8.485389e+002,-1.139970e-003
8.504674e+002,-1.189637e-003
8.523959e+002,-1.106723e-003
8.543244e+002,-1.358555e-003
8.562529e+002,-1.600206e-003
8.581814e+002,-1.602318e-003
8.601099e+002,-1.287765e-003
8.620384e+002,-1.183491e-003
8.639669e+002,-1.556363e-003
8.658954e+002,-1.567357e-003
8.678239e+002,-1.370116e-003
8.697524e+002,-1.747052e-003
8.716809e+002,-2.018500e-003
8.736094e+002,-1.843602e-003
8.755378e+002,-1.704446e-003
8.774664e+002,-1.384913e-003
8.793949e+002,-9.450142e-004
8.813234e+002,-9.741739e-004
8.832518e+002,-9.589331e-004
8.851804e+002,-1.063294e-003
8.871089e+002,-1.133526e-003
8.890374e+002,-8.357305e-004
8.909658e+002,-6.450050e-004
8.928943e+002,-4.344681e-004
8.948229e+002,-3.083022e-004
8.967513e+002,-1.182393e-004
8.986798e+002,-3.564091e-004
9.006083e+002,-3.969631e-004
9.025369e+002,-2.143243e-004
9.044653e+002,-2.064091e-004
9.063938e+002,-3.804771e-004
9.083223e+002,-3.662417e-004
9.102509e+002,-4.569099e-004
9.121793e+002,-7.266177e-004
9.141078e+002,-8.596066e-004
9.160364e+002,-8.177398e-004
9.179648e+002,-8.283888e-004
9.198933e+002,-1.019596e-003
9.218218e+002,-1.474147e-003
9.237504e+002,-1.933468e-003
9.256788e+002,-2.128442e-003
9.276073e+002,-2.225040e-003
9.295358e+002,-2.018796e-003
9.314644e+002,-2.018137e-003
9.333928e+002,-2.125112e-003
9.353213e+002,-2.205326e-003
9.372498e+002,-2.297095e-003
9.391783e+002,-2.505248e-003
9.411068e+002,-2.583943e-003
9.430353e+002,-2.596953e-003
9.449637e+002,-2.868726e-003
9.468923e+002,-3.152105e-003
9.488208e+002,-2.891635e-003
9.507493e+002,-2.503766e-003
9.526777e+002,-2.405879e-003
9.546063e+002,-2.404660e-003
9.565348e+002,-2.270001e-003
9.584633e+002,-2.135498e-003
9.603917e+002,-2.268716e-003
9.623203e+002,-2.444727e-003
9.642488e+002,-2.347651e-003
9.661772e+002,-2.022622e-003
9.681057e+002,-1.761440e-003
9.700343e+002,-1.792459e-003
9.719628e+002,-1.965068e-003
9.738912e+002,-2.122112e-003
9.758197e+002,-2.145258e-003
9.777483e+002,-2.125706e-003
9.796768e+002,-1.996963e-003
9.816052e+002,-1.893684e-003
9.835337e+002,-1.971335e-003
9.854623e+002,-1.967212e-003
9.873907e+002,-1.929971e-003
9.893192e+002,-1.843602e-003
9.912477e+002,-1.777016e-003
9.931763e+002,-1.837102e-003
9.951047e+002,-1.750451e-003
9.970332e+002,-1.557816e-003
9.989617e+002,-1.522521e-003
1.000890e+003,-1.468005e-003
1.002819e+003,-1.243528e-003
1.004747e+003,-1.022571e-003
1.006676e+003,-7.644580e-004
1.008604e+003,-6.092388e-004
1.010533e+003,-5.152268e-004
1.012461e+003,-3.515424e-004
1.014390e+003,-1.004839e-004
1.016318e+003,8.184879e-005
1.018247e+003,3.530541e-004
1.020175e+003,4.804441e-004
1.022104e+003,4.399446e-004
1.024032e+003,7.936222e-004
1.025961e+003,1.174133e-003
1.027889e+003,1.316686e-003
1.029818e+003,1.628573e-003
1.031746e+003,1.840647e-003
1.033675e+003,1.898549e-003
1.035603e+003,2.266074e-003
1.037532e+003,2.447370e-003
1.039460e+003,2.589276e-003
1.041389e+003,2.765572e-003
1.043317e+003,2.820129e-003
1.045246e+003,2.814693e-003
1.047174e+003,2.927829e-003
1.049103e+003,3.087978e-003
1.051031e+003,3.113040e-003
1.052960e+003,3.027782e-003
1.054888e+003,2.887568e-003
1.056817e+003,2.721725e-003
1.058745e+003,2.795618e-003
1.060674e+003,2.710689e-003
1.062602e+003,2.685917e-003
1.064531e+003,2.787347e-003
1.066459e+003,2.764939e-003
1.068388e+003,2.653778e-003
1.070316e+003,2.732995e-003
1.072245e+003,3.037692e-003
1.074173e+003,3.150319e-003
1.076102e+003,3.013034e-003
1.078030e+003,2.861151e-003
1.079959e+003,2.682116e-003
1.081887e+003,2.769040e-003
1.083816e+003,3.057045e-003
1.085744e+003,3.391789e-003
1.087673e+003,3.473177e-003
1.089601e+003,3.278832e-003
1.091530e+003,3.338195e-003
1.093458e+003,3.514261e-003
1.095387e+003,3.614015e-003
1.097315e+003,3.867176e-003
1.099244e+003,3.819775e-003
1.101172e+003,3.700491e-003
1.103101e+003,3.792198e-003
1.105029e+003,3.665838e-003
1.106958e+003,3.526086e-003
1.108886e+003,3.651002e-003
1.110815e+003,3.898803e-003
1.112743e+003,4.002591e-003
1.114672e+003,3.921237e-003
1.116600e+003,3.854272e-003
1.118529e+003,3.827530e-003
1.120457e+003,3.856278e-003
1.122386e+003,4.007540e-003
1.124314e+003,4.063056e-003
1.126243e+003,3.659957e-003
1.128171e+003,3.535239e-003
1.130100e+003,3.663433e-003
1.132028e+003,3.416267e-003
1.133957e+003,3.137236e-003
1.135885e+003,2.847110e-003
1.137814e+003,2.660879e-003
1.139742e+003,2.480027e-003
1.141671e+003,2.052193e-003
1.143599e+003,1.726330e-003
1.145528e+003,1.518068e-003
1.147456e+003,1.262185e-003
1.149385e+003,1.043185e-003
1.151313e+003,8.792065e-004
1.153242e+003,5.975857e-004
1.155170e+003,3.780251e-004
1.157099e+003,2.891576e-004
1.159027e+003,4.439984e-006
1.160956e+003,-1.374845e-004
1.162884e+003,-1.694144e-004
1.164813e+003,-1.850473e-004
1.166741e+003,-2.220407e-004
1.168670e+003,-1.130055e-004
1.170598e+003,-3.836752e-005
1.172526e+003,-1.400681e-004
1.174455e+003,7.121089e-005
1.176384e+003,1.643428e-004
1.178312e+003,-1.059166e-004
1.180240e+003,-4.933378e-005
1.182169e+003,1.473058e-004
1.184098e+003,1.999768e-004
1.186026e+003,2.411171e-004
1.187954e+003,7.250333e-005
1.189883e+003,-2.247232e-004
1.191812e+003,-2.163114e-004
1.193740e+003,-1.437994e-005
1.195668e+003,1.060302e-005
1.197597e+003,1.181389e-004
1.199526e+003,2.447970e-004
1.201454e+003,1.257287e-004
1.203382e+003,1.712705e-004
1.205311e+003,3.400221e-004
1.207240e+003,4.018035e-004
1.209168e+003,5.880633e-004
1.211096e+003,7.324156e-004
1.213025e+003,8.032820e-004
1.214953e+003,8.023193e-004
1.216882e+003,8.237308e-004
1.218810e+003,8.817962e-004
1.220739e+003,1.017279e-003
1.222667e+003,1.276175e-003
1.224596e+003,1.537786e-003
1.226524e+003,1.656245e-003
1.228453e+003,1.720276e-003
1.230381e+003,1.840414e-003
1.232310e+003,2.060183e-003
1.234238e+003,2.254516e-003
1.236167e+003,2.387463e-003
1.238095e+003,2.456301e-003
1.240024e+003,2.545713e-003
1.241952e+003,2.530815e-003
1.243881e+003,2.382299e-003
1.245809e+003,2.362976e-003
1.247738e+003,2.217481e-003
1.249666e+003,1.962084e-003
1.251595e+003,1.828336e-003
1.253523e+003,1.885205e-003
1.255452e+003,1.939784e-003
1.257380e+003,1.948371e-003
1.259309e+003,1.822380e-003
1.261237e+003,1.816757e-003
1.263166e+003,2.144652e-003
1.265094e+003,2.262743e-003
1.267023e+003,2.401789e-003
1.268951e+003,2.717390e-003
1.270880e+003,2.994684e-003
1.272808e+003,3.236602e-003
1.274737e+003,3.554781e-003
1.276665e+003,4.002323e-003
1.278594e+003,4.251060e-003
1.280522e+003,4.362530e-003
1.282451e+003,4.529804e-003
1.284379e+003,4.746986e-003
1.286308e+003,5.173493e-003
1.288236e+003,5.513631e-003
1.290165e+003,5.785296e-003
1.292093e+003,6.019266e-003
1.294022e+003,6.106155e-003
1.295950e+003,6.408791e-003
1.297879e+003,6.568008e-003
1.299807e+003,6.466296e-003
1.301736e+003,6.365784e-003
1.303664e+003,6.387976e-003
1.305593e+003,6.463235e-003
1.307521e+003,6.456644e-003
1.309450e+003,6.263850e-003
1.311378e+003,5.941094e-003
1.313307e+003,5.622237e-003
1.315235e+003,5.439443e-003
1.317164e+003,5.241432e-003
1.319092e+003,4.949261e-003
1.321021e+003,4.506703e-003
1.322949e+003,4.149253e-003
1.324878e+003,4.010483e-003
1.326806e+003,3.893922e-003
1.328735e+003,3.922039e-003
1.330663e+003,3.798984e-003
1.332592e+003,3.566708e-003
1.334520e+003,3.521209e-003
1.336449e+003,3.407418e-003
1.338377e+003,3.217208e-003
1.340306e+003,3.190371e-003
1.342234e+003,3.297128e-003
1.344163e+003,3.301735e-003
1.346091e+003,3.235701e-003
1.348020e+003,3.217441e-003
1.349948e+003,3.014736e-003
1.351877e+003,2.757969e-003
1.353805e+003,2.723325e-003
1.355734e+003,2.543146e-003
1.357662e+003,2.192504e-003
1.359591e+003,2.034616e-003
1.361519e+003,2.058519e-003
1.363448e+003,2.020235e-003
1.365376e+003,1.787411e-003
1.367305e+003,1.622786e-003
1.369233e+003,1.621921e-003
1.371162e+003,1.438342e-003
1.373090e+003,1.373156e-003
1.375019e+003,1.427139e-003
1.376947e+003,1.438276e-003
1.378876e+003,1.549591e-003
1.380804e+003,1.735978e-003
1.382733e+003,1.687677e-003
1.384661e+003,1.404734e-003
1.386590e+003,1.134300e-003
1.388518e+003,1.061154e-003
1.390447e+003,1.021663e-003
1.392375e+003,7.886431e-004
1.394304e+003,6.450021e-004
1.396232e+003,6.429779e-004
1.398161e+003,5.512362e-004
1.400089e+003,5.656681e-004
1.402018e+003,5.863380e-004
1.403946e+003,4.994514e-004
1.405875e+003,5.635779e-004
1.407803e+003,6.928882e-004
1.409732e+003,6.090992e-004
1.411660e+003,6.621250e-004
1.413589e+003,8.738611e-004
1.415517e+003,1.186825e-003
1.417446e+003,1.493863e-003
1.419374e+003,1.854989e-003
1.421303e+003,2.460666e-003
1.423231e+003,2.914720e-003
1.425160e+003,3.539314e-003
1.427088e+003,4.089646e-003
1.429017e+003,4.347971e-003
1.430945e+003,4.639905e-003
1.432874e+003,4.826384e-003
1.434802e+003,4.966387e-003
1.436731e+003,5.260414e-003
1.438659e+003,5.757125e-003
1.440588e+003,6.077325e-003
1.442516e+003,6.489804e-003
1.444445e+003,6.860900e-003
1.446373e+003,7.263950e-003
1.448302e+003,7.578486e-003
1.450230e+003,7.877054e-003
1.452159e+003,8.289997e-003
1.454087e+003,8.607812e-003
1.456016e+003,8.403117e-003
1.457944e+003,8.631235e-003
1.459873e+003,9.180446e-003
1.461801e+003,9.280291e-003
1.463730e+003,9.123798e-003
1.465658e+003,9.219501e-003
1.467587e+003,9.300873e-003
1.469515e+003,8.997873e-003
1.471444e+003,8.551442e-003
1.473372e+003,8.384335e-003
1.475301e+003,8.370688e-003
1.477229e+003,8.099832e-003
1.479158e+003,7.755875e-003
1.481086e+003,7.254145e-003
1.483015e+003,6.869686e-003
1.484943e+003,6.466901e-003
1.486872e+003,5.968740e-003
1.488800e+003,5.494907e-003
1.490729e+003,5.035970e-003
1.492657e+003,4.726184e-003
1.494586e+003,4.475400e-003
1.496514e+003,4.032956e-003
1.498443e+003,3.680107e-003
1.500371e+003,3.461955e-003
1.502300e+003,3.270386e-003
1.504228e+003,2.824731e-003
1.506157e+003,2.294053e-003
1.508085e+003,2.316404e-003
1.510014e+003,2.394526e-003
1.511942e+003,2.291388e-003
1.513871e+003,2.286125e-003
1.515799e+003,2.125573e-003
1.517728e+003,2.084820e-003
1.519656e+003,2.029756e-003
1.521585e+003,1.976030e-003
1.523513e+003,2.352449e-003
1.525442e+003,2.675115e-003
1.527370e+003,2.883632e-003
1.529299e+003,3.071560e-003
1.531227e+003,3.263575e-003
1.533156e+003,3.387748e-003
1.535084e+003,3.782873e-003
1.537013e+003,4.082722e-003
1.538941e+003,4.001654e-003
1.540870e+003,4.162902e-003
1.542798e+003,4.648780e-003
1.544727e+003,5.162729e-003
1.546655e+003,5.545042e-003
1.548584e+003,5.728351e-003
1.550512e+003,5.966288e-003
1.552441e+003,6.082970e-003
1.554369e+003,6.099905e-003
1.556298e+003,6.108205e-003
1.558226e+003,5.952616e-003
1.560155e+003,6.432094e-003
1.562083e+003,7.153855e-003
1.564012e+003,7.630346e-003
1.565940e+003,7.985442e-003
1.567869e+003,8.109555e-003
1.569797e+003,8.180250e-003
1.571726e+003,8.353900e-003
1.573654e+003,8.348901e-003
1.575583e+003,8.316577e-003
1.577511e+003,8.413420e-003
1.579440e+003,8.408116e-003
1.581368e+003,8.356095e-003
1.583297e+003,8.110195e-003
1.585225e+003,7.777801e-003
1.587154e+003,7.614565e-003
1.589082e+003,7.277225e-003
1.591010e+003,6.737178e-003
1.592939e+003,6.292660e-003
1.594868e+003,5.882349e-003
1.596796e+003,5.405892e-003
1.598724e+003,4.995345e-003
1.600653e+003,4.409288e-003
1.602582e+003,3.806304e-003
1.604510e+003,3.386746e-003
1.606438e+003,3.008864e-003
1.608367e+003,2.543980e-003
1.610296e+003,2.328130e-003
1.612224e+003,2.020102e-003
1.614152e+003,1.646533e-003
1.616081e+003,1.132340e-003
1.618010e+003,8.905282e-004
1.619938e+003,7.678308e-004
1.621866e+003,4.925517e-004
1.623795e+003,2.108499e-004
1.625724e+003,2.410176e-004
1.627652e+003,1.080967e-004
1.629580e+003,-1.499057e-004
1.631509e+003,-2.982033e-004
1.633438e+003,-4.949061e-004
1.635366e+003,-8.926739e-004
1.637294e+003,-1.153090e-003
1.639223e+003,-1.278812e-003
1.641151e+003,-1.499276e-003
1.643080e+003,-1.987200e-003
1.645008e+003,-2.586479e-003
1.646937e+003,-2.902299e-003
1.648865e+003,-2.993163e-003
1.650794e+003,-3.466330e-003
1.652722e+003,-4.171917e-003
1.654651e+003,-4.231411e-003
1.656579e+003,-4.202830e-003
1.658508e+003,-4.569283e-003
1.660436e+003,-4.919572e-003
1.662365e+003,-5.139473e-003
1.664293e+003,-5.276781e-003
1.666222e+003,-5.363255e-003
1.668150e+003,-5.658322e-003
1.670079e+003,-6.027733e-003
1.672007e+003,-6.026132e-003
1.673936e+003,-6.103114e-003
1.675864e+003,-6.088019e-003
1.677793e+003,-5.924526e-003
1.679721e+003,-5.756754e-003
1.681650e+003,-5.701426e-003
1.683578e+003,-5.871704e-003
1.685507e+003,-5.601020e-003
1.687435e+003,-5.284538e-003
1.689364e+003,-5.171430e-003
1.691292e+003,-5.026883e-003
1.693221e+003,-5.016206e-003
1.695149e+003,-5.136591e-003
1.697078e+003,-4.961177e-003
1.699006e+003,-5.082265e-003
1.700935e+003,-4.975098e-003
1.702863e+003,-4.602430e-003
1.704792e+003,-4.650752e-003
1.706720e+003,-4.515050e-003
1.708649e+003,-4.449462e-003
1.710577e+003,-4.513246e-003
1.712506e+003,-4.609315e-003
1.714434e+003,-4.707886e-003
1.716363e+003,-4.848410e-003
1.718291e+003,-4.897851e-003
1.720220e+003,-4.695201e-003
1.722148e+003,-4.685204e-003
1.724077e+003,-4.756688e-003
1.726005e+003,-4.784675e-003
1.727934e+003,-4.842250e-003
1.729862e+003,-4.818133e-003
1.731791e+003,-4.922226e-003
1.733719e+003,-5.228528e-003
1.735648e+003,-5.153192e-003
1.737576e+003,-5.073979e-003
1.739505e+003,-5.062353e-003
1.741433e+003,-4.838973e-003
1.743362e+003,-4.681532e-003
1.745290e+003,-4.473272e-003
1.747219e+003,-4.460416e-003
1.749147e+003,-4.517247e-003
1.751076e+003,-4.525346e-003
1.753004e+003,-4.390261e-003
1.754933e+003,-4.258021e-003
1.756861e+003,-4.224061e-003
1.758790e+003,-4.212641e-003
1.760718e+003,-4.275345e-003
1.762647e+003,-4.193707e-003
1.764575e+003,-4.040365e-003
1.766504e+003,-3.978678e-003
1.768432e+003,-3.887002e-003
1.770361e+003,-3.975756e-003
1.772289e+003,-4.145564e-003
1.774218e+003,-4.045979e-003
1.776146e+003,-3.817083e-003
1.778075e+003,-3.774351e-003
1.780003e+003,-3.851995e-003
1.781932e+003,-3.869072e-003
1.783860e+003,-3.805817e-003
1.785789e+003,-3.676783e-003
1.787717e+003,-3.603412e-003
1.789646e+003,-3.580442e-003
1.791574e+003,-3.723533e-003
1.793503e+003,-3.806934e-003
1.795431e+003,-3.706121e-003
1.797360e+003,-3.662852e-003
1.799288e+003,-3.633905e-003
1.801217e+003,-3.708224e-003
1.803145e+003,-3.686639e-003
1.805074e+003,-3.560922e-003
1.807002e+003,-3.467744e-003
1.808931e+003,-3.571734e-003
1.810859e+003,-3.553955e-003
1.812788e+003,-3.470538e-003
1.814716e+003,-3.498608e-003
1.816645e+003,-3.556617e-003
1.818573e+003,-3.584912e-003
1.820502e+003,-3.621879e-003
1.822430e+003,-3.663050e-003
1.824359e+003,-3.659468e-003
1.826287e+003,-3.669522e-003
1.828216e+003,-3.860763e-003
1.830144e+003,-3.939672e-003
1.832073e+003,-3.809496e-003
1.834001e+003,-3.736607e-003
1.835930e+003,-3.820532e-003
1.837858e+003,-3.884014e-003
1.839787e+003,-3.851207e-003
1.841715e+003,-3.892388e-003
1.843644e+003,-4.027924e-003
1.845572e+003,-4.041153e-003
1.847501e+003,-3.933434e-003
1.849429e+003,-3.925258e-003
1.851358e+003,-3.811302e-003
1.853286e+003,-3.702935e-003
1.855215e+003,-3.652174e-003
1.857143e+003,-3.684570e-003
1.859072e+003,-3.789756e-003
1.861000e+003,-3.812583e-003
1.862929e+003,-3.714860e-003
1.864857e+003,-3.618035e-003
1.866786e+003,-3.743900e-003
1.868714e+003,-3.787030e-003
1.870643e+003,-3.599042e-003
1.872571e+003,-3.454464e-003
1.874500e+003,-3.413241e-003
1.876428e+003,-3.444044e-003
1.878357e+003,-3.486480e-003
1.880285e+003,-3.427344e-003
1.882214e+003,-3.389998e-003
1.884142e+003,-3.441447e-003
1.886071e+003,-3.452722e-003
1.887999e+003,-3.391182e-003
1.889928e+003,-3.325194e-003
1.891856e+003,-3.256730e-003
1.893785e+003,-3.227854e-003
1.895713e+003,-3.252520e-003
1.897642e+003,-3.191478e-003
1.899570e+003,-3.139375e-003
1.901499e+003,-3.163256e-003
1.903427e+003,-3.175854e-003
1.905356e+003,-3.239530e-003
1.907284e+003,-3.246206e-003
1.909213e+003,-3.131907e-003
1.911141e+003,-3.083021e-003
1.913070e+003,-3.095622e-003
1.914998e+003,-3.109044e-003
1.916927e+003,-3.158848e-003
1.918855e+003,-3.244660e-003
1.920784e+003,-3.237458e-003
1.922712e+003,-3.274521e-003
1.924641e+003,-3.191906e-003
1.926569e+003,-3.066538e-003
1.928498e+003,-3.082001e-003
1.930426e+003,-3.105031e-003
1.932355e+003,-3.080291e-003
1.934283e+003,-3.127499e-003
1.936212e+003,-3.201707e-003
1.938140e+003,-3.257059e-003
1.940069e+003,-3.310299e-003
1.941997e+003,-3.265017e-003
1.943926e+003,-3.166743e-003
1.945854e+003,-3.186807e-003
1.947783e+003,-3.300631e-003
1.949711e+003,-3.350972e-003
1.951640e+003,-3.338083e-003
1.953568e+003,-3.416430e-003
1.955497e+003,-3.380365e-003
1.957425e+003,-3.334105e-003
1.959354e+003,-3.386152e-003
1.961282e+003,-3.355082e-003
1.963211e+003,-3.395719e-003
1.965139e+003,-3.459197e-003
1.967068e+003,-3.411334e-003
1.968996e+003,-3.346500e-003
1.970925e+003,-3.283466e-003
1.972853e+003,-3.352550e-003
1.974782e+003,-3.452623e-003
1.976710e+003,-3.422019e-003
1.978639e+003,-3.280572e-003
1.980567e+003,-3.230222e-003
1.982496e+003,-3.236767e-003
1.984424e+003,-3.269029e-003
1.986353e+003,-3.298724e-003
1.988281e+003,-3.232064e-003
1.990210e+003,-3.131842e-003
1.992138e+003,-3.076409e-003
1.994067e+003,-3.001488e-003
1.995995e+003,-2.903484e-003
1.997924e+003,-2.780601e-003
1.999852e+003,-2.756732e-003
2.001781e+003,-2.844960e-003
2.003709e+003,-2.955714e-003
2.005638e+003,-2.902562e-003
2.007566e+003,-2.870010e-003
2.009495e+003,-2.950185e-003
2.011423e+003,-3.030280e-003
2.013352e+003,-2.893083e-003
2.015280e+003,-2.760189e-003
2.017208e+003,-2.786922e-003
2.019137e+003,-2.819547e-003
2.021066e+003,-2.843808e-003
2.022994e+003,-2.810230e-003
2.024922e+003,-2.756830e-003
2.026851e+003,-2.733124e-003
2.028780e+003,-2.769243e-003
2.030708e+003,-2.735956e-003
2.032636e+003,-2.705630e-003
2.034565e+003,-2.745109e-003
2.036494e+003,-2.789589e-003
2.038422e+003,-2.768518e-003
2.040350e+003,-2.708001e-003
2.042279e+003,-2.656663e-003
2.044208e+003,-2.637430e-003
2.046136e+003,-2.595273e-003
2.048064e+003,-2.554035e-003
2.049993e+003,-2.571097e-003
2.051921e+003,-2.615430e-003
2.053850e+003,-2.664171e-003
2.055778e+003,-2.693183e-003
2.057707e+003,-2.605319e-003
2.059635e+003,-2.452008e-003
2.061564e+003,-2.455270e-003
2.063492e+003,-2.455303e-003
2.065421e+003,-2.482385e-003
2.067349e+003,-2.511441e-003
2.069278e+003,-2.533348e-003
2.071206e+003,-2.553080e-003
2.073135e+003,-2.485086e-003
2.075063e+003,-2.452437e-003
2.076992e+003,-2.494146e-003
2.078920e+003,-2.385614e-003
2.080849e+003,-2.332689e-003
2.082777e+003,-2.328767e-003
2.084706e+003,-2.266441e-003
2.086634e+003,-2.244258e-003
2.088563e+003,-2.199491e-003
2.090491e+003,-2.102328e-003
2.092420e+003,-2.037628e-003
2.094348e+003,-2.051677e-003
2.096277e+003,-2.001943e-003
2.098205e+003,-1.931752e-003
2.100134e+003,-1.888966e-003
2.102062e+003,-1.787971e-003
2.103991e+003,-1.805163e-003
2.105919e+003,-1.829448e-003
2.107848e+003,-1.748438e-003
2.109776e+003,-1.755302e-003
2.111705e+003,-1.715007e-003
2.113633e+003,-1.581322e-003
2.115562e+003,-1.540185e-003
2.117490e+003,-1.475633e-003
2.119419e+003,-1.392344e-003
2.121347e+003,-1.409155e-003
2.123276e+003,-1.384550e-003
2.125204e+003,-1.366119e-003
2.127133e+003,-1.349307e-003
2.129061e+003,-1.206456e-003
2.130990e+003,-1.139706e-003
2.132918e+003,-1.128932e-003
2.134847e+003,-1.126487e-003
2.136775e+003,-1.189472e-003
2.138704e+003,-1.196973e-003
2.140632e+003,-1.154180e-003
2.142561e+003,-1.156229e-003
2.144489e+003,-1.233682e-003
2.146418e+003,-1.211544e-003
2.148346e+003,-1.048255e-003
2.150275e+003,-9.615449e-004
2.152203e+003,-1.040355e-003
2.154132e+003,-1.129659e-003
2.156060e+003,-1.100477e-003
2.157989e+003,-1.122191e-003
2.159917e+003,-1.100246e-003
2.161846e+003,-1.094164e-003
2.163774e+003,-1.160261e-003
2.165703e+003,-1.161384e-003
2.167631e+003,-1.137062e-003
2.169560e+003,-1.041214e-003
2.171488e+003,-9.840587e-004
2.173417e+003,-1.041115e-003
2.175345e+003,-1.053047e-003
2.177274e+003,-1.078895e-003
2.179202e+003,-1.074267e-003
2.181131e+003,-1.003100e-003
2.183059e+003,-9.773807e-004
2.184988e+003,-1.014935e-003
2.186916e+003,-1.060352e-003
2.188845e+003,-1.085836e-003
2.190773e+003,-1.008389e-003
2.192702e+003,-9.150920e-004
2.194630e+003,-9.445513e-004
2.196559e+003,-1.019430e-003
2.198487e+003,-1.111813e-003
2.200416e+003,-1.050370e-003
2.202344e+003,-9.053380e-004
2.204273e+003,-8.915827e-004
2.206201e+003,-9.006097e-004
2.208130e+003,-9.579743e-004
2.210058e+003,-9.951664e-004
2.211987e+003,-9.891167e-004
2.213915e+003,-9.703720e-004
2.215844e+003,-9.870339e-004
2.217772e+003,-9.677933e-004
2.219701e+003,-8.804723e-004
2.221629e+003,-9.134388e-004
2.223558e+003,-9.394267e-004
2.225486e+003,-9.245483e-004
2.227415e+003,-9.369469e-004
2.229343e+003,-9.874637e-004
2.231272e+003,-9.627350e-004
2.233200e+003,-9.826702e-004
2.235129e+003,-9.716944e-004
2.237057e+003,-9.590984e-004
2.238986e+003,-9.758930e-004
2.240914e+003,-1.048089e-003
2.242843e+003,-1.088017e-003
2.244771e+003,-1.003431e-003
2.246700e+003,-9.837281e-004
2.248628e+003,-1.030141e-003
2.250557e+003,-1.061641e-003
2.252485e+003,-1.064616e-003
2.254414e+003,-1.103452e-003
2.256342e+003,-1.052651e-003
2.258271e+003,-1.046866e-003
2.260199e+003,-1.130816e-003
2.262128e+003,-1.239299e-003
2.264056e+003,-1.237283e-003
2.265985e+003,-1.232393e-003
2.267913e+003,-1.332593e-003
2.269842e+003,-1.287104e-003
2.271770e+003,-1.245246e-003
2.273699e+003,-1.287633e-003
2.275627e+003,-1.283437e-003
2.277556e+003,-1.295628e-003
2.279484e+003,-1.392807e-003
2.281413e+003,-1.441124e-003
2.283341e+003,-1.428013e-003
2.285270e+003,-1.479232e-003
2.287198e+003,-1.457933e-003
2.289127e+003,-1.479959e-003
2.291055e+003,-1.477284e-003
2.292984e+003,-1.459683e-003
2.294912e+003,-1.546525e-003
2.296841e+003,-1.557915e-003
2.298769e+003,-1.465990e-003
2.300698e+003,-1.462886e-003
2.302626e+003,-1.434552e-003
2.304555e+003,-1.346466e-003
2.306483e+003,-1.302400e-003
2.308412e+003,-1.255157e-003
2.310340e+003,-1.266258e-003
2.312269e+003,-1.242570e-003
2.314197e+003,-1.061906e-003
2.316125e+003,-8.667163e-004
2.318054e+003,-8.820595e-004
2.319983e+003,-8.733959e-004
2.321911e+003,-7.561559e-004
2.323840e+003,-6.743834e-004
2.325768e+003,-6.028198e-004
2.327697e+003,-5.339580e-004
2.329625e+003,-4.989108e-004
2.331553e+003,-5.724438e-004
2.333482e+003,-5.141015e-004
2.335411e+003,-3.392925e-004
2.337339e+003,-3.614744e-004
2.339268e+003,-4.039811e-004
2.341196e+003,-4.103699e-004
2.343125e+003,-4.155339e-004
2.345053e+003,-3.790205e-004
2.346981e+003,-4.630994e-004
2.348910e+003,-5.587111e-004
2.350839e+003,-4.419488e-004
2.352767e+003,-2.588322e-004
2.354696e+003,-8.915455e-005
2.356624e+003,8.208077e-005
2.358552e+003,2.193364e-004
2.360481e+003,2.389953e-004
2.362409e+003,1.445547e-004
2.364338e+003,3.287021e-005
2.366267e+003,1.000660e-005
2.368195e+003,-9.395797e-005
2.370124e+003,-1.992224e-004
2.372052e+003,-2.934353e-004
2.373980e+003,-4.094100e-004
2.375909e+003,-4.741212e-004
2.377838e+003,-4.871946e-004
2.379766e+003,-4.701825e-004
2.381695e+003,-5.069530e-004
2.383623e+003,-4.814688e-004
2.385552e+003,-2.882367e-004
2.387480e+003,-2.440299e-004
2.389408e+003,-2.725413e-004
2.391337e+003,-2.720115e-004
2.393266e+003,-2.147880e-004
2.395194e+003,-1.250630e-004
2.397123e+003,-4.479491e-005
2.399051e+003,-5.814635e-005
2.400979e+003,-1.208562e-004
2.402908e+003,-1.541453e-004
2.404836e+003,-6.927775e-005
2.406765e+003,-1.415587e-004
2.408694e+003,-2.196231e-004
2.410622e+003,-2.170400e-004
2.412551e+003,-1.566957e-004
2.414479e+003,-1.078710e-004
2.416407e+003,-5.347505e-005
2.418336e+003,-4.506206e-006
2.420264e+003,4.128697e-005
2.422193e+003,1.156201e-004
2.424122e+003,1.673260e-004
2.426050e+003,1.821097e-004
2.427979e+003,2.355143e-004
2.429907e+003,3.308037e-004
2.431835e+003,4.037271e-004
2.433764e+003,5.634120e-004
2.435692e+003,5.991452e-004
2.437621e+003,5.089056e-004
2.439550e+003,5.422456e-004
2.441478e+003,5.564781e-004
2.443406e+003,5.722041e-004
2.445335e+003,5.869684e-004
2.447263e+003,5.950973e-004
2.449192e+003,6.313639e-004
2.451121e+003,7.662376e-004
2.453049e+003,8.214734e-004
2.454978e+003,8.025185e-004
2.456906e+003,8.280132e-004
2.458834e+003,8.867432e-004
2.460763e+003,9.643427e-004
2.462691e+003,9.450162e-004
2.464620e+003,9.824412e-004
2.466549e+003,1.134599e-003
2.468477e+003,1.199151e-003
2.470406e+003,1.249823e-003
2.472334e+003,1.130812e-003
2.474262e+003,1.107558e-003
2.476191e+003,1.238725e-003
2.478119e+003,1.205730e-003
2.480048e+003,1.193935e-003
2.481977e+003,1.235269e-003
2.483905e+003,1.248926e-003
2.485833e+003,1.261321e-003
2.487762e+003,1.284151e-003
2.489690e+003,1.299338e-003
2.491619e+003,1.345768e-003
2.493547e+003,1.483157e-003
2.495476e+003,1.495559e-003
2.497405e+003,1.447584e-003
2.499333e+003,1.522591e-003
2.501261e+003,1.661001e-003
2.503190e+003,1.612309e-003
2.505118e+003,1.463708e-003
2.507047e+003,1.410884e-003
2.508975e+003,1.442830e-003
2.510904e+003,1.529706e-003
2.512833e+003,1.643905e-003
2.514761e+003,1.641411e-003
2.516689e+003,1.664227e-003
2.518618e+003,1.664926e-003
2.520546e+003,1.660169e-003
2.522475e+003,1.665990e-003
2.524403e+003,1.687444e-003
2.526332e+003,1.793999e-003
2.528260e+003,1.833493e-003
2.530189e+003,1.775900e-003
2.532117e+003,1.721906e-003
2.534046e+003,1.713623e-003
2.535974e+003,1.799988e-003
2.537903e+003,1.803581e-003
2.539831e+003,1.812232e-003
2.541760e+003,1.851162e-003
2.543688e+003,1.836388e-003
2.545617e+003,1.812831e-003
2.547545e+003,1.921013e-003
2.549474e+003,2.032652e-003
2.551402e+003,2.026726e-003
2.553331e+003,2.038078e-003
2.555259e+003,2.027126e-003
2.557188e+003,2.046567e-003
2.559116e+003,1.989711e-003
2.561045e+003,2.032019e-003
2.562973e+003,2.227772e-003
2.564902e+003,2.245124e-003
2.566830e+003,2.187775e-003
2.568759e+003,2.250586e-003
2.570687e+003,2.286658e-003
2.572616e+003,2.252618e-003
2.574544e+003,2.235532e-003
2.576473e+003,2.205292e-003
2.578401e+003,2.176986e-003
2.580330e+003,2.188308e-003
2.582258e+003,2.252485e-003
2.584187e+003,2.274401e-003
2.586115e+003,2.266507e-003
2.588044e+003,2.293054e-003
2.589972e+003,2.356413e-003
2.591901e+003,2.347085e-003
2.593829e+003,2.346752e-003
2.595758e+003,2.418149e-003
2.597686e+003,2.425612e-003
2.599615e+003,2.399424e-003
2.601543e+003,2.315205e-003
2.603472e+003,2.175920e-003
2.605400e+003,2.239962e-003
2.607329e+003,2.389062e-003
2.609257e+003,2.475528e-003
2.611186e+003,2.441273e-003
2.613114e+003,2.425812e-003
2.615043e+003,2.450036e-003
2.616971e+003,2.533648e-003
2.618900e+003,2.493590e-003
2.620828e+003,2.493989e-003
2.622757e+003,2.653812e-003
2.624685e+003,2.842908e-003
2.626614e+003,2.796585e-003
2.628542e+003,2.578543e-003
2.630471e+003,2.463998e-003
2.632399e+003,2.489824e-003
2.634328e+003,2.444138e-003
2.636256e+003,2.424413e-003
2.638185e+003,2.513318e-003
2.640113e+003,2.685850e-003
2.642042e+003,2.780411e-003
2.643970e+003,2.770141e-003
2.645899e+003,2.855882e-003
2.647827e+003,2.908782e-003
2.649756e+003,2.877795e-003
2.651684e+003,2.891003e-003
2.653613e+003,2.965859e-003
2.655541e+003,3.042563e-003
2.657470e+003,3.102261e-003
2.659398e+003,3.118013e-003
2.661327e+003,3.135767e-003
2.663255e+003,3.146213e-003
2.665184e+003,3.105598e-003
2.667112e+003,3.081738e-003
2.669041e+003,3.155458e-003
2.670969e+003,3.223150e-003
2.672898e+003,3.296427e-003
2.674826e+003,3.302904e-003
2.676755e+003,3.374591e-003
2.678683e+003,3.420575e-003
2.680612e+003,3.468067e-003
2.682540e+003,3.520107e-003
2.684469e+003,3.511522e-003
2.686397e+003,3.524650e-003
2.688326e+003,3.519806e-003
2.690254e+003,3.555984e-003
2.692183e+003,3.592933e-003
2.694111e+003,3.623002e-003
2.696040e+003,3.708277e-003
2.697968e+003,3.765025e-003
2.699897e+003,3.752792e-003
2.701825e+003,3.742499e-003
2.703754e+003,3.783575e-003
2.705682e+003,3.822449e-003
2.707611e+003,3.910237e-003
2.709539e+003,4.053457e-003
2.711468e+003,4.038206e-003
2.713396e+003,3.956411e-003
2.715325e+003,3.949189e-003
2.717253e+003,3.941800e-003
2.719182e+003,3.926386e-003
2.721110e+003,4.059243e-003
2.723039e+003,4.215929e-003
2.724967e+003,4.194383e-003
2.726896e+003,4.192810e-003
2.728824e+003,4.255845e-003
2.730753e+003,4.232289e-003
2.732681e+003,4.311895e-003
2.734610e+003,4.412200e-003
2.736538e+003,4.466830e-003
2.738467e+003,4.468772e-003
2.740395e+003,4.499706e-003
2.742324e+003,4.576045e-003
2.744252e+003,4.635116e-003
2.746181e+003,4.647909e-003
2.748109e+003,4.792009e-003
2.750038e+003,4.876274e-003
2.751966e+003,4.863173e-003
2.753895e+003,5.021623e-003
2.755823e+003,5.111767e-003
2.757752e+003,5.127658e-003
2.759680e+003,5.282013e-003
2.761609e+003,5.445885e-003
2.763537e+003,5.588840e-003
2.765466e+003,5.744601e-003
2.767394e+003,5.980061e-003
2.769323e+003,6.196826e-003
2.771251e+003,6.392986e-003
2.773180e+003,6.680982e-003
2.775108e+003,6.983614e-003
2.777037e+003,7.321804e-003
2.778965e+003,7.634629e-003
2.780894e+003,7.970255e-003
2.782822e+003,8.303878e-003
2.784750e+003,8.618999e-003
2.786679e+003,9.082993e-003
2.788608e+003,9.554695e-003
2.790536e+003,9.913471e-003
2.792465e+003,1.031461e-002
2.794393e+003,1.065667e-002
2.796322e+003,1.087303e-002
2.798250e+003,1.114045e-002
2.800178e+003,1.151857e-002
2.802107e+003,1.193247e-002
2.804036e+003,1.215175e-002
2.805964e+003,1.230447e-002
2.807893e+003,1.238792e-002
2.809821e+003,1.226687e-002
2.811750e+003,1.220675e-002
2.813678e+003,1.224939e-002
2.815606e+003,1.219503e-002
2.817535e+003,1.209104e-002
2.819464e+003,1.195522e-002
2.821392e+003,1.183014e-002
2.823321e+003,1.156655e-002
2.825249e+003,1.127438e-002
2.827177e+003,1.109772e-002
2.829106e+003,1.092114e-002
2.831034e+003,1.054662e-002
2.832963e+003,1.016989e-002
2.834892e+003,9.800364e-003
2.836820e+003,9.378128e-003
2.838749e+003,9.029301e-003
2.840677e+003,8.589123e-003
2.842605e+003,8.079510e-003
2.844534e+003,7.613755e-003
2.846462e+003,7.126033e-003
2.848391e+003,6.636839e-003
2.850320e+003,6.375804e-003
2.852248e+003,6.234572e-003
2.854177e+003,6.106693e-003
2.856105e+003,5.991080e-003
2.858033e+003,5.889033e-003
2.859962e+003,5.959334e-003
2.861890e+003,5.993398e-003
2.863819e+003,5.990273e-003
2.865748e+003,6.048127e-003
2.867676e+003,6.159252e-003
2.869604e+003,6.139390e-003
2.871533e+003,6.073931e-003
2.873461e+003,6.144767e-003
2.875390e+003,6.240623e-003
2.877319e+003,6.331624e-003
2.879247e+003,6.496094e-003
2.881176e+003,6.654031e-003
2.883104e+003,6.630682e-003
2.885032e+003,6.470802e-003
2.886961e+003,6.447799e-003
2.888889e+003,6.457686e-003
2.890818e+003,6.322782e-003
2.892747e+003,6.168595e-003
2.894675e+003,6.111599e-003
2.896604e+003,6.050949e-003
2.898532e+003,5.923393e-003
2.900460e+003,5.791508e-003
2.902389e+003,5.713612e-003
2.904317e+003,5.640430e-003
2.906246e+003,5.497625e-003
2.908175e+003,5.476888e-003
2.910103e+003,5.336753e-003
2.912031e+003,5.056116e-003
2.913960e+003,4.907371e-003
2.915888e+003,4.792244e-003
2.917817e+003,4.791675e-003
2.919745e+003,4.786046e-003
2.921674e+003,4.810871e-003
2.923603e+003,4.784271e-003
2.925531e+003,4.800887e-003
2.927459e+003,4.985122e-003
2.929388e+003,5.132520e-003
2.931316e+003,5.255149e-003
2.933245e+003,5.411562e-003
2.935173e+003,5.548197e-003
2.937102e+003,5.580214e-003
2.939031e+003,5.585584e-003
2.940959e+003,5.600084e-003
2.942887e+003,5.460480e-003
2.944816e+003,5.325382e-003
2.946744e+003,5.238213e-003
2.948673e+003,5.077236e-003
2.950601e+003,4.725380e-003
2.952530e+003,4.343319e-003
2.954458e+003,4.017639e-003
2.956387e+003,3.738856e-003
2.958315e+003,3.353121e-003
2.960244e+003,2.998788e-003
2.962172e+003,2.748233e-003
2.964101e+003,2.521717e-003
2.966029e+003,2.190007e-003
2.967958e+003,1.819319e-003
2.969886e+003,1.611910e-003
2.971815e+003,1.416834e-003
2.973743e+003,1.283519e-003
2.975672e+003,1.111378e-003
2.977600e+003,9.325973e-004
2.979529e+003,9.620513e-004
2.981457e+003,8.224362e-004
2.983386e+003,6.633196e-004
2.985314e+003,4.731798e-004
2.987243e+003,3.793847e-004
2.989171e+003,3.228124e-004
2.991100e+003,2.976125e-004
2.993028e+003,1.141949e-004
2.994957e+003,4.307446e-006
2.996885e+003,1.138303e-004
2.998814e+003,1.379258e-004
3.000742e+003,5.168941e-006
3.002671e+003,-7.298816e-005
3.004599e+003,-6.689248e-005
3.006528e+003,-5.357444e-005
3.008456e+003,-7.567155e-005
3.010385e+003,-1.071423e-004
3.012313e+003,-9.044651e-005
3.014242e+003,-1.667316e-004
3.016170e+003,-1.986925e-004
3.018099e+003,-8.643811e-005
3.020027e+003,5.010156e-005
3.021956e+003,-5.741750e-005
3.023884e+003,-2.622430e-004
3.025813e+003,-3.665397e-004
3.027741e+003,-3.929244e-004
3.029670e+003,-3.363790e-004
3.031598e+003,-2.385658e-004
3.033527e+003,-2.838328e-004
3.035455e+003,-3.256186e-004
3.037384e+003,-3.174406e-004
3.039312e+003,-4.195724e-004
3.041241e+003,-5.708886e-004
3.043169e+003,-5.963013e-004
3.045098e+003,-4.880882e-004
3.047026e+003,-4.751141e-004
3.048955e+003,-5.980551e-004
3.050883e+003,-6.832164e-004
3.052812e+003,-6.814961e-004
3.054740e+003,-7.290986e-004
3.056669e+003,-7.298925e-004
3.058597e+003,-7.380628e-004
3.060526e+003,-7.409074e-004
3.062454e+003,-7.443144e-004
3.064383e+003,-8.483301e-004
3.066311e+003,-9.177702e-004
3.068240e+003,-8.861929e-004
3.070168e+003,-9.154557e-004
3.072097e+003,-9.478906e-004
3.074025e+003,-8.782899e-004
3.075954e+003,-8.525630e-004
3.077882e+003,-9.982077e-004
3.079811e+003,-1.079721e-003
3.081739e+003,-1.000885e-003
3.083668e+003,-9.121493e-004
3.085596e+003,-1.046899e-003
3.087525e+003,-1.184879e-003
3.089453e+003,-1.136137e-003
3.091382e+003,-1.132898e-003
3.093310e+003,-1.119381e-003
3.095239e+003,-1.090760e-003
3.097167e+003,-1.166143e-003
3.099096e+003,-1.293447e-003
3.101024e+003,-1.271875e-003
3.102953e+003,-1.278680e-003
3.104881e+003,-1.321526e-003
3.106810e+003,-1.261402e-003
3.108738e+003,-1.148232e-003
3.110667e+003,-1.307850e-003
3.112595e+003,-1.425206e-003
3.114524e+003,-1.341049e-003
3.116452e+003,-1.303060e-003
3.118381e+003,-1.406018e-003
3.120309e+003,-1.598324e-003
3.122238e+003,-1.633118e-003
3.124166e+003,-1.554679e-003
3.126095e+003,-1.501488e-003
3.128023e+003,-1.507531e-003
3.129952e+003,-1.408759e-003
3.131880e+003,-1.403706e-003
3.133809e+003,-1.477581e-003
3.135737e+003,-1.528993e-003
3.137666e+003,-1.505979e-003
3.139594e+003,-1.424644e-003
3.141523e+003,-1.358390e-003
3.143451e+003,-1.419658e-003
3.145380e+003,-1.417082e-003
3.147308e+003,-1.375896e-003
3.149237e+003,-1.563891e-003
3.151165e+003,-1.697284e-003
3.153094e+003,-1.689395e-003
3.155022e+003,-1.636286e-003
3.156951e+003,-1.541374e-003
3.158879e+003,-1.472133e-003
3.160808e+003,-1.397959e-003
3.162736e+003,-1.494884e-003
3.164665e+003,-1.500927e-003
3.166593e+003,-1.482435e-003
3.168522e+003,-1.500398e-003
3.170450e+003,-1.448455e-003
3.172379e+003,-1.347094e-003
3.174307e+003,-1.273262e-003
3.176236e+003,-1.298105e-003
3.178164e+003,-1.461962e-003
3.180093e+003,-1.456480e-003
3.182021e+003,-1.439968e-003
3.183950e+003,-1.458692e-003
3.185878e+003,-1.534308e-003
3.187807e+003,-1.482534e-003
3.189735e+003,-1.426758e-003
3.191664e+003,-1.542893e-003
3.193592e+003,-1.624766e-003
3.195521e+003,-1.647345e-003
3.197449e+003,-1.534308e-003
3.199378e+003,-1.411797e-003
3.201306e+003,-1.469061e-003
3.203235e+003,-1.640149e-003
3.205163e+003,-1.637508e-003
3.207092e+003,-1.660614e-003
3.209020e+003,-1.556825e-003
3.210948e+003,-1.429565e-003
3.212877e+003,-1.333782e-003
3.214806e+003,-1.240852e-003
3.216734e+003,-1.365393e-003
3.218663e+003,-1.449149e-003
3.220591e+003,-1.469425e-003
3.222520e+003,-1.299922e-003
3.224448e+003,-1.153288e-003
3.226376e+003,-9.767195e-004
3.228305e+003,-8.611608e-004
3.230234e+003,-8.697254e-004
3.232162e+003,-7.674018e-004
3.234091e+003,-7.486476e-004
3.236019e+003,-7.139153e-004
3.237948e+003,-5.915035e-004
3.239876e+003,-5.213824e-004
3.241804e+003,-5.255853e-004
3.243733e+003,-5.958381e-004
3.245662e+003,-4.897431e-004
3.247590e+003,-4.709768e-004
3.249519e+003,-3.900444e-004
3.251447e+003,-2.333335e-004
3.253375e+003,-1.761048e-004
3.255304e+003,-1.704081e-004
3.257232e+003,-7.878560e-005
3.259161e+003,8.349858e-006
3.261090e+003,6.107033e-005
3.263018e+003,1.177412e-004
3.264947e+003,-1.925045e-005
3.266875e+003,-8.027636e-005
3.268803e+003,3.628329e-005
3.270732e+003,1.577798e-004
3.272660e+003,2.824601e-004
3.274589e+003,2.060763e-004
3.276518e+003,1.204921e-004
3.278446e+003,1.329873e-004
3.280375e+003,1.676575e-004
3.282303e+003,2.231157e-004
3.284231e+003,2.296796e-004
3.286160e+003,2.524885e-004
3.288088e+003,1.376606e-004
3.290017e+003,3.094830e-005
3.291946e+003,-7.521362e-006
3.293874e+003,-1.372195e-004
3.295802e+003,-2.305848e-004
3.297731e+003,-1.892204e-004
3.299659e+003,-2.321413e-004
3.301588e+003,-3.564422e-004
3.303516e+003,-4.346667e-004
3.305445e+003,-5.172456e-004
3.307374e+003,-5.883931e-004
3.309302e+003,-6.920160e-004
3.311230e+003,-7.720985e-004
3.313159e+003,-1.011133e-003
3.315087e+003,-1.162904e-003
3.317016e+003,-1.180749e-003
3.318944e+003,-1.297015e-003
3.320873e+003,-1.307454e-003
3.322802e+003,-1.361958e-003
3.324730e+003,-1.596178e-003
3.326658e+003,-1.727416e-003
3.328587e+003,-1.711607e-003
3.330515e+003,-1.654672e-003
3.332444e+003,-1.653385e-003
3.334372e+003,-1.801599e-003
3.336301e+003,-1.857591e-003
3.338229e+003,-1.888603e-003
3.340158e+003,-1.897445e-003
3.342086e+003,-1.907638e-003
3.344015e+003,-1.893684e-003
3.345943e+003,-1.917436e-003
3.347872e+003,-2.129234e-003
3.349800e+003,-2.201041e-003
3.351729e+003,-2.127057e-003
3.353657e+003,-2.316309e-003
3.355586e+003,-2.417083e-003
3.357514e+003,-2.452338e-003
3.359443e+003,-2.513122e-003
3.361371e+003,-2.497276e-003
3.363300e+003,-2.512364e-003
3.365229e+003,-2.702699e-003
3.367157e+003,-2.782807e-003
3.369085e+003,-2.914839e-003
3.371014e+003,-3.041796e-003
3.372942e+003,-2.966409e-003
3.374871e+003,-2.952522e-003
3.376799e+003,-3.005799e-003
3.378728e+003,-3.285011e-003
3.380656e+003,-3.516685e-003
3.382585e+003,-3.590104e-003
3.384513e+003,-3.687132e-003
3.386442e+003,-3.688315e-003
3.388370e+003,-3.588165e-003
3.390299e+003,-3.721792e-003
3.392227e+003,-3.732567e-003
3.394156e+003,-3.588723e-003
3.396084e+003,-3.689695e-003
3.398013e+003,-3.692619e-003
3.399941e+003,-3.671691e-003
3.401870e+003,-3.841715e-003
3.403798e+003,-3.909037e-003
3.405727e+003,-3.943974e-003
3.407655e+003,-3.895507e-003
3.409584e+003,-3.761244e-003
3.411512e+003,-3.772084e-003
3.413441e+003,-3.946108e-003
3.415369e+003,-3.993289e-003
3.417298e+003,-3.974706e-003
3.419226e+003,-4.055203e-003
3.421155e+003,-4.079297e-003
3.423083e+003,-3.983899e-003
3.425012e+003,-4.059864e-003
3.426940e+003,-4.346502e-003
3.428869e+003,-4.448314e-003
3.430797e+003,-4.198367e-003
3.432726e+003,-4.071255e-003
3.434654e+003,-4.193083e-003
3.436583e+003,-4.399740e-003
3.438511e+003,-4.315108e-003
3.440440e+003,-4.243945e-003
3.442368e+003,-4.295751e-003
3.444297e+003,-4.349258e-003
3.446225e+003,-4.359132e-003
3.448154e+003,-4.431621e-003
3.450082e+003,-4.520920e-003
3.452011e+003,-4.527838e-003
3.453939e+003,-4.499671e-003
3.455868e+003,-4.641016e-003
3.457796e+003,-4.640557e-003
3.459725e+003,-4.542496e-003
3.461653e+003,-4.452381e-003
3.463582e+003,-4.468713e-003
3.465510e+003,-4.579939e-003
3.467439e+003,-4.678189e-003
3.469367e+003,-4.641737e-003
3.471296e+003,-4.644425e-003
3.473224e+003,-4.737089e-003
3.475153e+003,-4.785167e-003
3.477081e+003,-4.706476e-003
3.479010e+003,-4.652785e-003
3.480938e+003,-4.713425e-003
3.482867e+003,-4.743021e-003
3.484795e+003,-4.413975e-003
3.486724e+003,-4.375533e-003
3.488652e+003,-4.547774e-003
3.490581e+003,-4.670879e-003
3.492509e+003,-4.786248e-003
3.494438e+003,-4.639672e-003
3.496366e+003,-4.338170e-003
3.498295e+003,-4.470255e-003
3.500223e+003,-4.652523e-003
3.502152e+003,-4.638000e-003
3.504080e+003,-4.676189e-003
3.506009e+003,-4.735614e-003
3.507937e+003,-4.612364e-003
3.509866e+003,-4.550955e-003
3.511794e+003,-4.606233e-003
3.513723e+003,-4.699298e-003
3.515651e+003,-4.907877e-003
3.517580e+003,-4.860992e-003
3.519508e+003,-4.758687e-003
3.521437e+003,-4.785593e-003
3.523365e+003,-4.844249e-003
3.525294e+003,-4.809580e-003
3.527222e+003,-4.691563e-003
3.529151e+003,-4.581742e-003
3.531079e+003,-4.617970e-003
3.533008e+003,-4.680385e-003
3.534936e+003,-4.816724e-003
3.536865e+003,-4.930023e-003
3.538793e+003,-4.816101e-003
3.540722e+003,-4.630723e-003
3.542650e+003,-4.490324e-003
3.544579e+003,-4.464581e-003
3.546507e+003,-4.566267e-003
3.548436e+003,-4.762062e-003
3.550364e+003,-4.839662e-003
3.552293e+003,-4.741940e-003
3.554221e+003,-4.598955e-003
3.556150e+003,-4.594889e-003
3.558078e+003,-4.617740e-003
3.560007e+003,-4.630460e-003
3.561935e+003,-4.545610e-003
3.563864e+003,-4.628920e-003
3.565792e+003,-4.793097e-003
3.567721e+003,-4.807024e-003
3.569649e+003,-4.742005e-003
3.571578e+003,-4.816364e-003
3.573506e+003,-4.792409e-003
3.575435e+003,-4.415123e-003
3.577363e+003,-4.238104e-003
3.579292e+003,-4.388555e-003
3.581220e+003,-4.582366e-003
3.583149e+003,-4.781038e-003
3.585077e+003,-4.733090e-003
3.587006e+003,-4.838679e-003
3.588934e+003,-4.786805e-003
3.590863e+003,-4.592857e-003
3.592791e+003,-4.587119e-003
3.594720e+003,-4.624920e-003
3.596648e+003,-4.481109e-003
3.598577e+003,-4.354015e-003
3.600505e+003,-4.405677e-003
3.602434e+003,-4.446117e-003
3.604362e+003,-4.330854e-003
3.606291e+003,-4.370383e-003
3.608219e+003,-4.572825e-003
3.610148e+003,-4.696840e-003
3.612076e+003,-4.778154e-003
3.614005e+003,-4.617740e-003
3.615933e+003,-4.499014e-003
3.617862e+003,-4.451397e-003
3.619790e+003,-4.291191e-003
3.621719e+003,-4.356015e-003
3.623647e+003,-4.439820e-003
3.625576e+003,-4.515607e-003
3.627504e+003,-4.640688e-003
3.629433e+003,-4.559677e-003
3.631361e+003,-4.478158e-003
3.633290e+003,-4.568005e-003
3.635218e+003,-4.511148e-003
3.637146e+003,-4.481667e-003
3.639075e+003,-4.438114e-003
3.641004e+003,-4.263533e-003
3.642932e+003,-4.333020e-003
3.644861e+003,-4.677107e-003
3.646789e+003,-4.920490e-003
3.648718e+003,-5.117108e-003
3.650646e+003,-4.965534e-003
3.652574e+003,-4.634591e-003
3.654503e+003,-4.640918e-003
3.656432e+003,-4.693300e-003
3.658360e+003,-4.695594e-003
3.660289e+003,-4.634197e-003
3.662217e+003,-4.655145e-003
3.664146e+003,-4.779858e-003
3.666074e+003,-4.989085e-003
3.668002e+003,-5.398893e-003
3.669931e+003,-5.573837e-003
3.671860e+003,-5.434627e-003
3.673788e+003,-5.654529e-003
3.675717e+003,-5.604814e-003
3.677645e+003,-5.098443e-003
3.679573e+003,-5.052168e-003
3.681502e+003,-4.838515e-003
3.683430e+003,-4.689760e-003
3.685359e+003,-4.856995e-003
3.687288e+003,-5.146971e-003
3.689216e+003,-5.045716e-003
3.691145e+003,-4.910694e-003
3.693073e+003,-4.775073e-003
3.695001e+003,-4.846804e-003
3.696930e+003,-4.865448e-003
3.698858e+003,-4.832289e-003
3.700787e+003,-4.751018e-003
3.702716e+003,-4.582038e-003
3.704644e+003,-4.532822e-003
3.706573e+003,-4.647409e-003
3.708501e+003,-4.923307e-003
3.710429e+003,-5.119498e-003
3.712358e+003,-4.843855e-003
3.714286e+003,-4.631575e-003
3.716215e+003,-4.744103e-003
3.718144e+003,-4.647146e-003
3.720072e+003,-4.589775e-003
3.722000e+003,-4.700052e-003
3.723929e+003,-4.756131e-003
3.725857e+003,-4.567513e-003
3.727786e+003,-4.302772e-003
3.729714e+003,-4.583939e-003
3.731643e+003,-4.953052e-003
3.733572e+003,-5.093006e-003
3.735500e+003,-4.973198e-003
3.737428e+003,-4.721226e-003
3.739357e+003,-4.631575e-003
3.741285e+003,-4.491767e-003
3.743214e+003,-4.610430e-003
3.745142e+003,-4.444838e-003
3.747071e+003,-4.474059e-003
3.749000e+003,-4.527117e-003
3.750928e+003,-4.285581e-003
3.752856e+003,-4.009145e-003
3.754785e+003,-3.907822e-003
3.756713e+003,-3.889400e-003
3.758642e+003,-3.918132e-003
3.760570e+003,-3.949030e-003
3.762499e+003,-3.990268e-003
3.764427e+003,-3.911302e-003
3.766356e+003,-3.859548e-003
3.768284e+003,-3.890122e-003
3.770213e+003,-3.860862e-003
3.772141e+003,-3.892880e-003
3.774070e+003,-3.729742e-003
3.775998e+003,-3.633446e-003
3.777927e+003,-3.942562e-003
3.779855e+003,-4.044830e-003
3.781784e+003,-3.723237e-003
3.783712e+003,-3.488288e-003
3.785641e+003,-3.466133e-003
3.787569e+003,-3.689070e-003
3.789498e+003,-3.806540e-003
3.791426e+003,-3.891206e-003
3.793355e+003,-3.958552e-003
3.795283e+003,-3.929559e-003
3.797212e+003,-3.722284e-003
3.799140e+003,-3.988003e-003
3.801069e+003,-4.238728e-003
3.802997e+003,-3.963904e-003
3.804926e+003,-4.088651e-003
3.806854e+003,-4.003039e-003
3.808783e+003,-3.847791e-003
3.810711e+003,-3.702737e-003
3.812640e+003,-3.681383e-003
3.814568e+003,-3.891698e-003
3.816497e+003,-3.713612e-003
3.818425e+003,-3.655526e-003
3.820354e+003,-3.507647e-003
3.822282e+003,-3.167466e-003
3.824211e+003,-3.316382e-003
3.826139e+003,-3.640116e-003
3.828068e+003,-3.650006e-003
3.829996e+003,-3.532790e-003
3.831925e+003,-3.441578e-003
3.833853e+003,-3.467152e-003
3.835782e+003,-3.485954e-003
3.837710e+003,-3.500087e-003
3.839639e+003,-3.620598e-003
3.841567e+003,-3.582611e-003
3.843496e+003,-3.616293e-003
3.845424e+003,-3.563551e-003
3.847353e+003,-3.559805e-003
3.849281e+003,-3.567988e-003
3.851210e+003,-3.606698e-003
3.853138e+003,-3.638506e-003
3.855067e+003,-3.343048e-003
3.856995e+003,-3.311055e-003
3.858924e+003,-3.406107e-003
3.860852e+003,-3.479742e-003
3.862781e+003,-3.450881e-003
3.864709e+003,-3.263899e-003
3.866638e+003,-3.141579e-003
3.868566e+003,-3.329501e-003
3.870495e+003,-3.304215e-003
3.872423e+003,-3.280342e-003
3.874352e+003,-3.202727e-003
3.876280e+003,-3.239365e-003
3.878209e+003,-3.423399e-003
3.880137e+003,-3.441480e-003
3.882066e+003,-3.391642e-003
3.883994e+003,-3.558819e-003
3.885923e+003,-3.275968e-003
3.887851e+003,-3.239168e-003
3.889780e+003,-3.392891e-003
3.891708e+003,-3.436351e-003
3.893637e+003,-3.349328e-003
3.895565e+003,-3.301387e-003
3.897494e+003,-3.388026e-003
3.899422e+003,-3.266957e-003
3.901351e+003,-3.284649e-003
3.903279e+003,-3.410973e-003
3.905208e+003,-3.145526e-003
3.907136e+003,-3.043277e-003
3.909065e+003,-3.020244e-003
3.910993e+003,-3.206180e-003
3.912922e+003,-3.301091e-003
3.914850e+003,-3.251764e-003
3.916779e+003,-3.207266e-003
3.918707e+003,-3.151118e-003
3.920636e+003,-3.204569e-003
3.922564e+003,-3.401373e-003
3.924493e+003,-3.341010e-003
3.926421e+003,-3.133651e-003
3.928350e+003,-3.145066e-003
3.930278e+003,-3.149145e-003
3.932207e+003,-3.018303e-003
3.934135e+003,-2.781358e-003
3.936064e+003,-2.592177e-003
3.937992e+003,-2.716200e-003
3.939921e+003,-3.137105e-003
3.941849e+003,-3.145493e-003
3.943778e+003,-2.803910e-003
3.945706e+003,-2.955484e-003
3.947635e+003,-3.147335e-003
3.949563e+003,-3.033932e-003
3.951492e+003,-2.980099e-003
3.953420e+003,-3.011294e-003
3.955349e+003,-2.908882e-003
3.957277e+003,-2.873762e-003
3.959206e+003,-2.940707e-003
3.961134e+003,-3.071671e-003
3.963063e+003,-3.124769e-003
3.964991e+003,-3.319374e-003
3.966920e+003,-3.301650e-003
3.968848e+003,-3.074862e-003
3.970777e+003,-2.957886e-003
3.972705e+003,-2.924054e-003
3.974634e+003,-2.970128e-003
3.976562e+003,-2.928793e-003
3.978491e+003,-2.801243e-003
3.980419e+003,-2.679649e-003
3.982348e+003,-2.899765e-003
3.984276e+003,-3.013630e-003
3.986205e+003,-3.053509e-003
3.988133e+003,-2.904142e-003
3.990062e+003,-2.835743e-003
3.991990e+003,-2.901278e-003
3.993919e+003,-2.882945e-003
3.995847e+003,-2.947026e-003
3.997776e+003,-3.164276e-003
3.999704e+003,-3.128453e-003
4.001633e+003,0.000000e+000
