3.991989e+002,-3.561610e-002
4.011274e+002,-4.332063e-002
4.030559e+002,-4.723005e-002
4.049844e+002,-4.437159e-002
4.069129e+002,-3.736004e-002
4.088414e+002,-3.274392e-002
4.107699e+002,-3.968086e-002
4.126984e+002,-4.301440e-002
4.146269e+002,-3.835827e-002
4.165554e+002,-3.094755e-002
4.184839e+002,-2.600702e-002
4.204124e+002,-1.921277e-002
4.223409e+002,-1.740024e-002
4.242694e+002,-1.753325e-002
4.261979e+002,-2.377024e-002
4.281264e+002,-1.986403e-002
4.300549e+002,-1.628942e-002
4.319834e+002,-1.866927e-002
4.339119e+002,-1.845085e-002
4.358404e+002,-1.588740e-002
4.377689e+002,-1.552910e-002
4.396974e+002,-2.096841e-002
4.416259e+002,-2.922526e-002
4.435544e+002,-2.726504e-002
4.454829e+002,-2.382262e-002
4.474114e+002,-2.042155e-002
4.493399e+002,-1.931077e-002
4.512684e+002,-1.966071e-002
4.531969e+002,-2.022450e-002
4.551254e+002,-2.032813e-002
4.570539e+002,-1.990724e-002
4.589824e+002,-2.074643e-002
4.609109e+002,-2.114758e-002
4.628394e+002,-1.965422e-002
4.647679e+002,-2.047943e-002
4.666964e+002,-2.069036e-002
4.686249e+002,-2.027175e-002
4.705533e+002,-1.946965e-002
4.724819e+002,-1.942517e-002
4.744103e+002,-1.844107e-002
4.763389e+002,-1.606896e-002
4.782673e+002,-1.705265e-002
4.801959e+002,-2.126367e-002
4.821243e+002,-1.990195e-002
4.840529e+002,-1.948723e-002
4.859813e+002,-1.988692e-002
4.879099e+002,-1.782630e-002
4.898383e+002,-1.624671e-002
4.917668e+002,-1.917364e-002
4.936953e+002,-2.258418e-002
4.956238e+002,-2.166891e-002
4.975523e+002,-2.018256e-002
4.994808e+002,-2.445276e-002
5.014093e+002,-2.316401e-002
5.033378e+002,-1.896657e-002
5.052663e+002,-1.738069e-002
5.071948e+002,-1.819285e-002
5.091233e+002,-2.073102e-002
5.110518e+002,-2.112375e-002
5.129803e+002,-2.103108e-002
5.149088e+002,-2.209298e-002
5.168373e+002,-2.254728e-002
5.187658e+002,-2.230533e-002
5.206943e+002,-2.263790e-002
5.226228e+002,-2.221622e-002
5.245513e+002,-2.058499e-002
5.264798e+002,-2.055949e-002
5.284083e+002,-2.094757e-002
5.303368e+002,-2.078083e-002
5.322653e+002,-2.102922e-002
5.341938e+002,-2.058356e-002
5.361223e+002,-2.124966e-002
5.380508e+002,-2.187104e-002
5.399792e+002,-2.146791e-002
5.419078e+002,-2.083197e-002
5.438363e+002,-2.033919e-002
5.457648e+002,-2.014157e-002
5.476932e+002,-1.967208e-002
5.496218e+002,-1.955708e-002
5.515503e+002,-1.965783e-002
5.534788e+002,-1.984729e-002
5.554072e+002,-1.976881e-002
5.573358e+002,-2.012531e-002
5.592643e+002,-1.985374e-002
5.611927e+002,-1.933635e-002
5.631212e+002,-1.881030e-002
5.650497e+002,-1.923971e-002
5.669783e+002,-1.941737e-002
5.689067e+002,-1.921159e-002
5.708352e+002,-1.944120e-002
5.727637e+002,-1.965026e-002
5.746923e+002,-1.966179e-002
5.766207e+002,-2.097267e-002
5.785492e+002,-2.170424e-002
5.804777e+002,-2.284524e-002
5.824063e+002,-2.118598e-002
5.843347e+002,-1.926196e-002
5.862632e+002,-2.035447e-002
5.881917e+002,-2.051429e-002
5.901202e+002,-1.899433e-002
5.920487e+002,-1.783708e-002
5.939772e+002,-1.881630e-002
5.959057e+002,-1.975757e-002
5.978342e+002,-1.812053e-002
5.997627e+002,-1.681164e-002
6.016912e+002,-1.660136e-002
6.036197e+002,-1.590557e-002
6.055482e+002,-1.420136e-002
6.074767e+002,-1.331994e-002
6.094052e+002,-1.316558e-002
6.113337e+002,-1.457553e-002
6.132622e+002,-1.442991e-002
6.151907e+002,-1.419193e-002
6.171192e+002,-1.520518e-002
6.190477e+002,-1.535681e-002
6.209762e+002,-1.422926e-002
6.229047e+002,-1.456406e-002
6.248332e+002,-1.690636e-002
6.267617e+002,-1.963458e-002
6.286902e+002,-2.004587e-002
6.306187e+002,-1.862204e-002
6.325472e+002,-1.779717e-002
6.344756e+002,-1.776912e-002
6.364042e+002,-1.796729e-002
6.383326e+002,-1.831615e-002
6.402612e+002,-1.878625e-002
6.421896e+002,-1.853461e-002
6.441182e+002,-1.830471e-002
6.460466e+002,-1.853233e-002
6.479752e+002,-1.839712e-002
6.499036e+002,-1.832492e-002
6.518322e+002,-1.810775e-002
6.537606e+002,-1.802918e-002
6.556891e+002,-1.870241e-002
6.576177e+002,-1.904903e-002
6.595461e+002,-1.888197e-002
6.614746e+002,-1.919834e-002
6.634031e+002,-1.975580e-002
6.653317e+002,-1.926028e-002
6.672601e+002,-1.807950e-002
6.691886e+002,-1.826688e-002
6.711171e+002,-1.875972e-002
6.730457e+002,-1.868959e-002
6.749741e+002,-1.856849e-002
6.769026e+002,-1.818990e-002
6.788311e+002,-1.808407e-002
6.807596e+002,-1.783559e-002
6.826881e+002,-1.733144e-002
6.846166e+002,-1.723971e-002
6.865451e+002,-1.728508e-002
6.884736e+002,-1.711833e-002
6.904021e+002,-1.709043e-002
6.923306e+002,-1.664441e-002
6.942591e+002,-1.622367e-002
6.961876e+002,-1.643725e-002
6.981161e+002,-1.614559e-002
7.000446e+002,-1.562199e-002
7.019731e+002,-1.547078e-002
7.039016e+002,-1.502130e-002
7.058301e+002,-1.523791e-002
7.077585e+002,-1.596971e-002
7.096871e+002,-1.619092e-002
7.116156e+002,-1.544456e-002
7.135441e+002,-1.543311e-002
7.154725e+002,-1.649362e-002
7.174011e+002,-1.703175e-002
7.193296e+002,-1.685352e-002
7.212581e+002,-1.673567e-002
7.231865e+002,-1.651206e-002
7.251151e+002,-1.635930e-002
7.270436e+002,-1.668925e-002
7.289720e+002,-1.678999e-002
7.309005e+002,-1.646481e-002
7.328290e+002,-1.645314e-002
7.347576e+002,-1.644283e-002
7.366860e+002,-1.591567e-002
7.386145e+002,-1.551819e-002
7.405430e+002,-1.553249e-002
7.424716e+002,-1.577977e-002
7.444000e+002,-1.588839e-002
7.463285e+002,-1.560476e-002
7.482570e+002,-1.544955e-002
7.501855e+002,-1.525877e-002
7.521140e+002,-1.474832e-002
7.540425e+002,-1.422996e-002
7.559710e+002,-1.398690e-002
7.578995e+002,-1.397150e-002
7.598280e+002,-1.425645e-002
7.617565e+002,-1.447639e-002
7.636850e+002,-1.435379e-002
7.656135e+002,-1.350868e-002
7.675420e+002,-1.305917e-002
7.694705e+002,-1.318599e-002
7.713990e+002,-1.335092e-002
7.733275e+002,-1.344675e-002
7.752560e+002,-1.370665e-002
7.771844e+002,-1.423602e-002
7.791130e+002,-1.429829e-002
7.810415e+002,-1.409777e-002
7.829700e+002,-1.377532e-002
7.848984e+002,-1.372001e-002
7.868270e+002,-1.411348e-002
7.887555e+002,-1.463294e-002
7.906840e+002,-1.515482e-002
7.926124e+002,-1.545879e-002
7.945410e+002,-1.538281e-002
7.964695e+002,-1.543206e-002
7.983979e+002,-1.561199e-002
8.003264e+002,-1.551746e-002
8.022549e+002,-1.562918e-002
8.041835e+002,-1.550176e-002
8.061119e+002,-1.541194e-002
8.080404e+002,-1.495175e-002
8.099689e+002,-1.484228e-002
8.118975e+002,-1.507901e-002
8.138259e+002,-1.480690e-002
8.157545e+002,-1.467760e-002
8.176830e+002,-1.493462e-002
8.196115e+002,-1.517952e-002
8.215399e+002,-1.537529e-002
8.234684e+002,-1.515882e-002
8.253970e+002,-1.522927e-002
8.273254e+002,-1.536144e-002
8.292539e+002,-1.522406e-002
8.311824e+002,-1.527719e-002
8.331110e+002,-1.504598e-002
8.350394e+002,-1.474435e-002
8.369679e+002,-1.439591e-002
8.388964e+002,-1.461904e-002
8.408250e+002,-1.517402e-002
8.427534e+002,-1.514759e-002
8.446819e+002,-1.477164e-002
8.466104e+002,-1.489927e-002
8.485389e+002,-1.505997e-002
8.504674e+002,-1.531638e-002
8.523959e+002,-1.530729e-002
8.543244e+002,-1.516461e-002
8.562529e+002,-1.546026e-002
8.581814e+002,-1.571947e-002
8.601099e+002,-1.541664e-002
8.620384e+002,-1.581731e-002
8.639669e+002,-1.660155e-002
8.658954e+002,-1.641211e-002
8.678239e+002,-1.595080e-002
8.697524e+002,-1.607180e-002
8.716809e+002,-1.657904e-002
8.736094e+002,-1.693055e-002
8.755378e+002,-1.661367e-002
8.774664e+002,-1.629564e-002
8.793949e+002,-1.606657e-002
8.813234e+002,-1.607190e-002
8.832518e+002,-1.638279e-002
8.851804e+002,-1.671156e-002
8.871089e+002,-1.662493e-002
8.890374e+002,-1.624876e-002
8.909658e+002,-1.605054e-002
8.928943e+002,-1.548437e-002
8.948229e+002,-1.497806e-002
8.967513e+002,-1.513232e-002
8.986798e+002,-1.556560e-002
9.006083e+002,-1.590752e-002
9.025369e+002,-1.575158e-002
9.044653e+002,-1.558868e-002
9.063938e+002,-1.563807e-002
9.083223e+002,-1.558354e-002
9.102509e+002,-1.554102e-002
9.121793e+002,-1.565165e-002
9.141078e+002,-1.586021e-002
9.160364e+002,-1.591720e-002
9.179648e+002,-1.583041e-002
9.198933e+002,-1.582386e-002
9.218218e+002,-1.591605e-002
9.237504e+002,-1.605916e-002
9.256788e+002,-1.622868e-002
9.276073e+002,-1.642733e-002
9.295358e+002,-1.617904e-002
9.314644e+002,-1.599571e-002
9.333928e+002,-1.605887e-002
9.353213e+002,-1.615200e-002
9.372498e+002,-1.604067e-002
9.391783e+002,-1.592643e-002
9.411068e+002,-1.606430e-002
9.430353e+002,-1.597453e-002
9.449637e+002,-1.583929e-002
9.468923e+002,-1.590152e-002
9.488208e+002,-1.579600e-002
9.507493e+002,-1.574919e-002
9.526777e+002,-1.577548e-002
9.546063e+002,-1.574519e-002
9.565348e+002,-1.566009e-002
9.584633e+002,-1.548242e-002
9.603917e+002,-1.564392e-002
9.623203e+002,-1.598871e-002
9.642488e+002,-1.579680e-002
9.661772e+002,-1.533928e-002
9.681057e+002,-1.521571e-002
9.700343e+002,-1.531814e-002
9.719628e+002,-1.554323e-002
9.738912e+002,-1.575762e-002
9.758197e+002,-1.581504e-002
9.777483e+002,-1.573299e-002
9.796768e+002,-1.558108e-002
9.816052e+002,-1.562324e-002
9.835337e+002,-1.571803e-002
9.854623e+002,-1.587184e-002
9.873907e+002,-1.596511e-002
9.893192e+002,-1.618977e-002
9.912477e+002,-1.635110e-002
9.931763e+002,-1.616679e-002
9.951047e+002,-1.599251e-002
9.970332e+002,-1.599829e-002
9.989617e+002,-1.608965e-002
1.000890e+003,-1.581057e-002
1.002819e+003,-1.546506e-002
1.004747e+003,-1.545975e-002
1.006676e+003,-1.538214e-002
1.008604e+003,-1.512336e-002
1.010533e+003,-1.496013e-002
1.012461e+003,-1.461593e-002
1.014390e+003,-1.423214e-002
1.016318e+003,-1.400156e-002
1.018247e+003,-1.368495e-002
1.020175e+003,-1.352314e-002
1.022104e+003,-1.341177e-002
1.024032e+003,-1.287743e-002
1.025961e+003,-1.240192e-002
1.027889e+003,-1.205108e-002
1.029818e+003,-1.162860e-002
1.031746e+003,-1.118391e-002
1.033675e+003,-1.076521e-002
1.035603e+003,-1.012779e-002
1.037532e+003,-9.753393e-003
1.039460e+003,-9.542461e-003
1.041389e+003,-9.200198e-003
1.043317e+003,-8.968096e-003
1.045246e+003,-8.954821e-003
1.047174e+003,-8.763927e-003
1.049103e+003,-8.536206e-003
1.051031e+003,-8.361802e-003
1.052960e+003,-8.216817e-003
1.054888e+003,-8.319546e-003
1.056817e+003,-8.490198e-003
1.058745e+003,-8.452928e-003
1.060674e+003,-8.452635e-003
1.062602e+003,-8.247931e-003
1.064531e+003,-8.057539e-003
1.066459e+003,-8.090161e-003
1.068388e+003,-8.301928e-003
1.070316e+003,-8.324455e-003
1.072245e+003,-8.193667e-003
1.074173e+003,-8.064857e-003
1.076102e+003,-8.137478e-003
1.078030e+003,-8.261293e-003
1.079959e+003,-8.203877e-003
1.081887e+003,-8.131722e-003
1.083816e+003,-8.143332e-003
1.085744e+003,-8.157834e-003
1.087673e+003,-8.160599e-003
1.089601e+003,-8.361898e-003
1.091530e+003,-8.128698e-003
1.093458e+003,-7.747791e-003
1.095387e+003,-7.709383e-003
1.097315e+003,-7.615332e-003
1.099244e+003,-7.672956e-003
1.101172e+003,-7.689493e-003
1.103101e+003,-7.697371e-003
1.105029e+003,-7.840381e-003
1.106958e+003,-7.964475e-003
1.108886e+003,-7.954163e-003
1.110815e+003,-7.794300e-003
1.112743e+003,-7.624644e-003
1.114672e+003,-7.594625e-003
1.116600e+003,-7.544090e-003
1.118529e+003,-7.621746e-003
1.120457e+003,-7.858929e-003
1.122386e+003,-7.959856e-003
1.124314e+003,-7.936171e-003
1.126243e+003,-8.184075e-003
1.128171e+003,-8.271404e-003
1.130100e+003,-8.115787e-003
1.132028e+003,-8.222832e-003
1.133957e+003,-8.400607e-003
1.135885e+003,-8.655586e-003
1.137814e+003,-8.908501e-003
1.139742e+003,-9.110234e-003
1.141671e+003,-9.437947e-003
1.143599e+003,-9.758706e-003
1.145528e+003,-9.883031e-003
1.147456e+003,-1.005404e-002
1.149385e+003,-1.044765e-002
1.151313e+003,-1.088165e-002
1.153242e+003,-1.104461e-002
1.155170e+003,-1.125524e-002
1.157099e+003,-1.138998e-002
1.159027e+003,-1.151184e-002
1.160956e+003,-1.149335e-002
1.162884e+003,-1.156988e-002
1.164813e+003,-1.166456e-002
1.166741e+003,-1.166618e-002
1.168670e+003,-1.158888e-002
1.170598e+003,-1.158217e-002
1.172526e+003,-1.167285e-002
1.174455e+003,-1.156830e-002
1.176384e+003,-1.160282e-002
1.178312e+003,-1.184039e-002
1.180240e+003,-1.190497e-002
1.182169e+003,-1.190200e-002
1.184098e+003,-1.184800e-002
1.186026e+003,-1.186302e-002
1.187954e+003,-1.206461e-002
1.189883e+003,-1.241142e-002
1.191812e+003,-1.249816e-002
1.193740e+003,-1.235497e-002
1.195668e+003,-1.244391e-002
1.197597e+003,-1.269521e-002
1.199526e+003,-1.274637e-002
1.201454e+003,-1.283449e-002
1.203382e+003,-1.288953e-002
1.205311e+003,-1.285868e-002
1.207240e+003,-1.282671e-002
1.209168e+003,-1.265814e-002
1.211096e+003,-1.258224e-002
1.213025e+003,-1.260638e-002
1.214953e+003,-1.257909e-002
1.216882e+003,-1.265543e-002
1.218810e+003,-1.277002e-002
1.220739e+003,-1.277854e-002
1.222667e+003,-1.267645e-002
1.224596e+003,-1.249835e-002
1.226524e+003,-1.239316e-002
1.228453e+003,-1.224836e-002
1.230381e+003,-1.201437e-002
1.232310e+003,-1.185541e-002
1.234238e+003,-1.174094e-002
1.236167e+003,-1.167556e-002
1.238095e+003,-1.173413e-002
1.240024e+003,-1.176729e-002
1.241952e+003,-1.172530e-002
1.243881e+003,-1.177445e-002
1.245809e+003,-1.177667e-002
1.247738e+003,-1.182820e-002
1.249666e+003,-1.205456e-002
1.251595e+003,-1.217910e-002
1.253523e+003,-1.227757e-002
1.255452e+003,-1.234586e-002
1.257380e+003,-1.230122e-002
1.259309e+003,-1.230238e-002
1.261237e+003,-1.231748e-002
1.263166e+003,-1.228485e-002
1.265094e+003,-1.216914e-002
1.267023e+003,-1.188926e-002
1.268951e+003,-1.152455e-002
1.270880e+003,-1.124804e-002
1.272808e+003,-1.103906e-002
1.274737e+003,-1.091787e-002
1.276665e+003,-1.075082e-002
1.278594e+003,-1.059412e-002
1.280522e+003,-1.048630e-002
1.282451e+003,-1.021078e-002
1.284379e+003,-1.006693e-002
1.286308e+003,-9.767939e-003
1.288236e+003,-9.585959e-003
1.290165e+003,-9.347481e-003
1.292093e+003,-9.133692e-003
1.294022e+003,-9.180636e-003
1.295950e+003,-9.079636e-003
1.297879e+003,-9.017038e-003
1.299807e+003,-9.081777e-003
1.301736e+003,-9.200003e-003
1.303664e+003,-9.318132e-003
1.305593e+003,-9.304641e-003
1.307521e+003,-9.399850e-003
1.309450e+003,-9.742377e-003
1.311378e+003,-1.010467e-002
1.313307e+003,-1.020071e-002
1.315235e+003,-1.025932e-002
1.317164e+003,-1.042973e-002
1.319092e+003,-1.075467e-002
1.321021e+003,-1.118840e-002
1.322949e+003,-1.144659e-002
1.324878e+003,-1.157956e-002
1.326806e+003,-1.162189e-002
1.328735e+003,-1.146485e-002
1.330663e+003,-1.151226e-002
1.332592e+003,-1.165708e-002
1.334520e+003,-1.176042e-002
1.336449e+003,-1.186876e-002
1.338377e+003,-1.197856e-002
1.340306e+003,-1.198081e-002
1.342234e+003,-1.190226e-002
1.344163e+003,-1.185935e-002
1.346091e+003,-1.188714e-002
1.348020e+003,-1.194433e-002
1.349948e+003,-1.202513e-002
1.351877e+003,-1.210225e-002
1.353805e+003,-1.219069e-002
1.355734e+003,-1.229593e-002
1.357662e+003,-1.235606e-002
1.359591e+003,-1.233423e-002
1.361519e+003,-1.236824e-002
1.363448e+003,-1.251355e-002
1.365376e+003,-1.273440e-002
1.367305e+003,-1.286756e-002
1.369233e+003,-1.285923e-002
1.371162e+003,-1.295588e-002
1.373090e+003,-1.296415e-002
1.375019e+003,-1.292124e-002
1.376947e+003,-1.297984e-002
1.378876e+003,-1.291076e-002
1.380804e+003,-1.276770e-002
1.382733e+003,-1.289130e-002
1.384661e+003,-1.310061e-002
1.386590e+003,-1.317114e-002
1.388518e+003,-1.320630e-002
1.390447e+003,-1.322045e-002
1.392375e+003,-1.342250e-002
1.394304e+003,-1.358695e-002
1.396232e+003,-1.367863e-002
1.398161e+003,-1.369266e-002
1.400089e+003,-1.362670e-002
1.402018e+003,-1.369102e-002
1.403946e+003,-1.376084e-002
1.405875e+003,-1.384237e-002
1.407803e+003,-1.395276e-002
1.409732e+003,-1.408131e-002
1.411660e+003,-1.413289e-002
1.413589e+003,-1.402960e-002
1.415517e+003,-1.385938e-002
1.417446e+003,-1.355972e-002
1.419374e+003,-1.309916e-002
1.421303e+003,-1.290683e-002
1.423231e+003,-1.265186e-002
1.425160e+003,-1.209146e-002
1.427088e+003,-1.156895e-002
1.429017e+003,-1.109988e-002
1.430945e+003,-1.087865e-002
1.432874e+003,-1.073599e-002
1.434802e+003,-1.030847e-002
1.436731e+003,-9.645461e-003
1.438659e+003,-9.385161e-003
1.440588e+003,-9.215703e-003
1.442516e+003,-8.817340e-003
1.444445e+003,-8.451791e-003
1.446373e+003,-8.046969e-003
1.448302e+003,-7.635518e-003
1.450230e+003,-7.278420e-003
1.452159e+003,-6.846542e-003
1.454087e+003,-6.379526e-003
1.456016e+003,-5.855261e-003
1.457944e+003,-5.438292e-003
1.459873e+003,-5.498038e-003
1.461801e+003,-5.715226e-003
1.463730e+003,-5.751849e-003
1.465658e+003,-5.655346e-003
1.467587e+003,-5.877261e-003
1.469515e+003,-6.238484e-003
1.471444e+003,-6.395035e-003
1.473372e+003,-6.465585e-003
1.475301e+003,-6.799801e-003
1.477229e+003,-7.303379e-003
1.479158e+003,-7.795472e-003
1.481086e+003,-8.284049e-003
1.483015e+003,-8.760842e-003
1.484943e+003,-9.195331e-003
1.486872e+003,-9.518702e-003
1.488800e+003,-9.710657e-003
1.490729e+003,-1.007259e-002
1.492657e+003,-1.062636e-002
1.494586e+003,-1.083182e-002
1.496514e+003,-1.091161e-002
1.498443e+003,-1.117467e-002
1.500371e+003,-1.148425e-002
1.502300e+003,-1.175716e-002
1.504228e+003,-1.179828e-002
1.506157e+003,-1.159027e-002
1.508085e+003,-1.181872e-002
1.510014e+003,-1.222765e-002
1.511942e+003,-1.236788e-002
1.513871e+003,-1.244935e-002
1.515799e+003,-1.252588e-002
1.517728e+003,-1.247234e-002
1.519656e+003,-1.243943e-002
1.521585e+003,-1.226740e-002
1.523513e+003,-1.240685e-002
1.525442e+003,-1.238843e-002
1.527370e+003,-1.237977e-002
1.529299e+003,-1.255704e-002
1.531227e+003,-1.257069e-002
1.533156e+003,-1.222536e-002
1.535084e+003,-1.204376e-002
1.537013e+003,-1.197498e-002
1.538941e+003,-1.157575e-002
1.540870e+003,-1.136981e-002
1.542798e+003,-1.151687e-002
1.544727e+003,-1.139485e-002
1.546655e+003,-1.135547e-002
1.548584e+003,-1.128600e-002
1.550512e+003,-1.111603e-002
1.552441e+003,-1.108612e-002
1.554369e+003,-1.097005e-002
1.556298e+003,-1.082536e-002
1.558226e+003,-1.035548e-002
1.560155e+003,-9.937829e-003
1.562083e+003,-9.982744e-003
1.564012e+003,-9.790909e-003
1.565940e+003,-9.434121e-003
1.567869e+003,-9.252163e-003
1.569797e+003,-9.020089e-003
1.571726e+003,-8.920836e-003
1.573654e+003,-8.916454e-003
1.575583e+003,-8.651949e-003
1.577511e+003,-8.563366e-003
1.579440e+003,-8.804873e-003
1.581368e+003,-8.754542e-003
1.583297e+003,-8.784059e-003
1.585225e+003,-8.795781e-003
1.587154e+003,-8.750126e-003
1.589082e+003,-8.878993e-003
1.591010e+003,-9.152606e-003
1.592939e+003,-9.438271e-003
1.594868e+003,-9.726761e-003
1.596796e+003,-9.912925e-003
1.598724e+003,-1.009810e-002
1.600653e+003,-1.047670e-002
1.602582e+003,-1.083987e-002
1.604510e+003,-1.113376e-002
1.606438e+003,-1.140750e-002
1.608367e+003,-1.167472e-002
1.610296e+003,-1.191070e-002
1.612224e+003,-1.219356e-002
1.614152e+003,-1.242089e-002
1.616081e+003,-1.250920e-002
1.618010e+003,-1.265118e-002
1.619938e+003,-1.298794e-002
1.621866e+003,-1.314684e-002
1.623795e+003,-1.320274e-002
1.625724e+003,-1.330352e-002
1.627652e+003,-1.342610e-002
1.629580e+003,-1.365551e-002
1.631509e+003,-1.386230e-002
1.633438e+003,-1.390386e-002
1.635366e+003,-1.384741e-002
1.637294e+003,-1.420649e-002
1.639223e+003,-1.476802e-002
1.641151e+003,-1.505456e-002
1.643080e+003,-1.553539e-002
1.645008e+003,-1.575711e-002
1.646937e+003,-1.563398e-002
1.648865e+003,-1.588711e-002
1.650794e+003,-1.632676e-002
1.652722e+003,-1.598718e-002
1.654651e+003,-1.610686e-002
1.656579e+003,-1.668641e-002
1.658508e+003,-1.711750e-002
1.660436e+003,-1.728047e-002
1.662365e+003,-1.706478e-002
1.664293e+003,-1.714222e-002
1.666222e+003,-1.729642e-002
1.668150e+003,-1.720181e-002
1.670079e+003,-1.721070e-002
1.672007e+003,-1.738852e-002
1.673936e+003,-1.748923e-002
1.675864e+003,-1.734797e-002
1.677793e+003,-1.746466e-002
1.679721e+003,-1.745422e-002
1.681650e+003,-1.751399e-002
1.683578e+003,-1.723818e-002
1.685507e+003,-1.712012e-002
1.687435e+003,-1.754324e-002
1.689364e+003,-1.758620e-002
1.691292e+003,-1.750674e-002
1.693221e+003,-1.745719e-002
1.695149e+003,-1.705255e-002
1.697078e+003,-1.677813e-002
1.699006e+003,-1.673697e-002
1.700935e+003,-1.642289e-002
1.702863e+003,-1.661393e-002
1.704792e+003,-1.662802e-002
1.706720e+003,-1.650743e-002
1.708649e+003,-1.652622e-002
1.710577e+003,-1.654386e-002
1.712506e+003,-1.646357e-002
1.714434e+003,-1.638100e-002
1.716363e+003,-1.627186e-002
1.718291e+003,-1.619836e-002
1.720220e+003,-1.638914e-002
1.722148e+003,-1.657231e-002
1.724077e+003,-1.657818e-002
1.726005e+003,-1.654775e-002
1.727934e+003,-1.647518e-002
1.729862e+003,-1.634236e-002
1.731791e+003,-1.628951e-002
1.733719e+003,-1.613550e-002
1.735648e+003,-1.631992e-002
1.737576e+003,-1.659993e-002
1.739505e+003,-1.636431e-002
1.741433e+003,-1.623178e-002
1.743362e+003,-1.622061e-002
1.745290e+003,-1.613314e-002
1.747219e+003,-1.602234e-002
1.749147e+003,-1.589203e-002
1.751076e+003,-1.577405e-002
1.753004e+003,-1.592413e-002
1.754933e+003,-1.595703e-002
1.756861e+003,-1.574292e-002
1.758790e+003,-1.576890e-002
1.760718e+003,-1.584606e-002
1.762647e+003,-1.581836e-002
1.764575e+003,-1.583280e-002
1.766504e+003,-1.578507e-002
1.768432e+003,-1.572426e-002
1.770361e+003,-1.565734e-002
1.772289e+003,-1.556100e-002
1.774218e+003,-1.571541e-002
1.776146e+003,-1.584868e-002
1.778075e+003,-1.581648e-002
1.780003e+003,-1.578162e-002
1.781932e+003,-1.581443e-002
1.783860e+003,-1.583204e-002
1.785789e+003,-1.579654e-002
1.787717e+003,-1.583354e-002
1.789646e+003,-1.580779e-002
1.791574e+003,-1.574589e-002
1.793503e+003,-1.571228e-002
1.795431e+003,-1.577798e-002
1.797360e+003,-1.586060e-002
1.799288e+003,-1.581737e-002
1.801217e+003,-1.579002e-002
1.803145e+003,-1.584597e-002
1.805074e+003,-1.588660e-002
1.807002e+003,-1.590736e-002
1.808931e+003,-1.587178e-002
1.810859e+003,-1.570499e-002
1.812788e+003,-1.569026e-002
1.814716e+003,-1.586900e-002
1.816645e+003,-1.591385e-002
1.818573e+003,-1.594700e-002
1.820502e+003,-1.596061e-002
1.822430e+003,-1.600589e-002
1.824359e+003,-1.596406e-002
1.826287e+003,-1.593857e-002
1.828216e+003,-1.600529e-002
1.830144e+003,-1.591599e-002
1.832073e+003,-1.586839e-002
1.834001e+003,-1.590168e-002
1.835930e+003,-1.602071e-002
1.837858e+003,-1.605248e-002
1.839787e+003,-1.606475e-002
1.841715e+003,-1.608470e-002
1.843644e+003,-1.600778e-002
1.845572e+003,-1.603064e-002
1.847501e+003,-1.607385e-002
1.849429e+003,-1.602061e-002
1.851358e+003,-1.596485e-002
1.853286e+003,-1.596070e-002
1.855215e+003,-1.600883e-002
1.857143e+003,-1.600177e-002
1.859072e+003,-1.604342e-002
1.861000e+003,-1.606606e-002
1.862929e+003,-1.595243e-002
1.864857e+003,-1.587698e-002
1.866786e+003,-1.599580e-002
1.868714e+003,-1.599031e-002
1.870643e+003,-1.594624e-002
1.872571e+003,-1.597622e-002
1.874500e+003,-1.588826e-002
1.876428e+003,-1.590043e-002
1.878357e+003,-1.598118e-002
1.880285e+003,-1.600344e-002
1.882214e+003,-1.600532e-002
1.884142e+003,-1.598287e-002
1.886071e+003,-1.597603e-002
1.887999e+003,-1.600372e-002
1.889928e+003,-1.597418e-002
1.891856e+003,-1.601557e-002
1.893785e+003,-1.600097e-002
1.895713e+003,-1.598906e-002
1.897642e+003,-1.601215e-002
1.899570e+003,-1.605213e-002
1.901499e+003,-1.604290e-002
1.903427e+003,-1.599056e-002
1.905356e+003,-1.604795e-002
1.907284e+003,-1.607273e-002
1.909213e+003,-1.602694e-002
1.911141e+003,-1.603840e-002
1.913070e+003,-1.605948e-002
1.914998e+003,-1.606781e-002
1.916927e+003,-1.602129e-002
1.918855e+003,-1.598568e-002
1.920784e+003,-1.605427e-002
1.922712e+003,-1.612244e-002
1.924641e+003,-1.602314e-002
1.926569e+003,-1.599644e-002
1.928498e+003,-1.610431e-002
1.930426e+003,-1.610048e-002
1.932355e+003,-1.603971e-002
1.934283e+003,-1.601423e-002
1.936212e+003,-1.604690e-002
1.938140e+003,-1.613793e-002
1.940069e+003,-1.615944e-002
1.941997e+003,-1.610048e-002
1.943926e+003,-1.610810e-002
1.945854e+003,-1.619207e-002
1.947783e+003,-1.623350e-002
1.949711e+003,-1.622890e-002
1.951640e+003,-1.620656e-002
1.953568e+003,-1.620988e-002
1.955497e+003,-1.619785e-002
1.957425e+003,-1.622798e-002
1.959354e+003,-1.630761e-002
1.961282e+003,-1.626941e-002
1.963211e+003,-1.627825e-002
1.965139e+003,-1.625501e-002
1.967068e+003,-1.626149e-002
1.968996e+003,-1.624990e-002
1.970925e+003,-1.615801e-002
1.972853e+003,-1.622309e-002
1.974782e+003,-1.628817e-002
1.976710e+003,-1.629226e-002
1.978639e+003,-1.630831e-002
1.980567e+003,-1.629321e-002
1.982496e+003,-1.631808e-002
1.984424e+003,-1.632676e-002
1.986353e+003,-1.623430e-002
1.988281e+003,-1.609799e-002
1.990210e+003,-1.614993e-002
1.992138e+003,-1.618623e-002
1.994067e+003,-1.616222e-002
1.995995e+003,-1.618128e-002
1.997924e+003,-1.612717e-002
1.999852e+003,-1.607068e-002
2.001781e+003,-1.614271e-002
2.003709e+003,-1.617068e-002
2.005638e+003,-1.611918e-002
2.007566e+003,-1.615670e-002
2.009495e+003,-1.626184e-002
2.011423e+003,-1.623924e-002
2.013352e+003,-1.607963e-002
2.015280e+003,-1.604335e-002
2.017208e+003,-1.609878e-002
2.019137e+003,-1.619574e-002
2.021066e+003,-1.618224e-002
2.022994e+003,-1.613460e-002
2.024922e+003,-1.614508e-002
2.026851e+003,-1.612461e-002
2.028780e+003,-1.618217e-002
2.030708e+003,-1.614862e-002
2.032636e+003,-1.610750e-002
2.034565e+003,-1.613020e-002
2.036494e+003,-1.613690e-002
2.038422e+003,-1.611491e-002
2.040350e+003,-1.610830e-002
2.042279e+003,-1.608362e-002
2.044208e+003,-1.607522e-002
2.046136e+003,-1.609897e-002
2.048064e+003,-1.610083e-002
2.049993e+003,-1.611286e-002
2.051921e+003,-1.615057e-002
2.053850e+003,-1.617170e-002
2.055778e+003,-1.615874e-002
2.057707e+003,-1.615733e-002
2.059635e+003,-1.608228e-002
2.061564e+003,-1.603677e-002
2.063492e+003,-1.603243e-002
2.065421e+003,-1.601736e-002
2.067349e+003,-1.600803e-002
2.069278e+003,-1.600069e-002
2.071206e+003,-1.605082e-002
2.073135e+003,-1.600628e-002
2.075063e+003,-1.596984e-002
2.076992e+003,-1.601228e-002
2.078920e+003,-1.602403e-002
2.080849e+003,-1.601436e-002
2.082777e+003,-1.597575e-002
2.084706e+003,-1.595872e-002
2.086634e+003,-1.603326e-002
2.088563e+003,-1.601742e-002
2.090491e+003,-1.594521e-002
2.092420e+003,-1.593432e-002
2.094348e+003,-1.596971e-002
2.096277e+003,-1.596137e-002
2.098205e+003,-1.594818e-002
2.100134e+003,-1.591880e-002
2.102062e+003,-1.588526e-002
2.103991e+003,-1.582750e-002
2.105919e+003,-1.580341e-002
2.107848e+003,-1.580919e-002
2.109776e+003,-1.584411e-002
2.111705e+003,-1.587973e-002
2.113633e+003,-1.583299e-002
2.115562e+003,-1.577005e-002
2.117490e+003,-1.571682e-002
2.119419e+003,-1.561074e-002
2.121347e+003,-1.564027e-002
2.123276e+003,-1.572589e-002
2.125204e+003,-1.578223e-002
2.127133e+003,-1.575293e-002
2.129061e+003,-1.568591e-002
2.130990e+003,-1.565031e-002
2.132918e+003,-1.559703e-002
2.134847e+003,-1.561125e-002
2.136775e+003,-1.567489e-002
2.138704e+003,-1.562330e-002
2.140632e+003,-1.550895e-002
2.142561e+003,-1.557440e-002
2.144489e+003,-1.564107e-002
2.146418e+003,-1.559926e-002
2.148346e+003,-1.553082e-002
2.150275e+003,-1.547503e-002
2.152203e+003,-1.548402e-002
2.154132e+003,-1.549255e-002
2.156060e+003,-1.550640e-002
2.157989e+003,-1.558018e-002
2.159917e+003,-1.554738e-002
2.161846e+003,-1.549943e-002
2.163774e+003,-1.544322e-002
2.165703e+003,-1.540289e-002
2.167631e+003,-1.539285e-002
2.169560e+003,-1.531558e-002
2.171488e+003,-1.526286e-002
2.173417e+003,-1.537264e-002
2.175345e+003,-1.538770e-002
2.177274e+003,-1.538450e-002
2.179202e+003,-1.539688e-002
2.181131e+003,-1.535575e-002
2.183059e+003,-1.533132e-002
2.184988e+003,-1.535233e-002
2.186916e+003,-1.531734e-002
2.188845e+003,-1.525499e-002
2.190773e+003,-1.523350e-002
2.192702e+003,-1.524610e-002
2.194630e+003,-1.531583e-002
2.196559e+003,-1.537165e-002
2.198487e+003,-1.541607e-002
2.200416e+003,-1.548568e-002
2.202344e+003,-1.546195e-002
2.204273e+003,-1.535086e-002
2.206201e+003,-1.533362e-002
2.208130e+003,-1.544277e-002
2.210058e+003,-1.557424e-002
2.211987e+003,-1.559482e-002
2.213915e+003,-1.548232e-002
2.215844e+003,-1.553127e-002
2.217772e+003,-1.559933e-002
2.219701e+003,-1.553814e-002
2.221629e+003,-1.556835e-002
2.223558e+003,-1.560687e-002
2.225486e+003,-1.562889e-002
2.227415e+003,-1.563247e-002
2.229343e+003,-1.559616e-002
2.231272e+003,-1.554537e-002
2.233200e+003,-1.558878e-002
2.235129e+003,-1.563442e-002
2.237057e+003,-1.563299e-002
2.238986e+003,-1.567773e-002
2.240914e+003,-1.573030e-002
2.242843e+003,-1.576813e-002
2.244771e+003,-1.576801e-002
2.246700e+003,-1.581747e-002
2.248628e+003,-1.579827e-002
2.250557e+003,-1.572107e-002
2.252485e+003,-1.576050e-002
2.254414e+003,-1.583149e-002
2.256342e+003,-1.580843e-002
2.258271e+003,-1.583919e-002
2.260199e+003,-1.594952e-002
2.262128e+003,-1.600168e-002
2.264056e+003,-1.587973e-002
2.265985e+003,-1.579456e-002
2.267913e+003,-1.590133e-002
2.269842e+003,-1.593148e-002
2.271770e+003,-1.589126e-002
2.273699e+003,-1.590494e-002
2.275627e+003,-1.589883e-002
2.277556e+003,-1.592899e-002
2.279484e+003,-1.599619e-002
2.281413e+003,-1.605648e-002
2.283341e+003,-1.607362e-002
2.285270e+003,-1.608122e-002
2.287198e+003,-1.606261e-002
2.289127e+003,-1.607228e-002
2.291055e+003,-1.600248e-002
2.292984e+003,-1.600123e-002
2.294912e+003,-1.607927e-002
2.296841e+003,-1.601896e-002
2.298769e+003,-1.604140e-002
2.300698e+003,-1.610533e-002
2.302626e+003,-1.608237e-002
2.304555e+003,-1.602419e-002
2.306483e+003,-1.596326e-002
2.308412e+003,-1.586155e-002
2.310340e+003,-1.582223e-002
2.312269e+003,-1.586580e-002
2.314197e+003,-1.581958e-002
2.316125e+003,-1.577858e-002
2.318054e+003,-1.582405e-002
2.319983e+003,-1.583954e-002
2.321911e+003,-1.583689e-002
2.323840e+003,-1.578906e-002
2.325768e+003,-1.566747e-002
2.327697e+003,-1.557830e-002
2.329625e+003,-1.558459e-002
2.331553e+003,-1.566006e-002
2.333482e+003,-1.559521e-002
2.335411e+003,-1.544776e-002
2.337339e+003,-1.540644e-002
2.339268e+003,-1.545361e-002
2.341196e+003,-1.545514e-002
2.343125e+003,-1.552350e-002
2.345053e+003,-1.559102e-002
2.346981e+003,-1.573120e-002
2.348910e+003,-1.598571e-002
2.350839e+003,-1.589535e-002
2.352767e+003,-1.572905e-002
2.354696e+003,-1.566114e-002
2.356624e+003,-1.549642e-002
2.358552e+003,-1.545540e-002
2.360481e+003,-1.547832e-002
2.362409e+003,-1.549696e-002
2.364338e+003,-1.544130e-002
2.366267e+003,-1.537379e-002
2.368195e+003,-1.555557e-002
2.370124e+003,-1.569729e-002
2.372052e+003,-1.574903e-002
2.373980e+003,-1.580795e-002
2.375909e+003,-1.594020e-002
2.377838e+003,-1.590263e-002
2.379766e+003,-1.586740e-002
2.381695e+003,-1.590826e-002
2.383623e+003,-1.585606e-002
2.385552e+003,-1.576874e-002
2.387480e+003,-1.578577e-002
2.389408e+003,-1.570739e-002
2.391337e+003,-1.567329e-002
2.393266e+003,-1.571394e-002
2.395194e+003,-1.568975e-002
2.397123e+003,-1.568930e-002
2.399051e+003,-1.564286e-002
2.400979e+003,-1.564222e-002
2.402908e+003,-1.562330e-002
2.404836e+003,-1.558079e-002
2.406765e+003,-1.560994e-002
2.408694e+003,-1.560585e-002
2.410622e+003,-1.555202e-002
2.412551e+003,-1.559073e-002
2.414479e+003,-1.566930e-002
2.416407e+003,-1.567527e-002
2.418336e+003,-1.562394e-002
2.420264e+003,-1.558443e-002
2.422193e+003,-1.554556e-002
2.424122e+003,-1.551461e-002
2.426050e+003,-1.552283e-002
2.427979e+003,-1.546448e-002
2.429907e+003,-1.537606e-002
2.431835e+003,-1.538345e-002
2.433764e+003,-1.541204e-002
2.435692e+003,-1.537334e-002
2.437621e+003,-1.530054e-002
2.439550e+003,-1.521443e-002
2.441478e+003,-1.529053e-002
2.443406e+003,-1.537404e-002
2.445335e+003,-1.532872e-002
2.447263e+003,-1.536499e-002
2.449192e+003,-1.539004e-002
2.451121e+003,-1.524690e-002
2.453049e+003,-1.525845e-002
2.454978e+003,-1.532889e-002
2.456906e+003,-1.531862e-002
2.458834e+003,-1.531894e-002
2.460763e+003,-1.525426e-002
2.462691e+003,-1.514288e-002
2.464620e+003,-1.509124e-002
2.466549e+003,-1.507443e-002
2.468477e+003,-1.519907e-002
2.470406e+003,-1.522361e-002
2.472334e+003,-1.521062e-002
2.474262e+003,-1.524652e-002
2.476191e+003,-1.521248e-002
2.478119e+003,-1.515501e-002
2.480048e+003,-1.516352e-002
2.481977e+003,-1.519222e-002
2.483905e+003,-1.514407e-002
2.485833e+003,-1.512199e-002
2.487762e+003,-1.507626e-002
2.489690e+003,-1.498446e-002
2.491619e+003,-1.503545e-002
2.493547e+003,-1.502780e-002
2.495476e+003,-1.494269e-002
2.497405e+003,-1.492239e-002
2.499333e+003,-1.486178e-002
2.501261e+003,-1.469371e-002
2.503190e+003,-1.475268e-002
2.505118e+003,-1.497051e-002
2.507047e+003,-1.498715e-002
2.508975e+003,-1.484532e-002
2.510904e+003,-1.478935e-002
2.512833e+003,-1.477522e-002
2.514761e+003,-1.480331e-002
2.516689e+003,-1.479582e-002
2.518618e+003,-1.469057e-002
2.520546e+003,-1.472289e-002
2.522475e+003,-1.479966e-002
2.524403e+003,-1.475918e-002
2.526332e+003,-1.469470e-002
2.528260e+003,-1.460465e-002
2.530189e+003,-1.460347e-002
2.532117e+003,-1.460891e-002
2.534046e+003,-1.462324e-002
2.535974e+003,-1.464444e-002
2.537903e+003,-1.464771e-002
2.539831e+003,-1.461042e-002
2.541760e+003,-1.457604e-002
2.543688e+003,-1.464787e-002
2.545617e+003,-1.478749e-002
2.547545e+003,-1.471729e-002
2.549474e+003,-1.458072e-002
2.551402e+003,-1.456162e-002
2.553331e+003,-1.464246e-002
2.555259e+003,-1.471914e-002
2.557188e+003,-1.470037e-002
2.559116e+003,-1.471950e-002
2.561045e+003,-1.466517e-002
2.562973e+003,-1.451744e-002
2.564902e+003,-1.456031e-002
2.566830e+003,-1.468564e-002
2.568759e+003,-1.468695e-002
2.570687e+003,-1.465751e-002
2.572616e+003,-1.459040e-002
2.574544e+003,-1.449856e-002
2.576473e+003,-1.459777e-002
2.578401e+003,-1.475287e-002
2.580330e+003,-1.472920e-002
2.582258e+003,-1.459040e-002
2.584187e+003,-1.456310e-002
2.586115e+003,-1.459219e-002
2.588044e+003,-1.451705e-002
2.589972e+003,-1.440337e-002
2.591901e+003,-1.444549e-002
2.593829e+003,-1.452221e-002
2.595758e+003,-1.453718e-002
2.597686e+003,-1.451045e-002
2.599615e+003,-1.442671e-002
2.601543e+003,-1.437677e-002
2.603472e+003,-1.449462e-002
2.605400e+003,-1.453532e-002
2.607329e+003,-1.448712e-002
2.609257e+003,-1.441805e-002
2.611186e+003,-1.434763e-002
2.613114e+003,-1.439052e-002
2.615043e+003,-1.444360e-002
2.616971e+003,-1.434388e-002
2.618900e+003,-1.429525e-002
2.620828e+003,-1.430765e-002
2.622757e+003,-1.423577e-002
2.624685e+003,-1.415836e-002
2.626614e+003,-1.419677e-002
2.628542e+003,-1.434106e-002
2.630471e+003,-1.442395e-002
2.632399e+003,-1.435805e-002
2.634328e+003,-1.439482e-002
2.636256e+003,-1.440328e-002
2.638185e+003,-1.432032e-002
2.640113e+003,-1.422980e-002
2.642042e+003,-1.418003e-002
2.643970e+003,-1.417647e-002
2.645899e+003,-1.409341e-002
2.647827e+003,-1.406527e-002
2.649756e+003,-1.409254e-002
2.651684e+003,-1.406229e-002
2.653613e+003,-1.397095e-002
2.655541e+003,-1.389032e-002
2.657470e+003,-1.388265e-002
2.659398e+003,-1.384394e-002
2.661327e+003,-1.382083e-002
2.663255e+003,-1.383993e-002
2.665184e+003,-1.385168e-002
2.667112e+003,-1.380408e-002
2.669041e+003,-1.372592e-002
2.670969e+003,-1.372136e-002
2.672898e+003,-1.374364e-002
2.674826e+003,-1.368424e-002
2.676755e+003,-1.361672e-002
2.678683e+003,-1.364289e-002
2.680612e+003,-1.364324e-002
2.682540e+003,-1.356338e-002
2.684469e+003,-1.351389e-002
2.686397e+003,-1.343233e-002
2.688326e+003,-1.336884e-002
2.690254e+003,-1.339076e-002
2.692183e+003,-1.333395e-002
2.694111e+003,-1.325265e-002
2.696040e+003,-1.320679e-002
2.697968e+003,-1.315230e-002
2.699897e+003,-1.321238e-002
2.701825e+003,-1.325747e-002
2.703754e+003,-1.317259e-002
2.705682e+003,-1.301447e-002
2.707611e+003,-1.287878e-002
2.709539e+003,-1.284305e-002
2.711468e+003,-1.290532e-002
2.713396e+003,-1.289220e-002
2.715325e+003,-1.282921e-002
2.717253e+003,-1.273984e-002
2.719182e+003,-1.270496e-002
2.721110e+003,-1.262058e-002
2.723039e+003,-1.250354e-002
2.724967e+003,-1.243628e-002
2.726896e+003,-1.246339e-002
2.728824e+003,-1.249352e-002
2.730753e+003,-1.237581e-002
2.732681e+003,-1.218892e-002
2.734610e+003,-1.208688e-002
2.736538e+003,-1.207202e-002
2.738467e+003,-1.204015e-002
2.740395e+003,-1.190964e-002
2.742324e+003,-1.193620e-002
2.744252e+003,-1.197195e-002
2.746181e+003,-1.182030e-002
2.748109e+003,-1.158130e-002
2.750038e+003,-1.150580e-002
2.751966e+003,-1.153278e-002
2.753895e+003,-1.143787e-002
2.755823e+003,-1.131077e-002
2.757752e+003,-1.129046e-002
2.759680e+003,-1.113757e-002
2.761609e+003,-1.086879e-002
2.763537e+003,-1.063716e-002
2.765466e+003,-1.046648e-002
2.767394e+003,-1.022301e-002
2.769323e+003,-9.893590e-003
2.771251e+003,-9.453476e-003
2.773180e+003,-8.989614e-003
2.775108e+003,-8.611736e-003
2.777037e+003,-8.270818e-003
2.778965e+003,-7.839046e-003
2.780894e+003,-7.202299e-003
2.782822e+003,-6.511122e-003
2.784750e+003,-5.848985e-003
2.786679e+003,-5.093301e-003
2.788608e+003,-4.399019e-003
2.790536e+003,-3.715780e-003
2.792465e+003,-2.997737e-003
2.794393e+003,-2.277846e-003
2.796322e+003,-1.617240e-003
2.798250e+003,-9.719259e-004
2.800178e+003,-2.112775e-004
2.802107e+003,4.732130e-004
2.804036e+003,1.019903e-003
2.805964e+003,1.526115e-003
2.807893e+003,1.806010e-003
2.809821e+003,1.906071e-003
2.811750e+003,2.021600e-003
2.813678e+003,2.064145e-003
2.815606e+003,1.945609e-003
2.817535e+003,1.784317e-003
2.819464e+003,1.477505e-003
2.821392e+003,1.050658e-003
2.823321e+003,6.074402e-004
2.825249e+003,1.385887e-004
2.827177e+003,-3.294924e-004
2.829106e+003,-7.761998e-004
2.831034e+003,-1.360339e-003
2.832963e+003,-1.947421e-003
2.834892e+003,-2.526200e-003
2.836820e+003,-3.223086e-003
2.838749e+003,-3.844704e-003
2.840677e+003,-4.513902e-003
2.842605e+003,-5.223977e-003
2.844534e+003,-6.006133e-003
2.846462e+003,-6.823025e-003
2.848391e+003,-7.554086e-003
2.850320e+003,-7.947916e-003
2.852248e+003,-8.168630e-003
2.854177e+003,-8.348443e-003
2.856105e+003,-8.470962e-003
2.858033e+003,-8.593253e-003
2.859962e+003,-8.575093e-003
2.861890e+003,-8.589809e-003
2.863819e+003,-8.603615e-003
2.865748e+003,-8.470767e-003
2.867676e+003,-8.385917e-003
2.869604e+003,-8.365083e-003
2.871533e+003,-8.291916e-003
2.873461e+003,-8.201730e-003
2.875390e+003,-8.004748e-003
2.877319e+003,-7.904384e-003
2.879247e+003,-7.768491e-003
2.881176e+003,-7.611328e-003
2.883104e+003,-7.599444e-003
2.885032e+003,-7.672501e-003
2.886961e+003,-7.653489e-003
2.888889e+003,-7.645838e-003
2.890818e+003,-7.717260e-003
2.892747e+003,-7.940726e-003
2.894675e+003,-8.072077e-003
2.896604e+003,-8.094291e-003
2.898532e+003,-8.167460e-003
2.900460e+003,-8.270460e-003
2.902389e+003,-8.383382e-003
2.904317e+003,-8.526978e-003
2.906246e+003,-8.570480e-003
2.908175e+003,-8.574735e-003
2.910103e+003,-8.756426e-003
2.912031e+003,-9.013274e-003
2.913960e+003,-9.222289e-003
2.915888e+003,-9.447738e-003
2.917817e+003,-9.374331e-003
2.919745e+003,-9.284857e-003
2.921674e+003,-9.099332e-003
2.923603e+003,-8.903372e-003
2.925531e+003,-8.544425e-003
2.927459e+003,-8.156664e-003
2.929388e+003,-7.899016e-003
2.931316e+003,-7.642029e-003
2.933245e+003,-7.398865e-003
2.935173e+003,-7.148589e-003
2.937102e+003,-6.995668e-003
2.939031e+003,-6.983050e-003
2.940959e+003,-6.921030e-003
2.942887e+003,-7.049886e-003
2.944816e+003,-7.292594e-003
2.946744e+003,-7.468829e-003
2.948673e+003,-7.655768e-003
2.950601e+003,-8.034608e-003
2.952530e+003,-8.562001e-003
2.954458e+003,-9.176387e-003
2.956387e+003,-9.769689e-003
2.958315e+003,-1.035720e-002
2.960244e+003,-1.098240e-002
2.962172e+003,-1.150351e-002
2.964101e+003,-1.196850e-002
2.966029e+003,-1.243402e-002
2.967958e+003,-1.298251e-002
2.969886e+003,-1.350859e-002
2.971815e+003,-1.387908e-002
2.973743e+003,-1.412718e-002
2.975672e+003,-1.452401e-002
2.977600e+003,-1.487331e-002
2.979529e+003,-1.496999e-002
2.981457e+003,-1.531894e-002
2.983386e+003,-1.567342e-002
2.985314e+003,-1.592947e-002
2.987243e+003,-1.610906e-002
2.989171e+003,-1.616018e-002
2.991100e+003,-1.627729e-002
2.993028e+003,-1.644018e-002
2.994957e+003,-1.654571e-002
2.996885e+003,-1.662802e-002
2.998814e+003,-1.667126e-002
3.000742e+003,-1.679417e-002
3.002671e+003,-1.687353e-002
3.004599e+003,-1.689938e-002
3.006528e+003,-1.690158e-002
3.008456e+003,-1.698746e-002
3.010385e+003,-1.710186e-002
3.012313e+003,-1.709021e-002
3.014242e+003,-1.703337e-002
3.016170e+003,-1.708189e-002
3.018099e+003,-1.713082e-002
3.020027e+003,-1.714948e-002
3.021956e+003,-1.728668e-002
3.023884e+003,-1.737773e-002
3.025813e+003,-1.745550e-002
3.027741e+003,-1.760631e-002
3.029670e+003,-1.752628e-002
3.031598e+003,-1.727903e-002
3.033527e+003,-1.733106e-002
3.035455e+003,-1.744770e-002
3.037384e+003,-1.739069e-002
3.039312e+003,-1.742535e-002
3.041241e+003,-1.755311e-002
3.043169e+003,-1.770385e-002
3.045098e+003,-1.771206e-002
3.047026e+003,-1.764449e-002
3.048955e+003,-1.772691e-002
3.050883e+003,-1.781218e-002
3.052812e+003,-1.787782e-002
3.054740e+003,-1.787680e-002
3.056669e+003,-1.780783e-002
3.058597e+003,-1.782700e-002
3.060526e+003,-1.789079e-002
3.062454e+003,-1.790386e-002
3.064383e+003,-1.793918e-002
3.066311e+003,-1.793470e-002
3.068240e+003,-1.794888e-002
3.070168e+003,-1.805566e-002
3.072097e+003,-1.813105e-002
3.074025e+003,-1.812240e-002
3.075954e+003,-1.816661e-002
3.077882e+003,-1.826246e-002
3.079811e+003,-1.835557e-002
3.081739e+003,-1.843303e-002
3.083668e+003,-1.842192e-002
3.085596e+003,-1.832308e-002
3.087525e+003,-1.840302e-002
3.089453e+003,-1.849610e-002
3.091382e+003,-1.852756e-002
3.093310e+003,-1.850308e-002
3.095239e+003,-1.851318e-002
3.097167e+003,-1.858728e-002
3.099096e+003,-1.862782e-002
3.101024e+003,-1.876099e-002
3.102953e+003,-1.877067e-002
3.104881e+003,-1.870308e-002
3.106810e+003,-1.865201e-002
3.108738e+003,-1.857404e-002
3.110667e+003,-1.864759e-002
3.112595e+003,-1.874221e-002
3.114524e+003,-1.867826e-002
3.116452e+003,-1.868613e-002
3.118381e+003,-1.871663e-002
3.120309e+003,-1.880348e-002
3.122238e+003,-1.896112e-002
3.124166e+003,-1.898104e-002
3.126095e+003,-1.894481e-002
3.128023e+003,-1.897352e-002
3.129952e+003,-1.900340e-002
3.131880e+003,-1.908366e-002
3.133809e+003,-1.896455e-002
3.135737e+003,-1.888629e-002
3.137666e+003,-1.891414e-002
3.139594e+003,-1.886170e-002
3.141523e+003,-1.883096e-002
3.143451e+003,-1.889917e-002
3.145380e+003,-1.895519e-002
3.147308e+003,-1.887493e-002
3.149237e+003,-1.886005e-002
3.151165e+003,-1.896277e-002
3.153094e+003,-1.909688e-002
3.155022e+003,-1.908284e-002
3.156951e+003,-1.903442e-002
3.158879e+003,-1.894647e-002
3.160808e+003,-1.886789e-002
3.162736e+003,-1.899300e-002
3.164665e+003,-1.910041e-002
3.166593e+003,-1.910164e-002
3.168522e+003,-1.909245e-002
3.170450e+003,-1.899512e-002
3.172379e+003,-1.888391e-002
3.174307e+003,-1.885694e-002
3.176236e+003,-1.888965e-002
3.178164e+003,-1.894675e-002
3.180093e+003,-1.895985e-002
3.182021e+003,-1.899157e-002
3.183950e+003,-1.903334e-002
3.185878e+003,-1.906181e-002
3.187807e+003,-1.907561e-002
3.189735e+003,-1.902804e-002
3.191664e+003,-1.915637e-002
3.193592e+003,-1.927597e-002
3.195521e+003,-1.923372e-002
3.197449e+003,-1.912282e-002
3.199378e+003,-1.900083e-002
3.201306e+003,-1.897425e-002
3.203235e+003,-1.905909e-002
3.205163e+003,-1.910646e-002
3.207092e+003,-1.913738e-002
3.209020e+003,-1.909949e-002
3.210948e+003,-1.906137e-002
3.212877e+003,-1.905528e-002
3.214806e+003,-1.905896e-002
3.216734e+003,-1.904865e-002
3.218663e+003,-1.915560e-002
3.220591e+003,-1.924963e-002
3.222520e+003,-1.905236e-002
3.224448e+003,-1.887592e-002
3.226376e+003,-1.867759e-002
3.228305e+003,-1.855157e-002
3.230234e+003,-1.856703e-002
3.232162e+003,-1.859884e-002
3.234091e+003,-1.865696e-002
3.236019e+003,-1.863658e-002
3.237948e+003,-1.861992e-002
3.239876e+003,-1.854061e-002
3.241804e+003,-1.847133e-002
3.243733e+003,-1.853007e-002
3.245662e+003,-1.844977e-002
3.247590e+003,-1.842881e-002
3.249519e+003,-1.842719e-002
3.251447e+003,-1.844685e-002
3.253375e+003,-1.849369e-002
3.255304e+003,-1.841633e-002
3.257232e+003,-1.813076e-002
3.259161e+003,-1.804047e-002
3.261090e+003,-1.816413e-002
3.263018e+003,-1.817827e-002
3.264947e+003,-1.817598e-002
3.266875e+003,-1.816864e-002
3.268803e+003,-1.810244e-002
3.270732e+003,-1.800197e-002
3.272660e+003,-1.791508e-002
3.274589e+003,-1.785228e-002
3.276518e+003,-1.787451e-002
3.278446e+003,-1.795200e-002
3.280375e+003,-1.804371e-002
3.282303e+003,-1.793162e-002
3.284231e+003,-1.786923e-002
3.286160e+003,-1.795905e-002
3.288088e+003,-1.804339e-002
3.290017e+003,-1.804743e-002
3.291946e+003,-1.813769e-002
3.293874e+003,-1.828858e-002
3.295802e+003,-1.830278e-002
3.297731e+003,-1.835646e-002
3.299659e+003,-1.838990e-002
3.301588e+003,-1.836539e-002
3.303516e+003,-1.847019e-002
3.305445e+003,-1.857547e-002
3.307374e+003,-1.867464e-002
3.309302e+003,-1.882303e-002
3.311230e+003,-1.907742e-002
3.313159e+003,-1.922738e-002
3.315087e+003,-1.924377e-002
3.317016e+003,-1.925952e-002
3.318944e+003,-1.934097e-002
3.320873e+003,-1.929629e-002
3.322802e+003,-1.941234e-002
3.324730e+003,-1.964659e-002
3.326658e+003,-1.976735e-002
3.328587e+003,-1.978068e-002
3.330515e+003,-1.965089e-002
3.332444e+003,-1.974598e-002
3.334372e+003,-1.997730e-002
3.336301e+003,-2.000701e-002
3.338229e+003,-2.000929e-002
3.340158e+003,-2.001040e-002
3.342086e+003,-2.000113e-002
3.344015e+003,-1.997297e-002
3.345943e+003,-2.005394e-002
3.347872e+003,-2.020293e-002
3.349800e+003,-2.017931e-002
3.351729e+003,-2.011326e-002
3.353657e+003,-2.022583e-002
3.355586e+003,-2.030505e-002
3.357514e+003,-2.039288e-002
3.359443e+003,-2.031656e-002
3.361371e+003,-2.021735e-002
3.363300e+003,-2.031769e-002
3.365229e+003,-2.052994e-002
3.367157e+003,-2.063962e-002
3.369085e+003,-2.080664e-002
3.371014e+003,-2.094735e-002
3.372942e+003,-2.088417e-002
3.374871e+003,-2.094233e-002
3.376799e+003,-2.097204e-002
3.378728e+003,-2.098893e-002
3.380656e+003,-2.115875e-002
3.382585e+003,-2.137576e-002
3.384513e+003,-2.145505e-002
3.386442e+003,-2.147491e-002
3.388370e+003,-2.139534e-002
3.390299e+003,-2.143609e-002
3.392227e+003,-2.149910e-002
3.394156e+003,-2.151982e-002
3.396084e+003,-2.165681e-002
3.398013e+003,-2.167512e-002
3.399941e+003,-2.166434e-002
3.401870e+003,-2.169447e-002
3.403798e+003,-2.170907e-002
3.405727e+003,-2.183840e-002
3.407655e+003,-2.184732e-002
3.409584e+003,-2.180846e-002
3.411512e+003,-2.187854e-002
3.413441e+003,-2.196045e-002
3.415369e+003,-2.197699e-002
3.417298e+003,-2.203840e-002
3.419226e+003,-2.212255e-002
3.421155e+003,-2.218754e-002
3.423083e+003,-2.219409e-002
3.425012e+003,-2.217617e-002
3.426940e+003,-2.214371e-002
3.428869e+003,-2.215249e-002
3.430797e+003,-2.211323e-002
3.432726e+003,-2.219220e-002
3.434654e+003,-2.235012e-002
3.436583e+003,-2.245091e-002
3.438511e+003,-2.234049e-002
3.440440e+003,-2.220136e-002
3.442368e+003,-2.217337e-002
3.444297e+003,-2.222201e-002
3.446225e+003,-2.231512e-002
3.448154e+003,-2.239629e-002
3.450082e+003,-2.238102e-002
3.452011e+003,-2.244204e-002
3.453939e+003,-2.258650e-002
3.455868e+003,-2.268743e-002
3.457796e+003,-2.256059e-002
3.459725e+003,-2.247030e-002
3.461653e+003,-2.241243e-002
3.463582e+003,-2.247143e-002
3.465510e+003,-2.261450e-002
3.467439e+003,-2.267737e-002
3.469367e+003,-2.270158e-002
3.471296e+003,-2.270413e-002
3.473224e+003,-2.269448e-002
3.475153e+003,-2.278139e-002
3.477081e+003,-2.281047e-002
3.479010e+003,-2.275240e-002
3.480938e+003,-2.269089e-002
3.482867e+003,-2.268070e-002
3.484795e+003,-2.261510e-002
3.486724e+003,-2.263894e-002
3.488652e+003,-2.265561e-002
3.490581e+003,-2.276498e-002
3.492509e+003,-2.285030e-002
3.494438e+003,-2.273268e-002
3.496366e+003,-2.252485e-002
3.498295e+003,-2.274910e-002
3.500223e+003,-2.302596e-002
3.502152e+003,-2.295333e-002
3.504080e+003,-2.286042e-002
3.506009e+003,-2.285234e-002
3.507937e+003,-2.280317e-002
3.509866e+003,-2.277293e-002
3.511794e+003,-2.270184e-002
3.513723e+003,-2.282855e-002
3.515651e+003,-2.302476e-002
3.517580e+003,-2.285527e-002
3.519508e+003,-2.278796e-002
3.521437e+003,-2.282204e-002
3.523365e+003,-2.280908e-002
3.525294e+003,-2.285234e-002
3.527222e+003,-2.285483e-002
3.529151e+003,-2.274447e-002
3.531079e+003,-2.269746e-002
3.533008e+003,-2.285549e-002
3.534936e+003,-2.291254e-002
3.536865e+003,-2.290716e-002
3.538793e+003,-2.281669e-002
3.540722e+003,-2.265809e-002
3.542650e+003,-2.260811e-002
3.544579e+003,-2.259902e-002
3.546507e+003,-2.254703e-002
3.548436e+003,-2.262978e-002
3.550364e+003,-2.268734e-002
3.552293e+003,-2.265039e-002
3.554221e+003,-2.278724e-002
3.556150e+003,-2.295839e-002
3.558078e+003,-2.291930e-002
3.560007e+003,-2.278349e-002
3.561935e+003,-2.256537e-002
3.563864e+003,-2.267020e-002
3.565792e+003,-2.258399e-002
3.567721e+003,-2.239720e-002
3.569649e+003,-2.247989e-002
3.571578e+003,-2.257053e-002
3.573506e+003,-2.258547e-002
3.575435e+003,-2.247306e-002
3.577363e+003,-2.243150e-002
3.579292e+003,-2.250701e-002
3.581220e+003,-2.268639e-002
3.583149e+003,-2.269073e-002
3.585077e+003,-2.262488e-002
3.587006e+003,-2.265117e-002
3.588934e+003,-2.252315e-002
3.590863e+003,-2.256625e-002
3.592791e+003,-2.265630e-002
3.594720e+003,-2.262626e-002
3.596648e+003,-2.255259e-002
3.598577e+003,-2.248313e-002
3.600505e+003,-2.253347e-002
3.602434e+003,-2.270202e-002
3.604362e+003,-2.250553e-002
3.606291e+003,-2.250182e-002
3.608219e+003,-2.259909e-002
3.610148e+003,-2.261456e-002
3.612076e+003,-2.267517e-002
3.614005e+003,-2.271064e-002
3.615933e+003,-2.271731e-002
3.617862e+003,-2.246863e-002
3.619790e+003,-2.230665e-002
3.621719e+003,-2.257203e-002
3.623647e+003,-2.268778e-002
3.625576e+003,-2.265677e-002
3.627504e+003,-2.230691e-002
3.629433e+003,-2.187158e-002
3.631361e+003,-2.231600e-002
3.633290e+003,-2.266778e-002
3.635218e+003,-2.285074e-002
3.637146e+003,-2.282744e-002
3.639075e+003,-2.273781e-002
3.641004e+003,-2.273715e-002
3.642932e+003,-2.289142e-002
3.644861e+003,-2.302904e-002
3.646789e+003,-2.270727e-002
3.648718e+003,-2.238102e-002
3.650646e+003,-2.255131e-002
3.652574e+003,-2.277214e-002
3.654503e+003,-2.270812e-002
3.656432e+003,-2.253957e-002
3.658360e+003,-2.281518e-002
3.660289e+003,-2.297945e-002
3.662217e+003,-2.313150e-002
3.664146e+003,-2.320425e-002
3.666074e+003,-2.324081e-002
3.668002e+003,-2.324370e-002
3.669931e+003,-2.293605e-002
3.671860e+003,-2.323418e-002
3.673788e+003,-2.346261e-002
3.675717e+003,-2.294475e-002
3.677645e+003,-2.315110e-002
3.679573e+003,-2.336774e-002
3.681502e+003,-2.320632e-002
3.683430e+003,-2.312562e-002
3.685359e+003,-2.328983e-002
3.687288e+003,-2.315135e-002
3.689216e+003,-2.286951e-002
3.691145e+003,-2.301235e-002
3.693073e+003,-2.315075e-002
3.695001e+003,-2.335270e-002
3.696930e+003,-2.336956e-002
3.698858e+003,-2.341606e-002
3.700787e+003,-2.325328e-002
3.702716e+003,-2.311569e-002
3.704644e+003,-2.318163e-002
3.706573e+003,-2.335951e-002
3.708501e+003,-2.329011e-002
3.710429e+003,-2.306191e-002
3.712358e+003,-2.287347e-002
3.714286e+003,-2.308418e-002
3.716215e+003,-2.334548e-002
3.718144e+003,-2.324737e-002
3.720072e+003,-2.308365e-002
3.722000e+003,-2.307696e-002
3.723929e+003,-2.341220e-002
3.725857e+003,-2.330390e-002
3.727786e+003,-2.303799e-002
3.729714e+003,-2.327363e-002
3.731643e+003,-2.339496e-002
3.733572e+003,-2.346321e-002
3.735500e+003,-2.316169e-002
3.737428e+003,-2.316071e-002
3.739357e+003,-2.341166e-002
3.741285e+003,-2.327966e-002
3.743214e+003,-2.285633e-002
3.745142e+003,-2.243770e-002
3.747071e+003,-2.303356e-002
3.749000e+003,-2.282339e-002
3.750928e+003,-2.246479e-002
3.752856e+003,-2.235336e-002
3.754785e+003,-2.263494e-002
3.756713e+003,-2.262444e-002
3.758642e+003,-2.271963e-002
3.760570e+003,-2.278777e-002
3.762499e+003,-2.284430e-002
3.764427e+003,-2.291361e-002
3.766356e+003,-2.303749e-002
3.768284e+003,-2.288774e-002
3.770213e+003,-2.258845e-002
3.772141e+003,-2.285589e-002
3.774070e+003,-2.306725e-002
3.775998e+003,-2.302203e-002
3.777927e+003,-2.304393e-002
3.779855e+003,-2.292854e-002
3.781784e+003,-2.283955e-002
3.783712e+003,-2.277790e-002
3.785641e+003,-2.278724e-002
3.787569e+003,-2.287284e-002
3.789498e+003,-2.289579e-002
3.791426e+003,-2.296399e-002
3.793355e+003,-2.309288e-002
3.795283e+003,-2.291433e-002
3.797212e+003,-2.297819e-002
3.799140e+003,-2.309728e-002
3.801069e+003,-2.253680e-002
3.802997e+003,-2.253488e-002
3.804926e+003,-2.305075e-002
3.806854e+003,-2.292206e-002
3.808783e+003,-2.308512e-002
3.810711e+003,-2.307953e-002
3.812640e+003,-2.307831e-002
3.814568e+003,-2.296877e-002
3.816497e+003,-2.260406e-002
3.818425e+003,-2.270819e-002
3.820354e+003,-2.244138e-002
3.822282e+003,-2.238927e-002
3.824211e+003,-2.276086e-002
3.826139e+003,-2.278746e-002
3.828068e+003,-2.265303e-002
3.829996e+003,-2.267674e-002
3.831925e+003,-2.267438e-002
3.833853e+003,-2.255219e-002
3.835782e+003,-2.252869e-002
3.837710e+003,-2.236504e-002
3.839639e+003,-2.256065e-002
3.841567e+003,-2.283615e-002
3.843496e+003,-2.287117e-002
3.845424e+003,-2.276535e-002
3.847353e+003,-2.283169e-002
3.849281e+003,-2.286017e-002
3.851210e+003,-2.270539e-002
3.853138e+003,-2.206344e-002
3.855067e+003,-2.217986e-002
3.856995e+003,-2.272164e-002
3.858924e+003,-2.304104e-002
3.860852e+003,-2.301785e-002
3.862781e+003,-2.261494e-002
3.864709e+003,-2.249292e-002
3.866638e+003,-2.286297e-002
3.868566e+003,-2.287362e-002
3.870495e+003,-2.244311e-002
3.872423e+003,-2.278246e-002
3.874352e+003,-2.280899e-002
3.876280e+003,-2.306750e-002
3.878209e+003,-2.315436e-002
3.880137e+003,-2.284392e-002
3.882066e+003,-2.284735e-002
3.883994e+003,-2.304698e-002
3.885923e+003,-2.273947e-002
3.887851e+003,-2.304579e-002
3.889780e+003,-2.308575e-002
3.891708e+003,-2.293246e-002
3.893637e+003,-2.320139e-002
3.895565e+003,-2.321508e-002
3.897494e+003,-2.299739e-002
3.899422e+003,-2.275677e-002
3.901351e+003,-2.292948e-002
3.903279e+003,-2.287466e-002
3.905208e+003,-2.268856e-002
3.907136e+003,-2.293184e-002
3.909065e+003,-2.306662e-002
3.910993e+003,-2.303686e-002
3.912922e+003,-2.295990e-002
3.914850e+003,-2.314563e-002
3.916779e+003,-2.336312e-002
3.918707e+003,-2.330893e-002
3.920636e+003,-2.327809e-002
3.922564e+003,-2.347715e-002
3.924493e+003,-2.331794e-002
3.926421e+003,-2.322325e-002
3.928350e+003,-2.324012e-002
3.930278e+003,-2.310375e-002
3.932207e+003,-2.302429e-002
3.934135e+003,-2.290305e-002
3.936064e+003,-2.281654e-002
3.937992e+003,-2.306426e-002
3.939921e+003,-2.321088e-002
3.941849e+003,-2.300754e-002
3.943778e+003,-2.294969e-002
3.945706e+003,-2.324367e-002
3.947635e+003,-2.324411e-002
3.949563e+003,-2.323852e-002
3.951492e+003,-2.343935e-002
3.953420e+003,-2.337132e-002
3.955349e+003,-2.315232e-002
3.957277e+003,-2.319884e-002
3.959206e+003,-2.344026e-002
3.961134e+003,-2.347429e-002
3.963063e+003,-2.323776e-002
3.964991e+003,-2.326672e-002
3.966920e+003,-2.337094e-002
3.968848e+003,-2.332017e-002
3.970777e+003,-2.335848e-002
3.972705e+003,-2.337499e-002
3.974634e+003,-2.338397e-002
3.976562e+003,-2.332550e-002
3.978491e+003,-2.337016e-002
3.980419e+003,-2.328286e-002
3.982348e+003,-2.325971e-002
3.984276e+003,-2.318578e-002
3.986205e+003,-2.318801e-002
3.988133e+003,-2.304308e-002
3.990062e+003,-2.307535e-002
3.991990e+003,-2.328782e-002
3.993919e+003,-2.336146e-002
3.995847e+003,-2.338256e-002
3.997776e+003,-2.344064e-002
3.999704e+003,-2.341750e-002
4.001633e+003,0.000000e+000
