3.991989e+002,2.302181e-003
4.011274e+002,4.779982e-003
4.030559e+002,5.031612e-003
4.049844e+002,7.024291e-003
4.069129e+002,8.155502e-003
4.088414e+002,1.148771e-002
4.107699e+002,9.138586e-003
4.126984e+002,3.753428e-003
4.146269e+002,1.018261e-002
4.165554e+002,1.494307e-002
4.184839e+002,8.645903e-003
4.204124e+002,5.136007e-003
4.223409e+002,4.192777e-003
4.242694e+002,5.977374e-003
4.261979e+002,1.340839e-002
4.281264e+002,1.245113e-002
4.300549e+002,5.812285e-004
4.319834e+002,4.172938e-003
4.339119e+002,6.778302e-003
4.358404e+002,2.492590e-003
4.377689e+002,4.829131e-003
4.396974e+002,9.919200e-003
4.416259e+002,4.810938e-003
4.435544e+002,2.561744e-003
4.454829e+002,1.020259e-002
4.474114e+002,1.048477e-002
4.493399e+002,1.049638e-002
4.512684e+002,5.383482e-003
4.531969e+002,9.748364e-004
4.551254e+002,4.101721e-003
4.570539e+002,4.570821e-003
4.589824e+002,2.500352e-004
4.609109e+002,1.841013e-003
4.628394e+002,5.243646e-003
4.647679e+002,6.049403e-003
4.666964e+002,4.832515e-003
4.686249e+002,4.466596e-003
4.705533e+002,5.536585e-003
4.724819e+002,4.992396e-003
4.744103e+002,3.527422e-003
4.763389e+002,5.556285e-003
4.782673e+002,7.254650e-003
4.801959e+002,5.569844e-003
4.821243e+002,3.110470e-003
4.840529e+002,2.762971e-003
4.859813e+002,2.855748e-003
4.879099e+002,2.893172e-003
4.898383e+002,3.743201e-003
4.917668e+002,3.530262e-003
4.936953e+002,2.371005e-003
4.956238e+002,1.271789e-003
4.975523e+002,2.614409e-003
4.994808e+002,3.555750e-003
5.014093e+002,3.090080e-003
5.033378e+002,3.917425e-003
5.052663e+002,3.786951e-003
5.071948e+002,3.562832e-003
5.091233e+002,2.604576e-003
5.110518e+002,2.224608e-003
5.129803e+002,1.519997e-003
5.149088e+002,1.387216e-003
5.168373e+002,1.912660e-003
5.187658e+002,3.128458e-003
5.206943e+002,3.857515e-003
5.226228e+002,2.750333e-003
5.245513e+002,1.069956e-003
5.264798e+002,1.096264e-003
5.284083e+002,2.310975e-003
5.303368e+002,2.635677e-003
5.322653e+002,1.384524e-003
5.341938e+002,7.954148e-004
5.361223e+002,8.791069e-004
5.380508e+002,7.869833e-004
5.399792e+002,1.553814e-003
5.419078e+002,1.902809e-003
5.438363e+002,1.164033e-003
5.457648e+002,2.411485e-003
5.476932e+002,1.988246e-003
5.496218e+002,7.721790e-004
5.515503e+002,1.896053e-003
5.534788e+002,2.993783e-003
5.554072e+002,3.157661e-003
5.573358e+002,2.370672e-003
5.592643e+002,2.134363e-003
5.611927e+002,3.520808e-003
5.631212e+002,1.916787e-003
5.650497e+002,5.300704e-004
5.669783e+002,1.782953e-003
5.689067e+002,1.068229e-003
5.708352e+002,2.597676e-003
5.727637e+002,3.771910e-003
5.746923e+002,9.374120e-004
5.766207e+002,7.259105e-004
5.785492e+002,1.275848e-004
5.804777e+002,-3.368858e-003
5.824063e+002,-1.114821e-003
5.843347e+002,1.852793e-003
5.862632e+002,2.214950e-003
5.881917e+002,2.172058e-003
5.901202e+002,2.382132e-003
5.920487e+002,2.696652e-003
5.939772e+002,1.891195e-003
5.959057e+002,1.444260e-003
5.978342e+002,1.797193e-003
5.997627e+002,1.814095e-003
6.016912e+002,2.267839e-003
6.036197e+002,1.992640e-003
6.055482e+002,1.852194e-003
6.074767e+002,1.485485e-003
6.094052e+002,9.998099e-004
6.113337e+002,2.464032e-003
6.132622e+002,3.646525e-003
6.151907e+002,2.871124e-003
6.171192e+002,1.888532e-003
6.190477e+002,1.348493e-003
6.209762e+002,2.559978e-003
6.229047e+002,2.224308e-003
6.248332e+002,2.338457e-003
6.267617e+002,2.152844e-003
6.286902e+002,7.104112e-004
6.306187e+002,1.732262e-004
6.325472e+002,2.236129e-004
6.344756e+002,5.857740e-004
6.364042e+002,8.355159e-004
6.383326e+002,8.227681e-004
6.402612e+002,4.222335e-004
6.421896e+002,8.196808e-004
6.441182e+002,1.403870e-003
6.460466e+002,9.050710e-004
6.479752e+002,5.094363e-004
6.499036e+002,7.464884e-004
6.518322e+002,6.490173e-004
6.537606e+002,9.466101e-004
6.556891e+002,9.975848e-004
6.576177e+002,8.415247e-004
6.595461e+002,1.012065e-003
6.614746e+002,8.472681e-004
6.634031e+002,6.243626e-004
6.653317e+002,2.195022e-004
6.672601e+002,4.089008e-004
6.691886e+002,8.428859e-004
6.711171e+002,6.320940e-004
6.730457e+002,5.068489e-004
6.749741e+002,6.226039e-004
6.769026e+002,9.975516e-004
6.788311e+002,1.554778e-003
6.807596e+002,1.185795e-003
6.826881e+002,7.256415e-006
6.846166e+002,-8.392041e-005
6.865451e+002,3.619745e-004
6.884736e+002,5.879969e-004
6.904021e+002,8.476997e-004
6.923306e+002,1.200879e-003
6.942591e+002,1.003496e-003
6.961876e+002,7.109091e-004
6.981161e+002,5.416152e-004
7.000446e+002,6.134459e-004
7.019731e+002,8.918895e-004
7.039016e+002,8.388357e-004
7.058301e+002,5.680236e-004
7.077585e+002,2.983751e-004
7.096871e+002,3.929154e-004
7.116156e+002,4.794159e-004
7.135441e+002,8.000953e-004
7.154725e+002,9.469754e-004
7.174011e+002,8.480649e-004
7.193296e+002,9.835704e-004
7.212581e+002,8.216726e-004
7.231865e+002,9.782901e-004
7.251151e+002,1.187988e-003
7.270436e+002,7.490773e-004
7.289720e+002,5.877647e-004
7.309005e+002,3.358771e-004
7.328290e+002,6.599348e-004
7.347576e+002,7.708845e-004
7.366860e+002,9.480380e-004
7.386145e+002,1.473582e-003
7.405430e+002,1.033819e-003
7.424716e+002,4.044899e-004
7.444000e+002,4.505252e-004
7.463285e+002,5.654359e-004
7.482570e+002,6.824344e-004
7.501855e+002,4.862159e-004
7.521140e+002,4.738764e-004
7.540425e+002,9.361503e-004
7.559710e+002,1.276640e-003
7.578995e+002,1.078492e-003
7.598280e+002,1.043982e-003
7.617565e+002,8.901630e-004
7.636850e+002,9.353533e-004
7.656135e+002,1.116461e-003
7.675420e+002,6.067103e-004
7.694705e+002,2.610753e-004
7.713990e+002,4.519846e-004
7.733275e+002,4.756344e-004
7.752560e+002,1.480018e-004
7.771844e+002,4.779895e-004
7.791130e+002,8.773804e-004
7.810415e+002,4.724501e-004
7.829700e+002,3.350149e-004
7.848984e+002,4.724833e-004
7.868270e+002,5.739293e-004
7.887555e+002,7.756311e-004
7.906840e+002,9.915406e-004
7.926124e+002,8.043111e-004
7.945410e+002,1.108123e-003
7.964695e+002,1.274746e-003
7.983979e+002,1.009076e-003
8.003264e+002,1.112541e-003
8.022549e+002,9.503957e-004
8.041835e+002,5.313642e-004
8.061119e+002,8.118465e-004
8.080404e+002,9.371132e-004
8.099689e+002,8.564643e-004
8.118975e+002,7.111414e-004
8.138259e+002,8.619754e-004
8.157545e+002,6.319612e-004
8.176830e+002,2.433051e-004
8.196115e+002,4.740423e-004
8.215399e+002,7.975393e-004
8.234684e+002,5.053561e-004
8.253970e+002,3.153517e-004
8.273254e+002,7.364649e-004
8.292539e+002,1.324962e-003
8.311824e+002,1.358664e-003
8.331110e+002,8.380057e-004
8.350394e+002,6.508756e-004
8.369679e+002,5.355442e-004
8.388964e+002,4.058164e-004
8.408250e+002,5.773798e-004
8.427534e+002,6.255239e-004
8.446819e+002,4.895994e-004
8.466104e+002,6.180913e-004
8.485389e+002,7.393856e-004
8.504674e+002,7.921617e-004
8.523959e+002,6.389627e-004
8.543244e+002,5.771475e-004
8.562529e+002,6.866823e-004
8.581814e+002,6.956759e-004
8.601099e+002,1.018275e-003
8.620384e+002,1.067000e-003
8.639669e+002,9.026472e-004
8.658954e+002,4.624660e-004
8.678239e+002,2.015680e-004
8.697524e+002,4.589169e-004
8.716809e+002,8.483969e-004
8.736094e+002,1.056338e-003
8.755378e+002,1.018707e-003
8.774664e+002,5.403546e-004
8.793949e+002,4.105922e-004
8.813234e+002,5.101329e-004
8.832518e+002,5.911821e-004
8.851804e+002,1.018010e-003
8.871089e+002,1.257898e-003
8.890374e+002,9.732756e-004
8.909658e+002,4.640250e-004
8.928943e+002,4.926511e-004
8.948229e+002,3.581609e-004
8.967513e+002,4.031964e-004
8.986798e+002,5.871343e-004
9.006083e+002,6.186885e-004
9.025369e+002,7.238195e-004
9.044653e+002,7.158210e-004
9.063938e+002,6.440066e-004
9.083223e+002,5.416152e-004
9.102509e+002,5.395584e-004
9.121793e+002,5.399897e-004
9.141078e+002,5.426105e-004
9.160364e+002,4.894004e-004
9.179648e+002,3.857521e-004
9.198933e+002,5.619191e-004
9.218218e+002,7.335773e-004
9.237504e+002,6.315298e-004
9.256788e+002,7.667354e-004
9.276073e+002,8.111162e-004
9.295358e+002,7.254790e-004
9.314644e+002,6.260216e-004
9.333928e+002,2.374040e-004
9.353213e+002,7.820337e-005
9.372498e+002,5.023374e-004
9.391783e+002,6.658749e-004
9.411068e+002,5.786406e-004
9.430353e+002,4.372249e-004
9.449637e+002,4.793827e-004
9.468923e+002,7.506041e-004
9.488208e+002,8.168923e-004
9.507493e+002,7.080881e-004
9.526777e+002,6.221725e-004
9.546063e+002,3.777266e-004
9.565348e+002,4.830978e-004
9.584633e+002,6.874788e-004
9.603917e+002,5.891582e-004
9.623203e+002,3.845914e-004
9.642488e+002,1.135652e-004
9.661772e+002,3.373029e-004
9.681057e+002,7.063955e-004
9.700343e+002,5.450655e-004
9.719628e+002,2.540467e-004
9.738912e+002,5.187912e-004
9.758197e+002,6.236989e-004
9.777483e+002,4.535104e-004
9.796768e+002,4.535435e-004
9.816052e+002,2.190049e-004
9.835337e+002,3.758695e-004
9.854623e+002,6.205799e-004
9.873907e+002,5.914807e-004
9.893192e+002,8.566966e-004
9.912477e+002,6.058144e-004
9.931763e+002,3.992830e-004
9.951047e+002,4.292316e-004
9.970332e+002,4.670434e-004
9.989617e+002,6.350140e-004
1.000890e+003,5.395584e-004
1.002819e+003,2.180436e-004
1.004747e+003,2.811007e-004
1.006676e+003,3.285820e-004
1.008604e+003,4.056175e-004
1.010533e+003,4.488004e-004
1.012461e+003,2.808023e-004
1.014390e+003,8.648846e-005
1.016318e+003,1.915570e-004
1.018247e+003,2.138998e-004
1.020175e+003,1.569843e-004
1.022104e+003,3.017902e-004
1.024032e+003,3.419453e-004
1.025961e+003,3.772623e-004
1.027889e+003,4.278054e-004
1.029818e+003,4.102938e-004
1.031746e+003,4.039924e-004
1.033675e+003,4.962005e-004
1.035603e+003,3.365403e-004
1.037532e+003,3.016908e-004
1.039460e+003,4.615041e-004
1.041389e+003,4.686687e-004
1.043317e+003,1.966619e-004
1.045246e+003,-1.636791e-005
1.047174e+003,3.051752e-005
1.049103e+003,2.977451e-004
1.051031e+003,3.743440e-004
1.052960e+003,3.553422e-004
1.054888e+003,4.740091e-004
1.056817e+003,4.462796e-004
1.058745e+003,1.981868e-004
1.060674e+003,2.612742e-004
1.062602e+003,2.249721e-004
1.064531e+003,2.711210e-004
1.066459e+003,2.971815e-004
1.068388e+003,3.657550e-004
1.070316e+003,2.584561e-004
1.072245e+003,5.016783e-005
1.074173e+003,8.652159e-005
1.076102e+003,1.482339e-004
1.078030e+003,2.293813e-004
1.079959e+003,5.448996e-004
1.081887e+003,4.237591e-004
1.083816e+003,3.662192e-004
1.085744e+003,3.578625e-004
1.087673e+003,4.187178e-004
1.089601e+003,5.239663e-004
1.091530e+003,5.502077e-004
1.093458e+003,2.648548e-004
1.095387e+003,1.828058e-004
1.097315e+003,3.250008e-004
1.099244e+003,2.937995e-004
1.101172e+003,2.975130e-004
1.103101e+003,2.566990e-004
1.105029e+003,2.729777e-004
1.106958e+003,4.393144e-004
1.108886e+003,5.025696e-004
1.110815e+003,4.245882e-004
1.112743e+003,3.933466e-004
1.114672e+003,3.889358e-004
1.116600e+003,2.208945e-004
1.118529e+003,4.814643e-005
1.120457e+003,1.929824e-004
1.122386e+003,4.813066e-004
1.124314e+003,4.079058e-004
1.126243e+003,3.654565e-004
1.128171e+003,4.971293e-004
1.130100e+003,3.614108e-004
1.132028e+003,2.498362e-004
1.133957e+003,1.887394e-004
1.135885e+003,1.618237e-004
1.137814e+003,8.797979e-005
1.139742e+003,-1.796487e-004
1.141671e+003,-1.030678e-004
1.143599e+003,1.731599e-004
1.145528e+003,3.239397e-004
1.147456e+003,2.244748e-004
1.149385e+003,7.883304e-005
1.151313e+003,1.017334e-004
1.153242e+003,3.134617e-004
1.155170e+003,3.273551e-004
1.157099e+003,2.089272e-004
1.159027e+003,2.485101e-004
1.160956e+003,2.989719e-004
1.162884e+003,3.507992e-004
1.164813e+003,2.732430e-004
1.166741e+003,2.813991e-004
1.168670e+003,3.740124e-004
1.170598e+003,4.119520e-004
1.172526e+003,3.777929e-004
1.174455e+003,1.958332e-004
1.176384e+003,9.881695e-005
1.178312e+003,2.331274e-004
1.180240e+003,3.003977e-004
1.182169e+003,1.268888e-004
1.184098e+003,2.756840e-005
1.186026e+003,-1.040396e-005
1.187954e+003,8.380407e-005
1.189883e+003,8.131855e-005
1.191812e+003,2.267291e-004
1.193740e+003,3.401547e-004
1.195668e+003,2.332600e-004
1.197597e+003,2.600143e-004
1.199526e+003,2.821949e-004
1.201454e+003,1.989161e-004
1.203382e+003,2.994361e-004
1.205311e+003,4.100948e-004
1.207240e+003,2.722152e-004
1.209168e+003,9.861810e-005
1.211096e+003,1.722318e-004
1.213025e+003,3.289799e-004
1.214953e+003,3.894332e-004
1.216882e+003,1.837008e-004
1.218810e+003,2.273259e-004
1.220739e+003,3.870786e-004
1.222667e+003,2.766248e-004
1.224596e+003,1.487310e-004
1.226524e+003,2.733424e-004
1.228453e+003,3.863822e-004
1.230381e+003,2.948273e-004
1.232310e+003,1.955680e-004
1.234238e+003,3.180044e-004
1.236167e+003,4.311221e-004
1.238095e+003,3.177391e-004
1.240024e+003,3.623393e-004
1.241952e+003,3.997141e-004
1.243881e+003,3.537837e-004
1.245809e+003,3.129975e-004
1.247738e+003,3.395578e-004
1.249666e+003,3.902292e-004
1.251595e+003,3.241719e-004
1.253523e+003,2.801392e-004
1.255452e+003,2.443329e-004
1.257380e+003,1.450519e-004
1.259309e+003,1.333850e-004
1.261237e+003,2.966841e-004
1.263166e+003,5.061854e-004
1.265094e+003,5.717396e-004
1.267023e+003,4.241571e-004
1.268951e+003,2.873340e-004
1.270880e+003,1.565203e-004
1.272808e+003,1.367657e-004
1.274737e+003,2.151263e-004
1.276665e+003,3.396573e-004
1.278594e+003,4.572916e-004
1.280522e+003,4.557658e-004
1.282451e+003,3.041444e-004
1.284379e+003,2.505325e-004
1.286308e+003,2.158225e-004
1.288236e+003,2.554060e-004
1.290165e+003,4.538089e-004
1.292093e+003,6.189540e-004
1.294022e+003,6.430774e-004
1.295950e+003,4.656171e-004
1.297879e+003,3.764996e-004
1.299807e+003,3.363745e-004
1.301736e+003,2.594839e-004
1.303664e+003,3.131301e-004
1.305593e+003,2.781499e-004
1.307521e+003,2.689328e-004
1.309450e+003,3.437360e-004
1.311378e+003,2.576273e-004
1.313307e+003,1.935791e-004
1.315235e+003,2.341883e-004
1.317164e+003,2.819296e-004
1.319092e+003,2.606443e-004
1.321021e+003,2.785809e-004
1.322949e+003,2.732761e-004
1.324878e+003,2.178115e-004
1.326806e+003,1.545978e-004
1.328735e+003,1.036225e-004
1.330663e+003,1.965956e-004
1.332592e+003,1.309986e-004
1.334520e+003,5.268344e-006
1.336449e+003,5.155963e-005
1.338377e+003,5.056549e-005
1.340306e+003,5.593386e-005
1.342234e+003,1.519130e-004
1.344163e+003,2.238781e-004
1.346091e+003,3.002982e-004
1.348020e+003,2.960210e-004
1.349948e+003,1.822092e-004
1.351877e+003,2.236792e-004
1.353805e+003,2.280220e-004
1.355734e+003,1.919216e-004
1.357662e+003,2.915117e-004
1.359591e+003,2.685018e-004
1.361519e+003,1.925183e-004
1.363448e+003,1.169126e-004
1.365376e+003,2.501678e-004
1.367305e+003,3.013261e-004
1.369233e+003,2.302763e-004
1.371162e+003,7.701034e-005
1.373090e+003,-9.448800e-005
1.375019e+003,-5.732151e-006
1.376947e+003,2.155904e-004
1.378876e+003,1.700772e-004
1.380804e+003,1.118086e-004
1.382733e+003,1.685856e-004
1.384661e+003,2.182093e-004
1.386590e+003,4.705289e-005
1.388518e+003,-1.169616e-005
1.390447e+003,1.859880e-004
1.392375e+003,2.275248e-004
1.394304e+003,-1.722967e-006
1.396232e+003,-5.340879e-005
1.398161e+003,-3.876509e-005
1.400089e+003,-2.289502e-005
1.402018e+003,9.430972e-005
1.403946e+003,9.271894e-005
1.405875e+003,1.364011e-004
1.407803e+003,2.392274e-004
1.409732e+003,1.362685e-004
1.411660e+003,1.222155e-004
1.413589e+003,1.485985e-004
1.415517e+003,-3.505440e-005
1.417446e+003,-3.594549e-004
1.419374e+003,-4.118596e-004
1.421303e+003,1.108475e-004
1.423231e+003,1.462451e-004
1.425160e+003,6.955392e-005
1.427088e+003,1.106155e-004
1.429017e+003,-2.465103e-005
1.430945e+003,-3.777264e-006
1.432874e+003,1.653372e-004
1.434802e+003,1.732945e-005
1.436731e+003,-2.018057e-004
1.438659e+003,1.404448e-004
1.440588e+003,2.247069e-004
1.442516e+003,1.551613e-004
1.444445e+003,2.293481e-004
1.446373e+003,1.017334e-004
1.448302e+003,2.127257e-005
1.450230e+003,1.658675e-004
1.452159e+003,1.278499e-004
1.454087e+003,-1.856103e-004
1.456016e+003,-8.737597e-004
1.457944e+003,-7.498383e-004
1.459873e+003,-4.535813e-005
1.461801e+003,7.273530e-005
1.463730e+003,-1.635851e-004
1.465658e+003,-1.430161e-004
1.467587e+003,4.920684e-005
1.469515e+003,-3.273520e-005
1.471444e+003,-5.468973e-004
1.473372e+003,-6.341200e-004
1.475301e+003,-2.977398e-004
1.477229e+003,-1.376832e-004
1.479158e+003,-3.054851e-005
1.481086e+003,9.036592e-005
1.483015e+003,1.743863e-004
1.484943e+003,6.073894e-005
1.486872e+003,-1.947845e-004
1.488800e+003,-3.141296e-004
1.490729e+003,-1.595774e-004
1.492657e+003,1.292247e-005
1.494586e+003,-1.523236e-004
1.496514e+003,-3.884885e-004
1.498443e+003,-2.340620e-004
1.500371e+003,3.479213e-005
1.502300e+003,1.148578e-004
1.504228e+003,-3.654141e-004
1.506157e+003,-1.220267e-003
1.508085e+003,-9.660742e-004
1.510014e+003,-4.061659e-004
1.511942e+003,-2.378373e-004
1.513871e+003,-1.502700e-004
1.515799e+003,-3.767363e-004
1.517728e+003,-5.377968e-004
1.519656e+003,-6.348809e-004
1.521585e+003,-8.234943e-004
1.523513e+003,-4.773978e-004
1.525442e+003,-3.723001e-004
1.527370e+003,-2.649915e-004
1.529299e+003,-9.912573e-005
1.531227e+003,-2.062767e-004
1.533156e+003,-4.647212e-004
1.535084e+003,-2.537657e-004
1.537013e+003,-4.095424e-004
1.538941e+003,-1.215311e-003
1.540870e+003,-1.360603e-003
1.542798e+003,-7.726938e-004
1.544727e+003,-3.340614e-004
1.546655e+003,1.968207e-005
1.548584e+003,1.099858e-004
1.550512e+003,1.089915e-004
1.552441e+003,4.639013e-005
1.554369e+003,-2.983689e-004
1.556298e+003,-6.326973e-004
1.558226e+003,-1.450106e-003
1.560155e+003,-1.182830e-003
1.562083e+003,-1.624921e-004
1.564012e+003,4.705059e-006
1.565940e+003,-8.289346e-005
1.567869e+003,-1.884587e-004
1.569797e+003,-3.313134e-004
1.571726e+003,-5.321001e-005
1.573654e+003,-1.289054e-004
1.575583e+003,-5.462685e-004
1.577511e+003,-2.560506e-004
1.579440e+003,1.284465e-004
1.581368e+003,1.680221e-004
1.583297e+003,1.086601e-004
1.585225e+003,1.159846e-004
1.587154e+003,2.080322e-004
1.589082e+003,2.345529e-004
1.591010e+003,1.663647e-004
1.592939e+003,4.277815e-005
1.594868e+003,-2.783250e-006
1.596796e+003,7.707661e-005
1.598724e+003,2.026951e-004
1.600653e+003,2.191044e-004
1.602582e+003,1.137972e-004
1.604510e+003,1.235081e-004
1.606438e+003,1.178406e-004
1.608367e+003,1.026614e-004
1.610296e+003,1.341473e-004
1.612224e+003,1.076327e-004
1.614152e+003,-1.548078e-004
1.616081e+003,-5.275378e-004
1.618010e+003,-2.543287e-004
1.619938e+003,4.340776e-005
1.621866e+003,-1.505681e-004
1.623795e+003,-2.612165e-004
1.625724e+003,-2.094229e-004
1.627652e+003,-1.999510e-004
1.629580e+003,5.467461e-005
1.631509e+003,1.221824e-004
1.633438e+003,-2.898923e-004
1.635366e+003,-8.593751e-004
1.637294e+003,-4.566120e-004
1.639223e+003,-5.108968e-005
1.641151e+003,-2.683849e-006
1.643080e+003,2.206783e-005
1.645008e+003,-3.847145e-004
1.646937e+003,-6.967466e-004
1.648865e+003,-3.034349e-004
1.650794e+003,-6.371638e-004
1.652722e+003,-1.474642e-003
1.654651e+003,-7.265185e-004
1.656579e+003,2.909266e-005
1.658508e+003,1.509518e-004
1.660436e+003,-5.271306e-005
1.662365e+003,-3.033356e-004
1.664293e+003,-1.251292e-004
1.666222e+003,-8.136958e-005
1.668150e+003,-3.726974e-004
1.670079e+003,-3.844497e-004
1.672007e+003,-1.899490e-004
1.673936e+003,-2.828394e-004
1.675864e+003,-3.010509e-004
1.677793e+003,-3.081356e-005
1.679721e+003,-8.494737e-005
1.681650e+003,-3.846484e-004
1.683578e+003,-1.047494e-003
1.685507e+003,-7.416682e-004
1.687435e+003,-1.595442e-004
1.689364e+003,2.882757e-005
1.691292e+003,1.673923e-004
1.693221e+003,-6.331453e-005
1.695149e+003,-6.836795e-004
1.697078e+003,-7.542706e-004
1.699006e+003,-1.067525e-003
1.700935e+003,-1.124636e-003
1.702863e+003,-3.223077e-004
1.704792e+003,-2.719122e-004
1.706720e+003,-2.757533e-004
1.708649e+003,-1.337084e-004
1.710577e+003,-1.222143e-004
1.712506e+003,-2.855216e-004
1.714434e+003,-5.254860e-004
1.716363e+003,-9.282514e-004
1.718291e+003,-8.948893e-004
1.720220e+003,-2.042564e-004
1.722148e+003,1.070361e-004
1.724077e+003,1.004409e-004
1.726005e+003,9.295093e-005
1.727934e+003,-3.942933e-006
1.729862e+003,-1.422874e-004
1.731791e+003,-3.689895e-004
1.733719e+003,-8.790174e-004
1.735648e+003,-5.047356e-004
1.737576e+003,-9.369296e-005
1.739505e+003,-1.655392e-004
1.741433e+003,-9.415673e-005
1.743362e+003,-5.281245e-005
1.745290e+003,1.732945e-005
1.747219e+003,-7.765924e-005
1.749147e+003,-2.448247e-004
1.751076e+003,-2.803560e-004
1.753004e+003,-4.131618e-005
1.754933e+003,7.620896e-006
1.756861e+003,-3.369601e-005
1.758790e+003,-8.117764e-006
1.760718e+003,-1.828283e-004
1.762647e+003,-9.836382e-005
1.764575e+003,7.111147e-005
1.766504e+003,-9.700564e-005
1.768432e+003,-1.941552e-004
1.770361e+003,-2.825745e-004
1.772289e+003,-4.415516e-004
1.774218e+003,-1.906777e-004
1.776146e+003,-1.693116e-005
1.778075e+003,5.189101e-005
1.780003e+003,3.200866e-005
1.781932e+003,-2.610884e-005
1.783860e+003,-3.200630e-005
1.785789e+003,-2.117213e-005
1.787717e+003,-7.454519e-005
1.789646e+003,-2.312140e-004
1.791574e+003,-4.110320e-004
1.793503e+003,-2.195238e-004
1.795431e+003,-7.388828e-006
1.797360e+003,-4.916813e-005
1.799288e+003,-2.468447e-004
1.801217e+003,-2.278361e-004
1.803145e+003,-6.533541e-005
1.805074e+003,4.423620e-005
1.807002e+003,1.498248e-004
1.808931e+003,1.140292e-004
1.810859e+003,4.940566e-005
1.812788e+003,4.764936e-005
1.814716e+003,4.870977e-005
1.816645e+003,2.524887e-005
1.818573e+003,4.516404e-005
1.820502e+003,3.800640e-005
1.822430e+003,1.328695e-005
1.824359e+003,-1.244999e-004
1.826287e+003,-1.160199e-004
1.828216e+003,-1.583850e-004
1.830144e+003,-2.481362e-004
1.832073e+003,-1.377826e-004
1.834001e+003,-4.131618e-005
1.835930e+003,2.982166e-005
1.837858e+003,6.309179e-005
1.839787e+003,1.140955e-004
1.841715e+003,-5.393887e-005
1.843644e+003,-4.382416e-004
1.845572e+003,-2.857864e-004
1.847501e+003,-3.230449e-005
1.849429e+003,6.014245e-005
1.851358e+003,9.898265e-005
1.853286e+003,7.883304e-005
1.855215e+003,4.652268e-005
1.857143e+003,2.389030e-005
1.859072e+003,-4.134931e-005
1.861000e+003,-1.225942e-005
1.862929e+003,3.386431e-005
1.864857e+003,1.958266e-005
1.866786e+003,-1.097923e-004
1.868714e+003,-2.048195e-004
1.870643e+003,-1.200280e-004
1.872571e+003,4.572521e-006
1.874500e+003,8.581801e-006
1.876428e+003,6.730045e-005
1.878357e+003,1.485322e-004
1.880285e+003,1.434609e-004
1.882214e+003,7.909816e-005
1.884142e+003,-1.464500e-005
1.886071e+003,-2.209984e-005
1.887999e+003,-5.549597e-005
1.889928e+003,-9.518366e-005
1.891856e+003,8.831119e-005
1.893785e+003,1.804855e-004
1.895713e+003,1.348765e-004
1.897642e+003,4.914056e-005
1.899570e+003,-5.632750e-006
1.901499e+003,1.487744e-005
1.903427e+003,5.649721e-005
1.905356e+003,3.422881e-005
1.907284e+003,4.675465e-005
1.909213e+003,2.876130e-005
1.911141e+003,9.106188e-005
1.913070e+003,9.626505e-005
1.914998e+003,1.510938e-005
1.916927e+003,-1.846830e-004
1.918855e+003,-2.254517e-004
1.920784e+003,-9.892698e-005
1.922712e+003,-6.334767e-005
1.924641e+003,-1.795828e-005
1.926569e+003,-4.270768e-005
1.928498e+003,5.212297e-005
1.930426e+003,9.775642e-005
1.932355e+003,-6.947653e-005
1.934283e+003,-1.969372e-004
1.936212e+003,-1.365902e-004
1.938140e+003,-4.996326e-005
1.940069e+003,-9.541555e-005
1.941997e+003,-1.398031e-004
1.943926e+003,-7.563843e-005
1.945854e+003,-1.978057e-005
1.947783e+003,-0.000000e+000
1.949711e+003,4.440188e-005
1.951640e+003,1.078315e-004
1.953568e+003,2.548082e-005
1.955497e+003,8.449262e-006
1.957425e+003,1.769394e-005
1.959354e+003,-4.005721e-005
1.961282e+003,6.096706e-006
1.963211e+003,1.911876e-005
1.965139e+003,5.036403e-006
1.967068e+003,-4.638518e-005
1.968996e+003,-8.482231e-006
1.970925e+003,5.308398e-005
1.972853e+003,7.210566e-005
1.974782e+003,8.158367e-005
1.976710e+003,1.007723e-004
1.978639e+003,9.722616e-005
1.980567e+003,2.644177e-005
1.982496e+003,8.151050e-006
1.984424e+003,4.678778e-005
1.986353e+003,5.212297e-005
1.988281e+003,-3.313391e-006
1.990210e+003,-7.905062e-005
1.992138e+003,-7.666540e-005
1.994067e+003,2.398971e-005
1.995995e+003,4.052482e-005
1.997924e+003,1.656702e-007
1.999852e+003,-1.356627e-004
2.001781e+003,-1.505681e-004
2.003709e+003,-5.089090e-005
2.005638e+003,-6.229155e-006
2.007566e+003,6.925070e-006
2.009495e+003,3.379685e-006
2.011423e+003,7.058124e-005
2.013352e+003,1.042853e-004
2.015280e+003,8.383721e-005
2.017208e+003,1.096751e-005
2.019137e+003,4.251305e-005
2.021066e+003,8.075516e-005
2.022994e+003,4.963763e-005
2.024922e+003,6.153427e-005
2.026851e+003,3.379803e-005
2.028780e+003,-5.321001e-005
2.030708e+003,-5.980282e-005
2.032636e+003,-1.007821e-004
2.034565e+003,-1.226780e-004
2.036494e+003,-6.248630e-005
2.038422e+003,-6.921149e-005
2.040350e+003,-8.050825e-005
2.042279e+003,-8.266156e-005
2.044208e+003,-6.487160e-005
2.046136e+003,-1.225786e-004
2.048064e+003,-1.400350e-004
2.049993e+003,2.982065e-007
2.051921e+003,7.203937e-005
2.053850e+003,4.658896e-005
2.055778e+003,5.367748e-006
2.057707e+003,-3.273520e-005
2.059635e+003,-3.644592e-005
2.061564e+003,-5.970343e-005
2.063492e+003,-1.663010e-004
2.065421e+003,-1.943539e-004
2.067349e+003,-9.193723e-005
2.069278e+003,1.408219e-005
2.071206e+003,2.786662e-005
2.073135e+003,5.798496e-006
2.075063e+003,-4.555691e-005
2.076992e+003,2.322758e-005
2.078920e+003,-2.909071e-005
2.080849e+003,-1.574244e-004
2.082777e+003,-1.409956e-004
2.084706e+003,-1.379482e-004
2.086634e+003,-8.242967e-005
2.088563e+003,-3.644592e-005
2.090491e+003,2.326072e-005
2.092420e+003,6.693591e-005
2.094348e+003,6.527455e-006
2.096277e+003,-6.808512e-005
2.098205e+003,-7.086793e-005
2.100134e+003,-1.580465e-005
2.102062e+003,1.848919e-005
2.103991e+003,1.954952e-005
2.105919e+003,8.018512e-006
2.107848e+003,7.289495e-007
2.109776e+003,-7.885830e-006
2.111705e+003,-6.066419e-005
2.113633e+003,-1.118792e-004
2.115562e+003,-8.100517e-005
2.117490e+003,-7.543965e-005
2.119419e+003,-1.071423e-004
2.121347e+003,-4.787605e-005
2.123276e+003,-4.621952e-005
2.125204e+003,-1.345696e-004
2.127133e+003,-9.332856e-005
2.129061e+003,-8.110455e-005
2.130990e+003,-8.594120e-005
2.132918e+003,-8.110455e-005
2.134847e+003,-4.658396e-005
2.136775e+003,-8.040887e-005
2.138704e+003,-6.357957e-005
2.140632e+003,-2.925637e-005
2.142561e+003,-2.776544e-005
2.144489e+003,1.345263e-005
2.146418e+003,-5.923962e-005
2.148346e+003,-1.471233e-004
2.150275e+003,-1.599086e-004
2.152203e+003,-1.183387e-004
2.154132e+003,-1.203924e-004
2.156060e+003,-1.468915e-004
2.157989e+003,-1.365902e-004
2.159917e+003,-1.092623e-004
2.161846e+003,-1.009808e-004
2.163774e+003,-1.444073e-004
2.165703e+003,-1.228436e-004
2.167631e+003,-4.618640e-005
2.169560e+003,-4.830674e-005
2.171488e+003,-9.876134e-005
2.173417e+003,-1.695138e-004
2.175345e+003,-1.785889e-004
2.177274e+003,-2.162121e-004
2.179202e+003,-3.051236e-004
2.181131e+003,-2.999251e-004
2.183059e+003,-1.752106e-004
2.184988e+003,-7.116608e-005
2.186916e+003,-1.395382e-004
2.188845e+003,-2.229680e-004
2.190773e+003,-2.354529e-004
2.192702e+003,-1.600079e-004
2.194630e+003,-9.140719e-005
2.196559e+003,-7.759299e-005
2.198487e+003,-5.513154e-005
2.200416e+003,-1.713355e-004
2.202344e+003,-3.054547e-004
2.204273e+003,-2.825414e-004
2.206201e+003,-2.702565e-004
2.208130e+003,-2.458512e-004
2.210058e+003,-2.357178e-004
2.211987e+003,-2.705214e-004
2.213915e+003,-2.425397e-004
2.215844e+003,-2.556864e-004
2.217772e+003,-2.637994e-004
2.219701e+003,-1.234068e-004
2.221629e+003,-1.399688e-004
2.223558e+003,-2.034616e-004
2.225486e+003,-1.465934e-004
2.227415e+003,-1.575569e-004
2.229343e+003,-1.738195e-004
2.231272e+003,-2.495270e-004
2.233200e+003,-3.634939e-004
2.235129e+003,-4.287085e-004
2.237057e+003,-4.488005e-004
2.238986e+003,-3.696848e-004
2.240914e+003,-2.825414e-004
2.242843e+003,-1.812716e-004
2.244771e+003,-1.601404e-004
2.246700e+003,-2.398573e-004
2.248628e+003,-2.829057e-004
2.250557e+003,-2.590971e-004
2.252485e+003,-2.743626e-004
2.254414e+003,-2.773096e-004
2.256342e+003,-2.340951e-004
2.258271e+003,-2.695611e-004
2.260199e+003,-2.660180e-004
2.262128e+003,-1.886574e-004
2.264056e+003,-2.005140e-004
2.265985e+003,-2.368438e-004
2.267913e+003,-2.188946e-004
2.269842e+003,-2.249550e-004
2.271770e+003,-2.837666e-004
2.273699e+003,-3.286647e-004
2.275627e+003,-2.943293e-004
2.277556e+003,-2.933360e-004
2.279484e+003,-3.016138e-004
2.281413e+003,-1.973678e-004
2.283341e+003,-2.573421e-004
2.285270e+003,-4.060997e-004
2.287198e+003,-3.672680e-004
2.289127e+003,-3.081366e-004
2.291055e+003,-1.925324e-004
2.292984e+003,-1.355633e-004
2.294912e+003,-2.441955e-004
2.296841e+003,-2.545936e-004
2.298769e+003,-2.296907e-004
2.300698e+003,-3.475033e-004
2.302626e+003,-3.671025e-004
2.304555e+003,-2.080651e-004
2.306483e+003,-2.116087e-004
2.308412e+003,-3.091631e-004
2.310340e+003,-3.252213e-004
2.312269e+003,-3.271748e-004
2.314197e+003,-3.712407e-004
2.316125e+003,-3.594218e-004
2.318054e+003,-4.329123e-004
2.319983e+003,-4.769345e-004
2.321911e+003,-4.502238e-004
2.323840e+003,-4.045769e-004
2.325768e+003,-3.636926e-004
2.327697e+003,-4.012666e-004
2.329625e+003,-5.200586e-004
2.331553e+003,-6.691563e-004
2.333482e+003,-7.960773e-004
2.335411e+003,-7.046199e-004
2.337339e+003,-6.150953e-004
2.339268e+003,-6.353441e-004
2.341196e+003,-6.310430e-004
2.343125e+003,-5.297551e-004
2.345053e+003,-3.718366e-004
2.346981e+003,-2.929717e-004
2.348910e+003,-2.999583e-004
2.350839e+003,-3.855753e-004
2.352767e+003,-4.167256e-004
2.354696e+003,-5.195291e-004
2.356624e+003,-5.942829e-004
2.358552e+003,-6.656495e-004
2.360481e+003,-6.760706e-004
2.362409e+003,-7.022711e-004
2.364338e+003,-6.336567e-004
2.366267e+003,-4.976531e-004
2.368195e+003,-4.882868e-004
2.370124e+003,-4.776295e-004
2.372052e+003,-4.550563e-004
2.373980e+003,-4.315221e-004
2.375909e+003,-3.725319e-004
2.377838e+003,-2.210472e-004
2.379766e+003,-1.167155e-004
2.381695e+003,-2.972022e-005
2.383623e+003,-2.561186e-005
2.385552e+003,-1.622271e-004
2.387480e+003,-1.516280e-004
2.389408e+003,-1.123761e-004
2.391337e+003,-1.983944e-004
2.393266e+003,-2.379697e-004
2.395194e+003,-2.042896e-004
2.397123e+003,-1.059497e-004
2.399051e+003,-1.249967e-004
2.400979e+003,-1.401675e-004
2.402908e+003,-1.235061e-004
2.404836e+003,-8.991647e-005
2.406765e+003,-8.448358e-005
2.408694e+003,-1.133699e-004
2.410622e+003,-9.790005e-005
2.412551e+003,-7.454519e-005
2.414479e+003,-1.375507e-004
2.416407e+003,-1.759724e-004
2.418336e+003,-2.242595e-004
2.420264e+003,-2.036272e-004
2.422193e+003,-2.168744e-004
2.424122e+003,-1.878294e-004
2.426050e+003,-1.773303e-004
2.427979e+003,-1.571594e-004
2.429907e+003,-2.229680e-004
2.431835e+003,-2.897268e-004
2.433764e+003,-3.021436e-004
2.435692e+003,-2.768791e-004
2.437621e+003,-2.926737e-004
2.439550e+003,-2.461162e-004
2.441478e+003,-1.592793e-004
2.443406e+003,-1.596767e-004
2.445335e+003,-2.891639e-004
2.447263e+003,-3.160169e-004
2.449192e+003,-2.373074e-004
2.451121e+003,-1.723622e-004
2.453049e+003,-2.069390e-004
2.454978e+003,-3.078718e-004
2.456906e+003,-3.180697e-004
2.458834e+003,-2.044552e-004
2.460763e+003,-1.510981e-004
2.462691e+003,-1.695138e-004
2.464620e+003,-1.546090e-004
2.466549e+003,-1.664666e-004
2.468477e+003,-2.735347e-004
2.470406e+003,-2.811838e-004
2.472334e+003,-2.569778e-004
2.474262e+003,-3.595543e-004
2.476191e+003,-4.025907e-004
2.478119e+003,-3.065473e-004
2.480048e+003,-2.621436e-004
2.481977e+003,-2.973425e-004
2.483905e+003,-3.114146e-004
2.485833e+003,-2.007128e-004
2.487762e+003,-1.024384e-004
2.489690e+003,-9.200348e-005
2.491619e+003,-1.642475e-004
2.493547e+003,-3.061831e-004
2.495476e+003,-3.354189e-004
2.497405e+003,-2.905877e-004
2.499333e+003,-2.405528e-004
2.501261e+003,-2.217758e-004
2.503190e+003,-2.403541e-004
2.505118e+003,-3.205198e-004
2.507047e+003,-3.824303e-004
2.508975e+003,-3.489600e-004
2.510904e+003,-3.489600e-004
2.512833e+003,-3.780936e-004
2.514761e+003,-3.328033e-004
2.516689e+003,-3.749817e-004
2.518618e+003,-3.481654e-004
2.520546e+003,-2.540306e-004
2.522475e+003,-2.642298e-004
2.524403e+003,-3.307505e-004
2.526332e+003,-3.144938e-004
2.528260e+003,-2.834686e-004
2.530189e+003,-2.085949e-004
2.532117e+003,-2.629715e-004
2.534046e+003,-3.161493e-004
2.535974e+003,-3.090306e-004
2.537903e+003,-3.581638e-004
2.539831e+003,-3.243274e-004
2.541760e+003,-3.031700e-004
2.543688e+003,-2.599250e-004
2.545617e+003,-2.497257e-004
2.547545e+003,-2.592627e-004
2.549474e+003,-2.144899e-004
2.551402e+003,-2.206498e-004
2.553331e+003,-2.730711e-004
2.555259e+003,-3.040971e-004
2.557188e+003,-3.215462e-004
2.559116e+003,-3.944803e-004
2.561045e+003,-3.136329e-004
2.562973e+003,-2.019050e-004
2.564902e+003,-2.505536e-004
2.566830e+003,-2.121717e-004
2.568759e+003,-2.501562e-004
2.570687e+003,-3.289295e-004
2.572616e+003,-3.760741e-004
2.574544e+003,-4.328461e-004
2.576473e+003,-4.053052e-004
2.578401e+003,-4.063645e-004
2.580330e+003,-4.981165e-004
2.582258e+003,-4.695867e-004
2.584187e+003,-4.026569e-004
2.586115e+003,-3.658776e-004
2.588044e+003,-3.527342e-004
2.589972e+003,-4.010018e-004
2.591901e+003,-3.929244e-004
2.593829e+003,-3.869326e-004
2.595758e+003,-3.876940e-004
2.597686e+003,-3.165797e-004
2.599615e+003,-2.478713e-004
2.601543e+003,-3.112490e-004
2.603472e+003,-2.892963e-004
2.605400e+003,-2.963822e-004
2.607329e+003,-3.525687e-004
2.609257e+003,-3.788550e-004
2.611186e+003,-3.743196e-004
2.613114e+003,-3.145600e-004
2.615043e+003,-2.870447e-004
2.616971e+003,-3.547869e-004
2.618900e+003,-4.356928e-004
2.620828e+003,-4.414854e-004
2.622757e+003,-4.070596e-004
2.624685e+003,-4.243722e-004
2.626614e+003,-3.670694e-004
2.628542e+003,-3.319425e-004
2.630471e+003,-3.409810e-004
2.632399e+003,-3.782260e-004
2.634328e+003,-3.836221e-004
2.636256e+003,-4.168249e-004
2.638185e+003,-4.759746e-004
2.640113e+003,-3.964997e-004
2.642042e+003,-3.249896e-004
2.643970e+003,-2.645941e-004
2.645899e+003,-2.583686e-004
2.647827e+003,-2.697929e-004
2.649756e+003,-3.562105e-004
2.651684e+003,-4.232798e-004
2.653613e+003,-3.975259e-004
2.655541e+003,-3.771004e-004
2.657470e+003,-4.309262e-004
2.659398e+003,-4.580353e-004
2.661327e+003,-4.473772e-004
2.663255e+003,-3.463776e-004
2.665184e+003,-3.000245e-004
2.667112e+003,-3.880581e-004
2.669041e+003,-4.347329e-004
2.670969e+003,-3.952417e-004
2.672898e+003,-3.309492e-004
2.674826e+003,-3.435304e-004
2.676755e+003,-3.436959e-004
2.678683e+003,-4.206648e-004
2.680612e+003,-4.413861e-004
2.682540e+003,-4.161960e-004
2.684469e+003,-4.286754e-004
2.686397e+003,-3.851118e-004
2.688326e+003,-4.253983e-004
2.690254e+003,-4.146402e-004
2.692183e+003,-3.556808e-004
2.694111e+003,-3.409479e-004
2.696040e+003,-2.602230e-004
2.697968e+003,-2.892963e-004
2.699897e+003,-3.842511e-004
2.701825e+003,-3.857408e-004
2.703754e+003,-3.402196e-004
2.705682e+003,-3.446560e-004
2.707611e+003,-4.240743e-004
2.709539e+003,-4.879227e-004
2.711468e+003,-3.631960e-004
2.713396e+003,-2.231336e-004
2.715325e+003,-2.433676e-004
2.717253e+003,-3.288965e-004
2.719182e+003,-5.086078e-004
2.721110e+003,-5.667523e-004
2.723039e+003,-4.694874e-004
2.724967e+003,-4.469138e-004
2.726896e+003,-4.107672e-004
2.728824e+003,-4.117603e-004
2.730753e+003,-3.807089e-004
2.732681e+003,-3.695854e-004
2.734610e+003,-4.340046e-004
2.736538e+003,-4.918281e-004
2.738467e+003,-5.026175e-004
2.740395e+003,-5.880953e-004
2.742324e+003,-6.402077e-004
2.744252e+003,-4.985798e-004
2.746181e+003,-3.499863e-004
2.748109e+003,-3.412459e-004
2.750038e+003,-4.180497e-004
2.751966e+003,-4.625036e-004
2.753895e+003,-5.153922e-004
2.755823e+003,-4.486350e-004
2.757752e+003,-3.793185e-004
2.759680e+003,-4.319855e-004
2.761609e+003,-4.318200e-004
2.763537e+003,-3.491255e-004
2.765466e+003,-3.223739e-004
2.767394e+003,-3.848139e-004
2.769323e+003,-4.314228e-004
2.771251e+003,-4.743197e-004
2.773180e+003,-5.298213e-004
2.775108e+003,-5.791612e-004
2.777037e+003,-6.022573e-004
2.778965e+003,-4.936153e-004
2.780894e+003,-3.738561e-004
2.782822e+003,-3.166129e-004
2.784750e+003,-1.794500e-004
2.786679e+003,-3.227712e-004
2.788608e+003,-5.023527e-004
2.790536e+003,-5.240961e-004
2.792465e+003,-4.768021e-004
2.794393e+003,-3.842842e-004
2.796322e+003,-3.634277e-004
2.798250e+003,-3.584617e-004
2.800178e+003,-3.700489e-004
2.802107e+003,-3.556808e-004
2.804036e+003,-4.256300e-004
2.805964e+003,-6.063933e-004
2.807893e+003,-6.171467e-004
2.809821e+003,-5.344213e-004
2.811750e+003,-4.749486e-004
2.813678e+003,-4.196717e-004
2.815606e+003,-3.690226e-004
2.817535e+003,-3.419743e-004
2.819464e+003,-3.379020e-004
2.821392e+003,-4.299663e-004
2.823321e+003,-4.328130e-004
2.825249e+003,-4.681966e-004
2.827177e+003,-4.067948e-004
2.829106e+003,-4.256631e-004
2.831034e+003,-4.483702e-004
2.832963e+003,-3.762728e-004
2.834892e+003,-3.512775e-004
2.836820e+003,-4.056031e-004
2.838749e+003,-3.412459e-004
2.840677e+003,-3.519728e-004
2.842605e+003,-5.480886e-004
2.844534e+003,-6.159224e-004
2.846462e+003,-4.613452e-004
2.848391e+003,-3.820000e-004
2.850320e+003,-3.452851e-004
2.852248e+003,-4.315221e-004
2.854177e+003,-6.120182e-004
2.856105e+003,-6.037462e-004
2.858033e+003,-4.873270e-004
2.859962e+003,-5.359105e-004
2.861890e+003,-5.344875e-004
2.863819e+003,-5.528870e-004
2.865748e+003,-5.823047e-004
2.867676e+003,-5.254198e-004
2.869604e+003,-4.659459e-004
2.871533e+003,-5.251551e-004
2.873461e+003,-5.598693e-004
2.875390e+003,-5.569241e-004
2.877319e+003,-5.808157e-004
2.879247e+003,-4.959652e-004
2.881176e+003,-4.260273e-004
2.883104e+003,-3.784577e-004
2.885032e+003,-4.471786e-004
2.886961e+003,-6.184371e-004
2.888889e+003,-5.168815e-004
2.890818e+003,-4.098403e-004
2.892747e+003,-3.556808e-004
2.894675e+003,-4.216909e-004
2.896604e+003,-4.055369e-004
2.898532e+003,-3.323067e-004
2.900460e+003,-3.745513e-004
2.902389e+003,-4.356597e-004
2.904317e+003,-3.991480e-004
2.906246e+003,-3.595543e-004
2.908175e+003,-4.590283e-004
2.910103e+003,-5.563616e-004
2.912031e+003,-5.952756e-004
2.913960e+003,-5.016246e-004
2.915888e+003,-4.183807e-004
2.917817e+003,-4.486681e-004
2.919745e+003,-4.005383e-004
2.921674e+003,-3.893492e-004
2.923603e+003,-3.940169e-004
2.925531e+003,-5.438859e-004
2.927459e+003,-5.374328e-004
2.929388e+003,-5.135390e-004
2.931316e+003,-5.369695e-004
2.933245e+003,-4.850764e-004
2.935173e+003,-5.277695e-004
2.937102e+003,-4.488998e-004
2.939031e+003,-4.476420e-004
2.940959e+003,-5.975587e-004
2.942887e+003,-5.917682e-004
2.944816e+003,-4.800125e-004
2.946744e+003,-4.583663e-004
2.948673e+003,-5.103618e-004
2.950601e+003,-4.665748e-004
2.952530e+003,-4.289733e-004
2.954458e+003,-4.173877e-004
2.956387e+003,-4.245377e-004
2.958315e+003,-5.218456e-004
2.960244e+003,-5.325019e-004
2.962172e+003,-4.019287e-004
2.964101e+003,-3.308499e-004
2.966029e+003,-3.578658e-004
2.967958e+003,-3.504498e-004
2.969886e+003,-3.492580e-004
2.971815e+003,-4.869960e-004
2.973743e+003,-4.774309e-004
2.975672e+003,-4.809393e-004
2.977600e+003,-4.692226e-004
2.979529e+003,-4.653501e-004
2.981457e+003,-4.158319e-004
2.983386e+003,-4.164608e-004
2.985314e+003,-4.424122e-004
2.987243e+003,-4.939794e-004
2.989171e+003,-4.782253e-004
2.991100e+003,-5.346861e-004
2.993028e+003,-5.902130e-004
2.994957e+003,-5.737675e-004
2.996885e+003,-4.636952e-004
2.998814e+003,-4.953364e-004
3.000742e+003,-4.936816e-004
3.002671e+003,-4.732937e-004
3.004599e+003,-5.333954e-004
3.006528e+003,-5.145649e-004
3.008456e+003,-4.192414e-004
3.010385e+003,-5.145318e-004
3.012313e+003,-5.361753e-004
3.014242e+003,-5.218456e-004
3.016170e+003,-5.667523e-004
3.018099e+003,-4.944428e-004
3.020027e+003,-4.015645e-004
3.021956e+003,-4.145078e-004
3.023884e+003,-3.603488e-004
3.025813e+003,-3.823641e-004
3.027741e+003,-3.991480e-004
3.029670e+003,-3.831586e-004
3.031598e+003,-4.459870e-004
3.033527e+003,-4.014652e-004
3.035455e+003,-5.036104e-004
3.037384e+003,-6.106946e-004
3.039312e+003,-5.764478e-004
3.041241e+003,-3.872305e-004
3.043169e+003,-3.772990e-004
3.045098e+003,-5.080121e-004
3.047026e+003,-5.560969e-004
3.048955e+003,-4.910008e-004
3.050883e+003,-4.180166e-004
3.052812e+003,-4.968919e-004
3.054740e+003,-5.617224e-004
3.056669e+003,-4.898093e-004
3.058597e+003,-3.499532e-004
3.060526e+003,-4.007369e-004
3.062454e+003,-4.715064e-004
3.064383e+003,-5.056623e-004
3.066311e+003,-6.313738e-004
3.068240e+003,-6.105292e-004
3.070168e+003,-5.147635e-004
3.072097e+003,-4.442989e-004
3.074025e+003,-3.594549e-004
3.075954e+003,-4.239750e-004
3.077882e+003,-5.123475e-004
3.079811e+003,-4.529711e-004
3.081739e+003,-4.196055e-004
3.083668e+003,-4.812040e-004
3.085596e+003,-5.808157e-004
3.087525e+003,-5.547070e-004
3.089453e+003,-4.233460e-004
3.091382e+003,-4.173546e-004
3.093310e+003,-4.632649e-004
3.095239e+003,-5.497432e-004
3.097167e+003,-5.458053e-004
3.099096e+003,-3.836552e-004
3.101024e+003,-4.391022e-004
3.102953e+003,-6.260470e-004
3.104881e+003,-5.730395e-004
3.106810e+003,-4.172222e-004
3.108738e+003,-4.058679e-004
3.110667e+003,-4.728303e-004
3.112595e+003,-4.697191e-004
3.114524e+003,-3.758093e-004
3.116452e+003,-3.844828e-004
3.118381e+003,-4.564465e-004
3.120309e+003,-3.602826e-004
3.122238e+003,-2.381022e-004
3.124166e+003,-3.257180e-004
3.126095e+003,-3.823641e-004
3.128023e+003,-3.582631e-004
3.129952e+003,-3.629642e-004
3.131880e+003,-4.403600e-004
3.133809e+003,-6.146652e-004
3.135737e+003,-5.515964e-004
3.137666e+003,-4.116609e-004
3.139594e+003,-5.351494e-004
3.141523e+003,-5.717159e-004
3.143451e+003,-3.212151e-004
3.145380e+003,-3.143945e-004
3.147308e+003,-4.783246e-004
3.149237e+003,-5.088726e-004
3.151165e+003,-4.483371e-004
3.153094e+003,-4.205324e-004
3.155022e+003,-4.815681e-004
3.156951e+003,-7.226152e-004
3.158879e+003,-6.962835e-004
3.160808e+003,-5.142008e-004
3.162736e+003,-5.679435e-004
3.164665e+003,-6.959858e-004
3.166593e+003,-6.400092e-004
3.168522e+003,-5.474930e-004
3.170450e+003,-4.673360e-004
3.172379e+003,-4.191421e-004
3.174307e+003,-4.409227e-004
3.176236e+003,-3.585942e-004
3.178164e+003,-4.067286e-004
3.180093e+003,-5.681420e-004
3.182021e+003,-6.587681e-004
3.183950e+003,-5.874666e-004
3.185878e+003,-4.924239e-004
3.187807e+003,-4.700832e-004
3.189735e+003,-5.357781e-004
3.191664e+003,-5.862754e-004
3.193592e+003,-6.818269e-004
3.195521e+003,-6.137387e-004
3.197449e+003,-4.063645e-004
3.199378e+003,-3.933548e-004
3.201306e+003,-4.473772e-004
3.203235e+003,-5.312113e-004
3.205163e+003,-5.323034e-004
3.207092e+003,-5.586118e-004
3.209020e+003,-5.125461e-004
3.210948e+003,-4.182152e-004
3.212877e+003,-5.349839e-004
3.214806e+003,-6.031506e-004
3.216734e+003,-4.589290e-004
3.218663e+003,-3.994790e-004
3.220591e+003,-4.706128e-004
3.222520e+003,-5.406759e-004
3.224448e+003,-4.975538e-004
3.226376e+003,-4.227833e-004
3.228305e+003,-3.832580e-004
3.230234e+003,-3.954072e-004
3.232162e+003,-3.996445e-004
3.234091e+003,-4.460532e-004
3.236019e+003,-4.522098e-004
3.237948e+003,-4.399959e-004
3.239876e+003,-4.718374e-004
3.241804e+003,-5.127446e-004
3.243733e+003,-5.114540e-004
3.245662e+003,-5.017570e-004
3.247590e+003,-4.902064e-004
3.249519e+003,-5.064897e-004
3.251447e+003,-5.233018e-004
3.253375e+003,-5.422974e-004
3.255304e+003,-5.848195e-004
3.257232e+003,-5.791612e-004
3.259161e+003,-5.979227e-004
3.261090e+003,-5.688039e-004
3.263018e+003,-5.573212e-004
3.264947e+003,-6.393805e-004
3.266875e+003,-5.374328e-004
3.268803e+003,-4.932513e-004
3.270732e+003,-5.505705e-004
3.272660e+003,-6.972760e-004
3.274589e+003,-6.821246e-004
3.276518e+003,-5.686053e-004
3.278446e+003,-4.588627e-004
3.280375e+003,-4.208965e-004
3.282303e+003,-5.136713e-004
3.284231e+003,-6.367007e-004
3.286160e+003,-5.670501e-004
3.288088e+003,-5.904777e-004
3.290017e+003,-5.871026e-004
3.291946e+003,-7.205312e-004
3.293874e+003,-6.900312e-004
3.295802e+003,-4.546260e-004
3.297731e+003,-3.875947e-004
3.299659e+003,-5.070192e-004
3.301588e+003,-4.354280e-004
3.303516e+003,-4.259610e-004
3.305445e+003,-4.804759e-004
3.307374e+003,-4.924239e-004
3.309302e+003,-4.908683e-004
3.311230e+003,-5.712526e-004
3.313159e+003,-5.902130e-004
3.315087e+003,-4.573733e-004
3.317016e+003,-4.246701e-004
3.318944e+003,-4.844807e-004
3.320873e+003,-4.159312e-004
3.322802e+003,-3.860387e-004
3.324730e+003,-4.276161e-004
3.326658e+003,-4.696860e-004
3.328587e+003,-5.154585e-004
3.330515e+003,-4.596902e-004
3.332444e+003,-3.908720e-004
3.334372e+003,-5.057285e-004
3.336301e+003,-6.513573e-004
3.338229e+003,-5.407752e-004
3.340158e+003,-4.817667e-004
3.342086e+003,-5.694657e-004
3.344015e+003,-6.012315e-004
3.345943e+003,-4.608818e-004
3.347872e+003,-3.166791e-004
3.349800e+003,-3.040971e-004
3.351729e+003,-3.255855e-004
3.353657e+003,-5.001353e-004
3.355586e+003,-6.048381e-004
3.357514e+003,-5.503058e-004
3.359443e+003,-4.627022e-004
3.361371e+003,-4.921591e-004
3.363300e+003,-4.747500e-004
3.365229e+003,-3.802454e-004
3.367157e+003,-2.873427e-004
3.369085e+003,-2.579713e-004
3.371014e+003,-2.827401e-004
3.372942e+003,-4.182814e-004
3.374871e+003,-3.733595e-004
3.376799e+003,-4.200358e-004
3.378728e+003,-5.742969e-004
3.380656e+003,-7.659795e-004
3.382585e+003,-7.646565e-004
3.384513e+003,-5.975587e-004
3.386442e+003,-5.126454e-004
3.388370e+003,-4.162622e-004
3.390299e+003,-4.884523e-004
3.392227e+003,-7.094165e-004
3.394156e+003,-6.448065e-004
3.396084e+003,-5.378961e-004
3.398013e+003,-4.615107e-004
3.399941e+003,-4.363879e-004
3.401870e+003,-5.653955e-004
3.403798e+003,-6.812976e-004
3.405727e+003,-6.112902e-004
3.407655e+003,-5.687046e-004
3.409584e+003,-4.276823e-004
3.411512e+003,-3.941824e-004
3.413441e+003,-4.730289e-004
3.415369e+003,-5.191320e-004
3.417298e+003,-3.893492e-004
3.419226e+003,-4.762394e-004
3.421155e+003,-6.275359e-004
3.423083e+003,-4.104692e-004
3.425012e+003,-3.152222e-004
3.426940e+003,-4.444975e-004
3.428869e+003,-4.334750e-004
3.430797e+003,-3.687578e-004
3.432726e+003,-3.695523e-004
3.434654e+003,-4.377782e-004
3.436583e+003,-5.051990e-004
3.438511e+003,-5.341235e-004
3.440440e+003,-5.352487e-004
3.442368e+003,-4.894783e-004
3.444297e+003,-5.108913e-004
3.446225e+003,-5.649654e-004
3.448154e+003,-4.104030e-004
3.450082e+003,-4.104692e-004
3.452011e+003,-4.894452e-004
3.453939e+003,-5.696312e-004
3.455868e+003,-5.752565e-004
3.457796e+003,-5.074826e-004
3.459725e+003,-4.776295e-004
3.461653e+003,-4.700832e-004
3.463582e+003,-4.438355e-004
3.465510e+003,-5.402126e-004
3.467439e+003,-4.600543e-004
3.469367e+003,-4.066293e-004
3.471296e+003,-5.968308e-004
3.473224e+003,-6.550958e-004
3.475153e+003,-6.718360e-004
3.477081e+003,-6.088418e-004
3.479010e+003,-5.121490e-004
3.480938e+003,-4.848447e-004
3.482867e+003,-4.248025e-004
3.484795e+003,-4.816674e-004
3.486724e+003,-5.433564e-004
3.488652e+003,-3.712407e-004
3.490581e+003,-4.199696e-004
3.492509e+003,-5.381608e-004
3.494438e+003,-4.904050e-004
3.496366e+003,-4.144416e-004
3.498295e+003,-4.389036e-004
3.500223e+003,-5.044708e-004
3.502152e+003,-5.520597e-004
3.504080e+003,-4.257624e-004
3.506009e+003,-3.290951e-004
3.507937e+003,-4.568106e-004
3.509866e+003,-5.053975e-004
3.511794e+003,-4.699839e-004
3.513723e+003,-4.266893e-004
3.515651e+003,-4.923246e-004
3.517580e+003,-4.933175e-004
3.519508e+003,-5.054637e-004
3.521437e+003,-6.455674e-004
3.523365e+003,-4.812702e-004
3.525294e+003,-2.114762e-004
3.527222e+003,-3.097921e-004
3.529151e+003,-5.153260e-004
3.531079e+003,-4.983812e-004
3.533008e+003,-4.484364e-004
3.534936e+003,-3.595212e-004
3.536865e+003,-2.411488e-004
3.538793e+003,-3.512775e-004
3.540722e+003,-4.269210e-004
3.542650e+003,-4.560162e-004
3.544579e+003,-4.505879e-004
3.546507e+003,-6.130108e-004
3.548436e+003,-6.181723e-004
3.550364e+003,-4.883530e-004
3.552293e+003,-4.487343e-004
3.554221e+003,-5.215478e-004
3.556150e+003,-5.457060e-004
3.558078e+003,-5.247911e-004
3.560007e+003,-4.194731e-004
3.561935e+003,-4.809393e-004
3.563864e+003,-5.827018e-004
3.565792e+003,-7.431236e-004
3.567721e+003,-7.062077e-004
3.569649e+003,-6.697187e-004
3.571578e+003,-6.348147e-004
3.573506e+003,-4.122237e-004
3.575435e+003,-2.862500e-004
3.577363e+003,-4.299994e-004
3.579292e+003,-7.050830e-004
3.581220e+003,-5.240961e-004
3.583149e+003,-4.970905e-004
3.585077e+003,-7.004186e-004
3.587006e+003,-9.109920e-004
3.588934e+003,-8.593751e-004
3.590863e+003,-6.806360e-004
3.592791e+003,-6.801728e-004
3.594720e+003,-6.357080e-004
3.596648e+003,-5.189003e-004
3.598577e+003,-3.972279e-004
3.600505e+003,-4.069934e-004
3.602434e+003,-5.707893e-004
3.604362e+003,-5.448125e-004
3.606291e+003,-6.467585e-004
3.608219e+003,-6.773608e-004
3.610148e+003,-4.396980e-004
3.612076e+003,-4.665417e-004
3.614005e+003,-5.188672e-004
3.615933e+003,-6.773277e-004
3.617862e+003,-9.154557e-004
3.619790e+003,-7.333657e-004
3.621719e+003,-4.999368e-004
3.623647e+003,-4.405586e-004
3.625576e+003,-6.426229e-004
3.627504e+003,-1.187225e-003
3.629433e+003,-1.020224e-003
3.631361e+003,-6.019925e-004
3.633290e+003,-6.160217e-004
3.635218e+003,-4.506541e-004
3.637146e+003,-2.965147e-004
3.639075e+003,-3.560449e-004
3.641004e+003,-3.448547e-004
3.642932e+003,-3.394250e-004
3.644861e+003,-4.137795e-004
3.646789e+003,-8.362926e-004
3.648718e+003,-1.035958e-003
3.650646e+003,-5.920329e-004
3.652574e+003,-2.589978e-004
3.654503e+003,-4.198703e-004
3.656432e+003,-3.372729e-004
3.658360e+003,2.259800e-005
3.660289e+003,-1.050222e-004
3.662217e+003,-3.631960e-004
3.664146e+003,-4.168249e-004
3.666074e+003,-4.266562e-004
3.668002e+003,-6.769638e-004
3.669931e+003,-7.996162e-004
3.671860e+003,-6.162533e-004
3.673788e+003,-8.024935e-004
3.675717e+003,-7.724292e-004
3.677645e+003,-4.155670e-004
3.679573e+003,-3.827945e-004
3.681502e+003,-3.141296e-004
3.683430e+003,-3.159175e-004
3.685359e+003,-3.355513e-004
3.687288e+003,-5.211838e-004
3.689216e+003,-7.276762e-004
3.691145e+003,-7.555275e-004
3.693073e+003,-5.322372e-004
3.695001e+003,-2.774090e-004
3.696930e+003,-3.079711e-004
3.698858e+003,-2.940644e-004
3.700787e+003,-4.996388e-004
3.702716e+003,-5.705577e-004
3.704644e+003,-3.716049e-004
3.706573e+003,-2.366451e-004
3.708501e+003,-5.439852e-004
3.710429e+003,-1.150777e-003
3.712358e+003,-9.191589e-004
3.714286e+003,-2.988656e-004
3.716215e+003,-2.458476e-005
3.718144e+003,-1.656670e-005
3.720072e+003,-1.339071e-004
3.722000e+003,-1.269180e-004
3.723929e+003,-2.021369e-004
3.725857e+003,-3.679302e-004
3.727786e+003,-2.260147e-004
3.729714e+003,-2.044552e-004
3.731643e+003,-5.331307e-004
3.733572e+003,-5.817421e-004
3.735500e+003,-6.278337e-004
3.737428e+003,-3.141296e-004
3.739357e+003,-1.363914e-004
3.741285e+003,-5.009627e-004
3.743214e+003,-1.153652e-003
3.745142e+003,-1.000522e-003
3.747071e+003,-6.263116e-004
3.749000e+003,-1.031000e-003
3.750928e+003,-1.122191e-003
3.752856e+003,-7.658472e-004
3.754785e+003,-2.618787e-004
3.756713e+003,-3.634277e-004
3.758642e+003,-5.522252e-004
3.760570e+003,-4.167587e-004
3.762499e+003,-2.220407e-004
3.764427e+003,-2.280349e-004
3.766356e+003,-2.714486e-004
3.768284e+003,-4.755775e-004
3.770213e+003,-4.187449e-004
3.772141e+003,-2.952142e-005
3.774070e+003,-9.614434e-005
3.775998e+003,-4.081189e-004
3.777927e+003,-5.187679e-004
3.779855e+003,-2.726407e-004
3.781784e+003,2.017910e-005
3.783712e+003,-2.092242e-004
3.785641e+003,-2.753891e-004
3.787569e+003,-1.898166e-004
3.789498e+003,-1.520255e-004
3.791426e+003,-3.508753e-005
3.793355e+003,-4.777666e-005
3.795283e+003,-1.753762e-004
3.797212e+003,-2.596270e-004
3.799140e+003,-3.392263e-004
3.801069e+003,-5.288947e-004
3.802997e+003,-4.576712e-004
3.804926e+003,-4.679318e-004
3.806854e+003,-5.818745e-004
3.808783e+003,-1.825964e-004
3.810711e+003,4.383855e-005
3.812640e+003,-1.998517e-004
3.814568e+003,-8.658565e-004
3.816497e+003,-8.069583e-004
3.818425e+003,-6.150953e-004
3.820354e+003,-1.041016e-003
3.822282e+003,-7.958789e-004
3.824211e+003,-2.825414e-004
3.826139e+003,-3.098915e-004
3.828068e+003,-3.459472e-004
3.829996e+003,-3.898789e-004
3.831925e+003,-2.904552e-004
3.833853e+003,-3.072758e-004
3.835782e+003,-7.121952e-004
3.837710e+003,-8.605656e-004
3.839639e+003,-5.833966e-004
3.841567e+003,-4.789203e-004
3.843496e+003,-3.900775e-004
3.845424e+003,-1.284748e-004
3.847353e+003,-8.266156e-005
3.849281e+003,-4.045769e-004
3.851210e+003,-8.117538e-004
3.853138e+003,-1.120868e-003
3.855067e+003,-3.966983e-004
3.856995e+003,1.555922e-004
3.858924e+003,1.706407e-004
3.860852e+003,2.793289e-005
3.862781e+003,-3.452851e-004
3.864709e+003,-6.620765e-004
3.866638e+003,-5.321379e-004
3.868566e+003,-5.497432e-004
3.870495e+003,-5.903123e-004
3.872423e+003,-5.116856e-004
3.874352e+003,-3.937520e-004
3.876280e+003,-2.034285e-004
3.878209e+003,-3.816358e-004
3.880137e+003,-4.823624e-004
3.882066e+003,-2.879718e-004
3.883994e+003,-4.212606e-004
3.885923e+003,-4.334750e-004
3.887851e+003,-1.211212e-004
3.889780e+003,-2.390294e-004
3.891708e+003,-3.283005e-004
3.893637e+003,-2.689320e-004
3.895565e+003,-1.344702e-004
3.897494e+003,-1.467590e-004
3.899422e+003,-2.842302e-004
3.901351e+003,-3.447222e-004
3.903279e+003,-4.355935e-004
3.905208e+003,-1.188687e-004
3.907136e+003,2.621362e-004
3.909065e+003,3.122349e-004
3.910993e+003,9.155900e-005
3.912922e+003,-9.624372e-005
3.914850e+003,-1.030678e-004
3.916779e+003,-1.209224e-004
3.918707e+003,1.389533e-004
3.920636e+003,3.965635e-004
3.922564e+003,2.679382e-004
3.924493e+003,5.513854e-005
3.926421e+003,3.284825e-004
3.928350e+003,3.872113e-004
3.930278e+003,1.296397e-004
3.932207e+003,1.010043e-004
3.934135e+003,1.995459e-004
3.936064e+003,3.191981e-004
3.937992e+003,2.365752e-004
3.939921e+003,5.822041e-005
3.941849e+003,5.669604e-005
3.943778e+003,1.560894e-004
3.945706e+003,1.000100e-004
3.947635e+003,-5.751689e-005
3.949563e+003,7.356380e-005
3.951492e+003,1.045505e-004
3.953420e+003,-6.461089e-006
3.955349e+003,-2.156822e-004
3.957277e+003,-3.077393e-004
3.959206e+003,2.985479e-005
3.961134e+003,2.219885e-004
3.963063e+003,8.287614e-005
3.964991e+003,4.360659e-005
3.966920e+003,-7.256294e-006
3.968848e+003,2.551396e-005
3.970777e+003,-9.310565e-006
3.972705e+003,1.507529e-004
3.974634e+003,2.963525e-004
3.976562e+003,3.277530e-004
3.978491e+003,4.508569e-004
3.980419e+003,4.614377e-004
3.982348e+003,9.940326e-006
3.984276e+003,-2.616800e-004
3.986205e+003,-1.242349e-004
3.988133e+003,1.310649e-004
3.990062e+003,4.271188e-005
3.991990e+003,1.557328e-005
3.993919e+003,1.912918e-004
3.995847e+003,2.212592e-004
3.997776e+003,2.322986e-004
3.999704e+003,1.032579e-004
4.001633e+003,0.000000e+000
