3.991989e+002,1.372443e-002
4.011274e+002,1.815869e-002
4.030559e+002,1.083589e-002
4.049844e+002,4.591682e-003
4.069129e+002,6.491049e-003
4.088414e+002,1.493618e-002
4.107699e+002,1.424565e-002
4.126984e+002,8.770070e-003
4.146269e+002,1.916221e-003
4.165554e+002,3.477486e-003
4.184839e+002,1.018190e-002
4.204124e+002,1.106951e-002
4.223409e+002,1.128733e-002
4.242694e+002,9.123054e-003
4.261979e+002,4.316479e-003
4.281264e+002,2.513452e-003
4.300549e+002,2.417749e-003
4.319834e+002,-2.133780e-005
4.339119e+002,1.409521e-003
4.358404e+002,7.287704e-003
4.377689e+002,9.345118e-003
4.396974e+002,5.862164e-003
4.416259e+002,2.727093e-003
4.435544e+002,6.447833e-003
4.454829e+002,9.649782e-003
4.474114e+002,1.141610e-002
4.493399e+002,7.209404e-003
4.512684e+002,1.393798e-003
4.531969e+002,1.398717e-003
4.551254e+002,4.277595e-003
4.570539e+002,1.940583e-003
4.589824e+002,-3.527301e-003
4.609109e+002,7.684463e-005
4.628394e+002,5.790534e-003
4.647679e+002,4.896950e-003
4.666964e+002,3.666440e-003
4.686249e+002,1.309042e-003
4.705533e+002,1.178685e-003
4.724819e+002,2.706054e-003
4.744103e+002,2.406287e-003
4.763389e+002,2.589509e-003
4.782673e+002,1.845506e-003
4.801959e+002,-2.302868e-004
4.821243e+002,4.513876e-004
4.840529e+002,1.203437e-003
4.859813e+002,9.481376e-004
4.879099e+002,4.742413e-004
4.898383e+002,-1.305538e-003
4.917668e+002,-2.235918e-003
4.936953e+002,-4.940456e-004
4.956238e+002,-5.524237e-004
4.975523e+002,-2.017213e-003
4.994808e+002,-2.205689e-003
5.014093e+002,-1.891342e-003
5.033378e+002,-9.797610e-004
5.052663e+002,-9.508428e-005
5.071948e+002,-1.511427e-003
5.091233e+002,-2.061636e-003
5.110518e+002,-3.038967e-003
5.129803e+002,-3.768602e-003
5.149088e+002,-4.133618e-003
5.168373e+002,-3.667025e-003
5.187658e+002,-2.596657e-003
5.206943e+002,-1.465165e-003
5.226228e+002,-2.508345e-003
5.245513e+002,-3.759240e-003
5.264798e+002,-2.971049e-003
5.284083e+002,-1.757216e-003
5.303368e+002,-2.299567e-003
5.322653e+002,-3.396475e-003
5.341938e+002,-3.507581e-003
5.361223e+002,-3.445227e-003
5.380508e+002,-3.415641e-003
5.399792e+002,-1.943463e-003
5.419078e+002,-1.861814e-003
5.438363e+002,-2.118089e-003
5.457648e+002,-1.890385e-003
5.476932e+002,-2.284372e-003
5.496218e+002,-2.709976e-003
5.515503e+002,-2.658935e-003
5.534788e+002,-2.052369e-003
5.554072e+002,-3.883230e-004
5.573358e+002,6.703533e-005
5.592643e+002,-5.474599e-004
5.611927e+002,-1.964112e-003
5.631212e+002,-2.517668e-003
5.650497e+002,-1.486266e-003
5.669783e+002,-6.948941e-004
5.689067e+002,1.657681e-004
5.708352e+002,-2.015076e-004
5.727637e+002,-2.399981e-003
5.746923e+002,-4.061768e-003
5.766207e+002,-2.928201e-003
5.785492e+002,-4.098403e-004
5.804777e+002,-1.082894e-003
5.824063e+002,-5.162033e-003
5.843347e+002,-3.497327e-003
5.862632e+002,-7.144777e-004
5.881917e+002,-2.205920e-003
5.901202e+002,-4.564168e-003
5.920487e+002,-5.030585e-003
5.939772e+002,-4.709492e-003
5.959057e+002,-5.309972e-003
5.978342e+002,-4.114220e-003
5.997627e+002,-3.130263e-003
6.016912e+002,-3.067756e-003
6.036197e+002,-2.808486e-003
6.055482e+002,-1.921361e-003
6.074767e+002,-1.232393e-003
6.094052e+002,-1.290379e-004
6.113337e+002,1.761727e-003
6.132622e+002,1.668651e-003
6.151907e+002,6.474244e-004
6.171192e+002,2.262650e-004
6.190477e+002,2.019326e-004
6.209762e+002,1.237196e-003
6.229047e+002,-5.594391e-004
6.248332e+002,-3.575513e-003
6.267617e+002,-5.278777e-003
6.286902e+002,-5.194054e-003
6.306187e+002,-4.322686e-003
6.325472e+002,-3.733651e-003
6.344756e+002,-3.010340e-003
6.364042e+002,-2.597184e-003
6.383326e+002,-2.890121e-003
6.402612e+002,-2.963283e-003
6.421896e+002,-1.842414e-003
6.441182e+002,-1.602384e-003
6.460466e+002,-2.079080e-003
6.479752e+002,-1.797178e-003
6.499036e+002,-1.780052e-003
6.518322e+002,-2.199590e-003
6.537606e+002,-2.007055e-003
6.556891e+002,-1.887317e-003
6.576177e+002,-1.840072e-003
6.595461e+002,-1.566169e-003
6.614746e+002,-2.371082e-003
6.634031e+002,-2.939127e-003
6.653317e+002,-1.462787e-003
6.672601e+002,3.790393e-003
6.691886e+002,2.544846e-003
6.711171e+002,-1.839610e-003
6.730457e+002,-2.629427e-003
6.749741e+002,-2.712940e-003
6.769026e+002,-2.515592e-003
6.788311e+002,-2.357505e-003
6.807596e+002,-2.053490e-003
6.826881e+002,-2.112945e-003
6.846166e+002,-1.982253e-003
6.865451e+002,-2.002405e-003
6.884736e+002,-2.291590e-003
6.904021e+002,-2.574160e-003
6.923306e+002,-2.749159e-003
6.942591e+002,-2.786066e-003
6.961876e+002,-2.669638e-003
6.981161e+002,-3.039888e-003
7.000446e+002,-3.642678e-003
7.019731e+002,-3.980419e-003
7.039016e+002,-4.112481e-003
7.058301e+002,-4.197973e-003
7.077585e+002,-4.371695e-003
7.096871e+002,-4.548988e-003
7.116156e+002,-4.861451e-003
7.135441e+002,-5.668232e-003
7.154725e+002,-6.100402e-003
7.174011e+002,-5.976394e-003
7.193296e+002,-5.498987e-003
7.212581e+002,-5.203876e-003
7.231865e+002,-5.141405e-003
7.251151e+002,-5.435249e-003
7.270436e+002,-5.247155e-003
7.289720e+002,-5.289186e-003
7.309005e+002,-5.168483e-003
7.328290e+002,-4.775794e-003
7.347576e+002,-4.227703e-003
7.366860e+002,-4.111365e-003
7.386145e+002,-4.498523e-003
7.405430e+002,-4.088126e-003
7.424716e+002,-3.590564e-003
7.444000e+002,-3.467777e-003
7.463285e+002,-3.009155e-003
7.482570e+002,-2.747118e-003
7.501855e+002,-2.824880e-003
7.521140e+002,-2.474939e-003
7.540425e+002,-1.692861e-003
7.559710e+002,-1.126355e-003
7.578995e+002,-6.260800e-004
7.598280e+002,-4.911993e-004
7.617565e+002,6.054011e-005
7.636850e+002,4.522168e-004
7.656135e+002,5.429091e-004
7.675420e+002,4.294306e-004
7.694705e+002,9.411087e-005
7.713990e+002,1.908563e-005
7.733275e+002,4.339081e-004
7.752560e+002,7.927592e-004
7.771844e+002,8.106515e-004
7.791130e+002,5.907176e-004
7.810415e+002,4.715213e-004
7.829700e+002,6.643883e-005
7.848984e+002,-2.131321e-004
7.868270e+002,-4.270768e-005
7.887555e+002,-1.770653e-004
7.906840e+002,-6.064925e-004
7.926124e+002,-8.844403e-004
7.945410e+002,-1.292886e-003
7.964695e+002,-1.868941e-003
7.983979e+002,-2.145983e-003
8.003264e+002,-2.048379e-003
8.022549e+002,-2.094612e-003
8.041835e+002,-2.138565e-003
8.061119e+002,-2.284174e-003
8.080404e+002,-2.501130e-003
8.099689e+002,-2.202623e-003
8.118975e+002,-1.710188e-003
8.138259e+002,-1.647873e-003
8.157545e+002,-1.971698e-003
8.176830e+002,-2.110571e-003
8.196115e+002,-2.665818e-003
8.215399e+002,-3.109176e-003
8.234684e+002,-3.088976e-003
8.253970e+002,-3.353997e-003
8.273254e+002,-3.684208e-003
8.292539e+002,-3.968928e-003
8.311824e+002,-3.983373e-003
8.331110e+002,-3.698368e-003
8.350394e+002,-4.059208e-003
8.369679e+002,-3.973393e-003
8.388964e+002,-3.785420e-003
8.408250e+002,-3.584977e-003
8.427534e+002,-3.636304e-003
8.446819e+002,-4.005698e-003
8.466104e+002,-3.748893e-003
8.485389e+002,-3.815605e-003
8.504674e+002,-4.023951e-003
8.523959e+002,-3.847725e-003
8.543244e+002,-3.493448e-003
8.562529e+002,-3.473628e-003
8.581814e+002,-3.396442e-003
8.601099e+002,-3.512413e-003
8.620384e+002,-3.752080e-003
8.639669e+002,-3.371982e-003
8.658954e+002,-3.060912e-003
8.678239e+002,-3.438258e-003
8.697524e+002,-3.496373e-003
8.716809e+002,-3.240089e-003
8.736094e+002,-2.982863e-003
8.755378e+002,-3.189208e-003
8.774664e+002,-3.043803e-003
8.793949e+002,-2.780074e-003
8.813234e+002,-2.933631e-003
8.832518e+002,-2.681526e-003
8.851804e+002,-2.397510e-003
8.871089e+002,-2.423706e-003
8.890374e+002,-2.568363e-003
8.909658e+002,-2.649187e-003
8.928943e+002,-2.274385e-003
8.948229e+002,-2.282922e-003
8.967513e+002,-2.742640e-003
8.986798e+002,-2.843248e-003
9.006083e+002,-2.920302e-003
9.025369e+002,-3.055154e-003
9.044653e+002,-2.947355e-003
9.063938e+002,-3.113288e-003
9.083223e+002,-3.562466e-003
9.102509e+002,-3.926998e-003
9.121793e+002,-3.735392e-003
9.141078e+002,-3.827724e-003
9.160364e+002,-3.929264e-003
9.179648e+002,-3.963740e-003
9.198933e+002,-4.292766e-003
9.218218e+002,-4.573939e-003
9.237504e+002,-4.895362e-003
9.256788e+002,-5.113833e-003
9.276073e+002,-5.519074e-003
9.295358e+002,-6.129577e-003
9.314644e+002,-6.310693e-003
9.333928e+002,-6.103800e-003
9.353213e+002,-6.192004e-003
9.372498e+002,-6.400945e-003
9.391783e+002,-6.484747e-003
9.411068e+002,-6.296389e-003
9.430353e+002,-6.094554e-003
9.449637e+002,-6.068971e-003
9.468923e+002,-5.981297e-003
9.488208e+002,-6.280746e-003
9.507493e+002,-6.495976e-003
9.526777e+002,-6.190599e-003
9.546063e+002,-5.772089e-003
9.565348e+002,-5.634742e-003
9.584633e+002,-5.565561e-003
9.603917e+002,-5.346531e-003
9.623203e+002,-5.239233e-003
9.642488e+002,-5.133284e-003
9.661772e+002,-4.954821e-003
9.681057e+002,-4.748953e-003
9.700343e+002,-4.748757e-003
9.719628e+002,-4.559808e-003
9.738912e+002,-4.432244e-003
9.758197e+002,-4.505606e-003
9.777483e+002,-4.322817e-003
9.796768e+002,-4.059766e-003
9.816052e+002,-3.828906e-003
9.835337e+002,-3.701916e-003
9.854623e+002,-3.636731e-003
9.873907e+002,-3.538541e-003
9.893192e+002,-3.571307e-003
9.912477e+002,-3.830319e-003
9.931763e+002,-3.783383e-003
9.951047e+002,-3.692947e-003
9.970332e+002,-3.737133e-003
9.989617e+002,-3.658910e-003
1.000890e+003,-3.293989e-003
1.002819e+003,-2.874947e-003
1.004747e+003,-2.962296e-003
1.006676e+003,-3.156842e-003
1.008604e+003,-2.901278e-003
1.010533e+003,-2.393654e-003
1.012461e+003,-2.372795e-003
1.014390e+003,-2.618164e-003
1.016318e+003,-2.239873e-003
1.018247e+003,-1.738901e-003
1.020175e+003,-1.490228e-003
1.022104e+003,-1.422267e-003
1.024032e+003,-1.212371e-003
1.025961e+003,-8.411870e-004
1.027889e+003,-8.096703e-004
1.029818e+003,-7.306202e-004
1.031746e+003,-3.916996e-004
1.033675e+003,-3.371074e-004
1.035603e+003,-1.685533e-004
1.037532e+003,1.548630e-004
1.039460e+003,2.634292e-004
1.041389e+003,1.782977e-004
1.043317e+003,3.152191e-004
1.045246e+003,5.787069e-004
1.047174e+003,7.220273e-004
1.049103e+003,6.541939e-004
1.051031e+003,3.276535e-004
1.052960e+003,1.803197e-004
1.054888e+003,1.893029e-004
1.056817e+003,1.213538e-004
1.058745e+003,2.580914e-004
1.060674e+003,5.579710e-004
1.062602e+003,5.415821e-004
1.064531e+003,5.063512e-004
1.066459e+003,5.670284e-004
1.068388e+003,6.510415e-004
1.070316e+003,9.088893e-004
1.072245e+003,9.284134e-004
1.074173e+003,8.396656e-004
1.076102e+003,8.243948e-004
1.078030e+003,1.099353e-003
1.079959e+003,1.268100e-003
1.081887e+003,1.284350e-003
1.083816e+003,1.536523e-003
1.085744e+003,1.776132e-003
1.087673e+003,1.908500e-003
1.089601e+003,2.265574e-003
1.091530e+003,2.595109e-003
1.093458e+003,2.706854e-003
1.095387e+003,2.747499e-003
1.097315e+003,2.932733e-003
1.099244e+003,3.052707e-003
1.101172e+003,3.214437e-003
1.103101e+003,3.299698e-003
1.105029e+003,3.366844e-003
1.106958e+003,3.452904e-003
1.108886e+003,3.728262e-003
1.110815e+003,3.658521e-003
1.112743e+003,3.410390e-003
1.114672e+003,3.398200e-003
1.116600e+003,3.814159e-003
1.118529e+003,4.017037e-003
1.120457e+003,3.876236e-003
1.122386e+003,3.767565e-003
1.124314e+003,3.564837e-003
1.126243e+003,3.293856e-003
1.128171e+003,3.058112e-003
1.130100e+003,3.029817e-003
1.132028e+003,2.861852e-003
1.133957e+003,2.504387e-003
1.135885e+003,2.227672e-003
1.137814e+003,1.925373e-003
1.139742e+003,1.271855e-003
1.141671e+003,8.859464e-004
1.143599e+003,4.807095e-004
1.145528e+003,3.876700e-006
1.147456e+003,-3.067460e-004
1.149385e+003,-5.506036e-004
1.151313e+003,-1.003067e-003
1.153242e+003,-1.373419e-003
1.155170e+003,-1.471802e-003
1.157099e+003,-1.550817e-003
1.159027e+003,-1.742465e-003
1.160956e+003,-2.111296e-003
1.162884e+003,-2.254147e-003
1.164813e+003,-2.240533e-003
1.166741e+003,-2.281702e-003
1.168670e+003,-2.441531e-003
1.170598e+003,-2.556011e-003
1.172526e+003,-2.489600e-003
1.174455e+003,-2.527221e-003
1.176384e+003,-2.492960e-003
1.178312e+003,-2.471381e-003
1.180240e+003,-2.600938e-003
1.182169e+003,-2.786626e-003
1.184098e+003,-2.814280e-003
1.186026e+003,-2.821127e-003
1.187954e+003,-2.824781e-003
1.189883e+003,-2.793243e-003
1.191812e+003,-2.680274e-003
1.193740e+003,-2.643589e-003
1.195668e+003,-2.852202e-003
1.197597e+003,-3.002574e-003
1.199526e+003,-2.968121e-003
1.201454e+003,-2.734507e-003
1.203382e+003,-2.448944e-003
1.205311e+003,-2.427923e-003
1.207240e+003,-2.434052e-003
1.209168e+003,-2.346827e-003
1.211096e+003,-2.170941e-003
1.213025e+003,-1.882995e-003
1.214953e+003,-1.759229e-003
1.216882e+003,-1.798399e-003
1.218810e+003,-1.764575e-003
1.220739e+003,-1.744049e-003
1.222667e+003,-1.631467e-003
1.224596e+003,-1.397860e-003
1.226524e+003,-1.274551e-003
1.228453e+003,-1.159996e-003
1.230381e+003,-1.224298e-003
1.232310e+003,-1.230774e-003
1.234238e+003,-1.028356e-003
1.236167e+003,-9.249451e-004
1.238095e+003,-9.598257e-004
1.240024e+003,-9.509323e-004
1.241952e+003,-1.058237e-003
1.243881e+003,-1.372428e-003
1.245809e+003,-1.552963e-003
1.247738e+003,-1.600899e-003
1.249666e+003,-1.525427e-003
1.251595e+003,-1.532030e-003
1.253523e+003,-1.728901e-003
1.255452e+003,-1.815161e-003
1.257380e+003,-1.785827e-003
1.259309e+003,-1.813049e-003
1.261237e+003,-1.742366e-003
1.263166e+003,-1.530214e-003
1.265094e+003,-1.339100e-003
1.267023e+003,-1.141358e-003
1.268951e+003,-8.352675e-004
1.270880e+003,-4.901733e-004
1.272808e+003,-2.411820e-004
1.274737e+003,-7.414765e-005
1.276665e+003,8.609077e-005
1.278594e+003,3.595537e-004
1.280522e+003,6.748681e-004
1.282451e+003,9.367148e-004
1.284379e+003,1.324397e-003
1.286308e+003,1.654715e-003
1.288236e+003,1.972635e-003
1.290165e+003,2.386930e-003
1.292093e+003,2.707821e-003
1.294022e+003,3.068523e-003
1.295950e+003,3.524750e-003
1.297879e+003,3.807875e-003
1.299807e+003,3.858384e-003
1.301736e+003,3.906426e-003
1.303664e+003,3.840500e-003
1.305593e+003,3.699455e-003
1.307521e+003,3.716632e-003
1.309450e+003,3.696715e-003
1.311378e+003,3.378632e-003
1.313307e+003,2.991882e-003
1.315235e+003,2.799519e-003
1.317164e+003,2.688084e-003
1.319092e+003,2.229870e-003
1.321021e+003,1.772805e-003
1.322949e+003,1.525716e-003
1.324878e+003,1.288704e-003
1.326806e+003,1.008079e-003
1.328735e+003,9.126082e-004
1.330663e+003,9.164598e-004
1.332592e+003,8.676526e-004
1.334520e+003,7.820707e-004
1.336449e+003,7.138296e-004
1.338377e+003,7.595991e-004
1.340306e+003,6.398255e-004
1.342234e+003,5.262553e-004
1.344163e+003,4.706257e-004
1.346091e+003,3.582936e-004
1.348020e+003,3.430065e-004
1.349948e+003,3.201265e-004
1.351877e+003,2.534168e-004
1.353805e+003,2.430068e-004
1.355734e+003,1.373292e-004
1.357662e+003,5.699429e-005
1.359591e+003,1.424787e-005
1.361519e+003,-1.086783e-005
1.363448e+003,-2.198218e-004
1.365376e+003,-5.372011e-004
1.367305e+003,-5.938197e-004
1.369233e+003,-5.410069e-004
1.371162e+003,-6.061947e-004
1.373090e+003,-5.318731e-004
1.375019e+003,-5.891873e-004
1.376947e+003,-6.986653e-004
1.378876e+003,-6.995916e-004
1.380804e+003,-6.739533e-004
1.382733e+003,-6.965151e-004
1.384661e+003,-7.753729e-004
1.386590e+003,-8.063299e-004
1.388518e+003,-1.044883e-003
1.390447e+003,-1.489106e-003
1.392375e+003,-1.664641e-003
1.394304e+003,-1.685468e-003
1.396232e+003,-1.987266e-003
1.398161e+003,-2.061998e-003
1.400089e+003,-2.111956e-003
1.402018e+003,-2.273198e-003
1.403946e+003,-2.311267e-003
1.405875e+003,-2.340566e-003
1.407803e+003,-2.435666e-003
1.409732e+003,-2.426012e-003
1.411660e+003,-2.381067e-003
1.413589e+003,-2.294194e-003
1.415517e+003,-2.014014e-003
1.417446e+003,-1.482699e-003
1.419374e+003,-7.859567e-004
1.421303e+003,-3.580975e-004
1.423231e+003,2.216570e-004
1.425160e+003,9.095534e-004
1.427088e+003,1.314360e-003
1.429017e+003,1.572037e-003
1.430945e+003,1.855255e-003
1.432874e+003,2.304379e-003
1.434802e+003,2.892471e-003
1.436731e+003,3.392490e-003
1.438659e+003,3.573890e-003
1.440588e+003,3.846250e-003
1.442516e+003,4.390175e-003
1.444445e+003,4.994373e-003
1.446373e+003,5.623311e-003
1.448302e+003,6.186239e-003
1.450230e+003,6.584188e-003
1.452159e+003,6.965701e-003
1.454087e+003,7.537453e-003
1.456016e+003,8.539885e-003
1.457944e+003,8.997366e-003
1.459873e+003,8.687750e-003
1.461801e+003,8.616329e-003
1.463730e+003,8.824473e-003
1.465658e+003,8.852777e-003
1.467587e+003,8.650670e-003
1.469515e+003,8.643065e-003
1.471444e+003,8.709013e-003
1.473372e+003,8.376869e-003
1.475301e+003,7.796658e-003
1.477229e+003,7.235952e-003
1.479158e+003,6.715910e-003
1.481086e+003,6.282406e-003
1.483015e+003,5.591324e-003
1.484943e+003,5.048976e-003
1.486872e+003,4.788458e-003
1.488800e+003,4.518555e-003
1.490729e+003,4.086033e-003
1.492657e+003,3.436906e-003
1.494586e+003,2.988078e-003
1.496514e+003,2.752134e-003
1.498443e+003,2.263443e-003
1.500371e+003,1.606888e-003
1.502300e+003,1.226630e-003
1.504228e+003,1.358099e-003
1.506157e+003,1.641677e-003
1.508085e+003,1.116494e-003
1.510014e+003,4.580213e-004
1.511942e+003,2.060100e-004
1.513871e+003,1.176749e-004
1.515799e+003,2.936668e-004
1.517728e+003,4.393476e-004
1.519656e+003,5.864043e-004
1.521585e+003,8.032820e-004
1.523513e+003,6.119528e-004
1.525442e+003,7.125353e-004
1.527370e+003,8.251583e-004
1.529299e+003,9.645087e-004
1.531227e+003,1.153601e-003
1.533156e+003,1.651887e-003
1.535084e+003,1.924641e-003
1.537013e+003,2.212985e-003
1.538941e+003,2.944275e-003
1.540870e+003,3.427422e-003
1.542798e+003,3.563634e-003
1.544727e+003,3.745139e-003
1.546655e+003,3.732840e-003
1.548584e+003,3.955642e-003
1.550512e+003,4.386493e-003
1.552441e+003,4.936291e-003
1.554369e+003,5.646103e-003
1.556298e+003,6.239513e-003
1.558226e+003,7.305630e-003
1.560155e+003,7.795477e-003
1.562083e+003,7.601920e-003
1.564012e+003,7.783232e-003
1.565940e+003,7.804079e-003
1.567869e+003,7.962257e-003
1.569797e+003,8.366601e-003
1.571726e+003,8.295908e-003
1.573654e+003,8.214860e-003
1.575583e+003,8.513731e-003
1.577511e+003,8.511873e-003
1.579440e+003,8.254437e-003
1.581368e+003,8.134773e-003
1.583297e+003,7.870103e-003
1.585225e+003,7.717457e-003
1.587154e+003,7.484256e-003
1.589082e+003,6.944221e-003
1.591010e+003,6.438114e-003
1.592939e+003,6.104643e-003
1.594868e+003,5.770656e-003
1.596796e+003,5.317634e-003
1.598724e+003,4.846922e-003
1.600653e+003,4.326084e-003
1.602582e+003,3.862864e-003
1.604510e+003,3.289182e-003
1.606438e+003,2.764171e-003
1.608367e+003,2.460399e-003
1.610296e+003,1.978393e-003
1.612224e+003,1.477505e-003
1.614152e+003,1.341081e-003
1.616081e+003,1.379737e-003
1.618010e+003,1.024453e-003
1.619938e+003,5.539235e-004
1.621866e+003,5.352788e-004
1.623795e+003,3.295105e-004
1.625724e+003,2.226665e-005
1.627652e+003,-1.918700e-004
1.629580e+003,-4.174870e-004
1.631509e+003,-6.348147e-004
1.633438e+003,-5.594060e-004
1.635366e+003,-4.075562e-004
1.637294e+003,-7.935968e-004
1.639223e+003,-1.288492e-003
1.641151e+003,-1.608327e-003
1.643080e+003,-1.845780e-003
1.645008e+003,-1.805295e-003
1.646937e+003,-1.823674e-003
1.648865e+003,-2.237863e-003
1.650794e+003,-2.214524e-003
1.652722e+003,-1.680946e-003
1.654651e+003,-2.359449e-003
1.656579e+003,-3.044724e-003
1.658508e+003,-3.193484e-003
1.660436e+003,-3.184472e-003
1.662365e+003,-3.109669e-003
1.664293e+003,-3.264951e-003
1.666222e+003,-3.493054e-003
1.668150e+003,-3.408409e-003
1.670079e+003,-3.519249e-003
1.672007e+003,-3.888644e-003
1.673936e+003,-4.008259e-003
1.675864e+003,-4.245717e-003
1.677793e+003,-4.829405e-003
1.679721e+003,-5.088913e-003
1.681650e+003,-5.171495e-003
1.683578e+003,-5.020890e-003
1.685507e+003,-5.500459e-003
1.687435e+003,-5.977636e-003
1.689364e+003,-6.247400e-003
1.691292e+003,-6.478577e-003
1.693221e+003,-6.473028e-003
1.695149e+003,-6.209741e-003
1.697078e+003,-6.355168e-003
1.699006e+003,-6.374465e-003
1.700935e+003,-6.393957e-003
1.702863e+003,-6.888875e-003
1.704792e+003,-6.920182e-003
1.706720e+003,-7.126393e-003
1.708649e+003,-7.340162e-003
1.710577e+003,-7.447170e-003
1.712506e+003,-7.521099e-003
1.714434e+003,-7.440200e-003
1.716363e+003,-7.274804e-003
1.718291e+003,-7.334884e-003
1.720220e+003,-7.707852e-003
1.722148e+003,-7.915967e-003
1.724077e+003,-8.000161e-003
1.726005e+003,-8.011091e-003
1.727934e+003,-7.973162e-003
1.729862e+003,-7.931779e-003
1.731791e+003,-7.825444e-003
1.733719e+003,-7.621779e-003
1.735648e+003,-7.907248e-003
1.737576e+003,-8.105771e-003
1.739505e+003,-7.943329e-003
1.741433e+003,-8.022834e-003
1.743362e+003,-8.022834e-003
1.745290e+003,-7.963304e-003
1.747219e+003,-7.828470e-003
1.749147e+003,-7.581405e-003
1.751076e+003,-7.428702e-003
1.753004e+003,-7.589904e-003
1.754933e+003,-7.666413e-003
1.756861e+003,-7.577075e-003
1.758790e+003,-7.618328e-003
1.760718e+003,-7.477590e-003
1.762647e+003,-7.442317e-003
1.764575e+003,-7.734251e-003
1.766504e+003,-7.711270e-003
1.768432e+003,-7.530478e-003
1.770361e+003,-7.446975e-003
1.772289e+003,-7.276498e-003
1.774218e+003,-7.390721e-003
1.776146e+003,-7.547867e-003
1.778075e+003,-7.693367e-003
1.780003e+003,-7.710945e-003
1.781932e+003,-7.762080e-003
1.783860e+003,-7.770151e-003
1.785789e+003,-7.680476e-003
1.787717e+003,-7.660000e-003
1.789646e+003,-7.618491e-003
1.791574e+003,-7.453521e-003
1.793503e+003,-7.426748e-003
1.795431e+003,-7.582969e-003
1.797360e+003,-7.539726e-003
1.799288e+003,-7.516768e-003
1.801217e+003,-7.630862e-003
1.803145e+003,-7.720417e-003
1.805074e+003,-7.650950e-003
1.807002e+003,-7.563041e-003
1.808931e+003,-7.607128e-003
1.810859e+003,-7.670938e-003
1.812788e+003,-7.732981e-003
1.814716e+003,-7.781867e-003
1.816645e+003,-7.836150e-003
1.818573e+003,-7.852485e-003
1.820502e+003,-7.835207e-003
1.822430e+003,-7.773471e-003
1.824359e+003,-7.700952e-003
1.826287e+003,-7.777637e-003
1.828216e+003,-7.807187e-003
1.830144e+003,-7.758597e-003
1.832073e+003,-7.989687e-003
1.834001e+003,-8.087981e-003
1.835930e+003,-8.060401e-003
1.837858e+003,-8.063979e-003
1.839787e+003,-8.047846e-003
1.841715e+003,-7.959563e-003
1.843644e+003,-7.741184e-003
1.845572e+003,-7.897747e-003
1.847501e+003,-8.096177e-003
1.849429e+003,-8.076046e-003
1.851358e+003,-7.975601e-003
1.853286e+003,-7.953707e-003
1.855215e+003,-7.920620e-003
1.857143e+003,-7.833514e-003
1.859072e+003,-7.866510e-003
1.861000e+003,-7.856749e-003
1.862929e+003,-7.910339e-003
1.864857e+003,-7.916749e-003
1.866786e+003,-7.838558e-003
1.868714e+003,-7.723021e-003
1.870643e+003,-7.775814e-003
1.872571e+003,-7.865860e-003
1.874500e+003,-7.853462e-003
1.876428e+003,-7.810474e-003
1.878357e+003,-7.730638e-003
1.880285e+003,-7.645350e-003
1.882214e+003,-7.695027e-003
1.884142e+003,-7.695646e-003
1.886071e+003,-7.701050e-003
1.887999e+003,-7.671882e-003
1.889928e+003,-7.703849e-003
1.891856e+003,-7.741867e-003
1.893785e+003,-7.554216e-003
1.895713e+003,-7.545881e-003
1.897642e+003,-7.645968e-003
1.899570e+003,-7.577921e-003
1.901499e+003,-7.504784e-003
1.903427e+003,-7.543340e-003
1.905356e+003,-7.570823e-003
1.907284e+003,-7.655768e-003
1.909213e+003,-7.677904e-003
1.911141e+003,-7.677091e-003
1.913070e+003,-7.662474e-003
1.914998e+003,-7.598760e-003
1.916927e+003,-7.441763e-003
1.918855e+003,-7.359318e-003
1.920784e+003,-7.435053e-003
1.922712e+003,-7.469968e-003
1.924641e+003,-7.540345e-003
1.926569e+003,-7.501625e-003
1.928498e+003,-7.602700e-003
1.930426e+003,-7.643201e-003
1.932355e+003,-7.628453e-003
1.934283e+003,-7.655019e-003
1.936212e+003,-7.749256e-003
1.938140e+003,-7.842106e-003
1.940069e+003,-7.815812e-003
1.941997e+003,-7.673054e-003
1.943926e+003,-7.676439e-003
1.945854e+003,-7.783137e-003
1.947783e+003,-7.808457e-003
1.949711e+003,-7.796968e-003
1.951640e+003,-7.811288e-003
1.953568e+003,-7.817178e-003
1.955497e+003,-7.843212e-003
1.957425e+003,-7.866966e-003
1.959354e+003,-7.781867e-003
1.961282e+003,-7.712345e-003
1.963211e+003,-7.824208e-003
1.965139e+003,-7.879494e-003
1.967068e+003,-7.849688e-003
1.968996e+003,-7.913494e-003
1.970925e+003,-7.859156e-003
1.972853e+003,-7.757035e-003
1.974782e+003,-7.742127e-003
1.976710e+003,-7.755603e-003
1.978639e+003,-7.747889e-003
1.980567e+003,-7.751534e-003
1.982496e+003,-7.741835e-003
1.984424e+003,-7.637145e-003
1.986353e+003,-7.558287e-003
1.988281e+003,-7.557831e-003
1.990210e+003,-7.573526e-003
1.992138e+003,-7.503090e-003
1.994067e+003,-7.467461e-003
1.995995e+003,-7.515042e-003
1.997924e+003,-7.520252e-003
1.999852e+003,-7.463194e-003
2.001781e+003,-7.428897e-003
2.003709e+003,-7.396128e-003
2.005638e+003,-7.360132e-003
2.007566e+003,-7.270601e-003
2.009495e+003,-7.277867e-003
2.011423e+003,-7.339380e-003
2.013352e+003,-7.266821e-003
2.015280e+003,-7.208719e-003
2.017208e+003,-7.196466e-003
2.019137e+003,-7.186819e-003
2.021066e+003,-7.241730e-003
2.022994e+003,-7.339380e-003
2.024922e+003,-7.334591e-003
2.026851e+003,-7.301131e-003
2.028780e+003,-7.276857e-003
2.030708e+003,-7.245347e-003
2.032636e+003,-7.162474e-003
2.034565e+003,-7.185255e-003
2.036494e+003,-7.230553e-003
2.038422e+003,-7.215856e-003
2.040350e+003,-7.244011e-003
2.042279e+003,-7.234789e-003
2.044208e+003,-7.216834e-003
2.046136e+003,-7.292627e-003
2.048064e+003,-7.282298e-003
2.049993e+003,-7.146177e-003
2.051921e+003,-7.061198e-003
2.053850e+003,-7.029412e-003
2.055778e+003,-7.066088e-003
2.057707e+003,-7.051190e-003
2.059635e+003,-7.060775e-003
2.061564e+003,-7.054678e-003
2.063492e+003,-7.124600e-003
2.065421e+003,-7.175119e-003
2.067349e+003,-7.031238e-003
2.069278e+003,-7.028532e-003
2.071206e+003,-6.995179e-003
2.073135e+003,-6.900974e-003
2.075063e+003,-6.794842e-003
2.076992e+003,-6.728685e-003
2.078920e+003,-6.794745e-003
2.080849e+003,-6.818948e-003
2.082777e+003,-6.799344e-003
2.084706e+003,-6.766626e-003
2.086634e+003,-6.803421e-003
2.088563e+003,-6.810956e-003
2.090491e+003,-6.646202e-003
2.092420e+003,-6.534688e-003
2.094348e+003,-6.555805e-003
2.096277e+003,-6.582208e-003
2.098205e+003,-6.534133e-003
2.100134e+003,-6.471657e-003
2.102062e+003,-6.402577e-003
2.103991e+003,-6.406952e-003
2.105919e+003,-6.347625e-003
2.107848e+003,-6.235936e-003
2.109776e+003,-6.217711e-003
2.111705e+003,-6.234859e-003
2.113633e+003,-6.221435e-003
2.115562e+003,-6.121410e-003
2.117490e+003,-6.096187e-003
2.119419e+003,-6.013323e-003
2.121347e+003,-5.926520e-003
2.123276e+003,-5.927337e-003
2.125204e+003,-5.862094e-003
2.127133e+003,-5.861995e-003
2.129061e+003,-5.841106e-003
2.130990e+003,-5.774247e-003
2.132918e+003,-5.769343e-003
2.134847e+003,-5.767969e-003
2.136775e+003,-5.757179e-003
2.138704e+003,-5.722878e-003
2.140632e+003,-5.689587e-003
2.142561e+003,-5.703486e-003
2.144489e+003,-5.766367e-003
2.146418e+003,-5.758651e-003
2.148346e+003,-5.632714e-003
2.150275e+003,-5.527875e-003
2.152203e+003,-5.507885e-003
2.154132e+003,-5.539031e-003
2.156060e+003,-5.606384e-003
2.157989e+003,-5.642297e-003
2.159917e+003,-5.604650e-003
2.161846e+003,-5.614921e-003
2.163774e+003,-5.710321e-003
2.165703e+003,-5.664733e-003
2.167631e+003,-5.585057e-003
2.169560e+003,-5.543774e-003
2.171488e+003,-5.550513e-003
2.173417e+003,-5.568374e-003
2.175345e+003,-5.580151e-003
2.177274e+003,-5.525127e-003
2.179202e+003,-5.445524e-003
2.181131e+003,-5.499510e-003
2.183059e+003,-5.580870e-003
2.184988e+003,-5.558070e-003
2.186916e+003,-5.521724e-003
2.188845e+003,-5.529871e-003
2.190773e+003,-5.573837e-003
2.192702e+003,-5.651553e-003
2.194630e+003,-5.600823e-003
2.196559e+003,-5.494799e-003
2.198487e+003,-5.483773e-003
2.200416e+003,-5.483347e-003
2.202344e+003,-5.528791e-003
2.204273e+003,-5.547438e-003
2.206201e+003,-5.481090e-003
2.208130e+003,-5.438718e-003
2.210058e+003,-5.489891e-003
2.211987e+003,-5.513676e-003
2.213915e+003,-5.522902e-003
2.215844e+003,-5.418790e-003
2.217772e+003,-5.360375e-003
2.219701e+003,-5.345189e-003
2.221629e+003,-5.448698e-003
2.223558e+003,-5.510536e-003
2.225486e+003,-5.435445e-003
2.227415e+003,-5.441335e-003
2.229343e+003,-5.494602e-003
2.231272e+003,-5.509521e-003
2.233200e+003,-5.452984e-003
2.235129e+003,-5.391432e-003
2.237057e+003,-5.453442e-003
2.238986e+003,-5.520776e-003
2.240914e+003,-5.511125e-003
2.242843e+003,-5.507362e-003
2.244771e+003,-5.570141e-003
2.246700e+003,-5.541223e-003
2.248628e+003,-5.518060e-003
2.250557e+003,-5.669998e-003
2.252485e+003,-5.669998e-003
2.254414e+003,-5.638078e-003
2.256342e+003,-5.664275e-003
2.258271e+003,-5.624897e-003
2.260199e+003,-5.547111e-003
2.262128e+003,-5.543316e-003
2.264056e+003,-5.624733e-003
2.265985e+003,-5.689391e-003
2.267913e+003,-5.655706e-003
2.269842e+003,-5.588459e-003
2.271770e+003,-5.589015e-003
2.273699e+003,-5.691779e-003
2.275627e+003,-5.824597e-003
2.277556e+003,-5.879124e-003
2.279484e+003,-5.856896e-003
2.281413e+003,-5.772710e-003
2.283341e+003,-5.751653e-003
2.285270e+003,-5.758618e-003
2.287198e+003,-5.746748e-003
2.289127e+003,-5.643376e-003
2.291055e+003,-5.647726e-003
2.292984e+003,-5.699072e-003
2.294912e+003,-5.710288e-003
2.296841e+003,-5.546261e-003
2.298769e+003,-5.350556e-003
2.300698e+003,-5.132105e-003
2.302626e+003,-4.884255e-003
2.304555e+003,-4.711032e-003
2.306483e+003,-4.423257e-003
2.308412e+003,-4.080741e-003
2.310340e+003,-3.712659e-003
2.312269e+003,-3.159769e-003
2.314197e+003,-2.524915e-003
2.316125e+003,-1.822618e-003
2.318054e+003,-1.106360e-003
2.319983e+003,-3.847477e-004
2.321911e+003,4.682707e-004
2.323840e+003,1.210714e-003
2.325768e+003,1.710929e-003
2.327697e+003,2.409519e-003
2.329625e+003,3.243913e-003
2.331553e+003,3.691335e-003
2.333482e+003,3.836756e-003
2.335411e+003,3.958217e-003
2.337339e+003,4.181302e-003
2.339268e+003,4.308548e-003
2.341196e+003,4.197628e-003
2.343125e+003,3.661461e-003
2.345053e+003,2.244724e-003
2.346981e+003,-3.856631e-005
2.348910e+003,-1.409056e-003
2.350839e+003,1.461788e-004
2.352767e+003,3.038426e-003
2.354696e+003,5.247737e-003
2.356624e+003,6.677180e-003
2.358552e+003,7.457626e-003
2.360481e+003,7.756313e-003
2.362409e+003,7.706495e-003
2.364338e+003,7.292050e-003
2.366267e+003,6.553005e-003
2.368195e+003,5.440147e-003
2.370124e+003,3.951462e-003
2.372052e+003,2.303646e-003
2.373980e+003,7.823694e-004
2.375909e+003,-7.700809e-004
2.377838e+003,-2.201667e-003
2.379766e+003,-3.405483e-003
2.381695e+003,-4.180745e-003
2.383623e+003,-4.598791e-003
2.385552e+003,-4.810563e-003
2.387480e+003,-4.918196e-003
2.389408e+003,-4.883436e-003
2.391337e+003,-4.845690e-003
2.393266e+003,-4.855225e-003
2.395194e+003,-4.787985e-003
2.397123e+003,-4.686810e-003
2.399051e+003,-4.580660e-003
2.400979e+003,-4.544660e-003
2.402908e+003,-4.652752e-003
2.404836e+003,-4.614724e-003
2.406765e+003,-4.562431e-003
2.408694e+003,-4.645376e-003
2.410622e+003,-4.542922e-003
2.412551e+003,-4.479437e-003
2.414479e+003,-4.425520e-003
2.416407e+003,-4.340991e-003
2.418336e+003,-4.331051e-003
2.420264e+003,-4.361002e-003
2.422193e+003,-4.334299e-003
2.424122e+003,-4.279839e-003
2.426050e+003,-4.177266e-003
2.427979e+003,-4.089965e-003
2.429907e+003,-4.083104e-003
2.431835e+003,-4.019487e-003
2.433764e+003,-3.947980e-003
2.435692e+003,-3.847430e-003
2.437621e+003,-3.800102e-003
2.439550e+003,-3.811335e-003
2.441478e+003,-3.737790e-003
2.443406e+003,-3.644584e-003
2.445335e+003,-3.579489e-003
2.447263e+003,-3.567659e-003
2.449192e+003,-3.480662e-003
2.451121e+003,-3.465607e-003
2.453049e+003,-3.511525e-003
2.454978e+003,-3.423662e-003
2.456906e+003,-3.312600e-003
2.458834e+003,-3.246009e-003
2.460763e+003,-3.211278e-003
2.462691e+003,-3.294646e-003
2.464620e+003,-3.308950e-003
2.466549e+003,-3.201411e-003
2.468477e+003,-3.134901e-003
2.470406e+003,-3.165460e-003
2.472334e+003,-3.183189e-003
2.474262e+003,-3.129177e-003
2.476191e+003,-3.051831e-003
2.478119e+003,-2.989609e-003
2.480048e+003,-2.959334e-003
2.481977e+003,-2.868495e-003
2.483905e+003,-2.822049e-003
2.485833e+003,-2.816650e-003
2.487762e+003,-2.850655e-003
2.489690e+003,-2.876790e-003
2.491619e+003,-2.782609e-003
2.493547e+003,-2.659759e-003
2.495476e+003,-2.647047e-003
2.497405e+003,-2.711755e-003
2.499333e+003,-2.743265e-003
2.501261e+003,-2.698485e-003
2.503190e+003,-2.639077e-003
2.505118e+003,-2.634137e-003
2.507047e+003,-2.702601e-003
2.508975e+003,-2.698254e-003
2.510904e+003,-2.636640e-003
2.512833e+003,-2.558844e-003
2.514761e+003,-2.505973e-003
2.516689e+003,-2.523202e-003
2.518618e+003,-2.459224e-003
2.520546e+003,-2.453260e-003
2.522475e+003,-2.508608e-003
2.524403e+003,-2.514571e-003
2.526332e+003,-2.457939e-003
2.528260e+003,-2.423310e-003
2.530189e+003,-2.429472e-003
2.532117e+003,-2.436490e-003
2.534046e+003,-2.434480e-003
2.535974e+003,-2.383901e-003
2.537903e+003,-2.334798e-003
2.539831e+003,-2.243796e-003
2.541760e+003,-2.266046e-003
2.543688e+003,-2.227215e-003
2.545617e+003,-2.179150e-003
2.547545e+003,-2.136652e-003
2.549474e+003,-2.094908e-003
2.551402e+003,-2.064934e-003
2.553331e+003,-2.085675e-003
2.555259e+003,-2.084620e-003
2.557188e+003,-1.997260e-003
2.559116e+003,-2.004549e-003
2.561045e+003,-1.974996e-003
2.562973e+003,-2.020511e-003
2.564902e+003,-2.016554e-003
2.566830e+003,-1.878871e-003
2.568759e+003,-1.882500e-003
2.570687e+003,-1.852840e-003
2.572616e+003,-1.755665e-003
2.574544e+003,-1.669790e-003
2.576473e+003,-1.701145e-003
2.578401e+003,-1.709495e-003
2.580330e+003,-1.744610e-003
2.582258e+003,-1.751309e-003
2.584187e+003,-1.701310e-003
2.586115e+003,-1.723060e-003
2.588044e+003,-1.798135e-003
2.589972e+003,-1.729726e-003
2.591901e+003,-1.645463e-003
2.593829e+003,-1.646684e-003
2.595758e+003,-1.728835e-003
2.597686e+003,-1.737812e-003
2.599615e+003,-1.684709e-003
2.601543e+003,-1.572012e-003
2.603472e+003,-1.482699e-003
2.605400e+003,-1.494356e-003
2.607329e+003,-1.510667e-003
2.609257e+003,-1.462325e-003
2.611186e+003,-1.437227e-003
2.613114e+003,-1.474708e-003
2.615043e+003,-1.490228e-003
2.616971e+003,-1.526054e-003
2.618900e+003,-1.444790e-003
2.620828e+003,-1.342899e-003
2.622757e+003,-1.359579e-003
2.624685e+003,-1.368101e-003
2.626614e+003,-1.333088e-003
2.628542e+003,-1.290243e-003
2.630471e+003,-1.262426e-003
2.632399e+003,-1.229948e-003
2.634328e+003,-1.225422e-003
2.636256e+003,-1.260939e-003
2.638185e+003,-1.193735e-003
2.640113e+003,-1.123281e-003
2.642042e+003,-9.829017e-004
2.643970e+003,-7.884043e-004
2.645899e+003,-8.125145e-004
2.647827e+003,-8.309353e-004
2.649756e+003,-8.562997e-004
2.651684e+003,-8.777278e-004
2.653613e+003,-7.958789e-004
2.655541e+003,-7.519552e-004
2.657470e+003,-7.659133e-004
2.659398e+003,-7.386251e-004
2.661327e+003,-7.726938e-004
2.663255e+003,-7.419660e-004
2.665184e+003,-6.024558e-004
2.667112e+003,-4.539972e-004
2.669041e+003,-3.399547e-004
2.670969e+003,-2.555870e-004
2.672898e+003,-3.035342e-004
2.674826e+003,-3.901768e-004
2.676755e+003,-3.112821e-004
2.678683e+003,-2.502555e-004
2.680612e+003,-1.259905e-004
2.682540e+003,-2.186841e-006
2.684469e+003,3.296962e-005
2.686397e+003,7.104519e-005
2.688326e+003,1.781983e-004
2.690254e+003,2.890250e-004
2.692183e+003,2.116787e-004
2.694111e+003,1.514821e-004
2.696040e+003,1.507198e-004
2.697968e+003,2.866377e-004
2.699897e+003,5.018730e-004
2.701825e+003,5.556818e-004
2.703754e+003,5.536913e-004
2.705682e+003,5.589663e-004
2.707611e+003,6.180581e-004
2.709539e+003,6.871469e-004
2.711468e+003,7.290966e-004
2.713396e+003,8.398317e-004
2.715325e+003,9.040417e-004
2.717253e+003,8.741599e-004
2.719182e+003,9.455807e-004
2.721110e+003,1.010006e-003
2.723039e+003,1.058098e-003
2.724967e+003,1.093440e-003
2.726896e+003,1.151010e-003
2.728824e+003,1.205365e-003
2.730753e+003,1.263016e-003
2.732681e+003,1.272852e-003
2.734610e+003,1.307381e-003
2.736538e+003,1.386252e-003
2.738467e+003,1.517603e-003
2.740395e+003,1.608551e-003
2.742324e+003,1.590926e-003
2.744252e+003,1.637486e-003
2.746181e+003,1.817156e-003
2.748109e+003,1.902443e-003
2.750038e+003,1.958256e-003
2.751966e+003,1.995503e-003
2.753895e+003,2.109990e-003
2.755823e+003,2.321868e-003
2.757752e+003,2.517484e-003
2.759680e+003,2.636643e-003
2.761609e+003,2.760404e-003
2.763537e+003,3.059914e-003
2.765466e+003,3.301368e-003
2.767394e+003,3.488943e-003
2.769323e+003,3.716766e-003
2.771251e+003,4.079511e-003
2.773180e+003,4.438041e-003
2.775108e+003,4.783232e-003
2.777037e+003,5.211217e-003
2.778965e+003,5.633280e-003
2.780894e+003,6.219245e-003
2.782822e+003,6.872547e-003
2.784750e+003,7.424223e-003
2.786679e+003,8.020778e-003
2.788608e+003,8.667131e-003
2.790536e+003,9.281578e-003
2.792465e+003,9.845712e-003
2.794393e+003,1.050898e-002
2.796322e+003,1.114154e-002
2.798250e+003,1.175674e-002
2.800178e+003,1.225436e-002
2.802107e+003,1.277481e-002
2.804036e+003,1.340008e-002
2.805964e+003,1.375812e-002
2.807893e+003,1.400094e-002
2.809821e+003,1.425808e-002
2.811750e+003,1.450234e-002
2.813678e+003,1.462785e-002
2.815606e+003,1.458389e-002
2.817535e+003,1.444301e-002
2.819464e+003,1.435074e-002
2.821392e+003,1.430646e-002
2.823321e+003,1.408304e-002
2.825249e+003,1.381664e-002
2.827177e+003,1.349585e-002
2.829106e+003,1.296802e-002
2.831034e+003,1.243592e-002
2.832963e+003,1.205452e-002
2.834892e+003,1.185646e-002
2.836820e+003,1.150792e-002
2.838749e+003,1.095284e-002
2.840677e+003,1.034570e-002
2.842605e+003,9.920962e-003
2.844534e+003,9.493461e-003
2.846462e+003,8.939762e-003
2.848391e+003,8.442845e-003
2.850320e+003,8.144935e-003
2.852248e+003,7.985003e-003
2.854177e+003,7.749061e-003
2.856105e+003,7.615745e-003
2.858033e+003,7.395069e-003
2.859962e+003,7.238647e-003
2.861890e+003,7.180500e-003
2.863819e+003,6.992571e-003
2.865748e+003,6.855851e-003
2.867676e+003,6.796847e-003
2.869604e+003,6.932908e-003
2.871533e+003,6.970920e-003
2.873461e+003,6.938666e-003
2.875390e+003,6.974153e-003
2.877319e+003,7.106161e-003
2.879247e+003,7.363692e-003
2.881176e+003,7.467199e-003
2.883104e+003,7.482739e-003
2.885032e+003,7.633550e-003
2.886961e+003,7.612103e-003
2.888889e+003,7.493493e-003
2.890818e+003,7.479604e-003
2.892747e+003,7.410269e-003
2.894675e+003,7.302159e-003
2.896604e+003,7.268026e-003
2.898532e+003,7.260311e-003
2.900460e+003,7.279785e-003
2.902389e+003,7.243566e-003
2.904317e+003,7.196569e-003
2.906246e+003,7.239220e-003
2.908175e+003,7.224362e-003
2.910103e+003,7.196333e-003
2.912031e+003,7.142773e-003
2.913960e+003,7.141022e-003
2.915888e+003,7.182858e-003
2.917817e+003,7.297846e-003
2.919745e+003,7.527441e-003
2.921674e+003,7.757561e-003
2.923603e+003,7.940423e-003
2.925531e+003,8.018145e-003
2.927459e+003,8.021150e-003
2.929388e+003,8.037722e-003
2.931316e+003,8.121606e-003
2.933245e+003,8.207803e-003
2.935173e+003,8.236707e-003
2.937102e+003,8.289997e-003
2.939031e+003,8.277097e-003
2.940959e+003,8.148311e-003
2.942887e+003,7.922437e-003
2.944816e+003,7.818046e-003
2.946744e+003,7.693038e-003
2.948673e+003,7.414077e-003
2.950601e+003,6.917994e-003
2.952530e+003,6.413767e-003
2.954458e+003,6.043423e-003
2.956387e+003,5.660839e-003
2.958315e+003,5.243847e-003
2.960244e+003,4.656349e-003
2.962172e+003,4.023793e-003
2.964101e+003,3.529660e-003
2.966029e+003,3.115543e-003
2.967958e+003,2.693251e-003
2.969886e+003,2.183946e-003
2.971815e+003,1.784550e-003
2.973743e+003,1.451274e-003
2.975672e+003,1.074307e-003
2.977600e+003,7.423728e-004
2.979529e+003,4.420342e-004
2.981457e+003,2.600143e-004
2.983386e+003,4.221482e-005
2.985314e+003,-1.727928e-004
2.987243e+003,-4.094762e-004
2.989171e+003,-5.679766e-004
2.991100e+003,-7.751745e-004
2.993028e+003,-8.843411e-004
2.994957e+003,-9.396250e-004
2.996885e+003,-1.102229e-003
2.998814e+003,-1.141722e-003
3.000742e+003,-1.197138e-003
3.002671e+003,-1.273857e-003
3.004599e+003,-1.315812e-003
3.006528e+003,-1.367771e-003
3.008456e+003,-1.394194e-003
3.010385e+003,-1.487355e-003
3.012313e+003,-1.577625e-003
3.014242e+003,-1.562867e-003
3.016170e+003,-1.570197e-003
3.018099e+003,-1.582874e-003
3.020027e+003,-1.790974e-003
3.021956e+003,-1.948213e-003
3.023884e+003,-1.896983e-003
3.025813e+003,-1.957943e-003
3.027741e+003,-2.103811e-003
3.029670e+003,-2.076013e-003
3.031598e+003,-2.047356e-003
3.033527e+003,-2.078025e-003
3.035455e+003,-2.054414e-003
3.037384e+003,-2.032318e-003
3.039312e+003,-2.067308e-003
3.041241e+003,-2.212612e-003
3.043169e+003,-2.371444e-003
3.045098e+003,-2.388382e-003
3.047026e+003,-2.379386e-003
3.048955e+003,-2.453919e-003
3.050883e+003,-2.451712e-003
3.052812e+003,-2.427198e-003
3.054740e+003,-2.568824e-003
3.056669e+003,-2.601894e-003
3.058597e+003,-2.628242e-003
3.060526e+003,-2.760452e-003
3.062454e+003,-2.851906e-003
3.064383e+003,-2.887784e-003
3.066311e+003,-2.854309e-003
3.068240e+003,-2.742936e-003
3.070168e+003,-2.875342e-003
3.072097e+003,-3.062524e-003
3.074025e+003,-3.038572e-003
3.075954e+003,-3.081903e-003
3.077882e+003,-3.174670e-003
3.079811e+003,-3.204996e-003
3.081739e+003,-3.213219e-003
3.083668e+003,-3.200457e-003
3.085596e+003,-3.225848e-003
3.087525e+003,-3.351137e-003
3.089453e+003,-3.422183e-003
3.091382e+003,-3.439178e-003
3.093310e+003,-3.328482e-003
3.095239e+003,-3.310233e-003
3.097167e+003,-3.432505e-003
3.099096e+003,-3.428955e-003
3.101024e+003,-3.447692e-003
3.102953e+003,-3.503834e-003
3.104881e+003,-3.587212e-003
3.106810e+003,-3.563288e-003
3.108738e+003,-3.542452e-003
3.110667e+003,-3.569762e-003
3.112595e+003,-3.487597e-003
3.114524e+003,-3.472872e-003
3.116452e+003,-3.608013e-003
3.118381e+003,-3.602854e-003
3.120309e+003,-3.559443e-003
3.122238e+003,-3.513234e-003
3.124166e+003,-3.558687e-003
3.126095e+003,-3.579227e-003
3.128023e+003,-3.705037e-003
3.129952e+003,-3.724256e-003
3.131880e+003,-3.779015e-003
3.133809e+003,-3.837479e-003
3.135737e+003,-3.782365e-003
3.137666e+003,-3.652536e-003
3.139594e+003,-3.609064e-003
3.141523e+003,-3.688972e-003
3.143451e+003,-3.759668e-003
3.145380e+003,-3.822634e-003
3.147308e+003,-3.893209e-003
3.149237e+003,-3.864015e-003
3.151165e+003,-3.763938e-003
3.153094e+003,-3.652634e-003
3.155022e+003,-3.639196e-003
3.156951e+003,-3.748630e-003
3.158879e+003,-3.762197e-003
3.160808e+003,-3.692783e-003
3.162736e+003,-3.721365e-003
3.164665e+003,-3.804569e-003
3.166593e+003,-3.819612e-003
3.168522e+003,-3.881814e-003
3.170450e+003,-3.809956e-003
3.172379e+003,-3.768635e-003
3.174307e+003,-3.803846e-003
3.176236e+003,-3.664397e-003
3.178164e+003,-3.603084e-003
3.180093e+003,-3.660914e-003
3.182021e+003,-3.738710e-003
3.183950e+003,-3.718704e-003
3.185878e+003,-3.628911e-003
3.187807e+003,-3.473496e-003
3.189735e+003,-3.532987e-003
3.191664e+003,-3.724091e-003
3.193592e+003,-3.746692e-003
3.195521e+003,-3.634826e-003
3.197449e+003,-3.629831e-003
3.199378e+003,-3.698992e-003
3.201306e+003,-3.759668e-003
3.203235e+003,-3.684274e-003
3.205163e+003,-3.613566e-003
3.207092e+003,-3.693309e-003
3.209020e+003,-3.635844e-003
3.210948e+003,-3.512971e-003
3.212877e+003,-3.398809e-003
3.214806e+003,-3.345613e-003
3.216734e+003,-3.459559e-003
3.218663e+003,-3.461729e-003
3.220591e+003,-3.364847e-003
3.222520e+003,-3.294087e-003
3.224448e+003,-3.299020e-003
3.226376e+003,-3.368036e-003
3.228305e+003,-3.160493e-003
3.230234e+003,-2.892589e-003
3.232162e+003,-2.950383e-003
3.234091e+003,-2.908421e-003
3.236019e+003,-2.965850e-003
3.237948e+003,-3.116644e-003
3.239876e+003,-2.948770e-003
3.241804e+003,-2.564905e-003
3.243733e+003,-2.440081e-003
3.245662e+003,-2.457642e-003
3.247590e+003,-2.314497e-003
3.249519e+003,-2.182447e-003
3.251447e+003,-2.125607e-003
3.253375e+003,-2.203414e-003
3.255304e+003,-2.182612e-003
3.257232e+003,-2.001250e-003
3.259161e+003,-1.911927e-003
3.261090e+003,-1.789489e-003
3.263018e+003,-1.674378e-003
3.264947e+003,-1.796122e-003
3.266875e+003,-1.916149e-003
3.268803e+003,-1.760813e-003
3.270732e+003,-1.625855e-003
3.272660e+003,-1.619517e-003
3.274589e+003,-1.534639e-003
3.276518e+003,-1.493959e-003
3.278446e+003,-1.538997e-003
3.280375e+003,-1.472793e-003
3.282303e+003,-1.471967e-003
3.284231e+003,-1.474147e-003
3.286160e+003,-1.592481e-003
3.288088e+003,-1.765466e-003
3.290017e+003,-1.844427e-003
3.291946e+003,-1.714347e-003
3.293874e+003,-1.707482e-003
3.295802e+003,-1.857855e-003
3.297731e+003,-1.958966e-003
3.299659e+003,-2.019852e-003
3.301588e+003,-2.197678e-003
3.303516e+003,-2.356153e-003
3.305445e+003,-2.379221e-003
3.307374e+003,-2.363667e-003
3.309302e+003,-2.482813e-003
3.311230e+003,-2.689758e-003
3.313159e+003,-2.868594e-003
3.315087e+003,-2.968482e-003
3.317016e+003,-2.887323e-003
3.318944e+003,-2.988622e-003
3.320873e+003,-3.255546e-003
3.322802e+003,-3.458113e-003
3.324730e+003,-3.521550e-003
3.326658e+003,-3.529963e-003
3.328587e+003,-3.558687e-003
3.330515e+003,-3.689070e-003
3.332444e+003,-3.846707e-003
3.334372e+003,-3.806573e-003
3.336301e+003,-3.782661e-003
3.338229e+003,-3.899284e-003
3.340158e+003,-4.040628e-003
3.342086e+003,-4.082546e-003
3.344015e+003,-4.099910e-003
3.345943e+003,-4.113728e-003
3.347872e+003,-4.182320e-003
3.349800e+003,-4.310449e-003
3.351729e+003,-4.432178e-003
3.353657e+003,-4.585054e-003
3.355586e+003,-4.664520e-003
3.357514e+003,-4.605774e-003
3.359443e+003,-4.805550e-003
3.361371e+003,-5.066087e-003
3.363300e+003,-5.004218e-003
3.365229e+003,-4.976016e-003
3.367157e+003,-5.262279e-003
3.369085e+003,-5.536675e-003
3.371014e+003,-5.534221e-003
3.372942e+003,-5.483250e-003
3.374871e+003,-5.595590e-003
3.376799e+003,-5.590585e-003
3.378728e+003,-5.753484e-003
3.380656e+003,-5.914982e-003
3.382585e+003,-6.056554e-003
3.384513e+003,-6.142318e-003
3.386442e+003,-6.250569e-003
3.388370e+003,-6.339625e-003
3.390299e+003,-6.261150e-003
3.392227e+003,-6.156627e-003
3.394156e+003,-6.269609e-003
3.396084e+003,-6.302888e-003
3.398013e+003,-6.417987e-003
3.399941e+003,-6.594609e-003
3.401870e+003,-6.652206e-003
3.403798e+003,-6.653968e-003
3.405727e+003,-6.650378e-003
3.407655e+003,-6.683269e-003
3.409584e+003,-6.725064e-003
3.411512e+003,-6.716679e-003
3.413441e+003,-6.734557e-003
3.415369e+003,-6.789232e-003
3.417298e+003,-6.819209e-003
3.419226e+003,-6.865132e-003
3.421155e+003,-6.830429e-003
3.423083e+003,-6.907138e-003
3.425012e+003,-6.986343e-003
3.426940e+003,-7.045290e-003
3.428869e+003,-7.083300e-003
3.430797e+003,-7.012068e-003
3.432726e+003,-6.978191e-003
3.434654e+003,-7.021718e-003
3.436583e+003,-7.131314e-003
3.438511e+003,-7.197672e-003
3.440440e+003,-7.116288e-003
3.442368e+003,-7.219962e-003
3.444297e+003,-7.385314e-003
3.446225e+003,-7.270340e-003
3.448154e+003,-7.215563e-003
3.450082e+003,-7.152239e-003
3.452011e+003,-7.190339e-003
3.453939e+003,-7.233812e-003
3.455868e+003,-7.289727e-003
3.457796e+003,-7.380330e-003
3.459725e+003,-7.461468e-003
3.461653e+003,-7.402187e-003
3.463582e+003,-7.308103e-003
3.465510e+003,-7.438408e-003
3.467439e+003,-7.672110e-003
3.469367e+003,-7.610253e-003
3.471296e+003,-7.598630e-003
3.473224e+003,-7.662572e-003
3.475153e+003,-7.663353e-003
3.477081e+003,-7.626923e-003
3.479010e+003,-7.729792e-003
3.480938e+003,-7.744927e-003
3.482867e+003,-7.863419e-003
3.484795e+003,-7.862704e-003
3.486724e+003,-7.801167e-003
3.488652e+003,-7.843180e-003
3.490581e+003,-7.745838e-003
3.492509e+003,-7.723054e-003
3.494438e+003,-7.837191e-003
3.496366e+003,-7.857107e-003
3.498295e+003,-7.745089e-003
3.500223e+003,-7.768849e-003
3.502152e+003,-7.872855e-003
3.504080e+003,-7.884472e-003
3.506009e+003,-7.853202e-003
3.507937e+003,-7.903636e-003
3.509866e+003,-8.028656e-003
3.511794e+003,-8.037047e-003
3.513723e+003,-7.999185e-003
3.515651e+003,-7.939816e-003
3.517580e+003,-7.827071e-003
3.519508e+003,-7.897520e-003
3.521437e+003,-7.994306e-003
3.523365e+003,-8.098844e-003
3.525294e+003,-8.188628e-003
3.527222e+003,-8.102681e-003
3.529151e+003,-8.053376e-003
3.531079e+003,-8.031616e-003
3.533008e+003,-7.910534e-003
3.534936e+003,-7.813534e-003
3.536865e+003,-7.928038e-003
3.538793e+003,-8.191327e-003
3.540722e+003,-8.267989e-003
3.542650e+003,-8.208136e-003
3.544579e+003,-7.976870e-003
3.546507e+003,-7.741476e-003
3.548436e+003,-7.811028e-003
3.550364e+003,-7.882747e-003
3.552293e+003,-7.818480e-003
3.554221e+003,-7.850696e-003
3.556150e+003,-7.895241e-003
3.558078e+003,-7.909915e-003
3.560007e+003,-7.939002e-003
3.561935e+003,-8.117348e-003
3.563864e+003,-8.119429e-003
3.565792e+003,-7.787107e-003
3.567721e+003,-7.797164e-003
3.569649e+003,-8.006407e-003
3.571578e+003,-8.051652e-003
3.573506e+003,-8.078517e-003
3.575435e+003,-8.193732e-003
3.577363e+003,-8.224360e-003
3.579292e+003,-8.138486e-003
3.581220e+003,-8.129641e-003
3.583149e+003,-8.117413e-003
3.585077e+003,-7.990142e-003
3.587006e+003,-7.854731e-003
3.588934e+003,-7.958034e-003
3.590863e+003,-8.068402e-003
3.592791e+003,-8.004325e-003
3.594720e+003,-7.862736e-003
3.596648e+003,-7.759769e-003
3.598577e+003,-7.876532e-003
3.600505e+003,-7.965451e-003
3.602434e+003,-7.938449e-003
3.604362e+003,-7.936724e-003
3.606291e+003,-7.939718e-003
3.608219e+003,-7.843733e-003
3.610148e+003,-8.010180e-003
3.612076e+003,-8.131787e-003
3.614005e+003,-8.085120e-003
3.615933e+003,-7.908451e-003
3.617862e+003,-7.823296e-003
3.619790e+003,-8.003479e-003
3.621719e+003,-8.241527e-003
3.623647e+003,-8.265259e-003
3.625576e+003,-8.059978e-003
3.627504e+003,-7.568772e-003
3.629433e+003,-7.526668e-003
3.631361e+003,-8.085250e-003
3.633290e+003,-8.158745e-003
3.635218e+003,-8.061670e-003
3.637146e+003,-8.001234e-003
3.639075e+003,-7.995542e-003
3.641004e+003,-8.218898e-003
3.642932e+003,-8.263406e-003
3.644861e+003,-8.295166e-003
3.646789e+003,-8.229335e-003
3.648718e+003,-8.002633e-003
3.650646e+003,-8.073607e-003
3.652574e+003,-8.396675e-003
3.654503e+003,-8.170386e-003
3.656432e+003,-7.941149e-003
3.658360e+003,-8.195455e-003
3.660289e+003,-8.473366e-003
3.662217e+003,-8.586268e-003
3.664146e+003,-8.669812e-003
3.666074e+003,-8.637722e-003
3.668002e+003,-8.425923e-003
3.669931e+003,-8.271143e-003
3.671860e+003,-8.470573e-003
3.673788e+003,-8.365051e-003
3.675717e+003,-8.090680e-003
3.677645e+003,-8.427256e-003
3.679573e+003,-8.683193e-003
3.681502e+003,-8.641230e-003
3.683430e+003,-8.573307e-003
3.685359e+003,-8.625639e-003
3.687288e+003,-8.394757e-003
3.689216e+003,-8.068988e-003
3.691145e+003,-8.128893e-003
3.693073e+003,-8.326340e-003
3.695001e+003,-8.369959e-003
3.696930e+003,-8.210314e-003
3.698858e+003,-8.197081e-003
3.700787e+003,-8.131593e-003
3.702716e+003,-8.063849e-003
3.704644e+003,-8.276312e-003
3.706573e+003,-8.377077e-003
3.708501e+003,-8.282099e-003
3.710429e+003,-8.106226e-003
3.712358e+003,-8.066646e-003
3.714286e+003,-8.378085e-003
3.716215e+003,-8.395310e-003
3.718144e+003,-8.220687e-003
3.720072e+003,-8.263471e-003
3.722000e+003,-8.101511e-003
3.723929e+003,-8.098747e-003
3.725857e+003,-8.120958e-003
3.727786e+003,-8.178613e-003
3.729714e+003,-8.080697e-003
3.731643e+003,-7.727904e-003
3.733572e+003,-7.536372e-003
3.735500e+003,-7.534320e-003
3.737428e+003,-7.945313e-003
3.739357e+003,-8.385657e-003
3.741285e+003,-8.245492e-003
3.743214e+003,-7.647433e-003
3.745142e+003,-7.345831e-003
3.747071e+003,-7.712833e-003
3.749000e+003,-7.387366e-003
3.750928e+003,-7.337425e-003
3.752856e+003,-7.535264e-003
3.754785e+003,-7.772136e-003
3.756713e+003,-7.842431e-003
3.758642e+003,-7.771778e-003
3.760570e+003,-7.595797e-003
3.762499e+003,-7.681811e-003
3.764427e+003,-7.712377e-003
3.766356e+003,-7.565223e-003
3.768284e+003,-7.657460e-003
3.770213e+003,-7.526049e-003
3.772141e+003,-7.665892e-003
3.774070e+003,-7.806829e-003
3.775998e+003,-7.681909e-003
3.777927e+003,-7.670059e-003
3.779855e+003,-7.598955e-003
3.781784e+003,-7.801525e-003
3.783712e+003,-7.858636e-003
3.785641e+003,-7.645089e-003
3.787569e+003,-7.660456e-003
3.789498e+003,-7.966362e-003
3.791426e+003,-8.182026e-003
3.793355e+003,-8.066548e-003
3.795283e+003,-7.737115e-003
3.797212e+003,-7.514781e-003
3.799140e+003,-7.474300e-003
3.801069e+003,-7.260858e-003
3.802997e+003,-7.493776e-003
3.804926e+003,-7.624546e-003
3.806854e+003,-7.331333e-003
3.808783e+003,-7.442903e-003
3.810711e+003,-7.514391e-003
3.812640e+003,-7.496283e-003
3.814568e+003,-7.447202e-003
3.816497e+003,-7.023120e-003
3.818425e+003,-7.152696e-003
3.820354e+003,-6.983963e-003
3.822282e+003,-7.135715e-003
3.824211e+003,-7.694083e-003
3.826139e+003,-7.679369e-003
3.828068e+003,-7.581763e-003
3.829996e+003,-7.516377e-003
3.831925e+003,-7.412415e-003
3.833853e+003,-7.474496e-003
3.835782e+003,-7.483289e-003
3.837710e+003,-7.154293e-003
3.839639e+003,-7.239384e-003
3.841567e+003,-7.446877e-003
3.843496e+003,-7.432675e-003
3.845424e+003,-7.405575e-003
3.847353e+003,-7.661921e-003
3.849281e+003,-7.771485e-003
3.851210e+003,-7.199822e-003
3.853138e+003,-6.538344e-003
3.855067e+003,-6.794842e-003
3.856995e+003,-7.173946e-003
3.858924e+003,-7.371273e-003
3.860852e+003,-7.344104e-003
3.862781e+003,-7.200214e-003
3.864709e+003,-7.121732e-003
3.866638e+003,-7.424761e-003
3.868566e+003,-7.382512e-003
3.870495e+003,-7.202625e-003
3.872423e+003,-7.308918e-003
3.874352e+003,-7.230683e-003
3.876280e+003,-7.335503e-003
3.878209e+003,-7.388473e-003
3.880137e+003,-7.177466e-003
3.882066e+003,-7.421210e-003
3.883994e+003,-7.472607e-003
3.885923e+003,-7.174695e-003
3.887851e+003,-7.463845e-003
3.889780e+003,-7.379678e-003
3.891708e+003,-7.197965e-003
3.893637e+003,-7.465246e-003
3.895565e+003,-7.734609e-003
3.897494e+003,-7.551286e-003
3.899422e+003,-7.349805e-003
3.901351e+003,-7.342410e-003
3.903279e+003,-7.274315e-003
3.905208e+003,-7.321754e-003
3.907136e+003,-7.420396e-003
3.909065e+003,-7.511166e-003
3.910993e+003,-7.675137e-003
3.912922e+003,-7.648703e-003
3.914850e+003,-7.509441e-003
3.916779e+003,-7.402643e-003
3.918707e+003,-7.418702e-003
3.920636e+003,-7.557701e-003
3.922564e+003,-7.438376e-003
3.924493e+003,-7.216671e-003
3.926421e+003,-7.295071e-003
3.928350e+003,-7.613183e-003
3.930278e+003,-7.924524e-003
3.932207e+003,-7.748637e-003
3.934135e+003,-7.587397e-003
3.936064e+003,-7.616667e-003
3.937992e+003,-7.498498e-003
3.939921e+003,-7.328661e-003
3.941849e+003,-7.326544e-003
3.943778e+003,-7.570758e-003
3.945706e+003,-7.514944e-003
3.947635e+003,-7.237690e-003
3.949563e+003,-7.283862e-003
3.951492e+003,-7.465344e-003
3.953420e+003,-7.563073e-003
3.955349e+003,-7.664264e-003
3.957277e+003,-7.545848e-003
3.959206e+003,-7.567144e-003
3.961134e+003,-7.858734e-003
3.963063e+003,-7.697794e-003
3.964991e+003,-7.426487e-003
3.966920e+003,-7.431633e-003
3.968848e+003,-7.235246e-003
3.970777e+003,-7.315629e-003
3.972705e+003,-7.470685e-003
3.974634e+003,-7.419190e-003
3.976562e+003,-7.516735e-003
3.978491e+003,-7.411373e-003
3.980419e+003,-7.281288e-003
3.982348e+003,-7.271513e-003
3.984276e+003,-7.316346e-003
3.986205e+003,-7.403392e-003
3.988133e+003,-7.397952e-003
3.990062e+003,-7.407627e-003
3.991990e+003,-7.620248e-003
3.993919e+003,-7.753682e-003
3.995847e+003,-7.665990e-003
3.997776e+003,-7.448733e-003
3.999704e+003,-7.592280e-003
4.001633e+003,0.000000e+000
