3.991989e+002,3.143134e-002
4.011274e+002,2.944145e-002
4.030559e+002,1.770816e-002
4.049844e+002,1.628198e-002
4.069129e+002,2.025373e-002
4.088414e+002,2.382407e-002
4.107699e+002,2.475701e-002
4.126984e+002,2.234176e-002
4.146269e+002,1.653128e-002
4.165554e+002,1.544065e-002
4.184839e+002,1.976198e-002
4.204124e+002,2.144556e-002
4.223409e+002,2.379043e-002
4.242694e+002,2.487482e-002
4.261979e+002,2.253352e-002
4.281264e+002,1.927071e-002
4.300549e+002,2.011426e-002
4.319834e+002,6.482102e-003
4.339119e+002,-4.018272e-003
4.358404e+002,1.030905e-002
4.377689e+002,1.990844e-002
4.396974e+002,1.492915e-002
4.416259e+002,1.467837e-002
4.435544e+002,2.070589e-002
4.454829e+002,2.118292e-002
4.474114e+002,2.180416e-002
4.493399e+002,2.152146e-002
4.512684e+002,1.819089e-002
4.531969e+002,1.642008e-002
4.551254e+002,1.779345e-002
4.570539e+002,1.770271e-002
4.589824e+002,1.419706e-002
4.609109e+002,1.418245e-002
4.628394e+002,1.673685e-002
4.647679e+002,1.684991e-002
4.666964e+002,1.767451e-002
4.686249e+002,1.691216e-002
4.705533e+002,1.612783e-002
4.724819e+002,1.663723e-002
4.744103e+002,1.693882e-002
4.763389e+002,1.677411e-002
4.782673e+002,1.706225e-002
4.801959e+002,1.702965e-002
4.821243e+002,1.826950e-002
4.840529e+002,1.967921e-002
4.859813e+002,1.984490e-002
4.879099e+002,1.892472e-002
4.898383e+002,1.839648e-002
4.917668e+002,1.720622e-002
4.936953e+002,2.020065e-002
4.956238e+002,2.090559e-002
4.975523e+002,1.910812e-002
4.994808e+002,2.007460e-002
5.014093e+002,2.014911e-002
5.033378e+002,1.646007e-002
5.052663e+002,1.122929e-002
5.071948e+002,1.344390e-002
5.091233e+002,1.641499e-002
5.110518e+002,1.590086e-002
5.129803e+002,1.543543e-002
5.149088e+002,1.523903e-002
5.168373e+002,1.722063e-002
5.187658e+002,1.880274e-002
5.206943e+002,1.836717e-002
5.226228e+002,1.743835e-002
5.245513e+002,1.808206e-002
5.264798e+002,1.774744e-002
5.284083e+002,1.787962e-002
5.303368e+002,1.769632e-002
5.322653e+002,1.726983e-002
5.341938e+002,1.619138e-002
5.361223e+002,1.604967e-002
5.380508e+002,1.699188e-002
5.399792e+002,1.879879e-002
5.419078e+002,1.796384e-002
5.438363e+002,1.757103e-002
5.457648e+002,1.838504e-002
5.476932e+002,1.813457e-002
5.496218e+002,1.846825e-002
5.515503e+002,1.869051e-002
5.534788e+002,1.806849e-002
5.554072e+002,2.007050e-002
5.573358e+002,2.048173e-002
5.592643e+002,2.055930e-002
5.611927e+002,2.003771e-002
5.631212e+002,2.029483e-002
5.650497e+002,1.999292e-002
5.669783e+002,2.063063e-002
5.689067e+002,2.132384e-002
5.708352e+002,2.044408e-002
5.727637e+002,1.810939e-002
5.746923e+002,1.735744e-002
5.766207e+002,1.851811e-002
5.785492e+002,1.780947e-002
5.804777e+002,6.962065e-003
5.824063e+002,7.466019e-003
5.843347e+002,1.842573e-002
5.862632e+002,2.168206e-002
5.881917e+002,2.106399e-002
5.901202e+002,1.973771e-002
5.920487e+002,1.858775e-002
5.939772e+002,1.862642e-002
5.959057e+002,2.031559e-002
5.978342e+002,2.213645e-002
5.997627e+002,2.460929e-002
6.016912e+002,2.517137e-002
6.036197e+002,2.595175e-002
6.055482e+002,2.714545e-002
6.074767e+002,2.819398e-002
6.094052e+002,2.987433e-002
6.113337e+002,3.124284e-002
6.132622e+002,2.936377e-002
6.151907e+002,2.844052e-002
6.171192e+002,2.924187e-002
6.190477e+002,2.912709e-002
6.209762e+002,2.894946e-002
6.229047e+002,2.661674e-002
6.248332e+002,2.263313e-002
6.267617e+002,1.931128e-002
6.286902e+002,1.737586e-002
6.306187e+002,1.647301e-002
6.325472e+002,1.591798e-002
6.344756e+002,1.640381e-002
6.364042e+002,1.641310e-002
6.383326e+002,1.571678e-002
6.402612e+002,1.497826e-002
6.421896e+002,1.575200e-002
6.441182e+002,1.592251e-002
6.460466e+002,1.523192e-002
6.479752e+002,1.514456e-002
6.499036e+002,1.477657e-002
6.518322e+002,1.423781e-002
6.537606e+002,1.433057e-002
6.556891e+002,1.410358e-002
6.576177e+002,1.374181e-002
6.595461e+002,1.377289e-002
6.614746e+002,1.336465e-002
6.634031e+002,1.289709e-002
6.653317e+002,1.417046e-002
6.672601e+002,1.854449e-002
6.691886e+002,1.696225e-002
6.711171e+002,1.346122e-002
6.730457e+002,1.337432e-002
6.749741e+002,1.337452e-002
6.769026e+002,1.341785e-002
6.788311e+002,1.337357e-002
6.807596e+002,1.383272e-002
6.826881e+002,1.430194e-002
6.846166e+002,1.453815e-002
6.865451e+002,1.427431e-002
6.884736e+002,1.442695e-002
6.904021e+002,1.444092e-002
6.923306e+002,1.445253e-002
6.942591e+002,1.514360e-002
6.961876e+002,1.550960e-002
6.981161e+002,1.525917e-002
7.000446e+002,1.496372e-002
7.019731e+002,1.454013e-002
7.039016e+002,1.456175e-002
7.058301e+002,1.487689e-002
7.077585e+002,1.512490e-002
7.096871e+002,1.541775e-002
7.116156e+002,1.568418e-002
7.135441e+002,1.552646e-002
7.154725e+002,1.601742e-002
7.174011e+002,1.676291e-002
7.193296e+002,1.675844e-002
7.212581e+002,1.668068e-002
7.231865e+002,1.731517e-002
7.251151e+002,1.733820e-002
7.270436e+002,1.751010e-002
7.289720e+002,1.800017e-002
7.309005e+002,1.855545e-002
7.328290e+002,1.863147e-002
7.347576e+002,1.829462e-002
7.366860e+002,1.801931e-002
7.386145e+002,1.804331e-002
7.405430e+002,1.901074e-002
7.424716e+002,1.932108e-002
7.444000e+002,1.885620e-002
7.463285e+002,1.881014e-002
7.482570e+002,1.883374e-002
7.501855e+002,1.877766e-002
7.521140e+002,1.919268e-002
7.540425e+002,1.978923e-002
7.559710e+002,1.984670e-002
7.578995e+002,1.968830e-002
7.598280e+002,1.963834e-002
7.617565e+002,1.977522e-002
7.636850e+002,1.996117e-002
7.656135e+002,2.064849e-002
7.675420e+002,2.069231e-002
7.694705e+002,1.991517e-002
7.713990e+002,1.964520e-002
7.733275e+002,1.970303e-002
7.752560e+002,1.960516e-002
7.771844e+002,1.961192e-002
7.791130e+002,1.937921e-002
7.810415e+002,1.902361e-002
7.829700e+002,1.847918e-002
7.848984e+002,1.811699e-002
7.868270e+002,1.853934e-002
7.887555e+002,1.860058e-002
7.906840e+002,1.800521e-002
7.926124e+002,1.735776e-002
7.945410e+002,1.693693e-002
7.964695e+002,1.657444e-002
7.983979e+002,1.626839e-002
8.003264e+002,1.622746e-002
8.022549e+002,1.621941e-002
8.041835e+002,1.644410e-002
8.061119e+002,1.668399e-002
8.080404e+002,1.687392e-002
8.099689e+002,1.747847e-002
8.118975e+002,1.821445e-002
8.138259e+002,1.821770e-002
8.157545e+002,1.793632e-002
8.176830e+002,1.805267e-002
8.196115e+002,1.780647e-002
8.215399e+002,1.777833e-002
8.234684e+002,1.767034e-002
8.253970e+002,1.763693e-002
8.273254e+002,1.801312e-002
8.292539e+002,1.765246e-002
8.311824e+002,1.708558e-002
8.331110e+002,1.704526e-002
8.350394e+002,1.722008e-002
8.369679e+002,1.751876e-002
8.388964e+002,1.746333e-002
8.408250e+002,1.732855e-002
8.427534e+002,1.706766e-002
8.446819e+002,1.682566e-002
8.466104e+002,1.698926e-002
8.485389e+002,1.721239e-002
8.504674e+002,1.725693e-002
8.523959e+002,1.719729e-002
8.543244e+002,1.733079e-002
8.562529e+002,1.748537e-002
8.581814e+002,1.756993e-002
8.601099e+002,1.734424e-002
8.620384e+002,1.710929e-002
8.639669e+002,1.719660e-002
8.658954e+002,1.704826e-002
8.678239e+002,1.663858e-002
8.697524e+002,1.710960e-002
8.716809e+002,1.772069e-002
8.736094e+002,1.768759e-002
8.755378e+002,1.738821e-002
8.774664e+002,1.762989e-002
8.793949e+002,1.764232e-002
8.813234e+002,1.723894e-002
8.832518e+002,1.751742e-002
8.851804e+002,1.769546e-002
8.871089e+002,1.760677e-002
8.890374e+002,1.742573e-002
8.909658e+002,1.753446e-002
8.928943e+002,1.775086e-002
8.948229e+002,1.775068e-002
8.967513e+002,1.776939e-002
8.986798e+002,1.759622e-002
9.006083e+002,1.746633e-002
9.025369e+002,1.773022e-002
9.044653e+002,1.785325e-002
9.063938e+002,1.758135e-002
9.083223e+002,1.713487e-002
9.102509e+002,1.686810e-002
9.121793e+002,1.717775e-002
9.141078e+002,1.707576e-002
9.160364e+002,1.665645e-002
9.179648e+002,1.658170e-002
9.198933e+002,1.623310e-002
9.218218e+002,1.592014e-002
9.237504e+002,1.584484e-002
9.256788e+002,1.560507e-002
9.276073e+002,1.528783e-002
9.295358e+002,1.514192e-002
9.314644e+002,1.496073e-002
9.333928e+002,1.483917e-002
9.353213e+002,1.470623e-002
9.372498e+002,1.480674e-002
9.391783e+002,1.469550e-002
9.411068e+002,1.475919e-002
9.430353e+002,1.490367e-002
9.449637e+002,1.482796e-002
9.468923e+002,1.493319e-002
9.488208e+002,1.478381e-002
9.507493e+002,1.499465e-002
9.526777e+002,1.511540e-002
9.546063e+002,1.515444e-002
9.565348e+002,1.533361e-002
9.584633e+002,1.532630e-002
9.603917e+002,1.520251e-002
9.623203e+002,1.532047e-002
9.642488e+002,1.533818e-002
9.661772e+002,1.525605e-002
9.681057e+002,1.521576e-002
9.700343e+002,1.499921e-002
9.719628e+002,1.496406e-002
9.738912e+002,1.486732e-002
9.758197e+002,1.468399e-002
9.777483e+002,1.452879e-002
9.796768e+002,1.436817e-002
9.816052e+002,1.422503e-002
9.835337e+002,1.396833e-002
9.854623e+002,1.382611e-002
9.873907e+002,1.381866e-002
9.893192e+002,1.360893e-002
9.912477e+002,1.301991e-002
9.931763e+002,1.272202e-002
9.951047e+002,1.268067e-002
9.970332e+002,1.249812e-002
9.989617e+002,1.238168e-002
1.000890e+003,1.238066e-002
1.002819e+003,1.247227e-002
1.004747e+003,1.257087e-002
1.006676e+003,1.254116e-002
1.008604e+003,1.261002e-002
1.010533e+003,1.252980e-002
1.012461e+003,1.260927e-002
1.014390e+003,1.268384e-002
1.016318e+003,1.290299e-002
1.018247e+003,1.316142e-002
1.020175e+003,1.317095e-002
1.022104e+003,1.328104e-002
1.024032e+003,1.368453e-002
1.025961e+003,1.410765e-002
1.027889e+003,1.421898e-002
1.029818e+003,1.434529e-002
1.031746e+003,1.451290e-002
1.033675e+003,1.481925e-002
1.035603e+003,1.511080e-002
1.037532e+003,1.544196e-002
1.039460e+003,1.568682e-002
1.041389e+003,1.569627e-002
1.043317e+003,1.569531e-002
1.045246e+003,1.589670e-002
1.047174e+003,1.611985e-002
1.049103e+003,1.623551e-002
1.051031e+003,1.606703e-002
1.052960e+003,1.609942e-002
1.054888e+003,1.620562e-002
1.056817e+003,1.616493e-002
1.058745e+003,1.611964e-002
1.060674e+003,1.625253e-002
1.062602e+003,1.604558e-002
1.064531e+003,1.583237e-002
1.066459e+003,1.592798e-002
1.068388e+003,1.592626e-002
1.070316e+003,1.586515e-002
1.072245e+003,1.599662e-002
1.074173e+003,1.586890e-002
1.076102e+003,1.576010e-002
1.078030e+003,1.588295e-002
1.079959e+003,1.585154e-002
1.081887e+003,1.581580e-002
1.083816e+003,1.609103e-002
1.085744e+003,1.621205e-002
1.087673e+003,1.609557e-002
1.089601e+003,1.632625e-002
1.091530e+003,1.671229e-002
1.093458e+003,1.677549e-002
1.095387e+003,1.678027e-002
1.097315e+003,1.709161e-002
1.099244e+003,1.753297e-002
1.101172e+003,1.773222e-002
1.103101e+003,1.769308e-002
1.105029e+003,1.779059e-002
1.106958e+003,1.786719e-002
1.108886e+003,1.801678e-002
1.110815e+003,1.792282e-002
1.112743e+003,1.780709e-002
1.114672e+003,1.769833e-002
1.116600e+003,1.807840e-002
1.118529e+003,1.837844e-002
1.120457e+003,1.818774e-002
1.122386e+003,1.792651e-002
1.124314e+003,1.797534e-002
1.126243e+003,1.803402e-002
1.128171e+003,1.776163e-002
1.130100e+003,1.782007e-002
1.132028e+003,1.781862e-002
1.133957e+003,1.765053e-002
1.135885e+003,1.747495e-002
1.137814e+003,1.699250e-002
1.139742e+003,1.635897e-002
1.141671e+003,1.618598e-002
1.143599e+003,1.603080e-002
1.145528e+003,1.555524e-002
1.147456e+003,1.517029e-002
1.149385e+003,1.497901e-002
1.151313e+003,1.468711e-002
1.153242e+003,1.440359e-002
1.155170e+003,1.441739e-002
1.157099e+003,1.437838e-002
1.159027e+003,1.415821e-002
1.160956e+003,1.398876e-002
1.162884e+003,1.402716e-002
1.164813e+003,1.401617e-002
1.166741e+003,1.380747e-002
1.168670e+003,1.383774e-002
1.170598e+003,1.381363e-002
1.172526e+003,1.371821e-002
1.174455e+003,1.362811e-002
1.176384e+003,1.374550e-002
1.178312e+003,1.375477e-002
1.180240e+003,1.353239e-002
1.182169e+003,1.345329e-002
1.184098e+003,1.340350e-002
1.186026e+003,1.326861e-002
1.187954e+003,1.325542e-002
1.189883e+003,1.323489e-002
1.191812e+003,1.303647e-002
1.193740e+003,1.291170e-002
1.195668e+003,1.267719e-002
1.197597e+003,1.234824e-002
1.199526e+003,1.222359e-002
1.201454e+003,1.225368e-002
1.203382e+003,1.235880e-002
1.205311e+003,1.228610e-002
1.207240e+003,1.220812e-002
1.209168e+003,1.216964e-002
1.211096e+003,1.222505e-002
1.213025e+003,1.245260e-002
1.214953e+003,1.258338e-002
1.216882e+003,1.249144e-002
1.218810e+003,1.231118e-002
1.220739e+003,1.224598e-002
1.222667e+003,1.236733e-002
1.224596e+003,1.251077e-002
1.226524e+003,1.259113e-002
1.228453e+003,1.270789e-002
1.230381e+003,1.275126e-002
1.232310e+003,1.276351e-002
1.234238e+003,1.276935e-002
1.236167e+003,1.285111e-002
1.238095e+003,1.308574e-002
1.240024e+003,1.328238e-002
1.241952e+003,1.330110e-002
1.243881e+003,1.308909e-002
1.245809e+003,1.306481e-002
1.247738e+003,1.323356e-002
1.249666e+003,1.350405e-002
1.251595e+003,1.351413e-002
1.253523e+003,1.343491e-002
1.255452e+003,1.349944e-002
1.257380e+003,1.342667e-002
1.259309e+003,1.337640e-002
1.261237e+003,1.343559e-002
1.263166e+003,1.365143e-002
1.265094e+003,1.394862e-002
1.267023e+003,1.426304e-002
1.268951e+003,1.460829e-002
1.270880e+003,1.482145e-002
1.272808e+003,1.484658e-002
1.274737e+003,1.500035e-002
1.276665e+003,1.524795e-002
1.278594e+003,1.535630e-002
1.280522e+003,1.545675e-002
1.282451e+003,1.558282e-002
1.284379e+003,1.581340e-002
1.286308e+003,1.610307e-002
1.288236e+003,1.624744e-002
1.290165e+003,1.634703e-002
1.292093e+003,1.636671e-002
1.294022e+003,1.644393e-002
1.295950e+003,1.677349e-002
1.297879e+003,1.717737e-002
1.299807e+003,1.710553e-002
1.301736e+003,1.668334e-002
1.303664e+003,1.648770e-002
1.305593e+003,1.643268e-002
1.307521e+003,1.644352e-002
1.309450e+003,1.617219e-002
1.311378e+003,1.592011e-002
1.313307e+003,1.568404e-002
1.315235e+003,1.549923e-002
1.317164e+003,1.534659e-002
1.319092e+003,1.505979e-002
1.321021e+003,1.478219e-002
1.322949e+003,1.469856e-002
1.324878e+003,1.458546e-002
1.326806e+003,1.436855e-002
1.328735e+003,1.444164e-002
1.330663e+003,1.458276e-002
1.332592e+003,1.450001e-002
1.334520e+003,1.435324e-002
1.336449e+003,1.416817e-002
1.338377e+003,1.416071e-002
1.340306e+003,1.426208e-002
1.342234e+003,1.418221e-002
1.344163e+003,1.403431e-002
1.346091e+003,1.394766e-002
1.348020e+003,1.405703e-002
1.349948e+003,1.409913e-002
1.351877e+003,1.406928e-002
1.353805e+003,1.412939e-002
1.355734e+003,1.411843e-002
1.357662e+003,1.408308e-002
1.359591e+003,1.398079e-002
1.361519e+003,1.388181e-002
1.363448e+003,1.381592e-002
1.365376e+003,1.365491e-002
1.367305e+003,1.350261e-002
1.369233e+003,1.339571e-002
1.371162e+003,1.334323e-002
1.373090e+003,1.341796e-002
1.375019e+003,1.336554e-002
1.376947e+003,1.335365e-002
1.378876e+003,1.339168e-002
1.380804e+003,1.341912e-002
1.382733e+003,1.337001e-002
1.384661e+003,1.336960e-002
1.386590e+003,1.333837e-002
1.388518e+003,1.326598e-002
1.390447e+003,1.298509e-002
1.392375e+003,1.283203e-002
1.394304e+003,1.294334e-002
1.396232e+003,1.277324e-002
1.398161e+003,1.257707e-002
1.400089e+003,1.262803e-002
1.402018e+003,1.261705e-002
1.403946e+003,1.245256e-002
1.405875e+003,1.234173e-002
1.407803e+003,1.223184e-002
1.409732e+003,1.209799e-002
1.411660e+003,1.212729e-002
1.413589e+003,1.224639e-002
1.415517e+003,1.243978e-002
1.417446e+003,1.276296e-002
1.419374e+003,1.316569e-002
1.421303e+003,1.329546e-002
1.423231e+003,1.367129e-002
1.425160e+003,1.420713e-002
1.427088e+003,1.454476e-002
1.429017e+003,1.491838e-002
1.430945e+003,1.524623e-002
1.432874e+003,1.565996e-002
1.434802e+003,1.622653e-002
1.436731e+003,1.662384e-002
1.438659e+003,1.687020e-002
1.440588e+003,1.718740e-002
1.442516e+003,1.758587e-002
1.444445e+003,1.788929e-002
1.446373e+003,1.829708e-002
1.448302e+003,1.872026e-002
1.450230e+003,1.900063e-002
1.452159e+003,1.919618e-002
1.454087e+003,1.947311e-002
1.456016e+003,1.991600e-002
1.457944e+003,2.018604e-002
1.459873e+003,2.005471e-002
1.461801e+003,2.000776e-002
1.463730e+003,1.991843e-002
1.465658e+003,1.971791e-002
1.467587e+003,1.936355e-002
1.469515e+003,1.909403e-002
1.471444e+003,1.891122e-002
1.473372e+003,1.850604e-002
1.475301e+003,1.804234e-002
1.477229e+003,1.756465e-002
1.479158e+003,1.700208e-002
1.481086e+003,1.658756e-002
1.483015e+003,1.602313e-002
1.484943e+003,1.547416e-002
1.486872e+003,1.525872e-002
1.488800e+003,1.502175e-002
1.490729e+003,1.472306e-002
1.492657e+003,1.425332e-002
1.494586e+003,1.387452e-002
1.496514e+003,1.373780e-002
1.498443e+003,1.350114e-002
1.500371e+003,1.317959e-002
1.502300e+003,1.303757e-002
1.504228e+003,1.318427e-002
1.506157e+003,1.336369e-002
1.508085e+003,1.298202e-002
1.510014e+003,1.261763e-002
1.511942e+003,1.242232e-002
1.513871e+003,1.235734e-002
1.515799e+003,1.256387e-002
1.517728e+003,1.272045e-002
1.519656e+003,1.266153e-002
1.521585e+003,1.271004e-002
1.523513e+003,1.260709e-002
1.525442e+003,1.256660e-002
1.527370e+003,1.250204e-002
1.529299e+003,1.257394e-002
1.531227e+003,1.261340e-002
1.533156e+003,1.281275e-002
1.535084e+003,1.297044e-002
1.537013e+003,1.313072e-002
1.538941e+003,1.342684e-002
1.540870e+003,1.358589e-002
1.542798e+003,1.367984e-002
1.544727e+003,1.366329e-002
1.546655e+003,1.340012e-002
1.548584e+003,1.339421e-002
1.550512e+003,1.351546e-002
1.552441e+003,1.352722e-002
1.554369e+003,1.358530e-002
1.556298e+003,1.381985e-002
1.558226e+003,1.432639e-002
1.560155e+003,1.445455e-002
1.562083e+003,1.436749e-002
1.564012e+003,1.456747e-002
1.565940e+003,1.466034e-002
1.567869e+003,1.485436e-002
1.569797e+003,1.522976e-002
1.571726e+003,1.528742e-002
1.573654e+003,1.526072e-002
1.575583e+003,1.547732e-002
1.577511e+003,1.558828e-002
1.579440e+003,1.553123e-002
1.581368e+003,1.544460e-002
1.583297e+003,1.528014e-002
1.585225e+003,1.530269e-002
1.587154e+003,1.523765e-002
1.589082e+003,1.505835e-002
1.591010e+003,1.485436e-002
1.592939e+003,1.471638e-002
1.594868e+003,1.460698e-002
1.596796e+003,1.447247e-002
1.598724e+003,1.421884e-002
1.600653e+003,1.403879e-002
1.602582e+003,1.389094e-002
1.604510e+003,1.364989e-002
1.606438e+003,1.347271e-002
1.608367e+003,1.339786e-002
1.610296e+003,1.320531e-002
1.612224e+003,1.286384e-002
1.614152e+003,1.271595e-002
1.616081e+003,1.274959e-002
1.618010e+003,1.254951e-002
1.619938e+003,1.237561e-002
1.621866e+003,1.245137e-002
1.623795e+003,1.226149e-002
1.625724e+003,1.206501e-002
1.627652e+003,1.191769e-002
1.629580e+003,1.173022e-002
1.631509e+003,1.150340e-002
1.633438e+003,1.149965e-002
1.635366e+003,1.158043e-002
1.637294e+003,1.135491e-002
1.639223e+003,1.097598e-002
1.641151e+003,1.070506e-002
1.643080e+003,1.039863e-002
1.645008e+003,1.028655e-002
1.646937e+003,1.024062e-002
1.648865e+003,1.000833e-002
1.650794e+003,9.971239e-003
1.652722e+003,1.021541e-002
1.654651e+003,9.768136e-003
1.656579e+003,9.376943e-003
1.658508e+003,9.257240e-003
1.660436e+003,9.214628e-003
1.662365e+003,9.183018e-003
1.664293e+003,9.115170e-003
1.666222e+003,9.044829e-003
1.668150e+003,9.163153e-003
1.670079e+003,9.248440e-003
1.672007e+003,9.171918e-003
1.673936e+003,9.176115e-003
1.675864e+003,9.076023e-003
1.677793e+003,8.754180e-003
1.679721e+003,8.670714e-003
1.681650e+003,8.795868e-003
1.683578e+003,9.049091e-003
1.685507e+003,8.997535e-003
1.687435e+003,8.737478e-003
1.689364e+003,8.573476e-003
1.691292e+003,8.511906e-003
1.693221e+003,8.616194e-003
1.695149e+003,8.920956e-003
1.697078e+003,9.047400e-003
1.699006e+003,9.144981e-003
1.700935e+003,9.183120e-003
1.702863e+003,8.970745e-003
1.704792e+003,9.103497e-003
1.706720e+003,9.150362e-003
1.708649e+003,9.024463e-003
1.710577e+003,8.943719e-003
1.712506e+003,9.060121e-003
1.714434e+003,9.294102e-003
1.716363e+003,9.453569e-003
1.718291e+003,9.420824e-003
1.720220e+003,9.258290e-003
1.722148e+003,9.192528e-003
1.724077e+003,9.229418e-003
1.726005e+003,9.319965e-003
1.727934e+003,9.419131e-003
1.729862e+003,9.360996e-003
1.731791e+003,9.429391e-003
1.733719e+003,9.600898e-003
1.735648e+003,9.391197e-003
1.737576e+003,9.289803e-003
1.739505e+003,9.386322e-003
1.741433e+003,9.301685e-003
1.743362e+003,9.326972e-003
1.745290e+003,9.395768e-003
1.747219e+003,9.528582e-003
1.749147e+003,9.643752e-003
1.751076e+003,9.732014e-003
1.753004e+003,9.686643e-003
1.754933e+003,9.616413e-003
1.756861e+003,9.702805e-003
1.758790e+003,9.700569e-003
1.760718e+003,9.747974e-003
1.762647e+003,9.789994e-003
1.764575e+003,9.638297e-003
1.766504e+003,9.603947e-003
1.768432e+003,9.708227e-003
1.770361e+003,9.760647e-003
1.772289e+003,9.847949e-003
1.774218e+003,9.781691e-003
1.776146e+003,9.618209e-003
1.778075e+003,9.502741e-003
1.780003e+003,9.442427e-003
1.781932e+003,9.447101e-003
1.783860e+003,9.500878e-003
1.785789e+003,9.630235e-003
1.787717e+003,9.724829e-003
1.789646e+003,9.684984e-003
1.791574e+003,9.726117e-003
1.793503e+003,9.701348e-003
1.795431e+003,9.580032e-003
1.797360e+003,9.637349e-003
1.799288e+003,9.674379e-003
1.801217e+003,9.622918e-003
1.803145e+003,9.642803e-003
1.805074e+003,9.725270e-003
1.807002e+003,9.785148e-003
1.808931e+003,9.768882e-003
1.810859e+003,9.699316e-003
1.812788e+003,9.665908e-003
1.814716e+003,9.687220e-003
1.816645e+003,9.727608e-003
1.818573e+003,9.781183e-003
1.820502e+003,9.728896e-003
1.822430e+003,9.697452e-003
1.824359e+003,9.745873e-003
1.826287e+003,9.759969e-003
1.828216e+003,9.815141e-003
1.830144e+003,9.833544e-003
1.832073e+003,9.688033e-003
1.834001e+003,9.702297e-003
1.835930e+003,9.738248e-003
1.837858e+003,9.620884e-003
1.839787e+003,9.664859e-003
1.841715e+003,9.715681e-003
1.843644e+003,9.865913e-003
1.845572e+003,9.813548e-003
1.847501e+003,9.647716e-003
1.849429e+003,9.628642e-003
1.851358e+003,9.691218e-003
1.853286e+003,9.720188e-003
1.855215e+003,9.778912e-003
1.857143e+003,9.858083e-003
1.859072e+003,9.827918e-003
1.861000e+003,9.812430e-003
1.862929e+003,9.773829e-003
1.864857e+003,9.738858e-003
1.866786e+003,9.715443e-003
1.868714e+003,9.743602e-003
1.870643e+003,9.694911e-003
1.872571e+003,9.654965e-003
1.874500e+003,9.767966e-003
1.876428e+003,9.777421e-003
1.878357e+003,9.818191e-003
1.880285e+003,9.885709e-003
1.882214e+003,9.900217e-003
1.884142e+003,9.867134e-003
1.886071e+003,9.800331e-003
1.887999e+003,9.802940e-003
1.889928e+003,9.799856e-003
1.891856e+003,9.760817e-003
1.893785e+003,9.833307e-003
1.895713e+003,9.905572e-003
1.897642e+003,9.878285e-003
1.899570e+003,9.861914e-003
1.901499e+003,9.837442e-003
1.903427e+003,9.834426e-003
1.905356e+003,9.855033e-003
1.907284e+003,9.848220e-003
1.909213e+003,9.845305e-003
1.911141e+003,9.792637e-003
1.913070e+003,9.752040e-003
1.914998e+003,9.806228e-003
1.916927e+003,9.884928e-003
1.918855e+003,9.920895e-003
1.920784e+003,9.833307e-003
1.922712e+003,9.749058e-003
1.924641e+003,9.734012e-003
1.926569e+003,9.844153e-003
1.928498e+003,9.844865e-003
1.930426e+003,9.840289e-003
1.932355e+003,9.751938e-003
1.934283e+003,9.663233e-003
1.936212e+003,9.688033e-003
1.938140e+003,9.696944e-003
1.940069e+003,9.713749e-003
1.941997e+003,9.848355e-003
1.943926e+003,9.910047e-003
1.945854e+003,9.859168e-003
1.947783e+003,9.804940e-003
1.949711e+003,9.779421e-003
1.951640e+003,9.824292e-003
1.953568e+003,9.898148e-003
1.955497e+003,9.866828e-003
1.957425e+003,9.789689e-003
1.959354e+003,9.788503e-003
1.961282e+003,9.782674e-003
1.963211e+003,9.748177e-003
1.965139e+003,9.749633e-003
1.967068e+003,9.758275e-003
1.968996e+003,9.675564e-003
1.970925e+003,9.685491e-003
1.972853e+003,9.792333e-003
1.974782e+003,9.872964e-003
1.976710e+003,9.846288e-003
1.978639e+003,9.797246e-003
1.980567e+003,9.709141e-003
1.982496e+003,9.661640e-003
1.984424e+003,9.688643e-003
1.986353e+003,9.707617e-003
1.988281e+003,9.702297e-003
1.990210e+003,9.713987e-003
1.992138e+003,9.798263e-003
1.994067e+003,9.805889e-003
1.995995e+003,9.743331e-003
1.997924e+003,9.683730e-003
1.999852e+003,9.695554e-003
2.001781e+003,9.704228e-003
2.003709e+003,9.738485e-003
2.005638e+003,9.721272e-003
2.007566e+003,9.754412e-003
2.009495e+003,9.782335e-003
2.011423e+003,9.724694e-003
2.013352e+003,9.724322e-003
2.015280e+003,9.763934e-003
2.017208e+003,9.832561e-003
2.019137e+003,9.922590e-003
2.021066e+003,9.904793e-003
2.022994e+003,9.746109e-003
2.024922e+003,9.673972e-003
2.026851e+003,9.744754e-003
2.028780e+003,9.873811e-003
2.030708e+003,9.878759e-003
2.032636e+003,9.880996e-003
2.034565e+003,9.831409e-003
2.036494e+003,9.781929e-003
2.038422e+003,9.853813e-003
2.040350e+003,9.859201e-003
2.042279e+003,9.787520e-003
2.044208e+003,9.704669e-003
2.046136e+003,9.664181e-003
2.048064e+003,9.726626e-003
2.049993e+003,9.831612e-003
2.051921e+003,9.849542e-003
2.053850e+003,9.829612e-003
2.055778e+003,9.823241e-003
2.057707e+003,9.828189e-003
2.059635e+003,9.803245e-003
2.061564e+003,9.822631e-003
2.063492e+003,9.755326e-003
2.065421e+003,9.710531e-003
2.067349e+003,9.839679e-003
2.069278e+003,9.820665e-003
2.071206e+003,9.835205e-003
2.073135e+003,9.889471e-003
2.075063e+003,9.927641e-003
2.076992e+003,9.926285e-003
2.078920e+003,9.950931e-003
2.080849e+003,9.976596e-003
2.082777e+003,9.886827e-003
2.084706e+003,9.826257e-003
2.086634e+003,9.817344e-003
2.088563e+003,9.850694e-003
2.090491e+003,9.923946e-003
2.092420e+003,9.947168e-003
2.094348e+003,9.971408e-003
2.096277e+003,9.943066e-003
2.098205e+003,9.869336e-003
2.100134e+003,9.862795e-003
2.102062e+003,9.953474e-003
2.103991e+003,9.988699e-003
2.105919e+003,1.002939e-002
2.107848e+003,1.014822e-002
2.109776e+003,1.010843e-002
2.111705e+003,9.972290e-003
2.113633e+003,9.966289e-003
2.115562e+003,1.004180e-002
2.117490e+003,1.006866e-002
2.119419e+003,1.009032e-002
2.121347e+003,1.005933e-002
2.123276e+003,9.961305e-003
2.125204e+003,9.971646e-003
2.127133e+003,1.005275e-002
2.129061e+003,1.010742e-002
2.130990e+003,1.019387e-002
2.132918e+003,1.019160e-002
2.134847e+003,1.009958e-002
2.136775e+003,1.010474e-002
2.138704e+003,1.013675e-002
2.140632e+003,1.018434e-002
2.142561e+003,1.019632e-002
2.144489e+003,1.021270e-002
2.146418e+003,1.026657e-002
2.148346e+003,1.031869e-002
2.150275e+003,1.028398e-002
2.152203e+003,1.022417e-002
2.154132e+003,1.021362e-002
2.156060e+003,1.021412e-002
2.157989e+003,1.018404e-002
2.159917e+003,1.020636e-002
2.161846e+003,1.022779e-002
2.163774e+003,1.023224e-002
2.165703e+003,1.029046e-002
2.167631e+003,1.039704e-002
2.169560e+003,1.047127e-002
2.171488e+003,1.045253e-002
2.173417e+003,1.038879e-002
2.175345e+003,1.034393e-002
2.177274e+003,1.037440e-002
2.179202e+003,1.044751e-002
2.181131e+003,1.039368e-002
2.183059e+003,1.029436e-002
2.184988e+003,1.032618e-002
2.186916e+003,1.033457e-002
2.188845e+003,1.037199e-002
2.190773e+003,1.033599e-002
2.192702e+003,1.024028e-002
2.194630e+003,1.027485e-002
2.196559e+003,1.036432e-002
2.198487e+003,1.043359e-002
2.200416e+003,1.042300e-002
2.202344e+003,1.035296e-002
2.204273e+003,1.034895e-002
2.206201e+003,1.035917e-002
2.208130e+003,1.033816e-002
2.210058e+003,1.029989e-002
2.211987e+003,1.024717e-002
2.213915e+003,1.021772e-002
2.215844e+003,1.031780e-002
2.217772e+003,1.040926e-002
2.219701e+003,1.039198e-002
2.221629e+003,1.038777e-002
2.223558e+003,1.031078e-002
2.225486e+003,1.024137e-002
2.227415e+003,1.025056e-002
2.229343e+003,1.028340e-002
2.231272e+003,1.037827e-002
2.233200e+003,1.044679e-002
2.235129e+003,1.039191e-002
2.237057e+003,1.032245e-002
2.238986e+003,1.025911e-002
2.240914e+003,1.023543e-002
2.242843e+003,1.027312e-002
2.244771e+003,1.026993e-002
2.246700e+003,1.023556e-002
2.248628e+003,1.026596e-002
2.250557e+003,1.014401e-002
2.252485e+003,1.012909e-002
2.254414e+003,1.024561e-002
2.256342e+003,1.026810e-002
2.258271e+003,1.025602e-002
2.260199e+003,1.026216e-002
2.262128e+003,1.024968e-002
2.264056e+003,1.022959e-002
2.265985e+003,1.022450e-002
2.267913e+003,1.022243e-002
2.269842e+003,1.030630e-002
2.271770e+003,1.035693e-002
2.273699e+003,1.031791e-002
2.275627e+003,1.025429e-002
2.277556e+003,1.019241e-002
2.279484e+003,1.017606e-002
2.281413e+003,1.023651e-002
2.283341e+003,1.024669e-002
2.285270e+003,1.028330e-002
2.287198e+003,1.030532e-002
2.289127e+003,1.037043e-002
2.291055e+003,1.044350e-002
2.292984e+003,1.049951e-002
2.294912e+003,1.052140e-002
2.296841e+003,1.061809e-002
2.298769e+003,1.081870e-002
2.300698e+003,1.099868e-002
2.302626e+003,1.117720e-002
2.304555e+003,1.130781e-002
2.306483e+003,1.149720e-002
2.308412e+003,1.175878e-002
2.310340e+003,1.208089e-002
2.312269e+003,1.254027e-002
2.314197e+003,1.304955e-002
2.316125e+003,1.363922e-002
2.318054e+003,1.421268e-002
2.319983e+003,1.481548e-002
2.321911e+003,1.542256e-002
2.323840e+003,1.603881e-002
2.325768e+003,1.642817e-002
2.327697e+003,1.685177e-002
2.329625e+003,1.755157e-002
2.331553e+003,1.800235e-002
2.333482e+003,1.814169e-002
2.335411e+003,1.833924e-002
2.337339e+003,1.860992e-002
2.339268e+003,1.869511e-002
2.341196e+003,1.839064e-002
2.343125e+003,1.784113e-002
2.345053e+003,1.670441e-002
2.346981e+003,1.475079e-002
2.348910e+003,1.361091e-002
2.350839e+003,1.480437e-002
2.352767e+003,1.720026e-002
2.354696e+003,1.919677e-002
2.356624e+003,2.043460e-002
2.358552e+003,2.104395e-002
2.360481e+003,2.128135e-002
2.362409e+003,2.131542e-002
2.364338e+003,2.096035e-002
2.366267e+003,2.028417e-002
2.368195e+003,1.937648e-002
2.370124e+003,1.823135e-002
2.372052e+003,1.693531e-002
2.373980e+003,1.549140e-002
2.375909e+003,1.405943e-002
2.377838e+003,1.283729e-002
2.379766e+003,1.178902e-002
2.381695e+003,1.104884e-002
2.383623e+003,1.075818e-002
2.385552e+003,1.060991e-002
2.387480e+003,1.047802e-002
2.389408e+003,1.047666e-002
2.391337e+003,1.049808e-002
2.393266e+003,1.047853e-002
2.395194e+003,1.046414e-002
2.397123e+003,1.042039e-002
2.399051e+003,1.039935e-002
2.400979e+003,1.038591e-002
2.402908e+003,1.038883e-002
2.404836e+003,1.046583e-002
2.406765e+003,1.049482e-002
2.408694e+003,1.045104e-002
2.410622e+003,1.048617e-002
2.412551e+003,1.045144e-002
2.414479e+003,1.046417e-002
2.416407e+003,1.059473e-002
2.418336e+003,1.072109e-002
2.420264e+003,1.059399e-002
2.422193e+003,1.050606e-002
2.424122e+003,1.051264e-002
2.426050e+003,1.055990e-002
2.427979e+003,1.058961e-002
2.429907e+003,1.064923e-002
2.431835e+003,1.067473e-002
2.433764e+003,1.071742e-002
2.435692e+003,1.074887e-002
2.437621e+003,1.068285e-002
2.439550e+003,1.059640e-002
2.441478e+003,1.063205e-002
2.443406e+003,1.071355e-002
2.445335e+003,1.075539e-002
2.447263e+003,1.077951e-002
2.449192e+003,1.079622e-002
2.451121e+003,1.069677e-002
2.453049e+003,1.067589e-002
2.454978e+003,1.076837e-002
2.456906e+003,1.084945e-002
2.458834e+003,1.092769e-002
2.460763e+003,1.088475e-002
2.462691e+003,1.071053e-002
2.464620e+003,1.069416e-002
2.466549e+003,1.084663e-002
2.468477e+003,1.087048e-002
2.470406e+003,1.079544e-002
2.472334e+003,1.083875e-002
2.474262e+003,1.088665e-002
2.476191e+003,1.090958e-002
2.478119e+003,1.099399e-002
2.480048e+003,1.102006e-002
2.481977e+003,1.099501e-002
2.483905e+003,1.089351e-002
2.485833e+003,1.083814e-002
2.487762e+003,1.089117e-002
2.489690e+003,1.087245e-002
2.491619e+003,1.090082e-002
2.493547e+003,1.104177e-002
2.495476e+003,1.115096e-002
2.497405e+003,1.109262e-002
2.499333e+003,1.100388e-002
2.501261e+003,1.096956e-002
2.503190e+003,1.097564e-002
2.505118e+003,1.106410e-002
2.507047e+003,1.110071e-002
2.508975e+003,1.111363e-002
2.510904e+003,1.114681e-002
2.512833e+003,1.115320e-002
2.514761e+003,1.106166e-002
2.516689e+003,1.106822e-002
2.518618e+003,1.125057e-002
2.520546e+003,1.134178e-002
2.522475e+003,1.130063e-002
2.524403e+003,1.128040e-002
2.526332e+003,1.119828e-002
2.528260e+003,1.121814e-002
2.530189e+003,1.130451e-002
2.532117e+003,1.122001e-002
2.534046e+003,1.116469e-002
2.535974e+003,1.125163e-002
2.537903e+003,1.119872e-002
2.539831e+003,1.123571e-002
2.541760e+003,1.129046e-002
2.543688e+003,1.131580e-002
2.545617e+003,1.129893e-002
2.547545e+003,1.133865e-002
2.549474e+003,1.141906e-002
2.551402e+003,1.133219e-002
2.553331e+003,1.126846e-002
2.555259e+003,1.130675e-002
2.557188e+003,1.135899e-002
2.559116e+003,1.135933e-002
2.561045e+003,1.133705e-002
2.562973e+003,1.129128e-002
2.564902e+003,1.130604e-002
2.566830e+003,1.138202e-002
2.568759e+003,1.138617e-002
2.570687e+003,1.140297e-002
2.572616e+003,1.145277e-002
2.574544e+003,1.152385e-002
2.576473e+003,1.144495e-002
2.578401e+003,1.142236e-002
2.580330e+003,1.140858e-002
2.582258e+003,1.137988e-002
2.584187e+003,1.143900e-002
2.586115e+003,1.147444e-002
2.588044e+003,1.137192e-002
2.589972e+003,1.141750e-002
2.591901e+003,1.154239e-002
2.593829e+003,1.144046e-002
2.595758e+003,1.131814e-002
2.597686e+003,1.138154e-002
2.599615e+003,1.143934e-002
2.601543e+003,1.150789e-002
2.603472e+003,1.151711e-002
2.605400e+003,1.147176e-002
2.607329e+003,1.153439e-002
2.609257e+003,1.166807e-002
2.611186e+003,1.166745e-002
2.613114e+003,1.163059e-002
2.615043e+003,1.163526e-002
2.616971e+003,1.160898e-002
2.618900e+003,1.168886e-002
2.620828e+003,1.180137e-002
2.622757e+003,1.191075e-002
2.624685e+003,1.184564e-002
2.626614e+003,1.183362e-002
2.628542e+003,1.186024e-002
2.630471e+003,1.182088e-002
2.632399e+003,1.187233e-002
2.634328e+003,1.184601e-002
2.636256e+003,1.174343e-002
2.638185e+003,1.187560e-002
2.640113e+003,1.197856e-002
2.642042e+003,1.190227e-002
2.643970e+003,1.202049e-002
2.645899e+003,1.213860e-002
2.647827e+003,1.211775e-002
2.649756e+003,1.216303e-002
2.651684e+003,1.219977e-002
2.653613e+003,1.211380e-002
2.655541e+003,1.209233e-002
2.657470e+003,1.214746e-002
2.659398e+003,1.219363e-002
2.661327e+003,1.224111e-002
2.663255e+003,1.228054e-002
2.665184e+003,1.228671e-002
2.667112e+003,1.244104e-002
2.669041e+003,1.252353e-002
2.670969e+003,1.252295e-002
2.672898e+003,1.244325e-002
2.674826e+003,1.243855e-002
2.676755e+003,1.247299e-002
2.678683e+003,1.247091e-002
2.680612e+003,1.250675e-002
2.682540e+003,1.258488e-002
2.684469e+003,1.259802e-002
2.686397e+003,1.263455e-002
2.688326e+003,1.278026e-002
2.690254e+003,1.294938e-002
2.692183e+003,1.288302e-002
2.694111e+003,1.276955e-002
2.696040e+003,1.271155e-002
2.697968e+003,1.274908e-002
2.699897e+003,1.281204e-002
2.701825e+003,1.288934e-002
2.703754e+003,1.300687e-002
2.705682e+003,1.316118e-002
2.707611e+003,1.320743e-002
2.709539e+003,1.323663e-002
2.711468e+003,1.328511e-002
2.713396e+003,1.327527e-002
2.715325e+003,1.333940e-002
2.717253e+003,1.336393e-002
2.719182e+003,1.345015e-002
2.721110e+003,1.353826e-002
2.723039e+003,1.367516e-002
2.724967e+003,1.377888e-002
2.726896e+003,1.382495e-002
2.728824e+003,1.388714e-002
2.730753e+003,1.404457e-002
2.732681e+003,1.414698e-002
2.734610e+003,1.419138e-002
2.736538e+003,1.413866e-002
2.738467e+003,1.418837e-002
2.740395e+003,1.426208e-002
2.742324e+003,1.431762e-002
2.744252e+003,1.449018e-002
2.746181e+003,1.462892e-002
2.748109e+003,1.463426e-002
2.750038e+003,1.466682e-002
2.751966e+003,1.475995e-002
2.753895e+003,1.488145e-002
2.755823e+003,1.500796e-002
2.757752e+003,1.518474e-002
2.759680e+003,1.531268e-002
2.761609e+003,1.551231e-002
2.763537e+003,1.581920e-002
2.765466e+003,1.598387e-002
2.767394e+003,1.619798e-002
2.769323e+003,1.650044e-002
2.771251e+003,1.689969e-002
2.773180e+003,1.728362e-002
2.775108e+003,1.764114e-002
2.777037e+003,1.811920e-002
2.778965e+003,1.860913e-002
2.780894e+003,1.920688e-002
2.782822e+003,1.984316e-002
2.784750e+003,2.048691e-002
2.786679e+003,2.121973e-002
2.788608e+003,2.197289e-002
2.790536e+003,2.266361e-002
2.792465e+003,2.329662e-002
2.794393e+003,2.398851e-002
2.796322e+003,2.474214e-002
2.798250e+003,2.540703e-002
2.800178e+003,2.596677e-002
2.802107e+003,2.656224e-002
2.804036e+003,2.708457e-002
2.805964e+003,2.752312e-002
2.807893e+003,2.785946e-002
2.809821e+003,2.806994e-002
2.811750e+003,2.816715e-002
2.813678e+003,2.807407e-002
2.815606e+003,2.791108e-002
2.817535e+003,2.768321e-002
2.819464e+003,2.752633e-002
2.821392e+003,2.726253e-002
2.823321e+003,2.685555e-002
2.825249e+003,2.642884e-002
2.827177e+003,2.592748e-002
2.829106e+003,2.527879e-002
2.831034e+003,2.463376e-002
2.832963e+003,2.404261e-002
2.834892e+003,2.356513e-002
2.836820e+003,2.308342e-002
2.838749e+003,2.246973e-002
2.840677e+003,2.180287e-002
2.842605e+003,2.129360e-002
2.844534e+003,2.068536e-002
2.846462e+003,2.000631e-002
2.848391e+003,1.934807e-002
2.850320e+003,1.878087e-002
2.852248e+003,1.851724e-002
2.854177e+003,1.846842e-002
2.856105e+003,1.850044e-002
2.858033e+003,1.844014e-002
2.859962e+003,1.837274e-002
2.861890e+003,1.828947e-002
2.863819e+003,1.821642e-002
2.865748e+003,1.819503e-002
2.867676e+003,1.818840e-002
2.869604e+003,1.831574e-002
2.871533e+003,1.837830e-002
2.873461e+003,1.852852e-002
2.875390e+003,1.867626e-002
2.877319e+003,1.877544e-002
2.879247e+003,1.894016e-002
2.881176e+003,1.901492e-002
2.883104e+003,1.904054e-002
2.885032e+003,1.924380e-002
2.886961e+003,1.922042e-002
2.888889e+003,1.903580e-002
2.890818e+003,1.893614e-002
2.892747e+003,1.880409e-002
2.894675e+003,1.863845e-002
2.896604e+003,1.863140e-002
2.898532e+003,1.857264e-002
2.900460e+003,1.849913e-002
2.902389e+003,1.845096e-002
2.904317e+003,1.840492e-002
2.906246e+003,1.831318e-002
2.908175e+003,1.823194e-002
2.910103e+003,1.818892e-002
2.912031e+003,1.805896e-002
2.913960e+003,1.785784e-002
2.915888e+003,1.779763e-002
2.917817e+003,1.782148e-002
2.919745e+003,1.802735e-002
2.921674e+003,1.827081e-002
2.923603e+003,1.859578e-002
2.925531e+003,1.885194e-002
2.927459e+003,1.905207e-002
2.929388e+003,1.914645e-002
2.931316e+003,1.937225e-002
2.933245e+003,1.970581e-002
2.935173e+003,1.989228e-002
2.937102e+003,1.998119e-002
2.939031e+003,2.010166e-002
2.940959e+003,2.006148e-002
2.942887e+003,1.987816e-002
2.944816e+003,1.971267e-002
2.946744e+003,1.957147e-002
2.948673e+003,1.933182e-002
2.950601e+003,1.895539e-002
2.952530e+003,1.855238e-002
2.954458e+003,1.809968e-002
2.956387e+003,1.759204e-002
2.958315e+003,1.702644e-002
2.960244e+003,1.633313e-002
2.962172e+003,1.567542e-002
2.964101e+003,1.525900e-002
2.966029e+003,1.484963e-002
2.967958e+003,1.432803e-002
2.969886e+003,1.387664e-002
2.971815e+003,1.356011e-002
2.973743e+003,1.319162e-002
2.975672e+003,1.279473e-002
2.977600e+003,1.253284e-002
2.979529e+003,1.232298e-002
2.981457e+003,1.215455e-002
2.983386e+003,1.195846e-002
2.985314e+003,1.170432e-002
2.987243e+003,1.157645e-002
2.989171e+003,1.139950e-002
2.991100e+003,1.106410e-002
2.993028e+003,1.106808e-002
2.994957e+003,1.110078e-002
2.996885e+003,1.100041e-002
2.998814e+003,1.090924e-002
3.000742e+003,1.085689e-002
3.002671e+003,1.081517e-002
3.004599e+003,1.074900e-002
3.006528e+003,1.079975e-002
3.008456e+003,1.080998e-002
3.010385e+003,1.072713e-002
3.012313e+003,1.069412e-002
3.014242e+003,1.066811e-002
3.016170e+003,1.065572e-002
3.018099e+003,1.072859e-002
3.020027e+003,1.065072e-002
3.021956e+003,1.049934e-002
3.023884e+003,1.046037e-002
3.025813e+003,1.052191e-002
3.027741e+003,1.037037e-002
3.029670e+003,1.022081e-002
3.031598e+003,1.028133e-002
3.033527e+003,1.030922e-002
3.035455e+003,1.036714e-002
3.037384e+003,1.046098e-002
3.039312e+003,1.039239e-002
3.041241e+003,1.028642e-002
3.043169e+003,1.015846e-002
3.045098e+003,1.015256e-002
3.047026e+003,1.025527e-002
3.048955e+003,1.027624e-002
3.050883e+003,1.026403e-002
3.052812e+003,1.029205e-002
3.054740e+003,1.024062e-002
3.056669e+003,1.019886e-002
3.058597e+003,1.008096e-002
3.060526e+003,1.004811e-002
3.062454e+003,1.014883e-002
3.064383e+003,1.011810e-002
3.066311e+003,1.011471e-002
3.068240e+003,1.020558e-002
3.070168e+003,1.014656e-002
3.072097e+003,9.916387e-003
3.074025e+003,9.836425e-003
3.075954e+003,9.876557e-003
3.077882e+003,9.898522e-003
3.079811e+003,9.902555e-003
3.081739e+003,9.899878e-003
3.083668e+003,9.886081e-003
3.085596e+003,9.744415e-003
3.087525e+003,9.687897e-003
3.089453e+003,9.710599e-003
3.091382e+003,9.690269e-003
3.093310e+003,9.768983e-003
3.095239e+003,9.862422e-003
3.097167e+003,9.861066e-003
3.099096e+003,9.844627e-003
3.101024e+003,9.884522e-003
3.102953e+003,9.821242e-003
3.104881e+003,9.688744e-003
3.106810e+003,9.738010e-003
3.108738e+003,9.770135e-003
3.110667e+003,9.737401e-003
3.112595e+003,9.670245e-003
3.114524e+003,9.644328e-003
3.116452e+003,9.619428e-003
3.118381e+003,9.679562e-003
3.120309e+003,9.760376e-003
3.122238e+003,9.794095e-003
3.124166e+003,9.763425e-003
3.126095e+003,9.773422e-003
3.128023e+003,9.753700e-003
3.129952e+003,9.646191e-003
3.131880e+003,9.593243e-003
3.133809e+003,9.647546e-003
3.135737e+003,9.720357e-003
3.137666e+003,9.837103e-003
3.139594e+003,9.877268e-003
3.141523e+003,9.861710e-003
3.143451e+003,9.838561e-003
3.145380e+003,9.755089e-003
3.147308e+003,9.631861e-003
3.149237e+003,9.612009e-003
3.151165e+003,9.715816e-003
3.153094e+003,9.854287e-003
3.155022e+003,9.950287e-003
3.156951e+003,9.881132e-003
3.158879e+003,9.838526e-003
3.160808e+003,9.890488e-003
3.162736e+003,9.924794e-003
3.164665e+003,9.957068e-003
3.166593e+003,9.882590e-003
3.168522e+003,9.774609e-003
3.170450e+003,9.840255e-003
3.172379e+003,9.837680e-003
3.174307e+003,9.811175e-003
3.176236e+003,9.934557e-003
3.178164e+003,9.935303e-003
3.180093e+003,9.913911e-003
3.182021e+003,1.002294e-002
3.183950e+003,1.003902e-002
3.185878e+003,9.950084e-003
3.187807e+003,1.005295e-002
3.189735e+003,1.015985e-002
3.191664e+003,1.001020e-002
3.193592e+003,9.980088e-003
3.195521e+003,1.006899e-002
3.197449e+003,1.003207e-002
3.199378e+003,9.902013e-003
3.201306e+003,9.902420e-003
3.203235e+003,1.005289e-002
3.205163e+003,1.009656e-002
3.207092e+003,1.002952e-002
3.209020e+003,1.013672e-002
3.210948e+003,1.020853e-002
3.212877e+003,1.025253e-002
3.214806e+003,1.027739e-002
3.216734e+003,1.021589e-002
3.218663e+003,1.021117e-002
3.220591e+003,1.024428e-002
3.222520e+003,1.033406e-002
3.224448e+003,1.035381e-002
3.226376e+003,1.028788e-002
3.228305e+003,1.038598e-002
3.230234e+003,1.051414e-002
3.232162e+003,1.046926e-002
3.234091e+003,1.059792e-002
3.236019e+003,1.064162e-002
3.237948e+003,1.063497e-002
3.239876e+003,1.085261e-002
3.241804e+003,1.102159e-002
3.243733e+003,1.097064e-002
3.245662e+003,1.101105e-002
3.247590e+003,1.118281e-002
3.249519e+003,1.122072e-002
3.251447e+003,1.119519e-002
3.253375e+003,1.121933e-002
3.255304e+003,1.131811e-002
3.257232e+003,1.144855e-002
3.259161e+003,1.156267e-002
3.261090e+003,1.162637e-002
3.263018e+003,1.159343e-002
3.264947e+003,1.153123e-002
3.266875e+003,1.147526e-002
3.268803e+003,1.161882e-002
3.270732e+003,1.168352e-002
3.272660e+003,1.165925e-002
3.274589e+003,1.167913e-002
3.276518e+003,1.167923e-002
3.278446e+003,1.172369e-002
3.280375e+003,1.182705e-002
3.282303e+003,1.185636e-002
3.284231e+003,1.184765e-002
3.286160e+003,1.172961e-002
3.288088e+003,1.169475e-002
3.290017e+003,1.168121e-002
3.291946e+003,1.171232e-002
3.293874e+003,1.171929e-002
3.295802e+003,1.159901e-002
3.297731e+003,1.159136e-002
3.299659e+003,1.167362e-002
3.301588e+003,1.155273e-002
3.303516e+003,1.130536e-002
3.305445e+003,1.123895e-002
3.307374e+003,1.128859e-002
3.309302e+003,1.115840e-002
3.311230e+003,1.109252e-002
3.313159e+003,1.101261e-002
3.315087e+003,1.087717e-002
3.317016e+003,1.089576e-002
3.318944e+003,1.075186e-002
3.320873e+003,1.055311e-002
3.322802e+003,1.046743e-002
3.324730e+003,1.046750e-002
3.326658e+003,1.049204e-002
3.328587e+003,1.037525e-002
3.330515e+003,1.024635e-002
3.332444e+003,1.002979e-002
3.334372e+003,9.964594e-003
3.336301e+003,1.011742e-002
3.338229e+003,1.010318e-002
3.340158e+003,9.961712e-003
3.342086e+003,9.993039e-003
3.344015e+003,9.962797e-003
3.345943e+003,1.000396e-002
3.347872e+003,1.006866e-002
3.349800e+003,9.907370e-003
3.351729e+003,9.787994e-003
3.353657e+003,9.740620e-003
3.355586e+003,9.744043e-003
3.357514e+003,9.735402e-003
3.359443e+003,9.652052e-003
3.361371e+003,9.626509e-003
3.363300e+003,9.661539e-003
3.365229e+003,9.655711e-003
3.367157e+003,9.509785e-003
3.369085e+003,9.317087e-003
3.371014e+003,9.279411e-003
3.372942e+003,9.320201e-003
3.374871e+003,9.172494e-003
3.376799e+003,9.201327e-003
3.378728e+003,9.186470e-003
3.380656e+003,9.079000e-003
3.382585e+003,8.914632e-003
3.384513e+003,8.887575e-003
3.386442e+003,8.885682e-003
3.388370e+003,8.717059e-003
3.390299e+003,8.692347e-003
3.392227e+003,8.835058e-003
3.394156e+003,8.715876e-003
3.396084e+003,8.658038e-003
3.398013e+003,8.568271e-003
3.399941e+003,8.435480e-003
3.401870e+003,8.436562e-003
3.403798e+003,8.545157e-003
3.405727e+003,8.662364e-003
3.407655e+003,8.699075e-003
3.409584e+003,8.632350e-003
3.411512e+003,8.527585e-003
3.413441e+003,8.363493e-003
3.415369e+003,8.333735e-003
3.417298e+003,8.318806e-003
3.419226e+003,8.309958e-003
3.421155e+003,8.497512e-003
3.423083e+003,8.519644e-003
3.425012e+003,8.408116e-003
3.426940e+003,8.483017e-003
3.428869e+003,8.490991e-003
3.430797e+003,8.414265e-003
3.432726e+003,8.423015e-003
3.434654e+003,8.572124e-003
3.436583e+003,8.435075e-003
3.438511e+003,8.328669e-003
3.440440e+003,8.470820e-003
3.442368e+003,8.449805e-003
3.444297e+003,8.468185e-003
3.446225e+003,8.500181e-003
3.448154e+003,8.525524e-003
3.450082e+003,8.568373e-003
3.452011e+003,8.464401e-003
3.453939e+003,8.455413e-003
3.455868e+003,8.450718e-003
3.457796e+003,8.426392e-003
3.459725e+003,8.301346e-003
3.461653e+003,8.443758e-003
3.463582e+003,8.600648e-003
3.465510e+003,8.441359e-003
3.467439e+003,8.368931e-003
3.469367e+003,8.523597e-003
3.471296e+003,8.524172e-003
3.473224e+003,8.376666e-003
3.475153e+003,8.291214e-003
3.477081e+003,8.468928e-003
3.479010e+003,8.530897e-003
3.480938e+003,8.436021e-003
3.482867e+003,8.371430e-003
3.484795e+003,8.467847e-003
3.486724e+003,8.469029e-003
3.488652e+003,8.401698e-003
3.490581e+003,8.465312e-003
3.492509e+003,8.536270e-003
3.494438e+003,8.457238e-003
3.496366e+003,8.480854e-003
3.498295e+003,8.469569e-003
3.500223e+003,8.599633e-003
3.502152e+003,8.878749e-003
3.504080e+003,8.872729e-003
3.506009e+003,8.645870e-003
3.507937e+003,8.577160e-003
3.509866e+003,8.608185e-003
3.511794e+003,8.624475e-003
3.513723e+003,8.529478e-003
3.515651e+003,8.427980e-003
3.517580e+003,8.525388e-003
3.519508e+003,8.570874e-003
3.521437e+003,8.586014e-003
3.523365e+003,8.764965e-003
3.525294e+003,8.799283e-003
3.527222e+003,8.740927e-003
3.529151e+003,8.615383e-003
3.531079e+003,8.543197e-003
3.533008e+003,8.611530e-003
3.534936e+003,8.801920e-003
3.536865e+003,8.899006e-003
3.538793e+003,8.597674e-003
3.540722e+003,8.373559e-003
3.542650e+003,8.433183e-003
3.544579e+003,8.593483e-003
3.546507e+003,8.776122e-003
3.548436e+003,8.803408e-003
3.550364e+003,8.864748e-003
3.552293e+003,8.977612e-003
3.554221e+003,8.870429e-003
3.556150e+003,8.737478e-003
3.558078e+003,8.822411e-003
3.560007e+003,8.774702e-003
3.561935e+003,8.690996e-003
3.563864e+003,8.690996e-003
3.565792e+003,8.886053e-003
3.567721e+003,8.825995e-003
3.569649e+003,8.670883e-003
3.571578e+003,8.644146e-003
3.573506e+003,8.632418e-003
3.575435e+003,8.717567e-003
3.577363e+003,8.785860e-003
3.579292e+003,8.741840e-003
3.581220e+003,8.703199e-003
3.583149e+003,8.813079e-003
3.585077e+003,8.924237e-003
3.587006e+003,8.935533e-003
3.588934e+003,8.872492e-003
3.590863e+003,8.786907e-003
3.592791e+003,8.874758e-003
3.594720e+003,8.889401e-003
3.596648e+003,8.865594e-003
3.598577e+003,8.765607e-003
3.600505e+003,8.850816e-003
3.602434e+003,8.838473e-003
3.604362e+003,8.765979e-003
3.606291e+003,8.828531e-003
3.608219e+003,8.965265e-003
3.610148e+003,9.041648e-003
3.612076e+003,8.976698e-003
3.614005e+003,8.721014e-003
3.615933e+003,8.788531e-003
3.617862e+003,9.068545e-003
3.619790e+003,8.976022e-003
3.621719e+003,8.799993e-003
3.623647e+003,8.673520e-003
3.625576e+003,8.855922e-003
3.627504e+003,9.277786e-003
3.629433e+003,9.335300e-003
3.631361e+003,9.093075e-003
3.633290e+003,9.039991e-003
3.635218e+003,8.924778e-003
3.637146e+003,8.948758e-003
3.639075e+003,9.024869e-003
3.641004e+003,8.860250e-003
3.642932e+003,8.775479e-003
3.644861e+003,8.760806e-003
3.646789e+003,8.980284e-003
3.648718e+003,9.320574e-003
3.650646e+003,9.058768e-003
3.652574e+003,8.567629e-003
3.654503e+003,8.754281e-003
3.656432e+003,9.046216e-003
3.658360e+003,8.859439e-003
3.660289e+003,8.660912e-003
3.662217e+003,8.640395e-003
3.664146e+003,8.704619e-003
3.666074e+003,8.740081e-003
3.668002e+003,8.780518e-003
3.669931e+003,8.733557e-003
3.671860e+003,8.605075e-003
3.673788e+003,8.778218e-003
3.675717e+003,8.901002e-003
3.677645e+003,8.890653e-003
3.679573e+003,8.900021e-003
3.681502e+003,8.865898e-003
3.683430e+003,8.865120e-003
3.685359e+003,8.905432e-003
3.687288e+003,9.034612e-003
3.689216e+003,9.068004e-003
3.691145e+003,8.982651e-003
3.693073e+003,8.841077e-003
3.695001e+003,8.956707e-003
3.696930e+003,9.205185e-003
3.698858e+003,9.323215e-003
3.700787e+003,9.342613e-003
3.702716e+003,9.210769e-003
3.704644e+003,9.113038e-003
3.706573e+003,9.171377e-003
3.708501e+003,9.214932e-003
3.710429e+003,9.175133e-003
3.712358e+003,9.072199e-003
3.714286e+003,8.800264e-003
3.716215e+003,8.808446e-003
3.718144e+003,9.025308e-003
3.720072e+003,9.117031e-003
3.722000e+003,9.061779e-003
3.723929e+003,8.946932e-003
3.725857e+003,8.777407e-003
3.727786e+003,8.593212e-003
3.729714e+003,8.642930e-003
3.731643e+003,8.917607e-003
3.733572e+003,9.170801e-003
3.735500e+003,9.251419e-003
3.737428e+003,8.987928e-003
3.739357e+003,8.788632e-003
3.741285e+003,8.941588e-003
3.743214e+003,9.348503e-003
3.745142e+003,9.293493e-003
3.747071e+003,9.002711e-003
3.749000e+003,9.224578e-003
3.750928e+003,9.275552e-003
3.752856e+003,9.018306e-003
3.754785e+003,8.993476e-003
3.756713e+003,9.135642e-003
3.758642e+003,9.031330e-003
3.760570e+003,9.043171e-003
3.762499e+003,9.166841e-003
3.764427e+003,9.034476e-003
3.766356e+003,8.923831e-003
3.768284e+003,8.896064e-003
3.770213e+003,9.155945e-003
3.772141e+003,9.144812e-003
3.774070e+003,8.847062e-003
3.775998e+003,8.825082e-003
3.777927e+003,8.976731e-003
3.779855e+003,9.040803e-003
3.781784e+003,8.926841e-003
3.783712e+003,8.830526e-003
3.785641e+003,8.814938e-003
3.787569e+003,8.725950e-003
3.789498e+003,8.454129e-003
3.791426e+003,8.342416e-003
3.793355e+003,8.555092e-003
3.795283e+003,8.707831e-003
3.797212e+003,8.820213e-003
3.799140e+003,9.046926e-003
3.801069e+003,9.082079e-003
3.802997e+003,8.671458e-003
3.804926e+003,8.601391e-003
3.806854e+003,8.832522e-003
3.808783e+003,8.793670e-003
3.810711e+003,8.709183e-003
3.812640e+003,8.694410e-003
3.814568e+003,8.720102e-003
3.816497e+003,8.922242e-003
3.818425e+003,9.009206e-003
3.820354e+003,9.158584e-003
3.822282e+003,8.975040e-003
3.824211e+003,8.785420e-003
3.826139e+003,8.795699e-003
3.828068e+003,8.795192e-003
3.829996e+003,8.869381e-003
3.831925e+003,8.732779e-003
3.833853e+003,8.766655e-003
3.835782e+003,9.007311e-003
3.837710e+003,9.127486e-003
3.839639e+003,8.906244e-003
3.841567e+003,8.908273e-003
3.843496e+003,9.019625e-003
3.845424e+003,8.814735e-003
3.847353e+003,8.533363e-003
3.849281e+003,8.744916e-003
3.851210e+003,9.397630e-003
3.853138e+003,9.843271e-003
3.855067e+003,9.348503e-003
3.856995e+003,8.851796e-003
3.858924e+003,8.760806e-003
3.860852e+003,8.746100e-003
3.862781e+003,8.968749e-003
3.864709e+003,9.090775e-003
3.866638e+003,8.763511e-003
3.868566e+003,8.937799e-003
3.870495e+003,9.087898e-003
3.872423e+003,9.053557e-003
3.874352e+003,9.129382e-003
3.876280e+003,9.063064e-003
3.878209e+003,9.093245e-003
3.880137e+003,9.008530e-003
3.882066e+003,8.816392e-003
3.883994e+003,8.845135e-003
3.885923e+003,8.872932e-003
3.887851e+003,8.670444e-003
3.889780e+003,8.824338e-003
3.891708e+003,9.153542e-003
3.893637e+003,8.935398e-003
3.895565e+003,8.689204e-003
3.897494e+003,8.839724e-003
3.899422e+003,8.839048e-003
3.901351e+003,8.599465e-003
3.903279e+003,8.792487e-003
3.905208e+003,9.010999e-003
3.907136e+003,8.912941e-003
3.909065e+003,8.763544e-003
3.910993e+003,8.683153e-003
3.912922e+003,8.700292e-003
3.914850e+003,8.774363e-003
3.916779e+003,8.796138e-003
3.918707e+003,8.872324e-003
3.920636e+003,8.871241e-003
3.922564e+003,8.796274e-003
3.924493e+003,8.834347e-003
3.926421e+003,8.790864e-003
3.928350e+003,8.607711e-003
3.930278e+003,8.584797e-003
3.932207e+003,8.744240e-003
3.934135e+003,8.800128e-003
3.936064e+003,8.675683e-003
3.937992e+003,8.831405e-003
3.939921e+003,9.088879e-003
3.941849e+003,8.929851e-003
3.943778e+003,8.723279e-003
3.945706e+003,8.749615e-003
3.947635e+003,8.861738e-003
3.949563e+003,8.958500e-003
3.951492e+003,8.887677e-003
3.953420e+003,8.711684e-003
3.955349e+003,8.546272e-003
3.957277e+003,8.484673e-003
3.959206e+003,8.514779e-003
3.961134e+003,8.583750e-003
3.963063e+003,8.666793e-003
3.964991e+003,8.777407e-003
3.966920e+003,8.876110e-003
3.968848e+003,8.976731e-003
3.970777e+003,9.060527e-003
3.972705e+003,8.994694e-003
3.974634e+003,8.839319e-003
3.976562e+003,8.788564e-003
3.978491e+003,8.906548e-003
3.980419e+003,8.970542e-003
3.982348e+003,8.953257e-003
3.984276e+003,8.901746e-003
3.986205e+003,8.764626e-003
3.988133e+003,8.782715e-003
3.990062e+003,8.752625e-003
3.991990e+003,8.776190e-003
3.993919e+003,8.769326e-003
3.995847e+003,8.725714e-003
3.997776e+003,9.033767e-003
3.999704e+003,9.066684e-003
4.001633e+003,0.000000e+000
