3.991989e+002,-1.521081e-002
4.011274e+002,-2.325975e-002
4.030559e+002,-3.100025e-002
4.049844e+002,-3.241285e-002
4.069129e+002,-2.763313e-002
4.088414e+002,-2.279205e-002
4.107699e+002,-2.770519e-002
4.126984e+002,-3.131238e-002
4.146269e+002,-2.414788e-002
4.165554e+002,-1.730460e-002
4.184839e+002,-1.565526e-002
4.204124e+002,-1.022343e-002
4.223409e+002,-8.837437e-003
4.242694e+002,-1.135057e-002
4.261979e+002,-1.834385e-002
4.281264e+002,-1.345392e-002
4.300549e+002,-6.435943e-003
4.319834e+002,-8.276019e-003
4.339119e+002,-1.045457e-002
4.358404e+002,-1.145624e-002
4.377689e+002,-1.201833e-002
4.396974e+002,-1.925334e-002
4.416259e+002,-2.456766e-002
4.435544e+002,-1.968234e-002
4.454829e+002,-1.610386e-002
4.474114e+002,-1.289239e-002
4.493399e+002,-1.118071e-002
4.512684e+002,-1.224101e-002
4.531969e+002,-1.521580e-002
4.551254e+002,-1.634746e-002
4.570539e+002,-1.454583e-002
4.589824e+002,-1.403846e-002
4.609109e+002,-1.624298e-002
4.628394e+002,-1.654539e-002
4.647679e+002,-1.754661e-002
4.666964e+002,-1.775942e-002
4.686249e+002,-1.595713e-002
4.705533e+002,-1.425331e-002
4.724819e+002,-1.375721e-002
4.744103e+002,-1.428066e-002
4.763389e+002,-1.514506e-002
4.782673e+002,-1.581683e-002
4.801959e+002,-1.672563e-002
4.821243e+002,-1.641227e-002
4.840529e+002,-1.741606e-002
4.859813e+002,-2.087716e-002
4.879099e+002,-2.006412e-002
4.898383e+002,-1.683455e-002
4.917668e+002,-1.523701e-002
4.936953e+002,-1.618118e-002
4.956238e+002,-1.761547e-002
4.975523e+002,-1.588222e-002
4.994808e+002,-1.680615e-002
5.014093e+002,-1.684944e-002
5.033378e+002,-1.513844e-002
5.052663e+002,-1.382969e-002
5.071948e+002,-1.396377e-002
5.091233e+002,-1.468189e-002
5.110518e+002,-1.679047e-002
5.129803e+002,-1.875611e-002
5.149088e+002,-1.752507e-002
5.168373e+002,-1.801106e-002
5.187658e+002,-1.845148e-002
5.206943e+002,-1.923572e-002
5.226228e+002,-1.920129e-002
5.245513e+002,-1.803430e-002
5.264798e+002,-1.820918e-002
5.284083e+002,-1.849505e-002
5.303368e+002,-1.843472e-002
5.322653e+002,-1.831752e-002
5.341938e+002,-1.795775e-002
5.361223e+002,-1.881049e-002
5.380508e+002,-1.900797e-002
5.399792e+002,-1.952164e-002
5.419078e+002,-1.971929e-002
5.438363e+002,-1.888480e-002
5.457648e+002,-1.777001e-002
5.476932e+002,-1.802731e-002
5.496218e+002,-1.845139e-002
5.515503e+002,-1.708782e-002
5.534788e+002,-1.634456e-002
5.554072e+002,-1.742835e-002
5.573358e+002,-1.705551e-002
5.592643e+002,-1.670870e-002
5.611927e+002,-1.661731e-002
5.631212e+002,-1.579910e-002
5.650497e+002,-1.561410e-002
5.669783e+002,-1.760233e-002
5.689067e+002,-1.766186e-002
5.708352e+002,-1.706682e-002
5.727637e+002,-1.640085e-002
5.746923e+002,-1.759514e-002
5.766207e+002,-2.086620e-002
5.785492e+002,-1.846285e-002
5.804777e+002,-7.651861e-003
5.824063e+002,-9.896829e-003
5.843347e+002,-1.668797e-002
5.862632e+002,-1.655965e-002
5.881917e+002,-1.636648e-002
5.901202e+002,-1.631728e-002
5.920487e+002,-1.678795e-002
5.939772e+002,-1.878127e-002
5.959057e+002,-1.857135e-002
5.978342e+002,-1.582491e-002
5.997627e+002,-1.479530e-002
6.016912e+002,-1.407727e-002
6.036197e+002,-1.316706e-002
6.055482e+002,-1.131677e-002
6.074767e+002,-1.035746e-002
6.094052e+002,-1.052168e-002
6.113337e+002,-1.224813e-002
6.132622e+002,-1.292259e-002
6.151907e+002,-1.290915e-002
6.171192e+002,-1.322331e-002
6.190477e+002,-1.309862e-002
6.209762e+002,-1.179992e-002
6.229047e+002,-1.191738e-002
6.248332e+002,-1.506778e-002
6.267617e+002,-1.853471e-002
6.286902e+002,-1.916696e-002
6.306187e+002,-1.747873e-002
6.325472e+002,-1.654140e-002
6.344756e+002,-1.615785e-002
6.364042e+002,-1.588360e-002
6.383326e+002,-1.646641e-002
6.402612e+002,-1.654705e-002
6.421896e+002,-1.579312e-002
6.441182e+002,-1.626168e-002
6.460466e+002,-1.724933e-002
6.479752e+002,-1.744194e-002
6.499036e+002,-1.754248e-002
6.518322e+002,-1.756988e-002
6.537606e+002,-1.719274e-002
6.556891e+002,-1.741071e-002
6.576177e+002,-1.810260e-002
6.595461e+002,-1.848022e-002
6.614746e+002,-1.806545e-002
6.634031e+002,-1.825983e-002
6.653317e+002,-1.768893e-002
6.672601e+002,-1.692555e-002
6.691886e+002,-1.701027e-002
6.711171e+002,-1.749235e-002
6.730457e+002,-1.748039e-002
6.749741e+002,-1.750470e-002
6.769026e+002,-1.749589e-002
6.788311e+002,-1.717388e-002
6.807596e+002,-1.666769e-002
6.826881e+002,-1.638311e-002
6.846166e+002,-1.654529e-002
6.865451e+002,-1.644704e-002
6.884736e+002,-1.574334e-002
6.904021e+002,-1.529693e-002
6.923306e+002,-1.516244e-002
6.942591e+002,-1.534798e-002
6.961876e+002,-1.538383e-002
6.981161e+002,-1.533483e-002
7.000446e+002,-1.509844e-002
7.019731e+002,-1.469390e-002
7.039016e+002,-1.436497e-002
7.058301e+002,-1.437622e-002
7.077585e+002,-1.474925e-002
7.096871e+002,-1.470796e-002
7.116156e+002,-1.419091e-002
7.135441e+002,-1.438744e-002
7.154725e+002,-1.524767e-002
7.174011e+002,-1.598341e-002
7.193296e+002,-1.606960e-002
7.212581e+002,-1.569863e-002
7.231865e+002,-1.549565e-002
7.251151e+002,-1.556736e-002
7.270436e+002,-1.574120e-002
7.289720e+002,-1.571404e-002
7.309005e+002,-1.556989e-002
7.328290e+002,-1.543577e-002
7.347576e+002,-1.536592e-002
7.366860e+002,-1.480555e-002
7.386145e+002,-1.419549e-002
7.405430e+002,-1.448472e-002
7.424716e+002,-1.502511e-002
7.444000e+002,-1.504950e-002
7.463285e+002,-1.451199e-002
7.482570e+002,-1.446712e-002
7.501855e+002,-1.406322e-002
7.521140e+002,-1.343830e-002
7.540425e+002,-1.313398e-002
7.559710e+002,-1.336252e-002
7.578995e+002,-1.353075e-002
7.598280e+002,-1.351771e-002
7.617565e+002,-1.361380e-002
7.636850e+002,-1.350913e-002
7.656135e+002,-1.280402e-002
7.675420e+002,-1.241062e-002
7.694705e+002,-1.228898e-002
7.713990e+002,-1.251133e-002
7.733275e+002,-1.263142e-002
7.752560e+002,-1.277793e-002
7.771844e+002,-1.304132e-002
7.791130e+002,-1.332058e-002
7.810415e+002,-1.340001e-002
7.829700e+002,-1.329436e-002
7.848984e+002,-1.323015e-002
7.868270e+002,-1.351976e-002
7.887555e+002,-1.401946e-002
7.906840e+002,-1.424895e-002
7.926124e+002,-1.430381e-002
7.945410e+002,-1.423888e-002
7.964695e+002,-1.402264e-002
7.983979e+002,-1.405668e-002
8.003264e+002,-1.453984e-002
8.022549e+002,-1.488115e-002
8.041835e+002,-1.465588e-002
8.061119e+002,-1.421050e-002
8.080404e+002,-1.370868e-002
8.099689e+002,-1.367622e-002
8.118975e+002,-1.390848e-002
8.138259e+002,-1.395841e-002
8.157545e+002,-1.348642e-002
8.176830e+002,-1.369432e-002
8.196115e+002,-1.427809e-002
8.215399e+002,-1.434398e-002
8.234684e+002,-1.387735e-002
8.253970e+002,-1.407621e-002
8.273254e+002,-1.424234e-002
8.292539e+002,-1.422955e-002
8.311824e+002,-1.430621e-002
8.331110e+002,-1.441741e-002
8.350394e+002,-1.440953e-002
8.369679e+002,-1.402540e-002
8.388964e+002,-1.397089e-002
8.408250e+002,-1.417571e-002
8.427534e+002,-1.416923e-002
8.446819e+002,-1.387684e-002
8.466104e+002,-1.411185e-002
8.485389e+002,-1.469320e-002
8.504674e+002,-1.493542e-002
8.523959e+002,-1.490571e-002
8.543244e+002,-1.480126e-002
8.562529e+002,-1.486969e-002
8.581814e+002,-1.503257e-002
8.601099e+002,-1.475848e-002
8.620384e+002,-1.489057e-002
8.639669e+002,-1.537104e-002
8.658954e+002,-1.550726e-002
8.678239e+002,-1.536451e-002
8.697524e+002,-1.543001e-002
8.716809e+002,-1.567802e-002
8.736094e+002,-1.579395e-002
8.755378e+002,-1.559632e-002
8.774664e+002,-1.532882e-002
8.793949e+002,-1.530234e-002
8.813234e+002,-1.558686e-002
8.832518e+002,-1.576325e-002
8.851804e+002,-1.572685e-002
8.871089e+002,-1.572250e-002
8.890374e+002,-1.533883e-002
8.909658e+002,-1.522786e-002
8.928943e+002,-1.497796e-002
8.948229e+002,-1.460853e-002
8.967513e+002,-1.453772e-002
8.986798e+002,-1.460385e-002
9.006083e+002,-1.469147e-002
9.025369e+002,-1.467894e-002
9.044653e+002,-1.475252e-002
9.063938e+002,-1.496145e-002
9.083223e+002,-1.463727e-002
9.102509e+002,-1.458255e-002
9.121793e+002,-1.488391e-002
9.141078e+002,-1.525835e-002
9.160364e+002,-1.514551e-002
9.179648e+002,-1.484308e-002
9.198933e+002,-1.475402e-002
9.218218e+002,-1.508957e-002
9.237504e+002,-1.542972e-002
9.256788e+002,-1.577878e-002
9.276073e+002,-1.572950e-002
9.295358e+002,-1.534702e-002
9.314644e+002,-1.519286e-002
9.333928e+002,-1.540644e-002
9.353213e+002,-1.547030e-002
9.372498e+002,-1.549201e-002
9.391783e+002,-1.570435e-002
9.411068e+002,-1.561311e-002
9.430353e+002,-1.535057e-002
9.449637e+002,-1.519181e-002
9.468923e+002,-1.530151e-002
9.488208e+002,-1.519651e-002
9.507493e+002,-1.499890e-002
9.526777e+002,-1.512912e-002
9.546063e+002,-1.527240e-002
9.565348e+002,-1.516772e-002
9.584633e+002,-1.503718e-002
9.603917e+002,-1.518138e-002
9.623203e+002,-1.541664e-002
9.642488e+002,-1.519373e-002
9.661772e+002,-1.487241e-002
9.681057e+002,-1.492338e-002
9.700343e+002,-1.517357e-002
9.719628e+002,-1.509863e-002
9.738912e+002,-1.497044e-002
9.758197e+002,-1.513524e-002
9.777483e+002,-1.520662e-002
9.796768e+002,-1.511098e-002
9.816052e+002,-1.509946e-002
9.835337e+002,-1.525381e-002
9.854623e+002,-1.541028e-002
9.873907e+002,-1.539093e-002
9.893192e+002,-1.534862e-002
9.912477e+002,-1.537296e-002
9.931763e+002,-1.526990e-002
9.951047e+002,-1.520061e-002
9.970332e+002,-1.508532e-002
9.989617e+002,-1.514557e-002
1.000890e+003,-1.517987e-002
1.002819e+003,-1.499986e-002
1.004747e+003,-1.490737e-002
1.006676e+003,-1.468224e-002
1.008604e+003,-1.446783e-002
1.010533e+003,-1.441610e-002
1.012461e+003,-1.416240e-002
1.014390e+003,-1.385027e-002
1.016318e+003,-1.352314e-002
1.018247e+003,-1.310141e-002
1.020175e+003,-1.301788e-002
1.022104e+003,-1.273498e-002
1.024032e+003,-1.212348e-002
1.025961e+003,-1.170782e-002
1.027889e+003,-1.151700e-002
1.029818e+003,-1.101974e-002
1.031746e+003,-1.056376e-002
1.033675e+003,-1.039563e-002
1.035603e+003,-9.970374e-003
1.037532e+003,-9.462490e-003
1.039460e+003,-9.113933e-003
1.041389e+003,-8.880616e-003
1.043317e+003,-8.840522e-003
1.045246e+003,-8.843119e-003
1.047174e+003,-8.418871e-003
1.049103e+003,-8.123462e-003
1.051031e+003,-7.933406e-003
1.052960e+003,-7.553272e-003
1.054888e+003,-7.585117e-003
1.056817e+003,-7.877639e-003
1.058745e+003,-7.728262e-003
1.060674e+003,-7.769500e-003
1.062602e+003,-7.737506e-003
1.064531e+003,-7.561055e-003
1.066459e+003,-7.619760e-003
1.068388e+003,-7.781867e-003
1.070316e+003,-7.681550e-003
1.072245e+003,-7.535362e-003
1.074173e+003,-7.437105e-003
1.076102e+003,-7.622723e-003
1.078030e+003,-7.899472e-003
1.079959e+003,-7.951885e-003
1.081887e+003,-7.690568e-003
1.083816e+003,-7.582708e-003
1.085744e+003,-7.586061e-003
1.087673e+003,-7.525821e-003
1.089601e+003,-7.511166e-003
1.091530e+003,-7.282917e-003
1.093458e+003,-7.052364e-003
1.095387e+003,-7.134411e-003
1.097315e+003,-7.049462e-003
1.099244e+003,-7.010242e-003
1.101172e+003,-6.876188e-003
1.103101e+003,-6.795299e-003
1.105029e+003,-7.200409e-003
1.106958e+003,-7.322927e-003
1.108886e+003,-7.161170e-003
1.110815e+003,-7.070359e-003
1.112743e+003,-6.953541e-003
1.114672e+003,-7.254895e-003
1.116600e+003,-7.305269e-003
1.118529e+003,-7.135747e-003
1.120457e+003,-7.153054e-003
1.122386e+003,-7.175967e-003
1.124314e+003,-7.275064e-003
1.126243e+003,-7.507454e-003
1.128171e+003,-7.466353e-003
1.130100e+003,-7.343843e-003
1.132028e+003,-7.518461e-003
1.133957e+003,-7.761201e-003
1.135885e+003,-8.032690e-003
1.137814e+003,-8.420691e-003
1.139742e+003,-8.627003e-003
1.141671e+003,-8.737039e-003
1.143599e+003,-8.883798e-003
1.145528e+003,-9.180539e-003
1.147456e+003,-9.673006e-003
1.149385e+003,-1.006456e-002
1.151313e+003,-1.024159e-002
1.153242e+003,-1.039829e-002
1.155170e+003,-1.052767e-002
1.157099e+003,-1.068320e-002
1.159027e+003,-1.090075e-002
1.160956e+003,-1.098162e-002
1.162884e+003,-1.104029e-002
1.164813e+003,-1.111935e-002
1.166741e+003,-1.108570e-002
1.168670e+003,-1.103131e-002
1.170598e+003,-1.103273e-002
1.172526e+003,-1.118556e-002
1.174455e+003,-1.109242e-002
1.176384e+003,-1.104991e-002
1.178312e+003,-1.122230e-002
1.180240e+003,-1.124187e-002
1.182169e+003,-1.118045e-002
1.184098e+003,-1.124071e-002
1.186026e+003,-1.142158e-002
1.187954e+003,-1.158640e-002
1.189883e+003,-1.193691e-002
1.191812e+003,-1.210853e-002
1.193740e+003,-1.203651e-002
1.195668e+003,-1.214365e-002
1.197597e+003,-1.210721e-002
1.199526e+003,-1.213138e-002
1.201454e+003,-1.223051e-002
1.203382e+003,-1.222765e-002
1.205311e+003,-1.226730e-002
1.207240e+003,-1.231796e-002
1.209168e+003,-1.219717e-002
1.211096e+003,-1.218406e-002
1.213025e+003,-1.212007e-002
1.214953e+003,-1.202027e-002
1.216882e+003,-1.211195e-002
1.218810e+003,-1.207325e-002
1.220739e+003,-1.205788e-002
1.222667e+003,-1.199252e-002
1.224596e+003,-1.180347e-002
1.226524e+003,-1.178654e-002
1.228453e+003,-1.177551e-002
1.230381e+003,-1.154210e-002
1.232310e+003,-1.130382e-002
1.234238e+003,-1.124519e-002
1.236167e+003,-1.117558e-002
1.238095e+003,-1.117219e-002
1.240024e+003,-1.108279e-002
1.241952e+003,-1.100818e-002
1.243881e+003,-1.115540e-002
1.245809e+003,-1.119844e-002
1.247738e+003,-1.124342e-002
1.249666e+003,-1.141906e-002
1.251595e+003,-1.143142e-002
1.253523e+003,-1.138911e-002
1.255452e+003,-1.150822e-002
1.257380e+003,-1.157556e-002
1.259309e+003,-1.158059e-002
1.261237e+003,-1.152552e-002
1.263166e+003,-1.128717e-002
1.265094e+003,-1.104280e-002
1.267023e+003,-1.080936e-002
1.268951e+003,-1.056971e-002
1.270880e+003,-1.025858e-002
1.272808e+003,-9.996053e-003
1.274737e+003,-9.849831e-003
1.276665e+003,-9.628286e-003
1.278594e+003,-9.475101e-003
1.280522e+003,-9.354356e-003
1.282451e+003,-9.093394e-003
1.284379e+003,-8.890550e-003
1.286308e+003,-8.427060e-003
1.288236e+003,-8.304008e-003
1.290165e+003,-8.310250e-003
1.292093e+003,-8.134259e-003
1.294022e+003,-8.071785e-003
1.295950e+003,-7.899862e-003
1.297879e+003,-7.757588e-003
1.299807e+003,-7.785936e-003
1.301736e+003,-7.927680e-003
1.303664e+003,-7.888279e-003
1.305593e+003,-7.766994e-003
1.307521e+003,-7.965549e-003
1.309450e+003,-8.356113e-003
1.311378e+003,-8.646557e-003
1.313307e+003,-8.809743e-003
1.315235e+003,-8.960274e-003
1.317164e+003,-9.140959e-003
1.319092e+003,-9.468974e-003
1.321021e+003,-9.955348e-003
1.322949e+003,-1.028744e-002
1.324878e+003,-1.040159e-002
1.326806e+003,-1.056754e-002
1.328735e+003,-1.061721e-002
1.330663e+003,-1.059445e-002
1.332592e+003,-1.062526e-002
1.334520e+003,-1.069480e-002
1.336449e+003,-1.076896e-002
1.338377e+003,-1.077629e-002
1.340306e+003,-1.079695e-002
1.342234e+003,-1.083541e-002
1.344163e+003,-1.089984e-002
1.346091e+003,-1.106919e-002
1.348020e+003,-1.105337e-002
1.349948e+003,-1.102181e-002
1.351877e+003,-1.109788e-002
1.353805e+003,-1.111083e-002
1.355734e+003,-1.118491e-002
1.357662e+003,-1.137413e-002
1.359591e+003,-1.143071e-002
1.361519e+003,-1.135334e-002
1.363448e+003,-1.144165e-002
1.365376e+003,-1.169304e-002
1.367305e+003,-1.171962e-002
1.369233e+003,-1.179050e-002
1.371162e+003,-1.197817e-002
1.373090e+003,-1.190964e-002
1.375019e+003,-1.181350e-002
1.376947e+003,-1.195561e-002
1.378876e+003,-1.183262e-002
1.380804e+003,-1.167492e-002
1.382733e+003,-1.170137e-002
1.384661e+003,-1.176351e-002
1.386590e+003,-1.167795e-002
1.388518e+003,-1.181253e-002
1.390447e+003,-1.214388e-002
1.392375e+003,-1.221460e-002
1.394304e+003,-1.209764e-002
1.396232e+003,-1.227116e-002
1.398161e+003,-1.231194e-002
1.400089e+003,-1.232222e-002
1.402018e+003,-1.247099e-002
1.403946e+003,-1.244694e-002
1.405875e+003,-1.255060e-002
1.407803e+003,-1.275956e-002
1.409732e+003,-1.287039e-002
1.411660e+003,-1.288753e-002
1.413589e+003,-1.279222e-002
1.415517e+003,-1.254899e-002
1.417446e+003,-1.212651e-002
1.419374e+003,-1.162082e-002
1.421303e+003,-1.162956e-002
1.423231e+003,-1.137988e-002
1.425160e+003,-1.082274e-002
1.427088e+003,-1.038988e-002
1.429017e+003,-9.889444e-003
1.430945e+003,-9.596785e-003
1.432874e+003,-9.349588e-003
1.434802e+003,-8.802599e-003
1.436731e+003,-8.113284e-003
1.438659e+003,-8.171816e-003
1.440588e+003,-8.015547e-003
1.442516e+003,-7.620672e-003
1.444445e+003,-7.270079e-003
1.446373e+003,-6.785187e-003
1.448302e+003,-6.276108e-003
1.450230e+003,-5.979859e-003
1.452159e+003,-5.514494e-003
1.454087e+003,-4.879373e-003
1.456016e+003,-3.841026e-003
1.457944e+003,-3.387401e-003
1.459873e+003,-3.887331e-003
1.461801e+003,-4.213757e-003
1.463730e+003,-4.003203e-003
1.465658e+003,-3.846346e-003
1.467587e+003,-4.341614e-003
1.469515e+003,-4.664684e-003
1.471444e+003,-4.341155e-003
1.473372e+003,-4.361953e-003
1.475301e+003,-4.938803e-003
1.477229e+003,-5.623817e-003
1.479158e+003,-6.304684e-003
1.481086e+003,-6.811119e-003
1.483015e+003,-7.257306e-003
1.484943e+003,-7.624384e-003
1.486872e+003,-7.846954e-003
1.488800e+003,-8.024557e-003
1.490729e+003,-8.374542e-003
1.492657e+003,-9.115133e-003
1.494586e+003,-9.231209e-003
1.496514e+003,-9.040664e-003
1.498443e+003,-9.422190e-003
1.500371e+003,-1.002338e-002
1.502300e+003,-1.038470e-002
1.504228e+003,-1.019712e-002
1.506157e+003,-9.496367e-003
1.508085e+003,-9.812937e-003
1.510014e+003,-1.065672e-002
1.511942e+003,-1.093981e-002
1.513871e+003,-1.106687e-002
1.515799e+003,-1.100142e-002
1.517728e+003,-1.090056e-002
1.519656e+003,-1.075907e-002
1.521585e+003,-1.042899e-002
1.523513e+003,-1.068743e-002
1.525442e+003,-1.069561e-002
1.527370e+003,-1.086197e-002
1.529299e+003,-1.110812e-002
1.531227e+003,-1.103027e-002
1.533156e+003,-1.048261e-002
1.535084e+003,-1.050910e-002
1.537013e+003,-1.047107e-002
1.538941e+003,-9.455486e-003
1.540870e+003,-9.042221e-003
1.542798e+003,-9.455389e-003
1.544727e+003,-9.570304e-003
1.546655e+003,-9.854269e-003
1.548584e+003,-9.907257e-003
1.550512e+003,-9.684185e-003
1.552441e+003,-9.581001e-003
1.554369e+003,-9.233966e-003
1.556298e+003,-8.786364e-003
1.558226e+003,-7.506542e-003
1.560155e+003,-7.334982e-003
1.562083e+003,-8.176499e-003
1.564012e+003,-8.113999e-003
1.565940e+003,-7.745545e-003
1.567869e+003,-7.473161e-003
1.569797e+003,-7.054254e-003
1.571726e+003,-7.176585e-003
1.573654e+003,-7.211326e-003
1.575583e+003,-6.603159e-003
1.577511e+003,-6.619444e-003
1.579440e+003,-7.090015e-003
1.581368e+003,-7.075705e-003
1.583297e+003,-7.139985e-003
1.585225e+003,-7.325175e-003
1.587154e+003,-7.392643e-003
1.589082e+003,-7.499215e-003
1.591010e+003,-7.856131e-003
1.592939e+003,-8.106064e-003
1.594868e+003,-8.347468e-003
1.596796e+003,-8.677511e-003
1.598724e+003,-9.009737e-003
1.600653e+003,-9.376147e-003
1.602582e+003,-9.672941e-003
1.604510e+003,-9.967233e-003
1.606438e+003,-1.026078e-002
1.608367e+003,-1.051531e-002
1.610296e+003,-1.071320e-002
1.612224e+003,-1.101212e-002
1.614152e+003,-1.118646e-002
1.616081e+003,-1.101893e-002
1.618010e+003,-1.130063e-002
1.619938e+003,-1.180108e-002
1.621866e+003,-1.174832e-002
1.623795e+003,-1.192589e-002
1.625724e+003,-1.224163e-002
1.627652e+003,-1.226366e-002
1.629580e+003,-1.259499e-002
1.631509e+003,-1.299531e-002
1.633438e+003,-1.279473e-002
1.635366e+003,-1.226321e-002
1.637294e+003,-1.286254e-002
1.639223e+003,-1.369227e-002
1.641151e+003,-1.415258e-002
1.643080e+003,-1.448792e-002
1.645008e+003,-1.428992e-002
1.646937e+003,-1.423176e-002
1.648865e+003,-1.494989e-002
1.650794e+003,-1.510077e-002
1.652722e+003,-1.388069e-002
1.654651e+003,-1.455028e-002
1.656579e+003,-1.582827e-002
1.658508e+003,-1.629481e-002
1.660436e+003,-1.641147e-002
1.662365e+003,-1.629538e-002
1.664293e+003,-1.642857e-002
1.666222e+003,-1.652791e-002
1.668150e+003,-1.624307e-002
1.670079e+003,-1.625575e-002
1.672007e+003,-1.659463e-002
1.673936e+003,-1.650766e-002
1.675864e+003,-1.639581e-002
1.677793e+003,-1.691034e-002
1.679721e+003,-1.689769e-002
1.681650e+003,-1.669116e-002
1.683578e+003,-1.589673e-002
1.685507e+003,-1.596287e-002
1.687435e+003,-1.672065e-002
1.689364e+003,-1.694221e-002
1.691292e+003,-1.706963e-002
1.693221e+003,-1.694106e-002
1.695149e+003,-1.614010e-002
1.697078e+003,-1.584846e-002
1.699006e+003,-1.550221e-002
1.700935e+003,-1.513924e-002
1.702863e+003,-1.591177e-002
1.704792e+003,-1.588110e-002
1.706720e+003,-1.583645e-002
1.708649e+003,-1.604626e-002
1.710577e+003,-1.614172e-002
1.712506e+003,-1.593432e-002
1.714434e+003,-1.563996e-002
1.716363e+003,-1.522342e-002
1.718291e+003,-1.504016e-002
1.720220e+003,-1.561675e-002
1.722148e+003,-1.602004e-002
1.724077e+003,-1.608355e-002
1.726005e+003,-1.611689e-002
1.727934e+003,-1.601046e-002
1.729862e+003,-1.586344e-002
1.731791e+003,-1.555796e-002
1.733719e+003,-1.494118e-002
1.735648e+003,-1.538860e-002
1.737576e+003,-1.594224e-002
1.739505e+003,-1.568997e-002
1.741433e+003,-1.576494e-002
1.743362e+003,-1.581993e-002
1.745290e+003,-1.563123e-002
1.747219e+003,-1.538636e-002
1.749147e+003,-1.522371e-002
1.751076e+003,-1.510736e-002
1.753004e+003,-1.542857e-002
1.754933e+003,-1.548808e-002
1.756861e+003,-1.519363e-002
1.758790e+003,-1.533746e-002
1.760718e+003,-1.528679e-002
1.762647e+003,-1.522895e-002
1.764575e+003,-1.546915e-002
1.766504e+003,-1.530829e-002
1.768432e+003,-1.511232e-002
1.770361e+003,-1.499701e-002
1.772289e+003,-1.473429e-002
1.774218e+003,-1.515191e-002
1.776146e+003,-1.545485e-002
1.778075e+003,-1.543577e-002
1.780003e+003,-1.535505e-002
1.781932e+003,-1.539857e-002
1.783860e+003,-1.533004e-002
1.785789e+003,-1.526581e-002
1.787717e+003,-1.540833e-002
1.789646e+003,-1.532527e-002
1.791574e+003,-1.507322e-002
1.793503e+003,-1.512644e-002
1.795431e+003,-1.547519e-002
1.797360e+003,-1.547203e-002
1.799288e+003,-1.531078e-002
1.801217e+003,-1.529204e-002
1.803145e+003,-1.538140e-002
1.805074e+003,-1.539883e-002
1.807002e+003,-1.543276e-002
1.808931e+003,-1.545095e-002
1.810859e+003,-1.541428e-002
1.812788e+003,-1.541623e-002
1.814716e+003,-1.554326e-002
1.816645e+003,-1.552660e-002
1.818573e+003,-1.556001e-002
1.820502e+003,-1.557404e-002
1.822430e+003,-1.559322e-002
1.824359e+003,-1.538585e-002
1.826287e+003,-1.537811e-002
1.828216e+003,-1.539464e-002
1.830144e+003,-1.526625e-002
1.832073e+003,-1.540957e-002
1.834001e+003,-1.552293e-002
1.835930e+003,-1.564552e-002
1.837858e+003,-1.569825e-002
1.839787e+003,-1.572784e-002
1.841715e+003,-1.559600e-002
1.843644e+003,-1.522230e-002
1.845572e+003,-1.532262e-002
1.847501e+003,-1.553428e-002
1.849429e+003,-1.563932e-002
1.851358e+003,-1.565050e-002
1.853286e+003,-1.559920e-002
1.855215e+003,-1.559882e-002
1.857143e+003,-1.567022e-002
1.859072e+003,-1.569419e-002
1.861000e+003,-1.563788e-002
1.862929e+003,-1.561880e-002
1.864857e+003,-1.552785e-002
1.866786e+003,-1.544190e-002
1.868714e+003,-1.534337e-002
1.870643e+003,-1.546333e-002
1.872571e+003,-1.558808e-002
1.874500e+003,-1.557238e-002
1.876428e+003,-1.555857e-002
1.878357e+003,-1.554863e-002
1.880285e+003,-1.557519e-002
1.882214e+003,-1.566409e-002
1.884142e+003,-1.571263e-002
1.886071e+003,-1.563053e-002
1.887999e+003,-1.549473e-002
1.889928e+003,-1.550665e-002
1.891856e+003,-1.573548e-002
1.893785e+003,-1.574094e-002
1.895713e+003,-1.562519e-002
1.897642e+003,-1.556257e-002
1.899570e+003,-1.556925e-002
1.901499e+003,-1.563104e-002
1.903427e+003,-1.565766e-002
1.905356e+003,-1.566249e-002
1.907284e+003,-1.560026e-002
1.909213e+003,-1.552075e-002
1.911141e+003,-1.557459e-002
1.913070e+003,-1.562458e-002
1.914998e+003,-1.566150e-002
1.916927e+003,-1.563522e-002
1.918855e+003,-1.562385e-002
1.920784e+003,-1.558197e-002
1.922712e+003,-1.557430e-002
1.924641e+003,-1.556791e-002
1.926569e+003,-1.564395e-002
1.928498e+003,-1.581143e-002
1.930426e+003,-1.581676e-002
1.932355e+003,-1.572832e-002
1.934283e+003,-1.571416e-002
1.936212e+003,-1.569179e-002
1.938140e+003,-1.568687e-002
1.940069e+003,-1.571506e-002
1.941997e+003,-1.565140e-002
1.943926e+003,-1.564475e-002
1.945854e+003,-1.578657e-002
1.947783e+003,-1.584184e-002
1.949711e+003,-1.581357e-002
1.951640e+003,-1.581328e-002
1.953568e+003,-1.580769e-002
1.955497e+003,-1.588181e-002
1.957425e+003,-1.595706e-002
1.959354e+003,-1.596086e-002
1.961282e+003,-1.593352e-002
1.963211e+003,-1.596945e-002
1.965139e+003,-1.590797e-002
1.967068e+003,-1.580939e-002
1.968996e+003,-1.581383e-002
1.970925e+003,-1.584434e-002
1.972853e+003,-1.590139e-002
1.974782e+003,-1.591691e-002
1.976710e+003,-1.593208e-002
1.978639e+003,-1.589490e-002
1.980567e+003,-1.585197e-002
1.982496e+003,-1.583769e-002
1.984424e+003,-1.595684e-002
1.986353e+003,-1.587334e-002
1.988281e+003,-1.573794e-002
1.990210e+003,-1.571956e-002
1.992138e+003,-1.566728e-002
1.994067e+003,-1.568742e-002
1.995995e+003,-1.571857e-002
1.997924e+003,-1.569550e-002
1.999852e+003,-1.563506e-002
2.001781e+003,-1.569796e-002
2.003709e+003,-1.576127e-002
2.005638e+003,-1.575181e-002
2.007566e+003,-1.577130e-002
2.009495e+003,-1.586165e-002
2.011423e+003,-1.591250e-002
2.013352e+003,-1.580344e-002
2.015280e+003,-1.577727e-002
2.017208e+003,-1.581891e-002
2.019137e+003,-1.579756e-002
2.021066e+003,-1.575197e-002
2.022994e+003,-1.574852e-002
2.024922e+003,-1.574462e-002
2.026851e+003,-1.578913e-002
2.028780e+003,-1.583424e-002
2.030708e+003,-1.579172e-002
2.032636e+003,-1.570758e-002
2.034565e+003,-1.576420e-002
2.036494e+003,-1.583894e-002
2.038422e+003,-1.577574e-002
2.040350e+003,-1.563858e-002
2.042279e+003,-1.560061e-002
2.044208e+003,-1.564577e-002
2.046136e+003,-1.564555e-002
2.048064e+003,-1.563174e-002
2.049993e+003,-1.568128e-002
2.051921e+003,-1.571282e-002
2.053850e+003,-1.573650e-002
2.055778e+003,-1.575631e-002
2.057707e+003,-1.572506e-002
2.059635e+003,-1.558718e-002
2.061564e+003,-1.557165e-002
2.063492e+003,-1.566658e-002
2.065421e+003,-1.569064e-002
2.067349e+003,-1.567447e-002
2.069278e+003,-1.564855e-002
2.071206e+003,-1.564676e-002
2.073135e+003,-1.562324e-002
2.075063e+003,-1.558584e-002
2.076992e+003,-1.559747e-002
2.078920e+003,-1.556554e-002
2.080849e+003,-1.552823e-002
2.082777e+003,-1.550387e-002
2.084706e+003,-1.551349e-002
2.086634e+003,-1.560013e-002
2.088563e+003,-1.561243e-002
2.090491e+003,-1.552887e-002
2.092420e+003,-1.548811e-002
2.094348e+003,-1.547967e-002
2.096277e+003,-1.546346e-002
2.098205e+003,-1.544712e-002
2.100134e+003,-1.552261e-002
2.102062e+003,-1.552248e-002
2.103991e+003,-1.540577e-002
2.105919e+003,-1.538693e-002
2.107848e+003,-1.544216e-002
2.109776e+003,-1.546729e-002
2.111705e+003,-1.541731e-002
2.113633e+003,-1.535540e-002
2.115562e+003,-1.538684e-002
2.117490e+003,-1.537555e-002
2.119419e+003,-1.534373e-002
2.121347e+003,-1.535396e-002
2.123276e+003,-1.536228e-002
2.125204e+003,-1.534468e-002
2.127133e+003,-1.528964e-002
2.129061e+003,-1.518832e-002
2.130990e+003,-1.512807e-002
2.132918e+003,-1.511063e-002
2.134847e+003,-1.513946e-002
2.136775e+003,-1.519386e-002
2.138704e+003,-1.517578e-002
2.140632e+003,-1.508599e-002
2.142561e+003,-1.513959e-002
2.144489e+003,-1.523010e-002
2.146418e+003,-1.507642e-002
2.148346e+003,-1.495399e-002
2.150275e+003,-1.498635e-002
2.152203e+003,-1.502575e-002
2.154132e+003,-1.501205e-002
2.156060e+003,-1.504345e-002
2.157989e+003,-1.512103e-002
2.159917e+003,-1.511914e-002
2.161846e+003,-1.503820e-002
2.163774e+003,-1.497992e-002
2.165703e+003,-1.501337e-002
2.167631e+003,-1.504585e-002
2.169560e+003,-1.495159e-002
2.171488e+003,-1.494320e-002
2.173417e+003,-1.494784e-002
2.175345e+003,-1.493977e-002
2.177274e+003,-1.495735e-002
2.179202e+003,-1.485278e-002
2.181131e+003,-1.481192e-002
2.183059e+003,-1.483498e-002
2.184988e+003,-1.485631e-002
2.186916e+003,-1.490737e-002
2.188845e+003,-1.495709e-002
2.190773e+003,-1.491234e-002
2.192702e+003,-1.483034e-002
2.194630e+003,-1.482794e-002
2.196559e+003,-1.497806e-002
2.198487e+003,-1.510871e-002
2.200416e+003,-1.506070e-002
2.202344e+003,-1.495130e-002
2.204273e+003,-1.493478e-002
2.206201e+003,-1.491772e-002
2.208130e+003,-1.493478e-002
2.210058e+003,-1.502710e-002
2.211987e+003,-1.509962e-002
2.213915e+003,-1.504358e-002
2.215844e+003,-1.506218e-002
2.217772e+003,-1.516951e-002
2.219701e+003,-1.512007e-002
2.221629e+003,-1.509386e-002
2.223558e+003,-1.512928e-002
2.225486e+003,-1.515767e-002
2.227415e+003,-1.514199e-002
2.229343e+003,-1.518662e-002
2.231272e+003,-1.519792e-002
2.233200e+003,-1.522140e-002
2.235129e+003,-1.519747e-002
2.237057e+003,-1.523302e-002
2.238986e+003,-1.526625e-002
2.240914e+003,-1.529344e-002
2.242843e+003,-1.532242e-002
2.244771e+003,-1.537369e-002
2.246700e+003,-1.545454e-002
2.248628e+003,-1.542128e-002
2.250557e+003,-1.533244e-002
2.252485e+003,-1.535565e-002
2.254414e+003,-1.537446e-002
2.256342e+003,-1.538524e-002
2.258271e+003,-1.545310e-002
2.260199e+003,-1.550889e-002
2.262128e+003,-1.550844e-002
2.264056e+003,-1.544542e-002
2.265985e+003,-1.534526e-002
2.267913e+003,-1.545585e-002
2.269842e+003,-1.555282e-002
2.271770e+003,-1.554741e-002
2.273699e+003,-1.559108e-002
2.275627e+003,-1.556119e-002
2.277556e+003,-1.558264e-002
2.279484e+003,-1.561694e-002
2.281413e+003,-1.559201e-002
2.283341e+003,-1.564826e-002
2.285270e+003,-1.570068e-002
2.287198e+003,-1.559201e-002
2.289127e+003,-1.552299e-002
2.291055e+003,-1.552270e-002
2.292984e+003,-1.555416e-002
2.294912e+003,-1.559063e-002
2.296841e+003,-1.551736e-002
2.298769e+003,-1.550400e-002
2.300698e+003,-1.550560e-002
2.302626e+003,-1.542013e-002
2.304555e+003,-1.536870e-002
2.306483e+003,-1.537641e-002
2.308412e+003,-1.534660e-002
2.310340e+003,-1.524527e-002
2.312269e+003,-1.513978e-002
2.314197e+003,-1.502121e-002
2.316125e+003,-1.484913e-002
2.318054e+003,-1.476347e-002
2.319983e+003,-1.463640e-002
2.321911e+003,-1.456210e-002
2.323840e+003,-1.449468e-002
2.325768e+003,-1.429803e-002
2.327697e+003,-1.405530e-002
2.329625e+003,-1.397651e-002
2.331553e+003,-1.403676e-002
2.333482e+003,-1.402630e-002
2.335411e+003,-1.395199e-002
2.337339e+003,-1.385839e-002
2.339268e+003,-1.376867e-002
2.341196e+003,-1.380196e-002
2.343125e+003,-1.399778e-002
2.345053e+003,-1.428620e-002
2.346981e+003,-1.475236e-002
2.348910e+003,-1.509328e-002
2.350839e+003,-1.479655e-002
2.352767e+003,-1.428922e-002
2.354696e+003,-1.400503e-002
2.356624e+003,-1.365670e-002
2.358552e+003,-1.351459e-002
2.360481e+003,-1.353875e-002
2.362409e+003,-1.354918e-002
2.364338e+003,-1.359700e-002
2.366267e+003,-1.362976e-002
2.368195e+003,-1.382231e-002
2.370124e+003,-1.404539e-002
2.372052e+003,-1.422820e-002
2.373980e+003,-1.453070e-002
2.375909e+003,-1.486764e-002
2.377838e+003,-1.512567e-002
2.379766e+003,-1.523417e-002
2.381695e+003,-1.530118e-002
2.383623e+003,-1.536707e-002
2.385552e+003,-1.539135e-002
2.387480e+003,-1.541322e-002
2.389408e+003,-1.530950e-002
2.391337e+003,-1.524111e-002
2.393266e+003,-1.525739e-002
2.395194e+003,-1.524197e-002
2.397123e+003,-1.522767e-002
2.399051e+003,-1.522300e-002
2.400979e+003,-1.529258e-002
2.402908e+003,-1.527751e-002
2.404836e+003,-1.517747e-002
2.406765e+003,-1.517008e-002
2.408694e+003,-1.514688e-002
2.410622e+003,-1.515037e-002
2.412551e+003,-1.518182e-002
2.414479e+003,-1.524376e-002
2.416407e+003,-1.523151e-002
2.418336e+003,-1.515668e-002
2.420264e+003,-1.511799e-002
2.422193e+003,-1.513472e-002
2.424122e+003,-1.509408e-002
2.426050e+003,-1.502380e-002
2.427979e+003,-1.495396e-002
2.429907e+003,-1.497195e-002
2.431835e+003,-1.485544e-002
2.433764e+003,-1.473410e-002
2.435692e+003,-1.480056e-002
2.437621e+003,-1.488464e-002
2.439550e+003,-1.480987e-002
2.441478e+003,-1.478253e-002
2.443406e+003,-1.486799e-002
2.445335e+003,-1.493263e-002
2.447263e+003,-1.489895e-002
2.449192e+003,-1.484484e-002
2.451121e+003,-1.478349e-002
2.453049e+003,-1.480325e-002
2.454978e+003,-1.485551e-002
2.456906e+003,-1.482633e-002
2.458834e+003,-1.475197e-002
2.460763e+003,-1.470422e-002
2.462691e+003,-1.466328e-002
2.464620e+003,-1.464528e-002
2.466549e+003,-1.467468e-002
2.468477e+003,-1.471328e-002
2.470406e+003,-1.468670e-002
2.472334e+003,-1.476792e-002
2.474262e+003,-1.471709e-002
2.476191e+003,-1.461718e-002
2.478119e+003,-1.464531e-002
2.480048e+003,-1.457348e-002
2.481977e+003,-1.455810e-002
2.483905e+003,-1.460052e-002
2.485833e+003,-1.459966e-002
2.487762e+003,-1.449933e-002
2.489690e+003,-1.441991e-002
2.491619e+003,-1.445414e-002
2.493547e+003,-1.440238e-002
2.495476e+003,-1.436331e-002
2.497405e+003,-1.438594e-002
2.499333e+003,-1.438318e-002
2.501261e+003,-1.421983e-002
2.503190e+003,-1.419847e-002
2.505118e+003,-1.431105e-002
2.507047e+003,-1.429422e-002
2.508975e+003,-1.424484e-002
2.510904e+003,-1.423994e-002
2.512833e+003,-1.420110e-002
2.514761e+003,-1.415374e-002
2.516689e+003,-1.417699e-002
2.518618e+003,-1.426354e-002
2.520546e+003,-1.421573e-002
2.522475e+003,-1.417202e-002
2.524403e+003,-1.419257e-002
2.526332e+003,-1.414447e-002
2.528260e+003,-1.403477e-002
2.530189e+003,-1.401029e-002
2.532117e+003,-1.404991e-002
2.534046e+003,-1.409575e-002
2.535974e+003,-1.404869e-002
2.537903e+003,-1.403897e-002
2.539831e+003,-1.412202e-002
2.541760e+003,-1.411595e-002
2.543688e+003,-1.412048e-002
2.545617e+003,-1.414373e-002
2.547545e+003,-1.406749e-002
2.549474e+003,-1.397365e-002
2.551402e+003,-1.401991e-002
2.553331e+003,-1.405036e-002
2.555259e+003,-1.406428e-002
2.557188e+003,-1.410729e-002
2.559116e+003,-1.415701e-002
2.561045e+003,-1.410171e-002
2.562973e+003,-1.401083e-002
2.564902e+003,-1.402168e-002
2.566830e+003,-1.398036e-002
2.568759e+003,-1.395870e-002
2.570687e+003,-1.401805e-002
2.572616e+003,-1.399746e-002
2.574544e+003,-1.394529e-002
2.576473e+003,-1.402979e-002
2.578401e+003,-1.410428e-002
2.580330e+003,-1.408041e-002
2.582258e+003,-1.402861e-002
2.584187e+003,-1.399880e-002
2.586115e+003,-1.399932e-002
2.588044e+003,-1.400544e-002
2.589972e+003,-1.398241e-002
2.591901e+003,-1.397946e-002
2.593829e+003,-1.393104e-002
2.595758e+003,-1.386545e-002
2.597686e+003,-1.388075e-002
2.599615e+003,-1.381727e-002
2.601543e+003,-1.379750e-002
2.603472e+003,-1.395039e-002
2.605400e+003,-1.398077e-002
2.607329e+003,-1.394118e-002
2.609257e+003,-1.387212e-002
2.611186e+003,-1.382552e-002
2.613114e+003,-1.384815e-002
2.615043e+003,-1.389394e-002
2.616971e+003,-1.386047e-002
2.618900e+003,-1.380723e-002
2.620828e+003,-1.376290e-002
2.622757e+003,-1.359328e-002
2.624685e+003,-1.346933e-002
2.626614e+003,-1.362028e-002
2.628542e+003,-1.379740e-002
2.630471e+003,-1.387854e-002
2.632399e+003,-1.376672e-002
2.634328e+003,-1.372714e-002
2.636256e+003,-1.376970e-002
2.638185e+003,-1.368704e-002
2.640113e+003,-1.353887e-002
2.642042e+003,-1.346044e-002
2.643970e+003,-1.346750e-002
2.645899e+003,-1.348517e-002
2.647827e+003,-1.341190e-002
2.649756e+003,-1.340743e-002
2.651684e+003,-1.345607e-002
2.653613e+003,-1.340795e-002
2.655541e+003,-1.327598e-002
2.657470e+003,-1.320630e-002
2.659398e+003,-1.322427e-002
2.661327e+003,-1.316616e-002
2.663255e+003,-1.311202e-002
2.665184e+003,-1.317133e-002
2.667112e+003,-1.323995e-002
2.669041e+003,-1.327428e-002
2.670969e+003,-1.327736e-002
2.672898e+003,-1.314327e-002
2.674826e+003,-1.307810e-002
2.676755e+003,-1.304524e-002
2.678683e+003,-1.304997e-002
2.680612e+003,-1.305942e-002
2.682540e+003,-1.297646e-002
2.684469e+003,-1.288593e-002
2.686397e+003,-1.276378e-002
2.688326e+003,-1.278646e-002
2.690254e+003,-1.276403e-002
2.692183e+003,-1.273598e-002
2.694111e+003,-1.270872e-002
2.696040e+003,-1.257741e-002
2.697968e+003,-1.253818e-002
2.699897e+003,-1.256184e-002
2.701825e+003,-1.251381e-002
2.703754e+003,-1.249407e-002
2.705682e+003,-1.248441e-002
2.707611e+003,-1.237062e-002
2.709539e+003,-1.224433e-002
2.711468e+003,-1.223705e-002
2.713396e+003,-1.219247e-002
2.715325e+003,-1.214014e-002
2.717253e+003,-1.211604e-002
2.719182e+003,-1.215252e-002
2.721110e+003,-1.213032e-002
2.723039e+003,-1.201936e-002
2.724967e+003,-1.191702e-002
2.726896e+003,-1.191489e-002
2.728824e+003,-1.188407e-002
2.730753e+003,-1.177448e-002
2.732681e+003,-1.167082e-002
2.734610e+003,-1.157698e-002
2.736538e+003,-1.155188e-002
2.738467e+003,-1.148747e-002
2.740395e+003,-1.137271e-002
2.742324e+003,-1.132455e-002
2.744252e+003,-1.126266e-002
2.746181e+003,-1.122521e-002
2.748109e+003,-1.117845e-002
2.750038e+003,-1.101974e-002
2.751966e+003,-1.101425e-002
2.753895e+003,-1.098356e-002
2.755823e+003,-1.088133e-002
2.757752e+003,-1.075810e-002
2.759680e+003,-1.057841e-002
2.761609e+003,-1.032643e-002
2.763537e+003,-1.007968e-002
2.765466e+003,-9.888602e-003
2.767394e+003,-9.627086e-003
2.769323e+003,-9.292186e-003
2.771251e+003,-8.919700e-003
2.773180e+003,-8.496145e-003
2.775108e+003,-8.015417e-003
2.777037e+003,-7.594983e-003
2.778965e+003,-7.153315e-003
2.780894e+003,-6.600060e-003
2.782822e+003,-6.009696e-003
2.784750e+003,-5.462375e-003
2.786679e+003,-4.770616e-003
2.788608e+003,-3.995915e-003
2.790536e+003,-3.250679e-003
2.792465e+003,-2.510519e-003
2.794393e+003,-1.793350e-003
2.796322e+003,-1.229089e-003
2.798250e+003,-5.283652e-004
2.800178e+003,2.186403e-004
2.802107e+003,8.722343e-004
2.804036e+003,1.484487e-003
2.805964e+003,1.888865e-003
2.807893e+003,2.112721e-003
2.809821e+003,2.280763e-003
2.811750e+003,2.422047e-003
2.813678e+003,2.398191e-003
2.815606e+003,2.173889e-003
2.817535e+003,1.908034e-003
2.819464e+003,1.705573e-003
2.821392e+003,1.476907e-003
2.823321e+003,1.135795e-003
2.825249e+003,5.834846e-004
2.827177e+003,1.343793e-004
2.829106e+003,-3.152222e-004
2.831034e+003,-9.268297e-004
2.832963e+003,-1.506474e-003
2.834892e+003,-2.050390e-003
2.836820e+003,-2.759464e-003
2.838749e+003,-3.425043e-003
2.840677e+003,-4.044830e-003
2.842605e+003,-4.778940e-003
2.844534e+003,-5.470914e-003
2.846462e+003,-6.216960e-003
2.848391e+003,-6.938508e-003
2.850320e+003,-7.423653e-003
2.852248e+003,-7.716088e-003
2.854177e+003,-7.901196e-003
2.856105e+003,-8.030705e-003
2.858033e+003,-8.134129e-003
2.859962e+003,-8.131625e-003
2.861890e+003,-8.115787e-003
2.863819e+003,-8.088339e-003
2.865748e+003,-8.062125e-003
2.867676e+003,-8.016490e-003
2.869604e+003,-7.933764e-003
2.871533e+003,-7.847898e-003
2.873461e+003,-7.693823e-003
2.875390e+003,-7.576880e-003
2.877319e+003,-7.507812e-003
2.879247e+003,-7.376714e-003
2.881176e+003,-7.231335e-003
2.883104e+003,-7.174141e-003
2.885032e+003,-7.233519e-003
2.886961e+003,-7.264377e-003
2.888889e+003,-7.310254e-003
2.890818e+003,-7.431145e-003
2.892747e+003,-7.553989e-003
2.894675e+003,-7.669408e-003
2.896604e+003,-7.772917e-003
2.898532e+003,-7.867845e-003
2.900460e+003,-7.880242e-003
2.902389e+003,-7.905393e-003
2.904317e+003,-7.982985e-003
2.906246e+003,-8.029827e-003
2.908175e+003,-8.151396e-003
2.910103e+003,-8.311777e-003
2.912031e+003,-8.545238e-003
2.913960e+003,-8.827405e-003
2.915888e+003,-9.048355e-003
2.917817e+003,-8.963876e-003
2.919745e+003,-8.855002e-003
2.921674e+003,-8.617843e-003
2.923603e+003,-8.375062e-003
2.925531e+003,-8.168825e-003
2.927459e+003,-7.878094e-003
2.929388e+003,-7.602113e-003
2.931316e+003,-7.254178e-003
2.933245e+003,-6.944736e-003
2.935173e+003,-6.745551e-003
2.937102e+003,-6.678081e-003
2.939031e+003,-6.646006e-003
2.940959e+003,-6.544414e-003
2.942887e+003,-6.621010e-003
2.944816e+003,-6.745551e-003
2.946744e+003,-6.938867e-003
2.948673e+003,-7.223384e-003
2.950601e+003,-7.669440e-003
2.952530e+003,-8.141348e-003
2.954458e+003,-8.655197e-003
2.956387e+003,-9.184756e-003
2.958315e+003,-9.801501e-003
2.960244e+003,-1.041841e-002
2.962172e+003,-1.093358e-002
2.964101e+003,-1.139915e-002
2.966029e+003,-1.189620e-002
2.967958e+003,-1.243567e-002
2.969886e+003,-1.290391e-002
2.971815e+003,-1.321559e-002
2.973743e+003,-1.350325e-002
2.975672e+003,-1.393531e-002
2.977600e+003,-1.428015e-002
2.979529e+003,-1.441225e-002
2.981457e+003,-1.470153e-002
2.983386e+003,-1.502102e-002
2.985314e+003,-1.528369e-002
2.987243e+003,-1.545533e-002
2.989171e+003,-1.561071e-002
2.991100e+003,-1.573046e-002
2.993028e+003,-1.598926e-002
2.994957e+003,-1.608531e-002
2.996885e+003,-1.612461e-002
2.998814e+003,-1.611101e-002
3.000742e+003,-1.614306e-002
3.002671e+003,-1.633499e-002
3.004599e+003,-1.645553e-002
3.006528e+003,-1.650354e-002
3.008456e+003,-1.659109e-002
3.010385e+003,-1.662633e-002
3.012313e+003,-1.657317e-002
3.014242e+003,-1.658995e-002
3.016170e+003,-1.661909e-002
3.018099e+003,-1.659648e-002
3.020027e+003,-1.661371e-002
3.021956e+003,-1.672030e-002
3.023884e+003,-1.681957e-002
3.025813e+003,-1.686853e-002
3.027741e+003,-1.702416e-002
3.029670e+003,-1.698185e-002
3.031598e+003,-1.680877e-002
3.033527e+003,-1.691522e-002
3.035455e+003,-1.705472e-002
3.037384e+003,-1.704666e-002
3.039312e+003,-1.716493e-002
3.041241e+003,-1.728489e-002
3.043169e+003,-1.734141e-002
3.045098e+003,-1.726280e-002
3.047026e+003,-1.726165e-002
3.048955e+003,-1.734201e-002
3.050883e+003,-1.743013e-002
3.052812e+003,-1.746584e-002
3.054740e+003,-1.745177e-002
3.056669e+003,-1.743809e-002
3.058597e+003,-1.751966e-002
3.060526e+003,-1.756564e-002
3.062454e+003,-1.761356e-002
3.064383e+003,-1.769520e-002
3.066311e+003,-1.768607e-002
3.068240e+003,-1.766911e-002
3.070168e+003,-1.778502e-002
3.072097e+003,-1.784662e-002
3.074025e+003,-1.781183e-002
3.075954e+003,-1.782745e-002
3.077882e+003,-1.787629e-002
3.079811e+003,-1.791721e-002
3.081739e+003,-1.801020e-002
3.083668e+003,-1.805960e-002
3.085596e+003,-1.801688e-002
3.087525e+003,-1.803951e-002
3.089453e+003,-1.803509e-002
3.091382e+003,-1.808824e-002
3.093310e+003,-1.818621e-002
3.095239e+003,-1.813645e-002
3.097167e+003,-1.814074e-002
3.099096e+003,-1.823432e-002
3.101024e+003,-1.835011e-002
3.102953e+003,-1.839676e-002
3.104881e+003,-1.839756e-002
3.106810e+003,-1.839149e-002
3.108738e+003,-1.833820e-002
3.110667e+003,-1.841236e-002
3.112595e+003,-1.846987e-002
3.114524e+003,-1.842525e-002
3.116452e+003,-1.848902e-002
3.118381e+003,-1.856725e-002
3.120309e+003,-1.860157e-002
3.122238e+003,-1.861480e-002
3.124166e+003,-1.866927e-002
3.126095e+003,-1.872304e-002
3.128023e+003,-1.876607e-002
3.129952e+003,-1.868524e-002
3.131880e+003,-1.869390e-002
3.133809e+003,-1.868076e-002
3.135737e+003,-1.870308e-002
3.137666e+003,-1.875242e-002
3.139594e+003,-1.877197e-002
3.141523e+003,-1.873278e-002
3.143451e+003,-1.882411e-002
3.145380e+003,-1.890355e-002
3.147308e+003,-1.883131e-002
3.149237e+003,-1.886691e-002
3.151165e+003,-1.898779e-002
3.153094e+003,-1.903695e-002
3.155022e+003,-1.899379e-002
3.156951e+003,-1.892524e-002
3.158879e+003,-1.888461e-002
3.160808e+003,-1.883851e-002
3.162736e+003,-1.890729e-002
3.164665e+003,-1.903090e-002
3.166593e+003,-1.908278e-002
3.168522e+003,-1.903527e-002
3.170450e+003,-1.898329e-002
3.172379e+003,-1.897571e-002
3.174307e+003,-1.889936e-002
3.176236e+003,-1.876239e-002
3.178164e+003,-1.879533e-002
3.180093e+003,-1.888394e-002
3.182021e+003,-1.895157e-002
3.183950e+003,-1.901443e-002
3.185878e+003,-1.903958e-002
3.187807e+003,-1.894355e-002
3.189735e+003,-1.893958e-002
3.191664e+003,-1.907272e-002
3.193592e+003,-1.920639e-002
3.195521e+003,-1.911784e-002
3.197449e+003,-1.899829e-002
3.199378e+003,-1.900711e-002
3.201306e+003,-1.894129e-002
3.203235e+003,-1.901345e-002
3.205163e+003,-1.908715e-002
3.207092e+003,-1.915966e-002
3.209020e+003,-1.909035e-002
3.210948e+003,-1.899065e-002
3.212877e+003,-1.894532e-002
3.214806e+003,-1.889063e-002
3.216734e+003,-1.894307e-002
3.218663e+003,-1.901240e-002
3.220591e+003,-1.895598e-002
3.222520e+003,-1.881281e-002
3.224448e+003,-1.881256e-002
3.226376e+003,-1.877188e-002
3.228305e+003,-1.869327e-002
3.230234e+003,-1.863147e-002
3.232162e+003,-1.859804e-002
3.234091e+003,-1.865474e-002
3.236019e+003,-1.875772e-002
3.237948e+003,-1.864414e-002
3.239876e+003,-1.840591e-002
3.241804e+003,-1.821172e-002
3.243733e+003,-1.834490e-002
3.245662e+003,-1.843249e-002
3.247590e+003,-1.842709e-002
3.249519e+003,-1.830138e-002
3.251447e+003,-1.828400e-002
3.253375e+003,-1.826370e-002
3.255304e+003,-1.821322e-002
3.257232e+003,-1.809148e-002
3.259161e+003,-1.805165e-002
3.261090e+003,-1.803799e-002
3.263018e+003,-1.800950e-002
3.264947e+003,-1.804812e-002
3.266875e+003,-1.805308e-002
3.268803e+003,-1.794650e-002
3.270732e+003,-1.788135e-002
3.272660e+003,-1.780280e-002
3.274589e+003,-1.777399e-002
3.276518e+003,-1.777895e-002
3.278446e+003,-1.783966e-002
3.280375e+003,-1.798534e-002
3.282303e+003,-1.787489e-002
3.284231e+003,-1.780687e-002
3.286160e+003,-1.786453e-002
3.288088e+003,-1.785015e-002
3.290017e+003,-1.797330e-002
3.291946e+003,-1.808922e-002
3.293874e+003,-1.822961e-002
3.295802e+003,-1.818907e-002
3.297731e+003,-1.814376e-002
3.299659e+003,-1.830208e-002
3.301588e+003,-1.833499e-002
3.303516e+003,-1.833845e-002
3.305445e+003,-1.845421e-002
3.307374e+003,-1.862334e-002
3.309302e+003,-1.873706e-002
3.311230e+003,-1.883378e-002
3.313159e+003,-1.902794e-002
3.315087e+003,-1.913316e-002
3.317016e+003,-1.920316e-002
3.318944e+003,-1.938014e-002
3.320873e+003,-1.934395e-002
3.322802e+003,-1.939779e-002
3.324730e+003,-1.959142e-002
3.326658e+003,-1.970020e-002
3.328587e+003,-1.974769e-002
3.330515e+003,-1.962616e-002
3.332444e+003,-1.967860e-002
3.334372e+003,-1.986986e-002
3.336301e+003,-1.993360e-002
3.338229e+003,-1.995354e-002
3.340158e+003,-2.004046e-002
3.342086e+003,-2.003002e-002
3.344015e+003,-1.989591e-002
3.345943e+003,-1.992667e-002
3.347872e+003,-2.004419e-002
3.349800e+003,-2.000138e-002
3.351729e+003,-1.999056e-002
3.353657e+003,-2.019762e-002
3.355586e+003,-2.028977e-002
3.357514e+003,-2.041991e-002
3.359443e+003,-2.048060e-002
3.361371e+003,-2.039095e-002
3.363300e+003,-2.043691e-002
3.365229e+003,-2.060856e-002
3.367157e+003,-2.063902e-002
3.369085e+003,-2.079445e-002
3.371014e+003,-2.091136e-002
3.372942e+003,-2.094656e-002
3.374871e+003,-2.097321e-002
3.376799e+003,-2.097981e-002
3.378728e+003,-2.112088e-002
3.380656e+003,-2.125850e-002
3.382585e+003,-2.132516e-002
3.384513e+003,-2.136049e-002
3.386442e+003,-2.146545e-002
3.388370e+003,-2.144659e-002
3.390299e+003,-2.142988e-002
3.392227e+003,-2.153086e-002
3.394156e+003,-2.156652e-002
3.396084e+003,-2.160567e-002
3.398013e+003,-2.169466e-002
3.399941e+003,-2.168596e-002
3.401870e+003,-2.173712e-002
3.403798e+003,-2.169368e-002
3.405727e+003,-2.172300e-002
3.407655e+003,-2.182649e-002
3.409584e+003,-2.184086e-002
3.411512e+003,-2.187848e-002
3.413441e+003,-2.197802e-002
3.415369e+003,-2.209881e-002
3.417298e+003,-2.208602e-002
3.419226e+003,-2.197960e-002
3.421155e+003,-2.190796e-002
3.423083e+003,-2.185110e-002
3.425012e+003,-2.193922e-002
3.426940e+003,-2.218842e-002
3.428869e+003,-2.218178e-002
3.430797e+003,-2.205494e-002
3.432726e+003,-2.214066e-002
3.434654e+003,-2.233719e-002
3.436583e+003,-2.249307e-002
3.438511e+003,-2.230322e-002
3.440440e+003,-2.212299e-002
3.442368e+003,-2.214261e-002
3.444297e+003,-2.220769e-002
3.446225e+003,-2.226662e-002
3.448154e+003,-2.231009e-002
3.450082e+003,-2.235736e-002
3.452011e+003,-2.251085e-002
3.453939e+003,-2.257845e-002
3.455868e+003,-2.267080e-002
3.457796e+003,-2.263686e-002
3.459725e+003,-2.245655e-002
3.461653e+003,-2.234147e-002
3.463582e+003,-2.244846e-002
3.465510e+003,-2.254806e-002
3.467439e+003,-2.263114e-002
3.469367e+003,-2.272077e-002
3.471296e+003,-2.275781e-002
3.473224e+003,-2.278375e-002
3.475153e+003,-2.281047e-002
3.477081e+003,-2.281974e-002
3.479010e+003,-2.287020e-002
3.480938e+003,-2.272218e-002
3.482867e+003,-2.273372e-002
3.484795e+003,-2.257282e-002
3.486724e+003,-2.242423e-002
3.488652e+003,-2.261843e-002
3.490581e+003,-2.283015e-002
3.492509e+003,-2.282392e-002
3.494438e+003,-2.259185e-002
3.496366e+003,-2.248146e-002
3.498295e+003,-2.259012e-002
3.500223e+003,-2.269790e-002
3.502152e+003,-2.279701e-002
3.504080e+003,-2.284326e-002
3.506009e+003,-2.283329e-002
3.507937e+003,-2.266136e-002
3.509866e+003,-2.254970e-002
3.511794e+003,-2.266608e-002
3.513723e+003,-2.265394e-002
3.515651e+003,-2.269224e-002
3.517580e+003,-2.270470e-002
3.519508e+003,-2.278261e-002
3.521437e+003,-2.277985e-002
3.523365e+003,-2.282619e-002
3.525294e+003,-2.283728e-002
3.527222e+003,-2.268812e-002
3.529151e+003,-2.253731e-002
3.531079e+003,-2.261123e-002
3.533008e+003,-2.275985e-002
3.534936e+003,-2.275692e-002
3.536865e+003,-2.279538e-002
3.538793e+003,-2.267334e-002
3.540722e+003,-2.243889e-002
3.542650e+003,-2.246573e-002
3.544579e+003,-2.239191e-002
3.546507e+003,-2.246237e-002
3.548436e+003,-2.274252e-002
3.550364e+003,-2.268863e-002
3.552293e+003,-2.262956e-002
3.554221e+003,-2.275677e-002
3.556150e+003,-2.276296e-002
3.558078e+003,-2.261865e-002
3.560007e+003,-2.264101e-002
3.561935e+003,-2.260349e-002
3.563864e+003,-2.262708e-002
3.565792e+003,-2.236016e-002
3.567721e+003,-2.211210e-002
3.569649e+003,-2.261560e-002
3.571578e+003,-2.303328e-002
3.573506e+003,-2.286199e-002
3.575435e+003,-2.271161e-002
3.577363e+003,-2.262258e-002
3.579292e+003,-2.259141e-002
3.581220e+003,-2.279387e-002
3.583149e+003,-2.289088e-002
3.585077e+003,-2.257314e-002
3.587006e+003,-2.231528e-002
3.588934e+003,-2.231965e-002
3.590863e+003,-2.255618e-002
3.592791e+003,-2.262834e-002
3.594720e+003,-2.261859e-002
3.596648e+003,-2.254945e-002
3.598577e+003,-2.248093e-002
3.600505e+003,-2.241813e-002
3.602434e+003,-2.251418e-002
3.604362e+003,-2.247385e-002
3.606291e+003,-2.242074e-002
3.608219e+003,-2.221823e-002
3.610148e+003,-2.219604e-002
3.612076e+003,-2.216493e-002
3.614005e+003,-2.227641e-002
3.615933e+003,-2.255750e-002
3.617862e+003,-2.222242e-002
3.619790e+003,-2.185100e-002
3.621719e+003,-2.224911e-002
3.623647e+003,-2.261201e-002
3.625576e+003,-2.248908e-002
3.627504e+003,-2.174058e-002
3.629433e+003,-2.134122e-002
3.631361e+003,-2.219972e-002
3.633290e+003,-2.240107e-002
3.635218e+003,-2.253337e-002
3.637146e+003,-2.281443e-002
3.639075e+003,-2.283527e-002
3.641004e+003,-2.276428e-002
3.642932e+003,-2.287246e-002
3.644861e+003,-2.285879e-002
3.646789e+003,-2.226536e-002
3.648718e+003,-2.162992e-002
3.650646e+003,-2.161646e-002
3.652574e+003,-2.227817e-002
3.654503e+003,-2.253835e-002
3.656432e+003,-2.230892e-002
3.658360e+003,-2.265485e-002
3.660289e+003,-2.290025e-002
3.662217e+003,-2.312659e-002
3.664146e+003,-2.321628e-002
3.666074e+003,-2.313784e-002
3.668002e+003,-2.288233e-002
3.669931e+003,-2.248238e-002
3.671860e+003,-2.279007e-002
3.673788e+003,-2.275051e-002
3.675717e+003,-2.199592e-002
3.677645e+003,-2.243235e-002
3.679573e+003,-2.290829e-002
3.681502e+003,-2.300805e-002
3.683430e+003,-2.302370e-002
3.685359e+003,-2.311481e-002
3.687288e+003,-2.269781e-002
3.689216e+003,-2.221892e-002
3.691145e+003,-2.249081e-002
3.693073e+003,-2.287268e-002
3.695001e+003,-2.312773e-002
3.696930e+003,-2.314868e-002
3.698858e+003,-2.326245e-002
3.700787e+003,-2.289031e-002
3.702716e+003,-2.270567e-002
3.704644e+003,-2.298407e-002
3.706573e+003,-2.301216e-002
3.708501e+003,-2.276670e-002
3.710429e+003,-2.247240e-002
3.712358e+003,-2.243068e-002
3.714286e+003,-2.290591e-002
3.716215e+003,-2.328628e-002
3.718144e+003,-2.309779e-002
3.720072e+003,-2.294434e-002
3.722000e+003,-2.290883e-002
3.723929e+003,-2.287897e-002
3.725857e+003,-2.279085e-002
3.727786e+003,-2.279060e-002
3.729714e+003,-2.309543e-002
3.731643e+003,-2.303652e-002
3.733572e+003,-2.282210e-002
3.735500e+003,-2.235711e-002
3.737428e+003,-2.266007e-002
3.739357e+003,-2.317004e-002
3.741285e+003,-2.311767e-002
3.743214e+003,-2.234798e-002
3.745142e+003,-2.169580e-002
3.747071e+003,-2.253765e-002
3.749000e+003,-2.226898e-002
3.750928e+003,-2.193613e-002
3.752856e+003,-2.196520e-002
3.754785e+003,-2.262629e-002
3.756713e+003,-2.260950e-002
3.758642e+003,-2.250456e-002
3.760570e+003,-2.263013e-002
3.762499e+003,-2.289336e-002
3.764427e+003,-2.292621e-002
3.766356e+003,-2.300623e-002
3.768284e+003,-2.280578e-002
3.770213e+003,-2.265158e-002
3.772141e+003,-2.298718e-002
3.774070e+003,-2.308271e-002
3.775998e+003,-2.297709e-002
3.777927e+003,-2.287312e-002
3.779855e+003,-2.269756e-002
3.781784e+003,-2.273790e-002
3.783712e+003,-2.266853e-002
3.785641e+003,-2.277500e-002
3.787569e+003,-2.298492e-002
3.789498e+003,-2.302543e-002
3.791426e+003,-2.302370e-002
3.793355e+003,-2.314956e-002
3.795283e+003,-2.286935e-002
3.797212e+003,-2.281600e-002
3.799140e+003,-2.286445e-002
3.801069e+003,-2.214557e-002
3.802997e+003,-2.236095e-002
3.804926e+003,-2.293240e-002
3.806854e+003,-2.258069e-002
3.808783e+003,-2.285093e-002
3.810711e+003,-2.295890e-002
3.812640e+003,-2.296933e-002
3.814568e+003,-2.269639e-002
3.816497e+003,-2.208612e-002
3.818425e+003,-2.224603e-002
3.820354e+003,-2.193270e-002
3.822282e+003,-2.208060e-002
3.824211e+003,-2.271378e-002
3.826139e+003,-2.288189e-002
3.828068e+003,-2.280594e-002
3.829996e+003,-2.258801e-002
3.831925e+003,-2.250374e-002
3.833853e+003,-2.265903e-002
3.835782e+003,-2.256118e-002
3.837710e+003,-2.215564e-002
3.839639e+003,-2.224364e-002
3.841567e+003,-2.251679e-002
3.843496e+003,-2.264645e-002
3.845424e+003,-2.290147e-002
3.847353e+003,-2.311177e-002
3.849281e+003,-2.288356e-002
3.851210e+003,-2.230492e-002
3.853138e+003,-2.124657e-002
3.855067e+003,-2.171143e-002
3.856995e+003,-2.268262e-002
3.858924e+003,-2.286460e-002
3.860852e+003,-2.281459e-002
3.862781e+003,-2.257194e-002
3.864709e+003,-2.228698e-002
3.866638e+003,-2.249723e-002
3.868566e+003,-2.240683e-002
3.870495e+003,-2.209547e-002
3.872423e+003,-2.265020e-002
3.874352e+003,-2.257166e-002
3.876280e+003,-2.292165e-002
3.878209e+003,-2.301839e-002
3.880137e+003,-2.270831e-002
3.882066e+003,-2.276875e-002
3.883994e+003,-2.276551e-002
3.885923e+003,-2.242530e-002
3.887851e+003,-2.288953e-002
3.889780e+003,-2.287545e-002
3.891708e+003,-2.288104e-002
3.893637e+003,-2.334045e-002
3.895565e+003,-2.333992e-002
3.897494e+003,-2.295824e-002
3.899422e+003,-2.246866e-002
3.901351e+003,-2.243225e-002
3.903279e+003,-2.242709e-002
3.905208e+003,-2.252614e-002
3.907136e+003,-2.287582e-002
3.909065e+003,-2.306077e-002
3.910993e+003,-2.330513e-002
3.912922e+003,-2.338849e-002
3.914850e+003,-2.321533e-002
3.916779e+003,-2.305609e-002
3.918707e+003,-2.311544e-002
3.920636e+003,-2.331053e-002
3.922564e+003,-2.356757e-002
3.924493e+003,-2.338115e-002
3.926421e+003,-2.319998e-002
3.928350e+003,-2.318009e-002
3.930278e+003,-2.319702e-002
3.932207e+003,-2.309763e-002
3.934135e+003,-2.292244e-002
3.936064e+003,-2.292175e-002
3.937992e+003,-2.315129e-002
3.939921e+003,-2.332802e-002
3.941849e+003,-2.320783e-002
3.943778e+003,-2.306637e-002
3.945706e+003,-2.326364e-002
3.947635e+003,-2.327039e-002
3.949563e+003,-2.316740e-002
3.951492e+003,-2.309675e-002
3.953420e+003,-2.326618e-002
3.955349e+003,-2.326926e-002
3.957277e+003,-2.329671e-002
3.959206e+003,-2.330626e-002
3.961134e+003,-2.334821e-002
3.963063e+003,-2.326914e-002
3.964991e+003,-2.337634e-002
3.966920e+003,-2.338812e-002
3.968848e+003,-2.335700e-002
3.970777e+003,-2.345442e-002
3.972705e+003,-2.333260e-002
3.974634e+003,-2.311475e-002
3.976562e+003,-2.310558e-002
3.978491e+003,-2.318757e-002
3.980419e+003,-2.315182e-002
3.982348e+003,-2.329131e-002
3.984276e+003,-2.332054e-002
3.986205e+003,-2.338316e-002
3.988133e+003,-2.328798e-002
3.990062e+003,-2.322953e-002
3.991990e+003,-2.325554e-002
3.993919e+003,-2.337251e-002
3.995847e+003,-2.352310e-002
3.997776e+003,-2.357081e-002
3.999704e+003,-2.343913e-002
4.001633e+003,0.000000e+000
