3.991989e+002,9.409785e-003
4.011274e+002,1.486489e-002
4.030559e+002,6.252556e-003
4.049844e+002,-1.855315e-003
4.069129e+002,-2.884459e-003
4.088414e+002,6.495892e-003
4.107699e+002,9.594056e-003
4.126984e+002,7.589478e-003
4.146269e+002,8.710872e-003
4.165554e+002,8.749987e-003
4.184839e+002,8.597369e-003
4.204124e+002,1.585694e-002
4.223409e+002,1.827164e-002
4.242694e+002,1.615090e-002
4.261979e+002,7.583173e-003
4.281264e+002,1.286855e-002
4.300549e+002,1.888451e-002
4.319834e+002,1.639747e-002
4.339119e+002,1.595266e-002
4.358404e+002,1.840194e-002
4.377689e+002,1.668588e-002
4.396974e+002,1.109490e-002
4.416259e+002,6.907625e-003
4.435544e+002,9.782979e-003
4.454829e+002,9.768237e-003
4.474114e+002,1.905494e-002
4.493399e+002,2.139547e-002
4.512684e+002,1.557004e-002
4.531969e+002,1.418125e-002
4.551254e+002,1.527190e-002
4.570539e+002,1.521446e-002
4.589824e+002,1.274154e-002
4.609109e+002,1.103953e-002
4.628394e+002,1.112610e-002
4.647679e+002,1.169240e-002
4.666964e+002,1.158088e-002
4.686249e+002,1.169836e-002
4.705533e+002,1.368070e-002
4.724819e+002,1.584907e-002
4.744103e+002,1.485923e-002
4.763389e+002,1.359894e-002
4.782673e+002,1.360650e-002
4.801959e+002,1.331934e-002
4.821243e+002,1.358185e-002
4.840529e+002,1.348443e-002
4.859813e+002,1.339807e-002
4.879099e+002,1.366028e-002
4.898383e+002,1.334616e-002
4.917668e+002,1.218971e-002
4.936953e+002,1.160800e-002
4.956238e+002,1.226087e-002
4.975523e+002,1.322246e-002
4.994808e+002,1.247428e-002
5.014093e+002,1.249369e-002
5.033378e+002,1.418655e-002
5.052663e+002,1.624015e-002
5.071948e+002,1.616892e-002
5.091233e+002,1.429543e-002
5.110518e+002,1.320330e-002
5.129803e+002,1.354387e-002
5.149088e+002,1.364623e-002
5.168373e+002,1.318263e-002
5.187658e+002,1.320374e-002
5.206943e+002,1.229366e-002
5.226228e+002,1.286944e-002
5.245513e+002,1.472687e-002
5.264798e+002,1.463851e-002
5.284083e+002,1.306293e-002
5.303368e+002,1.291818e-002
5.322653e+002,1.316484e-002
5.341938e+002,1.403564e-002
5.361223e+002,1.377423e-002
5.380508e+002,1.302196e-002
5.399792e+002,1.363922e-002
5.419078e+002,1.493992e-002
5.438363e+002,1.529871e-002
5.457648e+002,1.497006e-002
5.476932e+002,1.506751e-002
5.496218e+002,1.530125e-002
5.515503e+002,1.619203e-002
5.534788e+002,1.631803e-002
5.554072e+002,1.484428e-002
5.573358e+002,1.446398e-002
5.592643e+002,1.564845e-002
5.611927e+002,1.642297e-002
5.631212e+002,1.659751e-002
5.650497e+002,1.646193e-002
5.669783e+002,1.586580e-002
5.689067e+002,1.630379e-002
5.708352e+002,1.610888e-002
5.727637e+002,1.601189e-002
5.746923e+002,1.555452e-002
5.766207e+002,1.440472e-002
5.785492e+002,1.513694e-002
5.804777e+002,1.777985e-002
5.824063e+002,1.776142e-002
5.843347e+002,1.641891e-002
5.862632e+002,1.642703e-002
5.881917e+002,1.674983e-002
5.901202e+002,1.687871e-002
5.920487e+002,1.824693e-002
5.939772e+002,1.795956e-002
5.959057e+002,1.784603e-002
5.978342e+002,1.942640e-002
5.997627e+002,2.043797e-002
6.016912e+002,2.107884e-002
6.036197e+002,2.267771e-002
6.055482e+002,2.456398e-002
6.074767e+002,2.544346e-002
6.094052e+002,2.477322e-002
6.113337e+002,2.319525e-002
6.132622e+002,2.277673e-002
6.151907e+002,2.380958e-002
6.171192e+002,2.395755e-002
6.190477e+002,2.391165e-002
6.209762e+002,2.467115e-002
6.229047e+002,2.392331e-002
6.248332e+002,2.068060e-002
6.267617e+002,1.771500e-002
6.286902e+002,1.544337e-002
6.306187e+002,1.451033e-002
6.325472e+002,1.384294e-002
6.344756e+002,1.375268e-002
6.364042e+002,1.386107e-002
6.383326e+002,1.313188e-002
6.402612e+002,1.289050e-002
6.421896e+002,1.349540e-002
6.441182e+002,1.347507e-002
6.460466e+002,1.278023e-002
6.479752e+002,1.214007e-002
6.499036e+002,1.209203e-002
6.518322e+002,1.225804e-002
6.537606e+002,1.223664e-002
6.556891e+002,1.160388e-002
6.576177e+002,1.117662e-002
6.595461e+002,1.101853e-002
6.614746e+002,1.080016e-002
6.634031e+002,1.059443e-002
6.653317e+002,1.163219e-002
6.672601e+002,1.211233e-002
6.691886e+002,1.191660e-002
6.711171e+002,1.145515e-002
6.730457e+002,1.128312e-002
6.749741e+002,1.135994e-002
6.769026e+002,1.161678e-002
6.788311e+002,1.191051e-002
6.807596e+002,1.253990e-002
6.826881e+002,1.265918e-002
6.846166e+002,1.229765e-002
6.865451e+002,1.264389e-002
6.884736e+002,1.308981e-002
6.904021e+002,1.307728e-002
6.923306e+002,1.317225e-002
6.942591e+002,1.347869e-002
6.961876e+002,1.311607e-002
6.981161e+002,1.253328e-002
7.000446e+002,1.261105e-002
7.019731e+002,1.323462e-002
7.039016e+002,1.367584e-002
7.058301e+002,1.356548e-002
7.077585e+002,1.335009e-002
7.096871e+002,1.360821e-002
7.116156e+002,1.446891e-002
7.135441e+002,1.500268e-002
7.154725e+002,1.483547e-002
7.174011e+002,1.438875e-002
7.193296e+002,1.459410e-002
7.212581e+002,1.500450e-002
7.231865e+002,1.575811e-002
7.251151e+002,1.633971e-002
7.270436e+002,1.647139e-002
7.289720e+002,1.655671e-002
7.309005e+002,1.678358e-002
7.328290e+002,1.658167e-002
7.347576e+002,1.691237e-002
7.366860e+002,1.759898e-002
7.386145e+002,1.763383e-002
7.405430e+002,1.712346e-002
7.424716e+002,1.696129e-002
7.444000e+002,1.716465e-002
7.463285e+002,1.736727e-002
7.482570e+002,1.711322e-002
7.501855e+002,1.737762e-002
7.521140e+002,1.788418e-002
7.540425e+002,1.797513e-002
7.559710e+002,1.786046e-002
7.578995e+002,1.824303e-002
7.598280e+002,1.815675e-002
7.617565e+002,1.755502e-002
7.636850e+002,1.751521e-002
7.656135e+002,1.824023e-002
7.675420e+002,1.878828e-002
7.694705e+002,1.885565e-002
7.713990e+002,1.850317e-002
7.733275e+002,1.830461e-002
7.752560e+002,1.778879e-002
7.771844e+002,1.758514e-002
7.791130e+002,1.746602e-002
7.810415e+002,1.715606e-002
7.829700e+002,1.714014e-002
7.848984e+002,1.753142e-002
7.868270e+002,1.744370e-002
7.887555e+002,1.692043e-002
7.906840e+002,1.640783e-002
7.926124e+002,1.602423e-002
7.945410e+002,1.570039e-002
7.964695e+002,1.541439e-002
7.983979e+002,1.527811e-002
8.003264e+002,1.510850e-002
8.022549e+002,1.496567e-002
8.041835e+002,1.546668e-002
8.061119e+002,1.586158e-002
8.080404e+002,1.607711e-002
8.099689e+002,1.600450e-002
8.118975e+002,1.576065e-002
8.138259e+002,1.630358e-002
8.157545e+002,1.734113e-002
8.176830e+002,1.752221e-002
8.196115e+002,1.683107e-002
8.215399e+002,1.651558e-002
8.234684e+002,1.667370e-002
8.253970e+002,1.625236e-002
8.273254e+002,1.601127e-002
8.292539e+002,1.581384e-002
8.311824e+002,1.551533e-002
8.331110e+002,1.571262e-002
8.350394e+002,1.594637e-002
8.369679e+002,1.583058e-002
8.388964e+002,1.554160e-002
8.408250e+002,1.579127e-002
8.427534e+002,1.595513e-002
8.446819e+002,1.585254e-002
8.466104e+002,1.584247e-002
8.485389e+002,1.583432e-002
8.504674e+002,1.558549e-002
8.523959e+002,1.562293e-002
8.543244e+002,1.555362e-002
8.562529e+002,1.583797e-002
8.581814e+002,1.586649e-002
8.601099e+002,1.595774e-002
8.620384e+002,1.599181e-002
8.639669e+002,1.554761e-002
8.658954e+002,1.574966e-002
8.678239e+002,1.605287e-002
8.697524e+002,1.585941e-002
8.716809e+002,1.530022e-002
8.736094e+002,1.512837e-002
8.755378e+002,1.537711e-002
8.774664e+002,1.581140e-002
8.793949e+002,1.619262e-002
8.813234e+002,1.634174e-002
8.832518e+002,1.611373e-002
8.851804e+002,1.582955e-002
8.871089e+002,1.572616e-002
8.890374e+002,1.597081e-002
8.909658e+002,1.611060e-002
8.928943e+002,1.663961e-002
8.948229e+002,1.693007e-002
8.967513e+002,1.667607e-002
8.986798e+002,1.650529e-002
9.006083e+002,1.644462e-002
9.025369e+002,1.643185e-002
9.044653e+002,1.648230e-002
9.063938e+002,1.634291e-002
9.083223e+002,1.639280e-002
9.102509e+002,1.635736e-002
9.121793e+002,1.606738e-002
9.141078e+002,1.577900e-002
9.160364e+002,1.562963e-002
9.179648e+002,1.508202e-002
9.198933e+002,1.466062e-002
9.218218e+002,1.456412e-002
9.237504e+002,1.467751e-002
9.256788e+002,1.423829e-002
9.276073e+002,1.401829e-002
9.295358e+002,1.444781e-002
9.314644e+002,1.442229e-002
9.333928e+002,1.419456e-002
9.353213e+002,1.405744e-002
9.372498e+002,1.382146e-002
9.391783e+002,1.350589e-002
9.411068e+002,1.345780e-002
9.430353e+002,1.387147e-002
9.449637e+002,1.390219e-002
9.468923e+002,1.361737e-002
9.488208e+002,1.361259e-002
9.507493e+002,1.399228e-002
9.526777e+002,1.424743e-002
9.546063e+002,1.426040e-002
9.565348e+002,1.437512e-002
9.584633e+002,1.452016e-002
9.603917e+002,1.448367e-002
9.623203e+002,1.444431e-002
9.642488e+002,1.443174e-002
9.661772e+002,1.455236e-002
9.681057e+002,1.465589e-002
9.700343e+002,1.448066e-002
9.719628e+002,1.416108e-002
9.738912e+002,1.399899e-002
9.758197e+002,1.377166e-002
9.777483e+002,1.369680e-002
9.796768e+002,1.363467e-002
9.816052e+002,1.347619e-002
9.835337e+002,1.320859e-002
9.854623e+002,1.289934e-002
9.873907e+002,1.275300e-002
9.893192e+002,1.262285e-002
9.912477e+002,1.245509e-002
9.931763e+002,1.225102e-002
9.951047e+002,1.210763e-002
9.970332e+002,1.202205e-002
9.989617e+002,1.186028e-002
1.000890e+003,1.197971e-002
1.002819e+003,1.210313e-002
1.004747e+003,1.211632e-002
1.006676e+003,1.203939e-002
1.008604e+003,1.218341e-002
1.010533e+003,1.204375e-002
1.012461e+003,1.197678e-002
1.014390e+003,1.201408e-002
1.016318e+003,1.219241e-002
1.018247e+003,1.265556e-002
1.020175e+003,1.286480e-002
1.022104e+003,1.269479e-002
1.024032e+003,1.303395e-002
1.025961e+003,1.344537e-002
1.027889e+003,1.345271e-002
1.029818e+003,1.360701e-002
1.031746e+003,1.401388e-002
1.033675e+003,1.419005e-002
1.035603e+003,1.442547e-002
1.037532e+003,1.463656e-002
1.039460e+003,1.484720e-002
1.041389e+003,1.501966e-002
1.043317e+003,1.515849e-002
1.045246e+003,1.531453e-002
1.047174e+003,1.552437e-002
1.049103e+003,1.554129e-002
1.051031e+003,1.535929e-002
1.052960e+003,1.547973e-002
1.054888e+003,1.563677e-002
1.056817e+003,1.549504e-002
1.058745e+003,1.544828e-002
1.060674e+003,1.530739e-002
1.062602e+003,1.531683e-002
1.064531e+003,1.552255e-002
1.066459e+003,1.552210e-002
1.068388e+003,1.536011e-002
1.070316e+003,1.532215e-002
1.072245e+003,1.539606e-002
1.074173e+003,1.542256e-002
1.076102e+003,1.526185e-002
1.078030e+003,1.509087e-002
1.079959e+003,1.523758e-002
1.081887e+003,1.539612e-002
1.083816e+003,1.546730e-002
1.085744e+003,1.568840e-002
1.087673e+003,1.599930e-002
1.089601e+003,1.611796e-002
1.091530e+003,1.629839e-002
1.093458e+003,1.655448e-002
1.095387e+003,1.661131e-002
1.097315e+003,1.673399e-002
1.099244e+003,1.679904e-002
1.101172e+003,1.703306e-002
1.103101e+003,1.730362e-002
1.105029e+003,1.720439e-002
1.106958e+003,1.722508e-002
1.108886e+003,1.742449e-002
1.110815e+003,1.757227e-002
1.112743e+003,1.761012e-002
1.114672e+003,1.748903e-002
1.116600e+003,1.762054e-002
1.118529e+003,1.773795e-002
1.120457e+003,1.769677e-002
1.122386e+003,1.779687e-002
1.124314e+003,1.781717e-002
1.126243e+003,1.748037e-002
1.128171e+003,1.732155e-002
1.130100e+003,1.734634e-002
1.132028e+003,1.720101e-002
1.133957e+003,1.705146e-002
1.135885e+003,1.695140e-002
1.137814e+003,1.661747e-002
1.139742e+003,1.624053e-002
1.141671e+003,1.593953e-002
1.143599e+003,1.574818e-002
1.145528e+003,1.544041e-002
1.147456e+003,1.501019e-002
1.149385e+003,1.458916e-002
1.151313e+003,1.437160e-002
1.153242e+003,1.436601e-002
1.155170e+003,1.405275e-002
1.157099e+003,1.373507e-002
1.159027e+003,1.358349e-002
1.160956e+003,1.350829e-002
1.162884e+003,1.348146e-002
1.164813e+003,1.357696e-002
1.166741e+003,1.353895e-002
1.168670e+003,1.341034e-002
1.170598e+003,1.350060e-002
1.172526e+003,1.343265e-002
1.174455e+003,1.349868e-002
1.176384e+003,1.358158e-002
1.178312e+003,1.362547e-002
1.180240e+003,1.356154e-002
1.182169e+003,1.338160e-002
1.184098e+003,1.330417e-002
1.186026e+003,1.334094e-002
1.187954e+003,1.325655e-002
1.189883e+003,1.295180e-002
1.191812e+003,1.258212e-002
1.193740e+003,1.255685e-002
1.195668e+003,1.250958e-002
1.197597e+003,1.232062e-002
1.199526e+003,1.231875e-002
1.201454e+003,1.229145e-002
1.203382e+003,1.220059e-002
1.205311e+003,1.222802e-002
1.207240e+003,1.212831e-002
1.209168e+003,1.213809e-002
1.211096e+003,1.212027e-002
1.213025e+003,1.216031e-002
1.214953e+003,1.219414e-002
1.216882e+003,1.209700e-002
1.218810e+003,1.195781e-002
1.220739e+003,1.187318e-002
1.222667e+003,1.207881e-002
1.224596e+003,1.234701e-002
1.226524e+003,1.244285e-002
1.228453e+003,1.256340e-002
1.230381e+003,1.272942e-002
1.232310e+003,1.284510e-002
1.234238e+003,1.281251e-002
1.236167e+003,1.293678e-002
1.238095e+003,1.306375e-002
1.240024e+003,1.311276e-002
1.241952e+003,1.330407e-002
1.243881e+003,1.334545e-002
1.245809e+003,1.335672e-002
1.247738e+003,1.331709e-002
1.249666e+003,1.325426e-002
1.251595e+003,1.338553e-002
1.253523e+003,1.358551e-002
1.255452e+003,1.368199e-002
1.257380e+003,1.361259e-002
1.259309e+003,1.364168e-002
1.261237e+003,1.379995e-002
1.263166e+003,1.384233e-002
1.265094e+003,1.389576e-002
1.267023e+003,1.423859e-002
1.268951e+003,1.459578e-002
1.270880e+003,1.487051e-002
1.272808e+003,1.505300e-002
1.274737e+003,1.523436e-002
1.276665e+003,1.553216e-002
1.278594e+003,1.579127e-002
1.280522e+003,1.594833e-002
1.282451e+003,1.605125e-002
1.284379e+003,1.617511e-002
1.286308e+003,1.661014e-002
1.288236e+003,1.683531e-002
1.290165e+003,1.686648e-002
1.292093e+003,1.708024e-002
1.294022e+003,1.727314e-002
1.295950e+003,1.750686e-002
1.297879e+003,1.757548e-002
1.299807e+003,1.742694e-002
1.301736e+003,1.730069e-002
1.303664e+003,1.727972e-002
1.305593e+003,1.724149e-002
1.307521e+003,1.713338e-002
1.309450e+003,1.692380e-002
1.311378e+003,1.664543e-002
1.313307e+003,1.654718e-002
1.315235e+003,1.640969e-002
1.317164e+003,1.613515e-002
1.319092e+003,1.579336e-002
1.321021e+003,1.544680e-002
1.322949e+003,1.519160e-002
1.324878e+003,1.499983e-002
1.326806e+003,1.496265e-002
1.328735e+003,1.508185e-002
1.330663e+003,1.497949e-002
1.332592e+003,1.489493e-002
1.334520e+003,1.490209e-002
1.336449e+003,1.473194e-002
1.338377e+003,1.458043e-002
1.340306e+003,1.453979e-002
1.342234e+003,1.464194e-002
1.344163e+003,1.464022e-002
1.346091e+003,1.436725e-002
1.348020e+003,1.434800e-002
1.349948e+003,1.442616e-002
1.351877e+003,1.439701e-002
1.353805e+003,1.444154e-002
1.355734e+003,1.432379e-002
1.357662e+003,1.415184e-002
1.359591e+003,1.419296e-002
1.361519e+003,1.426448e-002
1.363448e+003,1.422945e-002
1.365376e+003,1.406131e-002
1.367305e+003,1.397706e-002
1.369233e+003,1.400505e-002
1.371162e+003,1.383641e-002
1.373090e+003,1.371872e-002
1.375019e+003,1.375405e-002
1.376947e+003,1.375959e-002
1.378876e+003,1.381062e-002
1.380804e+003,1.392495e-002
1.382733e+003,1.392683e-002
1.384661e+003,1.385208e-002
1.386590e+003,1.378367e-002
1.388518e+003,1.359734e-002
1.390447e+003,1.346279e-002
1.392375e+003,1.336239e-002
1.394304e+003,1.338201e-002
1.396232e+003,1.327172e-002
1.398161e+003,1.316897e-002
1.400089e+003,1.314411e-002
1.402018e+003,1.305768e-002
1.403946e+003,1.298570e-002
1.405875e+003,1.286500e-002
1.407803e+003,1.274850e-002
1.409732e+003,1.267003e-002
1.411660e+003,1.265512e-002
1.413589e+003,1.261469e-002
1.415517e+003,1.274355e-002
1.417446e+003,1.310596e-002
1.419374e+003,1.345316e-002
1.421303e+003,1.366921e-002
1.423231e+003,1.402401e-002
1.425160e+003,1.453962e-002
1.427088e+003,1.500185e-002
1.429017e+003,1.539506e-002
1.430945e+003,1.564983e-002
1.432874e+003,1.590973e-002
1.434802e+003,1.646964e-002
1.436731e+003,1.695657e-002
1.438659e+003,1.718871e-002
1.440588e+003,1.753994e-002
1.442516e+003,1.799558e-002
1.444445e+003,1.836637e-002
1.446373e+003,1.872168e-002
1.448302e+003,1.908357e-002
1.450230e+003,1.944082e-002
1.452159e+003,1.980148e-002
1.454087e+003,2.029834e-002
1.456016e+003,2.071236e-002
1.457944e+003,2.077645e-002
1.459873e+003,2.074718e-002
1.461801e+003,2.065387e-002
1.463730e+003,2.061840e-002
1.465658e+003,2.054926e-002
1.467587e+003,2.016472e-002
1.469515e+003,1.977900e-002
1.471444e+003,1.966278e-002
1.473372e+003,1.942162e-002
1.475301e+003,1.900111e-002
1.477229e+003,1.846981e-002
1.479158e+003,1.788066e-002
1.481086e+003,1.726014e-002
1.483015e+003,1.673058e-002
1.484943e+003,1.639400e-002
1.486872e+003,1.615885e-002
1.488800e+003,1.585384e-002
1.490729e+003,1.537700e-002
1.492657e+003,1.492335e-002
1.494586e+003,1.474671e-002
1.496514e+003,1.460273e-002
1.498443e+003,1.424934e-002
1.500371e+003,1.388458e-002
1.502300e+003,1.365180e-002
1.504228e+003,1.374998e-002
1.506157e+003,1.378541e-002
1.508085e+003,1.349031e-002
1.510014e+003,1.318998e-002
1.511942e+003,1.305112e-002
1.513871e+003,1.299960e-002
1.515799e+003,1.292166e-002
1.517728e+003,1.295208e-002
1.519656e+003,1.300240e-002
1.521585e+003,1.309527e-002
1.523513e+003,1.310528e-002
1.525442e+003,1.317768e-002
1.527370e+003,1.314004e-002
1.529299e+003,1.307017e-002
1.531227e+003,1.308783e-002
1.533156e+003,1.332819e-002
1.535084e+003,1.344902e-002
1.537013e+003,1.365803e-002
1.538941e+003,1.406812e-002
1.540870e+003,1.422052e-002
1.542798e+003,1.410899e-002
1.544727e+003,1.413959e-002
1.546655e+003,1.416023e-002
1.548584e+003,1.417721e-002
1.550512e+003,1.425143e-002
1.552441e+003,1.428694e-002
1.554369e+003,1.445654e-002
1.556298e+003,1.474754e-002
1.558226e+003,1.504360e-002
1.560155e+003,1.510984e-002
1.562083e+003,1.514600e-002
1.564012e+003,1.539643e-002
1.565940e+003,1.565275e-002
1.567869e+003,1.584567e-002
1.569797e+003,1.601261e-002
1.571726e+003,1.606170e-002
1.573654e+003,1.618316e-002
1.575583e+003,1.639142e-002
1.577511e+003,1.639224e-002
1.579440e+003,1.623203e-002
1.581368e+003,1.620758e-002
1.583297e+003,1.617549e-002
1.585225e+003,1.613061e-002
1.587154e+003,1.606284e-002
1.589082e+003,1.595283e-002
1.591010e+003,1.574052e-002
1.592939e+003,1.546105e-002
1.594868e+003,1.524157e-002
1.596796e+003,1.505132e-002
1.598724e+003,1.482028e-002
1.600653e+003,1.445151e-002
1.602582e+003,1.419094e-002
1.604510e+003,1.406227e-002
1.606438e+003,1.391393e-002
1.608367e+003,1.369878e-002
1.610296e+003,1.358452e-002
1.612224e+003,1.336639e-002
1.614152e+003,1.315712e-002
1.616081e+003,1.300250e-002
1.618010e+003,1.277893e-002
1.619938e+003,1.262701e-002
1.621866e+003,1.266996e-002
1.623795e+003,1.255013e-002
1.625724e+003,1.244397e-002
1.627652e+003,1.242379e-002
1.629580e+003,1.220294e-002
1.631509e+003,1.200356e-002
1.633438e+003,1.204314e-002
1.635366e+003,1.213996e-002
1.637294e+003,1.178319e-002
1.639223e+003,1.137005e-002
1.641151e+003,1.105748e-002
1.643080e+003,1.068978e-002
1.645008e+003,1.050219e-002
1.646937e+003,1.045256e-002
1.648865e+003,1.019072e-002
1.650794e+003,1.016033e-002
1.652722e+003,1.038750e-002
1.654651e+003,9.932997e-003
1.656579e+003,9.471009e-003
1.658508e+003,9.244412e-003
1.660436e+003,9.252231e-003
1.662365e+003,9.328665e-003
1.664293e+003,9.180784e-003
1.666222e+003,9.178652e-003
1.668150e+003,9.308794e-003
1.670079e+003,9.176724e-003
1.672007e+003,9.056738e-003
1.673936e+003,9.046555e-003
1.675864e+003,9.016614e-003
1.677793e+003,8.865627e-003
1.679721e+003,8.870261e-003
1.681650e+003,8.902456e-003
1.683578e+003,9.015870e-003
1.685507e+003,8.832995e-003
1.687435e+003,8.546036e-003
1.689364e+003,8.481734e-003
1.691292e+003,8.430818e-003
1.693221e+003,8.512616e-003
1.695149e+003,8.786739e-003
1.697078e+003,8.953393e-003
1.699006e+003,9.057989e-003
1.700935e+003,9.080996e-003
1.702863e+003,8.977307e-003
1.704792e+003,9.024699e-003
1.706720e+003,9.055486e-003
1.708649e+003,9.002914e-003
1.710577e+003,8.949299e-003
1.712506e+003,9.037352e-003
1.714434e+003,9.169414e-003
1.716363e+003,9.240316e-003
1.718291e+003,9.282627e-003
1.720220e+003,9.194524e-003
1.722148e+003,9.127554e-003
1.724077e+003,9.111448e-003
1.726005e+003,9.164643e-003
1.727934e+003,9.223867e-003
1.729862e+003,9.234088e-003
1.731791e+003,9.350060e-003
1.733719e+003,9.486958e-003
1.735648e+003,9.261370e-003
1.737576e+003,9.184608e-003
1.739505e+003,9.350569e-003
1.741433e+003,9.328394e-003
1.743362e+003,9.206404e-003
1.745290e+003,9.297961e-003
1.747219e+003,9.490515e-003
1.749147e+003,9.570717e-003
1.751076e+003,9.519369e-003
1.753004e+003,9.431321e-003
1.754933e+003,9.562012e-003
1.756861e+003,9.682646e-003
1.758790e+003,9.608419e-003
1.760718e+003,9.587518e-003
1.762647e+003,9.520792e-003
1.764575e+003,9.486519e-003
1.766504e+003,9.583351e-003
1.768432e+003,9.653103e-003
1.770361e+003,9.746855e-003
1.772289e+003,9.753395e-003
1.774218e+003,9.515001e-003
1.776146e+003,9.460849e-003
1.778075e+003,9.529158e-003
1.780003e+003,9.524044e-003
1.781932e+003,9.454043e-003
1.783860e+003,9.478154e-003
1.785789e+003,9.521842e-003
1.787717e+003,9.580642e-003
1.789646e+003,9.665265e-003
1.791574e+003,9.661403e-003
1.793503e+003,9.522316e-003
1.795431e+003,9.422178e-003
1.797360e+003,9.501792e-003
1.799288e+003,9.684814e-003
1.801217e+003,9.692132e-003
1.803145e+003,9.643481e-003
1.805074e+003,9.621461e-003
1.807002e+003,9.625729e-003
1.808931e+003,9.656659e-003
1.810859e+003,9.733538e-003
1.812788e+003,9.791248e-003
1.814716e+003,9.714630e-003
1.816645e+003,9.647513e-003
1.818573e+003,9.638094e-003
1.820502e+003,9.650731e-003
1.822430e+003,9.643380e-003
1.824359e+003,9.761833e-003
1.826287e+003,9.803889e-003
1.828216e+003,9.750955e-003
1.830144e+003,9.772948e-003
1.832073e+003,9.790875e-003
1.834001e+003,9.779454e-003
1.835930e+003,9.642973e-003
1.837858e+003,9.549344e-003
1.839787e+003,9.563773e-003
1.841715e+003,9.694809e-003
1.843644e+003,9.771050e-003
1.845572e+003,9.625763e-003
1.847501e+003,9.577559e-003
1.849429e+003,9.661775e-003
1.851358e+003,9.732014e-003
1.853286e+003,9.741637e-003
1.855215e+003,9.699756e-003
1.857143e+003,9.708362e-003
1.859072e+003,9.633690e-003
1.861000e+003,9.588466e-003
1.862929e+003,9.674718e-003
1.864857e+003,9.812430e-003
1.866786e+003,9.843374e-003
1.868714e+003,9.787757e-003
1.870643e+003,9.686949e-003
1.872571e+003,9.681223e-003
1.874500e+003,9.762138e-003
1.876428e+003,9.773592e-003
1.878357e+003,9.825749e-003
1.880285e+003,9.882726e-003
1.882214e+003,9.846763e-003
1.884142e+003,9.711581e-003
1.886071e+003,9.735910e-003
1.887999e+003,9.843814e-003
1.889928e+003,9.844356e-003
1.891856e+003,9.799856e-003
1.893785e+003,9.863506e-003
1.895713e+003,9.881777e-003
1.897642e+003,9.877980e-003
1.899570e+003,9.826698e-003
1.901499e+003,9.907539e-003
1.903427e+003,1.000348e-002
1.905356e+003,9.915335e-003
1.907284e+003,9.839746e-003
1.909213e+003,9.920081e-003
1.911141e+003,9.977952e-003
1.913070e+003,9.925200e-003
1.914998e+003,9.846695e-003
1.916927e+003,9.917132e-003
1.918855e+003,9.942930e-003
1.920784e+003,9.888928e-003
1.922712e+003,9.855744e-003
1.924641e+003,9.896081e-003
1.926569e+003,9.963271e-003
1.928498e+003,9.874862e-003
1.930426e+003,9.773897e-003
1.932355e+003,9.801415e-003
1.934283e+003,9.881980e-003
1.936212e+003,9.883336e-003
1.938140e+003,9.821106e-003
1.940069e+003,9.823817e-003
1.941997e+003,9.749532e-003
1.943926e+003,9.730455e-003
1.945854e+003,9.790909e-003
1.947783e+003,9.736316e-003
1.949711e+003,9.742111e-003
1.951640e+003,9.754106e-003
1.953568e+003,9.729540e-003
1.955497e+003,9.728692e-003
1.957425e+003,9.701856e-003
1.959354e+003,9.716223e-003
1.961282e+003,9.796061e-003
1.963211e+003,9.809074e-003
1.965139e+003,9.825206e-003
1.967068e+003,9.826867e-003
1.968996e+003,9.754818e-003
1.970925e+003,9.726693e-003
1.972853e+003,9.688744e-003
1.974782e+003,9.701179e-003
1.976710e+003,9.632877e-003
1.978639e+003,9.606013e-003
1.980567e+003,9.739095e-003
1.982496e+003,9.787147e-003
1.984424e+003,9.720357e-003
1.986353e+003,9.743772e-003
1.988281e+003,9.778167e-003
1.990210e+003,9.799212e-003
1.992138e+003,9.779557e-003
1.994067e+003,9.770880e-003
1.995995e+003,9.777388e-003
1.997924e+003,9.791858e-003
1.999852e+003,9.813718e-003
2.001781e+003,9.758512e-003
2.003709e+003,9.708599e-003
2.005638e+003,9.722254e-003
2.007566e+003,9.712496e-003
2.009495e+003,9.655711e-003
2.011423e+003,9.644396e-003
2.013352e+003,9.758919e-003
2.015280e+003,9.776100e-003
2.017208e+003,9.714088e-003
2.019137e+003,9.667941e-003
2.021066e+003,9.724287e-003
2.022994e+003,9.769695e-003
2.024922e+003,9.760037e-003
2.026851e+003,9.785318e-003
2.028780e+003,9.817140e-003
2.030708e+003,9.854762e-003
2.032636e+003,9.902115e-003
2.034565e+003,9.837815e-003
2.036494e+003,9.755428e-003
2.038422e+003,9.806024e-003
2.040350e+003,9.865642e-003
2.042279e+003,9.917844e-003
2.044208e+003,9.859540e-003
2.046136e+003,9.761562e-003
2.048064e+003,9.845610e-003
2.049993e+003,9.942964e-003
2.051921e+003,9.887403e-003
2.053850e+003,9.792163e-003
2.055778e+003,9.768508e-003
2.057707e+003,9.808600e-003
2.059635e+003,9.887640e-003
2.061564e+003,9.869540e-003
2.063492e+003,9.808565e-003
2.065421e+003,9.773592e-003
2.067349e+003,9.808837e-003
2.069278e+003,9.861981e-003
2.071206e+003,9.909640e-003
2.073135e+003,9.982766e-003
2.075063e+003,9.973714e-003
2.076992e+003,9.894115e-003
2.078920e+003,9.919709e-003
2.080849e+003,9.953711e-003
2.082777e+003,1.003057e-002
2.084706e+003,1.004882e-002
2.086634e+003,9.992938e-003
2.088563e+003,1.001098e-002
2.090491e+003,1.006435e-002
2.092420e+003,1.012773e-002
2.094348e+003,1.009426e-002
2.096277e+003,1.006316e-002
2.098205e+003,1.007907e-002
2.100134e+003,1.007082e-002
2.102062e+003,1.017664e-002
2.103991e+003,1.024120e-002
2.105919e+003,1.027044e-002
2.107848e+003,1.020910e-002
2.109776e+003,1.012936e-002
2.111705e+003,1.012919e-002
2.113633e+003,1.019302e-002
2.115562e+003,1.017589e-002
2.117490e+003,1.018868e-002
2.119419e+003,1.026433e-002
2.121347e+003,1.027400e-002
2.123276e+003,1.023814e-002
2.125204e+003,1.020612e-002
2.127133e+003,1.020551e-002
2.129061e+003,1.025677e-002
2.130990e+003,1.030332e-002
2.132918e+003,1.037943e-002
2.134847e+003,1.041540e-002
2.136775e+003,1.031977e-002
2.138704e+003,1.026864e-002
2.140632e+003,1.033239e-002
2.142561e+003,1.030311e-002
2.144489e+003,1.021385e-002
2.146418e+003,1.027746e-002
2.148346e+003,1.038839e-002
2.150275e+003,1.042823e-002
2.152203e+003,1.040206e-002
2.154132e+003,1.040505e-002
2.156060e+003,1.040627e-002
2.157989e+003,1.030047e-002
2.159917e+003,1.028418e-002
2.161846e+003,1.035286e-002
2.163774e+003,1.036063e-002
2.165703e+003,1.037501e-002
2.167631e+003,1.044856e-002
2.169560e+003,1.053576e-002
2.171488e+003,1.057226e-002
2.173417e+003,1.053512e-002
2.175345e+003,1.049964e-002
2.177274e+003,1.047826e-002
2.179202e+003,1.049957e-002
2.181131e+003,1.049686e-002
2.183059e+003,1.045412e-002
2.184988e+003,1.042914e-002
2.186916e+003,1.044880e-002
2.188845e+003,1.047011e-002
2.190773e+003,1.051858e-002
2.192702e+003,1.056523e-002
2.194630e+003,1.053420e-002
2.196559e+003,1.047636e-002
2.198487e+003,1.042969e-002
2.200416e+003,1.040254e-002
2.202344e+003,1.042422e-002
2.204273e+003,1.046431e-002
2.206201e+003,1.044876e-002
2.208130e+003,1.043009e-002
2.210058e+003,1.039334e-002
2.211987e+003,1.033205e-002
2.213915e+003,1.034546e-002
2.215844e+003,1.033565e-002
2.217772e+003,1.034994e-002
2.219701e+003,1.043152e-002
2.221629e+003,1.037115e-002
2.223558e+003,1.033256e-002
2.225486e+003,1.040233e-002
2.227415e+003,1.044011e-002
2.229343e+003,1.040481e-002
2.231272e+003,1.043807e-002
2.233200e+003,1.046865e-002
2.235129e+003,1.049000e-002
2.237057e+003,1.045314e-002
2.238986e+003,1.033623e-002
2.240914e+003,1.027356e-002
2.242843e+003,1.033328e-002
2.244771e+003,1.041506e-002
2.246700e+003,1.038055e-002
2.248628e+003,1.038516e-002
2.250557e+003,1.041940e-002
2.252485e+003,1.041520e-002
2.254414e+003,1.036823e-002
2.256342e+003,1.039035e-002
2.258271e+003,1.041350e-002
2.260199e+003,1.036616e-002
2.262128e+003,1.032109e-002
2.264056e+003,1.040077e-002
2.265985e+003,1.044472e-002
2.267913e+003,1.036008e-002
2.269842e+003,1.028995e-002
2.271770e+003,1.031261e-002
2.273699e+003,1.032435e-002
2.275627e+003,1.033491e-002
2.277556e+003,1.031159e-002
2.279484e+003,1.025398e-002
2.281413e+003,1.030457e-002
2.283341e+003,1.028204e-002
2.285270e+003,1.020788e-002
2.287198e+003,1.023380e-002
2.289127e+003,1.023947e-002
2.291055e+003,1.028533e-002
2.292984e+003,1.026735e-002
2.294912e+003,1.022803e-002
2.296841e+003,1.024191e-002
2.298769e+003,1.025493e-002
2.300698e+003,1.026158e-002
2.302626e+003,1.028995e-002
2.304555e+003,1.027485e-002
2.306483e+003,1.025680e-002
2.308412e+003,1.033043e-002
2.310340e+003,1.038777e-002
2.312269e+003,1.043909e-002
2.314197e+003,1.044958e-002
2.316125e+003,1.048192e-002
2.318054e+003,1.050640e-002
2.319983e+003,1.046298e-002
2.321911e+003,1.039914e-002
2.323840e+003,1.039134e-002
2.325768e+003,1.039266e-002
2.327697e+003,1.039344e-002
2.329625e+003,1.048311e-002
2.331553e+003,1.046638e-002
2.333482e+003,1.040525e-002
2.335411e+003,1.043217e-002
2.337339e+003,1.051590e-002
2.339268e+003,1.053746e-002
2.341196e+003,1.050630e-002
2.343125e+003,1.040522e-002
2.345053e+003,1.035106e-002
2.346981e+003,1.037284e-002
2.348910e+003,1.036572e-002
2.350839e+003,1.047174e-002
2.352767e+003,1.053688e-002
2.354696e+003,1.050473e-002
2.356624e+003,1.061507e-002
2.358552e+003,1.069765e-002
2.360481e+003,1.067171e-002
2.362409e+003,1.057956e-002
2.364338e+003,1.060404e-002
2.366267e+003,1.073399e-002
2.368195e+003,1.057698e-002
2.370124e+003,1.047564e-002
2.372052e+003,1.050266e-002
2.373980e+003,1.049017e-002
2.375909e+003,1.039015e-002
2.377838e+003,1.045002e-002
2.379766e+003,1.060801e-002
2.381695e+003,1.053973e-002
2.383623e+003,1.050002e-002
2.385552e+003,1.060960e-002
2.387480e+003,1.069110e-002
2.389408e+003,1.071504e-002
2.391337e+003,1.065534e-002
2.393266e+003,1.060020e-002
2.395194e+003,1.071694e-002
2.397123e+003,1.078433e-002
2.399051e+003,1.063850e-002
2.400979e+003,1.051190e-002
2.402908e+003,1.060499e-002
2.404836e+003,1.068838e-002
2.406765e+003,1.060485e-002
2.408694e+003,1.058923e-002
2.410622e+003,1.059466e-002
2.412551e+003,1.059327e-002
2.414479e+003,1.055749e-002
2.416407e+003,1.057487e-002
2.418336e+003,1.057888e-002
2.420264e+003,1.063028e-002
2.422193e+003,1.067402e-002
2.424122e+003,1.072445e-002
2.426050e+003,1.071572e-002
2.427979e+003,1.071226e-002
2.429907e+003,1.075790e-002
2.431835e+003,1.087242e-002
2.433764e+003,1.089878e-002
2.435692e+003,1.087731e-002
2.437621e+003,1.092481e-002
2.439550e+003,1.102794e-002
2.441478e+003,1.099637e-002
2.443406e+003,1.098747e-002
2.445335e+003,1.104990e-002
2.447263e+003,1.095281e-002
2.449192e+003,1.091998e-002
2.451121e+003,1.104480e-002
2.453049e+003,1.105935e-002
2.454978e+003,1.107916e-002
2.456906e+003,1.109551e-002
2.458834e+003,1.101662e-002
2.460763e+003,1.107617e-002
2.462691e+003,1.123728e-002
2.464620e+003,1.132083e-002
2.466549e+003,1.134552e-002
2.468477e+003,1.117900e-002
2.470406e+003,1.112916e-002
2.472334e+003,1.111897e-002
2.474262e+003,1.111740e-002
2.476191e+003,1.122837e-002
2.478119e+003,1.123402e-002
2.480048e+003,1.122528e-002
2.481977e+003,1.125666e-002
2.483905e+003,1.121480e-002
2.485833e+003,1.123915e-002
2.487762e+003,1.135930e-002
2.489690e+003,1.141532e-002
2.491619e+003,1.132314e-002
2.493547e+003,1.136661e-002
2.495476e+003,1.136440e-002
2.497405e+003,1.133937e-002
2.499333e+003,1.137141e-002
2.501261e+003,1.153402e-002
2.503190e+003,1.155777e-002
2.505118e+003,1.140447e-002
2.507047e+003,1.134386e-002
2.508975e+003,1.141644e-002
2.510904e+003,1.156580e-002
2.512833e+003,1.166453e-002
2.514761e+003,1.163386e-002
2.516689e+003,1.160231e-002
2.518618e+003,1.157060e-002
2.520546e+003,1.156583e-002
2.522475e+003,1.159649e-002
2.524403e+003,1.158833e-002
2.526332e+003,1.159847e-002
2.528260e+003,1.163512e-002
2.530189e+003,1.166388e-002
2.532117e+003,1.178701e-002
2.534046e+003,1.182480e-002
2.535974e+003,1.181870e-002
2.537903e+003,1.171671e-002
2.539831e+003,1.160425e-002
2.541760e+003,1.169019e-002
2.543688e+003,1.169407e-002
2.545617e+003,1.162968e-002
2.547545e+003,1.171324e-002
2.549474e+003,1.181275e-002
2.551402e+003,1.184768e-002
2.553331e+003,1.180709e-002
2.555259e+003,1.174462e-002
2.557188e+003,1.170231e-002
2.559116e+003,1.165575e-002
2.561045e+003,1.174299e-002
2.562973e+003,1.187499e-002
2.564902e+003,1.184448e-002
2.566830e+003,1.177390e-002
2.568759e+003,1.178551e-002
2.570687e+003,1.185027e-002
2.572616e+003,1.187356e-002
2.574544e+003,1.188034e-002
2.576473e+003,1.181121e-002
2.578401e+003,1.172634e-002
2.580330e+003,1.177700e-002
2.582258e+003,1.190114e-002
2.584187e+003,1.193765e-002
2.586115e+003,1.194034e-002
2.588044e+003,1.191139e-002
2.589972e+003,1.199381e-002
2.591901e+003,1.205397e-002
2.593829e+003,1.199276e-002
2.595758e+003,1.198993e-002
2.597686e+003,1.204913e-002
2.599615e+003,1.211847e-002
2.601543e+003,1.208228e-002
2.603472e+003,1.196146e-002
2.605400e+003,1.194940e-002
2.607329e+003,1.199245e-002
2.609257e+003,1.207564e-002
2.611186e+003,1.203857e-002
2.613114e+003,1.199559e-002
2.615043e+003,1.203271e-002
2.616971e+003,1.213400e-002
2.618900e+003,1.220168e-002
2.620828e+003,1.222737e-002
2.622757e+003,1.229417e-002
2.624685e+003,1.234534e-002
2.626614e+003,1.233140e-002
2.628542e+003,1.225031e-002
2.630471e+003,1.217384e-002
2.632399e+003,1.221139e-002
2.634328e+003,1.222117e-002
2.636256e+003,1.223242e-002
2.638185e+003,1.226670e-002
2.640113e+003,1.234953e-002
2.642042e+003,1.239862e-002
2.643970e+003,1.243756e-002
2.645899e+003,1.255385e-002
2.647827e+003,1.259338e-002
2.649756e+003,1.253591e-002
2.651684e+003,1.253314e-002
2.653613e+003,1.258151e-002
2.655541e+003,1.270387e-002
2.657470e+003,1.274468e-002
2.659398e+003,1.271120e-002
2.661327e+003,1.280002e-002
2.663255e+003,1.284865e-002
2.665184e+003,1.281784e-002
2.667112e+003,1.273389e-002
2.669041e+003,1.273355e-002
2.670969e+003,1.278334e-002
2.672898e+003,1.289449e-002
2.674826e+003,1.305986e-002
2.676755e+003,1.307072e-002
2.678683e+003,1.293716e-002
2.680612e+003,1.289582e-002
2.682540e+003,1.306731e-002
2.684469e+003,1.316945e-002
2.686397e+003,1.319906e-002
2.688326e+003,1.322748e-002
2.690254e+003,1.323472e-002
2.692183e+003,1.323008e-002
2.694111e+003,1.331131e-002
2.696040e+003,1.341656e-002
2.697968e+003,1.348552e-002
2.699897e+003,1.347301e-002
2.701825e+003,1.348040e-002
2.703754e+003,1.358705e-002
2.705682e+003,1.364240e-002
2.707611e+003,1.366774e-002
2.709539e+003,1.376660e-002
2.711468e+003,1.380200e-002
2.713396e+003,1.379995e-002
2.715325e+003,1.382081e-002
2.717253e+003,1.380894e-002
2.719182e+003,1.376622e-002
2.721110e+003,1.385499e-002
2.723039e+003,1.400313e-002
2.724967e+003,1.412915e-002
2.726896e+003,1.428242e-002
2.728824e+003,1.437810e-002
2.730753e+003,1.439961e-002
2.732681e+003,1.448014e-002
2.734610e+003,1.455079e-002
2.736538e+003,1.458868e-002
2.738467e+003,1.466346e-002
2.740395e+003,1.481764e-002
2.742324e+003,1.483314e-002
2.744252e+003,1.484929e-002
2.746181e+003,1.488923e-002
2.748109e+003,1.501489e-002
2.750038e+003,1.517108e-002
2.751966e+003,1.525169e-002
2.753895e+003,1.530972e-002
2.755823e+003,1.539843e-002
2.757752e+003,1.543900e-002
2.759680e+003,1.561136e-002
2.761609e+003,1.587285e-002
2.763537e+003,1.613550e-002
2.765466e+003,1.637597e-002
2.767394e+003,1.665097e-002
2.769323e+003,1.688343e-002
2.771251e+003,1.721074e-002
2.773180e+003,1.762851e-002
2.775108e+003,1.806469e-002
2.777037e+003,1.853606e-002
2.778965e+003,1.899928e-002
2.780894e+003,1.958880e-002
2.782822e+003,2.021610e-002
2.784750e+003,2.079125e-002
2.786679e+003,2.143101e-002
2.788608e+003,2.206163e-002
2.790536e+003,2.272718e-002
2.792465e+003,2.353378e-002
2.794393e+003,2.429749e-002
2.796322e+003,2.486692e-002
2.798250e+003,2.553946e-002
2.800178e+003,2.622817e-002
2.802107e+003,2.682749e-002
2.804036e+003,2.737985e-002
2.805964e+003,2.790186e-002
2.807893e+003,2.812257e-002
2.809821e+003,2.815074e-002
2.811750e+003,2.831655e-002
2.813678e+003,2.841972e-002
2.815606e+003,2.820968e-002
2.817535e+003,2.794765e-002
2.819464e+003,2.772901e-002
2.821392e+003,2.743710e-002
2.823321e+003,2.712506e-002
2.825249e+003,2.661233e-002
2.827177e+003,2.610535e-002
2.829106e+003,2.573362e-002
2.831034e+003,2.517874e-002
2.832963e+003,2.456963e-002
2.834892e+003,2.404103e-002
2.836820e+003,2.345519e-002
2.838749e+003,2.295303e-002
2.840677e+003,2.237825e-002
2.842605e+003,2.167377e-002
2.844534e+003,2.096773e-002
2.846462e+003,2.035285e-002
2.848391e+003,1.982107e-002
2.850320e+003,1.937402e-002
2.852248e+003,1.910078e-002
2.854177e+003,1.891275e-002
2.856105e+003,1.875274e-002
2.858033e+003,1.861383e-002
2.859962e+003,1.865931e-002
2.861890e+003,1.864842e-002
2.863819e+003,1.857645e-002
2.865748e+003,1.861725e-002
2.867676e+003,1.867076e-002
2.869604e+003,1.868076e-002
2.871533e+003,1.872569e-002
2.873461e+003,1.889517e-002
2.875390e+003,1.912339e-002
2.877319e+003,1.922347e-002
2.879247e+003,1.940468e-002
2.881176e+003,1.956634e-002
2.883104e+003,1.956794e-002
2.885032e+003,1.940918e-002
2.886961e+003,1.934755e-002
2.888889e+003,1.935856e-002
2.890818e+003,1.933705e-002
2.892747e+003,1.918856e-002
2.894675e+003,1.896003e-002
2.896604e+003,1.889070e-002
2.898532e+003,1.888714e-002
2.900460e+003,1.886440e-002
2.902389e+003,1.886108e-002
2.904317e+003,1.879149e-002
2.906246e+003,1.872496e-002
2.908175e+003,1.868117e-002
2.910103e+003,1.857848e-002
2.912031e+003,1.838231e-002
2.913960e+003,1.823346e-002
2.915888e+003,1.807295e-002
2.917817e+003,1.819154e-002
2.919745e+003,1.848253e-002
2.921674e+003,1.863631e-002
2.923603e+003,1.870615e-002
2.925531e+003,1.890247e-002
2.927459e+003,1.917000e-002
2.929388e+003,1.945073e-002
2.931316e+003,1.971430e-002
2.933245e+003,1.986064e-002
2.935173e+003,2.006221e-002
2.937102e+003,2.026699e-002
2.939031e+003,2.029851e-002
2.940959e+003,2.035869e-002
2.942887e+003,2.028851e-002
2.944816e+003,2.011461e-002
2.946744e+003,1.997363e-002
2.948673e+003,1.977346e-002
2.950601e+003,1.939331e-002
2.952530e+003,1.882845e-002
2.954458e+003,1.824804e-002
2.956387e+003,1.776128e-002
2.958315e+003,1.721815e-002
2.960244e+003,1.664167e-002
2.962172e+003,1.614777e-002
2.964101e+003,1.576392e-002
2.966029e+003,1.530876e-002
2.967958e+003,1.474418e-002
2.969886e+003,1.436303e-002
2.971815e+003,1.393778e-002
2.973743e+003,1.350596e-002
2.975672e+003,1.324757e-002
2.977600e+003,1.307287e-002
2.979529e+003,1.285043e-002
2.981457e+003,1.257612e-002
2.983386e+003,1.235001e-002
2.985314e+003,1.206889e-002
2.987243e+003,1.182153e-002
2.989171e+003,1.174758e-002
2.991100e+003,1.175289e-002
2.993028e+003,1.155260e-002
2.994957e+003,1.144083e-002
2.996885e+003,1.138372e-002
2.998814e+003,1.133641e-002
3.000742e+003,1.127734e-002
3.002671e+003,1.118091e-002
3.004599e+003,1.110051e-002
3.006528e+003,1.111859e-002
3.008456e+003,1.109942e-002
3.010385e+003,1.103117e-002
3.012313e+003,1.109177e-002
3.014242e+003,1.104816e-002
3.016170e+003,1.097126e-002
3.018099e+003,1.097839e-002
3.020027e+003,1.096918e-002
3.021956e+003,1.094275e-002
3.023884e+003,1.085043e-002
3.025813e+003,1.085913e-002
3.027741e+003,1.068682e-002
3.029670e+003,1.063717e-002
3.031598e+003,1.081870e-002
3.033527e+003,1.083678e-002
3.035455e+003,1.074381e-002
3.037384e+003,1.068166e-002
3.039312e+003,1.056974e-002
3.041241e+003,1.041061e-002
3.043169e+003,1.043301e-002
3.045098e+003,1.055104e-002
3.047026e+003,1.062950e-002
3.048955e+003,1.059079e-002
3.050883e+003,1.054914e-002
3.052812e+003,1.054068e-002
3.054740e+003,1.047235e-002
3.056669e+003,1.043162e-002
3.058597e+003,1.042660e-002
3.060526e+003,1.033155e-002
3.062454e+003,1.029395e-002
3.064383e+003,1.041496e-002
3.066311e+003,1.040230e-002
3.068240e+003,1.030925e-002
3.070168e+003,1.027346e-002
3.072097e+003,1.030837e-002
3.074025e+003,1.034878e-002
3.075954e+003,1.043963e-002
3.077882e+003,1.036785e-002
3.079811e+003,1.028608e-002
3.081739e+003,1.026773e-002
3.083668e+003,1.025131e-002
3.085596e+003,1.027967e-002
3.087525e+003,1.021083e-002
3.089453e+003,1.016124e-002
3.091382e+003,1.011369e-002
3.093310e+003,1.015297e-002
3.095239e+003,1.013384e-002
3.097167e+003,1.010375e-002
3.099096e+003,9.991886e-003
3.101024e+003,9.866896e-003
3.102953e+003,9.872354e-003
3.104881e+003,9.841814e-003
3.106810e+003,9.877438e-003
3.108738e+003,1.003349e-002
3.110667e+003,9.978731e-003
3.112595e+003,9.973781e-003
3.114524e+003,9.966560e-003
3.116452e+003,9.902759e-003
3.118381e+003,9.855880e-003
3.120309e+003,9.750481e-003
3.122238e+003,9.782165e-003
3.124166e+003,9.809549e-003
3.126095e+003,9.738485e-003
3.128023e+003,9.725168e-003
3.129952e+003,9.801313e-003
3.131880e+003,9.860083e-003
3.133809e+003,9.857744e-003
3.135737e+003,9.805786e-003
3.137666e+003,9.820055e-003
3.139594e+003,9.814667e-003
3.141523e+003,9.849203e-003
3.143451e+003,9.913166e-003
3.145380e+003,9.919980e-003
3.147308e+003,9.868557e-003
3.149237e+003,9.780335e-003
3.151165e+003,9.747025e-003
3.153094e+003,9.699281e-003
3.155022e+003,9.691082e-003
3.156951e+003,9.846457e-003
3.158879e+003,9.987614e-003
3.160808e+003,9.924285e-003
3.162736e+003,9.882319e-003
3.164665e+003,9.865744e-003
3.166593e+003,9.748787e-003
3.168522e+003,9.762308e-003
3.170450e+003,9.794129e-003
3.172379e+003,9.910522e-003
3.174307e+003,1.006208e-002
3.176236e+003,1.013913e-002
3.178164e+003,1.005957e-002
3.180093e+003,9.990666e-003
3.182021e+003,1.001196e-002
3.183950e+003,9.977681e-003
3.185878e+003,9.921030e-003
3.187807e+003,9.961950e-003
3.189735e+003,9.955305e-003
3.191664e+003,9.937777e-003
3.193592e+003,9.844017e-003
3.195521e+003,9.833138e-003
3.197449e+003,1.003763e-002
3.199378e+003,1.008524e-002
3.201306e+003,1.004634e-002
3.203235e+003,9.936896e-003
3.205163e+003,9.883844e-003
3.207092e+003,9.917268e-003
3.209020e+003,1.005122e-002
3.210948e+003,1.020534e-002
3.212877e+003,1.014917e-002
3.214806e+003,1.007622e-002
3.216734e+003,1.010006e-002
3.218663e+003,1.011064e-002
3.220591e+003,1.019021e-002
3.222520e+003,1.037274e-002
3.224448e+003,1.038743e-002
3.226376e+003,1.047405e-002
3.228305e+003,1.055871e-002
3.230234e+003,1.050945e-002
3.232162e+003,1.053552e-002
3.234091e+003,1.063497e-002
3.236019e+003,1.069514e-002
3.237948e+003,1.074377e-002
3.239876e+003,1.079955e-002
3.241804e+003,1.095647e-002
3.243733e+003,1.091223e-002
3.245662e+003,1.101642e-002
3.247590e+003,1.097003e-002
3.249519e+003,1.102852e-002
3.251447e+003,1.113586e-002
3.253375e+003,1.108362e-002
3.255304e+003,1.099538e-002
3.257232e+003,1.118485e-002
3.259161e+003,1.137981e-002
3.261090e+003,1.137688e-002
3.263018e+003,1.142457e-002
3.264947e+003,1.135158e-002
3.266875e+003,1.131036e-002
3.268803e+003,1.155113e-002
3.270732e+003,1.163597e-002
3.272660e+003,1.173414e-002
3.274589e+003,1.184145e-002
3.276518e+003,1.176106e-002
3.278446e+003,1.163815e-002
3.280375e+003,1.156311e-002
3.282303e+003,1.171051e-002
3.284231e+003,1.177720e-002
3.286160e+003,1.173012e-002
3.288088e+003,1.175201e-002
3.290017e+003,1.166517e-002
3.291946e+003,1.158734e-002
3.293874e+003,1.150772e-002
3.295802e+003,1.149009e-002
3.297731e+003,1.149574e-002
3.299659e+003,1.139522e-002
3.301588e+003,1.132988e-002
3.303516e+003,1.120746e-002
3.305445e+003,1.110557e-002
3.307374e+003,1.107321e-002
3.309302e+003,1.104381e-002
3.311230e+003,1.106628e-002
3.313159e+003,1.094771e-002
3.315087e+003,1.068961e-002
3.317016e+003,1.052249e-002
3.318944e+003,1.048593e-002
3.320873e+003,1.052938e-002
3.322802e+003,1.042144e-002
3.324730e+003,1.021718e-002
3.326658e+003,1.023434e-002
3.328587e+003,1.029439e-002
3.330515e+003,1.031740e-002
3.332444e+003,1.015968e-002
3.334372e+003,1.003241e-002
3.336301e+003,1.002417e-002
3.338229e+003,9.976731e-003
3.340158e+003,9.920488e-003
3.342086e+003,9.940591e-003
3.344015e+003,1.013937e-002
3.345943e+003,1.012153e-002
3.347872e+003,9.776846e-003
3.349800e+003,9.751294e-003
3.351729e+003,9.928420e-003
3.353657e+003,9.911505e-003
3.355586e+003,9.863981e-003
3.357514e+003,9.696029e-003
3.359443e+003,9.599781e-003
3.361371e+003,9.751159e-003
3.363300e+003,9.722254e-003
3.365229e+003,9.502606e-003
3.367157e+003,9.377281e-003
3.369085e+003,9.219265e-003
3.371014e+003,9.120076e-003
3.372942e+003,9.183187e-003
3.374871e+003,9.147384e-003
3.376799e+003,9.167518e-003
3.378728e+003,9.082417e-003
3.380656e+003,8.900258e-003
3.382585e+003,8.765709e-003
3.384513e+003,8.693058e-003
3.386442e+003,8.570265e-003
3.388370e+003,8.644044e-003
3.390299e+003,8.695728e-003
3.392227e+003,8.678928e-003
3.394156e+003,8.585135e-003
3.396084e+003,8.553706e-003
3.398013e+003,8.574354e-003
3.399941e+003,8.607610e-003
3.401870e+003,8.547319e-003
3.403798e+003,8.405820e-003
3.405727e+003,8.347313e-003
3.407655e+003,8.489369e-003
3.409584e+003,8.636609e-003
3.411512e+003,8.439737e-003
3.413441e+003,8.365891e-003
3.415369e+003,8.570874e-003
3.417298e+003,8.535154e-003
3.419226e+003,8.318266e-003
3.421155e+003,8.173599e-003
3.423083e+003,8.170695e-003
3.425012e+003,8.147163e-003
3.426940e+003,8.156110e-003
3.428869e+003,8.361939e-003
3.430797e+003,8.444197e-003
3.432726e+003,8.399907e-003
3.434654e+003,8.275610e-003
3.436583e+003,8.053654e-003
3.438511e+003,8.114618e-003
3.440440e+003,8.279629e-003
3.442368e+003,8.354980e-003
3.444297e+003,8.449130e-003
3.446225e+003,8.461867e-003
3.448154e+003,8.212935e-003
3.450082e+003,8.234108e-003
3.452011e+003,8.323332e-003
3.453939e+003,8.245521e-003
3.455868e+003,8.178258e-003
3.457796e+003,8.296347e-003
3.459725e+003,8.455650e-003
3.461653e+003,8.458421e-003
3.463582e+003,8.306648e-003
3.465510e+003,8.225530e-003
3.467439e+003,8.200645e-003
3.469367e+003,8.187341e-003
3.471296e+003,8.197437e-003
3.473224e+003,8.293206e-003
3.475153e+003,8.228974e-003
3.477081e+003,8.265006e-003
3.479010e+003,8.244069e-003
3.480938e+003,8.243968e-003
3.482867e+003,8.267066e-003
3.484795e+003,8.405752e-003
3.486724e+003,8.437744e-003
3.488652e+003,8.309012e-003
3.490581e+003,8.135212e-003
3.492509e+003,8.221377e-003
3.494438e+003,8.462205e-003
3.496366e+003,8.581654e-003
3.498295e+003,8.378423e-003
3.500223e+003,8.329615e-003
3.502152e+003,8.341301e-003
3.504080e+003,8.224517e-003
3.506009e+003,8.278650e-003
3.507937e+003,8.375011e-003
3.509866e+003,8.419399e-003
3.511794e+003,8.549280e-003
3.513723e+003,8.364911e-003
3.515651e+003,8.145205e-003
3.517580e+003,8.239578e-003
3.519508e+003,8.312896e-003
3.521437e+003,8.245623e-003
3.523365e+003,8.126974e-003
3.525294e+003,8.207499e-003
3.527222e+003,8.277603e-003
3.529151e+003,8.343564e-003
3.531079e+003,8.352346e-003
3.533008e+003,8.354305e-003
3.534936e+003,8.450718e-003
3.536865e+003,8.465144e-003
3.538793e+003,8.479199e-003
3.540722e+003,8.585777e-003
3.542650e+003,8.563473e-003
3.544579e+003,8.597133e-003
3.546507e+003,8.513393e-003
3.548436e+003,8.318806e-003
3.550364e+003,8.441156e-003
3.552293e+003,8.461360e-003
3.554221e+003,8.464468e-003
3.556150e+003,8.443758e-003
3.558078e+003,8.420345e-003
3.560007e+003,8.375755e-003
3.561935e+003,8.499404e-003
3.563864e+003,8.627754e-003
3.565792e+003,8.744511e-003
3.567721e+003,8.696134e-003
3.569649e+003,8.550361e-003
3.571578e+003,8.530593e-003
3.573506e+003,8.501972e-003
3.575435e+003,8.609874e-003
3.577363e+003,8.584088e-003
3.579292e+003,8.410008e-003
3.581220e+003,8.318705e-003
3.583149e+003,8.337653e-003
3.585077e+003,8.609671e-003
3.587006e+003,8.591624e-003
3.588934e+003,8.506196e-003
3.590863e+003,8.577971e-003
3.592791e+003,8.506567e-003
3.594720e+003,8.425717e-003
3.596648e+003,8.453724e-003
3.598577e+003,8.460009e-003
3.600505e+003,8.381700e-003
3.602434e+003,8.454772e-003
3.604362e+003,8.761449e-003
3.606291e+003,8.666185e-003
3.608219e+003,8.628632e-003
3.610148e+003,8.700698e-003
3.612076e+003,8.602067e-003
3.614005e+003,8.531269e-003
3.615933e+003,8.550732e-003
3.617862e+003,8.727100e-003
3.619790e+003,8.637353e-003
3.621719e+003,8.219283e-003
3.623647e+003,8.247345e-003
3.625576e+003,8.618053e-003
3.627504e+003,8.983937e-003
3.629433e+003,8.921058e-003
3.631361e+003,8.642355e-003
3.633290e+003,8.496566e-003
3.635218e+003,8.607407e-003
3.637146e+003,8.642118e-003
3.639075e+003,8.622075e-003
3.641004e+003,8.577498e-003
3.642932e+003,8.544988e-003
3.644861e+003,8.642828e-003
3.646789e+003,8.825251e-003
3.648718e+003,8.626063e-003
3.650646e+003,8.483524e-003
3.652574e+003,8.581181e-003
3.654503e+003,8.624272e-003
3.656432e+003,8.632080e-003
3.658360e+003,8.401225e-003
3.660289e+003,8.293983e-003
3.662217e+003,8.306378e-003
3.664146e+003,8.403150e-003
3.666074e+003,8.469029e-003
3.668002e+003,8.621906e-003
3.669931e+003,8.435244e-003
3.671860e+003,8.065231e-003
3.673788e+003,8.388118e-003
3.675717e+003,8.635392e-003
3.677645e+003,8.604230e-003
3.679573e+003,8.390888e-003
3.681502e+003,8.359000e-003
3.683430e+003,8.509710e-003
3.685359e+003,8.679435e-003
3.687288e+003,8.743023e-003
3.689216e+003,8.543231e-003
3.691145e+003,8.497647e-003
3.693073e+003,8.619845e-003
3.695001e+003,8.638907e-003
3.696930e+003,8.460009e-003
3.698858e+003,8.319178e-003
3.700787e+003,8.539649e-003
3.702716e+003,8.533398e-003
3.704644e+003,8.312558e-003
3.706573e+003,8.430041e-003
3.708501e+003,8.739642e-003
3.710429e+003,8.802968e-003
3.712358e+003,8.662906e-003
3.714286e+003,8.450075e-003
3.716215e+003,8.331844e-003
3.718144e+003,8.401969e-003
3.720072e+003,8.549415e-003
3.722000e+003,8.696303e-003
3.723929e+003,8.656180e-003
3.725857e+003,8.565973e-003
3.727786e+003,8.742956e-003
3.729714e+003,8.662229e-003
3.731643e+003,8.524307e-003
3.733572e+003,8.485923e-003
3.735500e+003,8.611057e-003
3.737428e+003,8.504405e-003
3.739357e+003,8.580539e-003
3.741285e+003,8.839522e-003
3.743214e+003,8.851323e-003
3.745142e+003,8.438588e-003
3.747071e+003,8.522821e-003
3.749000e+003,8.902219e-003
3.750928e+003,8.930461e-003
3.752856e+003,8.668550e-003
3.754785e+003,8.467205e-003
3.756713e+003,8.491194e-003
3.758642e+003,8.569995e-003
3.760570e+003,8.500891e-003
3.762499e+003,8.466225e-003
3.764427e+003,8.516400e-003
3.766356e+003,8.590070e-003
3.768284e+003,8.722873e-003
3.770213e+003,8.545191e-003
3.772141e+003,8.446359e-003
3.774070e+003,8.620926e-003
3.775998e+003,8.830763e-003
3.777927e+003,8.639955e-003
3.779855e+003,8.330122e-003
3.781784e+003,8.344713e-003
3.783712e+003,8.661993e-003
3.785641e+003,8.787178e-003
3.787569e+003,8.561479e-003
3.789498e+003,8.494944e-003
3.791426e+003,8.554011e-003
3.793355e+003,8.552895e-003
3.795283e+003,8.708607e-003
3.797212e+003,8.657227e-003
3.799140e+003,8.583918e-003
3.801069e+003,8.521233e-003
3.802997e+003,8.425717e-003
3.804926e+003,8.527923e-003
3.806854e+003,8.479571e-003
3.808783e+003,8.256597e-003
3.810711e+003,8.388253e-003
3.812640e+003,8.541440e-003
3.814568e+003,8.531842e-003
3.816497e+003,8.492174e-003
3.818425e+003,8.676528e-003
3.820354e+003,8.909897e-003
3.822282e+003,8.777982e-003
3.824211e+003,8.607982e-003
3.826139e+003,8.427542e-003
3.828068e+003,8.436427e-003
3.829996e+003,8.667469e-003
3.831925e+003,8.891938e-003
3.833853e+003,9.001459e-003
3.835782e+003,9.062523e-003
3.837710e+003,9.171512e-003
3.839639e+003,9.078391e-003
3.841567e+003,8.825623e-003
3.843496e+003,8.473725e-003
3.845424e+003,8.412677e-003
3.847353e+003,8.497647e-003
3.849281e+003,8.595510e-003
3.851210e+003,8.883078e-003
3.853138e+003,9.044288e-003
3.855067e+003,8.733422e-003
3.856995e+003,8.509845e-003
3.858924e+003,8.423318e-003
3.860852e+003,8.515150e-003
3.862781e+003,8.703368e-003
3.864709e+003,8.767297e-003
3.866638e+003,8.668787e-003
3.868566e+003,8.768921e-003
3.870495e+003,8.896234e-003
3.872423e+003,8.818489e-003
3.874352e+003,8.691841e-003
3.876280e+003,8.381058e-003
3.878209e+003,8.426021e-003
3.880137e+003,8.476462e-003
3.882066e+003,8.416190e-003
3.883994e+003,8.554146e-003
3.885923e+003,8.676258e-003
3.887851e+003,8.595071e-003
3.889780e+003,8.633972e-003
3.891708e+003,8.325697e-003
3.893637e+003,8.111040e-003
3.895565e+003,8.314719e-003
3.897494e+003,8.593111e-003
3.899422e+003,8.732475e-003
3.901351e+003,8.673553e-003
3.903279e+003,8.698974e-003
3.905208e+003,8.680652e-003
3.907136e+003,8.508358e-003
3.909065e+003,8.444838e-003
3.910993e+003,8.329649e-003
3.912922e+003,8.273483e-003
3.914850e+003,8.232588e-003
3.916779e+003,8.101891e-003
3.918707e+003,8.251295e-003
3.920636e+003,8.302865e-003
3.922564e+003,8.202535e-003
3.924493e+003,8.339410e-003
3.926421e+003,8.423150e-003
3.928350e+003,8.430717e-003
3.930278e+003,8.552558e-003
3.932207e+003,8.603318e-003
3.934135e+003,8.622785e-003
3.936064e+003,8.489876e-003
3.937992e+003,8.362683e-003
3.939921e+003,8.340828e-003
3.941849e+003,8.411427e-003
3.943778e+003,8.505182e-003
3.945706e+003,8.366601e-003
3.947635e+003,8.356365e-003
3.949563e+003,8.616465e-003
3.951492e+003,8.533498e-003
3.953420e+003,8.393624e-003
3.955349e+003,8.473658e-003
3.957277e+003,8.472780e-003
3.959206e+003,8.299758e-003
3.961134e+003,8.285236e-003
3.963063e+003,8.352988e-003
3.964991e+003,8.172890e-003
3.966920e+003,8.228266e-003
3.968848e+003,8.436325e-003
3.970777e+003,8.453859e-003
3.972705e+003,8.493863e-003
3.974634e+003,8.614944e-003
3.976562e+003,8.644146e-003
3.978491e+003,8.508866e-003
3.980419e+003,8.482915e-003
3.982348e+003,8.406191e-003
3.984276e+003,8.296347e-003
3.986205e+003,8.264669e-003
3.988133e+003,8.403962e-003
3.990062e+003,8.456393e-003
3.991990e+003,8.328905e-003
3.993919e+003,8.301683e-003
3.995847e+003,8.270815e-003
3.997776e+003,8.306479e-003
3.999704e+003,8.390279e-003
4.001633e+003,0.000000e+000
