3.991989e+002,2.609898e-002
4.011274e+002,2.669713e-002
4.030559e+002,1.176862e-002
4.049844e+002,6.903316e-003
4.069129e+002,1.072920e-002
4.088414e+002,1.785041e-002
4.107699e+002,1.723166e-002
4.126984e+002,1.603863e-002
4.146269e+002,9.972764e-003
4.165554e+002,6.497002e-003
4.184839e+002,9.022162e-003
4.204124e+002,1.309309e-002
4.223409e+002,1.738617e-002
4.242694e+002,1.819293e-002
4.261979e+002,1.544955e-002
4.281264e+002,1.326922e-002
4.300549e+002,1.003522e-002
4.319834e+002,3.453572e-003
4.339119e+002,5.997731e-003
4.358404e+002,1.394058e-002
4.377689e+002,1.330308e-002
4.396974e+002,7.767242e-003
4.416259e+002,6.592229e-003
4.435544e+002,9.889234e-003
4.454829e+002,1.286797e-002
4.474114e+002,1.440992e-002
4.493399e+002,9.137739e-003
4.512684e+002,4.289474e-003
4.531969e+002,6.153102e-003
4.551254e+002,1.050073e-002
4.570539e+002,1.071742e-002
4.589824e+002,6.277263e-003
4.609109e+002,5.729090e-003
4.628394e+002,7.050558e-003
4.647679e+002,6.577562e-003
4.666964e+002,6.897862e-003
4.686249e+002,5.973477e-003
4.705533e+002,6.373988e-003
4.724819e+002,8.596254e-003
4.744103e+002,9.168838e-003
4.763389e+002,6.779918e-003
4.782673e+002,5.651138e-003
4.801959e+002,5.007211e-003
4.821243e+002,6.203279e-003
4.840529e+002,6.927219e-003
4.859813e+002,7.489245e-003
4.879099e+002,6.801121e-003
4.898383e+002,5.182111e-003
4.917668e+002,5.434880e-003
4.936953e+002,6.980516e-003
4.956238e+002,6.230371e-003
4.975523e+002,3.943939e-003
4.994808e+002,4.776934e-003
5.014093e+002,5.797888e-003
5.033378e+002,3.946547e-003
5.052663e+002,1.130679e-003
5.071948e+002,3.986529e-004
5.091233e+002,2.157006e-003
5.110518e+002,2.717857e-003
5.129803e+002,1.553880e-003
5.149088e+002,-9.680687e-005
5.168373e+002,8.856475e-004
5.187658e+002,1.579985e-003
5.206943e+002,1.187190e-003
5.226228e+002,6.473913e-004
5.245513e+002,8.285444e-004
5.264798e+002,1.360592e-003
5.284083e+002,1.640014e-003
5.303368e+002,2.251047e-004
5.322653e+002,-2.518451e-004
5.341938e+002,-3.770490e-005
5.361223e+002,-5.496589e-005
5.380508e+002,-4.260828e-005
5.399792e+002,2.130268e-003
5.419078e+002,2.457201e-003
5.438363e+002,1.208754e-003
5.457648e+002,1.435284e-003
5.476932e+002,1.367472e-003
5.496218e+002,1.647098e-003
5.515503e+002,2.978236e-003
5.534788e+002,2.537847e-003
5.554072e+002,2.991648e-003
5.573358e+002,3.557788e-003
5.592643e+002,3.361702e-003
5.611927e+002,2.260345e-003
5.631212e+002,2.115850e-003
5.650497e+002,2.651011e-003
5.669783e+002,3.496124e-003
5.689067e+002,5.019880e-003
5.708352e+002,4.964008e-003
5.727637e+002,3.548668e-003
5.746923e+002,2.069338e-003
5.766207e+002,2.647178e-003
5.785492e+002,4.604173e-003
5.804777e+002,2.769640e-003
5.824063e+002,-7.526167e-004
5.843347e+002,1.430829e-003
5.862632e+002,3.487373e-003
5.881917e+002,2.384598e-003
5.901202e+002,5.614214e-004
5.920487e+002,-1.592793e-004
5.939772e+002,4.139419e-004
5.959057e+002,3.662524e-004
5.978342e+002,1.063180e-003
5.997627e+002,2.184578e-003
6.016912e+002,2.245824e-003
6.036197e+002,2.435975e-003
6.055482e+002,3.774150e-003
6.074767e+002,4.274616e-003
6.094052e+002,4.534793e-003
6.113337e+002,6.282037e-003
6.132622e+002,6.397828e-003
6.151907e+002,5.011836e-003
6.171192e+002,4.097640e-003
6.190477e+002,4.089278e-003
6.209762e+002,5.418675e-003
6.229047e+002,4.179997e-003
6.248332e+002,5.994106e-004
6.267617e+002,-1.094462e-003
6.286902e+002,-1.143936e-003
6.306187e+002,-7.104088e-004
6.325472e+002,-2.441955e-004
6.344756e+002,4.701282e-004
6.364042e+002,5.778111e-004
6.383326e+002,4.882062e-004
6.402612e+002,5.457954e-004
6.421896e+002,9.525209e-004
6.441182e+002,6.352131e-004
6.460466e+002,4.916560e-004
6.479752e+002,9.676634e-004
6.499036e+002,7.940870e-004
6.518322e+002,1.140047e-003
6.537606e+002,1.721141e-003
6.556891e+002,1.580118e-003
6.576177e+002,1.343075e-003
6.595461e+002,1.590061e-003
6.614746e+002,1.134499e-003
6.634031e+002,8.201788e-004
6.653317e+002,2.367074e-003
6.672601e+002,7.316750e-003
6.691886e+002,6.378696e-003
6.711171e+002,2.621443e-003
6.730457e+002,2.239995e-003
6.749741e+002,2.375636e-003
6.769026e+002,2.301781e-003
6.788311e+002,2.689617e-003
6.807596e+002,3.045433e-003
6.826881e+002,3.004193e-003
6.846166e+002,3.245215e-003
6.865451e+002,3.519038e-003
6.884736e+002,3.200284e-003
6.904021e+002,2.915053e-003
6.923306e+002,2.964158e-003
6.942591e+002,3.136635e-003
6.961876e+002,3.121116e-003
6.981161e+002,2.834903e-003
7.000446e+002,2.637943e-003
7.019731e+002,2.335725e-003
7.039016e+002,2.204426e-003
7.058301e+002,1.969706e-003
7.077585e+002,1.437112e-003
7.096871e+002,1.307015e-003
7.116156e+002,1.326457e-003
7.135441e+002,6.580433e-004
7.154725e+002,3.100796e-004
7.174011e+002,2.197011e-004
7.193296e+002,-9.641898e-006
7.212581e+002,-4.101800e-005
7.231865e+002,7.651324e-005
7.251151e+002,9.288464e-005
7.270436e+002,-7.461145e-005
7.289720e+002,-1.795163e-004
7.309005e+002,-1.186037e-004
7.328290e+002,3.116380e-004
7.347576e+002,5.680900e-004
7.366860e+002,3.332243e-004
7.386145e+002,-1.800131e-004
7.405430e+002,-1.989575e-004
7.424716e+002,1.572163e-004
7.444000e+002,1.927503e-004
7.463285e+002,6.276807e-004
7.482570e+002,1.020334e-003
7.501855e+002,8.624734e-004
7.521140e+002,1.584540e-003
7.540425e+002,2.373903e-003
7.559710e+002,2.566311e-003
7.578995e+002,2.760904e-003
7.598280e+002,2.941306e-003
7.617565e+002,3.164069e-003
7.636850e+002,3.588991e-003
7.656135e+002,4.241959e-003
7.675420e+002,4.205624e-003
7.694705e+002,3.715195e-003
7.713990e+002,3.822449e-003
7.733275e+002,4.131457e-003
7.752560e+002,4.040180e-003
7.771844e+002,4.191572e-003
7.791130e+002,3.988445e-003
7.810415e+002,3.926854e-003
7.829700e+002,3.823117e-003
7.848984e+002,3.926686e-003
7.868270e+002,4.120485e-003
7.887555e+002,3.953770e-003
7.906840e+002,3.615518e-003
7.926124e+002,3.181425e-003
7.945410e+002,2.607476e-003
7.964695e+002,2.626843e-003
7.983979e+002,2.793116e-003
8.003264e+002,2.606309e-003
8.022549e+002,2.569577e-003
8.041835e+002,2.733561e-003
8.061119e+002,2.717123e-003
8.080404e+002,2.538447e-003
8.099689e+002,2.867088e-003
8.118975e+002,3.763788e-003
8.138259e+002,4.016235e-003
8.157545e+002,3.423548e-003
8.176830e+002,3.282905e-003
8.196115e+002,2.881364e-003
8.215399e+002,2.199398e-003
8.234684e+002,2.001794e-003
8.253970e+002,2.228738e-003
8.273254e+002,2.337957e-003
8.292539e+002,1.865671e-003
8.311824e+002,1.588731e-003
8.331110e+002,1.762791e-003
8.350394e+002,1.812232e-003
8.369679e+002,1.933194e-003
8.388964e+002,1.904007e-003
8.408250e+002,1.699186e-003
8.427534e+002,1.369233e-003
8.446819e+002,9.055026e-004
8.466104e+002,1.087727e-003
8.485389e+002,1.084040e-003
8.504674e+002,9.160946e-004
8.523959e+002,8.235648e-004
8.543244e+002,6.997248e-004
8.562529e+002,1.082246e-003
8.581814e+002,1.335265e-003
8.601099e+002,1.003629e-003
8.620384e+002,7.346726e-004
8.639669e+002,8.479321e-004
8.658954e+002,8.362131e-004
8.678239e+002,4.365284e-004
8.697524e+002,6.376354e-004
8.716809e+002,1.024054e-003
8.736094e+002,1.175362e-003
8.755378e+002,1.106495e-003
8.774664e+002,1.513281e-003
8.793949e+002,1.766484e-003
8.813234e+002,1.336495e-003
8.832518e+002,1.281758e-003
8.851804e+002,1.511385e-003
8.871089e+002,1.674904e-003
8.890374e+002,1.275112e-003
8.909658e+002,1.382396e-003
8.928943e+002,2.246923e-003
8.948229e+002,2.257614e-003
8.967513e+002,1.894489e-003
8.986798e+002,1.779726e-003
9.006083e+002,1.698754e-003
9.025369e+002,1.886037e-003
9.044653e+002,1.967975e-003
9.063938e+002,1.784051e-003
9.083223e+002,1.528509e-003
9.102509e+002,1.269064e-003
9.121793e+002,1.483922e-003
9.141078e+002,1.345369e-003
9.160364e+002,1.079157e-003
9.179648e+002,1.132805e-003
9.198933e+002,1.001271e-003
9.218218e+002,7.542220e-004
9.237504e+002,7.590348e-004
9.256788e+002,5.319613e-004
9.276073e+002,1.294740e-004
9.295358e+002,-2.398904e-004
9.314644e+002,-6.423251e-004
9.333928e+002,-7.897272e-004
9.353213e+002,-8.453538e-004
9.372498e+002,-7.072332e-004
9.391783e+002,-1.041379e-003
9.411068e+002,-1.215774e-003
9.430353e+002,-8.028242e-004
9.449637e+002,-8.067929e-004
9.468923e+002,-1.061046e-003
9.488208e+002,-1.178700e-003
9.507493e+002,-1.148166e-003
9.526777e+002,-1.094726e-003
9.546063e+002,-9.935466e-004
9.565348e+002,-9.863728e-004
9.584633e+002,-9.097686e-004
9.603917e+002,-8.853662e-004
9.623203e+002,-9.243499e-004
9.642488e+002,-8.122830e-004
9.661772e+002,-7.022381e-004
9.681057e+002,-5.801869e-004
9.700343e+002,-6.121836e-004
9.719628e+002,-6.017279e-004
9.738912e+002,-5.031801e-004
9.758197e+002,-4.457222e-004
9.777483e+002,-4.258617e-004
9.796768e+002,-4.758753e-004
9.816052e+002,-5.104280e-004
9.835337e+002,-4.190428e-004
9.854623e+002,-3.448547e-004
9.873907e+002,-4.354942e-004
9.893192e+002,-4.600212e-004
9.912477e+002,-5.797567e-004
9.931763e+002,-4.219557e-004
9.951047e+002,-2.637331e-004
9.970332e+002,-3.877602e-004
9.989617e+002,-3.440601e-004
1.000890e+003,-1.197962e-004
1.002819e+003,1.716019e-004
1.004747e+003,2.208282e-004
1.006676e+003,3.193307e-004
1.008604e+003,3.848567e-004
1.010533e+003,4.572253e-004
1.012461e+003,5.538903e-004
1.014390e+003,8.359475e-004
1.016318e+003,1.280130e-003
1.018247e+003,1.520596e-003
1.020175e+003,1.691269e-003
1.022104e+003,1.913425e-003
1.024032e+003,2.086784e-003
1.025961e+003,2.419548e-003
1.027889e+003,2.496356e-003
1.029818e+003,2.662613e-003
1.031746e+003,3.083206e-003
1.033675e+003,3.367713e-003
1.035603e+003,3.407351e-003
1.037532e+003,3.594604e-003
1.039460e+003,3.684451e-003
1.041389e+003,3.536341e-003
1.043317e+003,3.635732e-003
1.045246e+003,4.083859e-003
1.047174e+003,4.358480e-003
1.049103e+003,4.192944e-003
1.051031e+003,3.754531e-003
1.052960e+003,3.649766e-003
1.054888e+003,3.789525e-003
1.056817e+003,3.857749e-003
1.058745e+003,3.857248e-003
1.060674e+003,3.888305e-003
1.062602e+003,3.856345e-003
1.064531e+003,3.694944e-003
1.066459e+003,3.663265e-003
1.068388e+003,3.659456e-003
1.070316e+003,3.790761e-003
1.072245e+003,3.908866e-003
1.074173e+003,3.807875e-003
1.076102e+003,3.707308e-003
1.078030e+003,3.801357e-003
1.079959e+003,3.746409e-003
1.081887e+003,3.779397e-003
1.083816e+003,4.132427e-003
1.085744e+003,4.082254e-003
1.087673e+003,4.036267e-003
1.089601e+003,4.173139e-003
1.091530e+003,4.349109e-003
1.093458e+003,4.365441e-003
1.095387e+003,4.335555e-003
1.097315e+003,4.358313e-003
1.099244e+003,4.426794e-003
1.101172e+003,4.585554e-003
1.103101e+003,4.590510e-003
1.105029e+003,4.604441e-003
1.106958e+003,4.582373e-003
1.108886e+003,4.670248e-003
1.110815e+003,4.555150e-003
1.112743e+003,4.463951e-003
1.114672e+003,4.381205e-003
1.116600e+003,4.712383e-003
1.118529e+003,4.996116e-003
1.120457e+003,4.796901e-003
1.122386e+003,4.684918e-003
1.124314e+003,4.671554e-003
1.126243e+003,4.470278e-003
1.128171e+003,4.238479e-003
1.130100e+003,4.360890e-003
1.132028e+003,4.192978e-003
1.133957e+003,3.852668e-003
1.135885e+003,3.737452e-003
1.137814e+003,3.473311e-003
1.139742e+003,2.824832e-003
1.141671e+003,2.539847e-003
1.143599e+003,2.470696e-003
1.145528e+003,2.278098e-003
1.147456e+003,1.963815e-003
1.149385e+003,1.747355e-003
1.151313e+003,1.456726e-003
1.153242e+003,1.122374e-003
1.155170e+003,9.610551e-004
1.157099e+003,9.393380e-004
1.159027e+003,8.086597e-004
1.160956e+003,5.683554e-004
1.162884e+003,4.789846e-004
1.164813e+003,4.284356e-004
1.166741e+003,4.095641e-004
1.168670e+003,3.891016e-004
1.170598e+003,3.929154e-004
1.172526e+003,4.541074e-004
1.174455e+003,3.668825e-004
1.176384e+003,4.922531e-004
1.178312e+003,5.920448e-004
1.180240e+003,4.643566e-004
1.182169e+003,3.716247e-004
1.184098e+003,3.773950e-004
1.186026e+003,4.256828e-004
1.187954e+003,5.750242e-004
1.189883e+003,5.715737e-004
1.191812e+003,4.847895e-004
1.193740e+003,4.943761e-004
1.195668e+003,3.738134e-004
1.197597e+003,2.779841e-004
1.199526e+003,4.004438e-004
1.201454e+003,4.786198e-004
1.203382e+003,6.895363e-004
1.205311e+003,7.564790e-004
1.207240e+003,7.572756e-004
1.209168e+003,8.614110e-004
1.211096e+003,9.990128e-004
1.213025e+003,1.161641e-003
1.214953e+003,1.335065e-003
1.216882e+003,1.271888e-003
1.218810e+003,1.291096e-003
1.220739e+003,1.349158e-003
1.222667e+003,1.410352e-003
1.224596e+003,1.694230e-003
1.226524e+003,1.924275e-003
1.228453e+003,2.039510e-003
1.230381e+003,2.028557e-003
1.232310e+003,2.124741e-003
1.234238e+003,2.389029e-003
1.236167e+003,2.547846e-003
1.238095e+003,2.584709e-003
1.240024e+003,2.609276e-003
1.241952e+003,2.646211e-003
1.243881e+003,2.429277e-003
1.245809e+003,2.188741e-003
1.247738e+003,2.077429e-003
1.249666e+003,2.125540e-003
1.251595e+003,2.126905e-003
1.253523e+003,2.009716e-003
1.255452e+003,1.914391e-003
1.257380e+003,1.809537e-003
1.259309e+003,1.708866e-003
1.261237e+003,1.697490e-003
1.263166e+003,1.809570e-003
1.265094e+003,2.104530e-003
1.267023e+003,2.439707e-003
1.268951e+003,2.649678e-003
1.270880e+003,2.853280e-003
1.272808e+003,2.952715e-003
1.274737e+003,3.119381e-003
1.276665e+003,3.432164e-003
1.278594e+003,3.718704e-003
1.280522e+003,3.914684e-003
1.282451e+003,4.051651e-003
1.284379e+003,4.289106e-003
1.286308e+003,4.565463e-003
1.288236e+003,4.921982e-003
1.290165e+003,5.323939e-003
1.292093e+003,5.589981e-003
1.294022e+003,5.785363e-003
1.295950e+003,6.001494e-003
1.297879e+003,6.083743e-003
1.299807e+003,6.038920e-003
1.301736e+003,6.018863e-003
1.303664e+003,5.955135e-003
1.305593e+003,5.798358e-003
1.307521e+003,5.749067e-003
1.309450e+003,5.703306e-003
1.311378e+003,5.396297e-003
1.313307e+003,5.066743e-003
1.315235e+003,4.872857e-003
1.317164e+003,4.755997e-003
1.319092e+003,4.481259e-003
1.321021e+003,4.084495e-003
1.322949e+003,3.825758e-003
1.324878e+003,3.747713e-003
1.326806e+003,3.581908e-003
1.328735e+003,3.447226e-003
1.330663e+003,3.362704e-003
1.332592e+003,3.336425e-003
1.334520e+003,3.217542e-003
1.336449e+003,3.114308e-003
1.338377e+003,3.114141e-003
1.340306e+003,3.028416e-003
1.342234e+003,2.913886e-003
1.344163e+003,2.887635e-003
1.346091e+003,2.843075e-003
1.348020e+003,2.782379e-003
1.349948e+003,2.698619e-003
1.351877e+003,2.553312e-003
1.353805e+003,2.442872e-003
1.355734e+003,2.364309e-003
1.357662e+003,2.200030e-003
1.359591e+003,2.037612e-003
1.361519e+003,2.019237e-003
1.363448e+003,1.912560e-003
1.365376e+003,1.585039e-003
1.367305e+003,1.404967e-003
1.369233e+003,1.346532e-003
1.371162e+003,1.273018e-003
1.373090e+003,1.304888e-003
1.375019e+003,1.279366e-003
1.376947e+003,1.254044e-003
1.378876e+003,1.251053e-003
1.380804e+003,1.182605e-003
1.382733e+003,1.098024e-003
1.384661e+003,1.091713e-003
1.386590e+003,1.077097e-003
1.388518e+003,8.961726e-004
1.390447e+003,5.800672e-004
1.392375e+003,4.171922e-004
1.394304e+003,4.224656e-004
1.396232e+003,2.096897e-004
1.398161e+003,1.584096e-004
1.400089e+003,2.603790e-004
1.402018e+003,2.437693e-004
1.403946e+003,1.450519e-004
1.405875e+003,8.151738e-005
1.407803e+003,5.987734e-005
1.409732e+003,1.824744e-004
1.411660e+003,4.068777e-004
1.413589e+003,5.915139e-004
1.415517e+003,8.730311e-004
1.417446e+003,1.270127e-003
1.419374e+003,1.683187e-003
1.421303e+003,2.256548e-003
1.423231e+003,2.915087e-003
1.425160e+003,3.457947e-003
1.427088e+003,3.825892e-003
1.429017e+003,4.105768e-003
1.430945e+003,4.276591e-003
1.432874e+003,4.594863e-003
1.434802e+003,5.101642e-003
1.436731e+003,5.432363e-003
1.438659e+003,5.502860e-003
1.440588e+003,5.761456e-003
1.442516e+003,6.261161e-003
1.444445e+003,6.592195e-003
1.446373e+003,6.976375e-003
1.448302e+003,7.416774e-003
1.450230e+003,7.659752e-003
1.452159e+003,7.813053e-003
1.454087e+003,8.224889e-003
1.456016e+003,8.795563e-003
1.457944e+003,8.973823e-003
1.459873e+003,8.800635e-003
1.461801e+003,8.670950e-003
1.463730e+003,8.626333e-003
1.465658e+003,8.647594e-003
1.467587e+003,8.542656e-003
1.469515e+003,8.470719e-003
1.471444e+003,8.372208e-003
1.473372e+003,8.186565e-003
1.475301e+003,7.839502e-003
1.477229e+003,7.373331e-003
1.479158e+003,6.903114e-003
1.481086e+003,6.533664e-003
1.483015e+003,6.110188e-003
1.484943e+003,5.740572e-003
1.486872e+003,5.514101e-003
1.488800e+003,5.235563e-003
1.490729e+003,4.981938e-003
1.492657e+003,4.518722e-003
1.494586e+003,4.098342e-003
1.496514e+003,3.841269e-003
1.498443e+003,3.388783e-003
1.500371e+003,2.902311e-003
1.502300e+003,2.706054e-003
1.504228e+003,2.759036e-003
1.506157e+003,2.833202e-003
1.508085e+003,2.454568e-003
1.510014e+003,2.094442e-003
1.511942e+003,1.903042e-003
1.513871e+003,1.877717e-003
1.515799e+003,2.058053e-003
1.517728e+003,2.188608e-003
1.519656e+003,2.305645e-003
1.521585e+003,2.450370e-003
1.523513e+003,2.389195e-003
1.525442e+003,2.469963e-003
1.527370e+003,2.464198e-003
1.529299e+003,2.624976e-003
1.531227e+003,2.923726e-003
1.533156e+003,3.337928e-003
1.535084e+003,3.519739e-003
1.537013e+003,3.807440e-003
1.538941e+003,4.430777e-003
1.540870e+003,4.706622e-003
1.542798e+003,4.780217e-003
1.544727e+003,4.850172e-003
1.546655e+003,4.863776e-003
1.548584e+003,5.086187e-003
1.550512e+003,5.379624e-003
1.552441e+003,5.572998e-003
1.554369e+003,5.792717e-003
1.556298e+003,6.131594e-003
1.558226e+003,6.599932e-003
1.560155e+003,6.862415e-003
1.562083e+003,6.903518e-003
1.564012e+003,7.075748e-003
1.565940e+003,7.198961e-003
1.567869e+003,7.490931e-003
1.569797e+003,7.951390e-003
1.571726e+003,8.002182e-003
1.573654e+003,8.000494e-003
1.575583e+003,8.157123e-003
1.577511e+003,8.019597e-003
1.579440e+003,7.797231e-003
1.581368e+003,7.752873e-003
1.583297e+003,7.552052e-003
1.585225e+003,7.333565e-003
1.587154e+003,7.128862e-003
1.589082e+003,6.844844e-003
1.591010e+003,6.337205e-003
1.592939e+003,5.883390e-003
1.594868e+003,5.487592e-003
1.596796e+003,5.020383e-003
1.598724e+003,4.618640e-003
1.600653e+003,4.171834e-003
1.602582e+003,3.749384e-003
1.604510e+003,3.319765e-003
1.606438e+003,2.907214e-003
1.608367e+003,2.584509e-003
1.610296e+003,2.264075e-003
1.612224e+003,1.821315e-003
1.614152e+003,1.607919e-003
1.616081e+003,1.545767e-003
1.618010e+003,1.256436e-003
1.619938e+003,8.946121e-004
1.621866e+003,7.820374e-004
1.623795e+003,5.190234e-004
1.625724e+003,2.730440e-004
1.627652e+003,1.048156e-004
1.629580e+003,-1.069435e-004
1.631509e+003,-3.210827e-004
1.633438e+003,-3.587928e-004
1.635366e+003,-3.698172e-004
1.637294e+003,-6.310099e-004
1.639223e+003,-1.076184e-003
1.641151e+003,-1.436633e-003
1.643080e+003,-1.710749e-003
1.645008e+003,-1.883523e-003
1.646937e+003,-2.114792e-003
1.648865e+003,-2.605352e-003
1.650794e+003,-2.785605e-003
1.652722e+003,-2.709911e-003
1.654651e+003,-3.387335e-003
1.656579e+003,-3.933565e-003
1.658508e+003,-4.247455e-003
1.660436e+003,-4.551611e-003
1.662365e+003,-4.733090e-003
1.664293e+003,-4.914691e-003
1.666222e+003,-5.123559e-003
1.668150e+003,-5.107218e-003
1.670079e+003,-5.133022e-003
1.672007e+003,-5.379356e-003
1.673936e+003,-5.407729e-003
1.675864e+003,-5.339429e-003
1.677793e+003,-5.381156e-003
1.679721e+003,-5.296519e-003
1.681650e+003,-5.191533e-003
1.683578e+003,-4.878816e-003
1.685507e+003,-4.681532e-003
1.687435e+003,-4.626395e-003
1.689364e+003,-4.515903e-003
1.691292e+003,-4.443198e-003
1.693221e+003,-4.354933e-003
1.695149e+003,-4.032257e-003
1.697078e+003,-3.935108e-003
1.699006e+003,-3.847791e-003
1.700935e+003,-3.749911e-003
1.702863e+003,-3.907001e-003
1.704792e+003,-3.865689e-003
1.706720e+003,-3.918658e-003
1.708649e+003,-4.108181e-003
1.710577e+003,-4.239450e-003
1.712506e+003,-4.128498e-003
1.714434e+003,-4.054678e-003
1.716363e+003,-3.966563e-003
1.718291e+003,-3.998640e-003
1.720220e+003,-4.144284e-003
1.722148e+003,-4.249490e-003
1.724077e+003,-4.340434e-003
1.726005e+003,-4.274163e-003
1.727934e+003,-4.190655e-003
1.729862e+003,-4.183370e-003
1.731791e+003,-4.160496e-003
1.733719e+003,-4.132994e-003
1.735648e+003,-4.262057e-003
1.737576e+003,-4.289092e-003
1.739505e+003,-4.150290e-003
1.741433e+003,-4.243157e-003
1.743362e+003,-4.250573e-003
1.745290e+003,-4.118192e-003
1.747219e+003,-3.981634e-003
1.749147e+003,-3.845820e-003
1.751076e+003,-3.654343e-003
1.753004e+003,-3.704709e-003
1.754933e+003,-3.687691e-003
1.756861e+003,-3.552772e-003
1.758790e+003,-3.555894e-003
1.760718e+003,-3.507844e-003
1.762647e+003,-3.459526e-003
1.764575e+003,-3.579424e-003
1.766504e+003,-3.540415e-003
1.768432e+003,-3.477375e-003
1.770361e+003,-3.459461e-003
1.772289e+003,-3.357186e-003
1.774218e+003,-3.353241e-003
1.776146e+003,-3.380760e-003
1.778075e+003,-3.381943e-003
1.780003e+003,-3.404464e-003
1.781932e+003,-3.445227e-003
1.783860e+003,-3.353372e-003
1.785789e+003,-3.133454e-003
1.787717e+003,-3.146974e-003
1.789646e+003,-3.245384e-003
1.791574e+003,-3.158750e-003
1.793503e+003,-3.174966e-003
1.795431e+003,-3.238609e-003
1.797360e+003,-3.157960e-003
1.799288e+003,-3.089667e-003
1.801217e+003,-3.199964e-003
1.803145e+003,-3.309805e-003
1.805074e+003,-3.212035e-003
1.807002e+003,-3.152533e-003
1.808931e+003,-3.211837e-003
1.810859e+003,-3.240187e-003
1.812788e+003,-3.239069e-003
1.814716e+003,-3.243180e-003
1.816645e+003,-3.297639e-003
1.818573e+003,-3.350709e-003
1.820502e+003,-3.317894e-003
1.822430e+003,-3.344561e-003
1.824359e+003,-3.322267e-003
1.826287e+003,-3.282084e-003
1.828216e+003,-3.301946e-003
1.830144e+003,-3.309312e-003
1.832073e+003,-3.554875e-003
1.834001e+003,-3.576597e-003
1.835930e+003,-3.493678e-003
1.837858e+003,-3.524113e-003
1.839787e+003,-3.506004e-003
1.841715e+003,-3.533414e-003
1.843644e+003,-3.500810e-003
1.845572e+003,-3.631014e-003
1.847501e+003,-3.734111e-003
1.849429e+003,-3.615767e-003
1.851358e+003,-3.481582e-003
1.853286e+003,-3.425470e-003
1.855215e+003,-3.407389e-003
1.857143e+003,-3.349493e-003
1.859072e+003,-3.318092e-003
1.861000e+003,-3.385593e-003
1.862929e+003,-3.469026e-003
1.864857e+003,-3.427344e-003
1.866786e+003,-3.418107e-003
1.868714e+003,-3.327594e-003
1.870643e+003,-3.321643e-003
1.872571e+003,-3.345415e-003
1.874500e+003,-3.280835e-003
1.876428e+003,-3.220652e-003
1.878357e+003,-3.196346e-003
1.880285e+003,-3.220652e-003
1.882214e+003,-3.232853e-003
1.884142e+003,-3.156480e-003
1.886071e+003,-3.112433e-003
1.887999e+003,-3.070059e-003
1.889928e+003,-3.105129e-003
1.891856e+003,-3.162302e-003
1.893785e+003,-3.106939e-003
1.895713e+003,-3.057786e-003
1.897642e+003,-3.116380e-003
1.899570e+003,-3.056405e-003
1.901499e+003,-2.908256e-003
1.903427e+003,-2.888212e-003
1.905356e+003,-2.918854e-003
1.907284e+003,-2.953707e-003
1.909213e+003,-2.897362e-003
1.911141e+003,-2.885546e-003
1.913070e+003,-2.862143e-003
1.914998e+003,-2.777934e-003
1.916927e+003,-2.750805e-003
1.918855e+003,-2.776552e-003
1.920784e+003,-2.833175e-003
1.922712e+003,-2.859970e-003
1.924641e+003,-2.839693e-003
1.926569e+003,-2.780074e-003
1.928498e+003,-2.842030e-003
1.930426e+003,-2.881760e-003
1.932355e+003,-2.978816e-003
1.934283e+003,-3.033998e-003
1.936212e+003,-2.996750e-003
1.938140e+003,-3.035215e-003
1.940069e+003,-3.055385e-003
1.941997e+003,-2.946269e-003
1.943926e+003,-2.925732e-003
1.945854e+003,-3.038802e-003
1.947783e+003,-3.128092e-003
1.949711e+003,-3.093089e-003
1.951640e+003,-3.004779e-003
1.953568e+003,-2.942254e-003
1.955497e+003,-3.018336e-003
1.957425e+003,-3.125526e-003
1.959354e+003,-3.051469e-003
1.961282e+003,-2.992604e-003
1.963211e+003,-3.075454e-003
1.965139e+003,-3.141480e-003
1.967068e+003,-3.220356e-003
1.968996e+003,-3.303097e-003
1.970925e+003,-3.231143e-003
1.972853e+003,-3.148092e-003
1.974782e+003,-3.089141e-003
1.976710e+003,-3.034130e-003
1.978639e+003,-2.979902e-003
1.980567e+003,-2.984377e-003
1.982496e+003,-3.021297e-003
1.984424e+003,-2.982205e-003
1.986353e+003,-2.939522e-003
1.988281e+003,-2.955517e-003
1.990210e+003,-2.981942e-003
1.992138e+003,-2.867014e-003
1.994067e+003,-2.755744e-003
1.995995e+003,-2.801375e-003
1.997924e+003,-2.904767e-003
1.999852e+003,-2.862702e-003
2.001781e+003,-2.766148e-003
2.003709e+003,-2.700592e-003
2.005638e+003,-2.666279e-003
2.007566e+003,-2.654292e-003
2.009495e+003,-2.633412e-003
2.011423e+003,-2.652612e-003
2.013352e+003,-2.589806e-003
2.015280e+003,-2.534995e-003
2.017208e+003,-2.507554e-003
2.019137e+003,-2.467922e-003
2.021066e+003,-2.521423e-003
2.022994e+003,-2.626002e-003
2.024922e+003,-2.588159e-003
2.026851e+003,-2.484922e-003
2.028780e+003,-2.511013e-003
2.030708e+003,-2.499483e-003
2.032636e+003,-2.409965e-003
2.034565e+003,-2.375728e-003
2.036494e+003,-2.478695e-003
2.038422e+003,-2.524553e-003
2.040350e+003,-2.505149e-003
2.042279e+003,-2.508543e-003
2.044208e+003,-2.520731e-003
2.046136e+003,-2.487096e-003
2.048064e+003,-2.443211e-003
2.049993e+003,-2.446374e-003
2.051921e+003,-2.474412e-003
2.053850e+003,-2.399421e-003
2.055778e+003,-2.375366e-003
2.057707e+003,-2.338292e-003
2.059635e+003,-2.352298e-003
2.061564e+003,-2.337468e-003
2.063492e+003,-2.427626e-003
2.065421e+003,-2.497803e-003
2.067349e+003,-2.355297e-003
2.069278e+003,-2.315683e-003
2.071206e+003,-2.310113e-003
2.073135e+003,-2.216700e-003
2.075063e+003,-2.093458e-003
2.076992e+003,-2.033341e-003
2.078920e+003,-2.150599e-003
2.080849e+003,-2.135927e-003
2.082777e+003,-2.100877e-003
2.084706e+003,-2.168732e-003
2.086634e+003,-2.302698e-003
2.088563e+003,-2.268254e-003
2.090491e+003,-2.117990e-003
2.092420e+003,-2.041981e-003
2.094348e+003,-1.994885e-003
2.096277e+003,-1.967740e-003
2.098205e+003,-1.898038e-003
2.100134e+003,-1.791766e-003
2.102062e+003,-1.731112e-003
2.103991e+003,-1.783286e-003
2.105919e+003,-1.747052e-003
2.107848e+003,-1.617537e-003
2.109776e+003,-1.573564e-003
2.111705e+003,-1.590731e-003
2.113633e+003,-1.544610e-003
2.115562e+003,-1.458197e-003
2.117490e+003,-1.421705e-003
2.119419e+003,-1.358952e-003
2.121347e+003,-1.340256e-003
2.123276e+003,-1.359579e-003
2.125204e+003,-1.275509e-003
2.127133e+003,-1.164292e-003
2.129061e+003,-1.016323e-003
2.130990e+003,-1.001513e-003
2.132918e+003,-1.100113e-003
2.134847e+003,-1.165746e-003
2.136775e+003,-1.079490e-003
2.138704e+003,-9.693802e-004
2.140632e+003,-9.481551e-004
2.142561e+003,-9.943399e-004
2.144489e+003,-1.072978e-003
2.146418e+003,-1.088347e-003
2.148346e+003,-9.630326e-004
2.150275e+003,-9.303674e-004
2.152203e+003,-9.397242e-004
2.154132e+003,-9.587017e-004
2.156060e+003,-9.731160e-004
2.157989e+003,-9.487171e-004
2.159917e+003,-9.657766e-004
2.161846e+003,-1.028322e-003
2.163774e+003,-1.028884e-003
2.165703e+003,-9.643881e-004
2.167631e+003,-9.497420e-004
2.169560e+003,-9.252096e-004
2.171488e+003,-8.909544e-004
2.173417e+003,-9.353930e-004
2.175345e+003,-9.935135e-004
2.177274e+003,-9.245483e-004
2.179202e+003,-8.441964e-004
2.181131e+003,-9.205145e-004
2.183059e+003,-1.029446e-003
2.184988e+003,-9.915299e-004
2.186916e+003,-9.091404e-004
2.188845e+003,-9.451134e-004
2.190773e+003,-9.980093e-004
2.192702e+003,-1.017150e-003
2.194630e+003,-9.797279e-004
2.196559e+003,-8.820264e-004
2.198487e+003,-8.275620e-004
2.200416e+003,-8.454861e-004
2.202344e+003,-8.452216e-004
2.204273e+003,-8.334155e-004
2.206201e+003,-8.373840e-004
2.208130e+003,-8.246187e-004
2.210058e+003,-8.495867e-004
2.211987e+003,-8.375824e-004
2.213915e+003,-8.538195e-004
2.215844e+003,-7.891319e-004
2.217772e+003,-7.490113e-004
2.219701e+003,-8.025597e-004
2.221629e+003,-8.508764e-004
2.223558e+003,-8.736936e-004
2.225486e+003,-7.878089e-004
2.227415e+003,-6.930416e-004
2.229343e+003,-7.046199e-004
2.231272e+003,-7.396174e-004
2.233200e+003,-7.141799e-004
2.235129e+003,-7.005178e-004
2.237057e+003,-7.390882e-004
2.238986e+003,-7.696840e-004
2.240914e+003,-8.046763e-004
2.242843e+003,-7.819879e-004
2.244771e+003,-7.784819e-004
2.246700e+003,-8.381446e-004
2.248628e+003,-8.420799e-004
2.250557e+003,-9.712316e-004
2.252485e+003,-9.657105e-004
2.254414e+003,-9.043460e-004
2.256342e+003,-8.888051e-004
2.258271e+003,-9.102977e-004
2.260199e+003,-9.737111e-004
2.262128e+003,-9.776121e-004
2.264056e+003,-9.630657e-004
2.265985e+003,-9.913316e-004
2.267913e+003,-1.039429e-003
2.269842e+003,-9.852488e-004
2.271770e+003,-9.247136e-004
2.273699e+003,-1.045709e-003
2.275627e+003,-1.175792e-003
2.277556e+003,-1.156493e-003
2.279484e+003,-1.108045e-003
2.281413e+003,-1.047032e-003
2.283341e+003,-1.183293e-003
2.285270e+003,-1.238208e-003
2.287198e+003,-1.132105e-003
2.289127e+003,-1.063063e-003
2.291055e+003,-1.060286e-003
2.292984e+003,-1.001414e-003
2.294912e+003,-9.782733e-004
2.296841e+003,-9.118186e-004
2.298769e+003,-6.931408e-004
2.300698e+003,-5.013929e-004
2.302626e+003,-3.039647e-004
2.304555e+003,-1.732565e-004
2.306483e+003,7.107833e-005
2.308412e+003,4.113551e-004
2.310340e+003,8.138383e-004
2.312269e+003,1.325427e-003
2.314197e+003,1.891727e-003
2.316125e+003,2.564611e-003
2.318054e+003,3.195578e-003
2.319983e+003,3.790293e-003
2.321911e+003,4.535563e-003
2.323840e+003,5.306330e-003
2.325768e+003,5.749671e-003
2.327697e+003,6.295752e-003
2.329625e+003,7.148028e-003
2.331553e+003,7.522249e-003
2.333482e+003,7.582262e-003
2.335411e+003,7.798243e-003
2.337339e+003,8.065501e-003
2.339268e+003,8.167691e-003
2.341196e+003,7.922674e-003
2.343125e+003,7.293061e-003
2.345053e+003,6.045002e-003
2.346981e+003,4.072421e-003
2.348910e+003,2.828967e-003
2.350839e+003,4.170095e-003
2.352767e+003,6.867700e-003
2.354696e+003,9.003692e-003
2.356624e+003,1.033993e-002
2.358552e+003,1.101778e-002
2.360481e+003,1.122035e-002
2.362409e+003,1.115860e-002
2.364338e+003,1.082587e-002
2.366267e+003,1.013061e-002
2.368195e+003,9.131683e-003
2.370124e+003,7.888526e-003
2.372052e+003,6.415078e-003
2.373980e+003,4.901909e-003
2.375909e+003,3.375693e-003
2.377838e+003,1.995636e-003
2.379766e+003,1.042620e-003
2.381695e+003,4.438916e-004
2.383623e+003,1.113778e-004
2.385552e+003,-9.531617e-005
2.387480e+003,-2.087937e-004
2.389408e+003,-1.445729e-004
2.391337e+003,-9.147345e-005
2.393266e+003,-1.433805e-004
2.395194e+003,-1.661686e-004
2.397123e+003,-5.542971e-005
2.399051e+003,6.067266e-005
2.400979e+003,1.209229e-004
2.402908e+003,8.546110e-005
2.404836e+003,7.720917e-005
2.406765e+003,7.078008e-005
2.408694e+003,3.562055e-005
2.410622e+003,4.065737e-005
2.412551e+003,1.207241e-004
2.414479e+003,2.558701e-004
2.416407e+003,2.559696e-004
2.418336e+003,2.759617e-004
2.420264e+003,2.596165e-004
2.422193e+003,2.225521e-004
2.424122e+003,3.275872e-004
2.426050e+003,4.681048e-004
2.427979e+003,5.039960e-004
2.429907e+003,4.955039e-004
2.431835e+003,5.148767e-004
2.433764e+003,5.980834e-004
2.435692e+003,6.961073e-004
2.437621e+003,6.795141e-004
2.439550e+003,6.382659e-004
2.441478e+003,6.402901e-004
2.443406e+003,6.659744e-004
2.445335e+003,7.628187e-004
2.447263e+003,7.810417e-004
2.449192e+003,8.206103e-004
2.451121e+003,9.020163e-004
2.453049e+003,9.543140e-004
2.454978e+003,9.899465e-004
2.456906e+003,1.029368e-003
2.458834e+003,1.043351e-003
2.460763e+003,1.031693e-003
2.462691e+003,9.962565e-004
2.464620e+003,1.066800e-003
2.466549e+003,1.170445e-003
2.468477e+003,1.190845e-003
2.470406e+003,1.139017e-003
2.472334e+003,1.109817e-003
2.474262e+003,1.185263e-003
2.476191e+003,1.238293e-003
2.478119e+003,1.200082e-003
2.480048e+003,1.175695e-003
2.481977e+003,1.311302e-003
2.483905e+003,1.341912e-003
2.485833e+003,1.295051e-003
2.487762e+003,1.327820e-003
2.489690e+003,1.337026e-003
2.491619e+003,1.430164e-003
2.493547e+003,1.521892e-003
2.495476e+003,1.617697e-003
2.497405e+003,1.648628e-003
2.499333e+003,1.562493e-003
2.501261e+003,1.397820e-003
2.503190e+003,1.392402e-003
2.505118e+003,1.471986e-003
2.507047e+003,1.486116e-003
2.508975e+003,1.448681e-003
2.510904e+003,1.430264e-003
2.512833e+003,1.495027e-003
2.514761e+003,1.549225e-003
2.516689e+003,1.592455e-003
2.518618e+003,1.710862e-003
2.520546e+003,1.797758e-003
2.522475e+003,1.703876e-003
2.524403e+003,1.592455e-003
2.526332e+003,1.603962e-003
2.528260e+003,1.642076e-003
2.530189e+003,1.652120e-003
2.532117e+003,1.707868e-003
2.534046e+003,1.717714e-003
2.535974e+003,1.793067e-003
2.537903e+003,1.723469e-003
2.539831e+003,1.745060e-003
2.541760e+003,1.800220e-003
2.543688e+003,1.806642e-003
2.545617e+003,1.891161e-003
2.547545e+003,1.962949e-003
2.549474e+003,1.969307e-003
2.551402e+003,1.968907e-003
2.553331e+003,1.990044e-003
2.555259e+003,1.987680e-003
2.557188e+003,2.005822e-003
2.559116e+003,1.997067e-003
2.561045e+003,2.033551e-003
2.562973e+003,2.054657e-003
2.564902e+003,2.140990e-003
2.566830e+003,2.232934e-003
2.568759e+003,2.208023e-003
2.570687e+003,2.193503e-003
2.572616e+003,2.205525e-003
2.574544e+003,2.245590e-003
2.576473e+003,2.210488e-003
2.578401e+003,2.191638e-003
2.580330e+003,2.210387e-003
2.582258e+003,2.202428e-003
2.584187e+003,2.229304e-003
2.586115e+003,2.249188e-003
2.588044e+003,2.211520e-003
2.589972e+003,2.263909e-003
2.591901e+003,2.330062e-003
2.593829e+003,2.370405e-003
2.595758e+003,2.315438e-003
2.597686e+003,2.282562e-003
2.599615e+003,2.289823e-003
2.601543e+003,2.344920e-003
2.603472e+003,2.331728e-003
2.605400e+003,2.280563e-003
2.607329e+003,2.289023e-003
2.609257e+003,2.365641e-003
2.611186e+003,2.443372e-003
2.613114e+003,2.496656e-003
2.615043e+003,2.495156e-003
2.616971e+003,2.428944e-003
2.618900e+003,2.462365e-003
2.620828e+003,2.490157e-003
2.622757e+003,2.582343e-003
2.624685e+003,2.609976e-003
2.626614e+003,2.551612e-003
2.628542e+003,2.578510e-003
2.630471e+003,2.619443e-003
2.632399e+003,2.595276e-003
2.634328e+003,2.559345e-003
2.636256e+003,2.629143e-003
2.638185e+003,2.776276e-003
2.640113e+003,2.795784e-003
2.642042e+003,2.731061e-003
2.643970e+003,2.827633e-003
2.645899e+003,2.870257e-003
2.647827e+003,2.918522e-003
2.649756e+003,3.017405e-003
2.651684e+003,3.041162e-003
2.653613e+003,3.014102e-003
2.655541e+003,3.014469e-003
2.657470e+003,3.034922e-003
2.659398e+003,3.091082e-003
2.661327e+003,3.152889e-003
2.663255e+003,3.202521e-003
2.665184e+003,3.173014e-003
2.667112e+003,3.237237e-003
2.669041e+003,3.350917e-003
2.670969e+003,3.363973e-003
2.672898e+003,3.309948e-003
2.674826e+003,3.332753e-003
2.676755e+003,3.336860e-003
2.678683e+003,3.341467e-003
2.680612e+003,3.390052e-003
2.682540e+003,3.407150e-003
2.684469e+003,3.419173e-003
2.686397e+003,3.564870e-003
2.688326e+003,3.628449e-003
2.690254e+003,3.809914e-003
2.692183e+003,3.852033e-003
2.694111e+003,3.696180e-003
2.696040e+003,3.625976e-003
2.697968e+003,3.699990e-003
2.699897e+003,3.794371e-003
2.701825e+003,3.748414e-003
2.703754e+003,3.812354e-003
2.705682e+003,3.976909e-003
2.707611e+003,3.970623e-003
2.709539e+003,3.951329e-003
2.711468e+003,3.961460e-003
2.713396e+003,4.022890e-003
2.715325e+003,4.155977e-003
2.717253e+003,4.134736e-003
2.719182e+003,4.112524e-003
2.721110e+003,4.126808e-003
2.723039e+003,4.206761e-003
2.724967e+003,4.348105e-003
2.726896e+003,4.428434e-003
2.728824e+003,4.438610e-003
2.730753e+003,4.473693e-003
2.732681e+003,4.529838e-003
2.734610e+003,4.592854e-003
2.736538e+003,4.576413e-003
2.738467e+003,4.600054e-003
2.740395e+003,4.710005e-003
2.742324e+003,4.743971e-003
2.744252e+003,4.846587e-003
2.746181e+003,5.022059e-003
2.748109e+003,5.040931e-003
2.750038e+003,5.044082e-003
2.751966e+003,5.117936e-003
2.753895e+003,5.204309e-003
2.755823e+003,5.288084e-003
2.757752e+003,5.379288e-003
2.759680e+003,5.505813e-003
2.761609e+003,5.651474e-003
2.763537e+003,5.914021e-003
2.765466e+003,6.176190e-003
2.767394e+003,6.390430e-003
2.769323e+003,6.543587e-003
2.771251e+003,6.767297e-003
2.773180e+003,7.082551e-003
2.775108e+003,7.388833e-003
2.777037e+003,7.613924e-003
2.778965e+003,7.848983e-003
2.780894e+003,8.309316e-003
2.782822e+003,8.858560e-003
2.784750e+003,9.311773e-003
2.786679e+003,9.633351e-003
2.788608e+003,9.866354e-003
2.790536e+003,1.024343e-002
2.792465e+003,1.071908e-002
2.794393e+003,1.104660e-002
2.796322e+003,1.136576e-002
2.798250e+003,1.170102e-002
2.800178e+003,1.192645e-002
2.802107e+003,1.227410e-002
2.804036e+003,1.254099e-002
2.805964e+003,1.257431e-002
2.807893e+003,1.272250e-002
2.809821e+003,1.282118e-002
2.811750e+003,1.284374e-002
2.813678e+003,1.272154e-002
2.815606e+003,1.261568e-002
2.817535e+003,1.250873e-002
2.819464e+003,1.236204e-002
2.821392e+003,1.222492e-002
2.823321e+003,1.198513e-002
2.825249e+003,1.173019e-002
2.827177e+003,1.143399e-002
2.829106e+003,1.105316e-002
2.831034e+003,1.064200e-002
2.832963e+003,1.024438e-002
2.834892e+003,1.002386e-002
2.836820e+003,9.724186e-003
2.838749e+003,9.343797e-003
2.840677e+003,8.835632e-003
2.842605e+003,8.381092e-003
2.844534e+003,8.004713e-003
2.846462e+003,7.513652e-003
2.848391e+003,6.934053e-003
2.850320e+003,6.593036e-003
2.852248e+003,6.485432e-003
2.854177e+003,6.454592e-003
2.856105e+003,6.536422e-003
2.858033e+003,6.541972e-003
2.859962e+003,6.564745e-003
2.861890e+003,6.498348e-003
2.863819e+003,6.426378e-003
2.865748e+003,6.503056e-003
2.867676e+003,6.619176e-003
2.869604e+003,6.724222e-003
2.871533e+003,6.661164e-003
2.873461e+003,6.635291e-003
2.875390e+003,6.726948e-003
2.877319e+003,6.817142e-003
2.879247e+003,6.945197e-003
2.881176e+003,6.974994e-003
2.883104e+003,6.958563e-003
2.885032e+003,7.045540e-003
2.886961e+003,7.069383e-003
2.888889e+003,6.971729e-003
2.890818e+003,6.801492e-003
2.892747e+003,6.590446e-003
2.894675e+003,6.509345e-003
2.896604e+003,6.553106e-003
2.898532e+003,6.532218e-003
2.900460e+003,6.425268e-003
2.902389e+003,6.325001e-003
2.904317e+003,6.191012e-003
2.906246e+003,6.136063e-003
2.908175e+003,6.035494e-003
2.910103e+003,5.887319e-003
2.912031e+003,5.721334e-003
2.913960e+003,5.389587e-003
2.915888e+003,5.102849e-003
2.917817e+003,5.030875e-003
2.919745e+003,5.213095e-003
2.921674e+003,5.477291e-003
2.923603e+003,5.693536e-003
2.925531e+003,5.776768e-003
2.927459e+003,5.815619e-003
2.929388e+003,5.903508e-003
2.931316e+003,6.038853e-003
2.933245e+003,6.150951e-003
2.935173e+003,6.220321e-003
2.937102e+003,6.188424e-003
2.939031e+003,6.115161e-003
2.940959e+003,6.067614e-003
2.942887e+003,5.982782e-003
2.944816e+003,5.813503e-003
2.946744e+003,5.731809e-003
2.948673e+003,5.603675e-003
2.950601e+003,5.254478e-003
2.952530e+003,4.930963e-003
2.954458e+003,4.544637e-003
2.956387e+003,4.170596e-003
2.958315e+003,3.959086e-003
2.960244e+003,3.587655e-003
2.962172e+003,3.160698e-003
2.964101e+003,2.856582e-003
2.966029e+003,2.659746e-003
2.967958e+003,2.472429e-003
2.969886e+003,2.205392e-003
2.971815e+003,1.963915e-003
2.973743e+003,1.776232e-003
2.975672e+003,1.542574e-003
2.977600e+003,1.469127e-003
2.979529e+003,1.405631e-003
2.981457e+003,1.267768e-003
2.983386e+003,1.198520e-003
2.985314e+003,1.080552e-003
2.987243e+003,1.007648e-003
2.989171e+003,9.677298e-004
2.991100e+003,7.664367e-004
2.993028e+003,6.830982e-004
2.994957e+003,7.370622e-004
2.996885e+003,7.197373e-004
2.998814e+003,6.310653e-004
3.000742e+003,6.385313e-004
3.002671e+003,6.180581e-004
3.004599e+003,5.117253e-004
3.006528e+003,6.525347e-004
3.008456e+003,6.990942e-004
3.010385e+003,5.540894e-004
3.012313e+003,4.362298e-004
3.014242e+003,4.119520e-004
3.016170e+003,4.198787e-004
3.018099e+003,3.904945e-004
3.020027e+003,3.273220e-004
3.021956e+003,3.251335e-004
3.023884e+003,3.254982e-004
3.025813e+003,3.731170e-004
3.027741e+003,2.938658e-004
3.029670e+003,2.388295e-004
3.031598e+003,2.627661e-004
3.033527e+003,2.620699e-004
3.035455e+003,2.817970e-004
3.037384e+003,2.612410e-004
3.039312e+003,2.386969e-004
3.041241e+003,1.781983e-004
3.043169e+003,8.625647e-005
3.045098e+003,6.643883e-005
3.047026e+003,8.453316e-005
3.048955e+003,3.164416e-005
3.050883e+003,-4.462926e-005
3.052812e+003,1.935071e-005
3.054740e+003,-1.149736e-005
3.056669e+003,2.133884e-005
3.058597e+003,2.799917e-005
3.060526e+003,-8.272782e-005
3.062454e+003,-1.618627e-004
3.064383e+003,-2.388970e-004
3.066311e+003,-2.316114e-004
3.068240e+003,-9.435549e-005
3.070168e+003,-1.155893e-004
3.072097e+003,-2.719122e-004
3.074025e+003,-2.759189e-004
3.075954e+003,-2.420761e-004
3.077882e+003,-2.509841e-004
3.079811e+003,-2.054487e-004
3.081739e+003,-2.694949e-004
3.083668e+003,-3.349222e-004
3.085596e+003,-4.226178e-004
3.087525e+003,-4.336736e-004
3.089453e+003,-3.935865e-004
3.091382e+003,-3.676322e-004
3.093310e+003,-2.991967e-004
3.095239e+003,-2.639649e-004
3.097167e+003,-3.632953e-004
3.099096e+003,-4.377782e-004
3.101024e+003,-4.814357e-004
3.102953e+003,-5.557329e-004
3.104881e+003,-6.030845e-004
3.106810e+003,-4.301649e-004
3.108738e+003,-3.924610e-004
3.110667e+003,-4.323496e-004
3.112595e+003,-4.324489e-004
3.114524e+003,-4.965609e-004
3.116452e+003,-6.019595e-004
3.118381e+003,-5.576522e-004
3.120309e+003,-5.055299e-004
3.122238e+003,-4.929535e-004
3.124166e+003,-4.612459e-004
3.126095e+003,-5.402126e-004
3.128023e+003,-6.754089e-004
3.129952e+003,-7.115005e-004
3.131880e+003,-7.164624e-004
3.133809e+003,-5.633108e-004
3.135737e+003,-4.788872e-004
3.137666e+003,-4.822301e-004
3.139594e+003,-4.178180e-004
3.141523e+003,-4.200358e-004
3.143451e+003,-4.055369e-004
3.145380e+003,-3.801461e-004
3.147308e+003,-4.653832e-004
3.149237e+003,-5.758852e-004
3.151165e+003,-5.020880e-004
3.153094e+003,-4.145078e-004
3.155022e+003,-4.117934e-004
3.156951e+003,-4.362224e-004
3.158879e+003,-4.174539e-004
3.160808e+003,-2.550572e-004
3.162736e+003,-1.886243e-004
3.164665e+003,-2.923757e-004
3.166593e+003,-4.058018e-004
3.168522e+003,-4.425777e-004
3.170450e+003,-4.239750e-004
3.172379e+003,-4.353287e-004
3.174307e+003,-4.654494e-004
3.176236e+003,-4.052390e-004
3.178164e+003,-3.863698e-004
3.180093e+003,-3.753458e-004
3.182021e+003,-4.269210e-004
3.183950e+003,-4.287747e-004
3.185878e+003,-3.771666e-004
3.187807e+003,-3.306843e-004
3.189735e+003,-2.582693e-004
3.191664e+003,-2.786341e-004
3.193592e+003,-3.544889e-004
3.195521e+003,-3.560449e-004
3.197449e+003,-3.816027e-004
3.199378e+003,-4.311911e-004
3.201306e+003,-3.805764e-004
3.203235e+003,-2.550572e-004
3.205163e+003,-2.832699e-004
3.207092e+003,-3.148580e-004
3.209020e+003,-1.863390e-004
3.210948e+003,-2.925637e-005
3.212877e+003,5.460833e-005
3.214806e+003,-8.925393e-005
3.216734e+003,-2.659186e-004
3.218663e+003,-2.527723e-004
3.220591e+003,-1.796156e-004
3.222520e+003,-2.882566e-005
3.224448e+003,1.759453e-005
3.226376e+003,4.572738e-005
3.228305e+003,4.052482e-005
3.230234e+003,7.276845e-005
3.232162e+003,1.893360e-004
3.234091e+003,3.822036e-004
3.236019e+003,3.394252e-004
3.237948e+003,2.511955e-004
3.239876e+003,5.054224e-004
3.241804e+003,8.218386e-004
3.243733e+003,8.391677e-004
3.245662e+003,7.617566e-004
3.247590e+003,8.558999e-004
3.249519e+003,9.091550e-004
3.251447e+003,9.380098e-004
3.253375e+003,8.753220e-004
3.255304e+003,9.828066e-004
3.257232e+003,1.204833e-003
3.259161e+003,1.222277e-003
3.261090e+003,1.240087e-003
3.263018e+003,1.314393e-003
3.264947e+003,1.289202e-003
3.266875e+003,1.229089e-003
3.268803e+003,1.352149e-003
3.270732e+003,1.369034e-003
3.272660e+003,1.312366e-003
3.274589e+003,1.306018e-003
3.276518e+003,1.315689e-003
3.278446e+003,1.382396e-003
3.280375e+003,1.528509e-003
3.282303e+003,1.458621e-003
3.284231e+003,1.475278e-003
3.286160e+003,1.428702e-003
3.288088e+003,1.333969e-003
3.290017e+003,1.223174e-003
3.291946e+003,1.293622e-003
3.293874e+003,1.291063e-003
3.295802e+003,1.178519e-003
3.297731e+003,1.097094e-003
3.299659e+003,1.041823e-003
3.301588e+003,9.363494e-004
3.303516e+003,8.105186e-004
3.305445e+003,7.677976e-004
3.307374e+003,7.769921e-004
3.309302e+003,5.655686e-004
3.311230e+003,3.982549e-004
3.313159e+003,3.929154e-004
3.315087e+003,3.241056e-004
3.317016e+003,3.155507e-004
3.318944e+003,2.401556e-004
3.320873e+003,9.079676e-005
3.322802e+003,-1.139796e-005
3.324730e+003,-6.864830e-005
3.326658e+003,-1.607366e-004
3.328587e+003,-3.688240e-004
3.330515e+003,-5.064897e-004
3.332444e+003,-6.344178e-004
3.334372e+003,-5.738336e-004
3.336301e+003,-5.168484e-004
3.338229e+003,-5.677119e-004
3.340158e+003,-6.404723e-004
3.342086e+003,-6.378917e-004
3.344015e+003,-6.664104e-004
3.345943e+003,-7.501360e-004
3.347872e+003,-8.081820e-004
3.349800e+003,-8.506450e-004
3.351729e+003,-1.027694e-003
3.353657e+003,-1.091950e-003
3.355586e+003,-1.019794e-003
3.357514e+003,-1.052320e-003
3.359443e+003,-1.248087e-003
3.361371e+003,-1.365525e-003
3.363300e+003,-1.209066e-003
3.365229e+003,-1.222977e-003
3.367157e+003,-1.553623e-003
3.369085e+003,-1.878706e-003
3.371014e+003,-1.768700e-003
3.372942e+003,-1.649622e-003
3.374871e+003,-1.809848e-003
3.376799e+003,-1.802820e-003
3.378728e+003,-1.864454e-003
3.380656e+003,-2.068957e-003
3.382585e+003,-2.179546e-003
3.384513e+003,-2.136949e-003
3.386442e+003,-2.246103e-003
3.388370e+003,-2.384362e-003
3.390299e+003,-2.465253e-003
3.392227e+003,-2.436127e-003
3.394156e+003,-2.399783e-003
3.396084e+003,-2.290799e-003
3.398013e+003,-2.402584e-003
3.399941e+003,-2.623301e-003
3.401870e+003,-2.669737e-003
3.403798e+003,-2.636607e-003
3.405727e+003,-2.481627e-003
3.407655e+003,-2.465616e-003
3.409584e+003,-2.560392e-003
3.411512e+003,-2.606900e-003
3.413441e+003,-2.696443e-003
3.415369e+003,-2.701053e-003
3.417298e+003,-2.732136e-003
3.419226e+003,-2.746953e-003
3.421155e+003,-2.726802e-003
3.423083e+003,-2.697760e-003
3.425012e+003,-2.607987e-003
3.426940e+003,-2.540859e-003
3.428869e+003,-2.597282e-003
3.430797e+003,-2.675236e-003
3.432726e+003,-2.719525e-003
3.434654e+003,-2.655543e-003
3.436583e+003,-2.859049e-003
3.438511e+003,-3.005799e-003
3.440440e+003,-2.905985e-003
3.442368e+003,-3.004878e-003
3.444297e+003,-3.069598e-003
3.446225e+003,-3.050087e-003
3.448154e+003,-2.956899e-003
3.450082e+003,-2.906446e-003
3.452011e+003,-2.928168e-003
3.453939e+003,-2.996717e-003
3.455868e+003,-3.175657e-003
3.457796e+003,-3.144309e-003
3.459725e+003,-3.150526e-003
3.461653e+003,-3.035117e-003
3.463582e+003,-2.976874e-003
3.465510e+003,-3.196872e-003
3.467439e+003,-3.322465e-003
3.469367e+003,-3.262123e-003
3.471296e+003,-3.108979e-003
3.473224e+003,-3.079205e-003
3.475153e+003,-3.207167e-003
3.477081e+003,-3.306846e-003
3.479010e+003,-3.237359e-003
3.480938e+003,-3.200720e-003
3.482867e+003,-3.248409e-003
3.484795e+003,-3.132105e-003
3.486724e+003,-3.163815e-003
3.488652e+003,-3.263636e-003
3.490581e+003,-3.182038e-003
3.492509e+003,-3.237359e-003
3.494438e+003,-3.345021e-003
3.496366e+003,-3.286688e-003
3.498295e+003,-3.334729e-003
3.500223e+003,-3.262123e-003
3.502152e+003,-3.205161e-003
3.504080e+003,-3.279289e-003
3.506009e+003,-3.263406e-003
3.507937e+003,-3.265214e-003
3.509866e+003,-3.340812e-003
3.511794e+003,-3.322761e-003
3.513723e+003,-3.462485e-003
3.515651e+003,-3.434445e-003
3.517580e+003,-3.205095e-003
3.519508e+003,-3.181314e-003
3.521437e+003,-3.300763e-003
3.523365e+003,-3.413340e-003
3.525294e+003,-3.490786e-003
3.527222e+003,-3.413241e-003
3.529151e+003,-3.406107e-003
3.531079e+003,-3.507844e-003
3.533008e+003,-3.404135e-003
3.534936e+003,-3.348901e-003
3.536865e+003,-3.394469e-003
3.538793e+003,-3.491246e-003
3.540722e+003,-3.588099e-003
3.542650e+003,-3.552114e-003
3.544579e+003,-3.275277e-003
3.546507e+003,-2.956997e-003
3.548436e+003,-3.039164e-003
3.550364e+003,-3.148717e-003
3.552293e+003,-3.015572e-003
3.554221e+003,-3.083482e-003
3.556150e+003,-3.316382e-003
3.558078e+003,-3.334105e-003
3.560007e+003,-3.371455e-003
3.561935e+003,-3.344561e-003
3.563864e+003,-3.174210e-003
3.565792e+003,-3.007313e-003
3.567721e+003,-3.184011e-003
3.569649e+003,-3.360080e-003
3.571578e+003,-3.268865e-003
3.573506e+003,-3.196346e-003
3.575435e+003,-3.196346e-003
3.577363e+003,-3.172631e-003
3.579292e+003,-3.287477e-003
3.581220e+003,-3.333414e-003
3.583149e+003,-3.152664e-003
3.585077e+003,-2.986779e-003
3.587006e+003,-2.871754e-003
3.588934e+003,-3.007543e-003
3.590863e+003,-3.216080e-003
3.592791e+003,-3.144210e-003
3.594720e+003,-2.923791e-003
3.596648e+003,-2.868298e-003
3.598577e+003,-3.132467e-003
3.600505e+003,-3.162434e-003
3.602434e+003,-3.057589e-003
3.604362e+003,-3.078744e-003
3.606291e+003,-3.012446e-003
3.608219e+003,-2.737042e-003
3.610148e+003,-2.789490e-003
3.612076e+003,-2.991551e-003
3.614005e+003,-3.146316e-003
3.615933e+003,-3.084732e-003
3.617862e+003,-3.003232e-003
3.619790e+003,-3.086114e-003
3.621719e+003,-3.257815e-003
3.623647e+003,-3.394371e-003
3.625576e+003,-3.332230e-003
3.627504e+003,-2.789721e-003
3.629433e+003,-2.507917e-003
3.631361e+003,-3.016098e-003
3.633290e+003,-3.140855e-003
3.635218e+003,-3.055385e-003
3.637146e+003,-3.020672e-003
3.639075e+003,-2.948276e-003
3.641004e+003,-3.129703e-003
3.642932e+003,-3.393089e-003
3.644861e+003,-3.455352e-003
3.646789e+003,-3.145230e-003
3.648718e+003,-2.949494e-003
3.650646e+003,-3.087858e-003
3.652574e+003,-3.250218e-003
3.654503e+003,-3.178946e-003
3.656432e+003,-3.034228e-003
3.658360e+003,-3.256269e-003
3.660289e+003,-3.403477e-003
3.662217e+003,-3.377636e-003
3.664146e+003,-3.434971e-003
3.666074e+003,-3.616753e-003
3.668002e+003,-3.691075e-003
3.669931e+003,-3.676257e-003
3.671860e+003,-3.642744e-003
3.673788e+003,-3.463471e-003
3.675717e+003,-3.246272e-003
3.677645e+003,-3.499266e-003
3.679573e+003,-3.522634e-003
3.681502e+003,-3.488978e-003
3.683430e+003,-3.538246e-003
3.685359e+003,-3.613632e-003
3.687288e+003,-3.349591e-003
3.689216e+003,-3.063281e-003
3.691145e+003,-3.137138e-003
3.693073e+003,-3.319900e-003
3.695001e+003,-3.286195e-003
3.696930e+003,-3.048804e-003
3.698858e+003,-2.986483e-003
3.700787e+003,-2.997079e-003
3.702716e+003,-3.036696e-003
3.704644e+003,-3.207857e-003
3.706573e+003,-3.274356e-003
3.708501e+003,-3.347684e-003
3.710429e+003,-3.162697e-003
3.712358e+003,-3.044099e-003
3.714286e+003,-3.432078e-003
3.716215e+003,-3.422840e-003
3.718144e+003,-3.155756e-003
3.720072e+003,-3.091082e-003
3.722000e+003,-3.112071e-003
3.723929e+003,-3.162236e-003
3.725857e+003,-3.169276e-003
3.727786e+003,-3.312041e-003
3.729714e+003,-3.196872e-003
3.731643e+003,-2.882550e-003
3.733572e+003,-2.765490e-003
3.735500e+003,-2.714455e-003
3.737428e+003,-2.930176e-003
3.739357e+003,-3.180032e-003
3.741285e+003,-3.247949e-003
3.743214e+003,-2.813226e-003
3.745142e+003,-2.335721e-003
3.747071e+003,-2.711623e-003
3.749000e+003,-2.586940e-003
3.750928e+003,-2.594911e-003
3.752856e+003,-2.732960e-003
3.754785e+003,-2.921158e-003
3.756713e+003,-2.951304e-003
3.758642e+003,-2.860135e-003
3.760570e+003,-2.585030e-003
3.762499e+003,-2.621819e-003
3.764427e+003,-2.849108e-003
3.766356e+003,-2.802428e-003
3.768284e+003,-2.682645e-003
3.770213e+003,-2.590959e-003
3.772141e+003,-2.770428e-003
3.774070e+003,-2.747941e-003
3.775998e+003,-2.636739e-003
3.777927e+003,-2.595207e-003
3.779855e+003,-2.520171e-003
3.781784e+003,-2.659660e-003
3.783712e+003,-2.793408e-003
3.785641e+003,-2.742574e-003
3.787569e+003,-2.682118e-003
3.789498e+003,-2.830641e-003
3.791426e+003,-2.948671e-003
3.793355e+003,-2.927148e-003
3.795283e+003,-2.880444e-003
3.797212e+003,-2.706157e-003
3.799140e+003,-2.508740e-003
3.801069e+003,-2.468844e-003
3.802997e+003,-2.824419e-003
3.804926e+003,-2.704971e-003
3.806854e+003,-2.378200e-003
3.808783e+003,-2.670395e-003
3.810711e+003,-2.873400e-003
3.812640e+003,-2.815531e-003
3.814568e+003,-2.739907e-003
3.816497e+003,-2.373982e-003
3.818425e+003,-2.330316e-003
3.820354e+003,-2.135663e-003
3.822282e+003,-2.135465e-003
3.824211e+003,-2.604726e-003
3.826139e+003,-2.705399e-003
3.828068e+003,-2.623664e-003
3.829996e+003,-2.603310e-003
3.831925e+003,-2.592144e-003
3.833853e+003,-2.640625e-003
3.835782e+003,-2.664830e-003
3.837710e+003,-2.381693e-003
3.839639e+003,-2.296435e-003
3.841567e+003,-2.403079e-003
3.843496e+003,-2.317067e-003
3.845424e+003,-2.405781e-003
3.847353e+003,-2.673326e-003
3.849281e+003,-2.708429e-003
3.851210e+003,-2.378727e-003
3.853138e+003,-1.837168e-003
3.855067e+003,-2.049863e-003
3.856995e+003,-2.553804e-003
3.858924e+003,-2.717780e-003
3.860852e+003,-2.422223e-003
3.862781e+003,-2.139587e-003
3.864709e+003,-2.171667e-003
3.866638e+003,-2.496650e-003
3.868566e+003,-2.564378e-003
3.870495e+003,-2.529131e-003
3.872423e+003,-2.605319e-003
3.874352e+003,-2.450130e-003
3.876280e+003,-2.423244e-003
3.878209e+003,-2.464034e-003
3.880137e+003,-2.470393e-003
3.882066e+003,-2.616714e-003
3.883994e+003,-2.634334e-003
3.885923e+003,-2.354044e-003
3.887851e+003,-2.422124e-003
3.889780e+003,-2.330415e-003
3.891708e+003,-2.216996e-003
3.893637e+003,-2.384889e-003
3.895565e+003,-2.491148e-003
3.897494e+003,-2.507455e-003
3.899422e+003,-2.472205e-003
3.901351e+003,-2.609732e-003
3.903279e+003,-2.562500e-003
3.905208e+003,-2.344125e-003
3.907136e+003,-2.623796e-003
3.909065e+003,-2.796140e-003
3.910993e+003,-2.676125e-003
3.912922e+003,-2.503502e-003
3.914850e+003,-2.432602e-003
3.916779e+003,-2.570932e-003
3.918707e+003,-2.612960e-003
3.920636e+003,-2.620897e-003
3.922564e+003,-2.389074e-003
3.924493e+003,-2.235028e-003
3.926421e+003,-2.430197e-003
3.928350e+003,-2.690516e-003
3.930278e+003,-2.903648e-003
3.932207e+003,-2.854210e-003
3.934135e+003,-2.809835e-003
3.936064e+003,-2.847462e-003
3.937992e+003,-2.739973e-003
3.939921e+003,-2.741092e-003
3.941849e+003,-2.788305e-003
3.943778e+003,-2.701942e-003
3.945706e+003,-2.619415e-003
3.947635e+003,-2.584371e-003
3.949563e+003,-2.603211e-003
3.951492e+003,-2.596294e-003
3.953420e+003,-2.597282e-003
3.955349e+003,-2.733947e-003
3.957277e+003,-2.749686e-003
3.959206e+003,-2.716364e-003
3.961134e+003,-2.752517e-003
3.963063e+003,-2.708528e-003
3.964991e+003,-2.619909e-003
3.966920e+003,-2.561216e-003
3.968848e+003,-2.458861e-003
3.970777e+003,-2.579529e-003
3.972705e+003,-2.574753e-003
3.974634e+003,-2.611939e-003
3.976562e+003,-2.834393e-003
3.978491e+003,-2.884723e-003
3.980419e+003,-2.903319e-003
3.982348e+003,-2.796074e-003
3.984276e+003,-2.763876e-003
3.986205e+003,-2.876231e-003
3.988133e+003,-2.647541e-003
3.990062e+003,-2.406769e-003
3.991990e+003,-2.432964e-003
3.993919e+003,-2.707968e-003
3.995847e+003,-2.932183e-003
3.997776e+003,-2.793605e-003
3.999704e+003,-2.656004e-003
4.001633e+003,0.000000e+000
