3.991989e+002,-2.409372e-002
4.011274e+002,-3.169619e-002
4.030559e+002,-3.202838e-002
4.049844e+002,-3.013246e-002
4.069129e+002,-2.714341e-002
4.088414e+002,-2.309964e-002
4.107699e+002,-2.261859e-002
4.126984e+002,-2.304506e-002
4.146269e+002,-1.942542e-002
4.165554e+002,-1.737652e-002
4.184839e+002,-2.121293e-002
4.204124e+002,-1.526686e-002
4.223409e+002,-9.705246e-003
4.242694e+002,-1.022929e-002
4.261979e+002,-1.652179e-002
4.281264e+002,-1.196541e-002
4.300549e+002,-7.865404e-003
4.319834e+002,-9.012008e-003
4.339119e+002,-6.371265e-003
4.358404e+002,-4.957442e-003
4.377689e+002,-7.043268e-003
4.396974e+002,-1.267835e-002
4.416259e+002,-2.044232e-002
4.435544e+002,-1.967376e-002
4.454829e+002,-1.643763e-002
4.474114e+002,-1.334539e-002
4.493399e+002,-1.156085e-002
4.512684e+002,-1.257571e-002
4.531969e+002,-1.339249e-002
4.551254e+002,-1.377638e-002
4.570539e+002,-1.429935e-002
4.589824e+002,-1.500821e-002
4.609109e+002,-1.623883e-002
4.628394e+002,-1.638738e-002
4.647679e+002,-1.660037e-002
4.666964e+002,-1.676369e-002
4.686249e+002,-1.628855e-002
4.705533e+002,-1.429178e-002
4.724819e+002,-1.349828e-002
4.744103e+002,-1.469903e-002
4.763389e+002,-1.410624e-002
4.782673e+002,-1.395180e-002
4.801959e+002,-1.602483e-002
4.821243e+002,-1.675814e-002
4.840529e+002,-1.678919e-002
4.859813e+002,-1.735230e-002
4.879099e+002,-1.627365e-002
4.898383e+002,-1.587788e-002
4.917668e+002,-1.801653e-002
4.936953e+002,-1.713805e-002
4.956238e+002,-1.659527e-002
4.975523e+002,-1.658392e-002
4.994808e+002,-1.651780e-002
5.014093e+002,-1.683905e-002
5.033378e+002,-1.591436e-002
5.052663e+002,-1.473349e-002
5.071948e+002,-1.586778e-002
5.091233e+002,-1.748993e-002
5.110518e+002,-1.714834e-002
5.129803e+002,-1.504227e-002
5.149088e+002,-1.471197e-002
5.168373e+002,-1.720465e-002
5.187658e+002,-1.866728e-002
5.206943e+002,-1.952104e-002
5.226228e+002,-1.789893e-002
5.245513e+002,-1.769494e-002
5.264798e+002,-2.000914e-002
5.284083e+002,-2.025075e-002
5.303368e+002,-1.762129e-002
5.322653e+002,-1.721885e-002
5.341938e+002,-1.691643e-002
5.361223e+002,-1.808277e-002
5.380508e+002,-1.986153e-002
5.399792e+002,-2.008311e-002
5.419078e+002,-1.841452e-002
5.438363e+002,-1.762238e-002
5.457648e+002,-1.794103e-002
5.476932e+002,-1.790526e-002
5.496218e+002,-1.840172e-002
5.515503e+002,-1.819431e-002
5.534788e+002,-1.790450e-002
5.554072e+002,-1.840302e-002
5.573358e+002,-1.815787e-002
5.592643e+002,-1.745114e-002
5.611927e+002,-1.663360e-002
5.631212e+002,-1.565236e-002
5.650497e+002,-1.592014e-002
5.669783e+002,-1.728508e-002
5.689067e+002,-1.655502e-002
5.708352e+002,-1.610143e-002
5.727637e+002,-1.640113e-002
5.746923e+002,-1.739750e-002
5.766207e+002,-1.865667e-002
5.785492e+002,-1.744725e-002
5.804777e+002,-1.486729e-002
5.824063e+002,-1.575580e-002
5.843347e+002,-1.743949e-002
5.862632e+002,-1.756653e-002
5.881917e+002,-1.771082e-002
5.901202e+002,-1.786923e-002
5.920487e+002,-1.695113e-002
5.939772e+002,-1.746505e-002
5.959057e+002,-1.727499e-002
5.978342e+002,-1.481132e-002
5.997627e+002,-1.352278e-002
6.016912e+002,-1.361110e-002
6.036197e+002,-1.338420e-002
6.055482e+002,-1.183449e-002
6.074767e+002,-9.807106e-003
6.094052e+002,-9.613249e-003
6.113337e+002,-1.018162e-002
6.132622e+002,-1.111645e-002
6.151907e+002,-1.108841e-002
6.171192e+002,-1.149441e-002
6.190477e+002,-1.199754e-002
6.209762e+002,-1.183778e-002
6.229047e+002,-1.287470e-002
6.248332e+002,-1.592624e-002
6.267617e+002,-1.801573e-002
6.286902e+002,-1.867413e-002
6.306187e+002,-1.767869e-002
6.325472e+002,-1.730916e-002
6.344756e+002,-1.727983e-002
6.364042e+002,-1.670812e-002
6.383326e+002,-1.672457e-002
6.402612e+002,-1.669384e-002
6.421896e+002,-1.652526e-002
6.441182e+002,-1.693185e-002
6.460466e+002,-1.726588e-002
6.479752e+002,-1.725936e-002
6.499036e+002,-1.751683e-002
6.518322e+002,-1.772119e-002
6.537606e+002,-1.735873e-002
6.556891e+002,-1.731046e-002
6.576177e+002,-1.733998e-002
6.595461e+002,-1.763590e-002
6.614746e+002,-1.796649e-002
6.634031e+002,-1.848054e-002
6.653317e+002,-1.811792e-002
6.672601e+002,-1.762438e-002
6.691886e+002,-1.757439e-002
6.711171e+002,-1.772701e-002
6.730457e+002,-1.754105e-002
6.749741e+002,-1.759495e-002
6.769026e+002,-1.754925e-002
6.788311e+002,-1.753019e-002
6.807596e+002,-1.724130e-002
6.826881e+002,-1.699042e-002
6.846166e+002,-1.640171e-002
6.865451e+002,-1.622903e-002
6.884736e+002,-1.596501e-002
6.904021e+002,-1.599606e-002
6.923306e+002,-1.573385e-002
6.942591e+002,-1.530189e-002
6.961876e+002,-1.546470e-002
6.981161e+002,-1.553853e-002
7.000446e+002,-1.515239e-002
7.019731e+002,-1.462609e-002
7.039016e+002,-1.476843e-002
7.058301e+002,-1.530518e-002
7.077585e+002,-1.535687e-002
7.096871e+002,-1.474371e-002
7.116156e+002,-1.422259e-002
7.135441e+002,-1.445623e-002
7.154725e+002,-1.542777e-002
7.174011e+002,-1.615341e-002
7.193296e+002,-1.595879e-002
7.212581e+002,-1.597753e-002
7.231865e+002,-1.606091e-002
7.251151e+002,-1.586092e-002
7.270436e+002,-1.569496e-002
7.289720e+002,-1.555985e-002
7.309005e+002,-1.541057e-002
7.328290e+002,-1.563631e-002
7.347576e+002,-1.558504e-002
7.366860e+002,-1.527710e-002
7.386145e+002,-1.510797e-002
7.405430e+002,-1.531593e-002
7.424716e+002,-1.555272e-002
7.444000e+002,-1.523170e-002
7.463285e+002,-1.463515e-002
7.482570e+002,-1.468836e-002
7.501855e+002,-1.438648e-002
7.521140e+002,-1.412930e-002
7.540425e+002,-1.394612e-002
7.559710e+002,-1.369888e-002
7.578995e+002,-1.361585e-002
7.598280e+002,-1.355525e-002
7.617565e+002,-1.344142e-002
7.636850e+002,-1.328450e-002
7.656135e+002,-1.264887e-002
7.675420e+002,-1.253254e-002
7.694705e+002,-1.233156e-002
7.713990e+002,-1.250093e-002
7.733275e+002,-1.257561e-002
7.752560e+002,-1.280814e-002
7.771844e+002,-1.314443e-002
7.791130e+002,-1.349327e-002
7.810415e+002,-1.358807e-002
7.829700e+002,-1.340020e-002
7.848984e+002,-1.325622e-002
7.868270e+002,-1.369779e-002
7.887555e+002,-1.426892e-002
7.906840e+002,-1.463800e-002
7.926124e+002,-1.471562e-002
7.945410e+002,-1.465002e-002
7.964695e+002,-1.460347e-002
7.983979e+002,-1.475396e-002
8.003264e+002,-1.493795e-002
8.022549e+002,-1.510656e-002
8.041835e+002,-1.496855e-002
8.061119e+002,-1.466357e-002
8.080404e+002,-1.411426e-002
8.099689e+002,-1.435981e-002
8.118975e+002,-1.480946e-002
8.138259e+002,-1.452817e-002
8.157545e+002,-1.399239e-002
8.176830e+002,-1.410944e-002
8.196115e+002,-1.456377e-002
8.215399e+002,-1.498046e-002
8.234684e+002,-1.486646e-002
8.253970e+002,-1.483117e-002
8.273254e+002,-1.472683e-002
8.292539e+002,-1.472699e-002
8.311824e+002,-1.482653e-002
8.331110e+002,-1.485871e-002
8.350394e+002,-1.445716e-002
8.369679e+002,-1.397917e-002
8.388964e+002,-1.421893e-002
8.408250e+002,-1.444309e-002
8.427534e+002,-1.433292e-002
8.446819e+002,-1.438289e-002
8.466104e+002,-1.463900e-002
8.485389e+002,-1.480267e-002
8.504674e+002,-1.486735e-002
8.523959e+002,-1.495223e-002
8.543244e+002,-1.510906e-002
8.562529e+002,-1.539915e-002
8.581814e+002,-1.545351e-002
8.601099e+002,-1.512352e-002
8.620384e+002,-1.511847e-002
8.639669e+002,-1.569828e-002
8.658954e+002,-1.575695e-002
8.678239e+002,-1.573439e-002
8.697524e+002,-1.598363e-002
8.716809e+002,-1.632624e-002
8.736094e+002,-1.637468e-002
8.755378e+002,-1.625670e-002
8.774664e+002,-1.607688e-002
8.793949e+002,-1.600577e-002
8.813234e+002,-1.590593e-002
8.832518e+002,-1.562174e-002
8.851804e+002,-1.570116e-002
8.871089e+002,-1.603652e-002
8.890374e+002,-1.580041e-002
8.909658e+002,-1.577638e-002
8.928943e+002,-1.538175e-002
8.948229e+002,-1.510493e-002
8.967513e+002,-1.507133e-002
8.986798e+002,-1.505430e-002
9.006083e+002,-1.510106e-002
9.025369e+002,-1.508368e-002
9.044653e+002,-1.496679e-002
9.063938e+002,-1.522387e-002
9.083223e+002,-1.524367e-002
9.102509e+002,-1.516112e-002
9.121793e+002,-1.542553e-002
9.141078e+002,-1.575302e-002
9.160364e+002,-1.545345e-002
9.179648e+002,-1.518378e-002
9.198933e+002,-1.531142e-002
9.218218e+002,-1.565379e-002
9.237504e+002,-1.574200e-002
9.256788e+002,-1.591746e-002
9.276073e+002,-1.607324e-002
9.295358e+002,-1.586849e-002
9.314644e+002,-1.581213e-002
9.333928e+002,-1.590452e-002
9.353213e+002,-1.577663e-002
9.372498e+002,-1.566153e-002
9.391783e+002,-1.568387e-002
9.411068e+002,-1.578577e-002
9.430353e+002,-1.563951e-002
9.449637e+002,-1.549153e-002
9.468923e+002,-1.548763e-002
9.488208e+002,-1.543986e-002
9.507493e+002,-1.532687e-002
9.526777e+002,-1.551880e-002
9.546063e+002,-1.566230e-002
9.565348e+002,-1.542163e-002
9.584633e+002,-1.520297e-002
9.603917e+002,-1.533291e-002
9.623203e+002,-1.565395e-002
9.642488e+002,-1.564098e-002
9.661772e+002,-1.525179e-002
9.681057e+002,-1.504601e-002
9.700343e+002,-1.524440e-002
9.719628e+002,-1.540388e-002
9.738912e+002,-1.558402e-002
9.758197e+002,-1.576676e-002
9.777483e+002,-1.565900e-002
9.796768e+002,-1.552619e-002
9.816052e+002,-1.547023e-002
9.835337e+002,-1.549735e-002
9.854623e+002,-1.555550e-002
9.873907e+002,-1.569451e-002
9.893192e+002,-1.576855e-002
9.912477e+002,-1.578775e-002
9.931763e+002,-1.577053e-002
9.951047e+002,-1.579120e-002
9.970332e+002,-1.568921e-002
9.989617e+002,-1.565565e-002
1.000890e+003,-1.551001e-002
1.002819e+003,-1.544920e-002
1.004747e+003,-1.546243e-002
1.006676e+003,-1.526245e-002
1.008604e+003,-1.486825e-002
1.010533e+003,-1.471197e-002
1.012461e+003,-1.464307e-002
1.014390e+003,-1.430746e-002
1.016318e+003,-1.408985e-002
1.018247e+003,-1.383120e-002
1.020175e+003,-1.356884e-002
1.022104e+003,-1.316831e-002
1.024032e+003,-1.251368e-002
1.025961e+003,-1.211743e-002
1.027889e+003,-1.188598e-002
1.029818e+003,-1.155675e-002
1.031746e+003,-1.093164e-002
1.033675e+003,-1.068485e-002
1.035603e+003,-1.016142e-002
1.037532e+003,-9.825473e-003
1.039460e+003,-9.648637e-003
1.041389e+003,-8.991367e-003
1.043317e+003,-8.846268e-003
1.045246e+003,-9.093946e-003
1.047174e+003,-8.866040e-003
1.049103e+003,-8.587892e-003
1.051031e+003,-8.437167e-003
1.052960e+003,-8.074159e-003
1.054888e+003,-7.905654e-003
1.056817e+003,-8.136210e-003
1.058745e+003,-8.163298e-003
1.060674e+003,-8.097185e-003
1.062602e+003,-7.984157e-003
1.064531e+003,-7.791208e-003
1.066459e+003,-7.863452e-003
1.068388e+003,-8.021208e-003
1.070316e+003,-8.017629e-003
1.072245e+003,-7.982205e-003
1.074173e+003,-7.859385e-003
1.076102e+003,-7.985686e-003
1.078030e+003,-8.344737e-003
1.079959e+003,-8.470930e-003
1.081887e+003,-8.211615e-003
1.083816e+003,-8.084989e-003
1.085744e+003,-7.912421e-003
1.087673e+003,-7.765627e-003
1.089601e+003,-7.979212e-003
1.091530e+003,-7.964020e-003
1.093458e+003,-7.598695e-003
1.095387e+003,-7.506803e-003
1.097315e+003,-7.545327e-003
1.099244e+003,-7.679923e-003
1.101172e+003,-7.511850e-003
1.103101e+003,-7.407529e-003
1.105029e+003,-7.622398e-003
1.106958e+003,-7.726309e-003
1.108886e+003,-7.685685e-003
1.110815e+003,-7.555551e-003
1.112743e+003,-7.621388e-003
1.114672e+003,-7.821864e-003
1.116600e+003,-7.737571e-003
1.118529e+003,-7.750688e-003
1.120457e+003,-7.775944e-003
1.122386e+003,-7.760712e-003
1.124314e+003,-7.762112e-003
1.126243e+003,-7.833775e-003
1.128171e+003,-7.936171e-003
1.130100e+003,-7.890296e-003
1.132028e+003,-8.073184e-003
1.133957e+003,-8.271338e-003
1.135885e+003,-8.400347e-003
1.137814e+003,-8.705570e-003
1.139742e+003,-8.954756e-003
1.141671e+003,-9.185243e-003
1.143599e+003,-9.543628e-003
1.145528e+003,-9.739882e-003
1.147456e+003,-9.894108e-003
1.149385e+003,-1.019369e-002
1.151313e+003,-1.047508e-002
1.153242e+003,-1.090301e-002
1.155170e+003,-1.121594e-002
1.157099e+003,-1.139053e-002
1.159027e+003,-1.154885e-002
1.160956e+003,-1.161437e-002
1.162884e+003,-1.168972e-002
1.164813e+003,-1.166308e-002
1.166741e+003,-1.163105e-002
1.168670e+003,-1.168772e-002
1.170598e+003,-1.168934e-002
1.172526e+003,-1.167508e-002
1.174455e+003,-1.161050e-002
1.176384e+003,-1.162079e-002
1.178312e+003,-1.155869e-002
1.180240e+003,-1.155743e-002
1.182169e+003,-1.178367e-002
1.184098e+003,-1.186351e-002
1.186026e+003,-1.190493e-002
1.187954e+003,-1.197917e-002
1.189883e+003,-1.230086e-002
1.191812e+003,-1.242066e-002
1.193740e+003,-1.218303e-002
1.195668e+003,-1.225274e-002
1.197597e+003,-1.247305e-002
1.199526e+003,-1.259245e-002
1.201454e+003,-1.268739e-002
1.203382e+003,-1.281847e-002
1.205311e+003,-1.286647e-002
1.207240e+003,-1.284466e-002
1.209168e+003,-1.264935e-002
1.211096e+003,-1.255916e-002
1.213025e+003,-1.256840e-002
1.214953e+003,-1.248432e-002
1.216882e+003,-1.247672e-002
1.218810e+003,-1.254101e-002
1.220739e+003,-1.255862e-002
1.222667e+003,-1.250499e-002
1.224596e+003,-1.233706e-002
1.226524e+003,-1.219247e-002
1.228453e+003,-1.216814e-002
1.230381e+003,-1.204992e-002
1.232310e+003,-1.189994e-002
1.234238e+003,-1.179347e-002
1.236167e+003,-1.175242e-002
1.238095e+003,-1.181279e-002
1.240024e+003,-1.174442e-002
1.241952e+003,-1.165350e-002
1.243881e+003,-1.180131e-002
1.245809e+003,-1.183919e-002
1.247738e+003,-1.189152e-002
1.249666e+003,-1.201643e-002
1.251595e+003,-1.200899e-002
1.253523e+003,-1.201775e-002
1.255452e+003,-1.207283e-002
1.257380e+003,-1.214768e-002
1.259309e+003,-1.223341e-002
1.261237e+003,-1.218544e-002
1.263166e+003,-1.199255e-002
1.265094e+003,-1.186418e-002
1.267023e+003,-1.163998e-002
1.268951e+003,-1.139969e-002
1.270880e+003,-1.122673e-002
1.272808e+003,-1.108086e-002
1.274737e+003,-1.091261e-002
1.276665e+003,-1.059687e-002
1.278594e+003,-1.035286e-002
1.280522e+003,-1.027188e-002
1.282451e+003,-1.016867e-002
1.284379e+003,-1.003047e-002
1.286308e+003,-9.649058e-003
1.288236e+003,-9.409091e-003
1.290165e+003,-9.240032e-003
1.292093e+003,-9.044558e-003
1.294022e+003,-9.142322e-003
1.295950e+003,-9.118637e-003
1.297879e+003,-8.996041e-003
1.299807e+003,-8.929601e-003
1.301736e+003,-9.060069e-003
1.303664e+003,-9.106762e-003
1.305593e+003,-9.100694e-003
1.307521e+003,-9.221348e-003
1.309450e+003,-9.568295e-003
1.311378e+003,-9.945666e-003
1.313307e+003,-1.011070e-002
1.315235e+003,-1.018265e-002
1.317164e+003,-1.032465e-002
1.319092e+003,-1.060712e-002
1.321021e+003,-1.104332e-002
1.322949e+003,-1.131496e-002
1.324878e+003,-1.145608e-002
1.326806e+003,-1.154017e-002
1.328735e+003,-1.142112e-002
1.330663e+003,-1.145230e-002
1.332592e+003,-1.159085e-002
1.334520e+003,-1.168208e-002
1.336449e+003,-1.179818e-002
1.338377e+003,-1.181424e-002
1.340306e+003,-1.178805e-002
1.342234e+003,-1.187892e-002
1.344163e+003,-1.186351e-002
1.346091e+003,-1.189500e-002
1.348020e+003,-1.191444e-002
1.349948e+003,-1.191344e-002
1.351877e+003,-1.198571e-002
1.353805e+003,-1.206522e-002
1.355734e+003,-1.214623e-002
1.357662e+003,-1.226041e-002
1.359591e+003,-1.233223e-002
1.361519e+003,-1.246571e-002
1.363448e+003,-1.248699e-002
1.365376e+003,-1.258079e-002
1.367305e+003,-1.273743e-002
1.369233e+003,-1.285887e-002
1.371162e+003,-1.296296e-002
1.373090e+003,-1.291741e-002
1.375019e+003,-1.285646e-002
1.376947e+003,-1.289551e-002
1.378876e+003,-1.284128e-002
1.380804e+003,-1.273562e-002
1.382733e+003,-1.276072e-002
1.384661e+003,-1.299518e-002
1.386590e+003,-1.309890e-002
1.388518e+003,-1.315089e-002
1.390447e+003,-1.333122e-002
1.392375e+003,-1.352005e-002
1.394304e+003,-1.349246e-002
1.396232e+003,-1.356026e-002
1.398161e+003,-1.363261e-002
1.400089e+003,-1.365043e-002
1.402018e+003,-1.377683e-002
1.403946e+003,-1.380800e-002
1.405875e+003,-1.379561e-002
1.407803e+003,-1.384028e-002
1.409732e+003,-1.394612e-002
1.411660e+003,-1.409735e-002
1.413589e+003,-1.411435e-002
1.415517e+003,-1.392465e-002
1.417446e+003,-1.367516e-002
1.419374e+003,-1.333424e-002
1.421303e+003,-1.295945e-002
1.423231e+003,-1.259583e-002
1.425160e+003,-1.206542e-002
1.427088e+003,-1.161643e-002
1.429017e+003,-1.124348e-002
1.430945e+003,-1.094805e-002
1.432874e+003,-1.066778e-002
1.434802e+003,-1.031611e-002
1.436731e+003,-9.772345e-003
1.438659e+003,-9.429031e-003
1.440588e+003,-9.283916e-003
1.442516e+003,-8.913078e-003
1.444445e+003,-8.542800e-003
1.446373e+003,-8.079233e-003
1.448302e+003,-7.549657e-003
1.450230e+003,-7.158106e-003
1.452159e+003,-6.772921e-003
1.454087e+003,-6.433952e-003
1.456016e+003,-6.130524e-003
1.457944e+003,-5.729908e-003
1.459873e+003,-5.633106e-003
1.461801e+003,-5.650997e-003
1.463730e+003,-5.671176e-003
1.465658e+003,-5.612926e-003
1.467587e+003,-5.843068e-003
1.469515e+003,-6.207912e-003
1.471444e+003,-6.391149e-003
1.473372e+003,-6.575028e-003
1.475301e+003,-6.773541e-003
1.477229e+003,-7.113583e-003
1.479158e+003,-7.586908e-003
1.481086e+003,-8.140828e-003
1.483015e+003,-8.722783e-003
1.484943e+003,-9.184951e-003
1.486872e+003,-9.445598e-003
1.488800e+003,-9.734116e-003
1.490729e+003,-1.008039e-002
1.492657e+003,-1.052204e-002
1.494586e+003,-1.078567e-002
1.496514e+003,-1.090899e-002
1.498443e+003,-1.112417e-002
1.500371e+003,-1.147715e-002
1.502300e+003,-1.182723e-002
1.504228e+003,-1.203290e-002
1.506157e+003,-1.187118e-002
1.508085e+003,-1.188301e-002
1.510014e+003,-1.227078e-002
1.511942e+003,-1.247929e-002
1.513871e+003,-1.257085e-002
1.515799e+003,-1.261700e-002
1.517728e+003,-1.252494e-002
1.519656e+003,-1.258636e-002
1.521585e+003,-1.256184e-002
1.523513e+003,-1.251036e-002
1.525442e+003,-1.249494e-002
1.527370e+003,-1.249085e-002
1.529299e+003,-1.251355e-002
1.531227e+003,-1.248403e-002
1.533156e+003,-1.230772e-002
1.535084e+003,-1.219839e-002
1.537013e+003,-1.224002e-002
1.538941e+003,-1.188524e-002
1.540870e+003,-1.149219e-002
1.542798e+003,-1.151677e-002
1.544727e+003,-1.148092e-002
1.546655e+003,-1.137126e-002
1.548584e+003,-1.128471e-002
1.550512e+003,-1.117183e-002
1.552441e+003,-1.117451e-002
1.554369e+003,-1.108803e-002
1.556298e+003,-1.103744e-002
1.558226e+003,-1.071210e-002
1.560155e+003,-1.012076e-002
1.562083e+003,-9.887922e-003
1.564012e+003,-9.674010e-003
1.565940e+003,-9.401082e-003
1.567869e+003,-9.234875e-003
1.569797e+003,-9.048030e-003
1.571726e+003,-8.981598e-003
1.573654e+003,-8.997761e-003
1.575583e+003,-8.761330e-003
1.577511e+003,-8.654612e-003
1.579440e+003,-8.731746e-003
1.581368e+003,-8.583410e-003
1.583297e+003,-8.606701e-003
1.585225e+003,-8.668416e-003
1.587154e+003,-8.687449e-003
1.589082e+003,-8.880518e-003
1.591010e+003,-9.220731e-003
1.592939e+003,-9.424880e-003
1.594868e+003,-9.637068e-003
1.596796e+003,-9.937020e-003
1.598724e+003,-1.015899e-002
1.600653e+003,-1.048226e-002
1.602582e+003,-1.080739e-002
1.604510e+003,-1.103893e-002
1.606438e+003,-1.129889e-002
1.608367e+003,-1.167805e-002
1.610296e+003,-1.203387e-002
1.612224e+003,-1.238711e-002
1.614152e+003,-1.261292e-002
1.616081e+003,-1.261131e-002
1.618010e+003,-1.262058e-002
1.619938e+003,-1.298666e-002
1.621866e+003,-1.321045e-002
1.623795e+003,-1.333752e-002
1.625724e+003,-1.341482e-002
1.627652e+003,-1.350065e-002
1.629580e+003,-1.368325e-002
1.631509e+003,-1.391929e-002
1.633438e+003,-1.409735e-002
1.635366e+003,-1.403682e-002
1.637294e+003,-1.424154e-002
1.639223e+003,-1.476113e-002
1.641151e+003,-1.514752e-002
1.643080e+003,-1.558568e-002
1.645008e+003,-1.590513e-002
1.646937e+003,-1.592988e-002
1.648865e+003,-1.612177e-002
1.650794e+003,-1.650019e-002
1.652722e+003,-1.635129e-002
1.654651e+003,-1.648156e-002
1.656579e+003,-1.686563e-002
1.658508e+003,-1.713238e-002
1.660436e+003,-1.729435e-002
1.662365e+003,-1.732259e-002
1.664293e+003,-1.737474e-002
1.666222e+003,-1.737057e-002
1.668150e+003,-1.732635e-002
1.670079e+003,-1.748004e-002
1.672007e+003,-1.765120e-002
1.673936e+003,-1.763857e-002
1.675864e+003,-1.750060e-002
1.677793e+003,-1.771721e-002
1.679721e+003,-1.776454e-002
1.681650e+003,-1.776922e-002
1.683578e+003,-1.757217e-002
1.685507e+003,-1.738057e-002
1.687435e+003,-1.763574e-002
1.689364e+003,-1.765562e-002
1.691292e+003,-1.762750e-002
1.693221e+003,-1.770776e-002
1.695149e+003,-1.748096e-002
1.697078e+003,-1.724968e-002
1.699006e+003,-1.720977e-002
1.700935e+003,-1.684730e-002
1.702863e+003,-1.685511e-002
1.704792e+003,-1.679637e-002
1.706720e+003,-1.663539e-002
1.708649e+003,-1.670595e-002
1.710577e+003,-1.686875e-002
1.712506e+003,-1.680367e-002
1.714434e+003,-1.673219e-002
1.716363e+003,-1.662652e-002
1.718291e+003,-1.643090e-002
1.720220e+003,-1.653579e-002
1.722148e+003,-1.667499e-002
1.724077e+003,-1.662965e-002
1.726005e+003,-1.663491e-002
1.727934e+003,-1.661900e-002
1.729862e+003,-1.654057e-002
1.731791e+003,-1.660733e-002
1.733719e+003,-1.650992e-002
1.735648e+003,-1.652606e-002
1.737576e+003,-1.673599e-002
1.739505e+003,-1.654025e-002
1.741433e+003,-1.646730e-002
1.743362e+003,-1.666399e-002
1.745290e+003,-1.646025e-002
1.747219e+003,-1.622558e-002
1.749147e+003,-1.623589e-002
1.751076e+003,-1.619934e-002
1.753004e+003,-1.621601e-002
1.754933e+003,-1.619015e-002
1.756861e+003,-1.599810e-002
1.758790e+003,-1.613473e-002
1.760718e+003,-1.620362e-002
1.762647e+003,-1.607579e-002
1.764575e+003,-1.609770e-002
1.766504e+003,-1.609585e-002
1.768432e+003,-1.604913e-002
1.770361e+003,-1.610641e-002
1.772289e+003,-1.602515e-002
1.774218e+003,-1.602186e-002
1.776146e+003,-1.607139e-002
1.778075e+003,-1.604830e-002
1.780003e+003,-1.607963e-002
1.781932e+003,-1.611705e-002
1.783860e+003,-1.610188e-002
1.785789e+003,-1.596620e-002
1.787717e+003,-1.591461e-002
1.789646e+003,-1.592129e-002
1.791574e+003,-1.593087e-002
1.793503e+003,-1.593566e-002
1.795431e+003,-1.608282e-002
1.797360e+003,-1.614498e-002
1.799288e+003,-1.603562e-002
1.801217e+003,-1.600353e-002
1.803145e+003,-1.606222e-002
1.805074e+003,-1.603326e-002
1.807002e+003,-1.609348e-002
1.808931e+003,-1.611724e-002
1.810859e+003,-1.600548e-002
1.812788e+003,-1.598871e-002
1.814716e+003,-1.609524e-002
1.816645e+003,-1.610715e-002
1.818573e+003,-1.615714e-002
1.820502e+003,-1.617690e-002
1.822430e+003,-1.613943e-002
1.824359e+003,-1.607672e-002
1.826287e+003,-1.607899e-002
1.828216e+003,-1.623047e-002
1.830144e+003,-1.622134e-002
1.832073e+003,-1.611353e-002
1.834001e+003,-1.610268e-002
1.835930e+003,-1.620388e-002
1.837858e+003,-1.628855e-002
1.839787e+003,-1.634057e-002
1.841715e+003,-1.630467e-002
1.843644e+003,-1.618935e-002
1.845572e+003,-1.626950e-002
1.847501e+003,-1.634766e-002
1.849429e+003,-1.630167e-002
1.851358e+003,-1.629350e-002
1.853286e+003,-1.624563e-002
1.855215e+003,-1.618128e-002
1.857143e+003,-1.626459e-002
1.859072e+003,-1.633598e-002
1.861000e+003,-1.623615e-002
1.862929e+003,-1.617489e-002
1.864857e+003,-1.611982e-002
1.866786e+003,-1.615785e-002
1.868714e+003,-1.621476e-002
1.870643e+003,-1.622287e-002
1.872571e+003,-1.624521e-002
1.874500e+003,-1.617524e-002
1.876428e+003,-1.616034e-002
1.878357e+003,-1.628182e-002
1.880285e+003,-1.625051e-002
1.882214e+003,-1.623535e-002
1.884142e+003,-1.635828e-002
1.886071e+003,-1.644421e-002
1.887999e+003,-1.639277e-002
1.889928e+003,-1.629037e-002
1.891856e+003,-1.635343e-002
1.893785e+003,-1.635749e-002
1.895713e+003,-1.630432e-002
1.897642e+003,-1.626915e-002
1.899570e+003,-1.630716e-002
1.901499e+003,-1.628728e-002
1.903427e+003,-1.623570e-002
1.905356e+003,-1.634705e-002
1.907284e+003,-1.637621e-002
1.909213e+003,-1.627853e-002
1.911141e+003,-1.623471e-002
1.913070e+003,-1.624103e-002
1.914998e+003,-1.627145e-002
1.916927e+003,-1.630678e-002
1.918855e+003,-1.633824e-002
1.920784e+003,-1.638145e-002
1.922712e+003,-1.637765e-002
1.924641e+003,-1.629787e-002
1.926569e+003,-1.632580e-002
1.928498e+003,-1.637232e-002
1.930426e+003,-1.638898e-002
1.932355e+003,-1.637034e-002
1.934283e+003,-1.640602e-002
1.936212e+003,-1.639871e-002
1.938140e+003,-1.635464e-002
1.940069e+003,-1.638757e-002
1.941997e+003,-1.649423e-002
1.943926e+003,-1.650453e-002
1.945854e+003,-1.653021e-002
1.947783e+003,-1.665108e-002
1.949711e+003,-1.661023e-002
1.951640e+003,-1.648373e-002
1.953568e+003,-1.647132e-002
1.955497e+003,-1.650542e-002
1.957425e+003,-1.655014e-002
1.959354e+003,-1.657531e-002
1.961282e+003,-1.647872e-002
1.963211e+003,-1.649780e-002
1.965139e+003,-1.655776e-002
1.967068e+003,-1.650638e-002
1.968996e+003,-1.651030e-002
1.970925e+003,-1.652864e-002
1.972853e+003,-1.648884e-002
1.974782e+003,-1.648089e-002
1.976710e+003,-1.655697e-002
1.978639e+003,-1.659409e-002
1.980567e+003,-1.653729e-002
1.982496e+003,-1.654421e-002
1.984424e+003,-1.659996e-002
1.986353e+003,-1.655116e-002
1.988281e+003,-1.648319e-002
1.990210e+003,-1.645046e-002
1.992138e+003,-1.644073e-002
1.994067e+003,-1.647033e-002
1.995995e+003,-1.648070e-002
1.997924e+003,-1.632806e-002
1.999852e+003,-1.627739e-002
2.001781e+003,-1.642439e-002
2.003709e+003,-1.650718e-002
2.005638e+003,-1.645454e-002
2.007566e+003,-1.644322e-002
2.009495e+003,-1.650134e-002
2.011423e+003,-1.651825e-002
2.013352e+003,-1.641185e-002
2.015280e+003,-1.639475e-002
2.017208e+003,-1.648558e-002
2.019137e+003,-1.653378e-002
2.021066e+003,-1.653563e-002
2.022994e+003,-1.642324e-002
2.024922e+003,-1.638451e-002
2.026851e+003,-1.639622e-002
2.028780e+003,-1.641240e-002
2.030708e+003,-1.646146e-002
2.032636e+003,-1.638754e-002
2.034565e+003,-1.638770e-002
2.036494e+003,-1.649308e-002
2.038422e+003,-1.650479e-002
2.040350e+003,-1.639360e-002
2.042279e+003,-1.634083e-002
2.044208e+003,-1.637746e-002
2.046136e+003,-1.636221e-002
2.048064e+003,-1.624911e-002
2.049993e+003,-1.626379e-002
2.051921e+003,-1.641086e-002
2.053850e+003,-1.648131e-002
2.055778e+003,-1.646516e-002
2.057707e+003,-1.646670e-002
2.059635e+003,-1.634884e-002
2.061564e+003,-1.629076e-002
2.063492e+003,-1.630802e-002
2.065421e+003,-1.637018e-002
2.067349e+003,-1.639606e-002
2.069278e+003,-1.640752e-002
2.071206e+003,-1.645135e-002
2.073135e+003,-1.639057e-002
2.075063e+003,-1.626673e-002
2.076992e+003,-1.626309e-002
2.078920e+003,-1.624681e-002
2.080849e+003,-1.629162e-002
2.082777e+003,-1.636779e-002
2.084706e+003,-1.635369e-002
2.086634e+003,-1.636218e-002
2.088563e+003,-1.632915e-002
2.090491e+003,-1.623427e-002
2.092420e+003,-1.615047e-002
2.094348e+003,-1.622852e-002
2.096277e+003,-1.625160e-002
2.098205e+003,-1.624113e-002
2.100134e+003,-1.618833e-002
2.102062e+003,-1.614514e-002
2.103991e+003,-1.619950e-002
2.105919e+003,-1.621221e-002
2.107848e+003,-1.614533e-002
2.109776e+003,-1.615778e-002
2.111705e+003,-1.621320e-002
2.113633e+003,-1.618632e-002
2.115562e+003,-1.616503e-002
2.117490e+003,-1.609035e-002
2.119419e+003,-1.603837e-002
2.121347e+003,-1.607873e-002
2.123276e+003,-1.612886e-002
2.125204e+003,-1.613314e-002
2.127133e+003,-1.605399e-002
2.129061e+003,-1.594077e-002
2.130990e+003,-1.597734e-002
2.132918e+003,-1.598134e-002
2.134847e+003,-1.596920e-002
2.136775e+003,-1.593014e-002
2.138704e+003,-1.588471e-002
2.140632e+003,-1.583887e-002
2.142561e+003,-1.590698e-002
2.144489e+003,-1.592876e-002
2.146418e+003,-1.584453e-002
2.148346e+003,-1.575187e-002
2.150275e+003,-1.573394e-002
2.152203e+003,-1.576411e-002
2.154132e+003,-1.576401e-002
2.156060e+003,-1.579795e-002
2.157989e+003,-1.585223e-002
2.159917e+003,-1.579172e-002
2.161846e+003,-1.576625e-002
2.163774e+003,-1.579140e-002
2.165703e+003,-1.581427e-002
2.167631e+003,-1.575695e-002
2.169560e+003,-1.562522e-002
2.171488e+003,-1.554681e-002
2.173417e+003,-1.561758e-002
2.175345e+003,-1.567786e-002
2.177274e+003,-1.567623e-002
2.179202e+003,-1.561291e-002
2.181131e+003,-1.557181e-002
2.183059e+003,-1.558728e-002
2.184988e+003,-1.563967e-002
2.186916e+003,-1.570832e-002
2.188845e+003,-1.575535e-002
2.190773e+003,-1.566744e-002
2.192702e+003,-1.556206e-002
2.194630e+003,-1.557558e-002
2.196559e+003,-1.563724e-002
2.198487e+003,-1.573548e-002
2.200416e+003,-1.581584e-002
2.202344e+003,-1.580306e-002
2.204273e+003,-1.575162e-002
2.206201e+003,-1.569355e-002
2.208130e+003,-1.572666e-002
2.210058e+003,-1.582884e-002
2.211987e+003,-1.590053e-002
2.213915e+003,-1.583191e-002
2.215844e+003,-1.581153e-002
2.217772e+003,-1.583759e-002
2.219701e+003,-1.577718e-002
2.221629e+003,-1.584472e-002
2.223558e+003,-1.589193e-002
2.225486e+003,-1.586040e-002
2.227415e+003,-1.589219e-002
2.229343e+003,-1.592867e-002
2.231272e+003,-1.592183e-002
2.233200e+003,-1.591870e-002
2.235129e+003,-1.594045e-002
2.237057e+003,-1.597683e-002
2.238986e+003,-1.605344e-002
2.240914e+003,-1.615299e-002
2.242843e+003,-1.611484e-002
2.244771e+003,-1.607171e-002
2.246700e+003,-1.608141e-002
2.248628e+003,-1.611823e-002
2.250557e+003,-1.619172e-002
2.252485e+003,-1.622443e-002
2.254414e+003,-1.618354e-002
2.256342e+003,-1.611606e-002
2.258271e+003,-1.618329e-002
2.260199e+003,-1.625255e-002
2.262128e+003,-1.627269e-002
2.264056e+003,-1.618967e-002
2.265985e+003,-1.613834e-002
2.267913e+003,-1.623216e-002
2.269842e+003,-1.632222e-002
2.271770e+003,-1.630869e-002
2.273699e+003,-1.627480e-002
2.275627e+003,-1.628527e-002
2.277556e+003,-1.635643e-002
2.279484e+003,-1.640359e-002
2.281413e+003,-1.634884e-002
2.283341e+003,-1.640704e-002
2.285270e+003,-1.649566e-002
2.287198e+003,-1.643106e-002
2.289127e+003,-1.639268e-002
2.291055e+003,-1.639826e-002
2.292984e+003,-1.636980e-002
2.294912e+003,-1.647697e-002
2.296841e+003,-1.651145e-002
2.298769e+003,-1.646472e-002
2.300698e+003,-1.644909e-002
2.302626e+003,-1.645384e-002
2.304555e+003,-1.642423e-002
2.306483e+003,-1.643224e-002
2.308412e+003,-1.631361e-002
2.310340e+003,-1.626653e-002
2.312269e+003,-1.637851e-002
2.314197e+003,-1.643167e-002
2.316125e+003,-1.628010e-002
2.318054e+003,-1.621247e-002
2.319983e+003,-1.628054e-002
2.321911e+003,-1.635260e-002
2.323840e+003,-1.626583e-002
2.325768e+003,-1.615679e-002
2.327697e+003,-1.613658e-002
2.329625e+003,-1.615730e-002
2.331553e+003,-1.624352e-002
2.333482e+003,-1.623621e-002
2.335411e+003,-1.610431e-002
2.337339e+003,-1.595432e-002
2.339268e+003,-1.596256e-002
2.341196e+003,-1.598657e-002
2.343125e+003,-1.604255e-002
2.345053e+003,-1.608371e-002
2.346981e+003,-1.621081e-002
2.348910e+003,-1.636227e-002
2.350839e+003,-1.623711e-002
2.352767e+003,-1.613499e-002
2.354696e+003,-1.614958e-002
2.356624e+003,-1.594988e-002
2.358552e+003,-1.577702e-002
2.360481e+003,-1.571058e-002
2.362409e+003,-1.568016e-002
2.364338e+003,-1.573510e-002
2.366267e+003,-1.577823e-002
2.368195e+003,-1.589296e-002
2.370124e+003,-1.603911e-002
2.372052e+003,-1.606781e-002
2.373980e+003,-1.618568e-002
2.375909e+003,-1.634881e-002
2.377838e+003,-1.630432e-002
2.379766e+003,-1.620372e-002
2.381695e+003,-1.623624e-002
2.383623e+003,-1.622766e-002
2.385552e+003,-1.611823e-002
2.387480e+003,-1.606420e-002
2.389408e+003,-1.601854e-002
2.391337e+003,-1.599743e-002
2.393266e+003,-1.598239e-002
2.395194e+003,-1.590835e-002
2.397123e+003,-1.585482e-002
2.399051e+003,-1.592829e-002
2.400979e+003,-1.601640e-002
2.402908e+003,-1.601257e-002
2.404836e+003,-1.602266e-002
2.406765e+003,-1.597396e-002
2.408694e+003,-1.593547e-002
2.410622e+003,-1.594141e-002
2.412551e+003,-1.590781e-002
2.414479e+003,-1.595508e-002
2.416407e+003,-1.600947e-002
2.418336e+003,-1.598842e-002
2.420264e+003,-1.596262e-002
2.422193e+003,-1.591136e-002
2.424122e+003,-1.581252e-002
2.426050e+003,-1.579785e-002
2.427979e+003,-1.582677e-002
2.429907e+003,-1.583635e-002
2.431835e+003,-1.580098e-002
2.433764e+003,-1.571439e-002
2.435692e+003,-1.570707e-002
2.437621e+003,-1.577194e-002
2.439550e+003,-1.574369e-002
2.441478e+003,-1.570183e-002
2.443406e+003,-1.568754e-002
2.445335e+003,-1.569505e-002
2.447263e+003,-1.571982e-002
2.449192e+003,-1.573548e-002
2.451121e+003,-1.573375e-002
2.453049e+003,-1.577945e-002
2.454978e+003,-1.576609e-002
2.456906e+003,-1.565999e-002
2.458834e+003,-1.566859e-002
2.460763e+003,-1.569870e-002
2.462691e+003,-1.563762e-002
2.464620e+003,-1.554422e-002
2.466549e+003,-1.545354e-002
2.468477e+003,-1.548239e-002
2.470406e+003,-1.551027e-002
2.472334e+003,-1.563906e-002
2.474262e+003,-1.564008e-002
2.476191e+003,-1.550672e-002
2.478119e+003,-1.543506e-002
2.480048e+003,-1.543167e-002
2.481977e+003,-1.545460e-002
2.483905e+003,-1.544545e-002
2.485833e+003,-1.543513e-002
2.487762e+003,-1.537974e-002
2.489690e+003,-1.539550e-002
2.491619e+003,-1.543532e-002
2.493547e+003,-1.536746e-002
2.495476e+003,-1.534056e-002
2.497405e+003,-1.534696e-002
2.499333e+003,-1.529370e-002
2.501261e+003,-1.513616e-002
2.503190e+003,-1.521110e-002
2.505118e+003,-1.540759e-002
2.507047e+003,-1.541357e-002
2.508975e+003,-1.532137e-002
2.510904e+003,-1.519865e-002
2.512833e+003,-1.513517e-002
2.514761e+003,-1.514688e-002
2.516689e+003,-1.512087e-002
2.518618e+003,-1.511888e-002
2.520546e+003,-1.515047e-002
2.522475e+003,-1.510912e-002
2.524403e+003,-1.511767e-002
2.526332e+003,-1.514186e-002
2.528260e+003,-1.504112e-002
2.530189e+003,-1.496814e-002
2.532117e+003,-1.501177e-002
2.534046e+003,-1.504912e-002
2.535974e+003,-1.491788e-002
2.537903e+003,-1.487091e-002
2.539831e+003,-1.496401e-002
2.541760e+003,-1.501135e-002
2.543688e+003,-1.507047e-002
2.545617e+003,-1.506896e-002
2.547545e+003,-1.493523e-002
2.549474e+003,-1.484958e-002
2.551402e+003,-1.490286e-002
2.553331e+003,-1.498741e-002
2.555259e+003,-1.505946e-002
2.557188e+003,-1.503958e-002
2.559116e+003,-1.508621e-002
2.561045e+003,-1.510096e-002
2.562973e+003,-1.499701e-002
2.564902e+003,-1.500937e-002
2.566830e+003,-1.505546e-002
2.568759e+003,-1.499400e-002
2.570687e+003,-1.497195e-002
2.572616e+003,-1.498165e-002
2.574544e+003,-1.496510e-002
2.576473e+003,-1.503593e-002
2.578401e+003,-1.509533e-002
2.580330e+003,-1.506352e-002
2.582258e+003,-1.501445e-002
2.584187e+003,-1.499432e-002
2.586115e+003,-1.501301e-002
2.588044e+003,-1.495431e-002
2.589972e+003,-1.493408e-002
2.591901e+003,-1.499064e-002
2.593829e+003,-1.496215e-002
2.595758e+003,-1.489402e-002
2.597686e+003,-1.488330e-002
2.599615e+003,-1.488592e-002
2.601543e+003,-1.489793e-002
2.603472e+003,-1.493398e-002
2.605400e+003,-1.492057e-002
2.607329e+003,-1.489633e-002
2.609257e+003,-1.486495e-002
2.611186e+003,-1.490613e-002
2.613114e+003,-1.490696e-002
2.615043e+003,-1.488170e-002
2.616971e+003,-1.477743e-002
2.618900e+003,-1.476623e-002
2.620828e+003,-1.487001e-002
2.622757e+003,-1.479390e-002
2.624685e+003,-1.464457e-002
2.626614e+003,-1.461881e-002
2.628542e+003,-1.472388e-002
2.630471e+003,-1.484724e-002
2.632399e+003,-1.482592e-002
2.634328e+003,-1.477164e-002
2.636256e+003,-1.472545e-002
2.638185e+003,-1.468660e-002
2.640113e+003,-1.458729e-002
2.642042e+003,-1.452526e-002
2.643970e+003,-1.452808e-002
2.645899e+003,-1.448552e-002
2.647827e+003,-1.441370e-002
2.649756e+003,-1.445030e-002
2.651684e+003,-1.446482e-002
2.653613e+003,-1.437312e-002
2.655541e+003,-1.424911e-002
2.657470e+003,-1.420797e-002
2.659398e+003,-1.417522e-002
2.661327e+003,-1.420078e-002
2.663255e+003,-1.429672e-002
2.665184e+003,-1.427062e-002
2.667112e+003,-1.414277e-002
2.669041e+003,-1.406393e-002
2.670969e+003,-1.409058e-002
2.672898e+003,-1.405973e-002
2.674826e+003,-1.402299e-002
2.676755e+003,-1.401796e-002
2.678683e+003,-1.403457e-002
2.680612e+003,-1.404705e-002
2.682540e+003,-1.403477e-002
2.684469e+003,-1.400856e-002
2.686397e+003,-1.396297e-002
2.688326e+003,-1.387674e-002
2.690254e+003,-1.378777e-002
2.692183e+003,-1.372768e-002
2.694111e+003,-1.367419e-002
2.696040e+003,-1.358409e-002
2.697968e+003,-1.347614e-002
2.699897e+003,-1.350181e-002
2.701825e+003,-1.359986e-002
2.703754e+003,-1.358692e-002
2.705682e+003,-1.350342e-002
2.707611e+003,-1.341084e-002
2.709539e+003,-1.339500e-002
2.711468e+003,-1.344001e-002
2.713396e+003,-1.333067e-002
2.715325e+003,-1.326669e-002
2.717253e+003,-1.317831e-002
2.719182e+003,-1.309418e-002
2.721110e+003,-1.301595e-002
2.723039e+003,-1.295372e-002
2.724967e+003,-1.294060e-002
2.726896e+003,-1.288512e-002
2.728824e+003,-1.280534e-002
2.730753e+003,-1.275004e-002
2.732681e+003,-1.269469e-002
2.734610e+003,-1.264938e-002
2.736538e+003,-1.254658e-002
2.738467e+003,-1.246861e-002
2.740395e+003,-1.231320e-002
2.742324e+003,-1.229977e-002
2.744252e+003,-1.233307e-002
2.746181e+003,-1.232196e-002
2.748109e+003,-1.219018e-002
2.750038e+003,-1.205994e-002
2.751966e+003,-1.201704e-002
2.753895e+003,-1.184403e-002
2.755823e+003,-1.179715e-002
2.757752e+003,-1.182794e-002
2.759680e+003,-1.167734e-002
2.761609e+003,-1.133533e-002
2.763537e+003,-1.102145e-002
2.765466e+003,-1.090056e-002
2.767394e+003,-1.060140e-002
2.769323e+003,-1.022194e-002
2.771251e+003,-9.878659e-003
2.773180e+003,-9.490272e-003
2.775108e+003,-9.108515e-003
2.777037e+003,-8.694658e-003
2.778965e+003,-8.179035e-003
2.780894e+003,-7.617709e-003
2.782822e+003,-7.032705e-003
2.784750e+003,-6.360915e-003
2.786679e+003,-5.602655e-003
2.788608e+003,-4.892642e-003
2.790536e+003,-4.219827e-003
2.792465e+003,-3.537884e-003
2.794393e+003,-2.824123e-003
2.796322e+003,-2.136026e-003
2.798250e+003,-1.436732e-003
2.800178e+003,-7.462329e-004
2.802107e+003,-6.056480e-005
2.804036e+003,4.818042e-004
2.805964e+003,9.399689e-004
2.807893e+003,1.220981e-003
2.809821e+003,1.283885e-003
2.811750e+003,1.392967e-003
2.813678e+003,1.453867e-003
2.815606e+003,1.334434e-003
2.817535e+003,1.199384e-003
2.819464e+003,8.803353e-004
2.821392e+003,5.587009e-004
2.823321e+003,1.804192e-004
2.825249e+003,-4.388705e-004
2.827177e+003,-9.332770e-004
2.829106e+003,-1.387390e-003
2.831034e+003,-1.962001e-003
2.832963e+003,-2.462321e-003
2.834892e+003,-3.079731e-003
2.836820e+003,-3.760390e-003
2.838749e+003,-4.324294e-003
2.840677e+003,-4.961995e-003
2.842605e+003,-5.698254e-003
2.844534e+003,-6.519902e-003
2.846462e+003,-7.271448e-003
2.848391e+003,-7.973779e-003
2.850320e+003,-8.480808e-003
2.852248e+003,-8.741845e-003
2.854177e+003,-8.861625e-003
2.856105e+003,-8.983123e-003
2.858033e+003,-9.139629e-003
2.859962e+003,-9.162242e-003
2.861890e+003,-9.127982e-003
2.863819e+003,-9.082102e-003
2.865748e+003,-9.015805e-003
2.867676e+003,-8.931418e-003
2.869604e+003,-8.903340e-003
2.871533e+003,-8.848606e-003
2.873461e+003,-8.767239e-003
2.875390e+003,-8.596013e-003
2.877319e+003,-8.469240e-003
2.879247e+003,-8.263828e-003
2.881176e+003,-8.097576e-003
2.883104e+003,-8.087624e-003
2.885032e+003,-8.116600e-003
2.886961e+003,-8.116146e-003
2.888889e+003,-8.232228e-003
2.890818e+003,-8.360111e-003
2.892747e+003,-8.511772e-003
2.894675e+003,-8.632557e-003
2.896604e+003,-8.703037e-003
2.898532e+003,-8.789807e-003
2.900460e+003,-8.962936e-003
2.902389e+003,-9.108904e-003
2.904317e+003,-9.118442e-003
2.906246e+003,-9.123601e-003
2.908175e+003,-9.150238e-003
2.910103e+003,-9.307656e-003
2.912031e+003,-9.579542e-003
2.913960e+003,-9.816111e-003
2.915888e+003,-1.002795e-002
2.917817e+003,-1.001716e-002
2.919745e+003,-9.868035e-003
2.921674e+003,-9.614318e-003
2.923603e+003,-9.421509e-003
2.925531e+003,-9.152801e-003
2.927459e+003,-8.875844e-003
2.929388e+003,-8.645128e-003
2.931316e+003,-8.369472e-003
2.933245e+003,-7.989524e-003
2.935173e+003,-7.726732e-003
2.937102e+003,-7.603318e-003
2.939031e+003,-7.541549e-003
2.940959e+003,-7.468080e-003
2.942887e+003,-7.526147e-003
2.944816e+003,-7.712019e-003
2.946744e+003,-7.946062e-003
2.948673e+003,-8.205698e-003
2.950601e+003,-8.633824e-003
2.952530e+003,-9.108839e-003
2.954458e+003,-9.552899e-003
2.956387e+003,-1.006706e-002
2.958315e+003,-1.082642e-002
2.960244e+003,-1.155317e-002
2.962172e+003,-1.208375e-002
2.964101e+003,-1.246081e-002
2.966029e+003,-1.292349e-002
2.967958e+003,-1.349542e-002
2.969886e+003,-1.396117e-002
2.971815e+003,-1.437744e-002
2.973743e+003,-1.467014e-002
2.975672e+003,-1.506118e-002
2.977600e+003,-1.539400e-002
2.979529e+003,-1.550176e-002
2.981457e+003,-1.580785e-002
2.983386e+003,-1.616902e-002
2.985314e+003,-1.641993e-002
2.987243e+003,-1.651987e-002
2.989171e+003,-1.656223e-002
2.991100e+003,-1.670675e-002
2.993028e+003,-1.694763e-002
2.994957e+003,-1.701308e-002
2.996885e+003,-1.708052e-002
2.998814e+003,-1.713983e-002
3.000742e+003,-1.722404e-002
3.002671e+003,-1.738967e-002
3.004599e+003,-1.743602e-002
3.006528e+003,-1.739715e-002
3.008456e+003,-1.751279e-002
3.010385e+003,-1.762635e-002
3.012313e+003,-1.754451e-002
3.014242e+003,-1.756653e-002
3.016170e+003,-1.767267e-002
3.018099e+003,-1.772389e-002
3.020027e+003,-1.766762e-002
3.021956e+003,-1.767197e-002
3.023884e+003,-1.773477e-002
3.025813e+003,-1.782910e-002
3.027741e+003,-1.801573e-002
3.029670e+003,-1.796595e-002
3.031598e+003,-1.777774e-002
3.033527e+003,-1.779504e-002
3.035455e+003,-1.793998e-002
3.037384e+003,-1.805178e-002
3.039312e+003,-1.817016e-002
3.041241e+003,-1.825045e-002
3.043169e+003,-1.826529e-002
3.045098e+003,-1.828438e-002
3.047026e+003,-1.822084e-002
3.048955e+003,-1.822107e-002
3.050883e+003,-1.837002e-002
3.052812e+003,-1.840267e-002
3.054740e+003,-1.832073e-002
3.056669e+003,-1.836551e-002
3.058597e+003,-1.845479e-002
3.060526e+003,-1.846577e-002
3.062454e+003,-1.844672e-002
3.064383e+003,-1.854223e-002
3.066311e+003,-1.860350e-002
3.068240e+003,-1.866918e-002
3.070168e+003,-1.877223e-002
3.072097e+003,-1.877895e-002
3.074025e+003,-1.875718e-002
3.075954e+003,-1.868673e-002
3.077882e+003,-1.865934e-002
3.079811e+003,-1.878286e-002
3.081739e+003,-1.896049e-002
3.083668e+003,-1.891487e-002
3.085596e+003,-1.885837e-002
3.087525e+003,-1.894637e-002
3.089453e+003,-1.893968e-002
3.091382e+003,-1.896692e-002
3.093310e+003,-1.903150e-002
3.095239e+003,-1.891547e-002
3.097167e+003,-1.883616e-002
3.099096e+003,-1.895240e-002
3.101024e+003,-1.914644e-002
3.102953e+003,-1.922326e-002
3.104881e+003,-1.918151e-002
3.106810e+003,-1.910171e-002
3.108738e+003,-1.909543e-002
3.110667e+003,-1.929343e-002
3.112595e+003,-1.944373e-002
3.114524e+003,-1.925809e-002
3.116452e+003,-1.916626e-002
3.118381e+003,-1.926186e-002
3.120309e+003,-1.939475e-002
3.122238e+003,-1.942881e-002
3.124166e+003,-1.946911e-002
3.126095e+003,-1.958147e-002
3.128023e+003,-1.960998e-002
3.129952e+003,-1.948210e-002
3.131880e+003,-1.939057e-002
3.133809e+003,-1.934782e-002
3.135737e+003,-1.942745e-002
3.137666e+003,-1.952385e-002
3.139594e+003,-1.960849e-002
3.141523e+003,-1.965219e-002
3.143451e+003,-1.959132e-002
3.145380e+003,-1.952040e-002
3.147308e+003,-1.949233e-002
3.149237e+003,-1.959370e-002
3.151165e+003,-1.965387e-002
3.153094e+003,-1.968807e-002
3.155022e+003,-1.966565e-002
3.156951e+003,-1.964101e-002
3.158879e+003,-1.954600e-002
3.160808e+003,-1.943084e-002
3.162736e+003,-1.965859e-002
3.164665e+003,-1.975459e-002
3.166593e+003,-1.969523e-002
3.168522e+003,-1.963215e-002
3.170450e+003,-1.960611e-002
3.172379e+003,-1.952566e-002
3.174307e+003,-1.957153e-002
3.176236e+003,-1.958271e-002
3.178164e+003,-1.960592e-002
3.180093e+003,-1.963167e-002
3.182021e+003,-1.963972e-002
3.183950e+003,-1.966274e-002
3.185878e+003,-1.973136e-002
3.187807e+003,-1.972319e-002
3.189735e+003,-1.974168e-002
3.191664e+003,-1.983231e-002
3.193592e+003,-1.988245e-002
3.195521e+003,-1.988790e-002
3.197449e+003,-1.977172e-002
3.199378e+003,-1.977144e-002
3.201306e+003,-1.988745e-002
3.203235e+003,-1.991372e-002
3.205163e+003,-1.974000e-002
3.207092e+003,-1.976109e-002
3.209020e+003,-1.977302e-002
3.210948e+003,-1.965238e-002
3.212877e+003,-1.957599e-002
3.214806e+003,-1.955860e-002
3.216734e+003,-1.970900e-002
3.218663e+003,-1.981079e-002
3.220591e+003,-1.970020e-002
3.222520e+003,-1.950960e-002
3.224448e+003,-1.944348e-002
3.226376e+003,-1.936753e-002
3.228305e+003,-1.929232e-002
3.230234e+003,-1.924196e-002
3.232162e+003,-1.923866e-002
3.234091e+003,-1.924294e-002
3.236019e+003,-1.924491e-002
3.237948e+003,-1.925026e-002
3.239876e+003,-1.911480e-002
3.241804e+003,-1.906533e-002
3.243733e+003,-1.916635e-002
3.245662e+003,-1.906927e-002
3.247590e+003,-1.904333e-002
3.249519e+003,-1.901253e-002
3.251447e+003,-1.901161e-002
3.253375e+003,-1.908021e-002
3.255304e+003,-1.912599e-002
3.257232e+003,-1.884508e-002
3.259161e+003,-1.870536e-002
3.261090e+003,-1.876096e-002
3.263018e+003,-1.873472e-002
3.264947e+003,-1.881094e-002
3.266875e+003,-1.892892e-002
3.268803e+003,-1.881678e-002
3.270732e+003,-1.880741e-002
3.272660e+003,-1.863147e-002
3.274589e+003,-1.849832e-002
3.276518e+003,-1.845453e-002
3.278446e+003,-1.839667e-002
3.280375e+003,-1.848130e-002
3.282303e+003,-1.858782e-002
3.284231e+003,-1.865458e-002
3.286160e+003,-1.858798e-002
3.288088e+003,-1.859700e-002
3.290017e+003,-1.876010e-002
3.291946e+003,-1.889378e-002
3.293874e+003,-1.901082e-002
3.295802e+003,-1.901412e-002
3.297731e+003,-1.897549e-002
3.299659e+003,-1.901183e-002
3.301588e+003,-1.905018e-002
3.303516e+003,-1.912361e-002
3.305445e+003,-1.922481e-002
3.307374e+003,-1.931068e-002
3.309302e+003,-1.945676e-002
3.311230e+003,-1.960459e-002
3.313159e+003,-1.973943e-002
3.315087e+003,-1.981560e-002
3.317016e+003,-1.988720e-002
3.318944e+003,-2.008361e-002
3.320873e+003,-2.016890e-002
3.322802e+003,-2.025549e-002
3.324730e+003,-2.047418e-002
3.326658e+003,-2.055882e-002
3.328587e+003,-2.050655e-002
3.330515e+003,-2.037694e-002
3.332444e+003,-2.034656e-002
3.334372e+003,-2.048487e-002
3.336301e+003,-2.061848e-002
3.338229e+003,-2.068695e-002
3.340158e+003,-2.062550e-002
3.342086e+003,-2.061241e-002
3.344015e+003,-2.054299e-002
3.345943e+003,-2.062970e-002
3.347872e+003,-2.088145e-002
3.349800e+003,-2.083762e-002
3.351729e+003,-2.081444e-002
3.353657e+003,-2.090103e-002
3.355586e+003,-2.095540e-002
3.357514e+003,-2.106517e-002
3.359443e+003,-2.111993e-002
3.361371e+003,-2.106122e-002
3.363300e+003,-2.111835e-002
3.365229e+003,-2.119965e-002
3.367157e+003,-2.114338e-002
3.369085e+003,-2.129046e-002
3.371014e+003,-2.140683e-002
3.372942e+003,-2.148141e-002
3.374871e+003,-2.171550e-002
3.376799e+003,-2.185582e-002
3.378728e+003,-2.191890e-002
3.380656e+003,-2.194797e-002
3.382585e+003,-2.203538e-002
3.384513e+003,-2.208275e-002
3.386442e+003,-2.211323e-002
3.388370e+003,-2.207412e-002
3.390299e+003,-2.217573e-002
3.392227e+003,-2.223451e-002
3.394156e+003,-2.218181e-002
3.396084e+003,-2.230401e-002
3.398013e+003,-2.236941e-002
3.399941e+003,-2.236778e-002
3.401870e+003,-2.236331e-002
3.403798e+003,-2.237775e-002
3.405727e+003,-2.254476e-002
3.407655e+003,-2.256304e-002
3.409584e+003,-2.245510e-002
3.411512e+003,-2.245988e-002
3.413441e+003,-2.257383e-002
3.415369e+003,-2.261922e-002
3.417298e+003,-2.249528e-002
3.419226e+003,-2.250509e-002
3.421155e+003,-2.270165e-002
3.423083e+003,-2.282122e-002
3.425012e+003,-2.281965e-002
3.426940e+003,-2.289179e-002
3.428869e+003,-2.287771e-002
3.430797e+003,-2.280821e-002
3.432726e+003,-2.287554e-002
3.434654e+003,-2.309681e-002
3.436583e+003,-2.320654e-002
3.438511e+003,-2.303058e-002
3.440440e+003,-2.291150e-002
3.442368e+003,-2.291257e-002
3.444297e+003,-2.296022e-002
3.446225e+003,-2.294802e-002
3.448154e+003,-2.303391e-002
3.450082e+003,-2.305355e-002
3.452011e+003,-2.319266e-002
3.453939e+003,-2.331750e-002
3.455868e+003,-2.339267e-002
3.457796e+003,-2.324379e-002
3.459725e+003,-2.305396e-002
3.461653e+003,-2.298240e-002
3.463582e+003,-2.313077e-002
3.465510e+003,-2.321584e-002
3.467439e+003,-2.327149e-002
3.469367e+003,-2.337647e-002
3.471296e+003,-2.341333e-002
3.473224e+003,-2.335672e-002
3.475153e+003,-2.336714e-002
3.477081e+003,-2.335436e-002
3.479010e+003,-2.346663e-002
3.480938e+003,-2.339844e-002
3.482867e+003,-2.327181e-002
3.484795e+003,-2.321577e-002
3.486724e+003,-2.320984e-002
3.488652e+003,-2.323054e-002
3.490581e+003,-2.342221e-002
3.492509e+003,-2.355693e-002
3.494438e+003,-2.327884e-002
3.496366e+003,-2.293281e-002
3.498295e+003,-2.296920e-002
3.500223e+003,-2.319866e-002
3.502152e+003,-2.343219e-002
3.504080e+003,-2.359550e-002
3.506009e+003,-2.342745e-002
3.507937e+003,-2.327212e-002
3.509866e+003,-2.334306e-002
3.511794e+003,-2.332519e-002
3.513723e+003,-2.333050e-002
3.515651e+003,-2.343015e-002
3.517580e+003,-2.336520e-002
3.519508e+003,-2.336353e-002
3.521437e+003,-2.347410e-002
3.523365e+003,-2.350107e-002
3.525294e+003,-2.349677e-002
3.527222e+003,-2.340516e-002
3.529151e+003,-2.346268e-002
3.531079e+003,-2.351274e-002
3.533008e+003,-2.346801e-002
3.534936e+003,-2.341264e-002
3.536865e+003,-2.341468e-002
3.538793e+003,-2.343132e-002
3.540722e+003,-2.324213e-002
3.542650e+003,-2.311236e-002
3.544579e+003,-2.326113e-002
3.546507e+003,-2.340033e-002
3.548436e+003,-2.347919e-002
3.550364e+003,-2.354404e-002
3.552293e+003,-2.348634e-002
3.554221e+003,-2.335037e-002
3.556150e+003,-2.339844e-002
3.558078e+003,-2.333851e-002
3.560007e+003,-2.324291e-002
3.561935e+003,-2.319640e-002
3.563864e+003,-2.336520e-002
3.565792e+003,-2.343756e-002
3.567721e+003,-2.325205e-002
3.569649e+003,-2.329552e-002
3.571578e+003,-2.343088e-002
3.573506e+003,-2.329508e-002
3.575435e+003,-2.313237e-002
3.577363e+003,-2.323540e-002
3.579292e+003,-2.337060e-002
3.581220e+003,-2.340611e-002
3.583149e+003,-2.346939e-002
3.585077e+003,-2.342538e-002
3.587006e+003,-2.342086e-002
3.588934e+003,-2.329630e-002
3.590863e+003,-2.333100e-002
3.592791e+003,-2.347847e-002
3.594720e+003,-2.348817e-002
3.596648e+003,-2.329175e-002
3.598577e+003,-2.307476e-002
3.600505e+003,-2.304937e-002
3.602434e+003,-2.322476e-002
3.604362e+003,-2.320899e-002
3.606291e+003,-2.321559e-002
3.608219e+003,-2.314840e-002
3.610148e+003,-2.319159e-002
3.612076e+003,-2.332927e-002
3.614005e+003,-2.336275e-002
3.615933e+003,-2.358666e-002
3.617862e+003,-2.347781e-002
3.619790e+003,-2.316718e-002
3.621719e+003,-2.338589e-002
3.623647e+003,-2.359472e-002
3.625576e+003,-2.347410e-002
3.627504e+003,-2.317268e-002
3.629433e+003,-2.288783e-002
3.631361e+003,-2.317975e-002
3.633290e+003,-2.350097e-002
3.635218e+003,-2.353785e-002
3.637146e+003,-2.358154e-002
3.639075e+003,-2.362416e-002
3.641004e+003,-2.341395e-002
3.642932e+003,-2.345065e-002
3.644861e+003,-2.375960e-002
3.646789e+003,-2.370818e-002
3.648718e+003,-2.353082e-002
3.650646e+003,-2.336077e-002
3.652574e+003,-2.352363e-002
3.654503e+003,-2.364524e-002
3.656432e+003,-2.349165e-002
3.658360e+003,-2.364066e-002
3.660289e+003,-2.389786e-002
3.662217e+003,-2.395167e-002
3.664146e+003,-2.373990e-002
3.666074e+003,-2.382911e-002
3.668002e+003,-2.406266e-002
3.669931e+003,-2.385238e-002
3.671860e+003,-2.405300e-002
3.673788e+003,-2.422667e-002
3.675717e+003,-2.356453e-002
3.677645e+003,-2.337314e-002
3.679573e+003,-2.367107e-002
3.681502e+003,-2.380734e-002
3.683430e+003,-2.393072e-002
3.685359e+003,-2.408266e-002
3.687288e+003,-2.389055e-002
3.689216e+003,-2.357489e-002
3.691145e+003,-2.368402e-002
3.693073e+003,-2.381312e-002
3.695001e+003,-2.396004e-002
3.696930e+003,-2.402557e-002
3.698858e+003,-2.408805e-002
3.700787e+003,-2.385047e-002
3.702716e+003,-2.371251e-002
3.704644e+003,-2.380248e-002
3.706573e+003,-2.402196e-002
3.708501e+003,-2.417324e-002
3.710429e+003,-2.394417e-002
3.712358e+003,-2.358640e-002
3.714286e+003,-2.374828e-002
3.716215e+003,-2.410190e-002
3.718144e+003,-2.412099e-002
3.720072e+003,-2.401187e-002
3.722000e+003,-2.395612e-002
3.723929e+003,-2.397302e-002
3.725857e+003,-2.392364e-002
3.727786e+003,-2.378906e-002
3.729714e+003,-2.404253e-002
3.731643e+003,-2.425885e-002
3.733572e+003,-2.436114e-002
3.735500e+003,-2.409102e-002
3.737428e+003,-2.391702e-002
3.739357e+003,-2.398462e-002
3.741285e+003,-2.401814e-002
3.743214e+003,-2.402623e-002
3.745142e+003,-2.355050e-002
3.747071e+003,-2.406849e-002
3.749000e+003,-2.399767e-002
3.750928e+003,-2.349912e-002
3.752856e+003,-2.326578e-002
3.754785e+003,-2.370184e-002
3.756713e+003,-2.381851e-002
3.758642e+003,-2.361841e-002
3.760570e+003,-2.361057e-002
3.762499e+003,-2.367515e-002
3.764427e+003,-2.362886e-002
3.766356e+003,-2.364675e-002
3.768284e+003,-2.381343e-002
3.770213e+003,-2.375113e-002
3.772141e+003,-2.361945e-002
3.774070e+003,-2.365695e-002
3.775998e+003,-2.374068e-002
3.777927e+003,-2.381327e-002
3.779855e+003,-2.376559e-002
3.781784e+003,-2.377808e-002
3.783712e+003,-2.368186e-002
3.785641e+003,-2.342573e-002
3.787569e+003,-2.364681e-002
3.789498e+003,-2.374235e-002
3.791426e+003,-2.380010e-002
3.793355e+003,-2.394841e-002
3.795283e+003,-2.367599e-002
3.797212e+003,-2.356221e-002
3.799140e+003,-2.392451e-002
3.801069e+003,-2.381352e-002
3.802997e+003,-2.363228e-002
3.804926e+003,-2.403714e-002
3.806854e+003,-2.387738e-002
3.808783e+003,-2.384184e-002
3.810711e+003,-2.377651e-002
3.812640e+003,-2.393229e-002
3.814568e+003,-2.396086e-002
3.816497e+003,-2.342381e-002
3.818425e+003,-2.365823e-002
3.820354e+003,-2.351560e-002
3.822282e+003,-2.325064e-002
3.824211e+003,-2.357388e-002
3.826139e+003,-2.373090e-002
3.828068e+003,-2.380254e-002
3.829996e+003,-2.378181e-002
3.831925e+003,-2.360639e-002
3.833853e+003,-2.354799e-002
3.835782e+003,-2.368541e-002
3.837710e+003,-2.349181e-002
3.839639e+003,-2.341053e-002
3.841567e+003,-2.360997e-002
3.843496e+003,-2.361098e-002
3.845424e+003,-2.380985e-002
3.847353e+003,-2.407501e-002
3.849281e+003,-2.399030e-002
3.851210e+003,-2.377033e-002
3.853138e+003,-2.309851e-002
3.855067e+003,-2.307089e-002
3.856995e+003,-2.365579e-002
3.858924e+003,-2.385445e-002
3.860852e+003,-2.381233e-002
3.862781e+003,-2.383008e-002
3.864709e+003,-2.362711e-002
3.866638e+003,-2.365955e-002
3.868566e+003,-2.377591e-002
3.870495e+003,-2.335857e-002
3.872423e+003,-2.369381e-002
3.874352e+003,-2.368045e-002
3.876280e+003,-2.384646e-002
3.878209e+003,-2.408883e-002
3.880137e+003,-2.387130e-002
3.882066e+003,-2.385875e-002
3.883994e+003,-2.407902e-002
3.885923e+003,-2.364584e-002
3.887851e+003,-2.378956e-002
3.889780e+003,-2.405055e-002
3.891708e+003,-2.405366e-002
3.893637e+003,-2.420959e-002
3.895565e+003,-2.420511e-002
3.897494e+003,-2.408814e-002
3.899422e+003,-2.379646e-002
3.901351e+003,-2.381700e-002
3.903279e+003,-2.371653e-002
3.905208e+003,-2.352235e-002
3.907136e+003,-2.384200e-002
3.909065e+003,-2.401641e-002
3.910993e+003,-2.405507e-002
3.912922e+003,-2.414597e-002
3.914850e+003,-2.409519e-002
3.916779e+003,-2.412488e-002
3.918707e+003,-2.415547e-002
3.920636e+003,-2.429203e-002
3.922564e+003,-2.455263e-002
3.924493e+003,-2.427799e-002
3.926421e+003,-2.400745e-002
3.928350e+003,-2.408266e-002
3.930278e+003,-2.418906e-002
3.932207e+003,-2.398864e-002
3.934135e+003,-2.360803e-002
3.936064e+003,-2.358104e-002
3.937992e+003,-2.398099e-002
3.939921e+003,-2.421125e-002
3.941849e+003,-2.410077e-002
3.943778e+003,-2.401833e-002
3.945706e+003,-2.430572e-002
3.947635e+003,-2.417737e-002
3.949563e+003,-2.395368e-002
3.951492e+003,-2.411218e-002
3.953420e+003,-2.420386e-002
3.955349e+003,-2.412409e-002
3.957277e+003,-2.418308e-002
3.959206e+003,-2.444894e-002
3.961134e+003,-2.450015e-002
3.963063e+003,-2.437402e-002
3.964991e+003,-2.453494e-002
3.966920e+003,-2.454756e-002
3.968848e+003,-2.443256e-002
3.970777e+003,-2.436218e-002
3.972705e+003,-2.436190e-002
3.974634e+003,-2.427872e-002
3.976562e+003,-2.417089e-002
3.978491e+003,-2.434084e-002
3.980419e+003,-2.442736e-002
3.982348e+003,-2.449088e-002
3.984276e+003,-2.431891e-002
3.986205e+003,-2.428536e-002
3.988133e+003,-2.412240e-002
3.990062e+003,-2.397898e-002
3.991990e+003,-2.409757e-002
3.993919e+003,-2.427799e-002
3.995847e+003,-2.446930e-002
3.997776e+003,-2.455567e-002
3.999704e+003,-2.441628e-002
4.001633e+003,0.000000e+000
