3.991989e+002,4.254306e-003
4.011274e+002,1.522207e-002
4.030559e+002,9.623019e-003
4.049844e+002,8.832570e-004
4.069129e+002,2.728360e-003
4.088414e+002,8.292058e-003
4.107699e+002,1.044024e-002
4.126984e+002,4.847190e-003
4.146269e+002,8.406191e-003
4.165554e+002,1.513063e-002
4.184839e+002,7.845271e-003
4.204124e+002,2.470845e-004
4.223409e+002,-3.223739e-004
4.242694e+002,1.094636e-003
4.261979e+002,5.557124e-003
4.281264e+002,4.889812e-003
4.300549e+002,-7.387529e-003
4.319834e+002,-1.233583e-003
4.339119e+002,2.446671e-003
4.358404e+002,-3.232393e-003
4.377689e+002,7.368343e-003
4.396974e+002,1.048219e-002
4.416259e+002,-4.402938e-004
4.435544e+002,-1.530379e-003
4.454829e+002,1.549890e-003
4.474114e+002,5.229695e-003
4.493399e+002,8.563709e-003
4.512684e+002,1.693298e-003
4.531969e+002,-1.896455e-003
4.551254e+002,1.307846e-003
4.570539e+002,2.552778e-003
4.589824e+002,2.649678e-003
4.609109e+002,1.091547e-003
4.628394e+002,2.362521e-005
4.647679e+002,3.836087e-003
4.666964e+002,3.754096e-003
4.686249e+002,2.032619e-003
4.705533e+002,1.198254e-003
4.724819e+002,9.623834e-004
4.744103e+002,1.629171e-003
4.763389e+002,2.444638e-003
4.782673e+002,1.224769e-003
4.801959e+002,2.126738e-003
4.821243e+002,3.997140e-003
4.840529e+002,2.064844e-003
4.859813e+002,7.843610e-004
4.879099e+002,2.108625e-003
4.898383e+002,1.947273e-003
4.917668e+002,2.012679e-003
4.936953e+002,3.760914e-003
4.956238e+002,1.380069e-003
4.975523e+002,6.292735e-004
4.994808e+002,2.104463e-003
5.014093e+002,7.754983e-004
5.033378e+002,9.077604e-004
5.052663e+002,3.071760e-003
5.071948e+002,4.688401e-003
5.091233e+002,2.201462e-003
5.110518e+002,1.490971e-003
5.129803e+002,6.572800e-004
5.149088e+002,7.104519e-005
5.168373e+002,1.722318e-004
5.187658e+002,1.622952e-003
5.206943e+002,2.521650e-003
5.226228e+002,2.315771e-003
5.245513e+002,2.273435e-003
5.264798e+002,2.552978e-003
5.284083e+002,1.803348e-003
5.303368e+002,1.569177e-003
5.322653e+002,8.171911e-004
5.341938e+002,1.149914e-003
5.361223e+002,1.757934e-003
5.380508e+002,1.467565e-003
5.399792e+002,1.195563e-003
5.419078e+002,1.842278e-003
5.438363e+002,1.423349e-003
5.457648e+002,1.297112e-003
5.476932e+002,9.239972e-004
5.496218e+002,6.727774e-004
5.515503e+002,9.328297e-004
5.534788e+002,5.854422e-004
5.554072e+002,1.038435e-003
5.573358e+002,1.403072e-003
5.592643e+002,8.759528e-004
5.611927e+002,1.972336e-003
5.631212e+002,2.123242e-003
5.650497e+002,1.733948e-003
5.669783e+002,3.689263e-003
5.689067e+002,5.402068e-003
5.708352e+002,2.653512e-003
5.727637e+002,-2.154160e-003
5.746923e+002,-2.281373e-003
5.766207e+002,1.857518e-003
5.785492e+002,7.483211e-003
5.804777e+002,1.929992e-002
5.824063e+002,7.671151e-003
5.843347e+002,-4.720046e-003
5.862632e+002,2.960855e-003
5.881917e+002,4.125603e-003
5.901202e+002,3.415065e-003
5.920487e+002,3.389919e-003
5.939772e+002,1.561828e-003
5.959057e+002,8.043111e-004
5.978342e+002,-8.888953e-005
5.997627e+002,5.329566e-004
6.016912e+002,1.181110e-003
6.036197e+002,9.166258e-004
6.055482e+002,1.139084e-003
6.074767e+002,1.440702e-003
6.094052e+002,2.243093e-003
6.113337e+002,3.223016e-003
6.132622e+002,4.209605e-003
6.151907e+002,3.354556e-003
6.171192e+002,2.144319e-003
6.190477e+002,1.603762e-003
6.209762e+002,2.027825e-003
6.229047e+002,1.015652e-003
6.248332e+002,1.690970e-003
6.267617e+002,1.997966e-003
6.286902e+002,7.718139e-004
6.306187e+002,4.856188e-004
6.325472e+002,4.921868e-004
6.344756e+002,3.854205e-004
6.364042e+002,5.638102e-004
6.383326e+002,1.132041e-003
6.402612e+002,1.055474e-003
6.421896e+002,7.895393e-004
6.441182e+002,9.399357e-004
6.460466e+002,2.834880e-004
6.479752e+002,1.561225e-004
6.499036e+002,7.974397e-004
6.518322e+002,3.692702e-004
6.537606e+002,2.147948e-004
6.556891e+002,7.472518e-004
6.576177e+002,8.160624e-004
6.595461e+002,9.084577e-004
6.614746e+002,9.645087e-004
6.634031e+002,5.208811e-004
6.653317e+002,-3.433317e-004
6.672601e+002,-4.133161e-004
6.691886e+002,5.174974e-004
6.711171e+002,5.238668e-004
6.730457e+002,1.288443e-004
6.749741e+002,9.520453e-005
6.769026e+002,8.956414e-004
6.788311e+002,1.611279e-003
6.807596e+002,9.857289e-004
6.826881e+002,2.256683e-004
6.846166e+002,2.160545e-004
6.865451e+002,1.125709e-004
6.884736e+002,3.628035e-004
6.904021e+002,4.497623e-004
6.923306e+002,5.104315e-004
6.942591e+002,6.819698e-004
6.961876e+002,7.455922e-004
6.981161e+002,6.792154e-004
7.000446e+002,7.670674e-004
7.019731e+002,1.013294e-003
7.039016e+002,1.028704e-003
7.058301e+002,8.029832e-004
7.077585e+002,8.652290e-004
7.096871e+002,9.162273e-004
7.116156e+002,4.698628e-004
7.135441e+002,3.566024e-004
7.154725e+002,6.315963e-004
7.174011e+002,6.722132e-004
7.193296e+002,8.296731e-004
7.212581e+002,3.556075e-004
7.231865e+002,2.730440e-004
7.251151e+002,7.730089e-004
7.270436e+002,5.588668e-004
7.289720e+002,2.700601e-004
7.309005e+002,-4.105113e-005
7.328290e+002,1.753476e-004
7.347576e+002,8.536423e-004
7.366860e+002,1.102741e-003
7.386145e+002,1.234638e-003
7.405430e+002,8.045766e-004
7.424716e+002,3.747751e-004
7.444000e+002,2.857094e-004
7.463285e+002,1.631495e-004
7.482570e+002,3.334896e-004
7.501855e+002,5.215778e-004
7.521140e+002,1.002201e-003
7.540425e+002,1.187755e-003
7.559710e+002,8.429523e-004
7.578995e+002,2.453937e-004
7.598280e+002,3.736476e-004
7.617565e+002,5.133176e-004
7.636850e+002,3.649922e-004
7.656135e+002,5.616868e-004
7.675420e+002,5.210802e-004
7.694705e+002,3.067307e-004
7.713990e+002,-6.351331e-005
7.733275e+002,2.738066e-004
7.752560e+002,3.726195e-004
7.771844e+002,3.330585e-004
7.791130e+002,6.254244e-004
7.810415e+002,7.760294e-004
7.829700e+002,5.970881e-004
7.848984e+002,4.948737e-004
7.868270e+002,7.930580e-004
7.887555e+002,1.233674e-003
7.906840e+002,1.351119e-003
7.926124e+002,7.745358e-004
7.945410e+002,5.103984e-004
7.964695e+002,6.716159e-004
7.983979e+002,4.683702e-004
8.003264e+002,5.410513e-004
8.022549e+002,4.637264e-004
8.041835e+002,3.977574e-004
8.061119e+002,6.566495e-004
8.080404e+002,4.604095e-004
8.099689e+002,2.622688e-004
8.118975e+002,3.139259e-004
8.138259e+002,2.678056e-004
8.157545e+002,1.931757e-005
8.176830e+002,2.876130e-005
8.196115e+002,3.292452e-004
8.215399e+002,5.891582e-004
8.234684e+002,6.652775e-004
8.253970e+002,6.725782e-004
8.273254e+002,9.565389e-004
8.292539e+002,1.222177e-003
8.311824e+002,9.435219e-004
8.331110e+002,2.178115e-004
8.350394e+002,5.099339e-004
8.369679e+002,5.135498e-004
8.388964e+002,2.600143e-004
8.408250e+002,5.160046e-004
8.427534e+002,5.780102e-004
8.446819e+002,3.473173e-004
8.466104e+002,4.255169e-004
8.485389e+002,7.444638e-004
8.504674e+002,1.012397e-003
8.523959e+002,8.690802e-004
8.543244e+002,5.403546e-004
8.562529e+002,3.546790e-004
8.581814e+002,4.310226e-004
8.601099e+002,8.671546e-004
8.620384e+002,1.005688e-003
8.639669e+002,1.218223e-003
8.658954e+002,8.441474e-004
8.678239e+002,4.478386e-004
8.697524e+002,6.180581e-004
8.716809e+002,1.109385e-003
8.736094e+002,1.551619e-003
8.755378e+002,1.463841e-003
8.774664e+002,7.400494e-004
8.793949e+002,6.121187e-004
8.813234e+002,5.392930e-004
8.832518e+002,3.925175e-004
8.851804e+002,5.221749e-004
8.871089e+002,7.005545e-004
8.890374e+002,5.859399e-004
8.909658e+002,5.350134e-004
8.928943e+002,6.704876e-004
8.948229e+002,5.014749e-004
8.967513e+002,4.402431e-004
8.986798e+002,4.774588e-004
9.006083e+002,6.010364e-004
9.025369e+002,7.179450e-004
9.044653e+002,8.099875e-004
9.063938e+002,8.678850e-004
9.083223e+002,6.920585e-004
9.102509e+002,5.118248e-004
9.121793e+002,4.416693e-004
9.141078e+002,5.234024e-004
9.160364e+002,4.565287e-004
9.179648e+002,3.668825e-004
9.198933e+002,4.164294e-004
9.218218e+002,5.507054e-004
9.237504e+002,5.711092e-004
9.256788e+002,6.590057e-004
9.276073e+002,9.304721e-004
9.295358e+002,1.155030e-003
9.314644e+002,8.464381e-004
9.333928e+002,2.965846e-004
9.353213e+002,2.240439e-004
9.372498e+002,6.601671e-004
9.391783e+002,7.127344e-004
9.411068e+002,6.051839e-004
9.430353e+002,5.447670e-004
9.449637e+002,3.891348e-004
9.468923e+002,3.432386e-004
9.488208e+002,2.144302e-004
9.507493e+002,1.518799e-004
9.526777e+002,1.925183e-004
9.546063e+002,3.207565e-004
9.565348e+002,4.023673e-004
9.584633e+002,4.874101e-004
9.603917e+002,5.265871e-004
9.623203e+002,4.878413e-004
9.642488e+002,3.883388e-004
9.661772e+002,2.793767e-004
9.681057e+002,2.080653e-004
9.700343e+002,2.810013e-004
9.719628e+002,2.810344e-004
9.738912e+002,6.443384e-004
9.758197e+002,7.821370e-004
9.777483e+002,6.417501e-004
9.796768e+002,6.059803e-004
9.816052e+002,4.909926e-004
9.835337e+002,4.718530e-004
9.854623e+002,5.477196e-004
9.873907e+002,5.057873e-004
9.893192e+002,6.266521e-004
9.912477e+002,4.860832e-004
9.931763e+002,5.316960e-004
9.951047e+002,6.499464e-004
9.970332e+002,5.557814e-004
9.989617e+002,6.271498e-004
1.000890e+003,5.719055e-004
1.002819e+003,4.284024e-004
1.004747e+003,3.764001e-004
1.006676e+003,2.046841e-004
1.008604e+003,2.757628e-004
1.010533e+003,4.199450e-004
1.012461e+003,2.562680e-004
1.014390e+003,5.971165e-005
1.016318e+003,8.231276e-005
1.018247e+003,2.409513e-004
1.020175e+003,3.170759e-004
1.022104e+003,3.220497e-004
1.024032e+003,4.036607e-004
1.025961e+003,4.573911e-004
1.027889e+003,4.309894e-004
1.029818e+003,3.817393e-004
1.031746e+003,5.546865e-004
1.033675e+003,8.718691e-004
1.035603e+003,6.452675e-004
1.037532e+003,3.722548e-004
1.039460e+003,4.302598e-004
1.041389e+003,4.869125e-004
1.043317e+003,3.563702e-004
1.045246e+003,1.723975e-004
1.047174e+003,4.943880e-005
1.049103e+003,8.744953e-005
1.051031e+003,2.422111e-004
1.052960e+003,3.716578e-004
1.054888e+003,1.892034e-004
1.056817e+003,2.317019e-004
1.058745e+003,3.715584e-004
1.060674e+003,4.083038e-004
1.062602e+003,1.389201e-004
1.064531e+003,2.768237e-004
1.066459e+003,4.624660e-004
1.068388e+003,6.302689e-004
1.070316e+003,5.468902e-004
1.072245e+003,2.360448e-004
1.074173e+003,1.637793e-004
1.076102e+003,1.104829e-004
1.078030e+003,8.128541e-005
1.079959e+003,4.553678e-004
1.081887e+003,5.512030e-004
1.083816e+003,5.112276e-004
1.085744e+003,3.847240e-004
1.087673e+003,4.683702e-004
1.089601e+003,6.081702e-004
1.091530e+003,6.800119e-004
1.093458e+003,4.614709e-004
1.095387e+003,2.948937e-004
1.097315e+003,3.252661e-004
1.099244e+003,2.995356e-004
1.101172e+003,3.919205e-004
1.103101e+003,3.960661e-004
1.105029e+003,4.238918e-004
1.106958e+003,5.272837e-004
1.108886e+003,3.970278e-004
1.110815e+003,3.310689e-004
1.112743e+003,4.485019e-004
1.114672e+003,6.390955e-004
1.116600e+003,4.709906e-004
1.118529e+003,1.480018e-004
1.120457e+003,2.136677e-004
1.122386e+003,4.801456e-004
1.124314e+003,4.350026e-004
1.126243e+003,3.493733e-004
1.128171e+003,2.698943e-004
1.130100e+003,1.959989e-004
1.132028e+003,2.399236e-004
1.133957e+003,2.358127e-004
1.135885e+003,1.674254e-004
1.137814e+003,1.382904e-004
1.139742e+003,1.074007e-004
1.141671e+003,2.684024e-004
1.143599e+003,5.155070e-004
1.145528e+003,5.472883e-004
1.147456e+003,4.102938e-004
1.149385e+003,2.641586e-004
1.151313e+003,2.068388e-004
1.153242e+003,2.480791e-004
1.155170e+003,2.996019e-004
1.157099e+003,3.017571e-004
1.159027e+003,4.511554e-004
1.160956e+003,4.031633e-004
1.162884e+003,3.916884e-004
1.164813e+003,3.108422e-004
1.166741e+003,3.264267e-004
1.168670e+003,5.536249e-004
1.170598e+003,4.825671e-004
1.172526e+003,2.462889e-004
1.174455e+003,1.924189e-004
1.176384e+003,2.678056e-004
1.178312e+003,4.042577e-004
1.180240e+003,4.073420e-004
1.182169e+003,2.539804e-004
1.184098e+003,1.914575e-004
1.186026e+003,2.475183e-005
1.187954e+003,7.634754e-005
1.189883e+003,1.403453e-004
1.191812e+003,2.266297e-004
1.193740e+003,3.463225e-004
1.195668e+003,4.181540e-004
1.197597e+003,4.855193e-004
1.199526e+003,4.958688e-004
1.201454e+003,3.888031e-004
1.203382e+003,2.558701e-004
1.205311e+003,2.451948e-004
1.207240e+003,1.798225e-004
1.209168e+003,1.493939e-004
1.211096e+003,2.063084e-004
1.213025e+003,3.235087e-004
1.214953e+003,3.690048e-004
1.216882e+003,2.052476e-004
1.218810e+003,2.328622e-004
1.220739e+003,4.210726e-004
1.222667e+003,4.937127e-004
1.224596e+003,3.405526e-004
1.226524e+003,3.541816e-004
1.228453e+003,3.734154e-004
1.230381e+003,3.410500e-004
1.232310e+003,3.490417e-004
1.234238e+003,4.139751e-004
1.236167e+003,4.044235e-004
1.238095e+003,2.716184e-004
1.240024e+003,2.445981e-004
1.241952e+003,3.048407e-004
1.243881e+003,3.887368e-004
1.245809e+003,2.788130e-004
1.247738e+003,3.286815e-004
1.249666e+003,4.712228e-004
1.251595e+003,4.618689e-004
1.253523e+003,4.329795e-004
1.255452e+003,3.251335e-004
1.257380e+003,3.200602e-004
1.259309e+003,3.457256e-004
1.261237e+003,3.878082e-004
1.263166e+003,4.884715e-004
1.265094e+003,5.056546e-004
1.267023e+003,5.045600e-004
1.268951e+003,3.552096e-004
1.270880e+003,2.417801e-004
1.272808e+003,2.634292e-004
1.274737e+003,2.971815e-004
1.276665e+003,4.243893e-004
1.278594e+003,4.260144e-004
1.280522e+003,3.510645e-004
1.282451e+003,3.338875e-004
1.284379e+003,1.922531e-004
1.286308e+003,1.181389e-004
1.288236e+003,2.993698e-004
1.290165e+003,3.897980e-004
1.292093e+003,4.457158e-004
1.294022e+003,5.485490e-004
1.295950e+003,3.369713e-004
1.297879e+003,3.014587e-004
1.299807e+003,3.935124e-004
1.301736e+003,3.660866e-004
1.303664e+003,5.744270e-004
1.305593e+003,5.514685e-004
1.307521e+003,2.926722e-004
1.309450e+003,3.711936e-004
1.311378e+003,3.526562e-004
1.313307e+003,2.732430e-004
1.315235e+003,4.387837e-004
1.317164e+003,5.201182e-004
1.319092e+003,3.482790e-004
1.321021e+003,2.152589e-004
1.322949e+003,2.676730e-004
1.324878e+003,2.969494e-004
1.326806e+003,2.507314e-004
1.328735e+003,2.829575e-004
1.330663e+003,3.946068e-004
1.332592e+003,2.559696e-004
1.334520e+003,5.964168e-006
1.336449e+003,4.513091e-005
1.338377e+003,1.278831e-004
1.340306e+003,2.768237e-004
1.342234e+003,4.104927e-004
1.344163e+003,2.911470e-004
1.346091e+003,2.558370e-004
1.348020e+003,2.784815e-004
1.349948e+003,1.875460e-004
1.351877e+003,1.706738e-004
1.353805e+003,1.441570e-004
1.355734e+003,2.470182e-004
1.357662e+003,3.923185e-004
1.359591e+003,3.483784e-004
1.361519e+003,2.239444e-004
1.363448e+003,2.346524e-004
1.365376e+003,4.267773e-004
1.367305e+003,4.482034e-004
1.369233e+003,4.570926e-004
1.371162e+003,4.245551e-004
1.373090e+003,2.428078e-004
1.375019e+003,2.093250e-004
1.376947e+003,2.653190e-004
1.378876e+003,3.138265e-004
1.380804e+003,2.874335e-004
1.382733e+003,2.748675e-004
1.384661e+003,3.469857e-004
1.386590e+003,2.250053e-004
1.388518e+003,1.369977e-004
1.390447e+003,2.665126e-004
1.392375e+003,2.644238e-004
1.394304e+003,1.025951e-004
1.396232e+003,1.275185e-004
1.398161e+003,1.223150e-004
1.400089e+003,1.318755e-005
1.402018e+003,1.551281e-004
1.403946e+003,1.488305e-004
1.405875e+003,2.143307e-004
1.407803e+003,3.152854e-004
1.409732e+003,2.903512e-004
1.411660e+003,3.033155e-004
1.413589e+003,3.184023e-004
1.415517e+003,1.783972e-004
1.417446e+003,-5.473398e-005
1.419374e+003,-1.498063e-004
1.421303e+003,1.825075e-004
1.423231e+003,2.771884e-004
1.425160e+003,2.621694e-004
1.427088e+003,2.438687e-004
1.429017e+003,2.166512e-004
1.430945e+003,2.765916e-004
1.432874e+003,4.150032e-004
1.434802e+003,2.415149e-004
1.436731e+003,-1.547747e-004
1.438659e+003,2.177784e-004
1.440588e+003,3.581609e-004
1.442516e+003,3.191649e-004
1.444445e+003,3.457256e-004
1.446373e+003,1.716682e-004
1.448302e+003,1.414847e-005
1.450230e+003,1.740548e-004
1.452159e+003,2.757628e-004
1.454087e+003,6.295924e-005
1.456016e+003,-5.636748e-004
1.457944e+003,-5.115533e-004
1.459873e+003,1.109138e-004
1.461801e+003,2.688665e-004
1.463730e+003,1.287117e-004
1.465658e+003,1.444553e-004
1.467587e+003,2.491069e-004
1.469515e+003,1.151229e-004
1.471444e+003,-3.106861e-004
1.473372e+003,-4.185462e-004
1.475301e+003,-1.251292e-004
1.477229e+003,5.897899e-006
1.479158e+003,1.121401e-004
1.481086e+003,2.447639e-004
1.483015e+003,3.161475e-004
1.484943e+003,2.393931e-004
1.486872e+003,1.047493e-004
1.488800e+003,-8.431794e-005
1.490729e+003,8.884144e-005
1.492657e+003,3.411163e-004
1.494586e+003,1.128361e-004
1.496514e+003,-2.534677e-004
1.498443e+003,-2.571103e-004
1.500371e+003,2.276368e-005
1.502300e+003,2.186403e-004
1.504228e+003,-2.144899e-004
1.506157e+003,-1.002505e-003
1.508085e+003,-7.848653e-004
1.510014e+003,-2.380360e-004
1.511942e+003,-3.048225e-005
1.513871e+003,-6.202250e-005
1.515799e+003,-1.647112e-004
1.517728e+003,-1.072085e-004
1.519656e+003,-3.654141e-004
1.521585e+003,-7.961435e-004
1.523513e+003,-5.059933e-004
1.525442e+003,-2.272069e-004
1.527370e+003,-6.278446e-005
1.529299e+003,7.170798e-005
1.531227e+003,-1.981370e-005
1.533156e+003,-2.747599e-004
1.535084e+003,-1.792513e-004
1.537013e+003,-2.247894e-004
1.538941e+003,-7.904548e-004
1.540870e+003,-9.627681e-004
1.542798e+003,-5.360760e-004
1.544727e+003,-1.752768e-004
1.546655e+003,1.478693e-004
1.548584e+003,2.324975e-004
1.550512e+003,2.438687e-004
1.552441e+003,2.211597e-004
1.554369e+003,-2.750117e-006
1.556298e+003,-3.453513e-004
1.558226e+003,-1.217789e-003
1.560155e+003,-9.976458e-004
1.562083e+003,-1.149599e-004
1.564012e+003,9.802155e-005
1.565940e+003,1.221824e-004
1.567869e+003,3.048439e-005
1.569797e+003,-7.852058e-005
1.571726e+003,2.284530e-004
1.573654e+003,2.103858e-004
1.575583e+003,-2.965478e-004
1.577511e+003,-1.632539e-004
1.579440e+003,2.294807e-004
1.581368e+003,2.899865e-004
1.583297e+003,2.280883e-004
1.585225e+003,2.356469e-004
1.587154e+003,3.888363e-004
1.589082e+003,4.414372e-004
1.591010e+003,3.002650e-004
1.592939e+003,1.864190e-004
1.594868e+003,2.115792e-004
1.596796e+003,3.447639e-004
1.598724e+003,3.805123e-004
1.600653e+003,3.359434e-004
1.602582e+003,3.295105e-004
1.604510e+003,3.605486e-004
1.606438e+003,3.336554e-004
1.608367e+003,2.979109e-004
1.610296e+003,2.719168e-004
1.612224e+003,1.977227e-004
1.614152e+003,-3.074730e-005
1.616081e+003,-4.536000e-004
1.618010e+003,-1.010471e-004
1.619938e+003,3.041776e-004
1.621866e+003,1.026614e-004
1.623795e+003,-8.345662e-005
1.625724e+003,5.119511e-005
1.627652e+003,1.262922e-004
1.629580e+003,3.021550e-004
1.631509e+003,2.530521e-004
1.633438e+003,-1.085004e-004
1.635366e+003,-5.812127e-004
1.637294e+003,-1.903134e-004
1.639223e+003,2.443660e-004
1.641151e+003,2.535825e-004
1.643080e+003,1.942752e-004
1.645008e+003,-1.994211e-004
1.646937e+003,-5.043715e-004
1.648865e+003,-1.820334e-004
1.650794e+003,-4.294367e-004
1.652722e+003,-1.272436e-003
1.654651e+003,-6.631682e-004
1.656579e+003,1.693480e-004
1.658508e+003,3.613113e-004
1.660436e+003,1.112121e-004
1.662365e+003,-9.200348e-005
1.664293e+003,1.906288e-004
1.666222e+003,2.817970e-004
1.668150e+003,-7.676479e-005
1.670079e+003,-2.320419e-004
1.672007e+003,-2.716906e-005
1.673936e+003,-9.819819e-005
1.675864e+003,-6.917836e-005
1.677793e+003,2.032918e-004
1.679721e+003,1.347439e-004
1.681650e+003,-8.607371e-005
1.683578e+003,-6.796435e-004
1.685507e+003,-5.111561e-004
1.687435e+003,-2.630763e-005
1.689364e+003,1.577798e-004
1.691292e+003,3.196623e-004
1.693221e+003,1.180395e-004
1.695149e+003,-4.249349e-004
1.697078e+003,-4.853412e-004
1.699006e+003,-7.036936e-004
1.700935e+003,-8.298770e-004
1.702863e+003,-2.390294e-004
1.704792e+003,-1.775953e-004
1.706720e+003,-7.646663e-005
1.708649e+003,1.058762e-004
1.710577e+003,1.609618e-004
1.712506e+003,5.851866e-005
1.714434e+003,-1.524892e-004
1.716363e+003,-5.326012e-004
1.718291e+003,-5.619872e-004
1.720220e+003,3.021929e-005
1.722148e+003,2.601470e-004
1.724077e+003,2.560028e-004
1.726005e+003,2.636613e-004
1.727934e+003,2.208614e-004
1.729862e+003,1.653372e-004
1.731791e+003,-6.725689e-005
1.733719e+003,-4.764049e-004
1.735648e+003,-1.718985e-004
1.737576e+003,6.673708e-005
1.739505e+003,-8.855826e-005
1.741433e+003,-1.288895e-005
1.743362e+003,1.134326e-004
1.745290e+003,2.571963e-004
1.747219e+003,1.215858e-004
1.749147e+003,-1.111836e-004
1.751076e+003,-2.189939e-004
1.753004e+003,5.818727e-005
1.754933e+003,1.260602e-004
1.756861e+003,4.373914e-005
1.758790e+003,1.277837e-004
1.760718e+003,-6.682621e-005
1.762647e+003,9.840921e-006
1.764575e+003,2.690986e-004
1.766504e+003,1.227127e-004
1.768432e+003,-1.987997e-005
1.770361e+003,-2.445223e-005
1.772289e+003,-1.799799e-004
1.774218e+003,-1.023830e-005
1.776146e+003,1.723975e-004
1.778075e+003,2.420785e-004
1.780003e+003,2.549087e-004
1.781932e+003,2.528532e-004
1.783860e+003,2.104853e-004
1.785789e+003,1.902310e-004
1.787717e+003,1.042522e-004
1.789646e+003,-6.063106e-005
1.791574e+003,-2.589978e-004
1.793503e+003,-5.191794e-005
1.795431e+003,1.748835e-004
1.797360e+003,1.196966e-004
1.799288e+003,-5.791444e-005
1.801217e+003,-1.147611e-004
1.803145e+003,4.728485e-005
1.805074e+003,1.614590e-004
1.807002e+003,2.285193e-004
1.808931e+003,1.168795e-004
1.810859e+003,1.090910e-004
1.812788e+003,1.908277e-004
1.814716e+003,2.033581e-004
1.816645e+003,1.653040e-004
1.818573e+003,1.528742e-004
1.820502e+003,1.871814e-004
1.822430e+003,2.566990e-004
1.824359e+003,1.089584e-004
1.826287e+003,8.509655e-005
1.828216e+003,1.078978e-004
1.830144e+003,1.307666e-004
1.832073e+003,2.674740e-004
1.834001e+003,2.598486e-004
1.835930e+003,2.186071e-004
1.837858e+003,2.443992e-004
1.839787e+003,3.844587e-004
1.841715e+003,2.366083e-004
1.843644e+003,-1.381138e-004
1.845572e+003,-5.937214e-005
1.847501e+003,1.315621e-004
1.849429e+003,2.495047e-004
1.851358e+003,3.377009e-004
1.853286e+003,2.988393e-004
1.855215e+003,2.204636e-004
1.857143e+003,1.610281e-004
1.859072e+003,1.244693e-004
1.861000e+003,1.171115e-004
1.862929e+003,1.986177e-004
1.864857e+003,2.182756e-004
1.866786e+003,2.170334e-005
1.868714e+003,-1.007821e-004
1.870643e+003,1.021974e-004
1.872571e+003,2.473829e-004
1.874500e+003,2.888924e-004
1.876428e+003,3.561713e-004
1.878357e+003,3.448303e-004
1.880285e+003,3.657218e-004
1.882214e+003,3.529546e-004
1.884142e+003,2.937995e-004
1.886071e+003,3.302068e-004
1.887999e+003,2.538809e-004
1.889928e+003,1.508523e-004
1.891856e+003,2.950263e-004
1.893785e+003,4.020025e-004
1.895713e+003,3.187670e-004
1.897642e+003,2.345861e-004
1.899570e+003,2.378681e-004
1.901499e+003,2.974467e-004
1.903427e+003,3.808108e-004
1.905356e+003,3.954028e-004
1.907284e+003,3.401878e-004
1.909213e+003,2.615394e-004
1.911141e+003,2.783488e-004
1.913070e+003,3.436697e-004
1.914998e+003,2.896881e-004
1.916927e+003,7.276845e-005
1.918855e+003,2.687254e-005
1.920784e+003,1.785298e-004
1.922712e+003,2.281878e-004
1.924641e+003,2.737403e-004
1.926569e+003,3.102454e-004
1.928498e+003,3.569671e-004
1.930426e+003,2.954573e-004
1.932355e+003,1.875460e-004
1.934283e+003,7.876675e-005
1.936212e+003,7.283472e-005
1.938140e+003,1.740880e-004
1.940069e+003,2.053139e-004
1.941997e+003,1.191664e-004
1.943926e+003,1.676243e-004
1.945854e+003,2.348513e-004
1.947783e+003,2.122754e-004
1.949711e+003,2.789788e-004
1.951640e+003,3.420780e-004
1.953568e+003,3.253988e-004
1.955497e+003,3.397568e-004
1.957425e+003,3.221823e-004
1.959354e+003,2.579588e-004
1.961282e+003,3.153186e-004
1.963211e+003,3.042439e-004
1.965139e+003,2.735082e-004
1.967068e+003,2.725467e-004
1.968996e+003,2.662805e-004
1.970925e+003,2.849468e-004
1.972853e+003,3.289136e-004
1.974782e+003,3.457588e-004
1.976710e+003,3.355455e-004
1.978639e+003,4.031633e-004
1.980567e+003,3.929486e-004
1.982496e+003,3.034481e-004
1.984424e+003,2.583898e-004
1.986353e+003,2.959547e-004
1.988281e+003,2.811007e-004
1.990210e+003,3.118370e-004
1.992138e+003,3.384967e-004
1.994067e+003,2.851789e-004
1.995995e+003,2.511292e-004
1.997924e+003,2.538478e-004
1.999852e+003,1.660001e-004
2.001781e+003,1.522113e-004
2.003709e+003,2.134688e-004
2.005638e+003,2.577268e-004
2.007566e+003,2.716184e-004
2.009495e+003,2.582572e-004
2.011423e+003,3.097812e-004
2.013352e+003,4.100616e-004
2.015280e+003,4.434604e-004
2.017208e+003,3.892011e-004
2.019137e+003,4.290658e-004
2.021066e+003,3.271893e-004
2.022994e+003,2.398904e-004
2.024922e+003,2.911470e-004
2.026851e+003,3.221823e-004
2.028780e+003,2.671093e-004
2.030708e+003,2.826259e-004
2.032636e+003,2.281215e-004
2.034565e+003,1.084613e-004
2.036494e+003,2.151263e-004
2.038422e+003,2.694965e-004
2.040350e+003,1.954685e-004
2.042279e+003,1.541338e-004
2.044208e+003,2.219885e-004
2.046136e+003,3.019229e-004
2.048064e+003,3.194965e-004
2.049993e+003,2.924732e-004
2.051921e+003,3.318648e-004
2.053850e+003,3.023539e-004
2.055778e+003,1.969934e-004
2.057707e+003,1.788944e-004
2.059635e+003,2.183419e-004
2.061564e+003,2.361111e-004
2.063492e+003,2.648880e-004
2.065421e+003,2.102864e-004
2.067349e+003,2.910475e-004
2.069278e+003,3.668825e-004
2.071206e+003,3.303726e-004
2.073135e+003,2.746686e-004
2.075063e+003,2.504993e-004
2.076992e+003,3.699997e-004
2.078920e+003,3.604159e-004
2.080849e+003,2.756964e-004
2.082777e+003,2.485764e-004
2.084706e+003,2.125074e-004
2.086634e+003,2.171154e-004
2.088563e+003,2.496042e-004
2.090491e+003,3.418127e-004
2.092420e+003,4.062144e-004
2.094348e+003,3.353134e-004
2.096277e+003,3.068302e-004
2.098205e+003,2.671757e-004
2.100134e+003,2.725799e-004
2.102062e+003,2.646228e-004
2.103991e+003,2.849800e-004
2.105919e+003,2.676067e-004
2.107848e+003,2.535825e-004
2.109776e+003,3.117707e-004
2.111705e+003,3.544801e-004
2.113633e+003,3.344844e-004
2.115562e+003,2.799071e-004
2.117490e+003,1.962310e-004
2.119419e+003,2.049824e-004
2.121347e+003,2.998672e-004
2.123276e+003,3.093833e-004
2.125204e+003,2.436035e-004
2.127133e+003,2.072034e-004
2.129061e+003,2.195022e-004
2.130990e+003,2.562017e-004
2.132918e+003,3.004640e-004
2.134847e+003,3.099801e-004
2.136775e+003,3.147217e-004
2.138704e+003,3.474499e-004
2.140632e+003,3.698007e-004
2.142561e+003,3.757700e-004
2.144489e+003,2.831232e-004
2.146418e+003,1.859880e-004
2.148346e+003,2.323649e-004
2.150275e+003,2.879640e-004
2.152203e+003,2.949600e-004
2.154132e+003,3.211213e-004
2.156060e+003,3.393920e-004
2.157989e+003,2.935674e-004
2.159917e+003,2.389953e-004
2.161846e+003,2.392937e-004
2.163774e+003,2.255025e-004
2.165703e+003,2.607106e-004
2.167631e+003,2.972478e-004
2.169560e+003,2.961204e-004
2.171488e+003,2.351165e-004
2.173417e+003,1.830379e-004
2.175345e+003,1.825738e-004
2.177274e+003,1.495597e-004
2.179202e+003,8.569308e-005
2.181131e+003,7.860106e-005
2.183059e+003,1.522776e-004
2.184988e+003,2.338236e-004
2.186916e+003,2.097228e-004
2.188845e+003,1.061082e-004
2.190773e+003,1.238727e-004
2.192702e+003,1.993138e-004
2.194630e+003,3.402873e-004
2.196559e+003,3.896985e-004
2.198487e+003,2.653190e-004
2.200416e+003,1.601001e-004
2.202344e+003,1.959326e-004
2.204273e+003,1.925183e-004
2.206201e+003,1.456817e-004
2.208130e+003,1.629506e-004
2.210058e+003,1.489631e-004
2.211987e+003,1.341804e-004
2.213915e+003,1.425992e-004
2.215844e+003,8.015864e-005
2.217772e+003,8.602448e-005
2.219701e+003,2.525880e-004
2.221629e+003,2.339230e-004
2.223558e+003,1.146921e-004
2.225486e+003,1.185698e-004
2.227415e+003,1.886399e-004
2.229343e+003,1.875460e-004
2.231272e+003,2.524887e-005
2.233200e+003,2.982065e-007
2.235129e+003,1.782648e-005
2.237057e+003,-2.246430e-005
2.238986e+003,3.552114e-005
2.240914e+003,1.344787e-004
2.242843e+003,2.136346e-004
2.244771e+003,2.327296e-004
2.246700e+003,1.858223e-004
2.248628e+003,1.078647e-004
2.250557e+003,1.078647e-004
2.252485e+003,1.662321e-004
2.254414e+003,2.322986e-004
2.256342e+003,2.170159e-004
2.258271e+003,1.821760e-004
2.260199e+003,2.452943e-004
2.262128e+003,2.692975e-004
2.264056e+003,2.231488e-004
2.265985e+003,1.559236e-004
2.267913e+003,1.982862e-004
2.269842e+003,2.648548e-004
2.271770e+003,2.212260e-004
2.273699e+003,2.047172e-004
2.275627e+003,2.081316e-004
2.277556e+003,1.474715e-004
2.279484e+003,1.017334e-004
2.281413e+003,1.840655e-004
2.283341e+003,1.686519e-004
2.285270e+003,1.080635e-004
2.287198e+003,1.914575e-004
2.289127e+003,2.340556e-004
2.291055e+003,2.989056e-004
2.292984e+003,2.667778e-004
2.294912e+003,1.277174e-004
2.296841e+003,1.304352e-004
2.298769e+003,1.281151e-004
2.300698e+003,8.515532e-006
2.302626e+003,-4.797544e-005
2.304555e+003,5.049921e-005
2.306483e+003,4.340776e-005
2.308412e+003,1.964893e-005
2.310340e+003,7.929699e-005
2.312269e+003,-5.964086e-006
2.314197e+003,-1.452022e-004
2.316125e+003,-1.647443e-004
2.318054e+003,-1.709049e-004
2.319983e+003,-2.356516e-004
2.321911e+003,-3.089644e-004
2.323840e+003,-3.747168e-004
2.325768e+003,-4.005714e-004
2.327697e+003,-4.582670e-004
2.329625e+003,-5.858121e-004
2.331553e+003,-6.498354e-004
2.333482e+003,-5.913380e-004
2.335411e+003,-4.853412e-004
2.337339e+003,-4.574064e-004
2.339268e+003,-5.044708e-004
2.341196e+003,-5.367047e-004
2.343125e+003,-4.899416e-004
2.345053e+003,-3.449209e-004
2.346981e+003,-1.243343e-004
2.348910e+003,-8.428482e-005
2.350839e+003,-2.683028e-004
2.352767e+003,-4.498597e-004
2.354696e+003,-4.673360e-004
2.356624e+003,-5.060925e-004
2.358552e+003,-7.386251e-004
2.360481e+003,-8.755123e-004
2.362409e+003,-9.022298e-004
2.364338e+003,-8.013690e-004
2.366267e+003,-6.910236e-004
2.368195e+003,-6.553935e-004
2.370124e+003,-5.353148e-004
2.372052e+003,-3.419081e-004
2.373980e+003,-2.170400e-004
2.375909e+003,-9.783380e-005
2.377838e+003,1.342799e-004
2.379766e+003,2.922411e-004
2.381695e+003,3.983876e-004
2.383623e+003,4.202435e-004
2.385552e+003,2.814323e-004
2.387480e+003,2.257346e-004
2.389408e+003,1.673260e-004
2.391337e+003,1.170452e-004
2.393266e+003,1.529074e-004
2.395194e+003,2.092919e-004
2.397123e+003,3.186675e-004
2.399051e+003,3.215855e-004
2.400979e+003,2.648880e-004
2.402908e+003,2.848473e-004
2.404836e+003,3.308700e-004
2.406765e+003,2.770890e-004
2.408694e+003,2.015017e-004
2.410622e+003,2.303758e-004
2.412551e+003,2.148943e-004
2.414479e+003,1.493277e-004
2.416407e+003,2.362105e-004
2.418336e+003,2.480791e-004
2.420264e+003,2.293481e-004
2.422193e+003,2.749007e-004
2.424122e+003,2.816975e-004
2.426050e+003,2.013028e-004
2.427979e+003,1.275848e-004
2.429907e+003,1.618237e-004
2.431835e+003,2.486759e-004
2.433764e+003,2.205630e-004
2.435692e+003,2.119107e-004
2.437621e+003,1.555922e-004
2.439550e+003,1.716682e-004
2.441478e+003,2.457916e-004
2.443406e+003,2.132368e-004
2.445335e+003,1.462451e-004
2.447263e+003,2.009382e-004
2.449192e+003,2.016011e-004
2.451121e+003,1.838666e-004
2.453049e+003,1.500237e-004
2.454978e+003,1.338822e-004
2.456906e+003,1.469080e-004
2.458834e+003,2.281546e-004
2.460763e+003,3.063328e-004
2.462691e+003,2.688002e-004
2.464620e+003,2.438024e-004
2.466549e+003,2.390948e-004
2.468477e+003,1.866842e-004
2.470406e+003,1.272534e-004
2.472334e+003,9.474055e-005
2.474262e+003,1.321587e-004
2.476191e+003,1.884079e-004
2.478119e+003,2.164192e-004
2.480048e+003,2.697286e-004
2.481977e+003,2.646559e-004
2.483905e+003,1.676243e-004
2.485833e+003,2.070045e-004
2.487762e+003,2.484438e-004
2.489690e+003,2.358459e-004
2.491619e+003,2.269612e-004
2.493547e+003,1.785629e-004
2.495476e+003,1.074007e-004
2.497405e+003,1.480018e-004
2.499333e+003,2.245743e-004
2.501261e+003,2.525217e-004
2.503190e+003,1.855903e-004
2.505118e+003,6.319121e-005
2.507047e+003,1.795902e-005
2.508975e+003,1.678563e-004
2.510904e+003,2.417138e-004
2.512833e+003,1.766072e-004
2.514761e+003,1.966951e-004
2.516689e+003,2.209608e-004
2.518618e+003,2.234140e-004
2.520546e+003,2.399899e-004
2.522475e+003,2.311383e-004
2.524403e+003,2.604785e-004
2.526332e+003,2.834216e-004
2.528260e+003,2.096234e-004
2.530189e+003,2.387301e-004
2.532117e+003,1.708727e-004
2.534046e+003,6.289296e-005
2.535974e+003,1.244030e-004
2.537903e+003,8.251159e-005
2.539831e+003,4.794760e-005
2.541760e+003,1.279825e-004
2.543688e+003,2.412165e-004
2.545617e+003,2.366746e-004
2.547545e+003,1.952365e-004
2.549474e+003,2.229831e-004
2.551402e+003,2.038553e-004
2.553331e+003,1.491619e-004
2.555259e+003,9.911522e-005
2.557188e+003,1.039539e-004
2.559116e+003,1.394836e-004
2.561045e+003,2.528863e-004
2.562973e+003,3.277862e-004
2.564902e+003,2.133031e-004
2.566830e+003,1.736239e-004
2.568759e+003,1.403453e-004
2.570687e+003,1.564871e-004
2.572616e+003,1.014351e-004
2.574544e+003,-1.610284e-005
2.576473e+003,3.048439e-005
2.578401e+003,3.194239e-005
2.580330e+003,6.527896e-005
2.582258e+003,1.818445e-004
2.584187e+003,2.093913e-004
2.586115e+003,2.118113e-004
2.588044e+003,2.264308e-004
2.589972e+003,1.574484e-004
2.591901e+003,1.749830e-004
2.593829e+003,2.564338e-004
2.595758e+003,2.221874e-004
2.597686e+003,2.583567e-004
2.599615e+003,3.237076e-004
2.601543e+003,2.699606e-004
2.603472e+003,2.449628e-004
2.605400e+003,2.370725e-004
2.607329e+003,2.171485e-004
2.609257e+003,1.278831e-004
2.611186e+003,6.150113e-005
2.613114e+003,2.380339e-004
2.615043e+003,2.427084e-004
2.616971e+003,1.643096e-004
2.618900e+003,1.814468e-004
2.620828e+003,1.383567e-004
2.622757e+003,1.449193e-004
2.624685e+003,1.504877e-004
2.626614e+003,2.209277e-004
2.628542e+003,1.982862e-004
2.630471e+003,2.078996e-004
2.632399e+003,2.161208e-004
2.634328e+003,2.791114e-004
2.636256e+003,2.256683e-004
2.638185e+003,9.295093e-005
2.640113e+003,9.308349e-005
2.642042e+003,1.550618e-004
2.643970e+003,2.655511e-004
2.645899e+003,2.970488e-004
2.647827e+003,3.028844e-004
2.649756e+003,2.129052e-004
2.651684e+003,1.653703e-004
2.653613e+003,2.298122e-004
2.655541e+003,2.199663e-004
2.657470e+003,1.686187e-004
2.659398e+003,1.299049e-004
2.661327e+003,1.353736e-004
2.663255e+003,1.772039e-004
2.665184e+003,1.697789e-004
2.667112e+003,1.607630e-004
2.669041e+003,1.606635e-004
2.670969e+003,1.553270e-004
2.672898e+003,1.976232e-004
2.674826e+003,1.896344e-004
2.676755e+003,2.394926e-004
2.678683e+003,2.548424e-004
2.680612e+003,1.900322e-004
2.682540e+003,1.691159e-004
2.684469e+003,1.369977e-004
2.686397e+003,1.622214e-004
2.688326e+003,1.820103e-004
2.690254e+003,1.309323e-004
2.692183e+003,1.809164e-004
2.694111e+003,2.355143e-004
2.696040e+003,2.999335e-004
2.697968e+003,2.616389e-004
2.699897e+003,2.268949e-004
2.701825e+003,1.968608e-004
2.703754e+003,2.054465e-004
2.705682e+003,3.029176e-004
2.707611e+003,2.828248e-004
2.709539e+003,1.746184e-004
2.711468e+003,2.384649e-004
2.713396e+003,2.754312e-004
2.715325e+003,2.700601e-004
2.717253e+003,2.721157e-004
2.719182e+003,1.369314e-004
2.721110e+003,1.088258e-004
2.723039e+003,2.182425e-004
2.724967e+003,3.268577e-004
2.726896e+003,4.448866e-004
2.728824e+003,3.419453e-004
2.730753e+003,1.770381e-004
2.732681e+003,2.180767e-004
2.734610e+003,1.827064e-004
2.736538e+003,1.033574e-004
2.738467e+003,9.082990e-005
2.740395e+003,6.766498e-005
2.742324e+003,8.098714e-005
2.744252e+003,1.449856e-004
2.746181e+003,2.139661e-004
2.748109e+003,2.826259e-004
2.750038e+003,2.915780e-004
2.751966e+003,2.731766e-004
2.753895e+003,1.782977e-004
2.755823e+003,2.057780e-004
2.757752e+003,2.882955e-004
2.759680e+003,2.897213e-004
2.761609e+003,2.606775e-004
2.763537e+003,2.522896e-004
2.765466e+003,2.385975e-004
2.767394e+003,2.020984e-004
2.769323e+003,1.896675e-004
2.771251e+003,1.920874e-004
2.773180e+003,1.438587e-004
2.775108e+003,1.076990e-004
2.777037e+003,1.137972e-004
2.778965e+003,1.389201e-004
2.780894e+003,1.666962e-004
2.782822e+003,3.092838e-004
2.784750e+003,4.383194e-004
2.786679e+003,3.416137e-004
2.788608e+003,2.971483e-004
2.790536e+003,3.157828e-004
2.792465e+003,2.186734e-004
2.794393e+003,1.542664e-004
2.796322e+003,1.702761e-004
2.798250e+003,2.571631e-004
2.800178e+003,2.536489e-004
2.802107e+003,2.139661e-004
2.804036e+003,2.262319e-004
2.805964e+003,1.556916e-004
2.807893e+003,8.966996e-005
2.809821e+003,1.968277e-004
2.811750e+003,2.097560e-004
2.813678e+003,1.547635e-004
2.815606e+003,1.239058e-004
2.817535e+003,1.418700e-004
2.819464e+003,2.390948e-004
2.821392e+003,2.638934e-004
2.823321e+003,2.561022e-004
2.825249e+003,1.799551e-004
2.827177e+003,2.517591e-004
2.829106e+003,3.001324e-004
2.831034e+003,3.392262e-004
2.832963e+003,3.956018e-004
2.834892e+003,3.446313e-004
2.836820e+003,2.307405e-004
2.838749e+003,2.203310e-004
2.840677e+003,2.069714e-004
2.842605e+003,1.892034e-004
2.844534e+003,8.241217e-005
2.846462e+003,8.665416e-005
2.848391e+003,1.319266e-004
2.850320e+003,1.862532e-004
2.852248e+003,1.653703e-004
2.854177e+003,1.782977e-004
2.856105e+003,2.625341e-004
2.858033e+003,2.713200e-004
2.859962e+003,2.260330e-004
2.861890e+003,1.736239e-004
2.863819e+003,1.195972e-004
2.865748e+003,1.866179e-004
2.867676e+003,2.530853e-004
2.869604e+003,2.627330e-004
2.871533e+003,2.322986e-004
2.873461e+003,1.832699e-004
2.875390e+003,1.982862e-004
2.877319e+003,2.256683e-004
2.879247e+003,3.015250e-004
2.881176e+003,3.361092e-004
2.883104e+003,3.739460e-004
2.885032e+003,2.846484e-004
2.886961e+003,1.713036e-004
2.888889e+003,2.736408e-004
2.890818e+003,3.798490e-004
2.892747e+003,4.197460e-004
2.894675e+003,3.675789e-004
2.896604e+003,2.549087e-004
2.898532e+003,2.200658e-004
2.900460e+003,2.310388e-004
2.902389e+003,2.040211e-004
2.904317e+003,7.790511e-005
2.906246e+003,7.724232e-005
2.908175e+003,1.463446e-004
2.910103e+003,7.899873e-005
2.912031e+003,4.035914e-005
2.913960e+003,2.041205e-004
2.915888e+003,2.973804e-004
2.917817e+003,1.777342e-004
2.919745e+003,1.608956e-004
2.921674e+003,1.645748e-004
2.923603e+003,1.451514e-004
2.925531e+003,1.421020e-004
2.927459e+003,1.579124e-004
2.929388e+003,2.158888e-004
2.931316e+003,1.764746e-004
2.933245e+003,5.961223e-005
2.935173e+003,-1.474440e-005
2.937102e+003,1.613265e-004
2.939031e+003,3.289799e-004
2.940959e+003,2.775531e-004
2.942887e+003,2.557044e-004
2.944816e+003,3.008950e-004
2.946744e+003,2.633961e-004
2.948673e+003,2.025625e-004
2.950601e+003,2.043526e-004
2.952530e+003,2.613405e-004
2.954458e+003,3.803796e-004
2.956387e+003,3.720226e-004
2.958315e+003,1.706075e-004
2.960244e+003,8.801292e-005
2.962172e+003,1.949382e-004
2.964101e+003,3.244040e-004
2.966029e+003,2.665789e-004
2.967958e+003,1.498248e-004
2.969886e+003,1.751487e-004
2.971815e+003,1.931813e-004
2.973743e+003,2.933684e-004
2.975672e+003,2.729114e-004
2.977600e+003,1.841649e-004
2.979529e+003,2.492726e-004
2.981457e+003,3.698339e-004
2.983386e+003,2.949268e-004
2.985314e+003,1.229447e-004
2.987243e+003,1.138635e-004
2.989171e+003,1.897670e-004
2.991100e+003,1.610281e-004
2.993028e+003,1.324569e-004
2.994957e+003,1.614259e-004
2.996885e+003,2.057117e-004
2.998814e+003,1.979879e-004
3.000742e+003,2.145296e-004
3.002671e+003,2.469851e-004
3.004599e+003,1.806512e-004
3.006528e+003,1.448530e-004
3.008456e+003,2.024630e-004
3.010385e+003,9.477369e-005
3.012313e+003,4.529659e-005
3.014242e+003,1.169789e-004
3.016170e+003,1.132006e-004
3.018099e+003,1.525428e-004
3.020027e+003,1.527416e-004
3.021956e+003,1.671603e-004
3.023884e+003,2.067725e-004
3.025813e+003,1.439581e-004
3.027741e+003,1.530068e-004
3.029670e+003,2.594508e-004
3.031598e+003,2.441671e-004
3.033527e+003,2.965846e-004
3.035455e+003,2.144302e-004
3.037384e+003,1.971591e-004
3.039312e+003,2.273259e-004
3.041241e+003,2.141318e-004
3.043169e+003,1.766735e-004
3.045098e+003,2.750212e-005
3.047026e+003,1.259095e-006
3.048955e+003,2.740387e-004
3.050883e+003,3.979564e-004
3.052812e+003,2.775531e-004
3.054740e+003,1.510844e-004
3.056669e+003,2.486759e-004
3.058597e+003,3.890021e-004
3.060526e+003,3.726527e-004
3.062454e+003,3.458914e-004
3.064383e+003,2.991045e-004
3.066311e+003,2.202647e-004
3.068240e+003,2.431394e-004
3.070168e+003,2.967172e-004
3.072097e+003,2.979772e-004
3.074025e+003,2.694633e-004
3.075954e+003,1.511507e-004
3.077882e+003,1.312969e-004
3.079811e+003,1.876786e-004
3.081739e+003,1.684861e-004
3.083668e+003,1.821097e-004
3.085596e+003,1.222155e-004
3.087525e+003,1.857892e-004
3.089453e+003,2.642581e-004
3.091382e+003,1.872145e-004
3.093310e+003,1.612602e-004
3.095239e+003,9.493940e-005
3.097167e+003,2.382660e-004
3.099096e+003,3.658876e-004
3.101024e+003,2.087615e-004
3.102953e+003,1.764083e-004
3.104881e+003,2.701927e-004
3.106810e+003,3.060344e-004
3.108738e+003,3.335891e-004
3.110667e+003,2.466204e-004
3.112595e+003,1.224475e-004
3.114524e+003,1.823749e-004
3.116452e+003,2.150269e-004
3.118381e+003,2.500352e-004
3.120309e+003,3.198281e-004
3.122238e+003,3.723211e-004
3.124166e+003,3.923848e-004
3.126095e+003,3.875761e-004
3.128023e+003,3.231771e-004
3.129952e+003,2.772547e-004
3.131880e+003,2.523890e-004
3.133809e+003,2.251047e-004
3.135737e+003,2.471177e-004
3.137666e+003,2.192702e-004
3.139594e+003,2.721488e-004
3.141523e+003,3.731170e-004
3.143451e+003,4.579550e-004
3.145380e+003,4.326809e-004
3.147308e+003,3.920864e-004
3.149237e+003,3.500365e-004
3.151165e+003,3.132959e-004
3.153094e+003,3.244040e-004
3.155022e+003,3.559391e-004
3.156951e+003,1.525096e-004
3.158879e+003,8.933856e-005
3.160808e+003,2.208282e-004
3.162736e+003,1.700440e-004
3.164665e+003,8.625647e-005
3.166593e+003,1.387875e-004
3.168522e+003,2.590529e-004
3.170450e+003,2.824933e-004
3.172379e+003,2.846484e-004
3.174307e+003,2.977783e-004
3.176236e+003,4.263129e-004
3.178164e+003,4.179550e-004
3.180093e+003,3.527557e-004
3.182021e+003,2.433714e-004
3.183950e+003,2.312377e-004
3.185878e+003,2.924401e-004
3.187807e+003,2.434709e-004
3.189735e+003,2.163529e-004
3.191664e+003,2.442666e-004
3.193592e+003,1.849273e-004
3.195521e+003,1.599675e-004
3.197449e+003,2.182093e-004
3.199378e+003,2.307405e-004
3.201306e+003,2.609758e-004
3.203235e+003,3.119696e-004
3.205163e+003,2.755306e-004
3.207092e+003,2.629319e-004
3.209020e+003,2.718836e-004
3.210948e+003,3.180375e-004
3.212877e+003,2.973141e-004
3.214806e+003,2.327959e-004
3.216734e+003,2.789788e-004
3.218663e+003,2.505656e-004
3.220591e+003,2.306410e-004
3.222520e+003,2.588540e-004
3.224448e+003,3.121354e-004
3.226376e+003,3.085875e-004
3.228305e+003,3.780582e-004
3.230234e+003,4.754022e-004
3.232162e+003,4.977264e-004
3.234091e+003,4.446213e-004
3.236019e+003,3.435702e-004
3.237948e+003,2.756301e-004
3.239876e+003,2.510629e-004
3.241804e+003,2.562017e-004
3.243733e+003,1.564871e-004
3.245662e+003,1.068041e-004
3.247590e+003,1.019986e-004
3.249519e+003,1.798225e-004
3.251447e+003,2.669436e-004
3.253375e+003,2.076675e-004
3.255304e+003,1.393841e-004
3.257232e+003,2.529858e-004
3.259161e+003,2.777521e-004
3.261090e+003,2.801392e-004
3.263018e+003,2.777521e-004
3.264947e+003,2.699606e-004
3.266875e+003,2.821286e-004
3.268803e+003,2.396584e-004
3.270732e+003,2.576273e-004
3.272660e+003,1.900653e-004
3.274589e+003,2.481454e-004
3.276518e+003,4.295964e-004
3.278446e+003,3.507329e-004
3.280375e+003,2.805039e-004
3.282303e+003,2.031592e-004
3.284231e+003,2.778847e-004
3.286160e+003,3.945073e-004
3.288088e+003,3.007292e-004
3.290017e+003,2.254362e-004
3.291946e+003,1.047493e-004
3.293874e+003,1.511838e-004
3.295802e+003,3.958007e-004
3.297731e+003,4.422995e-004
3.299659e+003,3.533526e-004
3.301588e+003,3.984539e-004
3.303516e+003,3.855863e-004
3.305445e+003,2.928711e-004
3.307374e+003,3.035807e-004
3.309302e+003,2.602133e-004
3.311230e+003,6.793009e-005
3.313159e+003,8.847690e-005
3.315087e+003,3.349818e-004
3.317016e+003,2.878314e-004
3.318944e+003,1.722649e-004
3.320873e+003,2.160877e-004
3.322802e+003,3.810761e-004
3.324730e+003,5.143128e-004
3.326658e+003,4.629304e-004
3.328587e+003,2.833222e-004
3.330515e+003,2.556381e-004
3.332444e+003,2.940979e-004
3.334372e+003,2.267954e-004
3.336301e+003,1.815794e-004
3.338229e+003,2.275579e-004
3.340158e+003,1.318935e-004
3.342086e+003,6.153427e-005
3.344015e+003,1.457480e-004
3.345943e+003,3.042439e-004
3.347872e+003,3.939104e-004
3.349800e+003,4.010407e-004
3.351729e+003,4.079058e-004
3.353657e+003,3.830658e-004
3.355586e+003,2.867704e-004
3.357514e+003,2.027282e-004
3.359443e+003,3.992830e-004
3.361371e+003,4.723506e-004
3.363300e+003,3.766654e-004
3.365229e+003,3.814077e-004
3.367157e+003,3.973595e-004
3.369085e+003,3.364740e-004
3.371014e+003,3.050397e-004
3.372942e+003,3.469194e-004
3.374871e+003,2.809018e-004
3.376799e+003,2.389622e-004
3.378728e+003,2.136346e-004
3.380656e+003,2.543451e-004
3.382585e+003,2.121759e-004
3.384513e+003,1.384229e-004
3.386442e+003,1.925515e-004
3.388370e+003,3.143570e-004
3.390299e+003,2.250716e-004
3.392227e+003,8.675358e-005
3.394156e+003,1.549956e-004
3.396084e+003,7.783883e-005
3.398013e+003,8.254474e-005
3.399941e+003,1.993138e-004
3.401870e+003,2.537815e-004
3.403798e+003,2.890250e-004
3.405727e+003,1.190006e-004
3.407655e+003,4.436875e-005
3.409584e+003,2.075349e-004
3.411512e+003,3.180375e-004
3.413441e+003,3.294110e-004
3.415369e+003,2.538478e-004
3.417298e+003,3.139922e-004
3.419226e+003,2.504661e-004
3.421155e+003,1.283140e-004
3.423083e+003,2.658163e-004
3.425012e+003,3.573319e-004
3.426940e+003,3.156501e-004
3.428869e+003,2.831896e-004
3.430797e+003,3.263935e-004
3.432726e+003,3.554417e-004
3.434654e+003,3.599517e-004
3.436583e+003,3.357113e-004
3.438511e+003,2.152258e-004
3.440440e+003,8.088772e-005
3.442368e+003,1.388207e-004
3.444297e+003,9.354747e-005
3.446225e+003,6.799637e-005
3.448154e+003,1.784966e-004
3.450082e+003,2.262319e-004
3.452011e+003,2.271601e-004
3.453939e+003,3.442334e-004
3.455868e+003,3.839281e-004
3.457796e+003,3.168438e-004
3.459725e+003,3.233429e-004
3.461653e+003,3.720890e-004
3.463582e+003,2.416807e-004
3.465510e+003,2.160214e-004
3.467439e+003,2.510961e-004
3.469367e+003,2.065404e-004
3.471296e+003,7.817023e-005
3.473224e+003,1.054453e-004
3.475153e+003,2.125074e-004
3.477081e+003,1.534377e-004
3.479010e+003,3.084889e-005
3.480938e+003,1.124383e-004
3.482867e+003,2.535162e-004
3.484795e+003,3.257303e-004
3.486724e+003,4.203761e-004
3.488652e+003,4.185852e-004
3.490581e+003,3.036139e-004
3.492509e+003,1.484327e-004
3.494438e+003,1.644422e-004
3.496366e+003,2.001757e-004
3.498295e+003,2.724472e-004
3.500223e+003,1.767729e-004
3.502152e+003,1.642102e-004
3.504080e+003,2.949268e-004
3.506009e+003,3.130638e-004
3.507937e+003,1.410414e-004
3.509866e+003,1.412402e-004
3.511794e+003,2.538478e-004
3.513723e+003,2.904838e-004
3.515651e+003,3.196623e-004
3.517580e+003,3.188333e-004
3.519508e+003,2.776526e-004
3.521437e+003,2.029271e-004
3.523365e+003,2.658163e-004
3.525294e+003,3.176396e-004
3.527222e+003,2.086289e-004
3.529151e+003,1.264579e-004
3.531079e+003,2.339326e-005
3.533008e+003,9.742500e-005
3.534936e+003,2.631971e-004
3.536865e+003,3.870455e-004
3.538793e+003,3.348160e-004
3.540722e+003,9.861810e-005
3.542650e+003,1.970265e-004
3.544579e+003,2.389290e-004
3.546507e+003,1.216190e-004
3.548436e+003,2.344203e-004
3.550364e+003,3.249677e-004
3.552293e+003,2.015017e-004
3.554221e+003,1.956343e-004
3.556150e+003,2.205630e-004
3.558078e+003,1.490293e-004
3.560007e+003,1.117755e-004
3.561935e+003,1.256293e-004
3.563864e+003,2.008719e-004
3.565792e+003,6.345632e-005
3.567721e+003,-6.725689e-005
3.569649e+003,5.059862e-005
3.571578e+003,2.091261e-004
3.573506e+003,3.755710e-004
3.575435e+003,3.430728e-004
3.577363e+003,1.639119e-004
3.579292e+003,8.300870e-005
3.581220e+003,2.509966e-004
3.583149e+003,2.280220e-004
3.585077e+003,1.315441e-005
3.587006e+003,-2.956207e-004
3.588934e+003,-3.126396e-004
3.590863e+003,-8.040887e-005
3.592791e+003,4.208043e-006
3.594720e+003,8.804606e-005
3.596648e+003,4.748367e-005
3.598577e+003,2.021181e-006
3.600505e+003,1.805518e-004
3.602434e+003,3.182033e-004
3.604362e+003,1.998442e-004
3.606291e+003,3.283707e-005
3.608219e+003,6.156741e-005
3.610148e+003,1.992475e-004
3.612076e+003,-6.000160e-005
3.614005e+003,-2.154835e-004
3.615933e+003,-1.334434e-004
3.617862e+003,-1.761380e-004
3.619790e+003,-6.831701e-005
3.621719e+003,1.134989e-004
3.623647e+003,1.883416e-004
3.625576e+003,3.071634e-005
3.627504e+003,-3.568064e-004
3.629433e+003,-5.209852e-004
3.631361e+003,-1.596436e-004
3.633290e+003,-4.270768e-005
3.635218e+003,-2.962082e-005
3.637146e+003,1.191332e-004
3.639075e+003,1.881758e-004
3.641004e+003,1.381246e-004
3.642932e+003,1.712042e-004
3.644861e+003,1.814136e-004
3.646789e+003,-2.686009e-004
3.648718e+003,-5.040075e-004
3.650646e+003,-2.859851e-004
3.652574e+003,-1.885286e-005
3.654503e+003,1.047048e-005
3.656432e+003,1.541338e-004
3.658360e+003,4.614377e-004
3.660289e+003,2.331937e-004
3.662217e+003,6.123602e-005
3.664146e+003,2.409513e-004
3.666074e+003,3.622398e-004
3.668002e+003,1.600338e-004
3.669931e+003,-1.728259e-004
3.671860e+003,-1.497069e-004
3.673788e+003,-3.881243e-004
3.675717e+003,-2.920446e-004
3.677645e+003,1.043848e-004
3.679573e+003,6.302552e-005
3.681502e+003,1.096544e-004
3.683430e+003,2.011371e-004
3.685359e+003,2.962199e-004
3.687288e+003,1.081298e-004
3.689216e+003,-8.494737e-005
3.691145e+003,-1.194318e-004
3.693073e+003,5.069804e-005
3.695001e+003,2.167839e-004
3.696930e+003,1.183378e-004
3.698858e+003,7.157012e-006
3.700787e+003,-1.472558e-004
3.702716e+003,9.729244e-005
3.704644e+003,2.349839e-004
3.706573e+003,3.972953e-005
3.708501e+003,-1.280773e-004
3.710429e+003,-4.786886e-004
3.712358e+003,-4.669389e-004
3.714286e+003,1.351085e-004
3.716215e+003,4.737437e-004
3.718144e+003,6.078052e-004
3.720072e+003,4.520509e-004
3.722000e+003,1.156863e-004
3.723929e+003,4.821270e-005
3.725857e+003,-5.500216e-006
3.727786e+003,-3.876665e-006
3.729714e+003,5.421067e-005
3.731643e+003,-5.506528e-005
3.733572e+003,-5.622482e-005
3.735500e+003,-5.705307e-005
3.737428e+003,1.275679e-005
3.739357e+003,1.254967e-004
3.741285e+003,-3.604834e-005
3.743214e+003,-7.792427e-004
3.745142e+003,-7.142792e-004
3.747071e+003,-1.240361e-004
3.749000e+003,-4.091782e-004
3.750928e+003,-6.709758e-004
3.752856e+003,-3.151229e-004
3.754785e+003,3.245035e-004
3.756713e+003,3.097480e-004
3.758642e+003,1.129885e-005
3.760570e+003,-5.142099e-005
3.762499e+003,8.841061e-005
3.764427e+003,1.521450e-004
3.766356e+003,9.063105e-005
3.768284e+003,-2.443942e-004
3.770213e+003,-1.048234e-004
3.772141e+003,4.921536e-004
3.774070e+003,4.746725e-004
3.775998e+003,6.859288e-005
3.777927e+003,-1.762042e-004
3.779855e+003,-8.133645e-005
3.781784e+003,2.501678e-004
3.783712e+003,1.806181e-004
3.785641e+003,2.016343e-004
3.787569e+003,3.399226e-004
3.789498e+003,3.617092e-004
3.791426e+003,4.488336e-004
3.793355e+003,4.663800e-004
3.795283e+003,3.070954e-004
3.797212e+003,1.702761e-004
3.799140e+003,-6.109487e-005
3.801069e+003,-4.123230e-004
3.802997e+003,-7.189492e-005
3.804926e+003,2.145296e-004
3.806854e+003,1.421351e-004
3.808783e+003,3.037465e-004
3.810711e+003,4.920540e-004
3.812640e+003,3.779587e-004
3.814568e+003,-2.562493e-004
3.816497e+003,-4.630001e-004
3.818425e+003,-2.807202e-004
3.820354e+003,-4.252990e-004
3.822282e+003,-1.225942e-005
3.824211e+003,3.292120e-004
3.826139e+003,2.949600e-004
3.828068e+003,1.926840e-004
3.829996e+003,-9.968888e-005
3.831925e+003,-9.352732e-005
3.833853e+003,-3.820187e-005
3.835782e+003,-2.272069e-004
3.837710e+003,-5.071185e-004
3.839639e+003,-3.690226e-004
3.841567e+003,-1.527542e-004
3.843496e+003,7.704348e-005
3.845424e+003,1.844301e-004
3.847353e+003,1.408425e-004
3.849281e+003,4.655582e-005
3.851210e+003,-1.306610e-004
3.853138e+003,-8.641039e-004
3.855067e+003,-6.650871e-004
3.856995e+003,1.929824e-004
3.858924e+003,4.022015e-004
3.860852e+003,2.185408e-004
3.862781e+003,-3.727420e-005
3.864709e+003,-2.997596e-004
3.866638e+003,-1.944533e-004
3.868566e+003,-1.976658e-004
3.870495e+003,-1.140324e-004
3.872423e+003,-1.386769e-004
3.874352e+003,-1.425192e-004
3.876280e+003,-6.507038e-005
3.878209e+003,-1.901146e-004
3.880137e+003,-1.304623e-004
3.882066e+003,1.929824e-004
3.883994e+003,1.901316e-004
3.885923e+003,1.275679e-005
3.887851e+003,3.387620e-004
3.889780e+003,3.687064e-004
3.891708e+003,1.818777e-004
3.893637e+003,2.996351e-004
3.895565e+003,3.911909e-004
3.897494e+003,2.221211e-004
3.899422e+003,-5.476712e-005
3.901351e+003,-1.915056e-004
3.903279e+003,-3.403851e-004
3.905208e+003,1.438587e-004
3.907136e+003,5.827547e-004
3.909065e+003,4.047220e-004
3.910993e+003,2.373045e-004
3.912922e+003,2.128721e-004
3.914850e+003,1.308660e-004
3.916779e+003,5.102942e-005
3.918707e+003,1.365337e-004
3.920636e+003,1.458805e-004
3.922564e+003,4.827898e-005
3.924493e+003,1.796568e-004
3.926421e+003,5.330229e-004
3.928350e+003,4.152354e-004
3.930278e+003,1.898622e-005
3.932207e+003,-1.898539e-005
3.934135e+003,3.470852e-004
3.936064e+003,5.905185e-004
3.937992e+003,5.103320e-004
3.939921e+003,3.220497e-004
3.941849e+003,4.000458e-004
3.943778e+003,4.547376e-004
3.945706e+003,4.040255e-004
3.947635e+003,5.358428e-004
3.949563e+003,5.448001e-004
3.951492e+003,3.626709e-004
3.953420e+003,3.918211e-004
3.955349e+003,3.572987e-004
3.957277e+003,7.164171e-005
3.959206e+003,2.033581e-004
3.961134e+003,5.130853e-004
3.963063e+003,3.777266e-004
3.964991e+003,2.813660e-004
3.966920e+003,4.706921e-004
3.968848e+003,6.758636e-004
3.970777e+003,5.045931e-004
3.972705e+003,4.056506e-004
3.974634e+003,4.021352e-004
3.976562e+003,5.218763e-004
3.978491e+003,6.820362e-004
3.980419e+003,6.268512e-004
3.982348e+003,2.994361e-004
3.984276e+003,2.109825e-004
3.986205e+003,3.467868e-004
3.988133e+003,6.271166e-004
3.990062e+003,5.925093e-004
3.991990e+003,5.153411e-004
3.993919e+003,4.100948e-004
3.995847e+003,3.977574e-004
3.997776e+003,4.983567e-004
3.999704e+003,4.568936e-004
4.001633e+003,0.000000e+000
