3.991989e+002,2.825132e-003
4.011274e+002,-3.220428e-004
4.030559e+002,-9.179371e-003
4.049844e+002,-1.489598e-002
4.069129e+002,-1.317972e-002
4.088414e+002,-3.151184e-003
4.107699e+002,-1.423687e-003
4.126984e+002,-5.136297e-003
4.146269e+002,-1.761638e-003
4.165554e+002,1.493763e-003
4.184839e+002,2.189807e-003
4.204124e+002,6.112237e-003
4.223409e+002,8.659458e-003
4.242694e+002,7.468312e-003
4.261979e+002,4.418351e-004
4.281264e+002,3.550806e-003
4.300549e+002,7.684708e-003
4.319834e+002,5.774350e-003
4.339119e+002,7.778610e-003
4.358404e+002,1.116000e-002
4.377689e+002,1.236484e-002
4.396974e+002,4.896614e-003
4.416259e+002,-5.005692e-003
4.435544e+002,-3.105886e-003
4.454829e+002,9.960572e-004
4.474114e+002,5.117097e-003
4.493399e+002,5.742419e-003
4.512684e+002,3.803062e-003
4.531969e+002,4.272341e-003
4.551254e+002,3.468835e-003
4.570539e+002,1.732085e-003
4.589824e+002,1.660735e-003
4.609109e+002,1.065638e-003
4.628394e+002,3.079168e-003
4.647679e+002,2.420148e-003
4.666964e+002,1.356669e-003
4.686249e+002,2.679249e-003
4.705533e+002,2.781045e-003
4.724819e+002,3.110637e-003
4.744103e+002,4.210676e-003
4.763389e+002,4.040380e-003
4.782673e+002,4.920407e-003
4.801959e+002,3.842806e-003
4.821243e+002,2.969429e-003
4.840529e+002,2.929430e-003
4.859813e+002,3.312018e-003
4.879099e+002,2.528416e-003
4.898383e+002,-5.267767e-004
4.917668e+002,9.507196e-005
4.936953e+002,2.139025e-003
4.956238e+002,3.378331e-003
4.975523e+002,3.679271e-003
4.994808e+002,1.578887e-003
5.014093e+002,1.475710e-003
5.033378e+002,3.988546e-003
5.052663e+002,6.979136e-003
5.071948e+002,5.298716e-003
5.091233e+002,1.940317e-003
5.110518e+002,1.237163e-003
5.129803e+002,1.113703e-003
5.149088e+002,6.512738e-004
5.168373e+002,1.014556e-003
5.187658e+002,2.385864e-003
5.206943e+002,1.145196e-003
5.226228e+002,4.476396e-004
5.245513e+002,1.402839e-003
5.264798e+002,9.463113e-004
5.284083e+002,3.816398e-004
5.303368e+002,9.967878e-004
5.322653e+002,1.217991e-003
5.341938e+002,3.204189e-003
5.361223e+002,3.416134e-003
5.380508e+002,2.263542e-003
5.399792e+002,1.680725e-003
5.419078e+002,2.580576e-003
5.438363e+002,3.343504e-003
5.457648e+002,3.020708e-003
5.476932e+002,2.524283e-003
5.496218e+002,2.843808e-003
5.515503e+002,3.720843e-003
5.534788e+002,3.357128e-003
5.554072e+002,2.666747e-003
5.573358e+002,3.103596e-003
5.592643e+002,3.657351e-003
5.611927e+002,4.499237e-003
5.631212e+002,5.472627e-003
5.650497e+002,5.463063e-003
5.669783e+002,4.937063e-003
5.689067e+002,5.226442e-003
5.708352e+002,4.532817e-003
5.727637e+002,4.064695e-003
5.746923e+002,3.387448e-003
5.766207e+002,1.752578e-003
5.785492e+002,3.634764e-003
5.804777e+002,1.021250e-002
5.824063e+002,8.444838e-003
5.843347e+002,3.731604e-003
5.862632e+002,4.075029e-003
5.881917e+002,4.331940e-003
5.901202e+002,4.509816e-003
5.920487e+002,5.758804e-003
5.939772e+002,5.966389e-003
5.959057e+002,6.584155e-003
5.978342e+002,8.348732e-003
5.997627e+002,9.194254e-003
6.016912e+002,1.018885e-002
6.036197e+002,1.161739e-002
6.055482e+002,1.356216e-002
6.074767e+002,1.438444e-002
6.094052e+002,1.432975e-002
6.113337e+002,1.331316e-002
6.132622e+002,1.219595e-002
6.151907e+002,1.274044e-002
6.171192e+002,1.262663e-002
6.190477e+002,1.078647e-002
6.209762e+002,1.097595e-002
6.229047e+002,1.035136e-002
6.248332e+002,8.281521e-003
6.267617e+002,6.049269e-003
6.286902e+002,4.406041e-003
6.306187e+002,3.474079e-003
6.325472e+002,3.096921e-003
6.344756e+002,2.944142e-003
6.364042e+002,2.777043e-003
6.383326e+002,2.821530e-003
6.402612e+002,2.903011e-003
6.421896e+002,2.902211e-003
6.441182e+002,2.515751e-003
6.460466e+002,1.390474e-003
6.479752e+002,7.214631e-004
6.499036e+002,7.962447e-004
6.518322e+002,6.439734e-004
6.537606e+002,6.723127e-004
6.556891e+002,1.014855e-003
6.576177e+002,7.975393e-004
6.595461e+002,3.071286e-004
6.614746e+002,4.404753e-004
6.634031e+002,4.021020e-004
6.653317e+002,5.373688e-004
6.672601e+002,7.082872e-004
6.691886e+002,5.227388e-004
6.711171e+002,4.131460e-004
6.730457e+002,5.260231e-004
6.749741e+002,6.041222e-004
6.769026e+002,7.559480e-004
6.788311e+002,1.176691e-003
6.807596e+002,1.524552e-003
6.826881e+002,1.459652e-003
6.846166e+002,1.308577e-003
6.865451e+002,1.430065e-003
6.884736e+002,1.818886e-003
6.904021e+002,2.264875e-003
6.923306e+002,2.429877e-003
6.942591e+002,2.210088e-003
6.961876e+002,1.779659e-003
6.981161e+002,1.673175e-003
7.000446e+002,1.594550e-003
7.019731e+002,1.804978e-003
7.039016e+002,2.373603e-003
7.058301e+002,2.344786e-003
7.077585e+002,2.491857e-003
7.096871e+002,3.022644e-003
7.116156e+002,3.798750e-003
7.135441e+002,4.115803e-003
7.154725e+002,3.627480e-003
7.174011e+002,3.504842e-003
7.193296e+002,4.102423e-003
7.212581e+002,4.489996e-003
7.231865e+002,4.519894e-003
7.251151e+002,4.499102e-003
7.270436e+002,4.194550e-003
7.289720e+002,4.458294e-003
7.309005e+002,5.045725e-003
7.328290e+002,5.018707e-003
7.347576e+002,5.113443e-003
7.366860e+002,5.804403e-003
7.386145e+002,6.225161e-003
7.405430e+002,6.158412e-003
7.424716e+002,6.008146e-003
7.444000e+002,5.847824e-003
7.463285e+002,5.637476e-003
7.482570e+002,5.544975e-003
7.501855e+002,6.193499e-003
7.521140e+002,6.828148e-003
7.540425e+002,6.874668e-003
7.559710e+002,6.752927e-003
7.578995e+002,6.521286e-003
7.598280e+002,6.739129e-003
7.617565e+002,6.553106e-003
7.636850e+002,6.487854e-003
7.656135e+002,7.258424e-003
7.675420e+002,7.756785e-003
7.694705e+002,7.774258e-003
7.713990e+002,7.702246e-003
7.733275e+002,7.460120e-003
7.752560e+002,7.159076e-003
7.771844e+002,6.711771e-003
7.791130e+002,6.292592e-003
7.810415e+002,6.071646e-003
7.829700e+002,6.136433e-003
7.848984e+002,6.565754e-003
7.868270e+002,6.522262e-003
7.887555e+002,6.169704e-003
7.906840e+002,5.719353e-003
7.926124e+002,5.454172e-003
7.945410e+002,5.251963e-003
7.964695e+002,5.079113e-003
7.983979e+002,4.617099e-003
8.003264e+002,3.840734e-003
8.022549e+002,3.875735e-003
8.041835e+002,4.503522e-003
8.061119e+002,5.005769e-003
8.080404e+002,5.625862e-003
8.099689e+002,5.614684e-003
8.118975e+002,5.712370e-003
8.138259e+002,6.219379e-003
8.157545e+002,6.449817e-003
8.176830e+002,6.171955e-003
8.196115e+002,5.813100e-003
8.215399e+002,5.661779e-003
8.234684e+002,5.710692e-003
8.253970e+002,5.600419e-003
8.273254e+002,5.283355e-003
8.292539e+002,5.030741e-003
8.311824e+002,4.768358e-003
8.331110e+002,4.542929e-003
8.350394e+002,4.760184e-003
8.369679e+002,5.231573e-003
8.388964e+002,5.099529e-003
8.408250e+002,4.873627e-003
8.427534e+002,4.801122e-003
8.446819e+002,5.009490e-003
8.466104e+002,5.109118e-003
8.485389e+002,4.999066e-003
8.504674e+002,4.673061e-003
8.523959e+002,4.607756e-003
8.543244e+002,4.456218e-003
8.562529e+002,4.558967e-003
8.581814e+002,4.623361e-003
8.601099e+002,4.750469e-003
8.620384e+002,4.716604e-003
8.639669e+002,4.674535e-003
8.658954e+002,4.582273e-003
8.678239e+002,4.665726e-003
8.697524e+002,4.479250e-003
8.716809e+002,4.244602e-003
8.736094e+002,3.945411e-003
8.755378e+002,4.346934e-003
8.774664e+002,4.688971e-003
8.793949e+002,4.722298e-003
8.813234e+002,4.704210e-003
8.832518e+002,4.723604e-003
8.851804e+002,4.586325e-003
8.871089e+002,4.307511e-003
8.890374e+002,4.398242e-003
8.909658e+002,4.460603e-003
8.928943e+002,4.871952e-003
8.948229e+002,5.249582e-003
8.967513e+002,5.280470e-003
8.986798e+002,5.207394e-003
9.006083e+002,5.086924e-003
9.025369e+002,5.174901e-003
9.044653e+002,5.198340e-003
9.063938e+002,4.928282e-003
9.083223e+002,4.634078e-003
9.102509e+002,4.435363e-003
9.121793e+002,4.242662e-003
9.141078e+002,3.927790e-003
9.160364e+002,3.830739e-003
9.179648e+002,3.863299e-003
9.198933e+002,3.504240e-003
9.218218e+002,3.051739e-003
9.237504e+002,2.949880e-003
9.256788e+002,2.715190e-003
9.276073e+002,2.678782e-003
9.295358e+002,2.947144e-003
9.314644e+002,2.827500e-003
9.333928e+002,2.780511e-003
9.353213e+002,2.707921e-003
9.372498e+002,2.700219e-003
9.391783e+002,2.568177e-003
9.411068e+002,2.497422e-003
9.430353e+002,2.594009e-003
9.449637e+002,2.488158e-003
9.468923e+002,2.366407e-003
9.488208e+002,2.541647e-003
9.507493e+002,2.785847e-003
9.526777e+002,3.046300e-003
9.546063e+002,3.150519e-003
9.565348e+002,3.302336e-003
9.584633e+002,3.584848e-003
9.603917e+002,3.684184e-003
9.623203e+002,3.503873e-003
9.642488e+002,3.292053e-003
9.661772e+002,3.273925e-003
9.681057e+002,3.301502e-003
9.700343e+002,3.334188e-003
9.719628e+002,3.397065e-003
9.738912e+002,2.980839e-003
9.758197e+002,2.789415e-003
9.777483e+002,2.932866e-003
9.796768e+002,2.908949e-003
9.816052e+002,2.608309e-003
9.835337e+002,2.288424e-003
9.854623e+002,2.132332e-003
9.873907e+002,2.053225e-003
9.893192e+002,1.873790e-003
9.912477e+002,1.827205e-003
9.931763e+002,1.747355e-003
9.951047e+002,1.647730e-003
9.970332e+002,1.551985e-003
9.989617e+002,1.388346e-003
1.000890e+003,1.380502e-003
1.002819e+003,1.380668e-003
1.004747e+003,1.247497e-003
1.006676e+003,1.553215e-003
1.008604e+003,1.905904e-003
1.010533e+003,1.922078e-003
1.012461e+003,2.014909e-003
1.014390e+003,2.252185e-003
1.016318e+003,2.242060e-003
1.018247e+003,2.371271e-003
1.020175e+003,2.411885e-003
1.022104e+003,2.596442e-003
1.024032e+003,3.270953e-003
1.025961e+003,3.599949e-003
1.027889e+003,3.569213e-003
1.029818e+003,3.849024e-003
1.031746e+003,4.264678e-003
1.033675e+003,4.473358e-003
1.035603e+003,4.806616e-003
1.037532e+003,5.367883e-003
1.039460e+003,5.637308e-003
1.041389e+003,5.906531e-003
1.043317e+003,6.026187e-003
1.045246e+003,5.994674e-003
1.047174e+003,6.323724e-003
1.049103e+003,6.498045e-003
1.051031e+003,6.513079e-003
1.052960e+003,6.680982e-003
1.054888e+003,6.667456e-003
1.056817e+003,6.600504e-003
1.058745e+003,6.624222e-003
1.060674e+003,6.429505e-003
1.062602e+003,6.462428e-003
1.064531e+003,6.772783e-003
1.066459e+003,6.738995e-003
1.068388e+003,6.514559e-003
1.070316e+003,6.500836e-003
1.072245e+003,6.578436e-003
1.074173e+003,6.729034e-003
1.076102e+003,6.780557e-003
1.078030e+003,6.619142e-003
1.079959e+003,6.508639e-003
1.081887e+003,6.543856e-003
1.083816e+003,6.621833e-003
1.085744e+003,6.974254e-003
1.087673e+003,7.339866e-003
1.089601e+003,7.339159e-003
1.091530e+003,7.489380e-003
1.093458e+003,7.808566e-003
1.095387e+003,7.861298e-003
1.097315e+003,7.991449e-003
1.099244e+003,8.183965e-003
1.101172e+003,8.314382e-003
1.103101e+003,8.315834e-003
1.105029e+003,8.165023e-003
1.106958e+003,8.109453e-003
1.108886e+003,8.175794e-003
1.110815e+003,8.360453e-003
1.112743e+003,8.551983e-003
1.114672e+003,8.567731e-003
1.116600e+003,8.481632e-003
1.118529e+003,8.360013e-003
1.120457e+003,8.306411e-003
1.122386e+003,8.432102e-003
1.124314e+003,8.549313e-003
1.126243e+003,8.241503e-003
1.128171e+003,8.038498e-003
1.130100e+003,8.089839e-003
1.132028e+003,7.847026e-003
1.133957e+003,7.611226e-003
1.135885e+003,7.463120e-003
1.137814e+003,7.233627e-003
1.139742e+003,7.002773e-003
1.141671e+003,6.599630e-003
1.143599e+003,6.252724e-003
1.145528e+003,6.064893e-003
1.147456e+003,5.789057e-003
1.149385e+003,5.461386e-003
1.151313e+003,5.234926e-003
1.153242e+003,4.994976e-003
1.155170e+003,4.660502e-003
1.157099e+003,4.374779e-003
1.159027e+003,4.248852e-003
1.160956e+003,4.265047e-003
1.162884e+003,4.052354e-003
1.164813e+003,3.859621e-003
1.166741e+003,3.990418e-003
1.168670e+003,4.158118e-003
1.170598e+003,4.147547e-003
1.172526e+003,3.955040e-003
1.174455e+003,3.997274e-003
1.176384e+003,4.110417e-003
1.178312e+003,4.069009e-003
1.180240e+003,4.007373e-003
1.182169e+003,3.820878e-003
1.184098e+003,3.713424e-003
1.186026e+003,3.690232e-003
1.187954e+003,3.478121e-003
1.189883e+003,2.960188e-003
1.191812e+003,2.822297e-003
1.193740e+003,2.952382e-003
1.195668e+003,2.814093e-003
1.197597e+003,2.632310e-003
1.199526e+003,2.606675e-003
1.201454e+003,2.405554e-003
1.203382e+003,2.291955e-003
1.205311e+003,2.224342e-003
1.207240e+003,2.085286e-003
1.209168e+003,2.189507e-003
1.211096e+003,2.226840e-003
1.213025e+003,2.181548e-003
1.214953e+003,2.194436e-003
1.216882e+003,2.111522e-003
1.218810e+003,2.095840e-003
1.220739e+003,2.218014e-003
1.222667e+003,2.351416e-003
1.224596e+003,2.447970e-003
1.226524e+003,2.585376e-003
1.228453e+003,2.707821e-003
1.230381e+003,2.917588e-003
1.232310e+003,3.117412e-003
1.234238e+003,3.277363e-003
1.236167e+003,3.404946e-003
1.238095e+003,3.455976e-003
1.240024e+003,3.561429e-003
1.241952e+003,3.751857e-003
1.243881e+003,3.794271e-003
1.245809e+003,3.814426e-003
1.247738e+003,3.772712e-003
1.249666e+003,3.767966e-003
1.251595e+003,3.843375e-003
1.253523e+003,4.053758e-003
1.255452e+003,4.194416e-003
1.257380e+003,4.175581e-003
1.259309e+003,4.127276e-003
1.261237e+003,4.322938e-003
1.263166e+003,4.524615e-003
1.265094e+003,4.661875e-003
1.267023e+003,4.982911e-003
1.268951e+003,5.329776e-003
1.270880e+003,5.575214e-003
1.272808e+003,5.799165e-003
1.274737e+003,6.052562e-003
1.276665e+003,6.472719e-003
1.278594e+003,6.813474e-003
1.280522e+003,6.922068e-003
1.282451e+003,7.036919e-003
1.284379e+003,7.241309e-003
1.286308e+003,7.726867e-003
1.288236e+003,7.977916e-003
1.290165e+003,8.195546e-003
1.292093e+003,8.483050e-003
1.294022e+003,8.616296e-003
1.295950e+003,8.802698e-003
1.297879e+003,8.841787e-003
1.299807e+003,8.908341e-003
1.301736e+003,8.828701e-003
1.303664e+003,8.726221e-003
1.305593e+003,8.778050e-003
1.307521e+003,8.621433e-003
1.309450e+003,8.317962e-003
1.311378e+003,8.116711e-003
1.313307e+003,8.046397e-003
1.315235e+003,7.932122e-003
1.317164e+003,7.740662e-003
1.319092e+003,7.417987e-003
1.321021e+003,7.031228e-003
1.322949e+003,6.663755e-003
1.324878e+003,6.432632e-003
1.326806e+003,6.423620e-003
1.328735e+003,6.498919e-003
1.330663e+003,6.436971e-003
1.332592e+003,6.417769e-003
1.334520e+003,6.518024e-003
1.336449e+003,6.562727e-003
1.338377e+003,6.469255e-003
1.340306e+003,6.470937e-003
1.342234e+003,6.744346e-003
1.344163e+003,6.900555e-003
1.346091e+003,6.975297e-003
1.348020e+003,7.073256e-003
1.349948e+003,7.041634e-003
1.351877e+003,6.916715e-003
1.353805e+003,6.913449e-003
1.355734e+003,6.829293e-003
1.357662e+003,6.585635e-003
1.359591e+003,6.371533e-003
1.361519e+003,6.173770e-003
1.363448e+003,5.928162e-003
1.365376e+003,5.736006e-003
1.367305e+003,5.646237e-003
1.369233e+003,5.612503e-003
1.371162e+003,5.502524e-003
1.373090e+003,5.435852e-003
1.375019e+003,5.495142e-003
1.376947e+003,5.564642e-003
1.378876e+003,5.655535e-003
1.380804e+003,5.859141e-003
1.382733e+003,5.871400e-003
1.384661e+003,5.728116e-003
1.386590e+003,5.688366e-003
1.388518e+003,5.672320e-003
1.390447e+003,5.548432e-003
1.392375e+003,5.310623e-003
1.394304e+003,5.055479e-003
1.396232e+003,4.975973e-003
1.398161e+003,4.919603e-003
1.400089e+003,4.894436e-003
1.402018e+003,4.760150e-003
1.403946e+003,4.551802e-003
1.405875e+003,4.354096e-003
1.407803e+003,4.227472e-003
1.409732e+003,3.978414e-003
1.411660e+003,3.801858e-003
1.413589e+003,3.826025e-003
1.415517e+003,3.964570e-003
1.417446e+003,4.153201e-003
1.419374e+003,4.313568e-003
1.421303e+003,4.722700e-003
1.423231e+003,5.237944e-003
1.425160e+003,5.912812e-003
1.427088e+003,6.424831e-003
1.429017e+003,6.787086e-003
1.430945e+003,7.159514e-003
1.432874e+003,7.451087e-003
1.434802e+003,7.678840e-003
1.436731e+003,7.977646e-003
1.438659e+003,8.519407e-003
1.440588e+003,8.947439e-003
1.442516e+003,9.276635e-003
1.444445e+003,9.696096e-003
1.446373e+003,1.022393e-002
1.448302e+003,1.061908e-002
1.450230e+003,1.097041e-002
1.452159e+003,1.143648e-002
1.454087e+003,1.187771e-002
1.456016e+003,1.203088e-002
1.457944e+003,1.223685e-002
1.459873e+003,1.246941e-002
1.461801e+003,1.249642e-002
1.463730e+003,1.245307e-002
1.465658e+003,1.236930e-002
1.467587e+003,1.212071e-002
1.469515e+003,1.172433e-002
1.471444e+003,1.126407e-002
1.473372e+003,1.089328e-002
1.475301e+003,1.062020e-002
1.477229e+003,1.016701e-002
1.479158e+003,9.702229e-003
1.481086e+003,9.097542e-003
1.483015e+003,8.538398e-003
1.484943e+003,7.996613e-003
1.486872e+003,7.473503e-003
1.488800e+003,7.128660e-003
1.490729e+003,6.781533e-003
1.492657e+003,6.457821e-003
1.494586e+003,6.246707e-003
1.496514e+003,5.920705e-003
1.498443e+003,5.621498e-003
1.500371e+003,5.455011e-003
1.502300e+003,5.326019e-003
1.504228e+003,5.029970e-003
1.506157e+003,4.769162e-003
1.508085e+003,4.819247e-003
1.510014e+003,4.838747e-003
1.511942e+003,4.738611e-003
1.513871e+003,4.609933e-003
1.515799e+003,4.384285e-003
1.517728e+003,4.449523e-003
1.519656e+003,4.505598e-003
1.521585e+003,4.501480e-003
1.523513e+003,4.780049e-003
1.525442e+003,5.067581e-003
1.527370e+003,5.176980e-003
1.529299e+003,5.256524e-003
1.531227e+003,5.393748e-003
1.533156e+003,5.679873e-003
1.535084e+003,6.049907e-003
1.537013e+003,6.188861e-003
1.538941e+003,6.270573e-003
1.540870e+003,6.380713e-003
1.542798e+003,6.630076e-003
1.544727e+003,6.968664e-003
1.546655e+003,7.197714e-003
1.548584e+003,7.373331e-003
1.550512e+003,7.653108e-003
1.552441e+003,7.853200e-003
1.554369e+003,7.915587e-003
1.556298e+003,8.069214e-003
1.558226e+003,8.119580e-003
1.560155e+003,8.485146e-003
1.562083e+003,9.051866e-003
1.564012e+003,9.441750e-003
1.565940e+003,9.770983e-003
1.567869e+003,9.944625e-003
1.569797e+003,1.000111e-002
1.571726e+003,1.009365e-002
1.573654e+003,1.010796e-002
1.575583e+003,1.003919e-002
1.577511e+003,9.956457e-003
1.579440e+003,9.837273e-003
1.581368e+003,9.757902e-003
1.583297e+003,9.653509e-003
1.585225e+003,9.490311e-003
1.587154e+003,9.421027e-003
1.589082e+003,9.180413e-003
1.591010e+003,8.846622e-003
1.592939e+003,8.562087e-003
1.594868e+003,8.380957e-003
1.596796e+003,8.245555e-003
1.598724e+003,8.045249e-003
1.600653e+003,7.734186e-003
1.602582e+003,7.547163e-003
1.604510e+003,7.340540e-003
1.606438e+003,7.074637e-003
1.608367e+003,6.769451e-003
1.610296e+003,6.602691e-003
1.612224e+003,6.300325e-003
1.614152e+003,5.999042e-003
1.616081e+003,5.685849e-003
1.618010e+003,5.684506e-003
1.619938e+003,5.635898e-003
1.621866e+003,5.378651e-003
1.623795e+003,5.152067e-003
1.625724e+003,5.198172e-003
1.627652e+003,5.148714e-003
1.629580e+003,4.988173e-003
1.631509e+003,4.848531e-003
1.633438e+003,4.713656e-003
1.635366e+003,4.509649e-003
1.637294e+003,4.384753e-003
1.639223e+003,4.197193e-003
1.641151e+003,3.855008e-003
1.643080e+003,3.472944e-003
1.645008e+003,3.071961e-003
1.646937e+003,2.879229e-003
1.648865e+003,2.761704e-003
1.650794e+003,2.479060e-003
1.652722e+003,2.207657e-003
1.654651e+003,2.155574e-003
1.656579e+003,2.146750e-003
1.658508e+003,2.004623e-003
1.660436e+003,1.928635e-003
1.662365e+003,1.787611e-003
1.664293e+003,1.749284e-003
1.666222e+003,1.748419e-003
1.668150e+003,1.542574e-003
1.670079e+003,1.284217e-003
1.672007e+003,1.169947e-003
1.673936e+003,9.486025e-004
1.675864e+003,7.482475e-004
1.677793e+003,6.433429e-004
1.679721e+003,4.716872e-004
1.681650e+003,1.800214e-004
1.683578e+003,-1.821990e-004
1.685507e+003,-3.552835e-004
1.687435e+003,-5.707231e-004
1.689364e+003,-8.235273e-004
1.691292e+003,-9.375091e-004
1.693221e+003,-1.044751e-003
1.695149e+003,-1.260278e-003
1.697078e+003,-1.202954e-003
1.699006e+003,-1.222019e-003
1.700935e+003,-1.354261e-003
1.702863e+003,-1.222845e-003
1.704792e+003,-1.175858e-003
1.706720e+003,-9.859100e-004
1.708649e+003,-9.356906e-004
1.710577e+003,-1.036619e-003
1.712506e+003,-1.160789e-003
1.714434e+003,-1.327935e-003
1.716363e+003,-1.468863e-003
1.718291e+003,-1.399148e-003
1.720220e+003,-1.273626e-003
1.722148e+003,-1.266423e-003
1.724077e+003,-1.247195e-003
1.726005e+003,-1.256347e-003
1.727934e+003,-1.425999e-003
1.729862e+003,-1.479562e-003
1.731791e+003,-1.531469e-003
1.733719e+003,-1.758041e-003
1.735648e+003,-1.822948e-003
1.737576e+003,-1.776389e-003
1.739505e+003,-1.702168e-003
1.741433e+003,-1.523413e-003
1.743362e+003,-1.495610e-003
1.745290e+003,-1.461764e-003
1.747219e+003,-1.421045e-003
1.749147e+003,-1.426857e-003
1.751076e+003,-1.442907e-003
1.753004e+003,-1.399676e-003
1.754933e+003,-1.304250e-003
1.756861e+003,-1.204044e-003
1.758790e+003,-1.280233e-003
1.760718e+003,-1.390330e-003
1.762647e+003,-1.379893e-003
1.764575e+003,-1.355450e-003
1.766504e+003,-1.287104e-003
1.768432e+003,-1.266423e-003
1.770361e+003,-1.329653e-003
1.772289e+003,-1.427848e-003
1.774218e+003,-1.414538e-003
1.776146e+003,-1.368002e-003
1.778075e+003,-1.404333e-003
1.780003e+003,-1.544544e-003
1.781932e+003,-1.589113e-003
1.783860e+003,-1.538270e-003
1.785789e+003,-1.459386e-003
1.787717e+003,-1.378109e-003
1.789646e+003,-1.377217e-003
1.791574e+003,-1.488940e-003
1.793503e+003,-1.517172e-003
1.795431e+003,-1.478869e-003
1.797360e+003,-1.462787e-003
1.799288e+003,-1.417280e-003
1.801217e+003,-1.462622e-003
1.803145e+003,-1.386366e-003
1.805074e+003,-1.293811e-003
1.807002e+003,-1.268571e-003
1.808931e+003,-1.316076e-003
1.810859e+003,-1.220565e-003
1.812788e+003,-1.159897e-003
1.814716e+003,-1.192016e-003
1.816645e+003,-1.221655e-003
1.818573e+003,-1.265531e-003
1.820502e+003,-1.284825e-003
1.822430e+003,-1.265267e-003
1.824359e+003,-1.272866e-003
1.826287e+003,-1.355649e-003
1.828216e+003,-1.398950e-003
1.830144e+003,-1.371800e-003
1.832073e+003,-1.290144e-003
1.834001e+003,-1.291333e-003
1.835930e+003,-1.355252e-003
1.837858e+003,-1.393236e-003
1.839787e+003,-1.367176e-003
1.841715e+003,-1.350859e-003
1.843644e+003,-1.478869e-003
1.845572e+003,-1.540846e-003
1.847501e+003,-1.493596e-003
1.849429e+003,-1.391519e-003
1.851358e+003,-1.333617e-003
1.853286e+003,-1.361264e-003
1.855215e+003,-1.357630e-003
1.857143e+003,-1.383691e-003
1.859072e+003,-1.486068e-003
1.861000e+003,-1.491978e-003
1.862929e+003,-1.362816e-003
1.864857e+003,-1.277920e-003
1.866786e+003,-1.405192e-003
1.868714e+003,-1.533219e-003
1.870643e+003,-1.399247e-003
1.872571e+003,-1.242008e-003
1.874500e+003,-1.180352e-003
1.876428e+003,-1.136500e-003
1.878357e+003,-1.125462e-003
1.880285e+003,-1.150182e-003
1.882214e+003,-1.200376e-003
1.884142e+003,-1.249111e-003
1.886071e+003,-1.244783e-003
1.887999e+003,-1.187886e-003
1.889928e+003,-1.138780e-003
1.891856e+003,-1.128007e-003
1.893785e+003,-1.136665e-003
1.895713e+003,-1.160426e-003
1.897642e+003,-1.123050e-003
1.899570e+003,-1.131907e-003
1.901499e+003,-1.125660e-003
1.903427e+003,-1.146480e-003
1.905356e+003,-1.259221e-003
1.907284e+003,-1.272899e-003
1.909213e+003,-1.172256e-003
1.911141e+003,-1.095718e-003
1.913070e+003,-1.133262e-003
1.914998e+003,-1.224298e-003
1.916927e+003,-1.338010e-003
1.918855e+003,-1.349042e-003
1.920784e+003,-1.269463e-003
1.922712e+003,-1.270322e-003
1.924641e+003,-1.249739e-003
1.926569e+003,-1.206456e-003
1.928498e+003,-1.247658e-003
1.930426e+003,-1.257206e-003
1.932355e+003,-1.196808e-003
1.934283e+003,-1.182037e-003
1.936212e+003,-1.220300e-003
1.938140e+003,-1.223208e-003
1.940069e+003,-1.199286e-003
1.941997e+003,-1.227272e-003
1.943926e+003,-1.199616e-003
1.945854e+003,-1.195882e-003
1.947783e+003,-1.231237e-003
1.949711e+003,-1.288459e-003
1.951640e+003,-1.275806e-003
1.953568e+003,-1.222944e-003
1.955497e+003,-1.207877e-003
1.957425e+003,-1.170604e-003
1.959354e+003,-1.184747e-003
1.961282e+003,-1.201169e-003
1.963211e+003,-1.268901e-003
1.965139e+003,-1.302994e-003
1.967068e+003,-1.322088e-003
1.968996e+003,-1.299295e-003
1.970925e+003,-1.278482e-003
1.972853e+003,-1.318091e-003
1.974782e+003,-1.283140e-003
1.976710e+003,-1.274055e-003
1.978639e+003,-1.303985e-003
1.980567e+003,-1.312310e-003
1.982496e+003,-1.299691e-003
1.984424e+003,-1.301508e-003
1.986353e+003,-1.314061e-003
1.988281e+003,-1.296817e-003
1.990210e+003,-1.277755e-003
1.992138e+003,-1.207447e-003
1.994067e+003,-1.168126e-003
1.995995e+003,-1.200277e-003
1.997924e+003,-1.178997e-003
1.999852e+003,-1.194561e-003
2.001781e+003,-1.254133e-003
2.003709e+003,-1.291036e-003
2.005638e+003,-1.277557e-003
2.007566e+003,-1.255521e-003
2.009495e+003,-1.272535e-003
2.011423e+003,-1.328364e-003
2.013352e+003,-1.235400e-003
2.015280e+003,-1.169877e-003
2.017208e+003,-1.220036e-003
2.019137e+003,-1.288558e-003
2.021066e+003,-1.279836e-003
2.022994e+003,-1.174040e-003
2.024922e+003,-1.037611e-003
2.026851e+003,-1.024753e-003
2.028780e+003,-1.053312e-003
2.030708e+003,-1.094065e-003
2.032636e+003,-1.104443e-003
2.034565e+003,-1.058369e-003
2.036494e+003,-1.125826e-003
2.038422e+003,-1.166209e-003
2.040350e+003,-1.137029e-003
2.042279e+003,-1.100411e-003
2.044208e+003,-1.114887e-003
2.046136e+003,-1.104013e-003
2.048064e+003,-1.060815e-003
2.049993e+003,-1.020422e-003
2.051921e+003,-1.066732e-003
2.053850e+003,-1.129792e-003
2.055778e+003,-1.209198e-003
2.057707e+003,-1.149785e-003
2.059635e+003,-9.903068e-004
2.061564e+003,-9.716614e-004
2.063492e+003,-1.046172e-003
2.065421e+003,-1.050271e-003
2.067349e+003,-9.684876e-004
2.069278e+003,-9.629665e-004
2.071206e+003,-9.988688e-004
2.073135e+003,-9.358559e-004
2.075063e+003,-8.564981e-004
2.076992e+003,-9.223330e-004
2.078920e+003,-8.956167e-004
2.080849e+003,-8.635417e-004
2.082777e+003,-8.223368e-004
2.084706e+003,-7.003855e-004
2.086634e+003,-7.484821e-004
2.088563e+003,-7.934976e-004
2.090491e+003,-7.550975e-004
2.092420e+003,-7.147092e-004
2.094348e+003,-6.757067e-004
2.096277e+003,-6.700826e-004
2.098205e+003,-6.367007e-004
2.100134e+003,-6.846058e-004
2.102062e+003,-6.895349e-004
2.103991e+003,-5.790619e-004
2.105919e+003,-5.077804e-004
2.107848e+003,-4.922253e-004
2.109776e+003,-5.141015e-004
2.111705e+003,-5.802862e-004
2.113633e+003,-5.261148e-004
2.115562e+003,-4.613121e-004
2.117490e+003,-4.683952e-004
2.119419e+003,-4.648867e-004
2.121347e+003,-4.835539e-004
2.123276e+003,-5.852496e-004
2.125204e+003,-6.180400e-004
2.127133e+003,-5.651970e-004
2.129061e+003,-4.672367e-004
2.130990e+003,-3.876609e-004
2.132918e+003,-3.178710e-004
2.134847e+003,-3.690226e-004
2.136775e+003,-4.403931e-004
2.138704e+003,-4.214261e-004
2.140632e+003,-3.829931e-004
2.142561e+003,-4.711754e-004
2.144489e+003,-5.114540e-004
2.146418e+003,-3.816358e-004
2.148346e+003,-2.659849e-004
2.150275e+003,-2.309491e-004
2.152203e+003,-2.504874e-004
2.154132e+003,-2.152185e-004
2.156060e+003,-2.130327e-004
2.157989e+003,-3.165797e-004
2.159917e+003,-3.362797e-004
2.161846e+003,-2.770447e-004
2.163774e+003,-2.788990e-004
2.165703e+003,-2.699585e-004
2.167631e+003,-2.320751e-004
2.169560e+003,-1.533835e-004
2.171488e+003,-6.232066e-005
2.173417e+003,-6.268508e-005
2.175345e+003,-6.304950e-005
2.177274e+003,-1.196305e-004
2.179202e+003,-1.705074e-004
2.181131e+003,-2.068728e-004
2.183059e+003,-1.203593e-004
2.184988e+003,-1.401344e-004
2.186916e+003,-1.886574e-004
2.188845e+003,-1.423536e-004
2.190773e+003,-1.142974e-004
2.192702e+003,-8.613996e-005
2.194630e+003,-1.332447e-004
2.196559e+003,-2.484342e-004
2.198487e+003,-2.967133e-004
2.200416e+003,-2.686009e-004
2.202344e+003,-2.695611e-004
2.204273e+003,-2.415131e-004
2.206201e+003,-1.916712e-004
2.208130e+003,-2.358503e-004
2.210058e+003,-2.606866e-004
2.211987e+003,-2.799587e-004
2.213915e+003,-2.675412e-004
2.215844e+003,-2.743957e-004
2.217772e+003,-3.019780e-004
2.219701e+003,-3.184339e-004
2.221629e+003,-3.741540e-004
2.223558e+003,-3.297242e-004
2.225486e+003,-2.707863e-004
2.227415e+003,-2.689651e-004
2.229343e+003,-2.894288e-004
2.231272e+003,-2.568123e-004
2.233200e+003,-2.558851e-004
2.235129e+003,-2.429371e-004
2.237057e+003,-2.043558e-004
2.238986e+003,-2.020044e-004
2.240914e+003,-3.131032e-004
2.242843e+003,-3.571706e-004
2.244771e+003,-2.940644e-004
2.246700e+003,-3.234665e-004
2.248628e+003,-3.799475e-004
2.250557e+003,-4.040473e-004
2.252485e+003,-4.097741e-004
2.254414e+003,-4.217902e-004
2.256342e+003,-3.775639e-004
2.258271e+003,-3.521714e-004
2.260199e+003,-4.420481e-004
2.262128e+003,-4.738233e-004
2.264056e+003,-4.049411e-004
2.265985e+003,-4.060666e-004
2.267913e+003,-4.836532e-004
2.269842e+003,-5.277033e-004
2.271770e+003,-5.682413e-004
2.273699e+003,-6.134740e-004
2.275627e+003,-5.555674e-004
2.277556e+003,-5.518611e-004
2.279484e+003,-5.877313e-004
2.281413e+003,-5.747601e-004
2.283341e+003,-6.353441e-004
2.285270e+003,-6.824224e-004
2.287198e+003,-6.316716e-004
2.289127e+003,-6.357080e-004
2.291055e+003,-5.600016e-004
2.292984e+003,-5.035442e-004
2.294912e+003,-5.352487e-004
2.296841e+003,-5.657595e-004
2.298769e+003,-5.543761e-004
2.300698e+003,-5.322041e-004
2.302626e+003,-5.093359e-004
2.304555e+003,-5.243939e-004
2.306483e+003,-4.911000e-004
2.308412e+003,-3.892499e-004
2.310340e+003,-4.301649e-004
2.312269e+003,-5.756205e-004
2.314197e+003,-5.538797e-004
2.316125e+003,-4.363879e-004
2.318054e+003,-4.564796e-004
2.319983e+003,-5.696312e-004
2.321911e+003,-5.830657e-004
2.323840e+003,-5.373335e-004
2.325768e+003,-5.167492e-004
2.327697e+003,-4.817667e-004
2.329625e+003,-5.102626e-004
2.331553e+003,-6.049374e-004
2.333482e+003,-5.313767e-004
2.335411e+003,-4.394663e-004
2.337339e+003,-4.653501e-004
2.339268e+003,-4.340378e-004
2.341196e+003,-4.571747e-004
2.343125e+003,-5.037427e-004
2.345053e+003,-4.361562e-004
2.346981e+003,-4.418164e-004
2.348910e+003,-5.117849e-004
2.350839e+003,-4.992748e-004
2.352767e+003,-5.093359e-004
2.354696e+003,-5.161865e-004
2.356624e+003,-4.440341e-004
2.358552e+003,-3.677977e-004
2.360481e+003,-3.594218e-004
2.362409e+003,-4.181159e-004
2.364338e+003,-3.858401e-004
2.366267e+003,-2.624086e-004
2.368195e+003,-3.367432e-004
2.370124e+003,-3.419081e-004
2.372052e+003,-2.874421e-004
2.373980e+003,-2.960842e-004
2.375909e+003,-3.458148e-004
2.377838e+003,-2.148542e-004
2.379766e+003,-7.189492e-005
2.381695e+003,3.094830e-005
2.383623e+003,4.486581e-005
2.385552e+003,1.971520e-005
2.387480e+003,2.823112e-005
2.389408e+003,4.456757e-005
2.391337e+003,7.803767e-005
2.393266e+003,1.355725e-004
2.395194e+003,1.796899e-004
2.397123e+003,1.691822e-004
2.399051e+003,1.307666e-004
2.400979e+003,7.893245e-005
2.402908e+003,1.230110e-004
2.404836e+003,1.662321e-004
2.406765e+003,1.286122e-004
2.408694e+003,8.164995e-005
2.410622e+003,1.421020e-004
2.412551e+003,1.797562e-004
2.414479e+003,1.184372e-004
2.416407e+003,8.976939e-005
2.418336e+003,1.219504e-004
2.420264e+003,1.700440e-004
2.422193e+003,2.408850e-004
2.424122e+003,2.769232e-004
2.426050e+003,3.192644e-004
2.427979e+003,4.132786e-004
2.429907e+003,4.594808e-004
2.431835e+003,5.430418e-004
2.433764e+003,6.524684e-004
2.435692e+003,6.669700e-004
2.437621e+003,6.255571e-004
2.439550e+003,6.464290e-004
2.441478e+003,6.150054e-004
2.443406e+003,5.492457e-004
2.445335e+003,5.377669e-004
2.447263e+003,5.736639e-004
2.449192e+003,5.928411e-004
2.451121e+003,6.315630e-004
2.453049e+003,6.906315e-004
2.454978e+003,7.701211e-004
2.456906e+003,8.313994e-004
2.458834e+003,8.000289e-004
2.460763e+003,8.226685e-004
2.462691e+003,9.724122e-004
2.464620e+003,1.103837e-003
2.466549e+003,1.081582e-003
2.468477e+003,9.058678e-004
2.470406e+003,8.364122e-004
2.472334e+003,8.337564e-004
2.474262e+003,9.200791e-004
2.476191e+003,1.033254e-003
2.478119e+003,1.102376e-003
2.480048e+003,1.121742e-003
2.481977e+003,1.033752e-003
2.483905e+003,1.029667e-003
2.485833e+003,1.090916e-003
2.487762e+003,1.146160e-003
2.489690e+003,1.204600e-003
2.491619e+003,1.188220e-003
2.493547e+003,1.262517e-003
2.495476e+003,1.222543e-003
2.497405e+003,1.179515e-003
2.499333e+003,1.225965e-003
2.501261e+003,1.342510e-003
2.503190e+003,1.331376e-003
2.505118e+003,1.205198e-003
2.507047e+003,1.192274e-003
2.508975e+003,1.316254e-003
2.510904e+003,1.404135e-003
2.512833e+003,1.467332e-003
2.514761e+003,1.435616e-003
2.516689e+003,1.388812e-003
2.518618e+003,1.422917e-003
2.520546e+003,1.536789e-003
2.522475e+003,1.536290e-003
2.524403e+003,1.397986e-003
2.526332e+003,1.339652e-003
2.528260e+003,1.399648e-003
2.530189e+003,1.499482e-003
2.532117e+003,1.542242e-003
2.534046e+003,1.461846e-003
2.535974e+003,1.498784e-003
2.537903e+003,1.520263e-003
2.539831e+003,1.519531e-003
2.541760e+003,1.519299e-003
2.543688e+003,1.456461e-003
2.545617e+003,1.500380e-003
2.547545e+003,1.697822e-003
2.549474e+003,1.725632e-003
2.551402e+003,1.617398e-003
2.553331e+003,1.577391e-003
2.555259e+003,1.578022e-003
2.557188e+003,1.568778e-003
2.559116e+003,1.481561e-003
2.561045e+003,1.509756e-003
2.562973e+003,1.599173e-003
2.564902e+003,1.553614e-003
2.566830e+003,1.559666e-003
2.568759e+003,1.576193e-003
2.570687e+003,1.619826e-003
2.572616e+003,1.678596e-003
2.574544e+003,1.734647e-003
2.576473e+003,1.696891e-003
2.578401e+003,1.655114e-003
2.580330e+003,1.676035e-003
2.582258e+003,1.735578e-003
2.584187e+003,1.777197e-003
2.586115e+003,1.826639e-003
2.588044e+003,1.843143e-003
2.589972e+003,1.878682e-003
2.591901e+003,1.888399e-003
2.593829e+003,1.874755e-003
2.595758e+003,1.874123e-003
2.597686e+003,1.896885e-003
2.599615e+003,1.983420e-003
2.601543e+003,1.942147e-003
2.603472e+003,1.776964e-003
2.605400e+003,1.838019e-003
2.607329e+003,1.941781e-003
2.609257e+003,2.010315e-003
2.611186e+003,2.077595e-003
2.613114e+003,2.074399e-003
2.615043e+003,2.004956e-003
2.616971e+003,1.999197e-003
2.618900e+003,1.934559e-003
2.620828e+003,1.918717e-003
2.622757e+003,2.107759e-003
2.624685e+003,2.276399e-003
2.626614e+003,2.245291e-003
2.628542e+003,2.101567e-003
2.630471e+003,2.059950e-003
2.632399e+003,2.155674e-003
2.634328e+003,2.142488e-003
2.636256e+003,2.079526e-003
2.638185e+003,2.149314e-003
2.640113e+003,2.283527e-003
2.642042e+003,2.321334e-003
2.643970e+003,2.265008e-003
2.645899e+003,2.324499e-003
2.647827e+003,2.491823e-003
2.649756e+003,2.538580e-003
2.651684e+003,2.498955e-003
2.653613e+003,2.540114e-003
2.655541e+003,2.703987e-003
2.657470e+003,2.746566e-003
2.659398e+003,2.728526e-003
2.661327e+003,2.810158e-003
2.663255e+003,2.854714e-003
2.665184e+003,2.764605e-003
2.667112e+003,2.773809e-003
2.669041e+003,2.881764e-003
2.670969e+003,2.822230e-003
2.672898e+003,2.816661e-003
2.674826e+003,2.968929e-003
2.676755e+003,3.061049e-003
2.678683e+003,3.002892e-003
2.680612e+003,2.968828e-003
2.682540e+003,3.047702e-003
2.684469e+003,3.131128e-003
2.686397e+003,3.215639e-003
2.688326e+003,3.214337e-003
2.690254e+003,3.213402e-003
2.692183e+003,3.243779e-003
2.694111e+003,3.221247e-003
2.696040e+003,3.288147e-003
2.697968e+003,3.377998e-003
2.699897e+003,3.380435e-003
2.701825e+003,3.424616e-003
2.703754e+003,3.509251e-003
2.705682e+003,3.568144e-003
2.707611e+003,3.683849e-003
2.709539e+003,3.761148e-003
2.711468e+003,3.741129e-003
2.713396e+003,3.746610e-003
2.715325e+003,3.738823e-003
2.717253e+003,3.818337e-003
2.719182e+003,3.874264e-003
2.721110e+003,4.014763e-003
2.723039e+003,4.131357e-003
2.724967e+003,4.279904e-003
2.726896e+003,4.330066e-003
2.728824e+003,4.246376e-003
2.730753e+003,4.276323e-003
2.732681e+003,4.493712e-003
2.734610e+003,4.649785e-003
2.736538e+003,4.661473e-003
2.738467e+003,4.669143e-003
2.740395e+003,4.830907e-003
2.742324e+003,4.825848e-003
2.744252e+003,4.782495e-003
2.746181e+003,4.875638e-003
2.748109e+003,5.098993e-003
2.750038e+003,5.215543e-003
2.751966e+003,5.254579e-003
2.753895e+003,5.356544e-003
2.755823e+003,5.414414e-003
2.757752e+003,5.466788e-003
2.759680e+003,5.593371e-003
2.761609e+003,5.895380e-003
2.763537e+003,6.185668e-003
2.765466e+003,6.333675e-003
2.767394e+003,6.564106e-003
2.769323e+003,6.882410e-003
2.771251e+003,7.295555e-003
2.773180e+003,7.728216e-003
2.775108e+003,8.155603e-003
2.777037e+003,8.554112e-003
2.778965e+003,8.974093e-003
2.780894e+003,9.574646e-003
2.782822e+003,1.015649e-002
2.784750e+003,1.070407e-002
2.786679e+003,1.146192e-002
2.788608e+003,1.220819e-002
2.790536e+003,1.281272e-002
2.792465e+003,1.352189e-002
2.794393e+003,1.429807e-002
2.796322e+003,1.490309e-002
2.798250e+003,1.547310e-002
2.800178e+003,1.623795e-002
2.802107e+003,1.696119e-002
2.804036e+003,1.752690e-002
2.805964e+003,1.800829e-002
2.807893e+003,1.832490e-002
2.809821e+003,1.844561e-002
2.811750e+003,1.855210e-002
2.813678e+003,1.861992e-002
2.815606e+003,1.852554e-002
2.817535e+003,1.839997e-002
2.819464e+003,1.826590e-002
2.821392e+003,1.792579e-002
2.823321e+003,1.754018e-002
2.825249e+003,1.708961e-002
2.827177e+003,1.665014e-002
2.829106e+003,1.628683e-002
2.831034e+003,1.574296e-002
2.832963e+003,1.521075e-002
2.834892e+003,1.465153e-002
2.836820e+003,1.399988e-002
2.838749e+003,1.346707e-002
2.840677e+003,1.283405e-002
2.842605e+003,1.210078e-002
2.844534e+003,1.131036e-002
2.846462e+003,1.061826e-002
2.848391e+003,1.003037e-002
2.850320e+003,9.483708e-003
2.852248e+003,9.208604e-003
2.854177e+003,9.109282e-003
2.856105e+003,8.916560e-003
2.858033e+003,8.741637e-003
2.859962e+003,8.767433e-003
2.861890e+003,8.814972e-003
2.863819e+003,8.812706e-003
2.865748e+003,8.869855e-003
2.867676e+003,8.930088e-003
2.869604e+003,9.012386e-003
2.871533e+003,9.081300e-003
2.873461e+003,9.120652e-003
2.875390e+003,9.256766e-003
2.877319e+003,9.445306e-003
2.879247e+003,9.620987e-003
2.881176e+003,9.732759e-003
2.883104e+003,9.753056e-003
2.885032e+003,9.673261e-003
2.886961e+003,9.590804e-003
2.888889e+003,9.559336e-003
2.890818e+003,9.472532e-003
2.892747e+003,9.321420e-003
2.894675e+003,9.143120e-003
2.896604e+003,9.103632e-003
2.898532e+003,9.106372e-003
2.900460e+003,8.981704e-003
2.902389e+003,8.804490e-003
2.904317e+003,8.648270e-003
2.906246e+003,8.602337e-003
2.908175e+003,8.625860e-003
2.910103e+003,8.525828e-003
2.912031e+003,8.299015e-003
2.913960e+003,8.070228e-003
2.915888e+003,7.849016e-003
2.917817e+003,7.884004e-003
2.919745e+003,8.006400e-003
2.921674e+003,8.202198e-003
2.923603e+003,8.384571e-003
2.925531e+003,8.575909e-003
2.927459e+003,8.852066e-003
2.929388e+003,9.241366e-003
2.931316e+003,9.653103e-003
2.933245e+003,9.881438e-003
2.935173e+003,1.013780e-002
2.937102e+003,1.031601e-002
2.939031e+003,1.041991e-002
2.940959e+003,1.044404e-002
2.942887e+003,1.039918e-002
2.944816e+003,1.037454e-002
2.946744e+003,1.022684e-002
2.948673e+003,9.940828e-003
2.950601e+003,9.537456e-003
2.952530e+003,9.095443e-003
2.954458e+003,8.655807e-003
2.956387e+003,8.126738e-003
2.958315e+003,7.534386e-003
2.960244e+003,7.022236e-003
2.962172e+003,6.528585e-003
2.964101e+003,5.996657e-003
2.966029e+003,5.508363e-003
2.967958e+003,5.037412e-003
2.969886e+003,4.584349e-003
2.971815e+003,4.133631e-003
2.973743e+003,3.802928e-003
2.975672e+003,3.463024e-003
2.977600e+003,3.147749e-003
2.979529e+003,2.971564e-003
2.981457e+003,2.692584e-003
2.983386e+003,2.456667e-003
2.985314e+003,2.168994e-003
2.987243e+003,1.941049e-003
2.989171e+003,1.900779e-003
2.991100e+003,1.828868e-003
2.993028e+003,1.625746e-003
2.994957e+003,1.534860e-003
2.996885e+003,1.411083e-003
2.998814e+003,1.316321e-003
3.000742e+003,1.233043e-003
3.002671e+003,1.135031e-003
3.004599e+003,1.089786e-003
3.006528e+003,1.049960e-003
3.008456e+003,9.660362e-004
3.010385e+003,8.382049e-004
3.012313e+003,7.932903e-004
3.014242e+003,7.992986e-004
3.016170e+003,7.470527e-004
3.018099e+003,7.728761e-004
3.020027e+003,8.696446e-004
3.021956e+003,8.820950e-004
3.023884e+003,7.091169e-004
3.025813e+003,5.782424e-004
3.027741e+003,5.147772e-004
3.029670e+003,5.705783e-004
3.031598e+003,6.354122e-004
3.033527e+003,6.007710e-004
3.035455e+003,5.667961e-004
3.037384e+003,5.106305e-004
3.039312e+003,3.882394e-004
3.041241e+003,2.592850e-004
3.043169e+003,2.126401e-004
3.045098e+003,2.668441e-004
3.047026e+003,3.428738e-004
3.048955e+003,3.046749e-004
3.050883e+003,1.703755e-004
3.052812e+003,-1.358493e-006
3.054740e+003,-1.110842e-004
3.056669e+003,-8.852513e-005
3.058597e+003,-1.189018e-004
3.060526e+003,-4.711405e-005
3.062454e+003,3.482527e-005
3.064383e+003,-1.682883e-004
3.066311e+003,-3.154209e-004
3.068240e+003,-2.916473e-004
3.070168e+003,-2.729718e-004
3.072097e+003,-2.716804e-004
3.074025e+003,-2.425397e-004
3.075954e+003,-2.016070e-004
3.077882e+003,-2.830381e-004
3.079811e+003,-3.516086e-004
3.081739e+003,-4.674684e-004
3.083668e+003,-5.433233e-004
3.085596e+003,-5.548394e-004
3.087525e+003,-6.722661e-004
3.089453e+003,-7.292640e-004
3.091382e+003,-6.924792e-004
3.093310e+003,-7.570821e-004
3.095239e+003,-7.831785e-004
3.097167e+003,-7.657149e-004
3.099096e+003,-8.378800e-004
3.101024e+003,-9.637600e-004
3.102953e+003,-1.053312e-003
3.104881e+003,-1.084447e-003
3.106810e+003,-1.005117e-003
3.108738e+003,-8.908552e-004
3.110667e+003,-9.837281e-004
3.112595e+003,-1.050436e-003
3.114524e+003,-9.712316e-004
3.116452e+003,-1.027959e-003
3.118381e+003,-1.095883e-003
3.120309e+003,-1.214023e-003
3.122238e+003,-1.259551e-003
3.124166e+003,-1.212734e-003
3.126095e+003,-1.299195e-003
3.128023e+003,-1.348778e-003
3.129952e+003,-1.274881e-003
3.131880e+003,-1.250929e-003
3.133809e+003,-1.333253e-003
3.135737e+003,-1.297114e-003
3.137666e+003,-1.182302e-003
3.139594e+003,-1.137062e-003
3.141523e+003,-1.256545e-003
3.143451e+003,-1.321130e-003
3.145380e+003,-1.332593e-003
3.147308e+003,-1.264144e-003
3.149237e+003,-1.320337e-003
3.151165e+003,-1.446210e-003
3.153094e+003,-1.525559e-003
3.155022e+003,-1.494422e-003
3.156951e+003,-1.347490e-003
3.158879e+003,-1.332692e-003
3.160808e+003,-1.319148e-003
3.162736e+003,-1.408693e-003
3.164665e+003,-1.495842e-003
3.166593e+003,-1.559302e-003
3.168522e+003,-1.511130e-003
3.170450e+003,-1.425338e-003
3.172379e+003,-1.407405e-003
3.174307e+003,-1.412524e-003
3.176236e+003,-1.428872e-003
3.178164e+003,-1.425668e-003
3.180093e+003,-1.447729e-003
3.182021e+003,-1.517172e-003
3.183950e+003,-1.525922e-003
3.185878e+003,-1.469425e-003
3.187807e+003,-1.359414e-003
3.189735e+003,-1.288459e-003
3.191664e+003,-1.408131e-003
3.193592e+003,-1.584789e-003
3.195521e+003,-1.625096e-003
3.197449e+003,-1.411632e-003
3.199378e+003,-1.275178e-003
3.201306e+003,-1.278812e-003
3.203235e+003,-1.351223e-003
3.205163e+003,-1.371437e-003
3.207092e+003,-1.376920e-003
3.209020e+003,-1.354559e-003
3.210948e+003,-1.236622e-003
3.212877e+003,-1.208967e-003
3.214806e+003,-1.208802e-003
3.216734e+003,-1.234706e-003
3.218663e+003,-1.307025e-003
3.220591e+003,-1.220267e-003
3.222520e+003,-1.002902e-003
3.224448e+003,-8.347053e-004
3.226376e+003,-7.335641e-004
3.228305e+003,-7.505660e-004
3.230234e+003,-7.003194e-004
3.232162e+003,-7.993515e-004
3.234091e+003,-8.641370e-004
3.236019e+003,-7.646234e-004
3.237948e+003,-6.974413e-004
3.239876e+003,-5.725431e-004
3.241804e+003,-4.650191e-004
3.243733e+003,-5.861761e-004
3.245662e+003,-6.686931e-004
3.247590e+003,-6.219111e-004
3.249519e+003,-4.623382e-004
3.251447e+003,-4.170898e-004
3.253375e+003,-4.187449e-004
3.255304e+003,-4.273182e-004
3.257232e+003,-2.448247e-004
3.259161e+003,-3.886449e-005
3.261090e+003,-6.864830e-005
3.263018e+003,-1.278123e-004
3.264947e+003,-1.199949e-004
3.266875e+003,-8.584181e-005
3.268803e+003,-1.465934e-004
3.270732e+003,-1.542116e-004
3.272660e+003,-6.232066e-005
3.274589e+003,8.098714e-005
3.276518e+003,1.209561e-004
3.278446e+003,1.154212e-004
3.280375e+003,8.257788e-005
3.282303e+003,1.182383e-004
3.284231e+003,1.444222e-004
3.286160e+003,4.821270e-005
3.288088e+003,3.379685e-006
3.290017e+003,-2.697027e-005
3.291946e+003,-1.341059e-004
3.293874e+003,-2.599581e-004
3.295802e+003,-2.723427e-004
3.297731e+003,-2.528716e-004
3.299659e+003,-2.314127e-004
3.301588e+003,-2.396918e-004
3.303516e+003,-3.233010e-004
3.305445e+003,-3.977245e-004
3.307374e+003,-5.376313e-004
3.309302e+003,-7.098796e-004
3.311230e+003,-7.882720e-004
3.313159e+003,-8.703868e-004
3.315087e+003,-9.465020e-004
3.317016e+003,-9.059993e-004
3.318944e+003,-9.996622e-004
3.320873e+003,-1.053675e-003
3.322802e+003,-1.232955e-003
3.324730e+003,-1.550288e-003
3.326658e+003,-1.638432e-003
3.328587e+003,-1.511031e-003
3.330515e+003,-1.401328e-003
3.332444e+003,-1.436302e-003
3.334372e+003,-1.585878e-003
3.336301e+003,-1.641073e-003
3.338229e+003,-1.690683e-003
3.340158e+003,-1.773914e-003
3.342086e+003,-1.782164e-003
3.344015e+003,-1.721277e-003
3.345943e+003,-1.884084e-003
3.347872e+003,-2.026943e-003
3.349800e+003,-1.831592e-003
3.351729e+003,-1.820473e-003
3.353657e+003,-2.059624e-003
3.355586e+003,-2.202227e-003
3.357514e+003,-2.271550e-003
3.359443e+003,-2.185579e-003
3.361371e+003,-2.053886e-003
3.363300e+003,-2.117265e-003
3.365229e+003,-2.374542e-003
3.367157e+003,-2.529033e-003
3.369085e+003,-2.746327e-003
3.371014e+003,-2.763580e-003
3.372942e+003,-2.607987e-003
3.374871e+003,-2.881300e-003
3.376799e+003,-2.937778e-003
3.378728e+003,-2.940147e-003
3.380656e+003,-3.038308e-003
3.382585e+003,-3.215389e-003
3.384513e+003,-3.439474e-003
3.386442e+003,-3.493974e-003
3.388370e+003,-3.326772e-003
3.390299e+003,-3.287609e-003
3.392227e+003,-3.335551e-003
3.394156e+003,-3.345580e-003
3.396084e+003,-3.424057e-003
3.398013e+003,-3.488485e-003
3.399941e+003,-3.506004e-003
3.401870e+003,-3.573147e-003
3.403798e+003,-3.589085e-003
3.405727e+003,-3.627170e-003
3.407655e+003,-3.570485e-003
3.409584e+003,-3.516357e-003
3.411512e+003,-3.713020e-003
3.413441e+003,-3.857578e-003
3.415369e+003,-3.841124e-003
3.417298e+003,-3.790511e-003
3.419226e+003,-3.771920e-003
3.421155e+003,-3.694064e-003
3.423083e+003,-3.652010e-003
3.425012e+003,-3.743177e-003
3.426940e+003,-3.856954e-003
3.428869e+003,-3.863785e-003
3.430797e+003,-3.877151e-003
3.432726e+003,-3.984096e-003
3.434654e+003,-4.145104e-003
3.436583e+003,-4.264485e-003
3.438511e+003,-4.241615e-003
3.440440e+003,-4.130270e-003
3.442368e+003,-4.035146e-003
3.444297e+003,-3.978777e-003
3.446225e+003,-4.114942e-003
3.448154e+003,-4.278658e-003
3.450082e+003,-4.149929e-003
3.452011e+003,-4.080215e-003
3.453939e+003,-4.241746e-003
3.455868e+003,-4.439263e-003
3.457796e+003,-4.378813e-003
3.459725e+003,-4.245585e-003
3.461653e+003,-4.152948e-003
3.463582e+003,-4.103553e-003
3.465510e+003,-4.254116e-003
3.467439e+003,-4.307169e-003
3.469367e+003,-4.315206e-003
3.471296e+003,-4.323933e-003
3.473224e+003,-4.429456e-003
3.475153e+003,-4.505311e-003
3.477081e+003,-4.405546e-003
3.479010e+003,-4.349816e-003
3.480938e+003,-4.278264e-003
3.482867e+003,-4.315567e-003
3.484795e+003,-4.221566e-003
3.486724e+003,-4.301854e-003
3.488652e+003,-4.383602e-003
3.490581e+003,-4.415517e-003
3.492509e+003,-4.449462e-003
3.494438e+003,-4.362937e-003
3.496366e+003,-4.164598e-003
3.498295e+003,-4.200893e-003
3.500223e+003,-4.366217e-003
3.502152e+003,-4.453037e-003
3.504080e+003,-4.496883e-003
3.506009e+003,-4.326196e-003
3.507937e+003,-4.313008e-003
3.509866e+003,-4.366381e-003
3.511794e+003,-4.375139e-003
3.513723e+003,-4.494128e-003
3.515651e+003,-4.658587e-003
3.517580e+003,-4.519182e-003
3.519508e+003,-4.405218e-003
3.521437e+003,-4.418305e-003
3.523365e+003,-4.572792e-003
3.525294e+003,-4.708869e-003
3.527222e+003,-4.632460e-003
3.529151e+003,-4.541315e-003
3.531079e+003,-4.564726e-003
3.533008e+003,-4.706706e-003
3.534936e+003,-4.683303e-003
3.536865e+003,-4.431719e-003
3.538793e+003,-4.166797e-003
3.540722e+003,-4.124789e-003
3.542650e+003,-4.205061e-003
3.544579e+003,-4.206341e-003
3.546507e+003,-4.336596e-003
3.548436e+003,-4.465499e-003
3.550364e+003,-4.397280e-003
3.552293e+003,-4.316617e-003
3.554221e+003,-4.462712e-003
3.556150e+003,-4.659701e-003
3.558078e+003,-4.699757e-003
3.560007e+003,-4.778219e-003
3.561935e+003,-4.563447e-003
3.563864e+003,-4.660521e-003
3.565792e+003,-4.754819e-003
3.567721e+003,-4.485569e-003
3.569649e+003,-4.511869e-003
3.571578e+003,-4.684384e-003
3.573506e+003,-4.700511e-003
3.575435e+003,-4.589054e-003
3.577363e+003,-4.558267e-003
3.579292e+003,-4.666782e-003
3.581220e+003,-4.841201e-003
3.583149e+003,-4.932414e-003
3.585077e+003,-4.835467e-003
3.587006e+003,-4.930416e-003
3.588934e+003,-4.945911e-003
3.590863e+003,-4.893003e-003
3.592791e+003,-4.932611e-003
3.594720e+003,-4.886089e-003
3.596648e+003,-4.741644e-003
3.598577e+003,-4.635935e-003
3.600505e+003,-4.648883e-003
3.602434e+003,-4.748560e-003
3.604362e+003,-4.734008e-003
3.606291e+003,-4.953642e-003
3.608219e+003,-5.039788e-003
3.610148e+003,-4.924617e-003
3.612076e+003,-5.069100e-003
3.614005e+003,-5.052364e-003
3.615933e+003,-4.994457e-003
3.617862e+003,-4.953511e-003
3.619790e+003,-4.912136e-003
3.621719e+003,-4.880192e-003
3.623647e+003,-4.998290e-003
3.625576e+003,-5.079710e-003
3.627504e+003,-5.061076e-003
3.629433e+003,-4.899850e-003
3.631361e+003,-4.741120e-003
3.633290e+003,-4.794277e-003
3.635218e+003,-4.928876e-003
3.637146e+003,-5.043129e-003
3.639075e+003,-5.019678e-003
3.641004e+003,-4.873541e-003
3.642932e+003,-5.044701e-003
3.644861e+003,-5.156336e-003
3.646789e+003,-4.893756e-003
3.648718e+003,-5.014568e-003
3.650646e+003,-5.395195e-003
3.652574e+003,-5.325191e-003
3.654503e+003,-5.267648e-003
3.656432e+003,-5.289710e-003
3.658360e+003,-5.359753e-003
3.660289e+003,-5.344796e-003
3.662217e+003,-5.281985e-003
3.664146e+003,-5.415059e-003
3.666074e+003,-5.535792e-003
3.668002e+003,-5.593366e-003
3.669931e+003,-5.614823e-003
3.671860e+003,-5.557121e-003
3.673788e+003,-5.496075e-003
3.675717e+003,-5.419084e-003
3.677645e+003,-5.185312e-003
3.679573e+003,-5.393723e-003
3.681502e+003,-5.298646e-003
3.683430e+003,-5.213174e-003
3.685359e+003,-5.176669e-003
3.687288e+003,-5.140586e-003
3.689216e+003,-5.187506e-003
3.691145e+003,-5.037495e-003
3.693073e+003,-4.992819e-003
3.695001e+003,-5.112851e-003
3.696930e+003,-5.218969e-003
3.698858e+003,-5.328923e-003
3.700787e+003,-5.263261e-003
3.702716e+003,-5.199489e-003
3.704644e+003,-5.124312e-003
3.706573e+003,-5.168581e-003
3.708501e+003,-5.250985e-003
3.710429e+003,-5.136559e-003
3.712358e+003,-5.111738e-003
3.714286e+003,-5.337988e-003
3.716215e+003,-5.601085e-003
3.718144e+003,-5.471798e-003
3.720072e+003,-5.251738e-003
3.722000e+003,-5.210620e-003
3.723929e+003,-5.072014e-003
3.725857e+003,-4.956460e-003
3.727786e+003,-4.827767e-003
3.729714e+003,-4.949679e-003
3.731643e+003,-5.373891e-003
3.733572e+003,-5.538246e-003
3.735500e+003,-5.254226e-003
3.737428e+003,-5.169564e-003
3.739357e+003,-5.250691e-003
3.741285e+003,-5.102176e-003
3.743214e+003,-5.172314e-003
3.745142e+003,-5.116027e-003
3.747071e+003,-4.917115e-003
3.749000e+003,-4.787493e-003
3.750928e+003,-4.647343e-003
3.752856e+003,-4.451397e-003
3.754785e+003,-4.459662e-003
3.756713e+003,-4.552496e-003
3.758642e+003,-4.677698e-003
3.760570e+003,-4.811907e-003
3.762499e+003,-4.686121e-003
3.764427e+003,-4.636033e-003
3.766356e+003,-4.735811e-003
3.768284e+003,-4.729256e-003
3.770213e+003,-4.750657e-003
3.772141e+003,-4.755311e-003
3.774070e+003,-4.548594e-003
3.775998e+003,-4.456776e-003
3.777927e+003,-4.542660e-003
3.779855e+003,-4.735090e-003
3.781784e+003,-4.706706e-003
3.783712e+003,-4.541380e-003
3.785641e+003,-4.398724e-003
3.787569e+003,-4.466614e-003
3.789498e+003,-4.553873e-003
3.791426e+003,-4.743578e-003
3.793355e+003,-4.831470e-003
3.795283e+003,-4.635083e-003
3.797212e+003,-4.589021e-003
3.799140e+003,-4.899391e-003
3.801069e+003,-5.106629e-003
3.802997e+003,-4.907581e-003
3.804926e+003,-4.812071e-003
3.806854e+003,-4.893822e-003
3.808783e+003,-5.001663e-003
3.810711e+003,-4.825572e-003
3.812640e+003,-4.561611e-003
3.814568e+003,-4.634296e-003
3.816497e+003,-4.647048e-003
3.818425e+003,-4.538233e-003
3.820354e+003,-4.512426e-003
3.822282e+003,-4.467893e-003
3.824211e+003,-4.574070e-003
3.826139e+003,-4.813938e-003
3.828068e+003,-4.812202e-003
3.829996e+003,-4.583841e-003
3.831925e+003,-4.391836e-003
3.833853e+003,-4.627444e-003
3.835782e+003,-4.797783e-003
3.837710e+003,-4.740465e-003
3.839639e+003,-4.798242e-003
3.841567e+003,-4.691661e-003
3.843496e+003,-4.530822e-003
3.845424e+003,-4.547414e-003
3.847353e+003,-4.797423e-003
3.849281e+003,-4.808630e-003
3.851210e+003,-4.496424e-003
3.853138e+003,-4.309990e-003
3.855067e+003,-4.498884e-003
3.856995e+003,-4.784904e-003
3.858924e+003,-4.884156e-003
3.860852e+003,-4.921866e-003
3.862781e+003,-4.826849e-003
3.864709e+003,-4.654620e-003
3.866638e+003,-4.582267e-003
3.868566e+003,-4.698479e-003
3.870495e+003,-4.748101e-003
3.872423e+003,-4.916132e-003
3.874352e+003,-4.887891e-003
3.876280e+003,-4.815806e-003
3.878209e+003,-4.906107e-003
3.880137e+003,-4.997045e-003
3.882066e+003,-5.053052e-003
3.883994e+003,-5.175163e-003
3.885923e+003,-5.035039e-003
3.887851e+003,-4.919572e-003
3.889780e+003,-4.948696e-003
3.891708e+003,-5.060880e-003
3.893637e+003,-5.236549e-003
3.895565e+003,-5.191402e-003
3.897494e+003,-5.138032e-003
3.899422e+003,-5.020038e-003
3.901351e+003,-4.896475e-003
3.903279e+003,-4.931038e-003
3.905208e+003,-4.874720e-003
3.907136e+003,-5.038707e-003
3.909065e+003,-5.122183e-003
3.910993e+003,-5.031600e-003
3.912922e+003,-4.932807e-003
3.914850e+003,-4.844937e-003
3.916779e+003,-4.941423e-003
3.918707e+003,-4.837138e-003
3.920636e+003,-4.909777e-003
3.922564e+003,-5.189896e-003
3.924493e+003,-5.188521e-003
3.926421e+003,-5.000484e-003
3.928350e+003,-4.921112e-003
3.930278e+003,-4.915838e-003
3.932207e+003,-4.868692e-003
3.934135e+003,-4.644655e-003
3.936064e+003,-4.297687e-003
3.937992e+003,-4.501048e-003
3.939921e+003,-4.976474e-003
3.941849e+003,-5.041262e-003
3.943778e+003,-4.853816e-003
3.945706e+003,-4.895099e-003
3.947635e+003,-4.800437e-003
3.949563e+003,-4.600397e-003
3.951492e+003,-4.658783e-003
3.953420e+003,-4.856601e-003
3.955349e+003,-4.924683e-003
3.957277e+003,-4.891921e-003
3.959206e+003,-4.939327e-003
3.961134e+003,-4.970250e-003
3.963063e+003,-4.906206e-003
3.964991e+003,-4.952987e-003
3.966920e+003,-4.889759e-003
3.968848e+003,-4.714310e-003
3.970777e+003,-4.740563e-003
3.972705e+003,-4.962618e-003
3.974634e+003,-4.907483e-003
3.976562e+003,-4.777302e-003
3.978491e+003,-4.888121e-003
3.980419e+003,-4.973559e-003
3.982348e+003,-5.140095e-003
3.984276e+003,-4.853423e-003
3.986205e+003,-4.546955e-003
3.988133e+003,-4.373598e-003
3.990062e+003,-4.395083e-003
3.991990e+003,-4.546200e-003
3.993919e+003,-4.624657e-003
3.995847e+003,-4.702281e-003
3.997776e+003,-4.868430e-003
3.999704e+003,-4.968154e-003
4.001633e+003,0.000000e+000
