3.991989e+002,3.510374e-002
4.011274e+002,4.550571e-002
4.030559e+002,2.935795e-002
4.049844e+002,2.033469e-002
4.069129e+002,2.142342e-002
4.088414e+002,2.683411e-002
4.107699e+002,2.546851e-002
4.126984e+002,2.082615e-002
4.146269e+002,1.117071e-002
4.165554e+002,1.238100e-002
4.184839e+002,1.793318e-002
4.204124e+002,1.519318e-002
4.223409e+002,1.867650e-002
4.242694e+002,2.612319e-002
4.261979e+002,2.104472e-002
4.281264e+002,1.528217e-002
4.300549e+002,1.178323e-002
4.319834e+002,5.279028e-003
4.339119e+002,1.148084e-002
4.358404e+002,2.209204e-002
4.377689e+002,1.553910e-002
4.396974e+002,7.176559e-003
4.416259e+002,8.867859e-003
4.435544e+002,1.071878e-002
4.454829e+002,1.402726e-002
4.474114e+002,1.709161e-002
4.493399e+002,1.225971e-002
4.512684e+002,5.160215e-003
4.531969e+002,4.480857e-003
4.551254e+002,7.673478e-003
4.570539e+002,9.287670e-003
4.589824e+002,7.104140e-003
4.609109e+002,8.223605e-003
4.628394e+002,1.108011e-002
4.647679e+002,1.032255e-002
4.666964e+002,8.704280e-003
4.686249e+002,5.792046e-003
4.705533e+002,5.639322e-003
4.724819e+002,7.974440e-003
4.744103e+002,8.849903e-003
4.763389e+002,6.778908e-003
4.782673e+002,6.738625e-003
4.801959e+002,6.627721e-003
4.821243e+002,6.996174e-003
4.840529e+002,7.176087e-003
4.859813e+002,7.524811e-003
4.879099e+002,6.743066e-003
4.898383e+002,5.882819e-003
4.917668e+002,5.318807e-003
4.936953e+002,6.302207e-003
4.956238e+002,6.900724e-003
4.975523e+002,4.864111e-003
4.994808e+002,4.700727e-003
5.014093e+002,6.583919e-003
5.033378e+002,6.325102e-003
5.052663e+002,4.461909e-003
5.071948e+002,4.481794e-003
5.091233e+002,6.117480e-003
5.110518e+002,4.702904e-003
5.129803e+002,3.505009e-003
5.149088e+002,3.039126e-003
5.168373e+002,4.134200e-003
5.187658e+002,5.182714e-003
5.206943e+002,7.066116e-003
5.226228e+002,6.014462e-003
5.245513e+002,5.264807e-003
5.264798e+002,5.195188e-003
5.284083e+002,4.975369e-003
5.303368e+002,3.969920e-003
5.322653e+002,3.935681e-003
5.341938e+002,4.473626e-003
5.361223e+002,4.235769e-003
5.380508e+002,3.677500e-003
5.399792e+002,4.872622e-003
5.419078e+002,3.818003e-003
5.438363e+002,3.055176e-003
5.457648e+002,3.979116e-003
5.476932e+002,3.473344e-003
5.496218e+002,3.773080e-003
5.515503e+002,5.017367e-003
5.534788e+002,3.859521e-003
5.554072e+002,3.919465e-003
5.573358e+002,3.466431e-003
5.592643e+002,3.096988e-003
5.611927e+002,1.286045e-003
5.631212e+002,7.679304e-004
5.650497e+002,2.062048e-003
5.669783e+002,4.335856e-003
5.689067e+002,5.632206e-003
5.708352e+002,6.674084e-003
5.727637e+002,4.161798e-003
5.746923e+002,3.732005e-003
5.766207e+002,4.489762e-003
5.785492e+002,3.015170e-003
5.804777e+002,-6.219148e-003
5.824063e+002,-8.252352e-003
5.843347e+002,1.341812e-003
5.862632e+002,5.630494e-003
5.881917e+002,5.241700e-003
5.901202e+002,3.890846e-003
5.920487e+002,2.467930e-003
5.939772e+002,2.102499e-003
5.959057e+002,2.198632e-003
5.978342e+002,3.446124e-003
5.997627e+002,4.687095e-003
6.016912e+002,3.516566e-003
6.036197e+002,2.878262e-003
6.055482e+002,3.343704e-003
6.074767e+002,2.816361e-003
6.094052e+002,3.137903e-003
6.113337e+002,5.689105e-003
6.132622e+002,5.468164e-003
6.151907e+002,4.199334e-003
6.171192e+002,3.911139e-003
6.190477e+002,3.488742e-003
6.209762e+002,3.896997e-003
6.229047e+002,4.312966e-003
6.248332e+002,3.329481e-003
6.267617e+002,2.822764e-003
6.286902e+002,2.617442e-003
6.306187e+002,2.564211e-003
6.325472e+002,2.332228e-003
6.344756e+002,2.603176e-003
6.364042e+002,2.057220e-003
6.383326e+002,1.402839e-003
6.402612e+002,1.665025e-003
6.421896e+002,2.801053e-003
6.441182e+002,3.027014e-003
6.460466e+002,2.560278e-003
6.479752e+002,2.282295e-003
6.499036e+002,1.921746e-003
6.518322e+002,2.141755e-003
6.537606e+002,2.437241e-003
6.556891e+002,2.431577e-003
6.576177e+002,2.316604e-003
6.595461e+002,2.111455e-003
6.614746e+002,1.567348e-003
6.634031e+002,1.309906e-003
6.653317e+002,2.681549e-003
6.672601e+002,6.079106e-003
6.691886e+002,4.971381e-003
6.711171e+002,2.422580e-003
6.730457e+002,2.141256e-003
6.749741e+002,1.564156e-003
6.769026e+002,1.201145e-003
6.788311e+002,1.492433e-003
6.807596e+002,1.989944e-003
6.826881e+002,1.962317e-003
6.846166e+002,1.348094e-003
6.865451e+002,8.766168e-004
6.884736e+002,1.088325e-003
6.904021e+002,9.822088e-004
6.923306e+002,1.108986e-003
6.942591e+002,1.567049e-003
6.961876e+002,1.662897e-003
6.981161e+002,1.609848e-003
7.000446e+002,1.524685e-003
7.019731e+002,1.166392e-003
7.039016e+002,1.333902e-003
7.058301e+002,1.505301e-003
7.077585e+002,9.153308e-004
7.096871e+002,8.779448e-004
7.116156e+002,1.437012e-003
7.135441e+002,8.278141e-004
7.154725e+002,2.929374e-004
7.174011e+002,6.553886e-004
7.193296e+002,1.187323e-003
7.212581e+002,1.069126e-003
7.231865e+002,1.423250e-003
7.251151e+002,1.691868e-003
7.270436e+002,1.706571e-003
7.289720e+002,1.860879e-003
7.309005e+002,1.727661e-003
7.328290e+002,1.326823e-003
7.347576e+002,1.260656e-003
7.366860e+002,1.082977e-003
7.386145e+002,5.173647e-004
7.405430e+002,7.979044e-004
7.424716e+002,1.278900e-003
7.444000e+002,1.175329e-003
7.463285e+002,1.199783e-003
7.482570e+002,1.241084e-003
7.501855e+002,1.118819e-003
7.521140e+002,1.271622e-003
7.540425e+002,1.446520e-003
7.559710e+002,1.399016e-003
7.578995e+002,1.632131e-003
7.598280e+002,1.568279e-003
7.617565e+002,1.392568e-003
7.636850e+002,1.472219e-003
7.656135e+002,1.908566e-003
7.675420e+002,1.883341e-003
7.694705e+002,1.160944e-003
7.713990e+002,9.777920e-004
7.733275e+002,1.246334e-003
7.752560e+002,1.103273e-003
7.771844e+002,6.359763e-004
7.791130e+002,7.250144e-004
7.810415e+002,1.017179e-003
7.829700e+002,8.476997e-004
7.848984e+002,7.957799e-004
7.868270e+002,1.256835e-003
7.887555e+002,1.266804e-003
7.906840e+002,8.409604e-004
7.926124e+002,8.414916e-004
7.945410e+002,6.742707e-004
7.964695e+002,8.574270e-004
7.983979e+002,1.011002e-003
8.003264e+002,1.015353e-003
8.022549e+002,1.051920e-003
8.041835e+002,1.442265e-003
8.061119e+002,1.514478e-003
8.080404e+002,9.648740e-004
8.099689e+002,3.238734e-004
8.118975e+002,2.962531e-004
8.138259e+002,9.030788e-004
8.157545e+002,1.281858e-003
8.176830e+002,1.508526e-003
8.196115e+002,1.071683e-003
8.215399e+002,9.463776e-004
8.234684e+002,1.175529e-003
8.253970e+002,1.415803e-003
8.273254e+002,1.464905e-003
8.292539e+002,1.388612e-003
8.311824e+002,1.398318e-003
8.331110e+002,1.076466e-003
8.350394e+002,5.394921e-004
8.369679e+002,3.142575e-004
8.388964e+002,5.429754e-004
8.408250e+002,8.825266e-004
8.427534e+002,7.723118e-004
8.446819e+002,6.513401e-004
8.466104e+002,7.659388e-004
8.485389e+002,8.440146e-004
8.504674e+002,7.759299e-004
8.523959e+002,6.938174e-004
8.543244e+002,9.615864e-004
8.562529e+002,1.184167e-003
8.581814e+002,1.064343e-003
8.601099e+002,8.512852e-004
8.620384e+002,8.689142e-004
8.639669e+002,1.234970e-003
8.658954e+002,1.458921e-003
8.678239e+002,1.232112e-003
8.697524e+002,1.142738e-003
8.716809e+002,1.295151e-003
8.736094e+002,1.225367e-003
8.755378e+002,9.868249e-004
8.774664e+002,1.179349e-003
8.793949e+002,1.216064e-003
8.813234e+002,9.754674e-004
8.832518e+002,8.997585e-004
8.851804e+002,7.090505e-004
8.871089e+002,7.666691e-004
8.890374e+002,6.970366e-004
8.909658e+002,6.562845e-004
8.928943e+002,8.944129e-004
8.948229e+002,1.103771e-003
8.967513e+002,1.038900e-003
8.986798e+002,9.429242e-004
9.006083e+002,8.868428e-004
9.025369e+002,7.987674e-004
9.044653e+002,8.557671e-004
9.063938e+002,8.262538e-004
9.083223e+002,8.409272e-004
9.102509e+002,9.135379e-004
9.121793e+002,1.137987e-003
9.141078e+002,8.325281e-004
9.160364e+002,4.746393e-004
9.179648e+002,6.041222e-004
9.198933e+002,8.844855e-004
9.218218e+002,8.334244e-004
9.237504e+002,8.430187e-004
9.256788e+002,7.855892e-004
9.276073e+002,5.941351e-004
9.295358e+002,4.937790e-004
9.314644e+002,5.828210e-004
9.333928e+002,8.557339e-004
9.353213e+002,9.430238e-004
9.372498e+002,8.672542e-004
9.391783e+002,6.160008e-004
9.411068e+002,6.109905e-004
9.430353e+002,7.772908e-004
9.449637e+002,8.033484e-004
9.468923e+002,7.119711e-004
9.488208e+002,5.365395e-004
9.507493e+002,6.107914e-004
9.526777e+002,7.160533e-004
9.546063e+002,7.738387e-004
9.565348e+002,7.600306e-004
9.584633e+002,5.958604e-004
9.603917e+002,5.024369e-004
9.623203e+002,6.129814e-004
9.642488e+002,7.770252e-004
9.661772e+002,8.898642e-004
9.681057e+002,7.883111e-004
9.700343e+002,5.703129e-004
9.719628e+002,6.778216e-004
9.738912e+002,6.499132e-004
9.758197e+002,5.251274e-004
9.777483e+002,5.323262e-004
9.796768e+002,6.525015e-004
9.816052e+002,5.960595e-004
9.835337e+002,4.968640e-004
9.854623e+002,6.644811e-004
9.873907e+002,9.471414e-004
9.893192e+002,1.068262e-003
9.912477e+002,6.997248e-004
9.931763e+002,4.557658e-004
9.951047e+002,4.092656e-004
9.970332e+002,3.130970e-004
9.989617e+002,4.281703e-004
1.000890e+003,6.158018e-004
1.002819e+003,5.389281e-004
1.004747e+003,4.120184e-004
1.006676e+003,4.326146e-004
1.008604e+003,3.003314e-004
1.010533e+003,2.880635e-004
1.012461e+003,3.857852e-004
1.014390e+003,1.944741e-004
1.016318e+003,2.629651e-004
1.018247e+003,5.235351e-004
1.020175e+003,4.608739e-004
1.022104e+003,4.586184e-004
1.024032e+003,4.761320e-004
1.025961e+003,6.008705e-004
1.027889e+003,6.321935e-004
1.029818e+003,5.967562e-004
1.031746e+003,5.597626e-004
1.033675e+003,5.231701e-004
1.035603e+003,4.175239e-004
1.037532e+003,5.079436e-004
1.039460e+003,5.665639e-004
1.041389e+003,4.376560e-004
1.043317e+003,6.385978e-004
1.045246e+003,7.944521e-004
1.047174e+003,8.507540e-004
1.049103e+003,8.238968e-004
1.051031e+003,5.778111e-004
1.052960e+003,4.286346e-004
1.054888e+003,5.177628e-004
1.056817e+003,6.770915e-004
1.058745e+003,5.940024e-004
1.060674e+003,5.724031e-004
1.062602e+003,6.120192e-004
1.064531e+003,4.311221e-004
1.066459e+003,3.164791e-004
1.068388e+003,3.402542e-004
1.070316e+003,4.016377e-004
1.072245e+003,5.883287e-004
1.074173e+003,5.512694e-004
1.076102e+003,3.465546e-004
1.078030e+003,3.110412e-004
1.079959e+003,3.876756e-004
1.081887e+003,3.197949e-004
1.083816e+003,4.593481e-004
1.085744e+003,6.012687e-004
1.087673e+003,5.140806e-004
1.089601e+003,5.601607e-004
1.091530e+003,5.759532e-004
1.093458e+003,4.578886e-004
1.095387e+003,4.232616e-004
1.097315e+003,2.634955e-004
1.099244e+003,2.900860e-004
1.101172e+003,4.371585e-004
1.103101e+003,4.992523e-004
1.105029e+003,6.088006e-004
1.106958e+003,7.160201e-004
1.108886e+003,6.549240e-004
1.110815e+003,4.078395e-004
1.112743e+003,3.489422e-004
1.114672e+003,4.470425e-004
1.116600e+003,6.667045e-004
1.118529e+003,7.525956e-004
1.120457e+003,6.743703e-004
1.122386e+003,6.653771e-004
1.124314e+003,5.213788e-004
1.126243e+003,3.061339e-004
1.128171e+003,2.382991e-004
1.130100e+003,3.927828e-004
1.132028e+003,3.270898e-004
1.133957e+003,2.323981e-004
1.135885e+003,4.299281e-004
1.137814e+003,3.142907e-004
1.139742e+003,7.521492e-006
1.141671e+003,3.366549e-005
1.143599e+003,1.831705e-004
1.145528e+003,2.332931e-004
1.147456e+003,2.401225e-004
1.149385e+003,2.727125e-004
1.151313e+003,2.072034e-004
1.153242e+003,1.609950e-004
1.155170e+003,3.745098e-004
1.157099e+003,5.577056e-004
1.159027e+003,5.534259e-004
1.160956e+003,3.263603e-004
1.162884e+003,3.633673e-004
1.164813e+003,5.051570e-004
1.166741e+003,4.057170e-004
1.168670e+003,2.436698e-004
1.170598e+003,9.391202e-005
1.172526e+003,2.039879e-004
1.174455e+003,3.244703e-004
1.176384e+003,4.163631e-004
1.178312e+003,3.978238e-004
1.180240e+003,1.323907e-004
1.182169e+003,2.365835e-005
1.184098e+003,1.506535e-004
1.186026e+003,1.763089e-004
1.187954e+003,2.315030e-004
1.189883e+003,2.958883e-004
1.191812e+003,1.793253e-004
1.193740e+003,2.140655e-004
1.195668e+003,1.916896e-004
1.197597e+003,6.700220e-005
1.199526e+003,8.774780e-005
1.201454e+003,2.561354e-004
1.203382e+003,3.717905e-004
1.205311e+003,2.962531e-004
1.207240e+003,2.636281e-004
1.209168e+003,2.481123e-004
1.211096e+003,2.335584e-004
1.213025e+003,3.835301e-004
1.214953e+003,3.634668e-004
1.216882e+003,1.530400e-004
1.218810e+003,7.296728e-005
1.220739e+003,3.224062e-005
1.222667e+003,9.533710e-005
1.224596e+003,2.656506e-004
1.226524e+003,3.641963e-004
1.228453e+003,3.908261e-004
1.230381e+003,2.022310e-004
1.232310e+003,1.630501e-004
1.234238e+003,7.247019e-005
1.236167e+003,2.597786e-005
1.238095e+003,1.329873e-004
1.240024e+003,2.041868e-004
1.241952e+003,2.774537e-004
1.243881e+003,1.473058e-004
1.245809e+003,5.619897e-005
1.247738e+003,1.081961e-004
1.249666e+003,2.299780e-004
1.251595e+003,1.721323e-004
1.253523e+003,9.377945e-005
1.255452e+003,2.822280e-004
1.257380e+003,3.007292e-004
1.259309e+003,1.783309e-004
1.261237e+003,1.721986e-004
1.263166e+003,8.963683e-005
1.265094e+003,8.522911e-005
1.267023e+003,3.118701e-004
1.268951e+003,2.708227e-004
1.270880e+003,1.725301e-004
1.272808e+003,7.091263e-005
1.274737e+003,5.543679e-005
1.276665e+003,1.425660e-004
1.278594e+003,2.070377e-004
1.280522e+003,1.533383e-004
1.282451e+003,-1.759382e-005
1.284379e+003,-2.120573e-006
1.286308e+003,1.119945e-005
1.288236e+003,7.853477e-005
1.290165e+003,1.421020e-004
1.292093e+003,1.693148e-004
1.294022e+003,1.244030e-004
1.295950e+003,2.879443e-005
1.297879e+003,2.829739e-005
1.299807e+003,1.263916e-004
1.301736e+003,1.714362e-004
1.303664e+003,1.697789e-004
1.305593e+003,2.486759e-004
1.307521e+003,3.535847e-004
1.309450e+003,3.272225e-004
1.311378e+003,3.028557e-005
1.313307e+003,-1.149599e-004
1.315235e+003,3.144534e-005
1.317164e+003,3.387288e-004
1.319092e+003,2.777189e-004
1.321021e+003,8.503027e-005
1.322949e+003,1.219835e-004
1.324878e+003,2.201652e-004
1.326806e+003,1.153881e-004
1.328735e+003,6.617372e-005
1.330663e+003,1.728615e-004
1.332592e+003,2.093913e-004
1.334520e+003,1.414060e-004
1.336449e+003,1.804192e-004
1.338377e+003,2.370393e-004
1.340306e+003,1.629506e-004
1.342234e+003,1.149903e-004
1.344163e+003,9.702730e-005
1.346091e+003,2.326072e-005
1.348020e+003,1.202601e-004
1.349948e+003,1.196966e-004
1.351877e+003,6.660452e-005
1.353805e+003,2.251379e-004
1.355734e+003,2.523890e-004
1.357662e+003,1.753807e-004
1.359591e+003,2.867704e-004
1.361519e+003,3.379993e-004
1.363448e+003,2.389622e-004
1.365376e+003,7.031612e-005
1.367305e+003,8.715127e-005
1.369233e+003,1.933470e-004
1.371162e+003,2.595834e-004
1.373090e+003,4.199118e-004
1.375019e+003,3.750404e-004
1.376947e+003,2.939984e-004
1.378876e+003,2.581246e-004
1.380804e+003,1.702098e-004
1.382733e+003,1.470075e-004
1.384661e+003,2.429736e-004
1.386590e+003,4.163631e-004
1.388518e+003,3.631683e-004
1.390447e+003,5.030038e-005
1.392375e+003,2.027850e-005
1.394304e+003,2.023304e-004
1.396232e+003,1.949713e-004
1.398161e+003,3.108091e-004
1.400089e+003,3.165454e-004
1.402018e+003,2.408187e-004
1.403946e+003,2.270938e-004
1.405875e+003,2.279889e-004
1.407803e+003,6.040755e-005
1.409732e+003,4.430247e-005
1.411660e+003,1.574815e-004
1.413589e+003,1.561888e-004
1.415517e+003,2.191375e-004
1.417446e+003,4.052526e-004
1.419374e+003,5.036311e-004
1.421303e+003,3.213534e-004
1.423231e+003,2.849136e-004
1.425160e+003,3.925175e-004
1.427088e+003,3.907266e-004
1.429017e+003,3.280846e-004
1.430945e+003,1.871814e-004
1.432874e+003,2.279226e-004
1.434802e+003,5.284448e-004
1.436731e+003,6.769919e-004
1.438659e+003,3.673136e-004
1.440588e+003,2.060763e-004
1.442516e+003,3.024866e-004
1.444445e+003,3.124338e-004
1.446373e+003,3.791858e-004
1.448302e+003,3.875098e-004
1.450230e+003,2.613074e-004
1.452159e+003,2.072697e-004
1.454087e+003,3.510313e-004
1.456016e+003,9.452155e-004
1.457944e+003,1.018176e-003
1.459873e+003,4.582535e-004
1.461801e+003,1.461126e-004
1.463730e+003,1.872145e-004
1.465658e+003,3.394915e-004
1.467587e+003,2.577931e-004
1.469515e+003,3.287810e-004
1.471444e+003,6.671027e-004
1.473372e+003,8.514844e-004
1.475301e+003,7.087518e-004
1.477229e+003,4.711233e-004
1.479158e+003,2.502009e-004
1.481086e+003,3.444987e-004
1.483015e+003,2.735413e-004
1.484943e+003,1.956011e-004
1.486872e+003,3.438355e-004
1.488800e+003,5.387622e-004
1.490729e+003,5.751901e-004
1.492657e+003,3.195296e-004
1.494586e+003,3.138928e-004
1.496514e+003,4.860832e-004
1.498443e+003,4.923194e-004
1.500371e+003,3.350812e-004
1.502300e+003,2.819959e-004
1.504228e+003,6.964060e-004
1.506157e+003,1.354376e-003
1.508085e+003,1.070886e-003
1.510014e+003,5.334874e-004
1.511942e+003,3.192312e-004
1.513871e+003,2.548092e-004
1.515799e+003,5.124882e-004
1.517728e+003,6.092319e-004
1.519656e+003,6.606980e-004
1.521585e+003,8.918231e-004
1.523513e+003,6.736070e-004
1.525442e+003,5.894900e-004
1.527370e+003,4.582867e-004
1.529299e+003,3.000993e-004
1.531227e+003,3.299747e-004
1.533156e+003,5.791050e-004
1.535084e+003,5.352788e-004
1.537013e+003,5.799345e-004
1.538941e+003,1.049429e-003
1.540870e+003,1.159980e-003
1.542798e+003,8.924208e-004
1.544727e+003,6.348149e-004
1.546655e+003,2.953247e-004
1.548584e+003,3.550769e-004
1.550512e+003,4.546713e-004
1.552441e+003,4.071762e-004
1.554369e+003,5.801004e-004
1.556298e+003,8.554019e-004
1.558226e+003,1.452970e-003
1.560155e+003,1.176259e-003
1.562083e+003,5.904853e-004
1.564012e+003,4.883057e-004
1.565940e+003,3.212208e-004
1.567869e+003,4.192153e-004
1.569797e+003,6.191198e-004
1.571726e+003,3.474831e-004
1.573654e+003,3.200270e-004
1.575583e+003,6.555213e-004
1.577511e+003,4.974611e-004
1.579440e+003,2.347518e-004
1.581368e+003,2.641586e-004
1.583297e+003,2.140987e-004
1.585225e+003,2.389290e-004
1.587154e+003,2.573289e-004
1.589082e+003,1.564208e-004
1.591010e+003,-6.063487e-006
1.592939e+003,1.593777e-005
1.594868e+003,1.339153e-004
1.596796e+003,1.923194e-004
1.598724e+003,1.266899e-004
1.600653e+003,6.713475e-005
1.602582e+003,1.411077e-004
1.604510e+003,8.194821e-005
1.606438e+003,-1.259092e-006
1.608367e+003,1.253310e-004
1.610296e+003,1.974243e-004
1.612224e+003,1.615916e-004
1.614152e+003,2.750333e-004
1.616081e+003,5.871343e-004
1.618010e+003,4.544391e-004
1.619938e+003,2.748012e-004
1.621866e+003,4.598125e-004
1.623795e+003,4.118525e-004
1.625724e+003,2.894892e-004
1.627652e+003,3.106764e-004
1.629580e+003,1.804192e-004
1.631509e+003,1.312969e-004
1.633438e+003,4.307573e-004
1.635366e+003,7.782534e-004
1.637294e+003,4.754354e-004
1.639223e+003,2.045846e-004
1.641151e+003,1.947393e-004
1.643080e+003,2.352491e-004
1.645008e+003,5.972871e-004
1.646937e+003,8.485960e-004
1.648865e+003,5.554496e-004
1.650794e+003,7.661048e-004
1.652722e+003,1.576393e-003
1.654651e+003,1.042986e-003
1.656579e+003,3.214860e-004
1.658508e+003,1.611276e-004
1.660436e+003,2.111483e-004
1.662365e+003,4.026990e-004
1.664293e+003,3.384967e-004
1.666222e+003,2.509634e-004
1.668150e+003,4.485683e-004
1.670079e+003,6.438075e-004
1.672007e+003,4.742413e-004
1.673936e+003,4.618358e-004
1.675864e+003,4.377555e-004
1.677793e+003,2.014354e-004
1.679721e+003,1.889714e-004
1.681650e+003,3.840608e-004
1.683578e+003,8.908935e-004
1.685507e+003,7.679968e-004
1.687435e+003,4.131792e-004
1.689364e+003,2.942637e-004
1.691292e+003,2.238781e-004
1.693221e+003,3.600511e-004
1.695149e+003,6.704212e-004
1.697078e+003,7.012182e-004
1.699006e+003,9.873230e-004
1.700935e+003,1.058430e-003
1.702863e+003,5.375347e-004
1.704792e+003,6.018659e-004
1.706720e+003,5.040292e-004
1.708649e+003,3.206239e-004
1.710577e+003,2.306742e-004
1.712506e+003,2.981098e-004
1.714434e+003,4.777573e-004
1.716363e+003,7.365976e-004
1.718291e+003,5.746924e-004
1.720220e+003,2.038553e-004
1.722148e+003,1.681215e-004
1.724077e+003,2.151926e-004
1.726005e+003,1.719003e-004
1.727934e+003,2.260661e-004
1.729862e+003,3.416469e-004
1.731791e+003,5.275491e-004
1.733719e+003,8.335905e-004
1.735648e+003,5.431413e-004
1.737576e+003,2.995356e-004
1.739505e+003,3.938772e-004
1.741433e+003,2.235135e-004
1.743362e+003,1.852588e-004
1.745290e+003,2.211597e-004
1.747219e+003,3.115054e-004
1.749147e+003,4.222335e-004
1.751076e+003,5.051239e-004
1.753004e+003,2.736077e-004
1.754933e+003,2.018995e-004
1.756861e+003,3.064986e-004
1.758790e+003,2.351497e-004
1.760718e+003,3.056033e-004
1.762647e+003,2.695628e-004
1.764575e+003,1.110005e-005
1.766504e+003,1.331530e-004
1.768432e+003,2.535825e-004
1.770361e+003,3.371040e-004
1.772289e+003,4.629635e-004
1.774218e+003,3.232103e-004
1.776146e+003,1.623209e-004
1.778075e+003,7.097891e-005
1.780003e+003,4.377227e-005
1.781932e+003,-7.732796e-005
1.783860e+003,-5.529719e-005
1.785789e+003,1.366000e-004
1.787717e+003,1.908609e-004
1.789646e+003,2.353817e-004
1.791574e+003,4.511222e-004
1.793503e+003,3.848898e-004
1.795431e+003,2.138666e-004
1.797360e+003,2.344203e-004
1.799288e+003,1.550950e-004
1.801217e+003,5.865121e-005
1.803145e+003,-2.200045e-005
1.805074e+003,6.584233e-005
1.807002e+003,1.238727e-004
1.808931e+003,8.768152e-005
1.810859e+003,6.594174e-005
1.812788e+003,9.755757e-005
1.814716e+003,7.253647e-005
1.816645e+003,5.590072e-005
1.818573e+003,8.539481e-005
1.820502e+003,1.467755e-004
1.822430e+003,1.944078e-004
1.824359e+003,2.535494e-004
1.826287e+003,2.322986e-004
1.828216e+003,2.922743e-004
1.830144e+003,3.576635e-004
1.832073e+003,9.725930e-005
1.834001e+003,6.193193e-005
1.835930e+003,1.501894e-004
1.837858e+003,8.231276e-005
1.839787e+003,6.554407e-005
1.841715e+003,1.616579e-004
1.843644e+003,3.195628e-004
1.845572e+003,1.608956e-004
1.847501e+003,2.203470e-005
1.849429e+003,4.983645e-005
1.851358e+003,1.093561e-004
1.853286e+003,1.235081e-004
1.855215e+003,7.956212e-005
1.857143e+003,1.356388e-004
1.859072e+003,1.407762e-004
1.861000e+003,7.071380e-005
1.862929e+003,6.657139e-005
1.864857e+003,1.689502e-004
1.866786e+003,1.494271e-004
1.868714e+003,1.581444e-004
1.870643e+003,1.117755e-004
1.872571e+003,6.882485e-005
1.874500e+003,8.466572e-005
1.876428e+003,9.646390e-005
1.878357e+003,1.753476e-004
1.880285e+003,1.599012e-004
1.882214e+003,1.137972e-004
1.884142e+003,1.237733e-004
1.886071e+003,6.385399e-005
1.887999e+003,1.577135e-004
1.889928e+003,1.469412e-004
1.891856e+003,-2.054306e-006
1.893785e+003,7.783883e-005
1.895713e+003,8.645531e-005
1.897642e+003,3.101457e-005
1.899570e+003,1.715025e-004
1.901499e+003,2.586882e-004
1.903427e+003,2.080322e-004
1.905356e+003,1.566197e-004
1.907284e+003,1.328547e-004
1.909213e+003,1.099527e-004
1.911141e+003,8.950426e-005
1.913070e+003,1.007723e-004
1.914998e+003,1.631827e-004
1.916927e+003,2.862067e-004
1.918855e+003,2.917106e-004
1.920784e+003,2.101206e-004
1.922712e+003,2.101538e-004
1.924641e+003,2.003415e-004
1.926569e+003,2.250384e-004
1.928498e+003,1.217515e-004
1.930426e+003,8.506341e-005
1.932355e+003,7.734173e-005
1.934283e+003,3.402999e-005
1.936212e+003,4.728485e-005
1.938140e+003,4.284443e-005
1.940069e+003,1.264579e-004
1.941997e+003,2.894560e-004
1.943926e+003,3.042439e-004
1.945854e+003,1.636467e-004
1.947783e+003,1.318272e-004
1.949711e+003,1.797562e-004
1.951640e+003,2.071371e-004
1.953568e+003,2.248395e-004
1.955497e+003,1.710053e-004
1.957425e+003,1.113446e-004
1.959354e+003,1.726627e-004
1.961282e+003,1.897338e-004
1.963211e+003,1.006729e-004
1.965139e+003,5.918143e-005
1.967068e+003,5.639780e-005
1.968996e+003,-1.033770e-005
1.970925e+003,-5.108968e-005
1.972853e+003,-3.237075e-005
1.974782e+003,4.605656e-006
1.976710e+003,1.116761e-004
1.978639e+003,2.557375e-004
1.980567e+003,2.448633e-004
1.982496e+003,1.334513e-004
1.984424e+003,9.868438e-005
1.986353e+003,1.619562e-004
1.988281e+003,2.128389e-004
1.990210e+003,1.586085e-004
1.992138e+003,2.039879e-004
1.994067e+003,1.707401e-004
1.995995e+003,5.580131e-005
1.997924e+003,2.833053e-005
1.999852e+003,6.763184e-005
2.001781e+003,3.164416e-005
2.003709e+003,1.049813e-004
2.005638e+003,1.869493e-004
2.007566e+003,2.011702e-004
2.009495e+003,1.969934e-004
2.011423e+003,1.152223e-004
2.013352e+003,2.293481e-004
2.015280e+003,2.880635e-004
2.017208e+003,1.949382e-004
2.019137e+003,1.590394e-004
2.021066e+003,1.813142e-004
2.022994e+003,1.129023e-004
2.024922e+003,8.668730e-005
2.026851e+003,1.538686e-004
2.028780e+003,1.880432e-004
2.030708e+003,1.651383e-004
2.032636e+003,1.848279e-004
2.034565e+003,1.543989e-004
2.036494e+003,8.231276e-005
2.038422e+003,6.812893e-005
2.040350e+003,8.907343e-005
2.042279e+003,1.704087e-004
2.044208e+003,1.572163e-004
2.046136e+003,1.143606e-004
2.048064e+003,1.157195e-004
2.049993e+003,6.733359e-005
2.051921e+003,3.485841e-005
2.053850e+003,1.456485e-004
2.055778e+003,1.676906e-004
2.057707e+003,1.269219e-004
2.059635e+003,5.828669e-005
2.061564e+003,6.597488e-005
2.063492e+003,2.846307e-005
2.065421e+003,6.063572e-006
2.067349e+003,8.019178e-005
2.069278e+003,5.619897e-005
2.071206e+003,7.144287e-005
2.073135e+003,1.507529e-004
2.075063e+003,2.058774e-004
2.076992e+003,1.590062e-004
2.078920e+003,1.345119e-004
2.080849e+003,1.317609e-004
2.082777e+003,8.827805e-005
2.084706e+003,3.770817e-005
2.086634e+003,6.925070e-006
2.088563e+003,6.786382e-005
2.090491e+003,1.505872e-004
2.092420e+003,7.611556e-005
2.094348e+003,6.169996e-005
2.096277e+003,9.580107e-005
2.098205e+003,1.155538e-004
2.100134e+003,5.672918e-005
2.102062e+003,3.035184e-005
2.103991e+003,4.602562e-005
2.105919e+003,1.133995e-004
2.107848e+003,1.880432e-004
2.109776e+003,1.323907e-004
2.111705e+003,-3.710996e-006
2.113633e+003,-3.339783e-005
2.115562e+003,9.046535e-005
2.117490e+003,1.120075e-004
2.119419e+003,1.212212e-004
2.121347e+003,1.071687e-004
2.123276e+003,3.777445e-005
2.125204e+003,5.315025e-005
2.127133e+003,9.450856e-005
2.129061e+003,1.369314e-004
2.130990e+003,1.395830e-004
2.132918e+003,9.308349e-005
2.134847e+003,6.882485e-005
2.136775e+003,9.540337e-005
2.138704e+003,1.437593e-004
2.140632e+003,1.587411e-004
2.142561e+003,7.611556e-005
2.144489e+003,-8.217164e-006
2.146418e+003,2.143825e-005
2.148346e+003,7.710975e-005
2.150275e+003,1.082955e-004
2.152203e+003,1.410745e-004
2.154132e+003,1.129686e-004
2.156060e+003,2.998734e-005
2.157989e+003,5.778961e-005
2.159917e+003,7.578416e-005
2.161846e+003,4.970134e-006
2.163774e+003,2.634236e-005
2.165703e+003,8.148425e-005
2.167631e+003,1.190006e-004
2.169560e+003,2.178778e-004
2.171488e+003,2.608764e-004
2.173417e+003,1.548630e-004
2.175345e+003,7.392834e-005
2.177274e+003,1.050807e-004
2.179202e+003,2.195685e-004
2.181131e+003,1.718671e-004
2.183059e+003,7.233763e-005
2.184988e+003,9.414401e-005
2.186916e+003,9.351433e-005
2.188845e+003,1.147252e-004
2.190773e+003,1.019323e-004
2.192702e+003,7.263588e-005
2.194630e+003,9.278522e-005
2.196559e+003,1.319598e-004
2.198487e+003,1.519462e-004
2.200416e+003,1.431626e-004
2.202344e+003,1.525096e-004
2.204273e+003,1.567523e-004
2.206201e+003,7.213879e-005
2.208130e+003,4.854408e-005
2.210058e+003,5.367748e-006
2.211987e+003,1.723004e-005
2.213915e+003,1.081961e-004
2.215844e+003,1.972917e-004
2.217772e+003,2.288508e-004
2.219701e+003,2.032586e-004
2.221629e+003,1.572163e-004
2.223558e+003,8.940484e-005
2.225486e+003,1.097538e-004
2.227415e+003,1.526091e-004
2.229343e+003,1.668288e-004
2.231272e+003,1.721655e-004
2.233200e+003,1.856566e-004
2.235129e+003,2.034244e-004
2.237057e+003,8.337325e-005
2.238986e+003,4.281129e-005
2.240914e+003,1.249333e-004
2.242843e+003,1.591057e-004
2.244771e+003,1.621551e-004
2.246700e+003,1.650720e-004
2.248628e+003,1.686187e-004
2.250557e+003,6.981903e-005
2.252485e+003,5.792216e-005
2.254414e+003,1.741543e-004
2.256342e+003,2.647222e-004
2.258271e+003,2.125074e-004
2.260199e+003,2.302100e-004
2.262128e+003,2.568979e-004
2.264056e+003,2.401556e-004
2.265985e+003,3.149538e-004
2.267913e+003,2.846152e-004
2.269842e+003,2.329285e-004
2.271770e+003,2.171485e-004
2.273699e+003,1.921868e-004
2.275627e+003,1.443559e-004
2.277556e+003,1.871814e-004
2.279484e+003,2.100543e-004
2.281413e+003,2.306742e-004
2.283341e+003,1.746184e-004
2.285270e+003,1.546641e-004
2.287198e+003,1.879107e-004
2.289127e+003,2.781831e-004
2.291055e+003,3.013592e-004
2.292984e+003,3.842266e-004
2.294912e+003,4.280376e-004
2.296841e+003,4.843915e-004
2.298769e+003,6.320608e-004
2.300698e+003,7.475173e-004
2.302626e+003,9.067311e-004
2.304555e+003,1.032590e-003
2.306483e+003,1.225832e-003
2.308412e+003,1.432691e-003
2.310340e+003,1.644005e-003
2.312269e+003,2.000362e-003
2.314197e+003,2.361310e-003
2.316125e+003,2.810424e-003
2.318054e+003,3.269952e-003
2.319983e+003,3.703265e-003
2.321911e+003,4.195420e-003
2.323840e+003,4.669913e-003
2.325768e+003,4.948926e-003
2.327697e+003,5.419480e-003
2.329625e+003,5.995783e-003
2.331553e+003,6.275011e-003
2.333482e+003,6.410842e-003
2.335411e+003,6.470500e-003
2.337339e+003,6.599798e-003
2.339268e+003,6.621531e-003
2.341196e+003,6.453886e-003
2.343125e+003,6.115934e-003
2.345053e+003,5.174030e-003
2.346981e+003,3.689664e-003
2.348910e+003,2.843008e-003
2.350839e+003,3.740093e-003
2.352767e+003,5.520410e-003
2.354696e+003,7.074132e-003
2.356624e+003,8.049739e-003
2.358552e+003,8.541608e-003
2.360481e+003,8.661250e-003
2.362409e+003,8.626097e-003
2.364338e+003,8.438961e-003
2.366267e+003,7.918658e-003
2.368195e+003,7.179591e-003
2.370124e+003,6.245597e-003
2.372052e+003,5.166552e-003
2.373980e+003,4.103326e-003
2.375909e+003,2.984542e-003
2.377838e+003,1.994737e-003
2.379766e+003,1.240021e-003
2.381695e+003,6.722464e-004
2.383623e+003,4.370259e-004
2.385552e+003,3.261945e-004
2.387480e+003,1.819108e-004
2.389408e+003,1.624203e-004
2.391337e+003,1.589731e-004
2.393266e+003,1.129686e-004
2.395194e+003,1.324901e-004
2.397123e+003,2.054465e-004
2.399051e+003,2.254362e-004
2.400979e+003,1.503552e-004
2.402908e+003,7.737488e-005
2.404836e+003,1.086933e-004
2.406765e+003,7.532020e-005
2.408694e+003,3.449390e-005
2.410622e+003,1.614259e-004
2.412551e+003,1.804855e-004
2.414479e+003,1.310649e-004
2.416407e+003,1.662984e-004
2.418336e+003,1.585090e-004
2.420264e+003,5.364732e-005
2.422193e+003,-2.620823e-005
2.424122e+003,5.994361e-005
2.426050e+003,1.271871e-004
2.427979e+003,9.248695e-005
2.429907e+003,1.405442e-004
2.431835e+003,1.541669e-004
2.433764e+003,9.099561e-005
2.435692e+003,9.520453e-005
2.437621e+003,2.198337e-004
2.439550e+003,2.180436e-004
2.441478e+003,1.924852e-004
2.443406e+003,1.951702e-004
2.445335e+003,1.743863e-004
2.447263e+003,2.378350e-004
2.449192e+003,2.396584e-004
2.451121e+003,8.764838e-005
2.453049e+003,6.266099e-005
2.454978e+003,1.734251e-004
2.456906e+003,2.401225e-004
2.458834e+003,2.814323e-004
2.460763e+003,2.854441e-004
2.462691e+003,1.523770e-004
2.464620e+003,1.353405e-004
2.466549e+003,2.334258e-004
2.468477e+003,2.325307e-004
2.470406e+003,2.292486e-004
2.472334e+003,1.235413e-004
2.474262e+003,7.207251e-005
2.476191e+003,1.126704e-004
2.478119e+003,2.218891e-004
2.480048e+003,3.291125e-004
2.481977e+003,3.267914e-004
2.483905e+003,2.177784e-004
2.485833e+003,1.242041e-004
2.487762e+003,8.324068e-005
2.489690e+003,5.947967e-005
2.491619e+003,8.489771e-005
2.493547e+003,1.564871e-004
2.495476e+003,2.467530e-004
2.497405e+003,2.333595e-004
2.499333e+003,1.157858e-004
2.501261e+003,1.069036e-004
2.503190e+003,1.424335e-004
2.505118e+003,1.728615e-004
2.507047e+003,1.824744e-004
2.508975e+003,1.828390e-004
2.510904e+003,1.553602e-004
2.512833e+003,2.256683e-004
2.514761e+003,2.377355e-004
2.516689e+003,1.527416e-004
2.518618e+003,1.764083e-004
2.520546e+003,2.662805e-004
2.522475e+003,2.162203e-004
2.524403e+003,1.107812e-004
2.526332e+003,6.537838e-005
2.528260e+003,8.940484e-005
2.530189e+003,1.216190e-004
2.532117e+003,1.379258e-004
2.534046e+003,1.115435e-004
2.535974e+003,1.486316e-004
2.537903e+003,1.351748e-004
2.539831e+003,1.535371e-004
2.541760e+003,1.407762e-004
2.543688e+003,1.561557e-004
2.545617e+003,1.200281e-004
2.547545e+003,1.036556e-004
2.549474e+003,6.597488e-005
2.551402e+003,4.894173e-005
2.553331e+003,7.863419e-005
2.555259e+003,1.179732e-004
2.557188e+003,1.768061e-004
2.559116e+003,1.322912e-004
2.561045e+003,1.051139e-004
2.562973e+003,7.631440e-005
2.564902e+003,1.319266e-004
2.566830e+003,2.179773e-004
2.568759e+003,1.599675e-004
2.570687e+003,1.940100e-004
2.572616e+003,2.816975e-004
2.574544e+003,2.848805e-004
2.576473e+003,2.037559e-004
2.578401e+003,1.490293e-004
2.580330e+003,1.365668e-004
2.582258e+003,1.248007e-004
2.584187e+003,1.681215e-004
2.586115e+003,1.177412e-004
2.588044e+003,7.661265e-005
2.589972e+003,1.353736e-004
2.591901e+003,1.723975e-004
2.593829e+003,9.712673e-005
2.595758e+003,2.206783e-005
2.597686e+003,3.283707e-005
2.599615e+003,4.211541e-005
2.601543e+003,5.556934e-005
2.603472e+003,1.124052e-004
2.605400e+003,1.477035e-004
2.607329e+003,1.822755e-004
2.609257e+003,1.894355e-004
2.611186e+003,1.463777e-004
2.613114e+003,1.393510e-004
2.615043e+003,1.785961e-004
2.616971e+003,1.074338e-004
2.618900e+003,1.159183e-004
2.620828e+003,1.944409e-004
2.622757e+003,2.372714e-004
2.624685e+003,2.496042e-004
2.626614e+003,2.334258e-004
2.628542e+003,1.966619e-004
2.630471e+003,1.060087e-004
2.632399e+003,5.278573e-005
2.634328e+003,7.260275e-005
2.636256e+003,7.131031e-005
2.638185e+003,1.525096e-004
2.640113e+003,2.076675e-004
2.642042e+003,1.222818e-004
2.643970e+003,1.401796e-004
2.645899e+003,1.031254e-004
2.647827e+003,3.300276e-005
2.649756e+003,5.666290e-005
2.651684e+003,8.493085e-005
2.653613e+003,1.031254e-004
2.655541e+003,2.053471e-004
2.657470e+003,1.830047e-004
2.659398e+003,1.025951e-004
2.661327e+003,1.438255e-004
2.663255e+003,2.047835e-004
2.665184e+003,1.425992e-004
2.667112e+003,1.779663e-004
2.669041e+003,2.721820e-004
2.670969e+003,1.738560e-004
2.672898e+003,1.307003e-004
2.674826e+003,1.451514e-004
2.676755e+003,1.230773e-004
2.678683e+003,1.116761e-004
2.680612e+003,1.886399e-004
2.682540e+003,2.007061e-004
2.684469e+003,1.577467e-004
2.686397e+003,1.343462e-004
2.688326e+003,1.696463e-004
2.690254e+003,2.689992e-004
2.692183e+003,2.330279e-004
2.694111e+003,1.094887e-004
2.696040e+003,8.946283e-006
2.697968e+003,1.012031e-004
2.699897e+003,2.164523e-004
2.701825e+003,1.630169e-004
2.703754e+003,1.210224e-004
2.705682e+003,2.600475e-004
2.707611e+003,2.367741e-004
2.709539e+003,1.635141e-004
2.711468e+003,1.828390e-004
2.713396e+003,1.858886e-004
2.715325e+003,1.886731e-004
2.717253e+003,1.235413e-004
2.719182e+003,7.240391e-005
2.721110e+003,4.426933e-005
2.723039e+003,1.499243e-004
2.724967e+003,2.615063e-004
2.726896e+003,2.558701e-004
2.728824e+003,2.446312e-004
2.730753e+003,1.864190e-004
2.732681e+003,1.686519e-004
2.734610e+003,2.185408e-004
2.736538e+003,1.853251e-004
2.738467e+003,1.737897e-004
2.740395e+003,2.221543e-004
2.742324e+003,1.788612e-004
2.744252e+003,9.865124e-005
2.746181e+003,8.343953e-005
2.748109e+003,9.875066e-005
2.750038e+003,1.772702e-004
2.751966e+003,2.114135e-004
2.753895e+003,2.751328e-004
2.755823e+003,2.747681e-004
2.757752e+003,1.830379e-004
2.759680e+003,1.813142e-004
2.761609e+003,2.711210e-004
2.763537e+003,3.780582e-004
2.765466e+003,3.560386e-004
2.767394e+003,2.672088e-004
2.769323e+003,1.813805e-004
2.771251e+003,2.093582e-004
2.773180e+003,2.086289e-004
2.775108e+003,1.914244e-004
2.777037e+003,2.052808e-004
2.778965e+003,1.808170e-004
2.780894e+003,2.345529e-004
2.782822e+003,3.492738e-004
2.784750e+003,3.535184e-004
2.786679e+003,3.058354e-004
2.788608e+003,2.360779e-004
2.790536e+003,1.764746e-004
2.792465e+003,1.347108e-004
2.794393e+003,1.606967e-004
2.796322e+003,1.999437e-004
2.798250e+003,1.850599e-004
2.800178e+003,7.167484e-005
2.802107e+003,4.960449e-005
2.804036e+003,1.232761e-004
2.805964e+003,1.262922e-004
2.807893e+003,1.809164e-004
2.809821e+003,2.069714e-004
2.811750e+003,1.585422e-004
2.813678e+003,3.605133e-005
2.815606e+003,-1.600345e-005
2.817535e+003,2.100749e-005
2.819464e+003,1.132006e-004
2.821392e+003,1.727290e-004
2.823321e+003,2.016674e-004
2.825249e+003,2.867704e-004
2.827177e+003,3.522914e-004
2.829106e+003,2.594176e-004
2.831034e+003,4.890860e-005
2.832963e+003,-1.520826e-005
2.834892e+003,2.917106e-004
2.836820e+003,4.090003e-004
2.838749e+003,2.859415e-004
2.840677e+003,2.403877e-004
2.842605e+003,2.980435e-004
2.844534e+003,3.585257e-004
2.846462e+003,3.304721e-004
2.848391e+003,2.564669e-004
2.850320e+003,2.317350e-004
2.852248e+003,2.637276e-004
2.854177e+003,2.268286e-004
2.856105e+003,2.634292e-004
2.858033e+003,3.721884e-004
2.859962e+003,4.246214e-004
2.861890e+003,3.924843e-004
2.863819e+003,2.419790e-004
2.865748e+003,2.056785e-004
2.867676e+003,1.939437e-004
2.869604e+003,1.855240e-004
2.871533e+003,9.225497e-005
2.873461e+003,8.685300e-005
2.875390e+003,3.131280e-005
2.877319e+003,3.177671e-005
2.879247e+003,1.893360e-004
2.881176e+003,1.625529e-004
2.883104e+003,1.072350e-004
2.885032e+003,2.832227e-004
2.886961e+003,3.053381e-004
2.888889e+003,2.638602e-004
2.890818e+003,2.625341e-004
2.892747e+003,1.796236e-004
2.894675e+003,9.686160e-005
2.896604e+003,1.763752e-004
2.898532e+003,2.967172e-004
2.900460e+003,3.524572e-004
2.902389e+003,3.579620e-004
2.904317e+003,2.405866e-004
2.906246e+003,1.214864e-004
2.908175e+003,1.642102e-004
2.910103e+003,2.390285e-004
2.912031e+003,2.133693e-004
2.913960e+003,2.236792e-004
2.915888e+003,2.023636e-004
2.917817e+003,1.148246e-004
2.919745e+003,2.346524e-004
2.921674e+003,3.323622e-004
2.923603e+003,2.867372e-004
2.925531e+003,2.700269e-004
2.927459e+003,3.063660e-004
2.929388e+003,2.730109e-004
2.931316e+003,2.487422e-004
2.933245e+003,2.170490e-004
2.935173e+003,1.619231e-004
2.937102e+003,1.452508e-004
2.939031e+003,1.976564e-004
2.940959e+003,1.855240e-004
2.942887e+003,1.301700e-004
2.944816e+003,1.224475e-004
2.946744e+003,2.403546e-004
2.948673e+003,3.268909e-004
2.950601e+003,2.597823e-004
2.952530e+003,1.772370e-004
2.954458e+003,1.845295e-004
2.956387e+003,2.162203e-004
2.958315e+003,2.487422e-004
2.960244e+003,1.391853e-004
2.962172e+003,9.338176e-005
2.964101e+003,1.870819e-004
2.966029e+003,2.183419e-004
2.967958e+003,2.525548e-004
2.969886e+003,3.100796e-004
2.971815e+003,2.908486e-004
2.973743e+003,1.835019e-004
2.975672e+003,1.950045e-004
2.977600e+003,2.001094e-004
2.979529e+003,2.268617e-004
2.981457e+003,2.460236e-004
2.983386e+003,3.026192e-004
2.985314e+003,3.080238e-004
2.987243e+003,2.794098e-004
2.989171e+003,3.184023e-004
2.991100e+003,2.354812e-004
2.993028e+003,1.378926e-004
2.994957e+003,1.587411e-004
2.996885e+003,1.908609e-004
2.998814e+003,2.589203e-004
3.000742e+003,2.192702e-004
3.002671e+003,1.735245e-004
3.004599e+003,2.354149e-004
3.006528e+003,3.154180e-004
3.008456e+003,3.102122e-004
3.010385e+003,3.012266e-004
3.012313e+003,3.955354e-004
3.014242e+003,4.355333e-004
3.016170e+003,4.308236e-004
3.018099e+003,4.280376e-004
3.020027e+003,2.830901e-004
3.021956e+003,2.743371e-004
3.023884e+003,3.023871e-004
3.025813e+003,3.650586e-004
3.027741e+003,2.091924e-004
3.029670e+003,9.855181e-005
3.031598e+003,1.235744e-004
3.033527e+003,1.678895e-004
3.035455e+003,2.408518e-004
3.037384e+003,2.245743e-004
3.039312e+003,2.737403e-004
3.041241e+003,3.209886e-004
3.043169e+003,2.448302e-004
3.045098e+003,2.239113e-004
3.047026e+003,2.398573e-004
3.048955e+003,2.661479e-004
3.050883e+003,2.945289e-004
3.052812e+003,3.278525e-004
3.054740e+003,2.763264e-004
3.056669e+003,2.463883e-004
3.058597e+003,1.661990e-004
3.060526e+003,1.144601e-004
3.062454e+003,1.600006e-004
3.064383e+003,2.014022e-004
3.066311e+003,1.723975e-004
3.068240e+003,2.963525e-004
3.070168e+003,2.992040e-004
3.072097e+003,1.178075e-004
3.074025e+003,4.940566e-005
3.075954e+003,1.200281e-004
3.077882e+003,2.198669e-004
3.079811e+003,2.824270e-004
3.081739e+003,2.125074e-004
3.083668e+003,1.998442e-004
3.085596e+003,1.529405e-004
3.087525e+003,8.483142e-005
3.089453e+003,9.427658e-005
3.091382e+003,1.850599e-004
3.093310e+003,3.094164e-004
3.095239e+003,3.044428e-004
3.097167e+003,3.002319e-004
3.099096e+003,3.221823e-004
3.101024e+003,3.813082e-004
3.102953e+003,3.862495e-004
3.104881e+003,2.506319e-004
3.106810e+003,2.088609e-004
3.108738e+003,2.351828e-004
3.110667e+003,2.446312e-004
3.112595e+003,3.095822e-004
3.114524e+003,2.957557e-004
3.116452e+003,8.771466e-005
3.118381e+003,7.545276e-005
3.120309e+003,2.088609e-004
3.122238e+003,3.002319e-004
3.124166e+003,3.338212e-004
3.126095e+003,3.246692e-004
3.128023e+003,1.790933e-004
3.129952e+003,1.527085e-004
3.131880e+003,1.879769e-004
3.133809e+003,1.903305e-004
3.135737e+003,1.864521e-004
3.137666e+003,2.875993e-004
3.139594e+003,3.693033e-004
3.141523e+003,2.992040e-004
3.143451e+003,3.007624e-004
3.145380e+003,2.528863e-004
3.147308e+003,9.278522e-005
3.149237e+003,1.185366e-004
3.151165e+003,2.469851e-004
3.153094e+003,2.789456e-004
3.155022e+003,3.286815e-004
3.156951e+003,2.936337e-004
3.158879e+003,2.796751e-004
3.160808e+003,3.312347e-004
3.162736e+003,3.336885e-004
3.164665e+003,2.373708e-004
3.166593e+003,2.094908e-004
3.168522e+003,1.043848e-004
3.170450e+003,1.150898e-004
3.172379e+003,2.030929e-004
3.174307e+003,1.739223e-004
3.176236e+003,2.509966e-004
3.178164e+003,3.446313e-004
3.180093e+003,3.549443e-004
3.182021e+003,3.017902e-004
3.183950e+003,2.646228e-004
3.185878e+003,2.033249e-004
3.187807e+003,2.943963e-004
3.189735e+003,4.956366e-004
3.191664e+003,4.060154e-004
3.193592e+003,3.127985e-004
3.195521e+003,2.618378e-004
3.197449e+003,2.421779e-004
3.199378e+003,2.202315e-004
3.201306e+003,1.805518e-004
3.203235e+003,2.372051e-004
3.205163e+003,2.023304e-004
3.207092e+003,2.177452e-004
3.209020e+003,3.062665e-004
3.210948e+003,4.005101e-004
3.212877e+003,4.380872e-004
3.214806e+003,3.035144e-004
3.216734e+003,2.527869e-004
3.218663e+003,3.639974e-004
3.220591e+003,3.615434e-004
3.222520e+003,3.878745e-004
3.224448e+003,2.874667e-004
3.226376e+003,1.632821e-004
3.228305e+003,1.800546e-004
3.230234e+003,2.690323e-004
3.232162e+003,2.039879e-004
3.234091e+003,2.698280e-004
3.236019e+003,2.717178e-004
3.237948e+003,1.458474e-004
3.239876e+003,1.915570e-004
3.241804e+003,3.249677e-004
3.243733e+003,2.399567e-004
3.245662e+003,2.336910e-004
3.247590e+003,3.995815e-004
3.249519e+003,3.494396e-004
3.251447e+003,2.809681e-004
3.253375e+003,1.945404e-004
3.255304e+003,1.700109e-004
3.257232e+003,3.346170e-004
3.259161e+003,4.446213e-004
3.261090e+003,3.969283e-004
3.263018e+003,3.327269e-004
3.264947e+003,1.991481e-004
3.266875e+003,1.036225e-004
3.268803e+003,2.277900e-004
3.270732e+003,2.428410e-004
3.272660e+003,1.196966e-004
3.274589e+003,1.843306e-004
3.276518e+003,2.489742e-004
3.278446e+003,3.329922e-004
3.280375e+003,3.530873e-004
3.282303e+003,3.233429e-004
3.284231e+003,3.557402e-004
3.286160e+003,2.718173e-004
3.288088e+003,1.493939e-004
3.290017e+003,8.605763e-005
3.291946e+003,2.439350e-004
3.293874e+003,4.482697e-004
3.295802e+003,4.488004e-004
3.297731e+003,3.541816e-004
3.299659e+003,3.513297e-004
3.301588e+003,4.063802e-004
3.303516e+003,2.822612e-004
3.305445e+003,3.436365e-004
3.307374e+003,4.792168e-004
3.309302e+003,5.032662e-004
3.311230e+003,4.385847e-004
3.313159e+003,3.549443e-004
3.315087e+003,2.369067e-004
3.317016e+003,3.027518e-004
3.318944e+003,3.782572e-004
3.320873e+003,4.280708e-004
3.322802e+003,4.362962e-004
3.324730e+003,3.903618e-004
3.326658e+003,3.418459e-004
3.328587e+003,3.285488e-004
3.330515e+003,2.803713e-004
3.332444e+003,1.587079e-004
3.334372e+003,1.384229e-004
3.336301e+003,3.042107e-004
3.338229e+003,4.387174e-004
3.340158e+003,3.974590e-004
3.342086e+003,3.562708e-004
3.344015e+003,3.504012e-004
3.345943e+003,3.472841e-004
3.347872e+003,3.069296e-004
3.349800e+003,2.699606e-004
3.351729e+003,2.964188e-004
3.353657e+003,3.648596e-004
3.355586e+003,3.960992e-004
3.357514e+003,3.896985e-004
3.359443e+003,2.852452e-004
3.361371e+003,1.745852e-004
3.363300e+003,3.504676e-004
3.365229e+003,3.336222e-004
3.367157e+003,7.068066e-005
3.369085e+003,-6.351331e-005
3.371014e+003,-2.465103e-005
3.372942e+003,1.912255e-004
3.374871e+003,2.165849e-004
3.376799e+003,2.784815e-004
3.378728e+003,3.472510e-004
3.380656e+003,3.202591e-004
3.382585e+003,2.935674e-004
3.384513e+003,4.138756e-004
3.386442e+003,4.049542e-004
3.388370e+003,3.057028e-004
3.390299e+003,3.523577e-004
3.392227e+003,4.111560e-004
3.394156e+003,2.326633e-004
3.396084e+003,2.263645e-004
3.398013e+003,2.318013e-004
3.399941e+003,2.165518e-004
3.401870e+003,1.710716e-004
3.403798e+003,2.466867e-004
3.405727e+003,4.714881e-004
3.407655e+003,4.674414e-004
3.409584e+003,3.179049e-004
3.411512e+003,1.696131e-004
3.413441e+003,8.698556e-005
3.415369e+003,3.166449e-004
3.417298e+003,4.086355e-004
3.419226e+003,3.276535e-004
3.421155e+003,3.776603e-004
3.423083e+003,3.718236e-004
3.425012e+003,4.243893e-004
3.426940e+003,4.755681e-004
3.428869e+003,4.324156e-004
3.430797e+003,3.551433e-004
3.432726e+003,2.939321e-004
3.434654e+003,3.851220e-004
3.436583e+003,3.152191e-004
3.438511e+003,3.268577e-004
3.440440e+003,5.238004e-004
3.442368e+003,4.718862e-004
3.444297e+003,2.814323e-004
3.446225e+003,3.491743e-004
3.448154e+003,5.037638e-004
3.450082e+003,5.570753e-004
3.452011e+003,5.556155e-004
3.453939e+003,5.053561e-004
3.455868e+003,4.411718e-004
3.457796e+003,5.136161e-004
3.459725e+003,4.010739e-004
3.461653e+003,3.847572e-004
3.463582e+003,4.624992e-004
3.465510e+003,4.443891e-004
3.467439e+003,3.717242e-004
3.469367e+003,3.913236e-004
3.471296e+003,3.163796e-004
3.473224e+003,3.007955e-004
3.475153e+003,3.453940e-004
3.477081e+003,3.742777e-004
3.479010e+003,3.207565e-004
3.480938e+003,2.707895e-004
3.482867e+003,2.793103e-004
3.484795e+003,4.187178e-004
3.486724e+003,4.370590e-004
3.488652e+003,3.334896e-004
3.490581e+003,3.650254e-004
3.492509e+003,3.685074e-004
3.494438e+003,3.119365e-004
3.496366e+003,4.652854e-004
3.498295e+003,5.051239e-004
3.500223e+003,4.838608e-004
3.502152e+003,4.549366e-004
3.504080e+003,4.122173e-004
3.506009e+003,3.825352e-004
3.507937e+003,4.262798e-004
3.509866e+003,4.990202e-004
3.511794e+003,3.679105e-004
3.513723e+003,3.322295e-004
3.515651e+003,3.902292e-004
3.517580e+003,3.369050e-004
3.519508e+003,3.571661e-004
3.521437e+003,2.979441e-004
3.523365e+003,3.103117e-004
3.525294e+003,2.204967e-004
3.527222e+003,1.326890e-004
3.529151e+003,2.742376e-004
3.531079e+003,3.405194e-004
3.533008e+003,4.343393e-004
3.534936e+003,5.161041e-004
3.536865e+003,4.961342e-004
3.538793e+003,2.735082e-004
3.540722e+003,1.784303e-004
3.542650e+003,2.867704e-004
3.544579e+003,4.069772e-004
3.546507e+003,5.448996e-004
3.548436e+003,4.889359e-004
3.550364e+003,5.688531e-004
3.552293e+003,6.097629e-004
3.554221e+003,6.279794e-004
3.556150e+003,5.950309e-004
3.558078e+003,5.676587e-004
3.560007e+003,5.662984e-004
3.561935e+003,4.453509e-004
3.563864e+003,5.279140e-004
3.565792e+003,6.893704e-004
3.567721e+003,5.674929e-004
3.569649e+003,3.707293e-004
3.571578e+003,3.768975e-004
3.573506e+003,4.601773e-004
3.575435e+003,4.551688e-004
3.577363e+003,4.521173e-004
3.579292e+003,4.489331e-004
3.581220e+003,4.449861e-004
3.583149e+003,5.183599e-004
3.585077e+003,6.172617e-004
3.587006e+003,7.412442e-004
3.588934e+003,5.895232e-004
3.590863e+003,3.804791e-004
3.592791e+003,6.166645e-004
3.594720e+003,7.937882e-004
3.596648e+003,6.329567e-004
3.598577e+003,4.626650e-004
3.600505e+003,5.469566e-004
3.602434e+003,4.808754e-004
3.604362e+003,4.314869e-004
3.606291e+003,4.437257e-004
3.608219e+003,4.901301e-004
3.610148e+003,5.055220e-004
3.612076e+003,6.958750e-004
3.614005e+003,6.049517e-004
3.615933e+003,5.150094e-004
3.617862e+003,6.497805e-004
3.619790e+003,5.534259e-004
3.621719e+003,4.189168e-004
3.623647e+003,4.447208e-004
3.625576e+003,5.927084e-004
3.627504e+003,1.021430e-003
3.629433e+003,1.186326e-003
3.631361e+003,7.666691e-004
3.633290e+003,5.595967e-004
3.635218e+003,4.847895e-004
3.637146e+003,5.168008e-004
3.639075e+003,5.254259e-004
3.641004e+003,3.762343e-004
3.642932e+003,3.309363e-004
3.644861e+003,5.328902e-004
3.646789e+003,8.816302e-004
3.648718e+003,1.069458e-003
3.650646e+003,7.976388e-004
3.652574e+003,3.609133e-004
3.654503e+003,6.010364e-004
3.656432e+003,8.084605e-004
3.658360e+003,4.877418e-004
3.660289e+003,3.504676e-004
3.662217e+003,4.076405e-004
3.664146e+003,3.852546e-004
3.666074e+003,3.136938e-004
3.668002e+003,4.386179e-004
3.669931e+003,5.330561e-004
3.671860e+003,3.947727e-004
3.673788e+003,8.625066e-004
3.675717e+003,1.116560e-003
3.677645e+003,5.630139e-004
3.679573e+003,2.211266e-004
3.681502e+003,3.202591e-004
3.683430e+003,5.000485e-004
3.685359e+003,5.665639e-004
3.687288e+003,9.030456e-004
3.689216e+003,9.890167e-004
3.691145e+003,7.151240e-004
3.693073e+003,5.605920e-004
3.695001e+003,5.334542e-004
3.696930e+003,6.157354e-004
3.698858e+003,6.899014e-004
3.700787e+003,8.336568e-004
3.702716e+003,6.692929e-004
3.704644e+003,5.115262e-004
3.706573e+003,7.245165e-004
3.708501e+003,8.855147e-004
3.710429e+003,1.090384e-003
3.712358e+003,1.007316e-003
3.714286e+003,4.338086e-004
3.716215e+003,3.136607e-004
3.718144e+003,6.242630e-004
3.720072e+003,7.564126e-004
3.722000e+003,8.085601e-004
3.723929e+003,6.565500e-004
3.725857e+003,5.699148e-004
3.727786e+003,4.130133e-004
3.729714e+003,4.995509e-004
3.731643e+003,7.399830e-004
3.733572e+003,8.336568e-004
3.735500e+003,9.493330e-004
3.737428e+003,4.913906e-004
3.739357e+003,1.403453e-004
3.741285e+003,4.872774e-004
3.743214e+003,1.196394e-003
3.745142e+003,9.918063e-004
3.747071e+003,6.823349e-004
3.749000e+003,1.022759e-003
3.750928e+003,1.074972e-003
3.752856e+003,8.290424e-004
3.754785e+003,6.161336e-004
3.756713e+003,5.679241e-004
3.758642e+003,4.450524e-004
3.760570e+003,5.269188e-004
3.762499e+003,4.387837e-004
3.764427e+003,3.448303e-004
3.766356e+003,3.271562e-004
3.768284e+003,3.627704e-004
3.770213e+003,4.866139e-004
3.772141e+003,3.330917e-004
3.774070e+003,1.540343e-004
3.775998e+003,3.324616e-004
3.777927e+003,4.516198e-004
3.779855e+003,4.604095e-004
3.781784e+003,2.665789e-004
3.783712e+003,2.786472e-004
3.785641e+003,3.855531e-004
3.787569e+003,4.003443e-004
3.789498e+003,1.974575e-004
3.791426e+003,8.536167e-005
3.793355e+003,2.030266e-004
3.795283e+003,4.183198e-004
3.797212e+003,4.467772e-004
3.799140e+003,5.188244e-004
3.801069e+003,6.026291e-004
3.802997e+003,2.855768e-004
3.804926e+003,5.267198e-004
3.806854e+003,7.217286e-004
3.808783e+003,3.071286e-004
3.810711e+003,2.206956e-004
3.812640e+003,2.282541e-004
3.814568e+003,2.269944e-004
3.816497e+003,4.733125e-004
3.818425e+003,7.821703e-004
3.820354e+003,1.272055e-003
3.822282e+003,9.810465e-004
3.824211e+003,3.325611e-004
3.826139e+003,2.439350e-004
3.828068e+003,2.584230e-004
3.829996e+003,4.501935e-004
3.831925e+003,5.147440e-004
3.833853e+003,4.913243e-004
3.835782e+003,5.522315e-004
3.837710e+003,8.014230e-004
3.839639e+003,7.101789e-004
3.841567e+003,4.708579e-004
3.843496e+003,4.897652e-004
3.845424e+003,3.072612e-004
3.847353e+003,1.930487e-004
3.849281e+003,5.662321e-004
3.851210e+003,1.191676e-003
3.853138e+003,1.501843e-003
3.855067e+003,1.020202e-003
3.856995e+003,4.599120e-004
3.858924e+003,3.161475e-004
3.860852e+003,5.842477e-004
3.862781e+003,9.116121e-004
3.864709e+003,9.493330e-004
3.866638e+003,6.555213e-004
3.868566e+003,6.011028e-004
3.870495e+003,4.570594e-004
3.872423e+003,5.611560e-004
3.874352e+003,8.183862e-004
3.876280e+003,7.470195e-004
3.878209e+003,7.376929e-004
3.880137e+003,6.265857e-004
3.882066e+003,3.567682e-004
3.883994e+003,3.909588e-004
3.885923e+003,6.141759e-004
3.887851e+003,5.691517e-004
3.889780e+003,7.769256e-004
3.891708e+003,7.775231e-004
3.893637e+003,5.752232e-004
3.895565e+003,5.037638e-004
3.897494e+003,6.115214e-004
3.899422e+003,7.476169e-004
3.901351e+003,6.857199e-004
3.903279e+003,7.708845e-004
3.905208e+003,7.082540e-004
3.907136e+003,3.328264e-004
3.909065e+003,3.154844e-004
3.910993e+003,4.340076e-004
3.912922e+003,4.851544e-004
3.914850e+003,5.539235e-004
3.916779e+003,6.792486e-004
3.918707e+003,6.977335e-004
3.920636e+003,4.823681e-004
3.922564e+003,4.285351e-004
3.924493e+003,4.999822e-004
3.926421e+003,2.744697e-004
3.928350e+003,6.322435e-005
3.930278e+003,1.265573e-004
3.932207e+003,1.998442e-004
3.934135e+003,1.033794e-005
3.936064e+003,2.982166e-005
3.937992e+003,1.763420e-004
3.939921e+003,2.924401e-004
3.941849e+003,3.747751e-004
3.943778e+003,2.012365e-004
3.945706e+003,3.214197e-004
3.947635e+003,5.841150e-004
3.949563e+003,4.976933e-004
3.951492e+003,3.645943e-004
3.953420e+003,2.047172e-004
3.955349e+003,-2.236490e-005
3.957277e+003,9.662961e-005
3.959206e+003,1.659670e-004
3.961134e+003,3.035184e-005
3.963063e+003,1.471401e-004
3.964991e+003,3.011603e-004
3.966920e+003,4.459480e-004
3.968848e+003,6.365404e-004
3.970777e+003,6.812065e-004
3.972705e+003,7.204342e-004
3.974634e+003,5.877647e-004
3.976562e+003,3.111075e-004
3.978491e+003,3.990509e-004
3.980419e+003,4.247209e-004
3.982348e+003,3.630025e-004
3.984276e+003,3.475494e-004
3.986205e+003,3.075928e-004
3.988133e+003,4.572584e-004
3.990062e+003,5.854090e-004
3.991990e+003,5.079767e-004
3.993919e+003,4.096968e-004
3.995847e+003,2.049824e-004
3.997776e+003,1.862532e-004
3.999704e+003,2.930037e-004
4.001633e+003,0.000000e+000
