3.991989e+002,-2.802642e-002
4.011274e+002,-3.254155e-002
4.030559e+002,-3.432832e-002
4.049844e+002,-3.329074e-002
4.069129e+002,-2.651835e-002
4.088414e+002,-1.495299e-002
4.107699e+002,-1.641795e-002
4.126984e+002,-2.120432e-002
4.146269e+002,-1.908040e-002
4.165554e+002,-1.416448e-002
4.184839e+002,-1.312446e-002
4.204124e+002,-6.381289e-003
4.223409e+002,-3.947061e-003
4.242694e+002,-7.449157e-003
4.261979e+002,-1.362680e-002
4.281264e+002,-5.140685e-003
4.300549e+002,4.748715e-004
4.319834e+002,-2.496452e-003
4.339119e+002,-4.322686e-003
4.358404e+002,-2.006791e-003
4.377689e+002,-3.773984e-004
4.396974e+002,-6.380016e-003
4.416259e+002,-1.430044e-002
4.435544e+002,-1.126179e-002
4.454829e+002,-8.136047e-003
4.474114e+002,-5.084983e-003
4.493399e+002,-2.637726e-003
4.512684e+002,-3.252060e-003
4.531969e+002,-4.945321e-003
4.551254e+002,-5.984565e-003
4.570539e+002,-6.690153e-003
4.589824e+002,-7.202984e-003
4.609109e+002,-8.080957e-003
4.628394e+002,-7.332082e-003
4.647679e+002,-7.226284e-003
4.666964e+002,-7.772039e-003
4.686249e+002,-7.468699e-003
4.705533e+002,-5.048958e-003
4.724819e+002,-5.358117e-003
4.744103e+002,-6.212877e-003
4.763389e+002,-7.521457e-003
4.782673e+002,-9.368396e-003
4.801959e+002,-1.081017e-002
4.821243e+002,-9.371931e-003
4.840529e+002,-9.319753e-003
4.859813e+002,-9.969953e-003
4.879099e+002,-9.875776e-003
4.898383e+002,-9.625272e-003
4.917668e+002,-8.951608e-003
4.936953e+002,-8.522787e-003
4.956238e+002,-8.020882e-003
4.975523e+002,-8.061084e-003
4.994808e+002,-1.019188e-002
5.014093e+002,-9.969921e-003
5.033378e+002,-8.619922e-003
5.052663e+002,-7.046528e-003
5.071948e+002,-6.535210e-003
5.091233e+002,-8.233756e-003
5.110518e+002,-9.497113e-003
5.129803e+002,-9.177327e-003
5.149088e+002,-8.873604e-003
5.168373e+002,-8.915058e-003
5.187658e+002,-8.351238e-003
5.206943e+002,-8.473595e-003
5.226228e+002,-8.952874e-003
5.245513e+002,-8.409999e-003
5.264798e+002,-8.871526e-003
5.284083e+002,-8.594941e-003
5.303368e+002,-7.773861e-003
5.322653e+002,-8.189701e-003
5.341938e+002,-7.217290e-003
5.361223e+002,-7.244891e-003
5.380508e+002,-6.929965e-003
5.399792e+002,-6.774618e-003
5.419078e+002,-6.459252e-003
5.438363e+002,-5.955053e-003
5.457648e+002,-5.935704e-003
5.476932e+002,-6.146467e-003
5.496218e+002,-6.538931e-003
5.515503e+002,-6.395786e-003
5.534788e+002,-6.791646e-003
5.554072e+002,-6.874623e-003
5.573358e+002,-7.272067e-003
5.592643e+002,-6.965866e-003
5.611927e+002,-6.259452e-003
5.631212e+002,-5.025475e-003
5.650497e+002,-4.614724e-003
5.669783e+002,-5.585875e-003
5.689067e+002,-5.541942e-003
5.708352e+002,-5.331933e-003
5.727637e+002,-5.884387e-003
5.746923e+002,-6.864056e-003
5.766207e+002,-8.850424e-003
5.785492e+002,-9.344238e-003
5.804777e+002,-8.920771e-003
5.824063e+002,-8.822373e-003
5.843347e+002,-8.862955e-003
5.862632e+002,-8.340609e-003
5.881917e+002,-7.796187e-003
5.901202e+002,-7.396584e-003
5.920487e+002,-7.313805e-003
5.939772e+002,-6.906550e-003
5.959057e+002,-6.030315e-003
5.978342e+002,-6.448087e-003
5.997627e+002,-6.028779e-003
6.016912e+002,-5.888473e-003
6.036197e+002,-6.314709e-003
6.055482e+002,-5.544690e-003
6.074767e+002,-4.226981e-003
6.094052e+002,-3.456108e-003
6.113337e+002,-4.771697e-003
6.132622e+002,-5.768460e-003
6.151907e+002,-4.836975e-003
6.171192e+002,-5.695441e-003
6.190477e+002,-5.892396e-003
6.209762e+002,-4.732173e-003
6.229047e+002,-5.071523e-003
6.248332e+002,-6.848792e-003
6.267617e+002,-8.103592e-003
6.286902e+002,-7.979277e-003
6.306187e+002,-7.142624e-003
6.325472e+002,-6.415277e-003
6.344756e+002,-5.701328e-003
6.364042e+002,-5.287353e-003
6.383326e+002,-4.970545e-003
6.402612e+002,-4.607216e-003
6.421896e+002,-4.430899e-003
6.441182e+002,-4.595611e-003
6.460466e+002,-4.964747e-003
6.479752e+002,-4.970611e-003
6.499036e+002,-5.018695e-003
6.518322e+002,-4.675009e-003
6.537606e+002,-4.089144e-003
6.556891e+002,-4.282760e-003
6.576177e+002,-4.971462e-003
6.595461e+002,-5.200700e-003
6.614746e+002,-5.028161e-003
6.634031e+002,-5.049319e-003
6.653317e+002,-4.076933e-003
6.672601e+002,-2.415007e-003
6.691886e+002,-2.819283e-003
6.711171e+002,-3.886017e-003
6.730457e+002,-4.039971e-003
6.749741e+002,-4.344239e-003
6.769026e+002,-4.114811e-003
6.788311e+002,-3.940034e-003
6.807596e+002,-4.231443e-003
6.826881e+002,-4.442083e-003
6.846166e+002,-4.678451e-003
6.865451e+002,-4.648851e-003
6.884736e+002,-4.558529e-003
6.904021e+002,-4.979291e-003
6.923306e+002,-5.020333e-003
6.942591e+002,-4.980176e-003
6.961876e+002,-5.182792e-003
6.981161e+002,-5.229412e-003
7.000446e+002,-5.615575e-003
7.019731e+002,-5.760710e-003
7.039016e+002,-5.596669e-003
7.058301e+002,-5.941588e-003
7.077585e+002,-6.503419e-003
7.096871e+002,-6.574473e-003
7.116156e+002,-6.298348e-003
7.135441e+002,-6.592162e-003
7.154725e+002,-6.954161e-003
7.174011e+002,-7.333613e-003
7.193296e+002,-7.273077e-003
7.212581e+002,-7.432708e-003
7.231865e+002,-7.761103e-003
7.251151e+002,-7.428799e-003
7.270436e+002,-7.312599e-003
7.289720e+002,-7.157911e-003
7.309005e+002,-7.109313e-003
7.328290e+002,-7.386193e-003
7.347576e+002,-6.849705e-003
7.366860e+002,-6.050738e-003
7.386145e+002,-5.289743e-003
7.405430e+002,-5.180761e-003
7.424716e+002,-5.606776e-003
7.444000e+002,-5.476706e-003
7.463285e+002,-4.688088e-003
7.482570e+002,-4.786772e-003
7.501855e+002,-4.543053e-003
7.521140e+002,-3.511394e-003
7.540425e+002,-2.920960e-003
7.559710e+002,-2.663414e-003
7.578995e+002,-2.587039e-003
7.598280e+002,-2.459586e-003
7.617565e+002,-2.492071e-003
7.636850e+002,-2.506698e-003
7.656135e+002,-2.090028e-003
7.675420e+002,-1.454069e-003
7.694705e+002,-9.038831e-004
7.713990e+002,-8.564320e-004
7.733275e+002,-9.714630e-004
7.752560e+002,-1.142184e-003
7.771844e+002,-1.191190e-003
7.791130e+002,-1.280795e-003
7.810415e+002,-1.605785e-003
7.829700e+002,-1.730584e-003
7.848984e+002,-1.418039e-003
7.868270e+002,-1.458131e-003
7.887555e+002,-1.889593e-003
7.906840e+002,-2.387723e-003
7.926124e+002,-2.693545e-003
7.945410e+002,-2.655774e-003
7.964695e+002,-2.742837e-003
7.983979e+002,-3.233149e-003
8.003264e+002,-3.547382e-003
8.022549e+002,-3.633446e-003
8.041835e+002,-3.533349e-003
8.061119e+002,-3.264655e-003
8.080404e+002,-2.769539e-003
8.099689e+002,-2.763942e-003
8.118975e+002,-3.015901e-003
8.138259e+002,-2.907499e-003
8.157545e+002,-2.697365e-003
8.176830e+002,-3.138552e-003
8.196115e+002,-3.937210e-003
8.215399e+002,-4.468418e-003
8.234684e+002,-4.498064e-003
8.253970e+002,-4.838777e-003
8.273254e+002,-5.220049e-003
8.292539e+002,-5.106760e-003
8.311824e+002,-5.388094e-003
8.331110e+002,-5.858824e-003
8.350394e+002,-5.716338e-003
8.369679e+002,-5.008214e-003
8.388964e+002,-5.028521e-003
8.408250e+002,-5.300806e-003
8.427534e+002,-5.271445e-003
8.446819e+002,-5.151424e-003
8.466104e+002,-5.400268e-003
8.485389e+002,-5.355367e-003
8.504674e+002,-5.181940e-003
8.523959e+002,-5.072735e-003
8.543244e+002,-5.131025e-003
8.562529e+002,-5.079973e-003
8.581814e+002,-5.000222e-003
8.601099e+002,-4.727420e-003
8.620384e+002,-4.630034e-003
8.639669e+002,-4.921047e-003
8.658954e+002,-4.789329e-003
8.678239e+002,-4.248998e-003
8.697524e+002,-4.311794e-003
8.716809e+002,-4.457399e-003
8.736094e+002,-4.606495e-003
8.755378e+002,-4.699036e-003
8.774664e+002,-4.396362e-003
8.793949e+002,-4.008817e-003
8.813234e+002,-3.833833e-003
8.832518e+002,-3.810678e-003
8.851804e+002,-4.122130e-003
8.871089e+002,-4.391016e-003
8.890374e+002,-4.198859e-003
8.909658e+002,-4.140641e-003
8.928943e+002,-3.993124e-003
8.948229e+002,-3.687099e-003
8.967513e+002,-3.560889e-003
8.986798e+002,-3.990727e-003
9.006083e+002,-4.488324e-003
9.025369e+002,-4.357656e-003
9.044653e+002,-4.208080e-003
9.063938e+002,-4.513049e-003
9.083223e+002,-4.565447e-003
9.102509e+002,-4.728240e-003
9.121793e+002,-5.176669e-003
9.141078e+002,-5.491592e-003
9.160364e+002,-5.315797e-003
9.179648e+002,-5.361717e-003
9.198933e+002,-5.713656e-003
9.218218e+002,-6.148264e-003
9.237504e+002,-6.458501e-003
9.256788e+002,-6.967497e-003
9.276073e+002,-7.221820e-003
9.295358e+002,-6.880004e-003
9.314644e+002,-7.000722e-003
9.333928e+002,-7.244630e-003
9.353213e+002,-7.271904e-003
9.372498e+002,-7.168894e-003
9.391783e+002,-7.299925e-003
9.411068e+002,-7.321396e-003
9.430353e+002,-7.081866e-003
9.449637e+002,-7.097513e-003
9.468923e+002,-7.285100e-003
9.488208e+002,-7.253494e-003
9.507493e+002,-6.914410e-003
9.526777e+002,-6.628875e-003
9.546063e+002,-6.555544e-003
9.565348e+002,-6.366661e-003
9.584633e+002,-6.244722e-003
9.603917e+002,-6.211636e-003
9.623203e+002,-6.240574e-003
9.642488e+002,-6.035936e-003
9.661772e+002,-5.694624e-003
9.681057e+002,-5.418986e-003
9.700343e+002,-5.210162e-003
9.719628e+002,-5.068085e-003
9.738912e+002,-5.018957e-003
9.758197e+002,-5.010834e-003
9.777483e+002,-5.137214e-003
9.796768e+002,-5.050694e-003
9.816052e+002,-4.777072e-003
9.835337e+002,-4.574431e-003
9.854623e+002,-4.511803e-003
9.873907e+002,-4.473895e-003
9.893192e+002,-4.279085e-003
9.912477e+002,-4.206374e-003
9.931763e+002,-4.111266e-003
9.951047e+002,-4.029565e-003
9.970332e+002,-4.080347e-003
9.989617e+002,-4.067053e-003
1.000890e+003,-3.772248e-003
1.002819e+003,-3.451078e-003
1.004747e+003,-3.409954e-003
1.006676e+003,-3.274225e-003
1.008604e+003,-3.161118e-003
1.010533e+003,-3.317664e-003
1.012461e+003,-3.137204e-003
1.014390e+003,-2.708923e-003
1.016318e+003,-2.520896e-003
1.018247e+003,-2.346926e-003
1.020175e+003,-2.318616e-003
1.022104e+003,-2.162600e-003
1.024032e+003,-1.796386e-003
1.025961e+003,-1.459683e-003
1.027889e+003,-1.247459e-003
1.029818e+003,-1.201731e-003
1.031746e+003,-1.154643e-003
1.033675e+003,-1.171529e-003
1.035603e+003,-7.801357e-004
1.037532e+003,-4.184138e-004
1.039460e+003,-3.679964e-004
1.041389e+003,-2.119068e-004
1.043317e+003,-1.648106e-004
1.045246e+003,-3.067460e-004
1.047174e+003,-1.648768e-004
1.049103e+003,-7.249123e-005
1.051031e+003,-6.288385e-005
1.052960e+003,4.738426e-005
1.054888e+003,1.103504e-004
1.056817e+003,1.080183e-005
1.058745e+003,5.063176e-005
1.060674e+003,4.788133e-005
1.062602e+003,9.815412e-005
1.064531e+003,3.051060e-004
1.066459e+003,3.013592e-004
1.068388e+003,6.902369e-005
1.070316e+003,1.740548e-004
1.072245e+003,5.294401e-004
1.074173e+003,6.952776e-004
1.076102e+003,7.289307e-004
1.078030e+003,6.522029e-004
1.079959e+003,6.595034e-004
1.081887e+003,9.407990e-004
1.083816e+003,1.258064e-003
1.085744e+003,1.485917e-003
1.087673e+003,1.697955e-003
1.089601e+003,1.764821e-003
1.091530e+003,2.019636e-003
1.093458e+003,2.484425e-003
1.095387e+003,2.641144e-003
1.097315e+003,2.925694e-003
1.099244e+003,3.039126e-003
1.101172e+003,3.197781e-003
1.103101e+003,3.256231e-003
1.105029e+003,3.064186e-003
1.106958e+003,3.004793e-003
1.108886e+003,3.160298e-003
1.110815e+003,3.470973e-003
1.112743e+003,3.649332e-003
1.114672e+003,3.559492e-003
1.116600e+003,3.668812e-003
1.118529e+003,3.627480e-003
1.120457e+003,3.480659e-003
1.122386e+003,3.537611e-003
1.124314e+003,3.557888e-003
1.126243e+003,3.148616e-003
1.128171e+003,2.921024e-003
1.130100e+003,2.910383e-003
1.132028e+003,2.613076e-003
1.133957e+003,2.359744e-003
1.135885e+003,2.105862e-003
1.137814e+003,1.731919e-003
1.139742e+003,1.350288e-003
1.141671e+003,1.078825e-003
1.143599e+003,7.300592e-004
1.145528e+003,2.282209e-004
1.147456e+003,-2.898261e-004
1.149385e+003,-6.177091e-004
1.151313e+003,-8.554069e-004
1.153242e+003,-1.171562e-003
1.155170e+003,-1.388942e-003
1.157099e+003,-1.624469e-003
1.159027e+003,-1.986079e-003
1.160956e+003,-2.231336e-003
1.162884e+003,-2.451448e-003
1.164813e+003,-2.416259e-003
1.166741e+003,-2.351177e-003
1.168670e+003,-2.305268e-003
1.170598e+003,-2.349925e-003
1.172526e+003,-2.565366e-003
1.174455e+003,-2.584470e-003
1.176384e+003,-2.477311e-003
1.178312e+003,-2.538454e-003
1.180240e+003,-2.539212e-003
1.182169e+003,-2.573699e-003
1.184098e+003,-2.551432e-003
1.186026e+003,-2.504688e-003
1.187954e+003,-2.625541e-003
1.189883e+003,-2.857962e-003
1.191812e+003,-2.944623e-003
1.193740e+003,-2.916846e-003
1.195668e+003,-2.827678e-003
1.197597e+003,-2.731215e-003
1.199526e+003,-2.657387e-003
1.201454e+003,-2.720349e-003
1.203382e+003,-2.624355e-003
1.205311e+003,-2.462024e-003
1.207240e+003,-2.459290e-003
1.209168e+003,-2.304972e-003
1.211096e+003,-2.110637e-003
1.213025e+003,-1.995940e-003
1.214953e+003,-1.798663e-003
1.216882e+003,-1.717449e-003
1.218810e+003,-1.636121e-003
1.220739e+003,-1.591920e-003
1.222667e+003,-1.449380e-003
1.224596e+003,-1.247294e-003
1.226524e+003,-1.237713e-003
1.228453e+003,-1.099783e-003
1.230381e+003,-8.343746e-004
1.232310e+003,-7.602243e-004
1.234238e+003,-7.219205e-004
1.236167e+003,-6.363697e-004
1.238095e+003,-7.033628e-004
1.240024e+003,-8.413524e-004
1.241952e+003,-8.851678e-004
1.243881e+003,-1.023298e-003
1.245809e+003,-1.113895e-003
1.247738e+003,-1.187126e-003
1.249666e+003,-1.298667e-003
1.251595e+003,-1.243660e-003
1.253523e+003,-1.147670e-003
1.255452e+003,-1.296520e-003
1.257380e+003,-1.336457e-003
1.259309e+003,-1.202821e-003
1.261237e+003,-1.098494e-003
1.263166e+003,-9.355914e-004
1.265094e+003,-7.214244e-004
1.267023e+003,-4.954357e-004
1.268951e+003,-2.314127e-004
1.270880e+003,1.040865e-004
1.272808e+003,4.156334e-004
1.274737e+003,7.076898e-004
1.276665e+003,1.112375e-003
1.278594e+003,1.454366e-003
1.280522e+003,1.755805e-003
1.282451e+003,2.099902e-003
1.284379e+003,2.419182e-003
1.286308e+003,2.959054e-003
1.288236e+003,3.283239e-003
1.290165e+003,3.582443e-003
1.292093e+003,3.978581e-003
1.294022e+003,4.198933e-003
1.295950e+003,4.519693e-003
1.297879e+003,4.866222e-003
1.299807e+003,5.112806e-003
1.301736e+003,5.083303e-003
1.303664e+003,5.144188e-003
1.305593e+003,5.166787e-003
1.307521e+003,4.972554e-003
1.309450e+003,4.790770e-003
1.311378e+003,4.653837e-003
1.313307e+003,4.487988e-003
1.315235e+003,4.358781e-003
1.317164e+003,4.097172e-003
1.319092e+003,3.491013e-003
1.321021e+003,2.904012e-003
1.322949e+003,2.552012e-003
1.324878e+003,2.272869e-003
1.326806e+003,2.125373e-003
1.328735e+003,2.073400e-003
1.330663e+003,1.907768e-003
1.332592e+003,1.742731e-003
1.334520e+003,1.721041e-003
1.336449e+003,1.740402e-003
1.338377e+003,1.688309e-003
1.340306e+003,1.623417e-003
1.342234e+003,1.642774e-003
1.344163e+003,1.633794e-003
1.346091e+003,1.584773e-003
1.348020e+003,1.504170e-003
1.349948e+003,1.328020e-003
1.351877e+003,1.190413e-003
1.353805e+003,1.167754e-003
1.355734e+003,1.066734e-003
1.357662e+003,8.296399e-004
1.359591e+003,7.838631e-004
1.361519e+003,8.646978e-004
1.363448e+003,7.718139e-004
1.365376e+003,4.895330e-004
1.367305e+003,3.515287e-004
1.369233e+003,3.270567e-004
1.371162e+003,1.964630e-004
1.373090e+003,2.438687e-004
1.375019e+003,3.611787e-004
1.376947e+003,2.623683e-004
1.378876e+003,2.402883e-004
1.380804e+003,3.311021e-004
1.382733e+003,3.806781e-004
1.384661e+003,3.012266e-004
1.386590e+003,2.818633e-004
1.388518e+003,-4.529187e-005
1.390447e+003,-3.987838e-004
1.392375e+003,-4.432397e-004
1.394304e+003,-3.383655e-004
1.396232e+003,-5.001353e-004
1.398161e+003,-5.932241e-004
1.400089e+003,-6.748796e-004
1.402018e+003,-7.934645e-004
1.403946e+003,-7.484821e-004
1.405875e+003,-9.431296e-004
1.407803e+003,-1.092214e-003
1.409732e+003,-1.164656e-003
1.411660e+003,-1.260939e-003
1.413589e+003,-1.275443e-003
1.415517e+003,-1.055857e-003
1.417446e+003,-4.254976e-004
1.419374e+003,2.727125e-004
1.421303e+003,5.920116e-004
1.423231e+003,1.098190e-003
1.425160e+003,1.848001e-003
1.427088e+003,2.391228e-003
1.429017e+003,2.796118e-003
1.430945e+003,3.076766e-003
1.432874e+003,3.273457e-003
1.434802e+003,3.847687e-003
1.436731e+003,4.453406e-003
1.438659e+003,4.580196e-003
1.440588e+003,4.852283e-003
1.442516e+003,5.389923e-003
1.444445e+003,5.934578e-003
1.446373e+003,6.579782e-003
1.448302e+003,7.119196e-003
1.450230e+003,7.488874e-003
1.452159e+003,8.150809e-003
1.454087e+003,8.996419e-003
1.456016e+003,9.990293e-003
1.457944e+003,1.045175e-002
1.459873e+003,1.024306e-002
1.461801e+003,1.018261e-002
1.463730e+003,1.053681e-002
1.465658e+003,1.069840e-002
1.467587e+003,1.037515e-002
1.469515e+003,1.032595e-002
1.471444e+003,1.063052e-002
1.473372e+003,1.040654e-002
1.475301e+003,9.825715e-003
1.477229e+003,9.156284e-003
1.479158e+003,8.471225e-003
1.481086e+003,7.875367e-003
1.483015e+003,7.275136e-003
1.484943e+003,6.838819e-003
1.486872e+003,6.624088e-003
1.488800e+003,6.290373e-003
1.490729e+003,5.657449e-003
1.492657e+003,4.862871e-003
1.494586e+003,4.568209e-003
1.496514e+003,4.482029e-003
1.498443e+003,3.924212e-003
1.500371e+003,3.209430e-003
1.502300e+003,2.703487e-003
1.504228e+003,2.799286e-003
1.506157e+003,3.203088e-003
1.508085e+003,2.716023e-003
1.510014e+003,2.072867e-003
1.511942e+003,1.789906e-003
1.513871e+003,1.670380e-003
1.515799e+003,1.730688e-003
1.517728e+003,1.712059e-003
1.519656e+003,1.849665e-003
1.521585e+003,2.086118e-003
1.523513e+003,1.933594e-003
1.525442e+003,2.198732e-003
1.527370e+003,2.389095e-003
1.529299e+003,2.332794e-003
1.531227e+003,2.517984e-003
1.533156e+003,3.181225e-003
1.535084e+003,3.447928e-003
1.537013e+003,3.888405e-003
1.538941e+003,4.891219e-003
1.540870e+003,5.306095e-003
1.542798e+003,5.182982e-003
1.544727e+003,5.307672e-003
1.546655e+003,5.382107e-003
1.548584e+003,5.706763e-003
1.550512e+003,6.212489e-003
1.552441e+003,6.653022e-003
1.554369e+003,7.296936e-003
1.556298e+003,8.079949e-003
1.558226e+003,9.480490e-003
1.560155e+003,9.896928e-003
1.562083e+003,9.547074e-003
1.564012e+003,9.679765e-003
1.565940e+003,9.842153e-003
1.567869e+003,1.002118e-002
1.569797e+003,1.024761e-002
1.571726e+003,1.015222e-002
1.573654e+003,1.026650e-002
1.575583e+003,1.057877e-002
1.577511e+003,1.029656e-002
1.579440e+003,9.867370e-003
1.581368e+003,9.759495e-003
1.583297e+003,9.523806e-003
1.585225e+003,9.255412e-003
1.587154e+003,9.054775e-003
1.589082e+003,8.689441e-003
1.591010e+003,8.165293e-003
1.592939e+003,7.601212e-003
1.594868e+003,7.111482e-003
1.596796e+003,6.632600e-003
1.598724e+003,6.070974e-003
1.600653e+003,5.417634e-003
1.602582e+003,4.792344e-003
1.604510e+003,4.199869e-003
1.606438e+003,3.731905e-003
1.608367e+003,3.228524e-003
1.610296e+003,2.820663e-003
1.612224e+003,2.417482e-003
1.614152e+003,2.179250e-003
1.616081e+003,2.087350e-003
1.618010e+003,1.638085e-003
1.619938e+003,1.220084e-003
1.621866e+003,1.195065e-003
1.623795e+003,1.029169e-003
1.625724e+003,8.740271e-004
1.627652e+003,8.477993e-004
1.629580e+003,4.637264e-004
1.631509e+003,1.280819e-004
1.633438e+003,3.181370e-004
1.635366e+003,6.177262e-004
1.637294e+003,2.117317e-005
1.639223e+003,-6.352449e-004
1.641151e+003,-1.010902e-003
1.643080e+003,-1.295264e-003
1.645008e+003,-1.268538e-003
1.646937e+003,-1.281587e-003
1.648865e+003,-1.749362e-003
1.650794e+003,-1.653385e-003
1.652722e+003,-7.682948e-004
1.654651e+003,-1.564122e-003
1.656579e+003,-2.452437e-003
1.658508e+003,-2.807498e-003
1.660436e+003,-2.846408e-003
1.662365e+003,-2.806280e-003
1.664293e+003,-3.065847e-003
1.666222e+003,-3.203352e-003
1.668150e+003,-3.012544e-003
1.670079e+003,-3.203187e-003
1.672007e+003,-3.685194e-003
1.673936e+003,-3.839121e-003
1.675864e+003,-4.018009e-003
1.677793e+003,-4.604233e-003
1.679721e+003,-4.880913e-003
1.681650e+003,-4.968350e-003
1.683578e+003,-4.638557e-003
1.685507e+003,-5.142649e-003
1.687435e+003,-5.923350e-003
1.689364e+003,-6.307329e-003
1.691292e+003,-6.575681e-003
1.693221e+003,-6.575061e-003
1.695149e+003,-6.183021e-003
1.697078e+003,-6.228424e-003
1.699006e+003,-6.093181e-003
1.700935e+003,-6.144311e-003
1.702863e+003,-6.806683e-003
1.704792e+003,-6.862230e-003
1.706720e+003,-6.941019e-003
1.708649e+003,-7.210610e-003
1.710577e+003,-7.425705e-003
1.712506e+003,-7.462738e-003
1.714434e+003,-7.284742e-003
1.716363e+003,-7.025565e-003
1.718291e+003,-7.130858e-003
1.720220e+003,-7.656288e-003
1.722148e+003,-7.862411e-003
1.724077e+003,-7.907508e-003
1.726005e+003,-8.066288e-003
1.727934e+003,-8.115072e-003
1.729862e+003,-7.933569e-003
1.731791e+003,-7.660814e-003
1.733719e+003,-7.354887e-003
1.735648e+003,-7.860100e-003
1.737576e+003,-8.176954e-003
1.739505e+003,-7.966915e-003
1.741433e+003,-7.993655e-003
1.743362e+003,-8.064141e-003
1.745290e+003,-7.903018e-003
1.747219e+003,-7.659642e-003
1.749147e+003,-7.490715e-003
1.751076e+003,-7.425379e-003
1.753004e+003,-7.711368e-003
1.754933e+003,-7.771062e-003
1.756861e+003,-7.621193e-003
1.758790e+003,-7.607291e-003
1.760718e+003,-7.474691e-003
1.762647e+003,-7.503741e-003
1.764575e+003,-7.590718e-003
1.766504e+003,-7.532399e-003
1.768432e+003,-7.444466e-003
1.770361e+003,-7.248378e-003
1.772289e+003,-7.090830e-003
1.774218e+003,-7.450231e-003
1.776146e+003,-7.630504e-003
1.778075e+003,-7.604914e-003
1.780003e+003,-7.569000e-003
1.781932e+003,-7.618425e-003
1.783860e+003,-7.614453e-003
1.785789e+003,-7.542103e-003
1.787717e+003,-7.487360e-003
1.789646e+003,-7.393457e-003
1.791574e+003,-7.229608e-003
1.793503e+003,-7.367169e-003
1.795431e+003,-7.628355e-003
1.797360e+003,-7.618133e-003
1.799288e+003,-7.476515e-003
1.801217e+003,-7.496023e-003
1.803145e+003,-7.633239e-003
1.805074e+003,-7.648801e-003
1.807002e+003,-7.634444e-003
1.808931e+003,-7.722956e-003
1.810859e+003,-7.675561e-003
1.812788e+003,-7.698641e-003
1.814716e+003,-7.820140e-003
1.816645e+003,-7.796611e-003
1.818573e+003,-7.824761e-003
1.820502e+003,-7.871456e-003
1.822430e+003,-7.885318e-003
1.824359e+003,-7.769077e-003
1.826287e+003,-7.821474e-003
1.828216e+003,-7.824533e-003
1.830144e+003,-7.734674e-003
1.832073e+003,-7.845717e-003
1.834001e+003,-7.852063e-003
1.835930e+003,-7.935651e-003
1.837858e+003,-8.045147e-003
1.839787e+003,-8.098747e-003
1.841715e+003,-7.896511e-003
1.843644e+003,-7.575805e-003
1.845572e+003,-7.746652e-003
1.847501e+003,-7.935001e-003
1.849429e+003,-7.995347e-003
1.851358e+003,-7.972706e-003
1.853286e+003,-7.884667e-003
1.855215e+003,-7.833059e-003
1.857143e+003,-7.862704e-003
1.859072e+003,-7.926964e-003
1.861000e+003,-7.901099e-003
1.862929e+003,-7.869407e-003
1.864857e+003,-7.725593e-003
1.866786e+003,-7.608658e-003
1.868714e+003,-7.526668e-003
1.870643e+003,-7.593062e-003
1.872571e+003,-7.692391e-003
1.874500e+003,-7.700138e-003
1.876428e+003,-7.762731e-003
1.878357e+003,-7.714916e-003
1.880285e+003,-7.605207e-003
1.882214e+003,-7.591369e-003
1.884142e+003,-7.638741e-003
1.886071e+003,-7.570270e-003
1.887999e+003,-7.441014e-003
1.889928e+003,-7.448798e-003
1.891856e+003,-7.538553e-003
1.893785e+003,-7.448180e-003
1.895713e+003,-7.420950e-003
1.897642e+003,-7.480651e-003
1.899570e+003,-7.496675e-003
1.901499e+003,-7.375997e-003
1.903427e+003,-7.349935e-003
1.905356e+003,-7.433881e-003
1.907284e+003,-7.400428e-003
1.909213e+003,-7.300837e-003
1.911141e+003,-7.317682e-003
1.913070e+003,-7.372153e-003
1.914998e+003,-7.408995e-003
1.916927e+003,-7.421015e-003
1.918855e+003,-7.451241e-003
1.920784e+003,-7.472867e-003
1.922712e+003,-7.477687e-003
1.924641e+003,-7.482572e-003
1.926569e+003,-7.509538e-003
1.928498e+003,-7.585117e-003
1.930426e+003,-7.610546e-003
1.932355e+003,-7.598793e-003
1.934283e+003,-7.565418e-003
1.936212e+003,-7.548746e-003
1.938140e+003,-7.578605e-003
1.940069e+003,-7.606086e-003
1.941997e+003,-7.552816e-003
1.943926e+003,-7.535264e-003
1.945854e+003,-7.625849e-003
1.947783e+003,-7.762470e-003
1.949711e+003,-7.774675e-003
1.951640e+003,-7.776172e-003
1.953568e+003,-7.793844e-003
1.955497e+003,-7.749679e-003
1.957425e+003,-7.717716e-003
1.959354e+003,-7.792900e-003
1.961282e+003,-7.752673e-003
1.963211e+003,-7.751892e-003
1.965139e+003,-7.658014e-003
1.967068e+003,-7.590848e-003
1.968996e+003,-7.659902e-003
1.970925e+003,-7.665274e-003
1.972853e+003,-7.638383e-003
1.974782e+003,-7.604849e-003
1.976710e+003,-7.576651e-003
1.978639e+003,-7.571116e-003
1.980567e+003,-7.518364e-003
1.982496e+003,-7.483810e-003
1.984424e+003,-7.515400e-003
1.986353e+003,-7.486611e-003
1.988281e+003,-7.466646e-003
1.990210e+003,-7.415803e-003
1.992138e+003,-7.300479e-003
1.994067e+003,-7.342279e-003
1.995995e+003,-7.315597e-003
1.997924e+003,-7.215563e-003
1.999852e+003,-7.250528e-003
2.001781e+003,-7.317617e-003
2.003709e+003,-7.240753e-003
2.005638e+003,-7.190795e-003
2.007566e+003,-7.228891e-003
2.009495e+003,-7.251245e-003
2.011423e+003,-7.286306e-003
2.013352e+003,-7.187960e-003
2.015280e+003,-7.101522e-003
2.017208e+003,-7.084963e-003
2.019137e+003,-7.158400e-003
2.021066e+003,-7.165342e-003
2.022994e+003,-7.103217e-003
2.024922e+003,-7.090569e-003
2.026851e+003,-7.090667e-003
2.028780e+003,-7.086397e-003
2.030708e+003,-7.051614e-003
2.032636e+003,-7.022370e-003
2.034565e+003,-7.099860e-003
2.036494e+003,-7.138844e-003
2.038422e+003,-6.980702e-003
2.040350e+003,-6.890049e-003
2.042279e+003,-6.899017e-003
2.044208e+003,-6.972290e-003
2.046136e+003,-7.045028e-003
2.048064e+003,-7.020545e-003
2.049993e+003,-6.926639e-003
2.051921e+003,-6.959410e-003
2.053850e+003,-7.017578e-003
2.055778e+003,-6.996027e-003
2.057707e+003,-6.971377e-003
2.059635e+003,-6.840964e-003
2.061564e+003,-6.753968e-003
2.063492e+003,-6.762809e-003
2.065421e+003,-6.790373e-003
2.067349e+003,-6.812913e-003
2.069278e+003,-6.820938e-003
2.071206e+003,-6.824721e-003
2.073135e+003,-6.756415e-003
2.075063e+003,-6.624339e-003
2.076992e+003,-6.656709e-003
2.078920e+003,-6.634390e-003
2.080849e+003,-6.562137e-003
2.082777e+003,-6.537201e-003
2.084706e+003,-6.493365e-003
2.086634e+003,-6.503516e-003
2.088563e+003,-6.522448e-003
2.090491e+003,-6.394970e-003
2.092420e+003,-6.282412e-003
2.094348e+003,-6.213628e-003
2.096277e+003,-6.166460e-003
2.098205e+003,-6.128662e-003
2.100134e+003,-6.107917e-003
2.102062e+003,-5.990022e-003
2.103991e+003,-5.963485e-003
2.105919e+003,-5.930900e-003
2.107848e+003,-5.838262e-003
2.109776e+003,-5.856798e-003
2.111705e+003,-5.830383e-003
2.113633e+003,-5.760710e-003
2.115562e+003,-5.756721e-003
2.117490e+003,-5.743217e-003
2.119419e+003,-5.718038e-003
2.121347e+003,-5.626467e-003
2.123276e+003,-5.556500e-003
2.125204e+003,-5.589309e-003
2.127133e+003,-5.638634e-003
2.129061e+003,-5.500067e-003
2.130990e+003,-5.440157e-003
2.132918e+003,-5.438783e-003
2.134847e+003,-5.387702e-003
2.136775e+003,-5.414797e-003
2.138704e+003,-5.384003e-003
2.140632e+003,-5.321166e-003
2.142561e+003,-5.437245e-003
2.144489e+003,-5.532717e-003
2.146418e+003,-5.430602e-003
2.148346e+003,-5.278057e-003
2.150275e+003,-5.253080e-003
2.152203e+003,-5.344698e-003
2.154132e+003,-5.388520e-003
2.156060e+003,-5.301363e-003
2.157989e+003,-5.346531e-003
2.159917e+003,-5.424876e-003
2.161846e+003,-5.421800e-003
2.163774e+003,-5.392643e-003
2.165703e+003,-5.284636e-003
2.167631e+003,-5.174508e-003
2.169560e+003,-5.154600e-003
2.171488e+003,-5.125949e-003
2.173417e+003,-5.224501e-003
2.175345e+003,-5.326435e-003
2.177274e+003,-5.327875e-003
2.179202e+003,-5.258155e-003
2.181131e+003,-5.300250e-003
2.183059e+003,-5.284964e-003
2.184988e+003,-5.216415e-003
2.186916e+003,-5.256550e-003
2.188845e+003,-5.265520e-003
2.190773e+003,-5.115733e-003
2.192702e+003,-5.028882e-003
2.194630e+003,-5.115831e-003
2.196559e+003,-5.201617e-003
2.198487e+003,-5.230951e-003
2.200416e+003,-5.233799e-003
2.202344e+003,-5.151293e-003
2.204273e+003,-5.087439e-003
2.206201e+003,-5.050039e-003
2.208130e+003,-5.081446e-003
2.210058e+003,-5.118483e-003
2.211987e+003,-5.135740e-003
2.213915e+003,-5.080202e-003
2.215844e+003,-5.143238e-003
2.217772e+003,-5.152832e-003
2.219701e+003,-5.087341e-003
2.221629e+003,-5.169956e-003
2.223558e+003,-5.204072e-003
2.225486e+003,-5.185869e-003
2.227415e+003,-5.105810e-003
2.229343e+003,-5.112360e-003
2.231272e+003,-5.075355e-003
2.233200e+003,-5.086359e-003
2.235129e+003,-5.038347e-003
2.237057e+003,-4.958458e-003
2.238986e+003,-5.022953e-003
2.240914e+003,-5.159283e-003
2.242843e+003,-5.179026e-003
2.244771e+003,-5.193857e-003
2.246700e+003,-5.260250e-003
2.248628e+003,-5.265978e-003
2.250557e+003,-5.279072e-003
2.252485e+003,-5.287812e-003
2.254414e+003,-5.248530e-003
2.256342e+003,-5.196706e-003
2.258271e+003,-5.250527e-003
2.260199e+003,-5.306011e-003
2.262128e+003,-5.373008e-003
2.264056e+003,-5.327351e-003
2.265985e+003,-5.257991e-003
2.267913e+003,-5.348003e-003
2.269842e+003,-5.458088e-003
2.271770e+003,-5.495682e-003
2.273699e+003,-5.413816e-003
2.275627e+003,-5.288368e-003
2.277556e+003,-5.406813e-003
2.279484e+003,-5.604486e-003
2.281413e+003,-5.616131e-003
2.283341e+003,-5.593398e-003
2.285270e+003,-5.666008e-003
2.287198e+003,-5.613645e-003
2.289127e+003,-5.588655e-003
2.291055e+003,-5.552574e-003
2.292984e+003,-5.546162e-003
2.294912e+003,-5.596865e-003
2.296841e+003,-5.577108e-003
2.298769e+003,-5.535661e-003
2.300698e+003,-5.498496e-003
2.302626e+003,-5.426054e-003
2.304555e+003,-5.363091e-003
2.306483e+003,-5.190420e-003
2.308412e+003,-4.913741e-003
2.310340e+003,-4.718440e-003
2.312269e+003,-4.578202e-003
2.314197e+003,-4.426340e-003
2.316125e+003,-4.190163e-003
2.318054e+003,-3.894227e-003
2.319983e+003,-3.573574e-003
2.321911e+003,-3.328482e-003
2.323840e+003,-3.214403e-003
2.325768e+003,-3.046106e-003
2.327697e+003,-2.696015e-003
2.329625e+003,-2.401826e-003
2.331553e+003,-2.302335e-003
2.333482e+003,-2.183370e-003
2.335411e+003,-2.037298e-003
2.337339e+003,-1.942803e-003
2.339268e+003,-1.907935e-003
2.341196e+003,-1.926606e-003
2.343125e+003,-2.108889e-003
2.345053e+003,-2.551004e-003
2.346981e+003,-3.260479e-003
2.348910e+003,-3.641857e-003
2.350839e+003,-3.081212e-003
2.352767e+003,-2.179711e-003
2.354696e+003,-1.509545e-003
2.356624e+003,-8.574240e-004
2.358552e+003,-4.693550e-004
2.360481e+003,-4.629008e-004
2.362409e+003,-4.807076e-004
2.364338e+003,-5.581485e-004
2.366267e+003,-7.764975e-004
2.368195e+003,-1.214518e-003
2.370124e+003,-1.688966e-003
2.372052e+003,-2.155380e-003
2.373980e+003,-2.716858e-003
2.375909e+003,-3.335091e-003
2.377838e+003,-3.651977e-003
2.379766e+003,-3.906935e-003
2.381695e+003,-4.198498e-003
2.383623e+003,-4.338695e-003
2.385552e+003,-4.315567e-003
2.387480e+003,-4.304971e-003
2.389408e+003,-4.234232e-003
2.391337e+003,-4.118585e-003
2.393266e+003,-4.133256e-003
2.395194e+003,-4.104899e-003
2.397123e+003,-4.058321e-003
2.399051e+003,-4.136013e-003
2.400979e+003,-4.160989e-003
2.402908e+003,-4.120653e-003
2.404836e+003,-4.065970e-003
2.406765e+003,-4.028974e-003
2.408694e+003,-4.015974e-003
2.410622e+003,-3.988528e-003
2.412551e+003,-3.939180e-003
2.414479e+003,-3.953956e-003
2.416407e+003,-3.994306e-003
2.418336e+003,-3.946240e-003
2.420264e+003,-3.909299e-003
2.422193e+003,-3.833734e-003
2.424122e+003,-3.759109e-003
2.426050e+003,-3.749714e-003
2.427979e+003,-3.698598e-003
2.429907e+003,-3.563978e-003
2.431835e+003,-3.409987e-003
2.433764e+003,-3.338116e-003
2.435692e+003,-3.319275e-003
2.437621e+003,-3.282347e-003
2.439550e+003,-3.218053e-003
2.441478e+003,-3.149441e-003
2.443406e+003,-3.122400e-003
2.445335e+003,-3.097299e-003
2.447263e+003,-3.070947e-003
2.449192e+003,-3.013532e-003
2.451121e+003,-2.855559e-003
2.453049e+003,-2.798346e-003
2.454978e+003,-2.802758e-003
2.456906e+003,-2.761934e-003
2.458834e+003,-2.730852e-003
2.460763e+003,-2.622807e-003
2.462691e+003,-2.518623e-003
2.464620e+003,-2.461761e-003
2.466549e+003,-2.376189e-003
2.468477e+003,-2.400179e-003
2.470406e+003,-2.319045e-003
2.472334e+003,-2.340335e-003
2.474262e+003,-2.383406e-003
2.476191e+003,-2.252630e-003
2.478119e+003,-2.191052e-003
2.480048e+003,-2.234566e-003
2.481977e+003,-2.184920e-003
2.483905e+003,-2.096029e-003
2.485833e+003,-2.074365e-003
2.487762e+003,-2.076112e-003
2.489690e+003,-1.993104e-003
2.491619e+003,-1.985221e-003
2.493547e+003,-1.921295e-003
2.495476e+003,-1.888834e-003
2.497405e+003,-1.926771e-003
2.499333e+003,-1.924594e-003
2.501261e+003,-1.781801e-003
2.503190e+003,-1.805262e-003
2.505118e+003,-1.959856e-003
2.507047e+003,-1.931357e-003
2.508975e+003,-1.784837e-003
2.510904e+003,-1.710188e-003
2.512833e+003,-1.721772e-003
2.514761e+003,-1.757678e-003
2.516689e+003,-1.745864e-003
2.518618e+003,-1.744709e-003
2.520546e+003,-1.707350e-003
2.522475e+003,-1.694445e-003
2.524403e+003,-1.658666e-003
2.526332e+003,-1.579837e-003
2.528260e+003,-1.561481e-003
2.530189e+003,-1.620937e-003
2.532117e+003,-1.603144e-003
2.534046e+003,-1.600932e-003
2.535974e+003,-1.500696e-003
2.537903e+003,-1.475369e-003
2.539831e+003,-1.491318e-003
2.541760e+003,-1.439407e-003
2.543688e+003,-1.426725e-003
2.545617e+003,-1.474444e-003
2.547545e+003,-1.345475e-003
2.549474e+003,-1.208075e-003
2.551402e+003,-1.234904e-003
2.553331e+003,-1.199914e-003
2.555259e+003,-1.167498e-003
2.557188e+003,-1.245411e-003
2.559116e+003,-1.327373e-003
2.561045e+003,-1.227008e-003
2.562973e+003,-1.072053e-003
2.564902e+003,-1.120439e-003
2.566830e+003,-1.132105e-003
2.568759e+003,-1.002406e-003
2.570687e+003,-9.397242e-004
2.572616e+003,-8.913843e-004
2.574544e+003,-8.433366e-004
2.576473e+003,-9.428982e-004
2.578401e+003,-1.001315e-003
2.580330e+003,-1.015199e-003
2.582258e+003,-9.166791e-004
2.584187e+003,-8.044779e-004
2.586115e+003,-7.984586e-004
2.588044e+003,-7.786143e-004
2.589972e+003,-7.074978e-004
2.591901e+003,-6.543018e-004
2.593829e+003,-6.026212e-004
2.595758e+003,-6.265102e-004
2.597686e+003,-6.633006e-004
2.599615e+003,-5.826025e-004
2.601543e+003,-6.019925e-004
2.603472e+003,-7.114343e-004
2.605400e+003,-7.115336e-004
2.607329e+003,-7.171571e-004
2.609257e+003,-6.935047e-004
2.611186e+003,-5.888233e-004
2.613114e+003,-5.493130e-004
2.615043e+003,-6.038786e-004
2.616971e+003,-5.450110e-004
2.618900e+003,-5.054637e-004
2.620828e+003,-5.833305e-004
2.622757e+003,-5.348515e-004
2.624685e+003,-3.453844e-004
2.626614e+003,-2.894288e-004
2.628542e+003,-3.914348e-004
2.630471e+003,-4.321841e-004
2.632399e+003,-4.344019e-004
2.634328e+003,-4.677001e-004
2.636256e+003,-5.482872e-004
2.638185e+003,-5.329652e-004
2.640113e+003,-3.155533e-004
2.642042e+003,-1.612334e-004
2.643970e+003,-1.790526e-004
2.645899e+003,-1.222143e-004
2.647827e+003,-6.994032e-005
2.649756e+003,-3.803621e-005
2.651684e+003,-2.822928e-005
2.653613e+003,4.652268e-005
2.655541e+003,1.522776e-004
2.657470e+003,2.259004e-004
2.659398e+003,1.958663e-004
2.661327e+003,2.137340e-004
2.663255e+003,2.981430e-004
2.665184e+003,3.515287e-004
2.667112e+003,4.064466e-004
2.669041e+003,4.320508e-004
2.670969e+003,4.468767e-004
2.672898e+003,4.992855e-004
2.674826e+003,5.664311e-004
2.676755e+003,6.680983e-004
2.678683e+003,6.874124e-004
2.680612e+003,7.448621e-004
2.682540e+003,8.247268e-004
2.684469e+003,8.529119e-004
2.686397e+003,9.314351e-004
2.688326e+003,1.001969e-003
2.690254e+003,1.054611e-003
2.692183e+003,1.062018e-003
2.694111e+003,1.123437e-003
2.696040e+003,1.260823e-003
2.697968e+003,1.322303e-003
2.699897e+003,1.319478e-003
2.701825e+003,1.306583e-003
2.703754e+003,1.351551e-003
2.705682e+003,1.473250e-003
2.707611e+003,1.557904e-003
2.709539e+003,1.607221e-003
2.711468e+003,1.612243e-003
2.713396e+003,1.639781e-003
2.715325e+003,1.657276e-003
2.717253e+003,1.677898e-003
2.719182e+003,1.703278e-003
2.721110e+003,1.820317e-003
2.723039e+003,1.899814e-003
2.724967e+003,1.902876e-003
2.726896e+003,1.922944e-003
2.728824e+003,1.989677e-003
2.730753e+003,2.054357e-003
2.732681e+003,2.132132e-003
2.734610e+003,2.191805e-003
2.736538e+003,2.341522e-003
2.738467e+003,2.491357e-003
2.740395e+003,2.538614e-003
2.742324e+003,2.491990e-003
2.744252e+003,2.472929e-003
2.746181e+003,2.489791e-003
2.748109e+003,2.629743e-003
2.750038e+003,2.791849e-003
2.751966e+003,2.776443e-003
2.753895e+003,2.805255e-003
2.755823e+003,2.944642e-003
2.757752e+003,3.077800e-003
2.759680e+003,3.242578e-003
2.761609e+003,3.378164e-003
2.763537e+003,3.616454e-003
2.765466e+003,3.801992e-003
2.767394e+003,4.045932e-003
2.769323e+003,4.405338e-003
2.771251e+003,4.722566e-003
2.773180e+003,5.106570e-003
2.775108e+003,5.538800e-003
2.777037e+003,5.859947e-003
2.778965e+003,6.236556e-003
2.780894e+003,6.716347e-003
2.782822e+003,7.254179e-003
2.784750e+003,7.793824e-003
2.786679e+003,8.422102e-003
2.788608e+003,9.072436e-003
2.790536e+003,9.706397e-003
2.792465e+003,1.040515e-002
2.794393e+003,1.096055e-002
2.796322e+003,1.145070e-002
2.798250e+003,1.197828e-002
2.800178e+003,1.265454e-002
2.802107e+003,1.337213e-002
2.804036e+003,1.387017e-002
2.805964e+003,1.426961e-002
2.807893e+003,1.456391e-002
2.809821e+003,1.471360e-002
2.811750e+003,1.492483e-002
2.813678e+003,1.500559e-002
2.815606e+003,1.496138e-002
2.817535e+003,1.497486e-002
2.819464e+003,1.491238e-002
2.821392e+003,1.476193e-002
2.823321e+003,1.450111e-002
2.825249e+003,1.412685e-002
2.827177e+003,1.391896e-002
2.829106e+003,1.376318e-002
2.831034e+003,1.333028e-002
2.832963e+003,1.285719e-002
2.834892e+003,1.251122e-002
2.836820e+003,1.206934e-002
2.838749e+003,1.162968e-002
2.840677e+003,1.122908e-002
2.842605e+003,1.068814e-002
2.844534e+003,1.008788e-002
2.846462e+003,9.600830e-003
2.848391e+003,9.183763e-003
2.850320e+003,8.853893e-003
2.852248e+003,8.642220e-003
2.854177e+003,8.423926e-003
2.856105e+003,8.081401e-003
2.858033e+003,7.814031e-003
2.859962e+003,7.762790e-003
2.861890e+003,7.609709e-003
2.863819e+003,7.519923e-003
2.865748e+003,7.587556e-003
2.867676e+003,7.573866e-003
2.869604e+003,7.560515e-003
2.871533e+003,7.555626e-003
2.873461e+003,7.620364e-003
2.875390e+003,7.708114e-003
2.877319e+003,7.759990e-003
2.879247e+003,7.893790e-003
2.881176e+003,8.029656e-003
2.883104e+003,8.069484e-003
2.885032e+003,8.088219e-003
2.886961e+003,8.133693e-003
2.888889e+003,8.093621e-003
2.890818e+003,8.001473e-003
2.892747e+003,7.926486e-003
2.894675e+003,7.935192e-003
2.896604e+003,7.926048e-003
2.898532e+003,7.874658e-003
2.900460e+003,7.809139e-003
2.902389e+003,7.744069e-003
2.904317e+003,7.675973e-003
2.906246e+003,7.650444e-003
2.908175e+003,7.657897e-003
2.910103e+003,7.649432e-003
2.912031e+003,7.665552e-003
2.913960e+003,7.724472e-003
2.915888e+003,7.739516e-003
2.917817e+003,7.826615e-003
2.919745e+003,7.904216e-003
2.921674e+003,8.043494e-003
2.923603e+003,8.055612e-003
2.925531e+003,8.163538e-003
2.927459e+003,8.385990e-003
2.929388e+003,8.459400e-003
2.931316e+003,8.628598e-003
2.933245e+003,8.762090e-003
2.935173e+003,8.776426e-003
2.937102e+003,8.789037e-003
2.939031e+003,8.742448e-003
2.940959e+003,8.662804e-003
2.942887e+003,8.416123e-003
2.944816e+003,8.242482e-003
2.946744e+003,8.156853e-003
2.948673e+003,7.889066e-003
2.950601e+003,7.448087e-003
2.952530e+003,7.066722e-003
2.954458e+003,6.685390e-003
2.956387e+003,6.289331e-003
2.958315e+003,5.807526e-003
2.960244e+003,5.336887e-003
2.962172e+003,4.872924e-003
2.964101e+003,4.456988e-003
2.966029e+003,3.951764e-003
2.967958e+003,3.411158e-003
2.969886e+003,2.925794e-003
2.971815e+003,2.491790e-003
2.973743e+003,2.154642e-003
2.975672e+003,1.726497e-003
2.977600e+003,1.498850e-003
2.979529e+003,1.452970e-003
2.981457e+003,1.117623e-003
2.983386e+003,7.042382e-004
2.985314e+003,4.523495e-004
2.987243e+003,3.097812e-004
2.989171e+003,6.299237e-005
2.991100e+003,-8.806135e-005
2.993028e+003,-2.375723e-004
2.994957e+003,-4.147395e-004
2.996885e+003,-5.555674e-004
2.998814e+003,-6.136394e-004
3.000742e+003,-6.638299e-004
3.002671e+003,-7.544360e-004
3.004599e+003,-7.989216e-004
3.006528e+003,-9.295078e-004
3.008456e+003,-1.067161e-003
3.010385e+003,-1.061410e-003
3.012313e+003,-9.535772e-004
3.014242e+003,-8.964434e-004
3.016170e+003,-9.310618e-004
3.018099e+003,-9.724878e-004
3.020027e+003,-9.969184e-004
3.021956e+003,-1.113532e-003
3.023884e+003,-1.257834e-003
3.025813e+003,-1.373254e-003
3.027741e+003,-1.499408e-003
3.029670e+003,-1.365194e-003
3.031598e+003,-1.244354e-003
3.033527e+003,-1.304184e-003
3.035455e+003,-1.322154e-003
3.037384e+003,-1.396407e-003
3.039312e+003,-1.590203e-003
3.041241e+003,-1.768337e-003
3.043169e+003,-1.816844e-003
3.045098e+003,-1.786849e-003
3.047026e+003,-1.760879e-003
3.048955e+003,-1.883556e-003
3.050883e+003,-1.957383e-003
3.052812e+003,-2.057613e-003
3.054740e+003,-2.126068e-003
3.056669e+003,-2.090226e-003
3.058597e+003,-2.150302e-003
3.060526e+003,-2.308169e-003
3.062454e+003,-2.291986e-003
3.064383e+003,-2.304214e-003
3.066311e+003,-2.412535e-003
3.068240e+003,-2.434150e-003
3.070168e+003,-2.510914e-003
3.072097e+003,-2.653897e-003
3.074025e+003,-2.624026e-003
3.075954e+003,-2.557691e-003
3.077882e+003,-2.657947e-003
3.079811e+003,-2.822049e-003
3.081739e+003,-2.843775e-003
3.083668e+003,-2.800354e-003
3.085596e+003,-2.875243e-003
3.087525e+003,-2.968022e-003
3.089453e+003,-2.971938e-003
3.091382e+003,-3.024423e-003
3.093310e+003,-3.060090e-003
3.095239e+003,-3.014914e-003
3.097167e+003,-3.027713e-003
3.099096e+003,-3.156052e-003
3.101024e+003,-3.227558e-003
3.102953e+003,-3.236800e-003
3.104881e+003,-3.301749e-003
3.106810e+003,-3.313324e-003
3.108738e+003,-3.267746e-003
3.110667e+003,-3.300664e-003
3.112595e+003,-3.248771e-003
3.114524e+003,-3.208844e-003
3.116452e+003,-3.241569e-003
3.118381e+003,-3.347421e-003
3.120309e+003,-3.517080e-003
3.122238e+003,-3.535222e-003
3.124166e+003,-3.553791e-003
3.126095e+003,-3.594310e-003
3.128023e+003,-3.596742e-003
3.129952e+003,-3.553232e-003
3.131880e+003,-3.566016e-003
3.133809e+003,-3.580180e-003
3.135737e+003,-3.658581e-003
3.137666e+003,-3.578766e-003
3.139594e+003,-3.482108e-003
3.141523e+003,-3.545574e-003
3.143451e+003,-3.668241e-003
3.145380e+003,-3.757598e-003
3.147308e+003,-3.743998e-003
3.149237e+003,-3.807229e-003
3.151165e+003,-3.860402e-003
3.153094e+003,-3.834851e-003
3.155022e+003,-3.800201e-003
3.156951e+003,-3.791956e-003
3.158879e+003,-3.702080e-003
3.160808e+003,-3.673366e-003
3.162736e+003,-3.709637e-003
3.164665e+003,-3.687132e-003
3.166593e+003,-3.755364e-003
3.168522e+003,-3.815309e-003
3.170450e+003,-3.836395e-003
3.172379e+003,-3.748565e-003
3.174307e+003,-3.673366e-003
3.176236e+003,-3.652174e-003
3.178164e+003,-3.698171e-003
3.180093e+003,-3.713217e-003
3.182021e+003,-3.763839e-003
3.183950e+003,-3.762657e-003
3.185878e+003,-3.758190e-003
3.187807e+003,-3.776913e-003
3.189735e+003,-3.748795e-003
3.191664e+003,-3.761671e-003
3.193592e+003,-3.846740e-003
3.195521e+003,-3.876789e-003
3.197449e+003,-3.778029e-003
3.199378e+003,-3.776091e-003
3.201306e+003,-3.814160e-003
3.203235e+003,-3.867430e-003
3.205163e+003,-3.858399e-003
3.207092e+003,-3.800923e-003
3.209020e+003,-3.637553e-003
3.210948e+003,-3.560002e-003
3.212877e+003,-3.564175e-003
3.214806e+003,-3.599896e-003
3.216734e+003,-3.680299e-003
3.218663e+003,-3.723073e-003
3.220591e+003,-3.620664e-003
3.222520e+003,-3.401110e-003
3.224448e+003,-3.267483e-003
3.226376e+003,-3.160690e-003
3.228305e+003,-3.109176e-003
3.230234e+003,-3.014025e-003
3.232162e+003,-2.974900e-003
3.234091e+003,-2.929978e-003
3.236019e+003,-2.940082e-003
3.237948e+003,-2.981020e-003
3.239876e+003,-2.777309e-003
3.241804e+003,-2.542868e-003
3.243733e+003,-2.623894e-003
3.245662e+003,-2.572250e-003
3.247590e+003,-2.481331e-003
3.249519e+003,-2.376124e-003
3.251447e+003,-2.407395e-003
3.253375e+003,-2.390656e-003
3.255304e+003,-2.304708e-003
3.257232e+003,-2.137509e-003
3.259161e+003,-1.960681e-003
3.261090e+003,-2.033604e-003
3.263018e+003,-1.997721e-003
3.264947e+003,-1.932115e-003
3.266875e+003,-1.951808e-003
3.268803e+003,-1.845615e-003
3.270732e+003,-1.774640e-003
3.272660e+003,-1.704149e-003
3.274589e+003,-1.664641e-003
3.276518e+003,-1.643086e-003
3.278446e+003,-1.631995e-003
3.280375e+003,-1.705073e-003
3.282303e+003,-1.701706e-003
3.284231e+003,-1.685204e-003
3.286160e+003,-1.642756e-003
3.288088e+003,-1.721145e-003
3.290017e+003,-1.751276e-003
3.291946e+003,-1.753124e-003
3.293874e+003,-1.925617e-003
3.295802e+003,-2.096887e-003
3.297731e+003,-2.150038e-003
3.299659e+003,-2.209018e-003
3.301588e+003,-2.209183e-003
3.303516e+003,-2.301313e-003
3.305445e+003,-2.428747e-003
3.307374e+003,-2.601663e-003
3.309302e+003,-2.754723e-003
3.311230e+003,-2.806412e-003
3.313159e+003,-2.935145e-003
3.315087e+003,-3.078086e-003
3.317016e+003,-3.167105e-003
3.318944e+003,-3.272318e-003
3.320873e+003,-3.275442e-003
3.322802e+003,-3.492791e-003
3.324730e+003,-3.797376e-003
3.326658e+003,-3.754281e-003
3.328587e+003,-3.715583e-003
3.330515e+003,-3.749550e-003
3.332444e+003,-3.905819e-003
3.334372e+003,-4.151143e-003
3.336301e+003,-4.185306e-003
3.338229e+003,-4.053463e-003
3.340158e+003,-4.104604e-003
3.342086e+003,-4.124690e-003
3.344015e+003,-4.151110e-003
3.345943e+003,-4.295227e-003
3.347872e+003,-4.485635e-003
3.349800e+003,-4.396755e-003
3.351729e+003,-4.301132e-003
3.353657e+003,-4.506885e-003
3.355586e+003,-4.700872e-003
3.357514e+003,-4.892839e-003
3.359443e+003,-4.946271e-003
3.361371e+003,-4.798340e-003
3.363300e+003,-4.841758e-003
3.365229e+003,-5.085638e-003
3.367157e+003,-5.314357e-003
3.369085e+003,-5.450628e-003
3.371014e+003,-5.495813e-003
3.372942e+003,-5.502520e-003
3.374871e+003,-5.715128e-003
3.376799e+003,-5.715651e-003
3.378728e+003,-5.806157e-003
3.380656e+003,-6.008878e-003
3.382585e+003,-6.245114e-003
3.384513e+003,-6.281040e-003
3.386442e+003,-6.284828e-003
3.388370e+003,-6.167603e-003
3.390299e+003,-6.222153e-003
3.392227e+003,-6.308864e-003
3.394156e+003,-6.397288e-003
3.396084e+003,-6.519184e-003
3.398013e+003,-6.576497e-003
3.399941e+003,-6.580674e-003
3.401870e+003,-6.615299e-003
3.403798e+003,-6.594968e-003
3.405727e+003,-6.745878e-003
3.407655e+003,-6.826646e-003
3.409584e+003,-6.735927e-003
3.411512e+003,-6.693318e-003
3.413441e+003,-6.811968e-003
3.415369e+003,-6.790536e-003
3.417298e+003,-6.755599e-003
3.419226e+003,-6.769203e-003
3.421155e+003,-6.852836e-003
3.423083e+003,-7.042388e-003
3.425012e+003,-7.139202e-003
3.426940e+003,-7.200931e-003
3.428869e+003,-7.157193e-003
3.430797e+003,-7.030521e-003
3.432726e+003,-6.966518e-003
3.434654e+003,-7.231889e-003
3.436583e+003,-7.495958e-003
3.438511e+003,-7.317259e-003
3.440440e+003,-7.121732e-003
3.442368e+003,-7.072543e-003
3.444297e+003,-7.073260e-003
3.446225e+003,-7.091482e-003
3.448154e+003,-7.178281e-003
3.450082e+003,-7.210512e-003
3.452011e+003,-7.278518e-003
3.453939e+003,-7.556756e-003
3.455868e+003,-7.728262e-003
3.457796e+003,-7.530152e-003
3.459725e+003,-7.341563e-003
3.461653e+003,-7.374238e-003
3.463582e+003,-7.453847e-003
3.465510e+003,-7.588015e-003
3.467439e+003,-7.651503e-003
3.469367e+003,-7.866934e-003
3.471296e+003,-7.863680e-003
3.473224e+003,-7.679825e-003
3.475153e+003,-7.672045e-003
3.477081e+003,-7.731419e-003
3.479010e+003,-7.777214e-003
3.480938e+003,-7.618588e-003
3.482867e+003,-7.605109e-003
3.484795e+003,-7.639132e-003
3.486724e+003,-7.722305e-003
3.488652e+003,-7.798498e-003
3.490581e+003,-8.017044e-003
3.492509e+003,-8.007025e-003
3.494438e+003,-7.838005e-003
3.496366e+003,-7.664329e-003
3.498295e+003,-7.763544e-003
3.500223e+003,-8.026119e-003
3.502152e+003,-8.074810e-003
3.504080e+003,-8.105511e-003
3.506009e+003,-8.057539e-003
3.507937e+003,-7.781542e-003
3.509866e+003,-7.691642e-003
3.511794e+003,-7.833514e-003
3.513723e+003,-7.990955e-003
3.515651e+003,-8.175947e-003
3.517580e+003,-8.004520e-003
3.519508e+003,-7.935293e-003
3.521437e+003,-8.020849e-003
3.523365e+003,-8.063849e-003
3.525294e+003,-7.953446e-003
3.527222e+003,-7.863712e-003
3.529151e+003,-7.915479e-003
3.531079e+003,-7.997721e-003
3.533008e+003,-8.023289e-003
3.534936e+003,-8.037308e-003
3.536865e+003,-8.094486e-003
3.538793e+003,-7.992191e-003
3.540722e+003,-7.801232e-003
3.542650e+003,-7.705672e-003
3.544579e+003,-7.655670e-003
3.546507e+003,-7.726895e-003
3.548436e+003,-7.897487e-003
3.550364e+003,-8.060792e-003
3.552293e+003,-8.049050e-003
3.554221e+003,-8.069898e-003
3.556150e+003,-8.125446e-003
3.558078e+003,-8.010635e-003
3.560007e+003,-8.043976e-003
3.561935e+003,-7.910176e-003
3.563864e+003,-7.786033e-003
3.565792e+003,-7.562064e-003
3.567721e+003,-7.407920e-003
3.569649e+003,-7.780435e-003
3.571578e+003,-8.084176e-003
3.573506e+003,-7.923418e-003
3.575435e+003,-7.730475e-003
3.577363e+003,-7.798954e-003
3.579292e+003,-7.820660e-003
3.581220e+003,-7.954716e-003
3.583149e+003,-8.123852e-003
3.585077e+003,-7.920847e-003
3.587006e+003,-7.598597e-003
3.588934e+003,-7.553468e-003
3.590863e+003,-7.733730e-003
3.592791e+003,-7.870773e-003
3.594720e+003,-7.831432e-003
3.596648e+003,-7.665957e-003
3.598577e+003,-7.527807e-003
3.600505e+003,-7.496479e-003
3.602434e+003,-7.730833e-003
3.604362e+003,-7.731777e-003
3.606291e+003,-7.577238e-003
3.608219e+003,-7.514130e-003
3.610148e+003,-7.741835e-003
3.612076e+003,-7.846140e-003
3.614005e+003,-7.713191e-003
3.615933e+003,-7.675203e-003
3.617862e+003,-7.424532e-003
3.619790e+003,-7.224361e-003
3.621719e+003,-7.587560e-003
3.623647e+003,-7.930055e-003
3.625576e+003,-7.807415e-003
3.627504e+003,-7.090928e-003
3.629433e+003,-6.833267e-003
3.631361e+003,-7.399679e-003
3.633290e+003,-7.689493e-003
3.635218e+003,-7.781282e-003
3.637146e+003,-7.826908e-003
3.639075e+003,-7.926769e-003
3.641004e+003,-7.738482e-003
3.642932e+003,-7.697989e-003
3.644861e+003,-7.716088e-003
3.646789e+003,-7.381111e-003
3.648718e+003,-7.225535e-003
3.650646e+003,-7.451795e-003
3.652574e+003,-7.915838e-003
3.654503e+003,-7.757816e-003
3.656432e+003,-7.643755e-003
3.658360e+003,-8.070289e-003
3.660289e+003,-8.177052e-003
3.662217e+003,-8.165931e-003
3.664146e+003,-8.105251e-003
3.666074e+003,-8.088958e-003
3.668002e+003,-7.846238e-003
3.669931e+003,-7.421275e-003
3.671860e+003,-7.778548e-003
3.673788e+003,-7.789678e-003
3.675717e+003,-7.497652e-003
3.677645e+003,-7.789939e-003
3.679573e+003,-8.154226e-003
3.681502e+003,-8.260870e-003
3.683430e+003,-8.256514e-003
3.685359e+003,-8.074062e-003
3.687288e+003,-7.466158e-003
3.689216e+003,-7.263725e-003
3.691145e+003,-7.587397e-003
3.693073e+003,-7.797066e-003
3.695001e+003,-7.950812e-003
3.696930e+003,-8.093152e-003
3.698858e+003,-8.084111e-003
3.700787e+003,-7.771160e-003
3.702716e+003,-7.694734e-003
3.704644e+003,-7.798173e-003
3.706573e+003,-7.781445e-003
3.708501e+003,-7.743853e-003
3.710429e+003,-7.519112e-003
3.712358e+003,-7.377496e-003
3.714286e+003,-7.681453e-003
3.716215e+003,-7.922800e-003
3.718144e+003,-7.774024e-003
3.720072e+003,-7.570107e-003
3.722000e+003,-7.508431e-003
3.723929e+003,-7.586420e-003
3.725857e+003,-7.392610e-003
3.727786e+003,-7.186233e-003
3.729714e+003,-7.419940e-003
3.731643e+003,-7.431145e-003
3.733572e+003,-7.400917e-003
3.735500e+003,-7.188872e-003
3.737428e+003,-7.296341e-003
3.739357e+003,-7.458602e-003
3.741285e+003,-7.257241e-003
3.743214e+003,-6.474236e-003
3.745142e+003,-6.290086e-003
3.747071e+003,-6.880461e-003
3.749000e+003,-6.627341e-003
3.750928e+003,-6.299622e-003
3.752856e+003,-6.384554e-003
3.754785e+003,-6.827917e-003
3.756713e+003,-6.928465e-003
3.758642e+003,-6.891484e-003
3.760570e+003,-7.088907e-003
3.762499e+003,-7.183169e-003
3.764427e+003,-6.967236e-003
3.766356e+003,-6.982593e-003
3.768284e+003,-6.847357e-003
3.770213e+003,-6.779348e-003
3.772141e+003,-6.912062e-003
3.774070e+003,-6.952432e-003
3.775998e+003,-7.051614e-003
3.777927e+003,-7.039878e-003
3.779855e+003,-7.005873e-003
3.781784e+003,-6.975844e-003
3.783712e+003,-6.854957e-003
3.785641e+003,-6.819633e-003
3.787569e+003,-6.964758e-003
3.789498e+003,-7.083659e-003
3.791426e+003,-7.239514e-003
3.793355e+003,-7.262585e-003
3.795283e+003,-6.914964e-003
3.797212e+003,-6.874721e-003
3.799140e+003,-6.928465e-003
3.801069e+003,-6.410086e-003
3.802997e+003,-6.525516e-003
3.804926e+003,-6.941867e-003
3.806854e+003,-6.640916e-003
3.808783e+003,-6.809586e-003
3.810711e+003,-7.049365e-003
3.812640e+003,-6.962801e-003
3.814568e+003,-6.682355e-003
3.816497e+003,-6.352784e-003
3.818425e+003,-6.247009e-003
3.820354e+003,-5.665877e-003
3.822282e+003,-5.791249e-003
3.824211e+003,-6.527964e-003
3.826139e+003,-6.831440e-003
3.828068e+003,-6.725846e-003
3.829996e+003,-6.561615e-003
3.831925e+003,-6.315493e-003
3.833853e+003,-6.209284e-003
3.835782e+003,-6.060541e-003
3.837710e+003,-5.721766e-003
3.839639e+003,-5.904850e-003
3.841567e+003,-6.213007e-003
3.843496e+003,-6.464671e-003
3.845424e+003,-6.608642e-003
3.847353e+003,-6.769170e-003
3.849281e+003,-6.530771e-003
3.851210e+003,-5.720458e-003
3.853138e+003,-4.954232e-003
3.855067e+003,-5.598010e-003
3.856995e+003,-6.288714e-003
3.858924e+003,-6.436139e-003
3.860852e+003,-6.358433e-003
3.862781e+003,-6.177958e-003
3.864709e+003,-6.101709e-003
3.866638e+003,-6.240835e-003
3.868566e+003,-6.001101e-003
3.870495e+003,-5.707378e-003
3.872423e+003,-5.969204e-003
3.874352e+003,-6.135392e-003
3.876280e+003,-6.420893e-003
3.878209e+003,-6.504137e-003
3.880137e+003,-6.479720e-003
3.882066e+003,-6.525288e-003
3.883994e+003,-6.435290e-003
3.885923e+003,-6.147577e-003
3.887851e+003,-6.324049e-003
3.889780e+003,-6.190599e-003
3.891708e+003,-6.351445e-003
3.893637e+003,-6.612297e-003
3.895565e+003,-6.435225e-003
3.897494e+003,-6.062991e-003
3.899422e+003,-5.756460e-003
3.901351e+003,-5.833914e-003
3.903279e+003,-5.787423e-003
3.905208e+003,-5.850063e-003
3.907136e+003,-6.172797e-003
3.909065e+003,-6.359968e-003
3.910993e+003,-6.549277e-003
3.912922e+003,-6.651162e-003
3.914850e+003,-6.421611e-003
3.916779e+003,-6.369012e-003
3.918707e+003,-6.347886e-003
3.920636e+003,-6.270034e-003
3.922564e+003,-6.436759e-003
3.924493e+003,-6.406038e-003
3.926421e+003,-6.302529e-003
3.928350e+003,-6.368555e-003
3.930278e+003,-6.206115e-003
3.932207e+003,-5.946327e-003
3.934135e+003,-5.893049e-003
3.936064e+003,-5.840191e-003
3.937992e+003,-5.974597e-003
3.939921e+003,-6.199289e-003
3.941849e+003,-6.152902e-003
3.943778e+003,-6.017310e-003
3.945706e+003,-6.096645e-003
3.947635e+003,-6.124905e-003
3.949563e+003,-6.062501e-003
3.951492e+003,-6.124219e-003
3.953420e+003,-6.201836e-003
3.955349e+003,-6.141567e-003
3.957277e+003,-6.066455e-003
3.959206e+003,-6.218789e-003
3.961134e+003,-6.351119e-003
3.963063e+003,-6.294528e-003
3.964991e+003,-6.404209e-003
3.966920e+003,-6.339690e-003
3.968848e+003,-6.077041e-003
3.970777e+003,-6.118240e-003
3.972705e+003,-6.125134e-003
3.974634e+003,-6.037635e-003
3.976562e+003,-6.089653e-003
3.978491e+003,-6.149211e-003
3.980419e+003,-6.021656e-003
3.982348e+003,-6.154372e-003
3.984276e+003,-6.243481e-003
3.986205e+003,-6.013127e-003
3.988133e+003,-5.855915e-003
3.990062e+003,-5.879615e-003
3.991990e+003,-5.952569e-003
3.993919e+003,-5.943549e-003
3.995847e+003,-6.056783e-003
3.997776e+003,-6.133792e-003
3.999704e+003,-6.075048e-003
4.001633e+003,0.000000e+000
