3.991989e+002,-2.106441e-002
4.011274e+002,-3.098460e-002
4.030559e+002,-3.571829e-002
4.049844e+002,-3.413185e-002
4.069129e+002,-2.871160e-002
4.088414e+002,-2.196473e-002
4.107699e+002,-2.356246e-002
4.126984e+002,-2.617904e-002
4.146269e+002,-1.837809e-002
4.165554e+002,-1.034416e-002
4.184839e+002,-1.265456e-002
4.204124e+002,-7.582024e-003
4.223409e+002,-4.015088e-003
4.242694e+002,-5.882622e-003
4.261979e+002,-1.498830e-002
4.281264e+002,-1.014892e-002
4.300549e+002,-2.690812e-003
4.319834e+002,-3.150296e-003
4.339119e+002,-1.670252e-003
4.358404e+002,-1.346862e-003
4.377689e+002,-2.848087e-003
4.396974e+002,-8.863930e-003
4.416259e+002,-1.587072e-002
4.435544e+002,-1.379859e-002
4.454829e+002,-1.097325e-002
4.474114e+002,-6.270622e-003
4.493399e+002,-5.180565e-003
4.512684e+002,-7.162474e-003
4.531969e+002,-6.540041e-003
4.551254e+002,-5.407467e-003
4.570539e+002,-5.010605e-003
4.589824e+002,-6.337274e-003
4.609109e+002,-8.968453e-003
4.628394e+002,-8.322732e-003
4.647679e+002,-8.856657e-003
4.666964e+002,-8.553912e-003
4.686249e+002,-6.927552e-003
4.705533e+002,-6.273398e-003
4.724819e+002,-8.262138e-003
4.744103e+002,-8.893893e-003
4.763389e+002,-8.968096e-003
4.782673e+002,-9.686324e-003
4.801959e+002,-1.006421e-002
4.821243e+002,-9.989576e-003
4.840529e+002,-9.683893e-003
4.859813e+002,-9.731232e-003
4.879099e+002,-8.863962e-003
4.898383e+002,-8.325170e-003
4.917668e+002,-9.534909e-003
4.936953e+002,-1.104917e-002
4.956238e+002,-1.046638e-002
4.975523e+002,-1.014028e-002
4.994808e+002,-1.228750e-002
5.014093e+002,-1.263783e-002
5.033378e+002,-1.009354e-002
5.052663e+002,-7.387366e-003
5.071948e+002,-8.613458e-003
5.091233e+002,-1.098521e-002
5.110518e+002,-1.118924e-002
5.129803e+002,-1.109894e-002
5.149088e+002,-1.160434e-002
5.168373e+002,-1.152042e-002
5.187658e+002,-1.154210e-002
5.206943e+002,-1.244690e-002
5.226228e+002,-1.249237e-002
5.245513e+002,-1.081770e-002
5.264798e+002,-1.103366e-002
5.284083e+002,-1.154794e-002
5.303368e+002,-1.023385e-002
5.322653e+002,-9.779635e-003
5.341938e+002,-8.763992e-003
5.361223e+002,-9.669409e-003
5.380508e+002,-1.085638e-002
5.399792e+002,-9.738425e-003
5.419078e+002,-8.118226e-003
5.438363e+002,-8.571390e-003
5.457648e+002,-9.207464e-003
5.476932e+002,-9.292738e-003
5.496218e+002,-9.386523e-003
5.515503e+002,-9.082492e-003
5.534788e+002,-8.132406e-003
5.554072e+002,-7.989785e-003
5.573358e+002,-8.049147e-003
5.592643e+002,-7.928884e-003
5.611927e+002,-7.527449e-003
5.631212e+002,-6.574571e-003
5.650497e+002,-6.668880e-003
5.669783e+002,-7.576814e-003
5.689067e+002,-7.958977e-003
5.708352e+002,-8.985654e-003
5.727637e+002,-9.061237e-003
5.746923e+002,-9.277884e-003
5.766207e+002,-1.050606e-002
5.785492e+002,-8.593253e-003
5.804777e+002,-1.103088e-003
5.824063e+002,-3.657727e-003
5.843347e+002,-9.867419e-003
5.862632e+002,-9.788770e-003
5.881917e+002,-1.002672e-002
5.901202e+002,-9.747528e-003
5.920487e+002,-9.799980e-003
5.939772e+002,-1.100969e-002
5.959057e+002,-1.121936e-002
5.978342e+002,-9.763825e-003
5.997627e+002,-8.775487e-003
6.016912e+002,-9.025314e-003
6.036197e+002,-9.816468e-003
6.055482e+002,-8.368301e-003
6.074767e+002,-7.483191e-003
6.094052e+002,-7.664525e-003
6.113337e+002,-8.940929e-003
6.132622e+002,-9.655572e-003
6.151907e+002,-8.257977e-003
6.171192e+002,-7.256426e-003
6.190477e+002,-7.220093e-003
6.209762e+002,-6.892201e-003
6.229047e+002,-7.733405e-003
6.248332e+002,-9.417909e-003
6.267617e+002,-1.090938e-002
6.286902e+002,-1.032931e-002
6.306187e+002,-8.768018e-003
6.325472e+002,-8.298514e-003
6.344756e+002,-8.350912e-003
6.364042e+002,-7.846531e-003
6.383326e+002,-7.578768e-003
6.402612e+002,-7.325566e-003
6.421896e+002,-6.861708e-003
6.441182e+002,-6.722779e-003
6.460466e+002,-7.079128e-003
6.479752e+002,-7.205982e-003
6.499036e+002,-6.946367e-003
6.518322e+002,-6.638925e-003
6.537606e+002,-6.687510e-003
6.556891e+002,-6.701834e-003
6.576177e+002,-6.396406e-003
6.595461e+002,-6.497804e-003
6.614746e+002,-6.570981e-003
6.634031e+002,-6.545752e-003
6.653317e+002,-6.124578e-003
6.672601e+002,-5.868337e-003
6.691886e+002,-5.979467e-003
6.711171e+002,-6.260073e-003
6.730457e+002,-6.641307e-003
6.749741e+002,-7.071011e-003
6.769026e+002,-6.865295e-003
6.788311e+002,-6.572972e-003
6.807596e+002,-6.499501e-003
6.826881e+002,-6.751489e-003
6.846166e+002,-6.765549e-003
6.865451e+002,-6.551301e-003
6.884736e+002,-6.383150e-003
6.904021e+002,-6.716809e-003
6.923306e+002,-7.124502e-003
6.942591e+002,-7.182354e-003
6.961876e+002,-7.524714e-003
6.981161e+002,-8.081282e-003
7.000446e+002,-8.033242e-003
7.019731e+002,-7.899862e-003
7.039016e+002,-8.027160e-003
7.058301e+002,-8.268543e-003
7.077585e+002,-8.724406e-003
7.096871e+002,-8.782046e-003
7.116156e+002,-8.113544e-003
7.135441e+002,-8.342104e-003
7.154725e+002,-9.493287e-003
7.174011e+002,-1.012012e-002
7.193296e+002,-9.545541e-003
7.212581e+002,-9.327050e-003
7.231865e+002,-9.168568e-003
7.251151e+002,-8.990718e-003
7.270436e+002,-9.407372e-003
7.289720e+002,-9.713314e-003
7.309005e+002,-9.511960e-003
7.328290e+002,-9.597464e-003
7.347576e+002,-9.229457e-003
7.366860e+002,-8.365409e-003
7.386145e+002,-8.460857e-003
7.405430e+002,-8.424103e-003
7.424716e+002,-7.933764e-003
7.444000e+002,-7.729075e-003
7.463285e+002,-7.489217e-003
7.482570e+002,-7.062698e-003
7.501855e+002,-6.234205e-003
7.521140e+002,-5.418168e-003
7.540425e+002,-5.039133e-003
7.559710e+002,-5.077614e-003
7.578995e+002,-4.985810e-003
7.598280e+002,-4.991935e-003
7.617565e+002,-4.618724e-003
7.636850e+002,-4.222485e-003
7.656135e+002,-3.644584e-003
7.675420e+002,-3.316743e-003
7.694705e+002,-3.022613e-003
7.713990e+002,-2.996717e-003
7.733275e+002,-2.948441e-003
7.752560e+002,-3.073809e-003
7.771844e+002,-3.086574e-003
7.791130e+002,-3.271068e-003
7.810415e+002,-3.317269e-003
7.829700e+002,-3.316349e-003
7.848984e+002,-3.319736e-003
7.868270e+002,-3.508140e-003
7.887555e+002,-4.002317e-003
7.906840e+002,-4.693038e-003
7.926124e+002,-4.939621e-003
7.945410e+002,-4.931432e-003
7.964695e+002,-5.111312e-003
7.983979e+002,-5.398632e-003
8.003264e+002,-5.766236e-003
8.022549e+002,-5.747925e-003
8.041835e+002,-5.495781e-003
8.061119e+002,-5.563108e-003
8.080404e+002,-5.132040e-003
8.099689e+002,-5.213763e-003
8.118975e+002,-5.900502e-003
8.138259e+002,-5.511059e-003
8.157545e+002,-4.836385e-003
8.176830e+002,-5.463913e-003
8.196115e+002,-6.288584e-003
8.215399e+002,-6.684802e-003
8.234684e+002,-6.582469e-003
8.253970e+002,-6.936715e-003
8.273254e+002,-7.487621e-003
8.292539e+002,-7.596513e-003
8.311824e+002,-7.506053e-003
8.331110e+002,-7.628258e-003
8.350394e+002,-7.503286e-003
8.369679e+002,-7.209599e-003
8.388964e+002,-7.338956e-003
8.408250e+002,-7.701407e-003
8.427534e+002,-7.716902e-003
8.446819e+002,-7.168862e-003
8.466104e+002,-7.091221e-003
8.485389e+002,-7.257762e-003
8.504674e+002,-7.176488e-003
8.523959e+002,-7.024392e-003
8.543244e+002,-6.873807e-003
8.562529e+002,-6.714069e-003
8.581814e+002,-6.811315e-003
8.601099e+002,-6.812424e-003
8.620384e+002,-6.865654e-003
8.639669e+002,-7.113094e-003
8.658954e+002,-6.896376e-003
8.678239e+002,-6.380375e-003
8.697524e+002,-6.680920e-003
8.716809e+002,-7.018458e-003
8.736094e+002,-7.153869e-003
8.755378e+002,-6.793375e-003
8.774664e+002,-6.128401e-003
8.793949e+002,-6.078381e-003
8.813234e+002,-5.965315e-003
8.832518e+002,-5.798769e-003
8.851804e+002,-5.895011e-003
8.871089e+002,-6.021786e-003
8.890374e+002,-5.809656e-003
8.909658e+002,-5.969237e-003
8.928943e+002,-5.786867e-003
8.948229e+002,-5.492999e-003
8.967513e+002,-5.511583e-003
8.986798e+002,-5.769506e-003
9.006083e+002,-5.902823e-003
9.025369e+002,-5.882949e-003
9.044653e+002,-5.979728e-003
9.063938e+002,-6.280844e-003
9.083223e+002,-6.380016e-003
9.102509e+002,-6.719876e-003
9.121793e+002,-7.060742e-003
9.141078e+002,-7.231857e-003
9.160364e+002,-7.129130e-003
9.179648e+002,-7.212695e-003
9.198933e+002,-7.669864e-003
9.218218e+002,-8.047717e-003
9.237504e+002,-8.289510e-003
9.256788e+002,-8.626256e-003
9.276073e+002,-8.902918e-003
9.295358e+002,-8.856202e-003
9.314644e+002,-8.717230e-003
9.333928e+002,-8.723140e-003
9.353213e+002,-8.851658e-003
9.372498e+002,-8.776266e-003
9.391783e+002,-8.965662e-003
9.411068e+002,-9.168990e-003
9.430353e+002,-8.946739e-003
9.449637e+002,-8.885323e-003
9.468923e+002,-8.898016e-003
9.488208e+002,-8.700407e-003
9.507493e+002,-8.425111e-003
9.526777e+002,-8.419748e-003
9.546063e+002,-8.498549e-003
9.565348e+002,-8.208006e-003
9.584633e+002,-7.958880e-003
9.603917e+002,-8.092339e-003
9.623203e+002,-8.075688e-003
9.642488e+002,-7.679011e-003
9.661772e+002,-7.332864e-003
9.681057e+002,-7.127762e-003
9.700343e+002,-7.065502e-003
9.719628e+002,-6.903974e-003
9.738912e+002,-6.884700e-003
9.758197e+002,-6.998570e-003
9.777483e+002,-6.842562e-003
9.796768e+002,-6.509685e-003
9.816052e+002,-6.268956e-003
9.835337e+002,-6.247727e-003
9.854623e+002,-6.198178e-003
9.873907e+002,-6.235512e-003
9.893192e+002,-6.314317e-003
9.912477e+002,-6.054365e-003
9.931763e+002,-5.702145e-003
9.951047e+002,-5.504516e-003
9.970332e+002,-5.359066e-003
9.989617e+002,-5.355695e-003
1.000890e+003,-5.274784e-003
1.002819e+003,-5.234061e-003
1.004747e+003,-5.160658e-003
1.006676e+003,-4.926419e-003
1.008604e+003,-4.695856e-003
1.010533e+003,-4.622887e-003
1.012461e+003,-4.594037e-003
1.014390e+003,-4.483569e-003
1.016318e+003,-4.253591e-003
1.018247e+003,-3.953824e-003
1.020175e+003,-3.693703e-003
1.022104e+003,-3.529208e-003
1.024032e+003,-3.220882e-003
1.025961e+003,-3.098155e-003
1.027889e+003,-3.124210e-003
1.029818e+003,-2.906808e-003
1.031746e+003,-2.698254e-003
1.033675e+003,-2.578706e-003
1.035603e+003,-2.236775e-003
1.037532e+003,-2.068957e-003
1.039460e+003,-1.947322e-003
1.041389e+003,-1.677051e-003
1.043317e+003,-1.657016e-003
1.045246e+003,-1.839478e-003
1.047174e+003,-1.731046e-003
1.049103e+003,-1.647113e-003
1.051031e+003,-1.696723e-003
1.052960e+003,-1.702696e-003
1.054888e+003,-1.612387e-003
1.056817e+003,-1.704248e-003
1.058745e+003,-1.666291e-003
1.060674e+003,-1.689296e-003
1.062602e+003,-1.628331e-003
1.064531e+003,-1.614962e-003
1.066459e+003,-1.575710e-003
1.068388e+003,-1.506078e-003
1.070316e+003,-1.438020e-003
1.072245e+003,-1.242933e-003
1.074173e+003,-8.318612e-004
1.076102e+003,-8.269006e-004
1.078030e+003,-1.090496e-003
1.079959e+003,-1.022571e-003
1.081887e+003,-6.310099e-004
1.083816e+003,-4.713740e-004
1.085744e+003,-2.337309e-004
1.087673e+003,4.466698e-005
1.089601e+003,8.993509e-005
1.091530e+003,3.200270e-004
1.093458e+003,7.678972e-004
1.095387e+003,1.030431e-003
1.097315e+003,1.229554e-003
1.099244e+003,1.208288e-003
1.101172e+003,1.387881e-003
1.103101e+003,1.439871e-003
1.105029e+003,1.313762e-003
1.106958e+003,1.383360e-003
1.108886e+003,1.612176e-003
1.110815e+003,1.754508e-003
1.112743e+003,1.832196e-003
1.114672e+003,1.830399e-003
1.116600e+003,1.862010e-003
1.118529e+003,1.772173e-003
1.120457e+003,1.525184e-003
1.122386e+003,1.629570e-003
1.124314e+003,1.740369e-003
1.126243e+003,1.349789e-003
1.128171e+003,1.191676e-003
1.130100e+003,1.219951e-003
1.132028e+003,9.092546e-004
1.133957e+003,6.639502e-004
1.135885e+003,5.051902e-004
1.137814e+003,1.922531e-004
1.139742e+003,-3.238308e-004
1.141671e+003,-7.491106e-004
1.143599e+003,-1.058832e-003
1.145528e+003,-1.430622e-003
1.147456e+003,-1.870788e-003
1.149385e+003,-2.215776e-003
1.151313e+003,-2.413326e-003
1.153242e+003,-2.694731e-003
1.155170e+003,-3.104965e-003
1.157099e+003,-3.377998e-003
1.159027e+003,-3.582776e-003
1.160956e+003,-3.887101e-003
1.162884e+003,-4.116321e-003
1.164813e+003,-4.064295e-003
1.166741e+003,-4.040136e-003
1.168670e+003,-3.976118e-003
1.170598e+003,-4.030747e-003
1.172526e+003,-4.202173e-003
1.174455e+003,-4.135915e-003
1.176384e+003,-4.078082e-003
1.178312e+003,-4.126692e-003
1.180240e+003,-4.064854e-003
1.182169e+003,-4.020307e-003
1.184098e+003,-4.106638e-003
1.186026e+003,-4.187144e-003
1.187954e+003,-4.156296e-003
1.189883e+003,-4.451332e-003
1.191812e+003,-4.562234e-003
1.193740e+003,-4.264222e-003
1.195668e+003,-4.183731e-003
1.197597e+003,-4.193083e-003
1.199526e+003,-4.183403e-003
1.201454e+003,-4.175363e-003
1.203382e+003,-4.091606e-003
1.205311e+003,-4.051362e-003
1.207240e+003,-3.945254e-003
1.209168e+003,-3.660093e-003
1.211096e+003,-3.522996e-003
1.213025e+003,-3.392497e-003
1.214953e+003,-3.273436e-003
1.216882e+003,-3.203352e-003
1.218810e+003,-3.090424e-003
1.220739e+003,-2.961078e-003
1.222667e+003,-2.814609e-003
1.224596e+003,-2.721435e-003
1.226524e+003,-2.717319e-003
1.228453e+003,-2.620799e-003
1.230381e+003,-2.323494e-003
1.232310e+003,-2.183271e-003
1.234238e+003,-2.163029e-003
1.236167e+003,-2.121089e-003
1.238095e+003,-2.283713e-003
1.240024e+003,-2.268782e-003
1.241952e+003,-2.170117e-003
1.243881e+003,-2.284636e-003
1.245809e+003,-2.420509e-003
1.247738e+003,-2.513912e-003
1.249666e+003,-2.693150e-003
1.251595e+003,-2.736581e-003
1.253523e+003,-2.722785e-003
1.255452e+003,-2.681987e-003
1.257380e+003,-2.648430e-003
1.259309e+003,-2.707079e-003
1.261237e+003,-2.687585e-003
1.263166e+003,-2.440839e-003
1.265094e+003,-2.236050e-003
1.267023e+003,-1.991488e-003
1.268951e+003,-1.704644e-003
1.270880e+003,-1.445186e-003
1.272808e+003,-1.134749e-003
1.274737e+003,-7.904217e-004
1.276665e+003,-4.976200e-004
1.278594e+003,-1.970035e-004
1.280522e+003,7.097891e-005
1.282451e+003,3.535515e-004
1.284379e+003,7.399166e-004
1.286308e+003,1.301066e-003
1.288236e+003,1.731287e-003
1.290165e+003,2.035448e-003
1.292093e+003,2.386064e-003
1.294022e+003,2.635210e-003
1.295950e+003,2.910183e-003
1.297879e+003,3.171880e-003
1.299807e+003,3.367546e-003
1.301736e+003,3.324673e-003
1.303664e+003,3.300767e-003
1.305593e+003,3.351117e-003
1.307521e+003,3.369750e-003
1.309450e+003,3.222181e-003
1.311378e+003,2.955551e-003
1.313307e+003,2.755535e-003
1.315235e+003,2.566244e-003
1.317164e+003,2.334226e-003
1.319092e+003,1.955494e-003
1.321021e+003,1.411582e-003
1.322949e+003,1.057334e-003
1.324878e+003,8.404624e-004
1.326806e+003,6.461303e-004
1.328735e+003,5.714741e-004
1.330663e+003,4.301934e-004
1.332592e+003,2.482781e-004
1.334520e+003,1.660664e-004
1.336449e+003,8.615705e-005
1.338377e+003,-8.312535e-005
1.340306e+003,-1.018752e-004
1.342234e+003,-1.491029e-006
1.344163e+003,4.029286e-005
1.346091e+003,-2.806362e-005
1.348020e+003,-5.861016e-005
1.349948e+003,-1.270836e-004
1.351877e+003,-2.929386e-004
1.353805e+003,-4.160305e-004
1.355734e+003,-4.977524e-004
1.357662e+003,-7.204650e-004
1.359591e+003,-8.695271e-004
1.361519e+003,-9.163154e-004
1.363448e+003,-9.131743e-004
1.365376e+003,-1.033446e-003
1.367305e+003,-1.206985e-003
1.369233e+003,-1.196543e-003
1.371162e+003,-1.333088e-003
1.373090e+003,-1.430985e-003
1.375019e+003,-1.388414e-003
1.376947e+003,-1.351718e-003
1.378876e+003,-1.231039e-003
1.380804e+003,-1.039429e-003
1.382733e+003,-1.082068e-003
1.384661e+003,-1.339496e-003
1.386590e+003,-1.558212e-003
1.388518e+003,-1.724248e-003
1.390447e+003,-1.826346e-003
1.392375e+003,-2.075849e-003
1.394304e+003,-2.306455e-003
1.396232e+003,-2.419554e-003
1.398161e+003,-2.502679e-003
1.400089e+003,-2.538717e-003
1.402018e+003,-2.624718e-003
1.403946e+003,-2.680439e-003
1.405875e+003,-2.638254e-003
1.407803e+003,-2.674347e-003
1.409732e+003,-2.840220e-003
1.411660e+003,-2.997573e-003
1.413589e+003,-3.031366e-003
1.415517e+003,-2.764304e-003
1.417446e+003,-2.347981e-003
1.419374e+003,-1.837333e-003
1.421303e+003,-1.277656e-003
1.423231e+003,-6.959196e-004
1.425160e+003,6.567664e-005
1.427088e+003,7.032427e-004
1.429017e+003,1.151342e-003
1.430945e+003,1.479633e-003
1.432874e+003,1.671645e-003
1.434802e+003,2.013378e-003
1.436731e+003,2.392527e-003
1.438659e+003,2.814760e-003
1.440588e+003,3.253995e-003
1.442516e+003,3.690967e-003
1.444445e+003,4.255845e-003
1.446373e+003,4.946915e-003
1.448302e+003,5.425318e-003
1.450230e+003,5.882819e-003
1.452159e+003,6.494547e-003
1.454087e+003,7.040118e-003
1.456016e+003,7.263040e-003
1.457944e+003,7.679515e-003
1.459873e+003,8.127311e-003
1.461801e+003,8.366127e-003
1.463730e+003,8.508764e-003
1.465658e+003,8.608961e-003
1.467587e+003,8.594666e-003
1.469515e+003,8.410042e-003
1.471444e+003,8.170965e-003
1.473372e+003,7.817776e-003
1.475301e+003,7.551681e-003
1.477229e+003,7.145939e-003
1.479158e+003,6.570565e-003
1.481086e+003,6.032504e-003
1.483015e+003,5.623110e-003
1.484943e+003,5.113543e-003
1.486872e+003,4.526322e-003
1.488800e+003,4.053390e-003
1.490729e+003,3.599816e-003
1.492657e+003,3.133698e-003
1.494586e+003,2.716690e-003
1.496514e+003,2.158271e-003
1.498443e+003,1.642475e-003
1.500371e+003,1.294320e-003
1.502300e+003,1.048864e-003
1.504228e+003,7.634494e-004
1.506157e+003,4.635274e-004
1.508085e+003,2.524222e-004
1.510014e+003,1.799216e-005
1.511942e+003,-1.772972e-004
1.513871e+003,-2.325056e-004
1.515799e+003,-3.083353e-004
1.517728e+003,-2.712168e-004
1.519656e+003,-2.247894e-004
1.521585e+003,-2.671107e-004
1.523513e+003,-1.611341e-004
1.525442e+003,4.277815e-005
1.527370e+003,2.633961e-004
1.529299e+003,4.885711e-004
1.531227e+003,7.302583e-004
1.533156e+003,1.031760e-003
1.535084e+003,1.353445e-003
1.537013e+003,1.640579e-003
1.538941e+003,1.922311e-003
1.540870e+003,2.189141e-003
1.542798e+003,2.444005e-003
1.544727e+003,2.879596e-003
1.546655e+003,3.379801e-003
1.548584e+003,3.888639e-003
1.550512e+003,4.306038e-003
1.552441e+003,4.577551e-003
1.554369e+003,4.977246e-003
1.556298e+003,5.474270e-003
1.558226e+003,6.015336e-003
1.560155e+003,6.731289e-003
1.562083e+003,7.263074e-003
1.564012e+003,7.623635e-003
1.565940e+003,7.885523e-003
1.567869e+003,7.991347e-003
1.569797e+003,8.056894e-003
1.571726e+003,8.203886e-003
1.573654e+003,8.307864e-003
1.575583e+003,8.302798e-003
1.577511e+003,8.171067e-003
1.579440e+003,8.059325e-003
1.581368e+003,8.070633e-003
1.583297e+003,7.954529e-003
1.585225e+003,7.656649e-003
1.587154e+003,7.472323e-003
1.589082e+003,7.174066e-003
1.591010e+003,6.544125e-003
1.592939e+003,6.024172e-003
1.594868e+003,5.647513e-003
1.596796e+003,5.201124e-003
1.598724e+003,4.622926e-003
1.600653e+003,3.904887e-003
1.602582e+003,3.329581e-003
1.604510e+003,2.814760e-003
1.606438e+003,2.338157e-003
1.608367e+003,1.824609e-003
1.610296e+003,1.445789e-003
1.612224e+003,9.817771e-004
1.614152e+003,5.797354e-004
1.616081e+003,2.217565e-004
1.618010e+003,-8.482231e-006
1.619938e+003,-2.098203e-004
1.621866e+003,-4.650853e-004
1.623795e+003,-6.935378e-004
1.625724e+003,-7.875112e-004
1.627652e+003,-9.185637e-004
1.629580e+003,-1.119877e-003
1.631509e+003,-1.315812e-003
1.633438e+003,-1.436633e-003
1.635366e+003,-1.585053e-003
1.637294e+003,-1.843503e-003
1.639223e+003,-2.187557e-003
1.641151e+003,-2.480079e-003
1.643080e+003,-2.777572e-003
1.645008e+003,-3.105294e-003
1.646937e+003,-3.269687e-003
1.648865e+003,-3.352813e-003
1.650794e+003,-3.517277e-003
1.652722e+003,-3.770146e-003
1.654651e+003,-4.056549e-003
1.656579e+003,-4.098072e-003
1.658508e+003,-4.233412e-003
1.660436e+003,-4.310810e-003
1.662365e+003,-4.434212e-003
1.664293e+003,-4.583545e-003
1.666222e+003,-4.513279e-003
1.668150e+003,-4.657898e-003
1.670079e+003,-5.071916e-003
1.672007e+003,-5.332097e-003
1.673936e+003,-5.547798e-003
1.675864e+003,-5.669769e-003
1.677793e+003,-5.925442e-003
1.679721e+003,-6.191743e-003
1.681650e+003,-6.441362e-003
1.683578e+003,-6.787307e-003
1.685507e+003,-7.201028e-003
1.687435e+003,-7.531422e-003
1.689364e+003,-7.704239e-003
1.691292e+003,-7.797261e-003
1.693221e+003,-7.953056e-003
1.695149e+003,-8.039910e-003
1.697078e+003,-8.072110e-003
1.699006e+003,-8.268705e-003
1.700935e+003,-8.431773e-003
1.702863e+003,-8.411657e-003
1.704792e+003,-8.417961e-003
1.706720e+003,-8.378897e-003
1.708649e+003,-8.484284e-003
1.710577e+003,-8.586918e-003
1.712506e+003,-8.640418e-003
1.714434e+003,-8.763018e-003
1.716363e+003,-8.909248e-003
1.718291e+003,-8.969264e-003
1.720220e+003,-9.138883e-003
1.722148e+003,-9.280381e-003
1.724077e+003,-9.226570e-003
1.726005e+003,-9.249049e-003
1.727934e+003,-9.318911e-003
1.729862e+003,-9.273991e-003
1.731791e+003,-9.311386e-003
1.733719e+003,-9.508880e-003
1.735648e+003,-9.544633e-003
1.737576e+003,-9.503369e-003
1.739505e+003,-9.459701e-003
1.741433e+003,-9.322153e-003
1.743362e+003,-9.212201e-003
1.745290e+003,-9.148259e-003
1.747219e+003,-9.102836e-003
1.749147e+003,-9.076002e-003
1.751076e+003,-9.111240e-003
1.753004e+003,-9.130187e-003
1.754933e+003,-9.063833e-003
1.756861e+003,-8.855684e-003
1.758790e+003,-8.847437e-003
1.760718e+003,-8.964558e-003
1.762647e+003,-8.943948e-003
1.764575e+003,-8.934567e-003
1.766504e+003,-8.910319e-003
1.768432e+003,-8.842145e-003
1.770361e+003,-8.832958e-003
1.772289e+003,-8.855002e-003
1.774218e+003,-8.898405e-003
1.776146e+003,-8.830555e-003
1.778075e+003,-8.810295e-003
1.780003e+003,-8.798184e-003
1.781932e+003,-8.812989e-003
1.783860e+003,-8.783800e-003
1.785789e+003,-8.760128e-003
1.787717e+003,-8.682934e-003
1.789646e+003,-8.610859e-003
1.791574e+003,-8.707844e-003
1.793503e+003,-8.877370e-003
1.795431e+003,-8.912299e-003
1.797360e+003,-8.806658e-003
1.799288e+003,-8.733597e-003
1.801217e+003,-8.815359e-003
1.803145e+003,-8.806334e-003
1.805074e+003,-8.741131e-003
1.807002e+003,-8.775941e-003
1.808931e+003,-8.898730e-003
1.810859e+003,-8.819061e-003
1.812788e+003,-8.746619e-003
1.814716e+003,-8.819743e-003
1.816645e+003,-8.852437e-003
1.818573e+003,-8.883636e-003
1.820502e+003,-8.916811e-003
1.822430e+003,-8.956119e-003
1.824359e+003,-8.967998e-003
1.826287e+003,-8.993444e-003
1.828216e+003,-9.008503e-003
1.830144e+003,-9.059582e-003
1.832073e+003,-9.018564e-003
1.834001e+003,-8.953036e-003
1.835930e+003,-9.011164e-003
1.837858e+003,-9.111532e-003
1.839787e+003,-9.121882e-003
1.841715e+003,-9.057603e-003
1.843644e+003,-9.063022e-003
1.845572e+003,-9.114387e-003
1.847501e+003,-9.092842e-003
1.849429e+003,-9.076261e-003
1.851358e+003,-9.056013e-003
1.853286e+003,-9.048257e-003
1.855215e+003,-8.987505e-003
1.857143e+003,-8.906488e-003
1.859072e+003,-8.929146e-003
1.861000e+003,-8.966311e-003
1.862929e+003,-8.828574e-003
1.864857e+003,-8.688617e-003
1.866786e+003,-8.805587e-003
1.868714e+003,-8.921745e-003
1.870643e+003,-8.873344e-003
1.872571e+003,-8.771135e-003
1.874500e+003,-8.707033e-003
1.876428e+003,-8.698978e-003
1.878357e+003,-8.742300e-003
1.880285e+003,-8.729895e-003
1.882214e+003,-8.775032e-003
1.884142e+003,-8.780812e-003
1.886071e+003,-8.729375e-003
1.887999e+003,-8.669196e-003
1.889928e+003,-8.677251e-003
1.891856e+003,-8.687805e-003
1.893785e+003,-8.624177e-003
1.895713e+003,-8.538902e-003
1.897642e+003,-8.510311e-003
1.899570e+003,-8.510831e-003
1.901499e+003,-8.506412e-003
1.903427e+003,-8.508328e-003
1.905356e+003,-8.539292e-003
1.907284e+003,-8.527530e-003
1.909213e+003,-8.504820e-003
1.911141e+003,-8.490101e-003
1.913070e+003,-8.428068e-003
1.914998e+003,-8.463456e-003
1.916927e+003,-8.564632e-003
1.918855e+003,-8.644381e-003
1.920784e+003,-8.670917e-003
1.922712e+003,-8.645485e-003
1.924641e+003,-8.602868e-003
1.926569e+003,-8.674457e-003
1.928498e+003,-8.696250e-003
1.930426e+003,-8.645940e-003
1.932355e+003,-8.622488e-003
1.934283e+003,-8.620117e-003
1.936212e+003,-8.621286e-003
1.938140e+003,-8.649545e-003
1.940069e+003,-8.694042e-003
1.941997e+003,-8.753081e-003
1.943926e+003,-8.764284e-003
1.945854e+003,-8.755874e-003
1.947783e+003,-8.862339e-003
1.949711e+003,-8.888992e-003
1.951640e+003,-8.871267e-003
1.953568e+003,-8.847080e-003
1.955497e+003,-8.819840e-003
1.957425e+003,-8.896133e-003
1.959354e+003,-8.915740e-003
1.961282e+003,-8.806885e-003
1.963211e+003,-8.799287e-003
1.965139e+003,-8.790618e-003
1.967068e+003,-8.797470e-003
1.968996e+003,-8.782079e-003
1.970925e+003,-8.702063e-003
1.972853e+003,-8.702875e-003
1.974782e+003,-8.688065e-003
1.976710e+003,-8.741358e-003
1.978639e+003,-8.771526e-003
1.980567e+003,-8.730901e-003
1.982496e+003,-8.722360e-003
1.984424e+003,-8.694918e-003
1.986353e+003,-8.647109e-003
1.988281e+003,-8.577920e-003
1.990210e+003,-8.465828e-003
1.992138e+003,-8.379807e-003
1.994067e+003,-8.384584e-003
1.995995e+003,-8.371292e-003
1.997924e+003,-8.350685e-003
1.999852e+003,-8.398039e-003
2.001781e+003,-8.473399e-003
2.003709e+003,-8.477558e-003
2.005638e+003,-8.399567e-003
2.007566e+003,-8.405125e-003
2.009495e+003,-8.443504e-003
2.011423e+003,-8.424396e-003
2.013352e+003,-8.293997e-003
2.015280e+003,-8.214639e-003
2.017208e+003,-8.288503e-003
2.019137e+003,-8.372559e-003
2.021066e+003,-8.325170e-003
2.022994e+003,-8.283074e-003
2.024922e+003,-8.296239e-003
2.026851e+003,-8.290291e-003
2.028780e+003,-8.273158e-003
2.030708e+003,-8.203682e-003
2.032636e+003,-8.128698e-003
2.034565e+003,-8.160436e-003
2.036494e+003,-8.223580e-003
2.038422e+003,-8.227872e-003
2.040350e+003,-8.094876e-003
2.042279e+003,-8.089771e-003
2.044208e+003,-8.195813e-003
2.046136e+003,-8.158550e-003
2.048064e+003,-8.074062e-003
2.049993e+003,-8.058775e-003
2.051921e+003,-8.109869e-003
2.053850e+003,-8.130063e-003
2.055778e+003,-8.116015e-003
2.057707e+003,-8.046448e-003
2.059635e+003,-7.864721e-003
2.061564e+003,-7.906793e-003
2.063492e+003,-8.037633e-003
2.065421e+003,-7.994566e-003
2.067349e+003,-7.870480e-003
2.069278e+003,-7.860165e-003
2.071206e+003,-7.907248e-003
2.073135e+003,-7.855545e-003
2.075063e+003,-7.842756e-003
2.076992e+003,-7.889939e-003
2.078920e+003,-7.832896e-003
2.080849e+003,-7.743007e-003
2.082777e+003,-7.644438e-003
2.084706e+003,-7.565320e-003
2.086634e+003,-7.599965e-003
2.088563e+003,-7.596969e-003
2.090491e+003,-7.532204e-003
2.092420e+003,-7.413979e-003
2.094348e+003,-7.397236e-003
2.096277e+003,-7.359480e-003
2.098205e+003,-7.321233e-003
2.100134e+003,-7.351271e-003
2.102062e+003,-7.279789e-003
2.103991e+003,-7.255156e-003
2.105919e+003,-7.196401e-003
2.107848e+003,-7.109508e-003
2.109776e+003,-7.064230e-003
2.111705e+003,-7.001732e-003
2.113633e+003,-6.913040e-003
2.115562e+003,-6.866110e-003
2.117490e+003,-6.791385e-003
2.119419e+003,-6.738341e-003
2.121347e+003,-6.729663e-003
2.123276e+003,-6.696679e-003
2.125204e+003,-6.748226e-003
2.127133e+003,-6.795723e-003
2.129061e+003,-6.684639e-003
2.130990e+003,-6.533448e-003
2.132918e+003,-6.442276e-003
2.134847e+003,-6.459970e-003
2.136775e+003,-6.524537e-003
2.138704e+003,-6.499860e-003
2.140632e+003,-6.407409e-003
2.142561e+003,-6.411294e-003
2.144489e+003,-6.544055e-003
2.146418e+003,-6.545132e-003
2.148346e+003,-6.408584e-003
2.150275e+003,-6.362025e-003
2.152203e+003,-6.405091e-003
2.154132e+003,-6.370547e-003
2.156060e+003,-6.349258e-003
2.157989e+003,-6.452331e-003
2.159917e+003,-6.460982e-003
2.161846e+003,-6.388799e-003
2.163774e+003,-6.379167e-003
2.165703e+003,-6.361862e-003
2.167631e+003,-6.326400e-003
2.169560e+003,-6.305892e-003
2.171488e+003,-6.264220e-003
2.173417e+003,-6.312130e-003
2.175345e+003,-6.328849e-003
2.177274e+003,-6.363560e-003
2.179202e+003,-6.402381e-003
2.181131e+003,-6.383771e-003
2.183059e+003,-6.397941e-003
2.184988e+003,-6.485269e-003
2.186916e+003,-6.484388e-003
2.188845e+003,-6.376881e-003
2.190773e+003,-6.336065e-003
2.192702e+003,-6.273430e-003
2.194630e+003,-6.186680e-003
2.196559e+003,-6.275488e-003
2.198487e+003,-6.474301e-003
2.200416e+003,-6.461244e-003
2.202344e+003,-6.315428e-003
2.204273e+003,-6.238125e-003
2.206201e+003,-6.198537e-003
2.208130e+003,-6.214510e-003
2.210058e+003,-6.299557e-003
2.211987e+003,-6.291164e-003
2.213915e+003,-6.234565e-003
2.215844e+003,-6.292274e-003
2.217772e+003,-6.320653e-003
2.219701e+003,-6.253639e-003
2.221629e+003,-6.287735e-003
2.223558e+003,-6.285677e-003
2.225486e+003,-6.225974e-003
2.227415e+003,-6.181029e-003
2.229343e+003,-6.152837e-003
2.231272e+003,-6.131602e-003
2.233200e+003,-6.223623e-003
2.235129e+003,-6.250830e-003
2.237057e+003,-6.225713e-003
2.238986e+003,-6.274671e-003
2.240914e+003,-6.340996e-003
2.242843e+003,-6.319053e-003
2.244771e+003,-6.268042e-003
2.246700e+003,-6.315134e-003
2.248628e+003,-6.386154e-003
2.250557e+003,-6.338253e-003
2.252485e+003,-6.291980e-003
2.254414e+003,-6.302136e-003
2.256342e+003,-6.271569e-003
2.258271e+003,-6.313599e-003
2.260199e+003,-6.433886e-003
2.262128e+003,-6.469862e-003
2.264056e+003,-6.394839e-003
2.265985e+003,-6.378514e-003
2.267913e+003,-6.523917e-003
2.269842e+003,-6.593239e-003
2.271770e+003,-6.544414e-003
2.273699e+003,-6.557927e-003
2.275627e+003,-6.542782e-003
2.277556e+003,-6.547221e-003
2.279484e+003,-6.630669e-003
2.281413e+003,-6.695210e-003
2.283341e+003,-6.722878e-003
2.285270e+003,-6.785774e-003
2.287198e+003,-6.668586e-003
2.289127e+003,-6.733285e-003
2.291055e+003,-6.739255e-003
2.292984e+003,-6.705455e-003
2.294912e+003,-6.815947e-003
2.296841e+003,-6.860990e-003
2.298769e+003,-6.840867e-003
2.300698e+003,-6.813566e-003
2.302626e+003,-6.798072e-003
2.304555e+003,-6.759579e-003
2.306483e+003,-6.675634e-003
2.308412e+003,-6.526071e-003
2.310340e+003,-6.451482e-003
2.312269e+003,-6.400879e-003
2.314197e+003,-6.327543e-003
2.316125e+003,-6.240084e-003
2.318054e+003,-6.182499e-003
2.319983e+003,-6.157378e-003
2.321911e+003,-6.027048e-003
2.323840e+003,-5.886348e-003
2.325768e+003,-5.756165e-003
2.327697e+003,-5.608117e-003
2.329625e+003,-5.500328e-003
2.331553e+003,-5.430897e-003
2.333482e+003,-5.358804e-003
2.335411e+003,-5.270463e-003
2.337339e+003,-5.246697e-003
2.339268e+003,-5.212126e-003
2.341196e+003,-5.224240e-003
2.343125e+003,-5.395065e-003
2.345053e+003,-5.559934e-003
2.346981e+003,-5.731413e-003
2.348910e+003,-5.795990e-003
2.350839e+003,-5.510438e-003
2.352767e+003,-5.238709e-003
2.354696e+003,-5.102765e-003
2.356624e+003,-4.818723e-003
2.358552e+003,-4.628460e-003
2.360481e+003,-4.672256e-003
2.362409e+003,-4.787362e-003
2.364338e+003,-4.790148e-003
2.366267e+003,-4.794441e-003
2.368195e+003,-4.940965e-003
2.370124e+003,-5.060356e-003
2.372052e+003,-5.104271e-003
2.373980e+003,-5.199980e-003
2.375909e+003,-5.368295e-003
2.377838e+003,-5.378538e-003
2.379766e+003,-5.371436e-003
2.381695e+003,-5.407631e-003
2.383623e+003,-5.450235e-003
2.385552e+003,-5.407074e-003
2.387480e+003,-5.389011e-003
2.389408e+003,-5.367182e-003
2.391337e+003,-5.357528e-003
2.393266e+003,-5.335632e-003
2.395194e+003,-5.230722e-003
2.397123e+003,-5.114292e-003
2.399051e+003,-5.119105e-003
2.400979e+003,-5.211799e-003
2.402908e+003,-5.267615e-003
2.404836e+003,-5.208263e-003
2.406765e+003,-5.183250e-003
2.408694e+003,-5.175293e-003
2.410622e+003,-5.116813e-003
2.412551e+003,-5.065235e-003
2.414479e+003,-5.060061e-003
2.416407e+003,-5.030879e-003
2.418336e+003,-4.948696e-003
2.420264e+003,-4.913479e-003
2.422193e+003,-4.779858e-003
2.424122e+003,-4.671535e-003
2.426050e+003,-4.616560e-003
2.427979e+003,-4.573283e-003
2.429907e+003,-4.581447e-003
2.431835e+003,-4.573021e-003
2.433764e+003,-4.472190e-003
2.435692e+003,-4.368677e-003
2.437621e+003,-4.276558e-003
2.439550e+003,-4.220845e-003
2.441478e+003,-4.235283e-003
2.443406e+003,-4.254969e-003
2.445335e+003,-4.250671e-003
2.447263e+003,-4.235184e-003
2.449192e+003,-4.197251e-003
2.451121e+003,-4.133224e-003
2.453049e+003,-4.094494e-003
2.454978e+003,-4.020898e-003
2.456906e+003,-3.948899e-003
2.458834e+003,-3.918132e-003
2.460763e+003,-3.770179e-003
2.462691e+003,-3.638571e-003
2.464620e+003,-3.519545e-003
2.466549e+003,-3.469486e-003
2.468477e+003,-3.538969e-003
2.470406e+003,-3.497524e-003
2.472334e+003,-3.513136e-003
2.474262e+003,-3.476553e-003
2.476191e+003,-3.337656e-003
2.478119e+003,-3.353701e-003
2.480048e+003,-3.411598e-003
2.481977e+003,-3.393187e-003
2.483905e+003,-3.364781e-003
2.485833e+003,-3.395620e-003
2.487762e+003,-3.332329e-003
2.489690e+003,-3.249692e-003
2.491619e+003,-3.275179e-003
2.493547e+003,-3.182334e-003
2.495476e+003,-3.101905e-003
2.497405e+003,-3.109307e-003
2.499333e+003,-3.097004e-003
2.501261e+003,-2.928464e-003
2.503190e+003,-2.878535e-003
2.505118e+003,-3.024324e-003
2.507047e+003,-3.047916e-003
2.508975e+003,-2.963481e-003
2.510904e+003,-2.920927e-003
2.512833e+003,-2.843577e-003
2.514761e+003,-2.794692e-003
2.516689e+003,-2.780140e-003
2.518618e+003,-2.833439e-003
2.520546e+003,-2.868133e-003
2.522475e+003,-2.820106e-003
2.524403e+003,-2.840944e-003
2.526332e+003,-2.778790e-003
2.528260e+003,-2.675203e-003
2.530189e+003,-2.599950e-003
2.532117e+003,-2.615759e-003
2.534046e+003,-2.706684e-003
2.535974e+003,-2.621095e-003
2.537903e+003,-2.564608e-003
2.539831e+003,-2.615232e-003
2.541760e+003,-2.602849e-003
2.543688e+003,-2.624487e-003
2.545617e+003,-2.634631e-003
2.547545e+003,-2.463770e-003
2.549474e+003,-2.350288e-003
2.551402e+003,-2.376453e-003
2.553331e+003,-2.381132e-003
2.555259e+003,-2.366963e-003
2.557188e+003,-2.343136e-003
2.559116e+003,-2.343235e-003
2.561045e+003,-2.308366e-003
2.562973e+003,-2.217227e-003
2.564902e+003,-2.257640e-003
2.566830e+003,-2.256816e-003
2.568759e+003,-2.178623e-003
2.570687e+003,-2.174865e-003
2.572616e+003,-2.142323e-003
2.574544e+003,-2.028493e-003
2.576473e+003,-2.032087e-003
2.578401e+003,-2.094447e-003
2.580330e+003,-2.065890e-003
2.582258e+003,-1.987167e-003
2.584187e+003,-1.908199e-003
2.586115e+003,-1.902690e-003
2.588044e+003,-1.836608e-003
2.589972e+003,-1.774409e-003
2.591901e+003,-1.814501e-003
2.593829e+003,-1.818394e-003
2.595758e+003,-1.800873e-003
2.597686e+003,-1.774013e-003
2.599615e+003,-1.723951e-003
2.601543e+003,-1.702399e-003
2.603472e+003,-1.837267e-003
2.605400e+003,-1.869436e-003
2.607329e+003,-1.813346e-003
2.609257e+003,-1.713027e-003
2.611186e+003,-1.594594e-003
2.613114e+003,-1.625492e-003
2.615043e+003,-1.705073e-003
2.616971e+003,-1.661241e-003
2.618900e+003,-1.642393e-003
2.620828e+003,-1.558443e-003
2.622757e+003,-1.450139e-003
2.624685e+003,-1.449050e-003
2.626614e+003,-1.527375e-003
2.628542e+003,-1.580662e-003
2.630471e+003,-1.553953e-003
2.632399e+003,-1.516347e-003
2.634328e+003,-1.640083e-003
2.636256e+003,-1.638498e-003
2.638185e+003,-1.509578e-003
2.640113e+003,-1.371767e-003
2.642042e+003,-1.314689e-003
2.643970e+003,-1.260278e-003
2.645899e+003,-1.189241e-003
2.647827e+003,-1.144266e-003
2.649756e+003,-1.222878e-003
2.651684e+003,-1.289318e-003
2.653613e+003,-1.168423e-003
2.655541e+003,-1.062765e-003
2.657470e+003,-9.995631e-004
2.659398e+003,-8.937650e-004
2.661327e+003,-8.162847e-004
2.663255e+003,-7.852953e-004
2.665184e+003,-8.288518e-004
2.667112e+003,-7.774236e-004
2.669041e+003,-6.900312e-004
2.670969e+003,-6.901304e-004
2.672898e+003,-5.893858e-004
2.674826e+003,-5.651970e-004
2.676755e+003,-5.977572e-004
2.678683e+003,-5.603326e-004
2.680612e+003,-4.281127e-004
2.682540e+003,-3.391270e-004
2.684469e+003,-2.743957e-004
2.686397e+003,-1.683214e-004
2.688326e+003,-1.042603e-004
2.690254e+003,-8.905517e-005
2.692183e+003,-6.026664e-005
2.694111e+003,-1.047023e-005
2.696040e+003,1.666299e-004
2.697968e+003,2.783488e-004
2.699897e+003,2.958883e-004
2.701825e+003,2.759948e-004
2.703754e+003,2.697286e-004
2.705682e+003,3.592884e-004
2.707611e+003,5.138151e-004
2.709539e+003,5.788728e-004
2.711468e+003,5.388617e-004
2.713396e+003,5.674929e-004
2.715325e+003,5.921111e-004
2.717253e+003,6.723460e-004
2.719182e+003,6.465617e-004
2.721110e+003,6.560191e-004
2.723039e+003,7.447957e-004
2.724967e+003,8.173239e-004
2.726896e+003,8.990944e-004
2.728824e+003,9.464773e-004
2.730753e+003,9.887510e-004
2.732681e+003,1.093307e-003
2.734610e+003,1.110714e-003
2.736538e+003,1.180346e-003
2.738467e+003,1.243211e-003
2.740395e+003,1.373621e-003
2.742324e+003,1.434353e-003
2.744252e+003,1.516672e-003
2.746181e+003,1.566051e-003
2.748109e+003,1.588697e-003
2.750038e+003,1.756570e-003
2.751966e+003,1.829168e-003
2.753895e+003,1.868100e-003
2.755823e+003,1.967709e-003
2.757752e+003,2.060616e-003
2.759680e+003,2.146317e-003
2.761609e+003,2.296851e-003
2.763537e+003,2.583776e-003
2.765466e+003,2.853047e-003
2.767394e+003,3.108435e-003
2.769323e+003,3.346342e-003
2.771251e+003,3.671519e-003
2.773180e+003,4.114632e-003
2.775108e+003,4.513365e-003
2.777037e+003,4.840891e-003
2.778965e+003,5.270207e-003
2.780894e+003,5.791743e-003
2.782822e+003,6.336903e-003
2.784750e+003,6.855245e-003
2.786679e+003,7.507145e-003
2.788608e+003,8.169615e-003
2.790536e+003,8.793636e-003
2.792465e+003,9.442563e-003
2.794393e+003,1.001616e-002
2.796322e+003,1.052252e-002
2.798250e+003,1.109765e-002
2.800178e+003,1.174271e-002
2.802107e+003,1.230198e-002
2.804036e+003,1.275501e-002
2.805964e+003,1.320671e-002
2.807893e+003,1.350316e-002
2.809821e+003,1.372806e-002
2.811750e+003,1.391075e-002
2.813678e+003,1.402397e-002
2.815606e+003,1.402928e-002
2.817535e+003,1.402815e-002
2.819464e+003,1.398951e-002
2.821392e+003,1.384760e-002
2.823321e+003,1.360161e-002
2.825249e+003,1.326629e-002
2.827177e+003,1.298748e-002
2.829106e+003,1.269029e-002
2.831034e+003,1.228698e-002
2.832963e+003,1.191310e-002
2.834892e+003,1.151867e-002
2.836820e+003,1.105020e-002
2.838749e+003,1.063857e-002
2.840677e+003,1.022525e-002
2.842605e+003,9.660793e-003
2.844534e+003,9.054031e-003
2.846462e+003,8.575706e-003
2.848391e+003,8.207330e-003
2.850320e+003,8.020846e-003
2.852248e+003,7.795814e-003
2.854177e+003,7.442256e-003
2.856105e+003,7.078308e-003
2.858033e+003,6.837439e-003
2.859962e+003,6.728226e-003
2.861890e+003,6.649590e-003
2.863819e+003,6.624357e-003
2.865748e+003,6.614298e-003
2.867676e+003,6.581901e-003
2.869604e+003,6.573726e-003
2.871533e+003,6.516745e-003
2.873461e+003,6.521824e-003
2.875390e+003,6.620320e-003
2.877319e+003,6.773422e-003
2.879247e+003,6.967519e-003
2.881176e+003,7.067733e-003
2.883104e+003,7.100065e-003
2.885032e+003,7.096461e-003
2.886961e+003,7.169485e-003
2.888889e+003,7.234705e-003
2.890818e+003,7.153350e-003
2.892747e+003,7.022607e-003
2.894675e+003,6.975466e-003
2.896604e+003,6.946712e-003
2.898532e+003,6.927488e-003
2.900460e+003,6.866993e-003
2.902389e+003,6.783822e-003
2.904317e+003,6.794222e-003
2.906246e+003,6.755922e-003
2.908175e+003,6.754273e-003
2.910103e+003,6.810242e-003
2.912031e+003,6.778975e-003
2.913960e+003,6.901531e-003
2.915888e+003,6.924357e-003
2.917817e+003,6.940921e-003
2.919745e+003,7.008801e-003
2.921674e+003,7.112897e-003
2.923603e+003,7.166958e-003
2.925531e+003,7.250338e-003
2.927459e+003,7.396922e-003
2.929388e+003,7.515776e-003
2.931316e+003,7.703055e-003
2.933245e+003,7.746768e-003
2.935173e+003,7.839502e-003
2.937102e+003,7.855156e-003
2.939031e+003,7.824894e-003
2.940959e+003,7.810320e-003
2.942887e+003,7.646330e-003
2.944816e+003,7.384520e-003
2.946744e+003,7.190607e-003
2.948673e+003,6.998935e-003
2.950601e+003,6.634282e-003
2.952530e+003,6.181231e-003
2.954458e+003,5.756957e-003
2.956387e+003,5.287413e-003
2.958315e+003,4.763970e-003
2.960244e+003,4.322168e-003
2.962172e+003,3.805702e-003
2.964101e+003,3.325107e-003
2.966029e+003,2.935702e-003
2.967958e+003,2.549146e-003
2.969886e+003,2.044969e-003
2.971815e+003,1.531136e-003
2.973743e+003,1.188486e-003
2.975672e+003,8.388357e-004
2.977600e+003,4.901633e-004
2.979529e+003,3.054707e-004
2.981457e+003,5.586758e-005
2.983386e+003,-1.691163e-004
2.985314e+003,-4.587304e-004
2.987243e+003,-6.684285e-004
2.989171e+003,-8.103978e-004
2.991100e+003,-9.800586e-004
2.993028e+003,-1.205432e-003
2.994957e+003,-1.339199e-003
2.996885e+003,-1.368663e-003
2.998814e+003,-1.387918e-003
3.000742e+003,-1.470151e-003
3.002671e+003,-1.595419e-003
3.004599e+003,-1.669856e-003
3.006528e+003,-1.677282e-003
3.008456e+003,-1.722862e-003
3.010385e+003,-1.839379e-003
3.012313e+003,-1.802160e-003
3.014242e+003,-1.857261e-003
3.016170e+003,-1.949532e-003
3.018099e+003,-1.953358e-003
3.020027e+003,-1.920471e-003
3.021956e+003,-2.018763e-003
3.023884e+003,-2.130322e-003
3.025813e+003,-2.205722e-003
3.027741e+003,-2.334370e-003
3.029670e+003,-2.275506e-003
3.031598e+003,-2.185843e-003
3.033527e+003,-2.234995e-003
3.035455e+003,-2.278208e-003
3.037384e+003,-2.220194e-003
3.039312e+003,-2.406308e-003
3.041241e+003,-2.615858e-003
3.043169e+003,-2.688705e-003
3.045098e+003,-2.664171e-003
3.047026e+003,-2.582461e-003
3.048955e+003,-2.613421e-003
3.050883e+003,-2.827974e-003
3.052812e+003,-2.920796e-003
3.054740e+003,-2.886599e-003
3.056669e+003,-2.961736e-003
3.058597e+003,-3.107663e-003
3.060526e+003,-3.118190e-003
3.062454e+003,-3.018303e-003
3.064383e+003,-3.023897e-003
3.066311e+003,-3.147270e-003
3.068240e+003,-3.229729e-003
3.070168e+003,-3.333447e-003
3.072097e+003,-3.383028e-003
3.074025e+003,-3.333053e-003
3.075954e+003,-3.307142e-003
3.077882e+003,-3.346402e-003
3.079811e+003,-3.472346e-003
3.081739e+003,-3.580902e-003
3.083668e+003,-3.645340e-003
3.085596e+003,-3.678984e-003
3.087525e+003,-3.798821e-003
3.089453e+003,-3.760325e-003
3.091382e+003,-3.711148e-003
3.093310e+003,-3.799084e-003
3.095239e+003,-3.922335e-003
3.097167e+003,-3.938392e-003
3.099096e+003,-3.967483e-003
3.101024e+003,-4.050312e-003
3.102953e+003,-4.011443e-003
3.104881e+003,-4.013512e-003
3.106810e+003,-4.054317e-003
3.108738e+003,-4.067348e-003
3.110667e+003,-4.078837e-003
3.112595e+003,-3.997327e-003
3.114524e+003,-4.013709e-003
3.116452e+003,-4.071353e-003
3.118381e+003,-4.165879e-003
3.120309e+003,-4.305495e-003
3.122238e+003,-4.344731e-003
3.124166e+003,-4.352079e-003
3.126095e+003,-4.346339e-003
3.128023e+003,-4.403184e-003
3.129952e+003,-4.324031e-003
3.131880e+003,-4.265600e-003
3.133809e+003,-4.350340e-003
3.135737e+003,-4.413516e-003
3.137666e+003,-4.270095e-003
3.139594e+003,-4.210443e-003
3.141523e+003,-4.296112e-003
3.143451e+003,-4.467369e-003
3.145380e+003,-4.503048e-003
3.147308e+003,-4.353818e-003
3.149237e+003,-4.353982e-003
3.151165e+003,-4.451496e-003
3.153094e+003,-4.548233e-003
3.155022e+003,-4.555414e-003
3.156951e+003,-4.457137e-003
3.158879e+003,-4.301165e-003
3.160808e+003,-4.190786e-003
3.162736e+003,-4.330100e-003
3.164665e+003,-4.442018e-003
3.166593e+003,-4.484750e-003
3.168522e+003,-4.465860e-003
3.170450e+003,-4.361592e-003
3.172379e+003,-4.260482e-003
3.174307e+003,-4.252574e-003
3.176236e+003,-4.270620e-003
3.178164e+003,-4.336497e-003
3.180093e+003,-4.271998e-003
3.182021e+003,-4.322916e-003
3.183950e+003,-4.448479e-003
3.185878e+003,-4.471271e-003
3.187807e+003,-4.364282e-003
3.189735e+003,-4.400101e-003
3.191664e+003,-4.585021e-003
3.193592e+003,-4.640557e-003
3.195521e+003,-4.568365e-003
3.197449e+003,-4.406235e-003
3.199378e+003,-4.269964e-003
3.201306e+003,-4.235446e-003
3.203235e+003,-4.419453e-003
3.205163e+003,-4.462056e-003
3.207092e+003,-4.413221e-003
3.209020e+003,-4.298409e-003
3.210948e+003,-4.212739e-003
3.212877e+003,-4.188850e-003
3.214806e+003,-4.007438e-003
3.216734e+003,-4.040792e-003
3.218663e+003,-4.171458e-003
3.220591e+003,-4.049524e-003
3.222520e+003,-3.829301e-003
3.224448e+003,-3.841682e-003
3.226376e+003,-3.760653e-003
3.228305e+003,-3.598220e-003
3.230234e+003,-3.561513e-003
3.232162e+003,-3.616031e-003
3.234091e+003,-3.696068e-003
3.236019e+003,-3.612843e-003
3.237948e+003,-3.457521e-003
3.239876e+003,-3.225190e-003
3.241804e+003,-3.051009e-003
3.243733e+003,-3.151447e-003
3.245662e+003,-3.117302e-003
3.247590e+003,-3.061735e-003
3.249519e+003,-2.951831e-003
3.251447e+003,-2.851214e-003
3.253375e+003,-2.834525e-003
3.255304e+003,-2.722818e-003
3.257232e+003,-2.452239e-003
3.259161e+003,-2.392468e-003
3.261090e+003,-2.533875e-003
3.263018e+003,-2.614014e-003
3.264947e+003,-2.574490e-003
3.266875e+003,-2.529955e-003
3.268803e+003,-2.481990e-003
3.270732e+003,-2.433590e-003
3.272660e+003,-2.219370e-003
3.274589e+003,-2.107010e-003
3.276518e+003,-2.144631e-003
3.278446e+003,-2.115154e-003
3.280375e+003,-2.227611e-003
3.282303e+003,-2.182810e-003
3.284231e+003,-2.130618e-003
3.286160e+003,-2.177073e-003
3.288088e+003,-2.209678e-003
3.290017e+003,-2.285493e-003
3.291946e+003,-2.412601e-003
3.293874e+003,-2.572975e-003
3.295802e+003,-2.633083e-003
3.297731e+003,-2.643753e-003
3.299659e+003,-2.755711e-003
3.301588e+003,-2.819349e-003
3.303516e+003,-2.890154e-003
3.305445e+003,-3.020672e-003
3.307374e+003,-3.127993e-003
3.309302e+003,-3.307602e-003
3.311230e+003,-3.379905e-003
3.313159e+003,-3.456798e-003
3.315087e+003,-3.620236e-003
3.317016e+003,-3.757368e-003
3.318944e+003,-3.967319e-003
3.320873e+003,-3.945320e-003
3.322802e+003,-4.077655e-003
3.324730e+003,-4.451922e-003
3.326658e+003,-4.525707e-003
3.328587e+003,-4.334791e-003
3.330515e+003,-4.233773e-003
3.332444e+003,-4.273803e-003
3.334372e+003,-4.506327e-003
3.336301e+003,-4.636722e-003
3.338229e+003,-4.689301e-003
3.340158e+003,-4.601446e-003
3.342086e+003,-4.461498e-003
3.344015e+003,-4.497768e-003
3.345943e+003,-4.664094e-003
3.347872e+003,-4.850769e-003
3.349800e+003,-4.749838e-003
3.351729e+003,-4.692218e-003
3.353657e+003,-5.017942e-003
3.355586e+003,-5.312557e-003
3.357514e+003,-5.494962e-003
3.359443e+003,-5.467283e-003
3.361371e+003,-5.295078e-003
3.363300e+003,-5.366364e-003
3.365229e+003,-5.491691e-003
3.367157e+003,-5.682262e-003
3.369085e+003,-5.967211e-003
3.371014e+003,-6.065703e-003
3.372942e+003,-6.051098e-003
3.374871e+003,-6.134706e-003
3.376799e+003,-6.226170e-003
3.378728e+003,-6.469699e-003
3.380656e+003,-6.570231e-003
3.382585e+003,-6.579760e-003
3.384513e+003,-6.711654e-003
3.386442e+003,-6.802997e-003
3.388370e+003,-6.756056e-003
3.390299e+003,-6.849999e-003
3.392227e+003,-6.978909e-003
3.394156e+003,-6.946204e-003
3.396084e+003,-6.918127e-003
3.398013e+003,-6.994559e-003
3.399941e+003,-6.950117e-003
3.401870e+003,-7.039682e-003
3.403798e+003,-7.112898e-003
3.405727e+003,-7.204646e-003
3.407655e+003,-7.232769e-003
3.409584e+003,-7.146699e-003
3.411512e+003,-7.190795e-003
3.413441e+003,-7.299241e-003
3.415369e+003,-7.259066e-003
3.417298e+003,-7.264377e-003
3.419226e+003,-7.323546e-003
3.421155e+003,-7.404826e-003
3.423083e+003,-7.453326e-003
3.425012e+003,-7.482540e-003
3.426940e+003,-7.630341e-003
3.428869e+003,-7.664720e-003
3.430797e+003,-7.542168e-003
3.432726e+003,-7.591564e-003
3.434654e+003,-7.757035e-003
3.436583e+003,-7.890361e-003
3.438511e+003,-7.830195e-003
3.440440e+003,-7.762372e-003
3.442368e+003,-7.646197e-003
3.444297e+003,-7.660097e-003
3.446225e+003,-7.681648e-003
3.448154e+003,-7.752771e-003
3.450082e+003,-7.817341e-003
3.452011e+003,-7.902953e-003
3.453939e+003,-8.012295e-003
3.455868e+003,-8.117186e-003
3.457796e+003,-7.974593e-003
3.459725e+003,-7.902465e-003
3.461653e+003,-7.955724e-003
3.463582e+003,-8.018312e-003
3.465510e+003,-8.057246e-003
3.467439e+003,-8.140307e-003
3.469367e+003,-8.098096e-003
3.471296e+003,-8.071427e-003
3.473224e+003,-8.111495e-003
3.475153e+003,-8.290030e-003
3.477081e+003,-8.253816e-003
3.479010e+003,-8.081477e-003
3.480938e+003,-7.911315e-003
3.482867e+003,-7.982660e-003
3.484795e+003,-8.097640e-003
3.486724e+003,-8.242892e-003
3.488652e+003,-8.165378e-003
3.490581e+003,-8.238178e-003
3.492509e+003,-8.370836e-003
3.494438e+003,-8.252450e-003
3.496366e+003,-8.026022e-003
3.498295e+003,-8.199650e-003
3.500223e+003,-8.400834e-003
3.502152e+003,-8.431253e-003
3.504080e+003,-8.516354e-003
3.506009e+003,-8.420594e-003
3.507937e+003,-8.264218e-003
3.509866e+003,-8.276052e-003
3.511794e+003,-8.345290e-003
3.513723e+003,-8.511578e-003
3.515651e+003,-8.606409e-003
3.517580e+003,-8.493415e-003
3.519508e+003,-8.617355e-003
3.521437e+003,-8.610762e-003
3.523365e+003,-8.537115e-003
3.525294e+003,-8.553619e-003
3.527222e+003,-8.514827e-003
3.529151e+003,-8.410486e-003
3.531079e+003,-8.332678e-003
3.533008e+003,-8.346752e-003
3.534936e+003,-8.491888e-003
3.536865e+003,-8.512293e-003
3.538793e+003,-8.374834e-003
3.540722e+003,-8.200561e-003
3.542650e+003,-8.172695e-003
3.544579e+003,-8.275467e-003
3.546507e+003,-8.428523e-003
3.548436e+003,-8.631843e-003
3.550364e+003,-8.667150e-003
3.552293e+003,-8.497574e-003
3.554221e+003,-8.401809e-003
3.556150e+003,-8.493708e-003
3.558078e+003,-8.572657e-003
3.560007e+003,-8.517167e-003
3.561935e+003,-8.280733e-003
3.563864e+003,-8.302481e-003
3.565792e+003,-8.383024e-003
3.567721e+003,-8.290941e-003
3.569649e+003,-8.453090e-003
3.571578e+003,-8.719665e-003
3.573506e+003,-8.576913e-003
3.575435e+003,-8.254010e-003
3.577363e+003,-8.265291e-003
3.579292e+003,-8.426443e-003
3.581220e+003,-8.549363e-003
3.583149e+003,-8.608585e-003
3.585077e+003,-8.394107e-003
3.587006e+003,-8.281969e-003
3.588934e+003,-8.322537e-003
3.590863e+003,-8.464203e-003
3.592791e+003,-8.573761e-003
3.594720e+003,-8.563170e-003
3.596648e+003,-8.348702e-003
3.598577e+003,-8.079655e-003
3.600505e+003,-7.975113e-003
3.602434e+003,-8.300530e-003
3.604362e+003,-8.364499e-003
3.606291e+003,-8.315483e-003
3.608219e+003,-8.337001e-003
3.610148e+003,-8.241819e-003
3.612076e+003,-8.265845e-003
3.614005e+003,-8.396935e-003
3.615933e+003,-8.579869e-003
3.617862e+003,-8.414874e-003
3.619790e+003,-8.283626e-003
3.621719e+003,-8.431057e-003
3.623647e+003,-8.408764e-003
3.625576e+003,-8.350718e-003
3.627504e+003,-8.171427e-003
3.629433e+003,-8.100373e-003
3.631361e+003,-8.308657e-003
3.633290e+003,-8.581526e-003
3.635218e+003,-8.652533e-003
3.637146e+003,-8.503260e-003
3.639075e+003,-8.344900e-003
3.641004e+003,-8.253750e-003
3.642932e+003,-8.273711e-003
3.644861e+003,-8.310867e-003
3.646789e+003,-8.293021e-003
3.648718e+003,-8.373892e-003
3.650646e+003,-8.460564e-003
3.652574e+003,-8.556056e-003
3.654503e+003,-8.564535e-003
3.656432e+003,-8.355398e-003
3.658360e+003,-8.482790e-003
3.660289e+003,-8.690079e-003
3.662217e+003,-8.795327e-003
3.664146e+003,-8.629536e-003
3.666074e+003,-8.536660e-003
3.668002e+003,-8.602900e-003
3.669931e+003,-8.591791e-003
3.671860e+003,-8.843217e-003
3.673788e+003,-9.041572e-003
3.675717e+003,-8.933723e-003
3.677645e+003,-8.806529e-003
3.679573e+003,-8.869546e-003
3.681502e+003,-8.812211e-003
3.683430e+003,-8.696997e-003
3.685359e+003,-8.420204e-003
3.687288e+003,-8.264316e-003
3.689216e+003,-8.383675e-003
3.691145e+003,-8.508882e-003
3.693073e+003,-8.512715e-003
3.695001e+003,-8.632232e-003
3.696930e+003,-8.696088e-003
3.698858e+003,-8.826139e-003
3.700787e+003,-8.600269e-003
3.702716e+003,-8.339504e-003
3.704644e+003,-8.429595e-003
3.706573e+003,-8.509856e-003
3.708501e+003,-8.447761e-003
3.710429e+003,-8.419684e-003
3.712358e+003,-8.310510e-003
3.714286e+003,-8.513982e-003
3.716215e+003,-8.768798e-003
3.718144e+003,-8.553716e-003
3.720072e+003,-8.397747e-003
3.722000e+003,-8.432942e-003
3.723929e+003,-8.329201e-003
3.725857e+003,-8.141933e-003
3.727786e+003,-7.911152e-003
3.729714e+003,-8.034153e-003
3.731643e+003,-8.263731e-003
3.733572e+003,-8.499393e-003
3.735500e+003,-8.516614e-003
3.737428e+003,-8.389362e-003
3.739357e+003,-8.125934e-003
3.741285e+003,-7.889906e-003
3.743214e+003,-7.817666e-003
3.745142e+003,-7.569748e-003
3.747071e+003,-7.627248e-003
3.749000e+003,-7.653749e-003
3.750928e+003,-7.680736e-003
3.752856e+003,-7.803672e-003
3.754785e+003,-7.735260e-003
3.756713e+003,-7.466419e-003
3.758642e+003,-7.419223e-003
3.760570e+003,-7.564702e-003
3.762499e+003,-7.569683e-003
3.764427e+003,-7.492245e-003
3.766356e+003,-7.488728e-003
3.768284e+003,-7.449189e-003
3.770213e+003,-7.440655e-003
3.772141e+003,-7.681095e-003
3.774070e+003,-7.647336e-003
3.775998e+003,-7.507780e-003
3.777927e+003,-7.536014e-003
3.779855e+003,-7.715014e-003
3.781784e+003,-7.697599e-003
3.783712e+003,-7.512599e-003
3.785641e+003,-7.385183e-003
3.787569e+003,-7.496577e-003
3.789498e+003,-7.577921e-003
3.791426e+003,-7.664264e-003
3.793355e+003,-7.686694e-003
3.795283e+003,-7.437496e-003
3.797212e+003,-7.446746e-003
3.799140e+003,-7.840804e-003
3.801069e+003,-7.580591e-003
3.802997e+003,-7.382642e-003
3.804926e+003,-7.686075e-003
3.806854e+003,-7.739133e-003
3.808783e+003,-7.802957e-003
3.810711e+003,-7.576717e-003
3.812640e+003,-7.422578e-003
3.814568e+003,-7.420037e-003
3.816497e+003,-7.281484e-003
3.818425e+003,-7.299404e-003
3.820354e+003,-7.124796e-003
3.822282e+003,-7.291258e-003
3.824211e+003,-7.418213e-003
3.826139e+003,-7.459286e-003
3.828068e+003,-7.394630e-003
3.829996e+003,-7.312990e-003
3.831925e+003,-7.200996e-003
3.833853e+003,-7.067099e-003
3.835782e+003,-7.137638e-003
3.837710e+003,-7.043920e-003
3.839639e+003,-7.261868e-003
3.841567e+003,-7.339380e-003
3.843496e+003,-7.258968e-003
3.845424e+003,-7.316346e-003
3.847353e+003,-7.359318e-003
3.849281e+003,-7.238569e-003
3.851210e+003,-7.032444e-003
3.853138e+003,-6.848662e-003
3.855067e+003,-7.072999e-003
3.856995e+003,-7.283308e-003
3.858924e+003,-7.072021e-003
3.860852e+003,-6.970659e-003
3.862781e+003,-7.010894e-003
3.864709e+003,-6.863926e-003
3.866638e+003,-6.921193e-003
3.868566e+003,-7.115082e-003
3.870495e+003,-6.902702e-003
3.872423e+003,-7.019632e-003
3.874352e+003,-7.032346e-003
3.876280e+003,-7.150871e-003
3.878209e+003,-7.339934e-003
3.880137e+003,-7.133205e-003
3.882066e+003,-6.936878e-003
3.883994e+003,-7.077074e-003
3.885923e+003,-6.997918e-003
3.887851e+003,-7.087375e-003
3.889780e+003,-7.332147e-003
3.891708e+003,-7.328205e-003
3.893637e+003,-7.241567e-003
3.895565e+003,-7.188155e-003
3.897494e+003,-7.023740e-003
3.899422e+003,-6.875732e-003
3.901351e+003,-6.936943e-003
3.903279e+003,-6.998537e-003
3.905208e+003,-6.855054e-003
3.907136e+003,-6.772367e-003
3.909065e+003,-6.858870e-003
3.910993e+003,-6.963975e-003
3.912922e+003,-6.894843e-003
3.914850e+003,-6.798104e-003
3.916779e+003,-6.881178e-003
3.918707e+003,-6.912062e-003
3.920636e+003,-6.967660e-003
3.922564e+003,-7.031140e-003
3.924493e+003,-6.856522e-003
3.926421e+003,-6.945747e-003
3.928350e+003,-7.073912e-003
3.930278e+003,-6.937400e-003
3.932207e+003,-6.756024e-003
3.934135e+003,-6.595588e-003
3.936064e+003,-6.635760e-003
3.937992e+003,-6.811119e-003
3.939921e+003,-6.879189e-003
3.941849e+003,-6.862327e-003
3.943778e+003,-6.858446e-003
3.945706e+003,-7.021751e-003
3.947635e+003,-6.983278e-003
3.949563e+003,-6.801236e-003
3.951492e+003,-6.709632e-003
3.953420e+003,-6.700039e-003
3.955349e+003,-6.738472e-003
3.957277e+003,-6.851728e-003
3.959206e+003,-6.959345e-003
3.961134e+003,-6.989114e-003
3.963063e+003,-6.800975e-003
3.964991e+003,-6.866241e-003
3.966920e+003,-7.031597e-003
3.968848e+003,-7.021718e-003
3.970777e+003,-6.886331e-003
3.972705e+003,-6.738374e-003
3.974634e+003,-6.675536e-003
3.976562e+003,-6.639773e-003
3.978491e+003,-6.881798e-003
3.980419e+003,-6.970105e-003
3.982348e+003,-6.958628e-003
3.984276e+003,-6.759220e-003
3.986205e+003,-6.692404e-003
3.988133e+003,-6.576301e-003
3.990062e+003,-6.508478e-003
3.991990e+003,-6.603323e-003
3.993919e+003,-6.700855e-003
3.995847e+003,-6.663594e-003
3.997776e+003,-6.638207e-003
3.999704e+003,-6.711817e-003
4.001633e+003,0.000000e+000
