3.991989e+002,1.749361e-002
4.011274e+002,1.496396e-002
4.030559e+002,5.908714e-003
4.049844e+002,-2.786099e-003
4.069129e+002,1.842145e-003
4.088414e+002,1.309701e-002
4.107699e+002,1.348573e-002
4.126984e+002,1.183256e-002
4.146269e+002,5.124004e-003
4.165554e+002,4.326720e-003
4.184839e+002,1.224584e-002
4.204124e+002,1.333075e-002
4.223409e+002,1.160483e-002
4.242694e+002,1.371311e-002
4.261979e+002,1.214859e-002
4.281264e+002,1.113250e-002
4.300549e+002,1.118801e-002
4.319834e+002,3.371586e-003
4.339119e+002,3.651938e-003
4.358404e+002,1.256831e-002
4.377689e+002,1.532181e-002
4.396974e+002,9.861541e-003
4.416259e+002,4.876375e-003
4.435544e+002,8.656518e-003
4.454829e+002,1.278658e-002
4.474114e+002,1.484833e-002
4.493399e+002,1.094941e-002
4.512684e+002,5.811959e-003
4.531969e+002,6.510960e-003
4.551254e+002,8.522989e-003
4.570539e+002,7.986521e-003
4.589824e+002,7.166285e-003
4.609109e+002,8.537756e-003
4.628394e+002,9.185929e-003
4.647679e+002,8.704416e-003
4.666964e+002,8.027158e-003
4.686249e+002,5.584578e-003
4.705533e+002,4.843672e-003
4.724819e+002,7.593018e-003
4.744103e+002,8.844932e-003
4.763389e+002,8.631978e-003
4.782673e+002,8.893088e-003
4.801959e+002,8.218473e-003
4.821243e+002,1.008724e-002
4.840529e+002,1.150156e-002
4.859813e+002,1.112746e-002
4.879099e+002,9.659878e-003
4.898383e+002,8.794244e-003
4.917668e+002,8.062768e-003
4.936953e+002,9.192121e-003
4.956238e+002,9.568244e-003
4.975523e+002,8.202705e-003
4.994808e+002,8.272470e-003
5.014093e+002,8.934789e-003
5.033378e+002,8.632046e-003
5.052663e+002,7.157931e-003
5.071948e+002,6.896044e-003
5.091233e+002,6.528921e-003
5.110518e+002,4.766917e-003
5.129803e+002,5.249984e-003
5.149088e+002,5.536988e-003
5.168373e+002,6.154614e-003
5.187658e+002,7.004895e-003
5.206943e+002,7.209640e-003
5.226228e+002,5.583504e-003
5.245513e+002,4.189665e-003
5.264798e+002,3.982627e-003
5.284083e+002,6.056560e-003
5.303368e+002,5.771261e-003
5.322653e+002,3.657886e-003
5.341938e+002,3.602789e-003
5.361223e+002,4.671152e-003
5.380508e+002,5.132117e-003
5.399792e+002,6.329943e-003
5.419078e+002,5.942371e-003
5.438363e+002,5.746179e-003
5.457648e+002,6.072789e-003
5.476932e+002,5.845473e-003
5.496218e+002,5.488800e-003
5.515503e+002,6.455467e-003
5.534788e+002,7.420414e-003
5.554072e+002,8.084169e-003
5.573358e+002,8.450650e-003
5.592643e+002,8.758102e-003
5.611927e+002,7.120172e-003
5.631212e+002,7.252326e-003
5.650497e+002,7.921796e-003
5.669783e+002,8.002452e-003
5.689067e+002,8.294118e-003
5.708352e+002,8.238902e-003
5.727637e+002,7.138091e-003
5.746923e+002,6.116102e-003
5.766207e+002,6.771639e-003
5.785492e+002,7.252326e-003
5.804777e+002,-2.750038e-005
5.824063e+002,-1.912785e-003
5.843347e+002,5.073213e-003
5.862632e+002,8.191798e-003
5.881917e+002,8.251837e-003
5.901202e+002,7.573799e-003
5.920487e+002,7.052982e-003
5.939772e+002,9.590702e-003
5.959057e+002,1.211209e-002
5.978342e+002,1.114069e-002
5.997627e+002,1.150571e-002
6.016912e+002,1.307601e-002
6.036197e+002,1.339434e-002
6.055482e+002,1.310569e-002
6.074767e+002,1.437146e-002
6.094052e+002,1.581800e-002
6.113337e+002,1.773774e-002
6.132622e+002,1.761758e-002
6.151907e+002,1.624359e-002
6.171192e+002,1.515715e-002
6.190477e+002,1.493981e-002
6.209762e+002,1.512689e-002
6.229047e+002,1.424161e-002
6.248332e+002,1.073732e-002
6.267617e+002,7.859239e-003
6.286902e+002,6.355832e-003
6.306187e+002,5.257329e-003
6.325472e+002,4.920072e-003
6.344756e+002,5.156593e-003
6.364042e+002,4.814892e-003
6.383326e+002,4.414944e-003
6.402612e+002,3.433233e-003
6.421896e+002,3.604827e-003
6.441182e+002,3.588256e-003
6.460466e+002,2.939805e-003
6.479752e+002,2.904446e-003
6.499036e+002,2.637010e-003
6.518322e+002,2.308643e-003
6.537606e+002,2.891270e-003
6.556891e+002,3.157060e-003
6.576177e+002,2.456734e-003
6.595461e+002,1.834791e-003
6.614746e+002,9.956919e-004
6.634031e+002,1.224304e-003
6.653317e+002,2.139691e-003
6.672601e+002,3.718938e-003
6.691886e+002,3.034355e-003
6.711171e+002,1.946407e-003
6.730457e+002,2.437807e-003
6.749741e+002,2.760204e-003
6.769026e+002,2.439540e-003
6.788311e+002,2.303913e-003
6.807596e+002,2.479160e-003
6.826881e+002,2.490690e-003
6.846166e+002,2.237131e-003
6.865451e+002,2.327530e-003
6.884736e+002,2.739963e-003
6.904021e+002,2.817928e-003
6.923306e+002,2.947011e-003
6.942591e+002,3.245682e-003
6.961876e+002,3.687091e-003
6.981161e+002,3.735313e-003
7.000446e+002,3.582610e-003
7.019731e+002,3.620129e-003
7.039016e+002,3.579804e-003
7.058301e+002,3.616855e-003
7.077585e+002,3.765092e-003
7.096871e+002,4.137177e-003
7.116156e+002,4.747421e-003
7.135441e+002,4.825881e-003
7.154725e+002,4.501245e-003
7.174011e+002,4.428635e-003
7.193296e+002,4.669813e-003
7.212581e+002,5.363689e-003
7.231865e+002,5.878486e-003
7.251151e+002,5.951339e-003
7.270436e+002,6.461923e-003
7.289720e+002,6.802030e-003
7.309005e+002,7.076051e-003
7.328290e+002,7.219882e-003
7.347576e+002,7.232347e-003
7.366860e+002,7.334778e-003
7.386145e+002,7.335149e-003
7.405430e+002,7.537217e-003
7.424716e+002,8.017505e-003
7.444000e+002,8.073569e-003
7.463285e+002,7.837815e-003
7.482570e+002,7.647612e-003
7.501855e+002,7.897164e-003
7.521140e+002,8.553267e-003
7.540425e+002,9.106609e-003
7.559710e+002,9.326092e-003
7.578995e+002,9.291428e-003
7.598280e+002,9.144744e-003
7.617565e+002,9.197469e-003
7.636850e+002,9.512935e-003
7.656135e+002,1.020296e-002
7.675420e+002,1.025826e-002
7.694705e+002,9.579693e-003
7.713990e+002,9.364855e-003
7.733275e+002,9.765594e-003
7.752560e+002,9.871947e-003
7.771844e+002,9.559065e-003
7.791130e+002,8.934350e-003
7.810415e+002,8.407136e-003
7.829700e+002,8.319786e-003
7.848984e+002,8.280204e-003
7.868270e+002,8.100743e-003
7.887555e+002,7.939006e-003
7.906840e+002,7.407910e-003
7.926124e+002,6.917388e-003
7.945410e+002,6.830168e-003
7.964695e+002,6.635997e-003
7.983979e+002,6.258976e-003
8.003264e+002,6.026859e-003
8.022549e+002,5.984428e-003
8.041835e+002,6.219783e-003
8.061119e+002,6.208792e-003
8.080404e+002,6.119362e-003
8.099689e+002,6.401729e-003
8.118975e+002,6.896112e-003
8.138259e+002,7.244577e-003
8.157545e+002,6.851273e-003
8.176830e+002,7.190809e-003
8.196115e+002,7.580779e-003
8.215399e+002,7.430188e-003
8.234684e+002,7.619522e-003
8.253970e+002,8.148952e-003
8.273254e+002,8.216312e-003
8.292539e+002,7.711082e-003
8.311824e+002,7.176458e-003
8.331110e+002,7.265938e-003
8.350394e+002,7.586712e-003
8.369679e+002,8.183796e-003
8.388964e+002,8.386361e-003
8.408250e+002,8.301716e-003
8.427534e+002,8.224619e-003
8.446819e+002,7.894093e-003
8.466104e+002,7.739752e-003
8.485389e+002,7.840886e-003
8.504674e+002,7.619926e-003
8.523959e+002,7.398675e-003
8.543244e+002,7.715467e-003
8.562529e+002,7.781444e-003
8.581814e+002,7.834408e-003
8.601099e+002,7.722651e-003
8.620384e+002,7.344820e-003
8.639669e+002,7.533172e-003
8.658954e+002,7.591635e-003
8.678239e+002,7.169047e-003
8.697524e+002,6.982571e-003
8.716809e+002,7.211392e-003
8.736094e+002,7.359041e-003
8.755378e+002,7.011259e-003
8.774664e+002,7.254785e-003
8.793949e+002,7.269576e-003
8.813234e+002,6.832659e-003
8.832518e+002,7.197075e-003
8.851804e+002,7.611193e-003
8.871089e+002,7.622489e-003
8.890374e+002,7.210617e-003
8.909658e+002,7.206709e-003
8.928943e+002,7.479570e-003
8.948229e+002,7.553637e-003
8.967513e+002,7.538904e-003
8.986798e+002,7.438784e-003
9.006083e+002,7.394125e-003
9.025369e+002,7.533239e-003
9.044653e+002,7.719109e-003
9.063938e+002,7.399247e-003
9.083223e+002,6.909510e-003
9.102509e+002,6.523506e-003
9.121793e+002,6.672099e-003
9.141078e+002,6.392515e-003
9.160364e+002,6.065027e-003
9.179648e+002,6.095638e-003
9.198933e+002,6.079139e-003
9.218218e+002,5.778379e-003
9.237504e+002,5.538767e-003
9.256788e+002,5.265847e-003
9.276073e+002,4.906164e-003
9.295358e+002,4.721193e-003
9.314644e+002,4.567137e-003
9.333928e+002,4.564860e-003
9.353213e+002,4.501513e-003
9.372498e+002,4.456720e-003
9.391783e+002,4.043123e-003
9.411068e+002,3.864034e-003
9.430353e+002,4.191673e-003
9.449637e+002,4.357978e-003
9.468923e+002,4.352523e-003
9.488208e+002,4.361492e-003
9.507493e+002,4.411430e-003
9.526777e+002,4.323674e-003
9.546063e+002,4.397472e-003
9.565348e+002,4.583478e-003
9.584633e+002,4.547818e-003
9.603917e+002,4.404300e-003
9.623203e+002,4.372102e-003
9.642488e+002,4.568008e-003
9.661772e+002,4.554983e-003
9.681057e+002,4.273278e-003
9.700343e+002,4.097472e-003
9.719628e+002,4.133297e-003
9.738912e+002,3.817034e-003
9.758197e+002,3.576563e-003
9.777483e+002,3.578166e-003
9.796768e+002,3.332185e-003
9.816052e+002,3.077833e-003
9.835337e+002,2.991348e-003
9.854623e+002,2.842641e-003
9.873907e+002,2.736129e-003
9.893192e+002,2.664346e-003
9.912477e+002,2.230736e-003
9.931763e+002,2.100501e-003
9.951047e+002,2.059517e-003
9.970332e+002,1.698088e-003
9.989617e+002,1.612542e-003
1.000890e+003,1.655879e-003
1.002819e+003,1.727029e-003
1.004747e+003,1.773105e-003
1.006676e+003,2.041440e-003
1.008604e+003,2.288257e-003
1.010533e+003,2.247056e-003
1.012461e+003,2.218813e-003
1.014390e+003,2.150646e-003
1.016318e+003,2.391961e-003
1.018247e+003,2.797085e-003
1.020175e+003,3.018940e-003
1.022104e+003,3.223550e-003
1.024032e+003,3.556519e-003
1.025961e+003,3.948788e-003
1.027889e+003,4.262771e-003
1.029818e+003,4.614688e-003
1.031746e+003,4.997155e-003
1.033675e+003,5.268028e-003
1.035603e+003,5.425485e-003
1.037532e+003,5.936022e-003
1.039460e+003,6.566461e-003
1.041389e+003,6.874836e-003
1.043317e+003,6.998935e-003
1.045246e+003,7.242185e-003
1.047174e+003,7.288950e-003
1.049103e+003,7.178142e-003
1.051031e+003,7.004221e-003
1.052960e+003,6.981729e-003
1.054888e+003,7.152407e-003
1.056817e+003,7.284065e-003
1.058745e+003,7.314964e-003
1.060674e+003,7.302091e-003
1.062602e+003,7.288041e-003
1.064531e+003,7.216344e-003
1.066459e+003,7.261659e-003
1.068388e+003,7.165308e-003
1.070316e+003,7.056181e-003
1.072245e+003,7.251214e-003
1.074173e+003,7.276787e-003
1.076102e+003,7.029140e-003
1.078030e+003,6.977587e-003
1.079959e+003,6.915335e-003
1.081887e+003,6.901161e-003
1.083816e+003,7.116737e-003
1.085744e+003,7.271092e-003
1.087673e+003,7.286120e-003
1.089601e+003,7.525789e-003
1.091530e+003,7.795645e-003
1.093458e+003,7.721605e-003
1.095387e+003,7.658201e-003
1.097315e+003,7.663495e-003
1.099244e+003,7.682853e-003
1.101172e+003,7.794229e-003
1.103101e+003,7.803506e-003
1.105029e+003,7.955339e-003
1.106958e+003,8.020745e-003
1.108886e+003,8.135380e-003
1.110815e+003,7.995735e-003
1.112743e+003,7.847937e-003
1.114672e+003,7.936677e-003
1.116600e+003,8.224045e-003
1.118529e+003,8.280947e-003
1.120457e+003,8.143078e-003
1.122386e+003,8.237890e-003
1.124314e+003,8.218068e-003
1.126243e+003,7.998705e-003
1.128171e+003,7.857283e-003
1.130100e+003,7.994858e-003
1.132028e+003,7.895038e-003
1.133957e+003,7.674995e-003
1.135885e+003,7.399686e-003
1.137814e+003,6.983075e-003
1.139742e+003,6.370727e-003
1.141671e+003,6.067110e-003
1.143599e+003,5.892223e-003
1.145528e+003,5.532659e-003
1.147456e+003,5.007177e-003
1.149385e+003,4.675104e-003
1.151313e+003,4.399748e-003
1.153242e+003,4.179495e-003
1.155170e+003,4.118311e-003
1.157099e+003,3.945043e-003
1.159027e+003,3.796042e-003
1.160956e+003,3.638439e-003
1.162884e+003,3.608636e-003
1.164813e+003,3.566708e-003
1.166741e+003,3.484934e-003
1.168670e+003,3.509418e-003
1.170598e+003,3.482997e-003
1.172526e+003,3.496391e-003
1.174455e+003,3.395295e-003
1.176384e+003,3.399737e-003
1.178312e+003,3.399536e-003
1.180240e+003,3.325574e-003
1.182169e+003,3.331050e-003
1.184098e+003,3.190070e-003
1.186026e+003,3.043097e-003
1.187954e+003,2.957853e-003
1.189883e+003,2.781578e-003
1.191812e+003,2.586209e-003
1.193740e+003,2.426412e-003
1.195668e+003,2.190206e-003
1.197597e+003,1.952998e-003
1.199526e+003,1.821315e-003
1.201454e+003,1.858782e-003
1.203382e+003,1.886303e-003
1.205311e+003,1.643273e-003
1.207240e+003,1.510055e-003
1.209168e+003,1.545534e-003
1.211096e+003,1.571039e-003
1.213025e+003,1.621622e-003
1.214953e+003,1.699619e-003
1.216882e+003,1.614837e-003
1.218810e+003,1.410285e-003
1.220739e+003,1.391471e-003
1.222667e+003,1.583909e-003
1.224596e+003,1.761161e-003
1.226524e+003,1.808206e-003
1.228453e+003,1.951899e-003
1.230381e+003,1.922877e-003
1.232310e+003,1.937887e-003
1.234238e+003,2.054757e-003
1.236167e+003,2.123042e-003
1.238095e+003,2.313140e-003
1.240024e+003,2.469030e-003
1.241952e+003,2.489457e-003
1.243881e+003,2.287225e-003
1.245809e+003,2.119646e-003
1.247738e+003,2.166263e-003
1.249666e+003,2.339856e-003
1.251595e+003,2.363742e-003
1.253523e+003,2.193537e-003
1.255452e+003,2.064212e-003
1.257380e+003,1.903974e-003
1.259309e+003,1.697623e-003
1.261237e+003,1.738506e-003
1.263166e+003,1.880246e-003
1.265094e+003,2.160968e-003
1.267023e+003,2.421214e-003
1.268951e+003,2.403722e-003
1.270880e+003,2.347085e-003
1.272808e+003,2.354914e-003
1.274737e+003,2.444971e-003
1.276665e+003,2.513552e-003
1.278594e+003,2.432376e-003
1.280522e+003,2.354381e-003
1.282451e+003,2.268439e-003
1.284379e+003,2.264475e-003
1.286308e+003,2.330062e-003
1.288236e+003,2.430110e-003
1.290165e+003,2.483292e-003
1.292093e+003,2.418582e-003
1.294022e+003,2.360977e-003
1.295950e+003,2.445005e-003
1.297879e+003,2.474128e-003
1.299807e+003,2.376202e-003
1.301736e+003,2.215283e-003
1.303664e+003,2.023597e-003
1.305593e+003,1.880146e-003
1.307521e+003,1.914990e-003
1.309450e+003,1.939651e-003
1.311378e+003,1.674006e-003
1.313307e+003,1.448548e-003
1.315235e+003,1.427339e-003
1.317164e+003,1.567348e-003
1.319092e+003,1.487147e-003
1.321021e+003,1.345967e-003
1.322949e+003,1.302063e-003
1.324878e+003,1.449712e-003
1.326806e+003,1.698321e-003
1.328735e+003,1.986249e-003
1.330663e+003,2.153110e-003
1.332592e+003,2.232502e-003
1.334520e+003,2.352482e-003
1.336449e+003,2.555412e-003
1.338377e+003,2.774976e-003
1.340306e+003,2.765739e-003
1.342234e+003,2.710522e-003
1.344163e+003,2.824265e-003
1.346091e+003,2.943908e-003
1.348020e+003,3.189403e-003
1.349948e+003,3.226521e-003
1.351877e+003,3.203255e-003
1.353805e+003,3.233331e-003
1.355734e+003,3.188935e-003
1.357662e+003,3.039327e-003
1.359591e+003,3.063852e-003
1.361519e+003,3.099157e-003
1.363448e+003,2.798219e-003
1.365376e+003,2.217181e-003
1.367305e+003,1.884373e-003
1.369233e+003,1.704209e-003
1.371162e+003,1.594251e-003
1.373090e+003,1.801718e-003
1.375019e+003,1.749917e-003
1.376947e+003,1.490006e-003
1.378876e+003,1.370497e-003
1.380804e+003,1.256901e-003
1.382733e+003,1.310970e-003
1.384661e+003,1.418130e-003
1.386590e+003,1.789906e-003
1.388518e+003,1.612043e-003
1.390447e+003,1.123935e-003
1.392375e+003,1.166890e-003
1.394304e+003,1.524486e-003
1.396232e+003,1.216230e-003
1.398161e+003,9.961568e-004
1.400089e+003,8.032488e-004
1.402018e+003,3.764001e-004
1.403946e+003,1.895681e-004
1.405875e+003,-6.229155e-006
1.407803e+003,-2.403210e-004
1.409732e+003,-2.819123e-004
1.411660e+003,-2.773427e-004
1.413589e+003,-2.755546e-004
1.415517e+003,-6.109487e-005
1.417446e+003,7.092496e-004
1.419374e+003,1.299106e-003
1.421303e+003,7.685278e-004
1.423231e+003,9.264543e-004
1.425160e+003,1.388745e-003
1.427088e+003,1.491070e-003
1.429017e+003,1.881943e-003
1.430945e+003,2.183479e-003
1.432874e+003,2.710055e-003
1.434802e+003,3.881385e-003
1.436731e+003,4.837239e-003
1.438659e+003,4.293054e-003
1.440588e+003,4.110183e-003
1.442516e+003,4.475400e-003
1.444445e+003,4.820286e-003
1.446373e+003,5.269235e-003
1.448302e+003,5.641638e-003
1.450230e+003,5.606159e-003
1.452159e+003,5.686251e-003
1.454087e+003,6.274876e-003
1.456016e+003,7.914575e-003
1.457944e+003,7.940086e-003
1.459873e+003,6.341139e-003
1.461801e+003,5.504403e-003
1.463730e+003,5.598372e-003
1.465658e+003,5.363388e-003
1.467587e+003,4.485477e-003
1.469515e+003,4.225297e-003
1.471444e+003,4.781691e-003
1.473372e+003,4.600590e-003
1.475301e+003,3.541586e-003
1.477229e+003,2.586409e-003
1.479158e+003,1.745093e-003
1.481086e+003,1.400446e-003
1.483015e+003,9.058014e-004
1.484943e+003,6.441725e-004
1.486872e+003,9.087565e-004
1.488800e+003,1.239489e-003
1.490729e+003,1.050791e-003
1.492657e+003,1.948719e-004
1.494586e+003,2.549087e-004
1.496514e+003,8.734959e-004
1.498443e+003,6.291076e-004
1.500371e+003,5.566876e-005
1.502300e+003,-1.797150e-004
1.504228e+003,8.384705e-004
1.506157e+003,2.642110e-003
1.508085e+003,2.013711e-003
1.510014e+003,7.302251e-004
1.511942e+003,3.041776e-004
1.513871e+003,1.762426e-004
1.515799e+003,7.386222e-004
1.517728e+003,1.049263e-003
1.519656e+003,1.465869e-003
1.521585e+003,2.106328e-003
1.523513e+003,1.426142e-003
1.525442e+003,1.241051e-003
1.527370e+003,9.959243e-004
1.529299e+003,6.786512e-004
1.531227e+003,8.338228e-004
1.533156e+003,1.645668e-003
1.535084e+003,1.288305e-003
1.537013e+003,1.414573e-003
1.538941e+003,3.175317e-003
1.540870e+003,3.827095e-003
1.542798e+003,2.840973e-003
1.544727e+003,2.107793e-003
1.546655e+003,1.376347e-003
1.548584e+003,1.362120e-003
1.550512e+003,1.435982e-003
1.552441e+003,1.402208e-003
1.554369e+003,1.852527e-003
1.556298e+003,2.711522e-003
1.558226e+003,4.709837e-003
1.560155e+003,4.026067e-003
1.562083e+003,2.164965e-003
1.564012e+003,2.042240e-003
1.565940e+003,2.076763e-003
1.567869e+003,2.478727e-003
1.569797e+003,2.971564e-003
1.571726e+003,2.189440e-003
1.573654e+003,2.200230e-003
1.575583e+003,3.236135e-003
1.577511e+003,2.765472e-003
1.579440e+003,1.855987e-003
1.581368e+003,1.739404e-003
1.583297e+003,1.680392e-003
1.585225e+003,1.721041e-003
1.587154e+003,1.775267e-003
1.589082e+003,1.745259e-003
1.591010e+003,1.635324e-003
1.592939e+003,1.693964e-003
1.594868e+003,1.964248e-003
1.596796e+003,2.127138e-003
1.598724e+003,2.175188e-003
1.600653e+003,2.253018e-003
1.602582e+003,2.332228e-003
1.604510e+003,2.302814e-003
1.606438e+003,2.293887e-003
1.608367e+003,2.332094e-003
1.610296e+003,2.142355e-003
1.612224e+003,1.861877e-003
1.614152e+003,2.202228e-003
1.616081e+003,3.179323e-003
1.618010e+003,2.647178e-003
1.619938e+003,1.761294e-003
1.621866e+003,2.035282e-003
1.623795e+003,2.042106e-003
1.625724e+003,1.567448e-003
1.627652e+003,1.539682e-003
1.629580e+003,1.228424e-003
1.631509e+003,8.538415e-004
1.633438e+003,1.582612e-003
1.635366e+003,2.660079e-003
1.637294e+003,1.857984e-003
1.639223e+003,8.570951e-004
1.641151e+003,4.554010e-004
1.643080e+003,4.183530e-004
1.645008e+003,1.205963e-003
1.646937e+003,1.626610e-003
1.648865e+003,7.055658e-004
1.650794e+003,1.104502e-003
1.652722e+003,3.180057e-003
1.654651e+003,1.938719e-003
1.656579e+003,2.169165e-004
1.658508e+003,-1.244005e-004
1.660436e+003,1.662321e-004
1.662365e+003,7.572756e-004
1.664293e+003,5.546865e-004
1.666222e+003,4.025663e-004
1.668150e+003,1.282257e-003
1.670079e+003,1.761960e-003
1.672007e+003,1.228690e-003
1.673936e+003,1.434220e-003
1.675864e+003,1.464074e-003
1.677793e+003,4.830978e-004
1.679721e+003,2.232151e-004
1.681650e+003,5.875324e-004
1.683578e+003,1.838717e-003
1.685507e+003,1.148884e-003
1.687435e+003,-1.477858e-004
1.689364e+003,-5.226730e-004
1.691292e+003,-7.999138e-004
1.693221e+003,-6.099998e-004
1.695149e+003,5.258904e-004
1.697078e+003,5.595967e-004
1.699006e+003,1.217293e-003
1.700935e+003,1.454333e-003
1.702863e+003,-1.128399e-004
1.704792e+003,-1.294023e-004
1.706720e+003,-3.333330e-004
1.708649e+003,-8.046101e-004
1.710577e+003,-1.009778e-003
1.712506e+003,-7.852291e-004
1.714434e+003,-1.398694e-004
1.716363e+003,6.377350e-004
1.718291e+003,5.527292e-004
1.720220e+003,-5.769110e-004
1.722148e+003,-9.945383e-004
1.724077e+003,-1.062302e-003
1.726005e+003,-1.250202e-003
1.727934e+003,-1.207976e-003
1.729862e+003,-9.773476e-004
1.731791e+003,-3.516086e-004
1.733719e+003,6.130477e-004
1.735648e+003,-2.372081e-004
1.737576e+003,-9.147945e-004
1.739505e+003,-5.965330e-004
1.741433e+003,-9.050073e-004
1.743362e+003,-1.003265e-003
1.745290e+003,-9.900423e-004
1.747219e+003,-6.623411e-004
1.749147e+003,-2.143906e-004
1.751076e+003,-1.010576e-005
1.753004e+003,-6.564853e-004
1.754933e+003,-8.756114e-004
1.756861e+003,-6.546326e-004
1.758790e+003,-8.449239e-004
1.760718e+003,-6.013639e-004
1.762647e+003,-5.383594e-004
1.764575e+003,-1.034834e-003
1.766504e+003,-8.486608e-004
1.768432e+003,-6.176099e-004
1.770361e+003,-3.117457e-004
1.772289e+003,1.602326e-004
1.774218e+003,-4.325482e-004
1.776146e+003,-1.008323e-003
1.778075e+003,-1.159699e-003
1.780003e+003,-1.055989e-003
1.781932e+003,-1.128503e-003
1.783860e+003,-1.137029e-003
1.785789e+003,-1.059096e-003
1.787717e+003,-1.079754e-003
1.789646e+003,-8.438326e-004
1.791574e+003,-2.420098e-004
1.793503e+003,-3.788219e-004
1.795431e+003,-8.956498e-004
1.797360e+003,-8.984604e-004
1.799288e+003,-7.099457e-004
1.801217e+003,-7.545352e-004
1.803145e+003,-1.090661e-003
1.805074e+003,-1.098362e-003
1.807002e+003,-1.052948e-003
1.808931e+003,-9.833314e-004
1.810859e+003,-8.768680e-004
1.812788e+003,-9.996622e-004
1.814716e+003,-1.154742e-003
1.816645e+003,-1.070830e-003
1.818573e+003,-1.128040e-003
1.820502e+003,-1.210487e-003
1.822430e+003,-1.086265e-003
1.824359e+003,-6.841426e-004
1.826287e+003,-6.400422e-004
1.828216e+003,-5.724438e-004
1.830144e+003,-4.726317e-004
1.832073e+003,-9.591976e-004
1.834001e+003,-1.172289e-003
1.835930e+003,-1.159996e-003
1.837858e+003,-1.143936e-003
1.839787e+003,-1.122686e-003
1.841715e+003,-9.770831e-004
1.843644e+003,-4.089134e-004
1.845572e+003,-6.768976e-004
1.847501e+003,-1.155601e-003
1.849429e+003,-1.212470e-003
1.851358e+003,-1.168357e-003
1.853286e+003,-1.170637e-003
1.855215e+003,-1.249541e-003
1.857143e+003,-1.246733e-003
1.859072e+003,-1.208901e-003
1.861000e+003,-1.215972e-003
1.862929e+003,-1.277193e-003
1.864857e+003,-1.162442e-003
1.866786e+003,-8.458499e-004
1.868714e+003,-6.054006e-004
1.870643e+003,-1.004059e-003
1.872571e+003,-1.317496e-003
1.874500e+003,-1.273626e-003
1.876428e+003,-1.222316e-003
1.878357e+003,-1.131147e-003
1.880285e+003,-1.144861e-003
1.882214e+003,-1.165317e-003
1.884142e+003,-1.113796e-003
1.886071e+003,-1.124173e-003
1.887999e+003,-1.007960e-003
1.889928e+003,-9.991333e-004
1.891856e+003,-1.238539e-003
1.893785e+003,-1.220565e-003
1.895713e+003,-1.192644e-003
1.897642e+003,-1.261468e-003
1.899570e+003,-1.222580e-003
1.901499e+003,-1.136765e-003
1.903427e+003,-1.116737e-003
1.905356e+003,-1.121596e-003
1.907284e+003,-1.113466e-003
1.909213e+003,-1.098494e-003
1.911141e+003,-1.160690e-003
1.913070e+003,-1.207447e-003
1.914998e+003,-1.155667e-003
1.916927e+003,-8.664848e-004
1.918855e+003,-8.667163e-004
1.920784e+003,-1.088083e-003
1.922712e+003,-1.140598e-003
1.924641e+003,-1.210124e-003
1.926569e+003,-1.227173e-003
1.928498e+003,-1.324268e-003
1.930426e+003,-1.289318e-003
1.932355e+003,-1.302334e-003
1.934283e+003,-1.405522e-003
1.936212e+003,-1.407933e-003
1.938140e+003,-1.333451e-003
1.940069e+003,-1.212371e-003
1.941997e+003,-1.001976e-003
1.943926e+003,-1.044784e-003
1.945854e+003,-1.196973e-003
1.947783e+003,-1.280960e-003
1.949711e+003,-1.336457e-003
1.951640e+003,-1.327307e-003
1.953568e+003,-1.272866e-003
1.955497e+003,-1.311319e-003
1.957425e+003,-1.345541e-003
1.959354e+003,-1.278118e-003
1.961282e+003,-1.268307e-003
1.963211e+003,-1.314788e-003
1.965139e+003,-1.267249e-003
1.967068e+003,-1.333782e-003
1.968996e+003,-1.575677e-003
1.970925e+003,-1.587793e-003
1.972853e+003,-1.416091e-003
1.974782e+003,-1.270090e-003
1.976710e+003,-1.299658e-003
1.978639e+003,-1.310757e-003
1.980567e+003,-1.346367e-003
1.982496e+003,-1.520738e-003
1.984424e+003,-1.550652e-003
1.986353e+003,-1.447464e-003
1.988281e+003,-1.444723e-003
1.990210e+003,-1.392609e-003
1.992138e+003,-1.281521e-003
1.994067e+003,-1.372626e-003
1.995995e+003,-1.500861e-003
1.997924e+003,-1.599017e-003
1.999852e+003,-1.593603e-003
2.001781e+003,-1.583930e-003
2.003709e+003,-1.574125e-003
2.005638e+003,-1.607997e-003
2.007566e+003,-1.550817e-003
2.009495e+003,-1.532492e-003
2.011423e+003,-1.533945e-003
2.013352e+003,-1.493431e-003
2.015280e+003,-1.435113e-003
2.017208e+003,-1.374806e-003
2.019137e+003,-1.408297e-003
2.021066e+003,-1.460013e-003
2.022994e+003,-1.489403e-003
2.024922e+003,-1.506474e-003
2.026851e+003,-1.513342e-003
2.028780e+003,-1.462688e-003
2.030708e+003,-1.441619e-003
2.032636e+003,-1.419294e-003
2.034565e+003,-1.467774e-003
2.036494e+003,-1.501686e-003
2.038422e+003,-1.520045e-003
2.040350e+003,-1.492077e-003
2.042279e+003,-1.448785e-003
2.044208e+003,-1.432537e-003
2.046136e+003,-1.501389e-003
2.048064e+003,-1.566169e-003
2.049993e+003,-1.555175e-003
2.051921e+003,-1.550453e-003
2.053850e+003,-1.541374e-003
2.055778e+003,-1.592217e-003
2.057707e+003,-1.609977e-003
2.059635e+003,-1.627605e-003
2.061564e+003,-1.599843e-003
2.063492e+003,-1.694445e-003
2.065421e+003,-1.714083e-003
2.067349e+003,-1.617240e-003
2.069278e+003,-1.627803e-003
2.071206e+003,-1.617504e-003
2.073135e+003,-1.545534e-003
2.075063e+003,-1.559203e-003
2.076992e+003,-1.536256e-003
2.078920e+003,-1.475435e-003
2.080849e+003,-1.432802e-003
2.082777e+003,-1.444723e-003
2.084706e+003,-1.493167e-003
2.086634e+003,-1.571385e-003
2.088563e+003,-1.603936e-003
2.090491e+003,-1.561844e-003
2.092420e+003,-1.543223e-003
2.094348e+003,-1.486662e-003
2.096277e+003,-1.526747e-003
2.098205e+003,-1.563528e-003
2.100134e+003,-1.549958e-003
2.102062e+003,-1.475831e-003
2.103991e+003,-1.478935e-003
2.105919e+003,-1.512517e-003
2.107848e+003,-1.427848e-003
2.109776e+003,-1.428674e-003
2.111705e+003,-1.521861e-003
2.113633e+003,-1.499408e-003
2.115562e+003,-1.490327e-003
2.117490e+003,-1.569008e-003
2.119419e+003,-1.521894e-003
2.121347e+003,-1.478407e-003
2.123276e+003,-1.578285e-003
2.125204e+003,-1.641238e-003
2.127133e+003,-1.563395e-003
2.129061e+003,-1.391684e-003
2.130990e+003,-1.390131e-003
2.132918e+003,-1.554580e-003
2.134847e+003,-1.645826e-003
2.136775e+003,-1.658105e-003
2.138704e+003,-1.531139e-003
2.140632e+003,-1.447266e-003
2.142561e+003,-1.537445e-003
2.144489e+003,-1.622719e-003
2.146418e+003,-1.625756e-003
2.148346e+003,-1.569272e-003
2.150275e+003,-1.466651e-003
2.152203e+003,-1.422366e-003
2.154132e+003,-1.471868e-003
2.156060e+003,-1.564716e-003
2.157989e+003,-1.584393e-003
2.159917e+003,-1.513144e-003
2.161846e+003,-1.505054e-003
2.163774e+003,-1.546921e-003
2.165703e+003,-1.494059e-003
2.167631e+003,-1.433528e-003
2.169560e+003,-1.370413e-003
2.171488e+003,-1.393170e-003
2.173417e+003,-1.517304e-003
2.175345e+003,-1.513639e-003
2.177274e+003,-1.438581e-003
2.179202e+003,-1.329388e-003
2.181131e+003,-1.377316e-003
2.183059e+003,-1.463250e-003
2.184988e+003,-1.450305e-003
2.186916e+003,-1.446177e-003
2.188845e+003,-1.499969e-003
2.190773e+003,-1.581752e-003
2.192702e+003,-1.667644e-003
2.194630e+003,-1.618890e-003
2.196559e+003,-1.510106e-003
2.198487e+003,-1.454565e-003
2.200416e+003,-1.531337e-003
2.202344e+003,-1.566730e-003
2.204273e+003,-1.566466e-003
2.206201e+003,-1.604299e-003
2.208130e+003,-1.624964e-003
2.210058e+003,-1.669691e-003
2.211987e+003,-1.587166e-003
2.213915e+003,-1.501158e-003
2.215844e+003,-1.416850e-003
2.217772e+003,-1.389603e-003
2.219701e+003,-1.419525e-003
2.221629e+003,-1.508554e-003
2.223558e+003,-1.568612e-003
2.225486e+003,-1.535002e-003
2.227415e+003,-1.548076e-003
2.229343e+003,-1.507630e-003
2.231272e+003,-1.467741e-003
2.233200e+003,-1.403541e-003
2.235129e+003,-1.340851e-003
2.237057e+003,-1.388513e-003
2.238986e+003,-1.484879e-003
2.240914e+003,-1.551873e-003
2.242843e+003,-1.511064e-003
2.244771e+003,-1.488214e-003
2.246700e+003,-1.458824e-003
2.248628e+003,-1.443237e-003
2.250557e+003,-1.579011e-003
2.252485e+003,-1.657313e-003
2.254414e+003,-1.580761e-003
2.256342e+003,-1.520738e-003
2.258271e+003,-1.515785e-003
2.260199e+003,-1.463415e-003
2.262128e+003,-1.417082e-003
2.264056e+003,-1.465990e-003
2.265985e+003,-1.566268e-003
2.267913e+003,-1.580398e-003
2.269842e+003,-1.560457e-003
2.271770e+003,-1.563693e-003
2.273699e+003,-1.577724e-003
2.275627e+003,-1.611463e-003
2.277556e+003,-1.660449e-003
2.279484e+003,-1.689494e-003
2.281413e+003,-1.637442e-003
2.283341e+003,-1.607138e-003
2.285270e+003,-1.566961e-003
2.287198e+003,-1.578912e-003
2.289127e+003,-1.615226e-003
2.291055e+003,-1.582874e-003
2.292984e+003,-1.564122e-003
2.294912e+003,-1.635197e-003
2.296841e+003,-1.549298e-003
2.298769e+003,-1.400337e-003
2.300698e+003,-1.372230e-003
2.302626e+003,-1.366284e-003
2.304555e+003,-1.391122e-003
2.306483e+003,-1.293051e-003
2.308412e+003,-1.252316e-003
2.310340e+003,-1.218814e-003
2.312269e+003,-1.055956e-003
2.314197e+003,-8.402280e-004
2.316125e+003,-6.661457e-004
2.318054e+003,-4.962631e-004
2.319983e+003,-3.791529e-004
2.321911e+003,-1.449372e-004
2.323840e+003,9.039907e-005
2.325768e+003,2.449296e-004
2.327697e+003,4.882393e-004
2.329625e+003,8.108174e-004
2.331553e+003,9.125085e-004
2.333482e+003,8.981648e-004
2.335411e+003,9.219385e-004
2.337339e+003,9.693570e-004
2.339268e+003,9.637781e-004
2.341196e+003,8.927195e-004
2.343125e+003,7.327475e-004
2.345053e+003,2.228173e-004
2.346981e+003,-4.550894e-004
2.348910e+003,-7.906202e-004
2.350839e+003,-4.951709e-004
2.352767e+003,2.199332e-004
2.354696e+003,8.304699e-004
2.356624e+003,1.268831e-003
2.358552e+003,1.556940e-003
2.360481e+003,1.711461e-003
2.362409e+003,1.732285e-003
2.364338e+003,1.568878e-003
2.366267e+003,1.386119e-003
2.368195e+003,1.223407e-003
2.370124e+003,8.683498e-004
2.372052e+003,3.692038e-004
2.373980e+003,-6.242005e-005
2.375909e+003,-4.516802e-004
2.377838e+003,-9.221677e-004
2.379766e+003,-1.281059e-003
2.381695e+003,-1.431415e-003
2.383623e+003,-1.494191e-003
2.385552e+003,-1.550453e-003
2.387480e+003,-1.638168e-003
2.389408e+003,-1.648071e-003
2.391337e+003,-1.682893e-003
2.393266e+003,-1.745237e-003
2.395194e+003,-1.683619e-003
2.397123e+003,-1.583402e-003
2.399051e+003,-1.588882e-003
2.400979e+003,-1.685996e-003
2.402908e+003,-1.729396e-003
2.404836e+003,-1.763915e-003
2.406765e+003,-1.792525e-003
2.408694e+003,-1.832780e-003
2.410622e+003,-1.805097e-003
2.412551e+003,-1.762001e-003
2.414479e+003,-1.691442e-003
2.416407e+003,-1.692069e-003
2.418336e+003,-1.707548e-003
2.420264e+003,-1.771241e-003
2.422193e+003,-1.768667e-003
2.424122e+003,-1.648203e-003
2.426050e+003,-1.623479e-003
2.427979e+003,-1.707614e-003
2.429907e+003,-1.768238e-003
2.431835e+003,-1.781603e-003
2.433764e+003,-1.679065e-003
2.435692e+003,-1.628595e-003
2.437621e+003,-1.718175e-003
2.439550e+003,-1.789159e-003
2.441478e+003,-1.752959e-003
2.443406e+003,-1.656290e-003
2.445335e+003,-1.636319e-003
2.447263e+003,-1.639158e-003
2.449192e+003,-1.614863e-003
2.451121e+003,-1.640743e-003
2.453049e+003,-1.618329e-003
2.454978e+003,-1.532426e-003
2.456906e+003,-1.521894e-003
2.458834e+003,-1.578087e-003
2.460763e+003,-1.624832e-003
2.462691e+003,-1.718934e-003
2.464620e+003,-1.699594e-003
2.466549e+003,-1.563131e-003
2.468477e+003,-1.516611e-003
2.470406e+003,-1.590269e-003
2.472334e+003,-1.690386e-003
2.474262e+003,-1.711013e-003
2.476191e+003,-1.721971e-003
2.478119e+003,-1.641634e-003
2.480048e+003,-1.588618e-003
2.481977e+003,-1.573069e-003
2.483905e+003,-1.654276e-003
2.485833e+003,-1.711773e-003
2.487762e+003,-1.694511e-003
2.489690e+003,-1.747547e-003
2.491619e+003,-1.702960e-003
2.493547e+003,-1.542067e-003
2.495476e+003,-1.490525e-003
2.497405e+003,-1.554316e-003
2.499333e+003,-1.602484e-003
2.501261e+003,-1.651504e-003
2.503190e+003,-1.627044e-003
2.505118e+003,-1.616976e-003
2.507047e+003,-1.683058e-003
2.508975e+003,-1.680484e-003
2.510904e+003,-1.702498e-003
2.512833e+003,-1.675302e-003
2.514761e+003,-1.601262e-003
2.516689e+003,-1.592316e-003
2.518618e+003,-1.551873e-003
2.520546e+003,-1.495346e-003
2.522475e+003,-1.603573e-003
2.524403e+003,-1.677216e-003
2.526332e+003,-1.643548e-003
2.528260e+003,-1.591953e-003
2.530189e+003,-1.570758e-003
2.532117e+003,-1.682860e-003
2.534046e+003,-1.770812e-003
2.535974e+003,-1.690221e-003
2.537903e+003,-1.672892e-003
2.539831e+003,-1.619055e-003
2.541760e+003,-1.640413e-003
2.543688e+003,-1.627770e-003
2.545617e+003,-1.564617e-003
2.547545e+003,-1.527111e-003
2.549474e+003,-1.563759e-003
2.551402e+003,-1.629255e-003
2.553331e+003,-1.658204e-003
2.555259e+003,-1.627440e-003
2.557188e+003,-1.585251e-003
2.559116e+003,-1.548175e-003
2.561045e+003,-1.567192e-003
2.562973e+003,-1.611661e-003
2.564902e+003,-1.504361e-003
2.566830e+003,-1.434189e-003
2.568759e+003,-1.447960e-003
2.570687e+003,-1.458593e-003
2.572616e+003,-1.393467e-003
2.574544e+003,-1.440331e-003
2.576473e+003,-1.486068e-003
2.578401e+003,-1.398487e-003
2.580330e+003,-1.477746e-003
2.582258e+003,-1.552765e-003
2.584187e+003,-1.462160e-003
2.586115e+003,-1.466618e-003
2.588044e+003,-1.468104e-003
2.589972e+003,-1.390330e-003
2.591901e+003,-1.324070e-003
2.593829e+003,-1.344517e-003
2.595758e+003,-1.420846e-003
2.597686e+003,-1.459419e-003
2.599615e+003,-1.435179e-003
2.601543e+003,-1.367540e-003
2.603472e+003,-1.371305e-003
2.605400e+003,-1.438581e-003
2.607329e+003,-1.380124e-003
2.609257e+003,-1.277193e-003
2.611186e+003,-1.238076e-003
2.613114e+003,-1.239629e-003
2.615043e+003,-1.208373e-003
2.616971e+003,-1.195519e-003
2.618900e+003,-1.162739e-003
2.620828e+003,-1.138516e-003
2.622757e+003,-1.084414e-003
2.624685e+003,-1.113829e-003
2.626614e+003,-1.180451e-003
2.628542e+003,-1.120505e-003
2.630471e+003,-1.068715e-003
2.632399e+003,-1.045478e-003
2.634328e+003,-1.022339e-003
2.636256e+003,-9.873976e-004
2.638185e+003,-8.702876e-004
2.640113e+003,-7.811941e-004
2.642042e+003,-8.313321e-004
2.643970e+003,-7.098796e-004
2.645899e+003,-5.769772e-004
2.647827e+003,-5.550379e-004
2.649756e+003,-5.063904e-004
2.651684e+003,-4.962631e-004
2.653613e+003,-5.815767e-004
2.655541e+003,-5.388558e-004
2.657470e+003,-5.583140e-004
2.659398e+003,-5.736682e-004
2.661327e+003,-4.081189e-004
2.663255e+003,-3.374716e-004
2.665184e+003,-4.138788e-004
2.667112e+003,-3.911037e-004
2.669041e+003,-3.197252e-004
2.670969e+003,-2.414469e-004
2.672898e+003,-1.997523e-004
2.674826e+003,-2.515470e-004
2.676755e+003,-2.769454e-004
2.678683e+003,-3.213475e-004
2.680612e+003,-2.659849e-004
2.682540e+003,-2.001166e-004
2.684469e+003,-9.697251e-005
2.686397e+003,-2.236490e-005
2.688326e+003,6.030437e-006
2.690254e+003,4.947194e-005
2.692183e+003,-2.577752e-005
2.694111e+003,-1.229761e-004
2.696040e+003,-7.646663e-005
2.697968e+003,1.036225e-004
2.699897e+003,2.582904e-004
2.701825e+003,2.587214e-004
2.703754e+003,3.843592e-004
2.705682e+003,5.393262e-004
2.707611e+003,5.374020e-004
2.709539e+003,5.224735e-004
2.711468e+003,5.763845e-004
2.713396e+003,6.388300e-004
2.715325e+003,6.459644e-004
2.717253e+003,6.379009e-004
2.719182e+003,8.027509e-004
2.721110e+003,9.280813e-004
2.723039e+003,1.005788e-003
2.724967e+003,1.140844e-003
2.726896e+003,1.275311e-003
2.728824e+003,1.365345e-003
2.730753e+003,1.511618e-003
2.732681e+003,1.538019e-003
2.734610e+003,1.533131e-003
2.736538e+003,1.647763e-003
2.738467e+003,1.832761e-003
2.740395e+003,1.910230e-003
2.742324e+003,1.952332e-003
2.744252e+003,1.948371e-003
2.746181e+003,2.038644e-003
2.748109e+003,2.074965e-003
2.750038e+003,2.149647e-003
2.751966e+003,2.287691e-003
2.753895e+003,2.433209e-003
2.755823e+003,2.582909e-003
2.757752e+003,2.773875e-003
2.759680e+003,2.960588e-003
2.761609e+003,3.137336e-003
2.763537e+003,3.484433e-003
2.765466e+003,3.737218e-003
2.767394e+003,3.999548e-003
2.769323e+003,4.392753e-003
2.771251e+003,4.822464e-003
2.773180e+003,5.233451e-003
2.775108e+003,5.664565e-003
2.777037e+003,6.172460e-003
2.778965e+003,6.710391e-003
2.780894e+003,7.422672e-003
2.782822e+003,8.188219e-003
2.784750e+003,8.893325e-003
2.786679e+003,9.652561e-003
2.788608e+003,1.039527e-002
2.790536e+003,1.122487e-002
2.792465e+003,1.208957e-002
2.794393e+003,1.285824e-002
2.796322e+003,1.365057e-002
2.798250e+003,1.440287e-002
2.800178e+003,1.508442e-002
2.802107e+003,1.577423e-002
2.804036e+003,1.635274e-002
2.805964e+003,1.690176e-002
2.807893e+003,1.733620e-002
2.809821e+003,1.739635e-002
2.811750e+003,1.738428e-002
2.813678e+003,1.739438e-002
2.815606e+003,1.726034e-002
2.817535e+003,1.697249e-002
2.819464e+003,1.671925e-002
2.821392e+003,1.637446e-002
2.823321e+003,1.591619e-002
2.825249e+003,1.538232e-002
2.827177e+003,1.473804e-002
2.829106e+003,1.405772e-002
2.831034e+003,1.338792e-002
2.832963e+003,1.275890e-002
2.834892e+003,1.222717e-002
2.836820e+003,1.160681e-002
2.838749e+003,1.089953e-002
2.840677e+003,1.013743e-002
2.842605e+003,9.581793e-003
2.844534e+003,8.864274e-003
2.846462e+003,7.915081e-003
2.848391e+003,7.165241e-003
2.850320e+003,6.661232e-003
2.852248e+003,6.365179e-003
2.854177e+003,6.222270e-003
2.856105e+003,6.262136e-003
2.858033e+003,6.286911e-003
2.859962e+003,6.303518e-003
2.861890e+003,6.239412e-003
2.863819e+003,6.266977e-003
2.865748e+003,6.466800e-003
2.867676e+003,6.548061e-003
2.869604e+003,6.652383e-003
2.871533e+003,6.847301e-003
2.873461e+003,7.078106e-003
2.875390e+003,7.135565e-003
2.877319e+003,7.183195e-003
2.879247e+003,7.411347e-003
2.881176e+003,7.477615e-003
2.883104e+003,7.507112e-003
2.885032e+003,7.609305e-003
2.886961e+003,7.476975e-003
2.888889e+003,7.439087e-003
2.890818e+003,7.415392e-003
2.892747e+003,7.227866e-003
2.894675e+003,6.984119e-003
2.896604e+003,6.827240e-003
2.898532e+003,6.707094e-003
2.900460e+003,6.654873e-003
2.902389e+003,6.737413e-003
2.904317e+003,6.633239e-003
2.906246e+003,6.559229e-003
2.908175e+003,6.525625e-003
2.910103e+003,6.354689e-003
2.912031e+003,6.183618e-003
2.913960e+003,6.010027e-003
2.915888e+003,5.872139e-003
2.917817e+003,5.882214e-003
2.919745e+003,6.144498e-003
2.921674e+003,6.490174e-003
2.923603e+003,6.914998e-003
2.925531e+003,7.294544e-003
2.927459e+003,7.565336e-003
2.929388e+003,7.828402e-003
2.931316e+003,8.243968e-003
2.933245e+003,8.588177e-003
2.935173e+003,8.716620e-003
2.937102e+003,8.794752e-003
2.939031e+003,8.901848e-003
2.940959e+003,8.905534e-003
2.942887e+003,8.794346e-003
2.944816e+003,8.659053e-003
2.946744e+003,8.417677e-003
2.948673e+003,7.967218e-003
2.950601e+003,7.255998e-003
2.952530e+003,6.670720e-003
2.954458e+003,6.114019e-003
2.956387e+003,5.420084e-003
2.958315e+003,4.837976e-003
2.960244e+003,4.171734e-003
2.962172e+003,3.475114e-003
2.964101e+003,2.875727e-003
2.966029e+003,2.292121e-003
2.967958e+003,1.715253e-003
2.969886e+003,1.250422e-003
2.971815e+003,8.937157e-004
2.973743e+003,6.018659e-004
2.975672e+003,1.975569e-004
2.977600e+003,-1.831264e-004
2.979529e+003,-4.472779e-004
2.981457e+003,-5.421651e-004
2.983386e+003,-7.467952e-004
2.985314e+003,-9.306981e-004
2.987243e+003,-1.077374e-003
2.989171e+003,-1.105534e-003
2.991100e+003,-1.279308e-003
2.993028e+003,-1.391717e-003
2.994957e+003,-1.433594e-003
2.996885e+003,-1.583600e-003
2.998814e+003,-1.569173e-003
3.000742e+003,-1.510667e-003
3.002671e+003,-1.616876e-003
3.004599e+003,-1.749626e-003
3.006528e+003,-1.655035e-003
3.008456e+003,-1.571847e-003
3.010385e+003,-1.614863e-003
3.012313e+003,-1.796914e-003
3.014242e+003,-1.887086e-003
3.016170e+003,-1.809848e-003
3.018099e+003,-1.691046e-003
3.020027e+003,-1.825158e-003
3.021956e+003,-1.910937e-003
3.023884e+003,-1.892166e-003
3.025813e+003,-1.874549e-003
3.027741e+003,-2.034792e-003
3.029670e+003,-2.125211e-003
3.031598e+003,-2.062955e-003
3.033527e+003,-2.041156e-003
3.035455e+003,-1.931291e-003
3.037384e+003,-1.882236e-003
3.039312e+003,-1.999008e-003
3.041241e+003,-2.112879e-003
3.043169e+003,-2.197942e-003
3.045098e+003,-2.199755e-003
3.047026e+003,-2.145489e-003
3.048955e+003,-2.079443e-003
3.050883e+003,-1.983803e-003
3.052812e+003,-1.985452e-003
3.054740e+003,-2.103943e-003
3.056669e+003,-2.118715e-003
3.058597e+003,-2.130058e-003
3.060526e+003,-2.200513e-003
3.062454e+003,-2.192997e-003
3.064383e+003,-2.140873e-003
3.066311e+003,-2.087753e-003
3.068240e+003,-2.013750e-003
3.070168e+003,-2.102130e-003
3.072097e+003,-2.226688e-003
3.074025e+003,-2.224413e-003
3.075954e+003,-2.222633e-003
3.077882e+003,-2.197447e-003
3.079811e+003,-2.216798e-003
3.081739e+003,-2.248180e-003
3.083668e+003,-2.256520e-003
3.085596e+003,-2.295447e-003
3.087525e+003,-2.394478e-003
3.089453e+003,-2.324483e-003
3.091382e+003,-2.304807e-003
3.093310e+003,-2.251048e-003
3.095239e+003,-2.183271e-003
3.097167e+003,-2.160457e-003
3.099096e+003,-2.170381e-003
3.101024e+003,-2.168699e-003
3.102953e+003,-2.182744e-003
3.104881e+003,-2.288492e-003
3.106810e+003,-2.265255e-003
3.108738e+003,-2.221677e-003
3.110667e+003,-2.224380e-003
3.112595e+003,-2.172359e-003
3.114524e+003,-2.142620e-003
3.116452e+003,-2.242741e-003
3.118381e+003,-2.202392e-003
3.120309e+003,-2.108098e-003
3.122238e+003,-2.063483e-003
3.124166e+003,-2.043432e-003
3.126095e+003,-2.034330e-003
3.128023e+003,-2.092996e-003
3.129952e+003,-2.169622e-003
3.131880e+003,-2.265354e-003
3.133809e+003,-2.222106e-003
3.135737e+003,-2.154621e-003
3.137666e+003,-1.986046e-003
3.139594e+003,-1.883457e-003
3.141523e+003,-1.905824e-003
3.143451e+003,-1.876100e-003
3.145380e+003,-1.874912e-003
3.147308e+003,-2.026316e-003
3.149237e+003,-2.102789e-003
3.151165e+003,-1.876133e-003
3.153094e+003,-1.623776e-003
3.155022e+003,-1.626417e-003
3.156951e+003,-1.734676e-003
3.158879e+003,-1.826049e-003
3.160808e+003,-1.835420e-003
3.162736e+003,-1.708835e-003
3.164665e+003,-1.697548e-003
3.166593e+003,-1.681408e-003
3.168522e+003,-1.651438e-003
3.170450e+003,-1.545336e-003
3.172379e+003,-1.514002e-003
3.174307e+003,-1.557618e-003
3.176236e+003,-1.483261e-003
3.178164e+003,-1.403012e-003
3.180093e+003,-1.472331e-003
3.182021e+003,-1.528398e-003
3.183950e+003,-1.491483e-003
3.185878e+003,-1.368299e-003
3.187807e+003,-1.177147e-003
3.189735e+003,-1.189009e-003
3.191664e+003,-1.365459e-003
3.193592e+003,-1.383195e-003
3.195521e+003,-1.323277e-003
3.197449e+003,-1.333914e-003
3.199378e+003,-1.424479e-003
3.201306e+003,-1.532228e-003
3.203235e+003,-1.503965e-003
3.205163e+003,-1.462523e-003
3.207092e+003,-1.478407e-003
3.209020e+003,-1.404366e-003
3.210948e+003,-1.257371e-003
3.212877e+003,-1.151338e-003
3.214806e+003,-1.115085e-003
3.216734e+003,-1.090496e-003
3.218663e+003,-1.030636e-003
3.220591e+003,-1.098825e-003
3.222520e+003,-1.209628e-003
3.224448e+003,-1.281026e-003
3.226376e+003,-1.267282e-003
3.228305e+003,-1.088083e-003
3.230234e+003,-9.665040e-004
3.232162e+003,-9.067267e-004
3.234091e+003,-7.648219e-004
3.236019e+003,-9.229943e-004
3.237948e+003,-1.105104e-003
3.239876e+003,-9.116203e-004
3.241804e+003,-6.268080e-004
3.243733e+003,-5.372011e-004
3.245662e+003,-4.995065e-004
3.247590e+003,-3.633284e-004
3.249519e+003,-3.322404e-004
3.251447e+003,-3.243274e-004
3.253375e+003,-3.450864e-004
3.255304e+003,-2.618787e-004
3.257232e+003,-1.291042e-004
3.259161e+003,-3.846691e-005
3.261090e+003,-1.722936e-005
3.263018e+003,-8.229716e-005
3.264947e+003,-1.259573e-004
3.266875e+003,-2.841970e-004
3.268803e+003,-1.948838e-004
3.270732e+003,-7.371698e-005
3.272660e+003,-3.568389e-005
3.274589e+003,4.025973e-005
3.276518e+003,-1.978057e-005
3.278446e+003,-3.117801e-005
3.280375e+003,8.396978e-005
3.282303e+003,1.809156e-005
3.284231e+003,-1.862093e-005
3.286160e+003,-8.117764e-006
3.288088e+003,-2.547933e-005
3.290017e+003,-1.134030e-004
3.291946e+003,-5.340879e-005
3.293874e+003,1.225961e-006
3.295802e+003,-1.549403e-004
3.297731e+003,-3.293600e-004
3.299659e+003,-3.176061e-004
3.301588e+003,-3.206191e-004
3.303516e+003,-4.278809e-004
3.305445e+003,-5.077804e-004
3.307374e+003,-3.991480e-004
3.309302e+003,-5.144656e-004
3.311230e+003,-7.385259e-004
3.313159e+003,-7.586697e-004
3.315087e+003,-7.339280e-004
3.317016e+003,-6.834149e-004
3.318944e+003,-7.123275e-004
3.320873e+003,-8.732306e-004
3.322802e+003,-1.083687e-003
3.324730e+003,-1.237151e-003
3.326658e+003,-1.290606e-003
3.328587e+003,-1.344187e-003
3.330515e+003,-1.435741e-003
3.332444e+003,-1.481147e-003
3.334372e+003,-1.461433e-003
3.336301e+003,-1.380487e-003
3.338229e+003,-1.317563e-003
3.340158e+003,-1.465429e-003
3.342086e+003,-1.425470e-003
3.344015e+003,-1.333451e-003
3.345943e+003,-1.310658e-003
3.347872e+003,-1.379034e-003
3.349800e+003,-1.368101e-003
3.351729e+003,-1.303919e-003
3.353657e+003,-1.347457e-003
3.355586e+003,-1.349868e-003
3.357514e+003,-1.333550e-003
3.359443e+003,-1.370314e-003
3.361371e+003,-1.497658e-003
3.363300e+003,-1.461301e-003
3.365229e+003,-1.443336e-003
3.367157e+003,-1.686491e-003
3.369085e+003,-2.003032e-003
3.371014e+003,-2.114132e-003
3.372942e+003,-2.044586e-003
3.374871e+003,-2.201667e-003
3.376799e+003,-2.276956e-003
3.378728e+003,-2.409702e-003
3.380656e+003,-2.488249e-003
3.382585e+003,-2.472468e-003
3.384513e+003,-2.591255e-003
3.386442e+003,-2.669539e-003
3.388370e+003,-2.801441e-003
3.390299e+003,-2.891799e-003
3.392227e+003,-2.785144e-003
3.394156e+003,-2.925963e-003
3.396084e+003,-3.090391e-003
3.398013e+003,-3.279092e-003
3.399941e+003,-3.307010e-003
3.401870e+003,-3.208680e-003
3.403798e+003,-3.104932e-003
3.405727e+003,-3.129045e-003
3.407655e+003,-3.172828e-003
3.409584e+003,-3.190721e-003
3.411512e+003,-3.232294e-003
3.413441e+003,-3.416923e-003
3.415369e+003,-3.482470e-003
3.417298e+003,-3.393056e-003
3.419226e+003,-3.399368e-003
3.421155e+003,-3.356529e-003
3.423083e+003,-3.320295e-003
3.425012e+003,-3.306681e-003
3.426940e+003,-3.307569e-003
3.428869e+003,-3.333184e-003
3.430797e+003,-3.390689e-003
3.432726e+003,-3.433064e-003
3.434654e+003,-3.411532e-003
3.436583e+003,-3.570189e-003
3.438511e+003,-3.663510e-003
3.440440e+003,-3.450815e-003
3.442368e+003,-3.443288e-003
3.444297e+003,-3.502750e-003
3.446225e+003,-3.377341e-003
3.448154e+003,-3.267319e-003
3.450082e+003,-3.288595e-003
3.452011e+003,-3.417186e-003
3.453939e+003,-3.599239e-003
3.455868e+003,-3.630521e-003
3.457796e+003,-3.620401e-003
3.459725e+003,-3.688479e-003
3.461653e+003,-3.490523e-003
3.463582e+003,-3.327430e-003
3.465510e+003,-3.386974e-003
3.467439e+003,-3.485034e-003
3.469367e+003,-3.515798e-003
3.471296e+003,-3.558063e-003
3.473224e+003,-3.483686e-003
3.475153e+003,-3.454464e-003
3.477081e+003,-3.481484e-003
3.479010e+003,-3.546034e-003
3.480938e+003,-3.512314e-003
3.482867e+003,-3.529043e-003
3.484795e+003,-3.477079e-003
3.486724e+003,-3.559443e-003
3.488652e+003,-3.562894e-003
3.490581e+003,-3.483390e-003
3.492509e+003,-3.479281e-003
3.494438e+003,-3.487400e-003
3.496366e+003,-3.484771e-003
3.498295e+003,-3.491673e-003
3.500223e+003,-3.504755e-003
3.502152e+003,-3.352517e-003
3.504080e+003,-3.276231e-003
3.506009e+003,-3.405417e-003
3.507937e+003,-3.468763e-003
3.509866e+003,-3.331803e-003
3.511794e+003,-3.302933e-003
3.513723e+003,-3.511394e-003
3.515651e+003,-3.556847e-003
3.517580e+003,-3.516883e-003
3.519508e+003,-3.448876e-003
3.521437e+003,-3.391971e-003
3.523365e+003,-3.427607e-003
3.525294e+003,-3.558490e-003
3.527222e+003,-3.528550e-003
3.529151e+003,-3.495552e-003
3.531079e+003,-3.541269e-003
3.533008e+003,-3.512314e-003
3.534936e+003,-3.527038e-003
3.536865e+003,-3.631638e-003
3.538793e+003,-3.755923e-003
3.540722e+003,-3.801646e-003
3.542650e+003,-3.686508e-003
3.544579e+003,-3.443649e-003
3.546507e+003,-3.191379e-003
3.548436e+003,-3.277349e-003
3.550364e+003,-3.219238e-003
3.552293e+003,-3.125065e-003
3.554221e+003,-3.358271e-003
3.556150e+003,-3.515075e-003
3.558078e+003,-3.406140e-003
3.560007e+003,-3.375730e-003
3.561935e+003,-3.576203e-003
3.563864e+003,-3.454628e-003
3.565792e+003,-2.813522e-003
3.567721e+003,-2.840318e-003
3.569649e+003,-3.420539e-003
3.571578e+003,-3.593291e-003
3.573506e+003,-3.515601e-003
3.575435e+003,-3.491213e-003
3.577363e+003,-3.418468e-003
3.579292e+003,-3.526414e-003
3.581220e+003,-3.750076e-003
3.583149e+003,-3.721529e-003
3.585077e+003,-3.228381e-003
3.587006e+003,-2.864183e-003
3.588934e+003,-3.229301e-003
3.590863e+003,-3.639294e-003
3.592791e+003,-3.334105e-003
3.594720e+003,-3.238543e-003
3.596648e+003,-3.401275e-003
3.598577e+003,-3.564898e-003
3.600505e+003,-3.590399e-003
3.602434e+003,-3.723894e-003
3.604362e+003,-3.851371e-003
3.606291e+003,-3.582184e-003
3.608219e+003,-3.129736e-003
3.610148e+003,-3.164144e-003
3.612076e+003,-3.256993e-003
3.614005e+003,-3.486677e-003
3.615933e+003,-3.574231e-003
3.617862e+003,-3.108584e-003
3.619790e+003,-3.248048e-003
3.621719e+003,-3.871141e-003
3.623647e+003,-4.143299e-003
3.625576e+003,-3.737856e-003
3.627504e+003,-2.430724e-003
3.629433e+003,-1.978558e-003
3.631361e+003,-3.345876e-003
3.633290e+003,-3.927918e-003
3.635218e+003,-3.959176e-003
3.637146e+003,-3.935010e-003
3.639075e+003,-3.999854e-003
3.641004e+003,-4.097251e-003
3.642932e+003,-4.067250e-003
3.644861e+003,-3.835114e-003
3.646789e+003,-3.031826e-003
3.648718e+003,-2.357043e-003
3.650646e+003,-2.810197e-003
3.652574e+003,-3.846050e-003
3.654503e+003,-3.637553e-003
3.656432e+003,-3.257881e-003
3.658360e+003,-4.066265e-003
3.660289e+003,-4.448741e-003
3.662217e+003,-4.337875e-003
3.664146e+003,-4.452250e-003
3.666074e+003,-4.432342e-003
3.668002e+003,-3.604332e-003
3.669931e+003,-2.959071e-003
3.671860e+003,-3.581954e-003
3.673788e+003,-3.189735e-003
3.675717e+003,-2.434678e-003
3.677645e+003,-3.395061e-003
3.679573e+003,-4.038593e-003
3.681502e+003,-4.428013e-003
3.683430e+003,-4.568726e-003
3.685359e+003,-4.437459e-003
3.687288e+003,-3.470045e-003
3.689216e+003,-2.861451e-003
3.691145e+003,-3.413734e-003
3.693073e+003,-4.142085e-003
3.695001e+003,-4.373335e-003
3.696930e+003,-4.305692e-003
3.698858e+003,-4.136177e-003
3.700787e+003,-3.612186e-003
3.702716e+003,-3.716765e-003
3.704644e+003,-4.106704e-003
3.706573e+003,-3.954087e-003
3.708501e+003,-3.562532e-003
3.710429e+003,-3.106873e-003
3.712358e+003,-3.101576e-003
3.714286e+003,-3.927786e-003
3.716215e+003,-4.327574e-003
3.718144e+003,-4.191213e-003
3.720072e+003,-4.165419e-003
3.722000e+003,-3.972407e-003
3.723929e+003,-3.938294e-003
3.725857e+003,-4.017747e-003
3.727786e+003,-4.331675e-003
3.729714e+003,-4.090391e-003
3.731643e+003,-3.210456e-003
3.733572e+003,-2.789358e-003
3.735500e+003,-2.549818e-003
3.737428e+003,-3.230420e-003
3.739357e+003,-3.954251e-003
3.741285e+003,-3.893340e-003
3.743214e+003,-2.290535e-003
3.745142e+003,-1.869534e-003
3.747071e+003,-2.859147e-003
3.749000e+003,-1.988190e-003
3.750928e+003,-1.769987e-003
3.752856e+003,-2.604594e-003
3.754785e+003,-3.531574e-003
3.756713e+003,-3.512150e-003
3.758642e+003,-3.262649e-003
3.760570e+003,-3.302308e-003
3.762499e+003,-3.707731e-003
3.764427e+003,-3.679379e-003
3.766356e+003,-3.604365e-003
3.768284e+003,-3.525559e-003
3.770213e+003,-3.373560e-003
3.772141e+003,-3.804011e-003
3.774070e+003,-4.101682e-003
3.775998e+003,-4.023820e-003
3.777927e+003,-3.740221e-003
3.779855e+003,-3.575874e-003
3.781784e+003,-3.817247e-003
3.783712e+003,-3.855443e-003
3.785641e+003,-3.731548e-003
3.787569e+003,-3.724978e-003
3.789498e+003,-4.150421e-003
3.791426e+003,-4.385537e-003
3.793355e+003,-4.213101e-003
3.795283e+003,-3.759109e-003
3.797212e+003,-3.688151e-003
3.799140e+003,-3.309970e-003
3.801069e+003,-2.566914e-003
3.802997e+003,-3.366326e-003
3.804926e+003,-3.628287e-003
3.806854e+003,-3.038769e-003
3.808783e+003,-3.546495e-003
3.810711e+003,-3.884999e-003
3.812640e+003,-3.856363e-003
3.814568e+003,-3.276231e-003
3.816497e+003,-2.925996e-003
3.818425e+003,-3.063347e-003
3.820354e+003,-2.334732e-003
3.822282e+003,-2.733783e-003
3.824211e+003,-3.794256e-003
3.826139e+003,-3.943777e-003
3.828068e+003,-3.873013e-003
3.829996e+003,-3.544095e-003
3.831925e+003,-3.377341e-003
3.833853e+003,-3.387697e-003
3.835782e+003,-3.115887e-003
3.837710e+003,-2.716397e-003
3.839639e+003,-3.148618e-003
3.841567e+003,-3.611364e-003
3.843496e+003,-3.646851e-003
3.845424e+003,-4.061112e-003
3.847353e+003,-4.479175e-003
3.849281e+003,-4.177299e-003
3.851210e+003,-2.739512e-003
3.853138e+003,-8.913181e-004
3.855067e+003,-2.070276e-003
3.856995e+003,-3.696791e-003
3.858924e+003,-3.970668e-003
3.860852e+003,-3.657563e-003
3.862781e+003,-3.337458e-003
3.864709e+003,-3.195787e-003
3.866638e+003,-3.842536e-003
3.868566e+003,-3.322563e-003
3.870495e+003,-3.149539e-003
3.872423e+003,-3.726358e-003
3.874352e+003,-3.838595e-003
3.876280e+003,-4.193149e-003
3.878209e+003,-3.963444e-003
3.880137e+003,-3.573673e-003
3.882066e+003,-4.053660e-003
3.883994e+003,-3.856724e-003
3.885923e+003,-3.494270e-003
3.887851e+003,-4.076277e-003
3.889780e+003,-3.849564e-003
3.891708e+003,-3.750207e-003
3.893637e+003,-4.272687e-003
3.895565e+003,-4.393344e-003
3.897494e+003,-3.938195e-003
3.899422e+003,-3.465147e-003
3.901351e+003,-3.285373e-003
3.903279e+003,-3.254033e-003
3.905208e+003,-3.738414e-003
3.907136e+003,-4.260121e-003
3.909065e+003,-4.427783e-003
3.910993e+003,-4.556693e-003
3.912922e+003,-4.508492e-003
3.914850e+003,-4.210902e-003
3.916779e+003,-4.010918e-003
3.918707e+003,-4.135094e-003
3.920636e+003,-4.370678e-003
3.922564e+003,-4.303625e-003
3.924493e+003,-4.142282e-003
3.926421e+003,-4.300312e-003
3.928350e+003,-4.451036e-003
3.930278e+003,-4.470648e-003
3.932207e+003,-4.514689e-003
3.934135e+003,-4.850671e-003
3.936064e+003,-4.661504e-003
3.937992e+003,-4.560004e-003
3.939921e+003,-4.571152e-003
3.941849e+003,-4.407842e-003
3.943778e+003,-4.573119e-003
3.945706e+003,-4.656980e-003
3.947635e+003,-4.492128e-003
3.949563e+003,-4.417058e-003
3.951492e+003,-4.470648e-003
3.953420e+003,-4.610593e-003
3.955349e+003,-4.819411e-003
3.957277e+003,-4.856634e-003
3.959206e+003,-4.807352e-003
3.961134e+003,-4.803649e-003
3.963063e+003,-4.640328e-003
3.964991e+003,-4.610823e-003
3.966920e+003,-4.482848e-003
3.968848e+003,-4.338695e-003
3.970777e+003,-4.495309e-003
3.972705e+003,-4.595021e-003
3.974634e+003,-4.630395e-003
3.976562e+003,-4.668322e-003
3.978491e+003,-4.630100e-003
3.980419e+003,-4.456940e-003
3.982348e+003,-4.318848e-003
3.984276e+003,-4.359558e-003
3.986205e+003,-4.422240e-003
3.988133e+003,-4.439492e-003
3.990062e+003,-4.309465e-003
3.991990e+003,-4.434080e-003
3.993919e+003,-4.695004e-003
3.995847e+003,-4.835303e-003
3.997776e+003,-4.598430e-003
3.999704e+003,-4.414861e-003
4.001633e+003,0.000000e+000
