3.991989e+002,-7.810474e-003
4.011274e+002,-5.637653e-003
4.030559e+002,-1.142622e-002
4.049844e+002,-2.027640e-002
4.069129e+002,-1.859735e-002
4.088414e+002,-1.104765e-002
4.107699e+002,-1.150503e-002
4.126984e+002,-1.347544e-002
4.146269e+002,-1.640365e-002
4.165554e+002,-1.548437e-002
4.184839e+002,-1.166356e-002
4.204124e+002,-1.288351e-002
4.223409e+002,-1.271123e-002
4.242694e+002,-1.111958e-002
4.261979e+002,-1.287180e-002
4.281264e+002,-1.463544e-002
4.300549e+002,-1.404750e-002
4.319834e+002,-1.821236e-002
4.339119e+002,-1.874509e-002
4.358404e+002,-1.181414e-002
4.377689e+002,-9.950005e-003
4.396974e+002,-1.399868e-002
4.416259e+002,-1.511946e-002
4.435544e+002,-1.186276e-002
4.454829e+002,-8.370642e-003
4.474114e+002,-4.913675e-003
4.493399e+002,-9.481130e-003
4.512684e+002,-1.497268e-002
4.531969e+002,-1.543903e-002
4.551254e+002,-1.344720e-002
4.570539e+002,-1.348369e-002
4.589824e+002,-1.540200e-002
4.609109e+002,-1.354430e-002
4.628394e+002,-1.037813e-002
4.647679e+002,-1.061485e-002
4.666964e+002,-1.060221e-002
4.686249e+002,-1.222146e-002
4.705533e+002,-1.307032e-002
4.724819e+002,-1.220207e-002
4.744103e+002,-1.242527e-002
4.763389e+002,-1.219794e-002
4.782673e+002,-1.233684e-002
4.801959e+002,-1.294733e-002
4.821243e+002,-1.150835e-002
4.840529e+002,-1.061343e-002
4.859813e+002,-1.144649e-002
4.879099e+002,-1.254877e-002
4.898383e+002,-1.426145e-002
4.917668e+002,-1.540999e-002
4.936953e+002,-1.276458e-002
4.956238e+002,-1.109313e-002
4.975523e+002,-1.235352e-002
4.994808e+002,-1.173836e-002
5.014093e+002,-1.256550e-002
5.033378e+002,-1.362102e-002
5.052663e+002,-1.524085e-002
5.071948e+002,-1.605612e-002
5.091233e+002,-1.507063e-002
5.110518e+002,-1.471838e-002
5.129803e+002,-1.534216e-002
5.149088e+002,-1.584251e-002
5.168373e+002,-1.609016e-002
5.187658e+002,-1.528084e-002
5.206943e+002,-1.407419e-002
5.226228e+002,-1.494720e-002
5.245513e+002,-1.598038e-002
5.264798e+002,-1.567751e-002
5.284083e+002,-1.486505e-002
5.303368e+002,-1.682882e-002
5.322653e+002,-1.829935e-002
5.341938e+002,-1.777364e-002
5.361223e+002,-1.768257e-002
5.380508e+002,-1.762008e-002
5.399792e+002,-1.607841e-002
5.419078e+002,-1.590203e-002
5.438363e+002,-1.658640e-002
5.457648e+002,-1.579216e-002
5.476932e+002,-1.647327e-002
5.496218e+002,-1.627081e-002
5.515503e+002,-1.527316e-002
5.534788e+002,-1.569061e-002
5.554072e+002,-1.506173e-002
5.573358e+002,-1.470803e-002
5.592643e+002,-1.492297e-002
5.611927e+002,-1.566393e-002
5.631212e+002,-1.582670e-002
5.650497e+002,-1.521580e-002
5.669783e+002,-1.492754e-002
5.689067e+002,-1.362054e-002
5.708352e+002,-1.375799e-002
5.727637e+002,-1.596262e-002
5.746923e+002,-1.696038e-002
5.766207e+002,-1.545351e-002
5.785492e+002,-1.320309e-002
5.804777e+002,-1.431503e-002
5.824063e+002,-1.819708e-002
5.843347e+002,-1.634606e-002
5.862632e+002,-1.458078e-002
5.881917e+002,-1.496935e-002
5.901202e+002,-1.569176e-002
5.920487e+002,-1.719751e-002
5.939772e+002,-1.799816e-002
5.959057e+002,-1.787871e-002
5.978342e+002,-1.595661e-002
5.997627e+002,-1.469627e-002
6.016912e+002,-1.476984e-002
6.036197e+002,-1.343490e-002
6.055482e+002,-1.208797e-002
6.074767e+002,-1.158192e-002
6.094052e+002,-9.336033e-003
6.113337e+002,-6.930519e-003
6.132622e+002,-8.169086e-003
6.151907e+002,-9.384901e-003
6.171192e+002,-8.963876e-003
6.190477e+002,-8.937812e-003
6.209762e+002,-9.089176e-003
6.229047e+002,-1.114768e-002
6.248332e+002,-1.448251e-002
6.267617e+002,-1.701346e-002
6.286902e+002,-1.758286e-002
6.306187e+002,-1.654695e-002
6.325472e+002,-1.605552e-002
6.344756e+002,-1.590356e-002
6.364042e+002,-1.588519e-002
6.383326e+002,-1.607397e-002
6.402612e+002,-1.652287e-002
6.421896e+002,-1.612726e-002
6.441182e+002,-1.625399e-002
6.460466e+002,-1.648864e-002
6.479752e+002,-1.672464e-002
6.499036e+002,-1.691168e-002
6.518322e+002,-1.669709e-002
6.537606e+002,-1.661208e-002
6.556891e+002,-1.704302e-002
6.576177e+002,-1.702773e-002
6.595461e+002,-1.713779e-002
6.614746e+002,-1.790872e-002
6.634031e+002,-1.804746e-002
6.653317e+002,-1.759857e-002
6.672601e+002,-1.633537e-002
6.691886e+002,-1.634437e-002
6.711171e+002,-1.686907e-002
6.730457e+002,-1.663660e-002
6.749741e+002,-1.669897e-002
6.769026e+002,-1.671182e-002
6.788311e+002,-1.677893e-002
6.807596e+002,-1.675177e-002
6.826881e+002,-1.621320e-002
6.846166e+002,-1.571905e-002
6.865451e+002,-1.584168e-002
6.884736e+002,-1.567927e-002
6.904021e+002,-1.554946e-002
6.923306e+002,-1.531132e-002
6.942591e+002,-1.492514e-002
6.961876e+002,-1.458312e-002
6.981161e+002,-1.441575e-002
7.000446e+002,-1.417192e-002
7.019731e+002,-1.414110e-002
7.039016e+002,-1.422939e-002
7.058301e+002,-1.438183e-002
7.077585e+002,-1.430063e-002
7.096871e+002,-1.425145e-002
7.116156e+002,-1.452968e-002
7.135441e+002,-1.495338e-002
7.154725e+002,-1.516221e-002
7.174011e+002,-1.519417e-002
7.193296e+002,-1.504857e-002
7.212581e+002,-1.475928e-002
7.231865e+002,-1.431112e-002
7.251151e+002,-1.437834e-002
7.270436e+002,-1.399194e-002
7.289720e+002,-1.340110e-002
7.309005e+002,-1.342700e-002
7.328290e+002,-1.363387e-002
7.347576e+002,-1.401401e-002
7.366860e+002,-1.444645e-002
7.386145e+002,-1.415614e-002
7.405430e+002,-1.364404e-002
7.424716e+002,-1.325310e-002
7.444000e+002,-1.328517e-002
7.463285e+002,-1.305605e-002
7.482570e+002,-1.298251e-002
7.501855e+002,-1.280644e-002
7.521140e+002,-1.207660e-002
7.540425e+002,-1.149586e-002
7.559710e+002,-1.157850e-002
7.578995e+002,-1.141512e-002
7.598280e+002,-1.123050e-002
7.617565e+002,-1.104565e-002
7.636850e+002,-1.088107e-002
7.656135e+002,-1.031789e-002
7.675420e+002,-1.012141e-002
7.694705e+002,-1.091277e-002
7.713990e+002,-1.132994e-002
7.733275e+002,-1.116883e-002
7.752560e+002,-1.124503e-002
7.771844e+002,-1.122195e-002
7.791130e+002,-1.153568e-002
7.810415e+002,-1.161918e-002
7.829700e+002,-1.177377e-002
7.848984e+002,-1.162598e-002
7.868270e+002,-1.150619e-002
7.887555e+002,-1.199654e-002
7.906840e+002,-1.244999e-002
7.926124e+002,-1.258517e-002
7.945410e+002,-1.309302e-002
7.964695e+002,-1.361781e-002
7.983979e+002,-1.364119e-002
8.003264e+002,-1.350977e-002
8.022549e+002,-1.328675e-002
8.041835e+002,-1.309961e-002
8.061119e+002,-1.331641e-002
8.080404e+002,-1.358027e-002
8.099689e+002,-1.346670e-002
8.118975e+002,-1.308521e-002
8.138259e+002,-1.293925e-002
8.157545e+002,-1.332078e-002
8.176830e+002,-1.329790e-002
8.196115e+002,-1.327415e-002
8.215399e+002,-1.333675e-002
8.234684e+002,-1.292523e-002
8.253970e+002,-1.277530e-002
8.273254e+002,-1.255453e-002
8.292539e+002,-1.231243e-002
8.311824e+002,-1.216663e-002
8.331110e+002,-1.209075e-002
8.350394e+002,-1.204428e-002
8.369679e+002,-1.174823e-002
8.388964e+002,-1.165073e-002
8.408250e+002,-1.129695e-002
8.427534e+002,-1.154643e-002
8.446819e+002,-1.215857e-002
8.466104e+002,-1.206255e-002
8.485389e+002,-1.203503e-002
8.504674e+002,-1.233181e-002
8.523959e+002,-1.263487e-002
8.543244e+002,-1.265186e-002
8.562529e+002,-1.264188e-002
8.581814e+002,-1.250257e-002
8.601099e+002,-1.283954e-002
8.620384e+002,-1.339121e-002
8.639669e+002,-1.333726e-002
8.658954e+002,-1.322829e-002
8.678239e+002,-1.348790e-002
8.697524e+002,-1.353839e-002
8.716809e+002,-1.336547e-002
8.736094e+002,-1.326730e-002
8.755378e+002,-1.346792e-002
8.774664e+002,-1.339313e-002
8.793949e+002,-1.333022e-002
8.813234e+002,-1.352378e-002
8.832518e+002,-1.348540e-002
8.851804e+002,-1.331586e-002
8.871089e+002,-1.364607e-002
8.890374e+002,-1.393730e-002
8.909658e+002,-1.374319e-002
8.928943e+002,-1.318576e-002
8.948229e+002,-1.304753e-002
8.967513e+002,-1.308289e-002
8.986798e+002,-1.297083e-002
9.006083e+002,-1.296099e-002
9.025369e+002,-1.304113e-002
9.044653e+002,-1.325641e-002
9.063938e+002,-1.332078e-002
9.083223e+002,-1.312784e-002
9.102509e+002,-1.325451e-002
9.121793e+002,-1.304540e-002
9.141078e+002,-1.316230e-002
9.160364e+002,-1.336968e-002
9.179648e+002,-1.349683e-002
9.198933e+002,-1.364144e-002
9.218218e+002,-1.376354e-002
9.237504e+002,-1.384580e-002
9.256788e+002,-1.386131e-002
9.276073e+002,-1.388631e-002
9.295358e+002,-1.405873e-002
9.314644e+002,-1.408163e-002
9.333928e+002,-1.403175e-002
9.353213e+002,-1.399370e-002
9.372498e+002,-1.411041e-002
9.391783e+002,-1.458517e-002
9.411068e+002,-1.459645e-002
9.430353e+002,-1.422871e-002
9.449637e+002,-1.416458e-002
9.468923e+002,-1.396357e-002
9.488208e+002,-1.396332e-002
9.507493e+002,-1.403441e-002
9.526777e+002,-1.419062e-002
9.546063e+002,-1.424237e-002
9.565348e+002,-1.428887e-002
9.584633e+002,-1.440347e-002
9.603917e+002,-1.455720e-002
9.623203e+002,-1.446472e-002
9.642488e+002,-1.430640e-002
9.661772e+002,-1.443642e-002
9.681057e+002,-1.460292e-002
9.700343e+002,-1.480305e-002
9.719628e+002,-1.465492e-002
9.738912e+002,-1.479700e-002
9.758197e+002,-1.518822e-002
9.777483e+002,-1.523375e-002
9.796768e+002,-1.496314e-002
9.816052e+002,-1.490817e-002
9.835337e+002,-1.512186e-002
9.854623e+002,-1.515687e-002
9.873907e+002,-1.523797e-002
9.893192e+002,-1.533557e-002
9.912477e+002,-1.549028e-002
9.931763e+002,-1.546665e-002
9.951047e+002,-1.549971e-002
9.970332e+002,-1.560115e-002
9.989617e+002,-1.537964e-002
1.000890e+003,-1.512906e-002
1.002819e+003,-1.497371e-002
1.004747e+003,-1.473580e-002
1.006676e+003,-1.460908e-002
1.008604e+003,-1.453118e-002
1.010533e+003,-1.438318e-002
1.012461e+003,-1.422865e-002
1.014390e+003,-1.401536e-002
1.016318e+003,-1.353316e-002
1.018247e+003,-1.313317e-002
1.020175e+003,-1.285379e-002
1.022104e+003,-1.252002e-002
1.024032e+003,-1.211904e-002
1.025961e+003,-1.163382e-002
1.027889e+003,-1.136716e-002
1.029818e+003,-1.110957e-002
1.031746e+003,-1.058251e-002
1.033675e+003,-9.980672e-003
1.035603e+003,-9.726469e-003
1.037532e+003,-9.491666e-003
1.039460e+003,-9.055915e-003
1.041389e+003,-8.778247e-003
1.043317e+003,-8.276930e-003
1.045246e+003,-7.789190e-003
1.047174e+003,-7.643462e-003
1.049103e+003,-7.595601e-003
1.051031e+003,-7.765790e-003
1.052960e+003,-7.813924e-003
1.054888e+003,-7.799182e-003
1.056817e+003,-7.652870e-003
1.058745e+003,-7.471760e-003
1.060674e+003,-7.425575e-003
1.062602e+003,-7.529305e-003
1.064531e+003,-7.597132e-003
1.066459e+003,-7.524974e-003
1.068388e+003,-7.571018e-003
1.070316e+003,-7.625100e-003
1.072245e+003,-7.571995e-003
1.074173e+003,-7.614160e-003
1.076102e+003,-7.646815e-003
1.078030e+003,-7.676212e-003
1.079959e+003,-7.881609e-003
1.081887e+003,-7.864428e-003
1.083816e+003,-7.648150e-003
1.085744e+003,-7.610449e-003
1.087673e+003,-7.714721e-003
1.089601e+003,-7.732786e-003
1.091530e+003,-7.679207e-003
1.093458e+003,-7.861597e-003
1.095387e+003,-8.009107e-003
1.097315e+003,-7.951918e-003
1.099244e+003,-7.911510e-003
1.101172e+003,-7.811288e-003
1.103101e+003,-7.934805e-003
1.105029e+003,-8.053408e-003
1.106958e+003,-8.044724e-003
1.108886e+003,-7.970331e-003
1.110815e+003,-8.119690e-003
1.112743e+003,-8.328778e-003
1.114672e+003,-8.343665e-003
1.116600e+003,-8.021208e-003
1.118529e+003,-7.878420e-003
1.120457e+003,-7.949640e-003
1.122386e+003,-7.914471e-003
1.124314e+003,-7.894363e-003
1.126243e+003,-7.996453e-003
1.128171e+003,-8.276475e-003
1.130100e+003,-8.357738e-003
1.132028e+003,-8.351628e-003
1.133957e+003,-8.496794e-003
1.135885e+003,-8.639282e-003
1.137814e+003,-8.987862e-003
1.139742e+003,-9.530404e-003
1.141671e+003,-9.894756e-003
1.143599e+003,-1.007965e-002
1.145528e+003,-1.047860e-002
1.147456e+003,-1.099858e-002
1.149385e+003,-1.121055e-002
1.151313e+003,-1.145314e-002
1.153242e+003,-1.182040e-002
1.155170e+003,-1.186879e-002
1.157099e+003,-1.191596e-002
1.159027e+003,-1.199487e-002
1.160956e+003,-1.203029e-002
1.162884e+003,-1.210927e-002
1.164813e+003,-1.228611e-002
1.166741e+003,-1.230544e-002
1.168670e+003,-1.229120e-002
1.170598e+003,-1.224994e-002
1.172526e+003,-1.219456e-002
1.174455e+003,-1.228769e-002
1.176384e+003,-1.227278e-002
1.178312e+003,-1.223135e-002
1.180240e+003,-1.234534e-002
1.182169e+003,-1.236041e-002
1.184098e+003,-1.243683e-002
1.186026e+003,-1.253322e-002
1.187954e+003,-1.258565e-002
1.189883e+003,-1.266859e-002
1.191812e+003,-1.287907e-002
1.193740e+003,-1.298090e-002
1.195668e+003,-1.312713e-002
1.197597e+003,-1.341437e-002
1.199526e+003,-1.356238e-002
1.201454e+003,-1.344158e-002
1.203382e+003,-1.323022e-002
1.205311e+003,-1.336380e-002
1.207240e+003,-1.344974e-002
1.209168e+003,-1.331024e-002
1.211096e+003,-1.323327e-002
1.213025e+003,-1.310820e-002
1.214953e+003,-1.315812e-002
1.216882e+003,-1.331747e-002
1.218810e+003,-1.338745e-002
1.220739e+003,-1.332315e-002
1.222667e+003,-1.326113e-002
1.224596e+003,-1.313880e-002
1.226524e+003,-1.308775e-002
1.228453e+003,-1.302656e-002
1.230381e+003,-1.306560e-002
1.232310e+003,-1.306155e-002
1.234238e+003,-1.297164e-002
1.236167e+003,-1.300290e-002
1.238095e+003,-1.301701e-002
1.240024e+003,-1.283620e-002
1.241952e+003,-1.287074e-002
1.243881e+003,-1.319425e-002
1.245809e+003,-1.340724e-002
1.247738e+003,-1.340062e-002
1.249666e+003,-1.334333e-002
1.251595e+003,-1.356518e-002
1.253523e+003,-1.388926e-002
1.255452e+003,-1.409366e-002
1.257380e+003,-1.428813e-002
1.259309e+003,-1.440007e-002
1.261237e+003,-1.448440e-002
1.263166e+003,-1.451314e-002
1.265094e+003,-1.432083e-002
1.267023e+003,-1.415117e-002
1.268951e+003,-1.419328e-002
1.270880e+003,-1.420421e-002
1.272808e+003,-1.430201e-002
1.274737e+003,-1.430131e-002
1.276665e+003,-1.425975e-002
1.278594e+003,-1.434962e-002
1.280522e+003,-1.448401e-002
1.282451e+003,-1.458485e-002
1.284379e+003,-1.456005e-002
1.286308e+003,-1.463599e-002
1.288236e+003,-1.464752e-002
1.290165e+003,-1.453041e-002
1.292093e+003,-1.460305e-002
1.294022e+003,-1.467715e-002
1.295950e+003,-1.470601e-002
1.297879e+003,-1.480917e-002
1.299807e+003,-1.488961e-002
1.301736e+003,-1.504931e-002
1.303664e+003,-1.530733e-002
1.305593e+003,-1.548907e-002
1.307521e+003,-1.544392e-002
1.309450e+003,-1.548456e-002
1.311378e+003,-1.568642e-002
1.313307e+003,-1.594531e-002
1.315235e+003,-1.602732e-002
1.317164e+003,-1.581025e-002
1.319092e+003,-1.590059e-002
1.321021e+003,-1.605868e-002
1.322949e+003,-1.605941e-002
1.324878e+003,-1.600688e-002
1.326806e+003,-1.594860e-002
1.328735e+003,-1.575197e-002
1.330663e+003,-1.549681e-002
1.332592e+003,-1.542592e-002
1.334520e+003,-1.553667e-002
1.336449e+003,-1.538904e-002
1.338377e+003,-1.516781e-002
1.340306e+003,-1.519510e-002
1.342234e+003,-1.533698e-002
1.344163e+003,-1.536272e-002
1.346091e+003,-1.542451e-002
1.348020e+003,-1.538044e-002
1.349948e+003,-1.540433e-002
1.351877e+003,-1.550621e-002
1.353805e+003,-1.552155e-002
1.355734e+003,-1.550067e-002
1.357662e+003,-1.558437e-002
1.359591e+003,-1.548568e-002
1.361519e+003,-1.539074e-002
1.363448e+003,-1.551653e-002
1.365376e+003,-1.597520e-002
1.367305e+003,-1.629663e-002
1.369233e+003,-1.647014e-002
1.371162e+003,-1.645174e-002
1.373090e+003,-1.623152e-002
1.375019e+003,-1.635452e-002
1.376947e+003,-1.665117e-002
1.378876e+003,-1.677654e-002
1.380804e+003,-1.694967e-002
1.382733e+003,-1.702773e-002
1.384661e+003,-1.701958e-002
1.386590e+003,-1.678126e-002
1.388518e+003,-1.682219e-002
1.390447e+003,-1.721191e-002
1.392375e+003,-1.729098e-002
1.394304e+003,-1.703299e-002
1.396232e+003,-1.717248e-002
1.398161e+003,-1.730658e-002
1.400089e+003,-1.746317e-002
1.402018e+003,-1.769803e-002
1.403946e+003,-1.778833e-002
1.405875e+003,-1.780945e-002
1.407803e+003,-1.792189e-002
1.409732e+003,-1.791702e-002
1.411660e+003,-1.773241e-002
1.413589e+003,-1.764996e-002
1.415517e+003,-1.749722e-002
1.417446e+003,-1.704557e-002
1.419374e+003,-1.653104e-002
1.421303e+003,-1.669001e-002
1.423231e+003,-1.657783e-002
1.425160e+003,-1.618789e-002
1.427088e+003,-1.606551e-002
1.429017e+003,-1.573289e-002
1.430945e+003,-1.534421e-002
1.432874e+003,-1.482041e-002
1.434802e+003,-1.412914e-002
1.436731e+003,-1.334353e-002
1.438659e+003,-1.342404e-002
1.440588e+003,-1.342632e-002
1.442516e+003,-1.318097e-002
1.444445e+003,-1.298286e-002
1.446373e+003,-1.252878e-002
1.448302e+003,-1.210592e-002
1.450230e+003,-1.208672e-002
1.452159e+003,-1.201994e-002
1.454087e+003,-1.166076e-002
1.456016e+003,-1.049180e-002
1.457944e+003,-1.016750e-002
1.459873e+003,-1.118633e-002
1.461801e+003,-1.186895e-002
1.463730e+003,-1.191048e-002
1.465658e+003,-1.202707e-002
1.467587e+003,-1.266579e-002
1.469515e+003,-1.298511e-002
1.471444e+003,-1.273321e-002
1.473372e+003,-1.272761e-002
1.475301e+003,-1.337238e-002
1.477229e+003,-1.407352e-002
1.479158e+003,-1.477830e-002
1.481086e+003,-1.512906e-002
1.483015e+003,-1.558469e-002
1.484943e+003,-1.581926e-002
1.486872e+003,-1.562535e-002
1.488800e+003,-1.546579e-002
1.490729e+003,-1.554921e-002
1.492657e+003,-1.603997e-002
1.494586e+003,-1.613508e-002
1.496514e+003,-1.580299e-002
1.498443e+003,-1.589331e-002
1.500371e+003,-1.634242e-002
1.502300e+003,-1.665991e-002
1.504228e+003,-1.615606e-002
1.506157e+003,-1.487055e-002
1.508085e+003,-1.528874e-002
1.510014e+003,-1.637720e-002
1.511942e+003,-1.672645e-002
1.513871e+003,-1.670793e-002
1.515799e+003,-1.639900e-002
1.517728e+003,-1.626028e-002
1.519656e+003,-1.605258e-002
1.521585e+003,-1.547318e-002
1.523513e+003,-1.594326e-002
1.525442e+003,-1.618935e-002
1.527370e+003,-1.644261e-002
1.529299e+003,-1.683022e-002
1.531227e+003,-1.695591e-002
1.533156e+003,-1.643610e-002
1.535084e+003,-1.662474e-002
1.537013e+003,-1.672014e-002
1.538941e+003,-1.546365e-002
1.540870e+003,-1.493789e-002
1.542798e+003,-1.560380e-002
1.544727e+003,-1.621885e-002
1.546655e+003,-1.696139e-002
1.548584e+003,-1.715085e-002
1.550512e+003,-1.703936e-002
1.552441e+003,-1.702311e-002
1.554369e+003,-1.674922e-002
1.556298e+003,-1.640643e-002
1.558226e+003,-1.501391e-002
1.560155e+003,-1.505968e-002
1.562083e+003,-1.637373e-002
1.564012e+003,-1.646864e-002
1.565940e+003,-1.640113e-002
1.567869e+003,-1.611803e-002
1.569797e+003,-1.563711e-002
1.571726e+003,-1.606784e-002
1.573654e+003,-1.614188e-002
1.575583e+003,-1.521027e-002
1.577511e+003,-1.518582e-002
1.579440e+003,-1.581507e-002
1.581368e+003,-1.578229e-002
1.583297e+003,-1.576174e-002
1.585225e+003,-1.568166e-002
1.587154e+003,-1.556420e-002
1.589082e+003,-1.547842e-002
1.591010e+003,-1.557644e-002
1.592939e+003,-1.563337e-002
1.594868e+003,-1.553584e-002
1.596796e+003,-1.548792e-002
1.598724e+003,-1.550985e-002
1.600653e+003,-1.554553e-002
1.602582e+003,-1.559348e-002
1.604510e+003,-1.569774e-002
1.606438e+003,-1.576830e-002
1.608367e+003,-1.575727e-002
1.610296e+003,-1.599526e-002
1.612224e+003,-1.626079e-002
1.614152e+003,-1.615670e-002
1.616081e+003,-1.551455e-002
1.618010e+003,-1.573564e-002
1.619938e+003,-1.646057e-002
1.621866e+003,-1.634836e-002
1.623795e+003,-1.634826e-002
1.625724e+003,-1.676481e-002
1.627652e+003,-1.692395e-002
1.629580e+003,-1.719936e-002
1.631509e+003,-1.754910e-002
1.633438e+003,-1.721748e-002
1.635366e+003,-1.647767e-002
1.637294e+003,-1.698666e-002
1.639223e+003,-1.780150e-002
1.641151e+003,-1.816457e-002
1.643080e+003,-1.843869e-002
1.645008e+003,-1.801688e-002
1.646937e+003,-1.752017e-002
1.648865e+003,-1.820607e-002
1.650794e+003,-1.829541e-002
1.652722e+003,-1.663973e-002
1.654651e+003,-1.740906e-002
1.656579e+003,-1.888724e-002
1.658508e+003,-1.915586e-002
1.660436e+003,-1.904006e-002
1.662365e+003,-1.868562e-002
1.664293e+003,-1.867165e-002
1.666222e+003,-1.873507e-002
1.668150e+003,-1.811372e-002
1.670079e+003,-1.774361e-002
1.672007e+003,-1.804221e-002
1.673936e+003,-1.778795e-002
1.675864e+003,-1.755880e-002
1.677793e+003,-1.812234e-002
1.679721e+003,-1.822847e-002
1.681650e+003,-1.783982e-002
1.683578e+003,-1.664177e-002
1.685507e+003,-1.670050e-002
1.687435e+003,-1.765588e-002
1.689364e+003,-1.781562e-002
1.691292e+003,-1.781024e-002
1.693221e+003,-1.765492e-002
1.695149e+003,-1.680956e-002
1.697078e+003,-1.654721e-002
1.699006e+003,-1.605938e-002
1.700935e+003,-1.548533e-002
1.702863e+003,-1.646864e-002
1.704792e+003,-1.644239e-002
1.706720e+003,-1.648609e-002
1.708649e+003,-1.677099e-002
1.710577e+003,-1.693147e-002
1.712506e+003,-1.672272e-002
1.714434e+003,-1.619379e-002
1.716363e+003,-1.564302e-002
1.718291e+003,-1.561266e-002
1.720220e+003,-1.625974e-002
1.722148e+003,-1.659588e-002
1.724077e+003,-1.665726e-002
1.726005e+003,-1.667318e-002
1.727934e+003,-1.652488e-002
1.729862e+003,-1.640193e-002
1.731791e+003,-1.613658e-002
1.733719e+003,-1.541277e-002
1.735648e+003,-1.575826e-002
1.737576e+003,-1.631364e-002
1.739505e+003,-1.607749e-002
1.741433e+003,-1.627225e-002
1.743362e+003,-1.629481e-002
1.745290e+003,-1.622265e-002
1.747219e+003,-1.597814e-002
1.749147e+003,-1.567581e-002
1.751076e+003,-1.541603e-002
1.753004e+003,-1.568869e-002
1.754933e+003,-1.584162e-002
1.756861e+003,-1.570359e-002
1.758790e+003,-1.585670e-002
1.760718e+003,-1.566169e-002
1.762647e+003,-1.556465e-002
1.764575e+003,-1.599152e-002
1.766504e+003,-1.593902e-002
1.768432e+003,-1.571119e-002
1.770361e+003,-1.557491e-002
1.772289e+003,-1.514871e-002
1.774218e+003,-1.543906e-002
1.776146e+003,-1.591701e-002
1.778075e+003,-1.604884e-002
1.780003e+003,-1.597131e-002
1.781932e+003,-1.600478e-002
1.783860e+003,-1.600228e-002
1.785789e+003,-1.595502e-002
1.787717e+003,-1.616164e-002
1.789646e+003,-1.600752e-002
1.791574e+003,-1.554681e-002
1.793503e+003,-1.552910e-002
1.795431e+003,-1.588542e-002
1.797360e+003,-1.586290e-002
1.799288e+003,-1.582002e-002
1.801217e+003,-1.590033e-002
1.803145e+003,-1.605906e-002
1.805074e+003,-1.599197e-002
1.807002e+003,-1.605309e-002
1.808931e+003,-1.610111e-002
1.810859e+003,-1.600337e-002
1.812788e+003,-1.602745e-002
1.814716e+003,-1.621716e-002
1.816645e+003,-1.621751e-002
1.818573e+003,-1.618038e-002
1.820502e+003,-1.612956e-002
1.822430e+003,-1.606606e-002
1.824359e+003,-1.586235e-002
1.826287e+003,-1.589570e-002
1.828216e+003,-1.591088e-002
1.830144e+003,-1.577532e-002
1.832073e+003,-1.611079e-002
1.834001e+003,-1.627416e-002
1.835930e+003,-1.625811e-002
1.837858e+003,-1.633607e-002
1.839787e+003,-1.638748e-002
1.841715e+003,-1.625511e-002
1.843644e+003,-1.570365e-002
1.845572e+003,-1.587337e-002
1.847501e+003,-1.635838e-002
1.849429e+003,-1.635981e-002
1.851358e+003,-1.628616e-002
1.853286e+003,-1.628843e-002
1.855215e+003,-1.622399e-002
1.857143e+003,-1.616263e-002
1.859072e+003,-1.624716e-002
1.861000e+003,-1.630244e-002
1.862929e+003,-1.625993e-002
1.864857e+003,-1.622099e-002
1.866786e+003,-1.614144e-002
1.868714e+003,-1.593119e-002
1.870643e+003,-1.612586e-002
1.872571e+003,-1.638620e-002
1.874500e+003,-1.630537e-002
1.876428e+003,-1.630518e-002
1.878357e+003,-1.625469e-002
1.880285e+003,-1.629366e-002
1.882214e+003,-1.642168e-002
1.884142e+003,-1.641412e-002
1.886071e+003,-1.645209e-002
1.887999e+003,-1.636246e-002
1.889928e+003,-1.624209e-002
1.891856e+003,-1.642152e-002
1.893785e+003,-1.646057e-002
1.895713e+003,-1.645393e-002
1.897642e+003,-1.651196e-002
1.899570e+003,-1.645508e-002
1.901499e+003,-1.639919e-002
1.903427e+003,-1.644641e-002
1.905356e+003,-1.643473e-002
1.907284e+003,-1.643604e-002
1.909213e+003,-1.640359e-002
1.911141e+003,-1.640085e-002
1.913070e+003,-1.642675e-002
1.914998e+003,-1.641964e-002
1.916927e+003,-1.626937e-002
1.918855e+003,-1.627506e-002
1.920784e+003,-1.635283e-002
1.922712e+003,-1.630403e-002
1.924641e+003,-1.641999e-002
1.926569e+003,-1.645799e-002
1.928498e+003,-1.655997e-002
1.930426e+003,-1.660021e-002
1.932355e+003,-1.663749e-002
1.934283e+003,-1.666294e-002
1.936212e+003,-1.665991e-002
1.938140e+003,-1.672537e-002
1.940069e+003,-1.661259e-002
1.941997e+003,-1.636661e-002
1.943926e+003,-1.645065e-002
1.945854e+003,-1.663504e-002
1.947783e+003,-1.663364e-002
1.949711e+003,-1.662981e-002
1.951640e+003,-1.670095e-002
1.953568e+003,-1.671785e-002
1.955497e+003,-1.671995e-002
1.957425e+003,-1.677941e-002
1.959354e+003,-1.674310e-002
1.961282e+003,-1.673261e-002
1.963211e+003,-1.677861e-002
1.965139e+003,-1.679879e-002
1.967068e+003,-1.676631e-002
1.968996e+003,-1.695687e-002
1.970925e+003,-1.696159e-002
1.972853e+003,-1.684880e-002
1.974782e+003,-1.684874e-002
1.976710e+003,-1.684182e-002
1.978639e+003,-1.681332e-002
1.980567e+003,-1.684172e-002
1.982496e+003,-1.685202e-002
1.984424e+003,-1.685164e-002
1.986353e+003,-1.686773e-002
1.988281e+003,-1.690314e-002
1.990210e+003,-1.684676e-002
1.992138e+003,-1.673363e-002
1.994067e+003,-1.678132e-002
1.995995e+003,-1.691308e-002
1.997924e+003,-1.696343e-002
1.999852e+003,-1.692669e-002
2.001781e+003,-1.692417e-002
2.003709e+003,-1.696088e-002
2.005638e+003,-1.695779e-002
2.007566e+003,-1.687972e-002
2.009495e+003,-1.685247e-002
2.011423e+003,-1.690945e-002
2.013352e+003,-1.681482e-002
2.015280e+003,-1.680717e-002
2.017208e+003,-1.689645e-002
2.019137e+003,-1.694833e-002
2.021066e+003,-1.693734e-002
2.022994e+003,-1.696152e-002
2.024922e+003,-1.702582e-002
2.026851e+003,-1.701034e-002
2.028780e+003,-1.699071e-002
2.030708e+003,-1.698963e-002
2.032636e+003,-1.697417e-002
2.034565e+003,-1.701308e-002
2.036494e+003,-1.701636e-002
2.038422e+003,-1.703098e-002
2.040350e+003,-1.710037e-002
2.042279e+003,-1.707587e-002
2.044208e+003,-1.702276e-002
2.046136e+003,-1.701610e-002
2.048064e+003,-1.701250e-002
2.049993e+003,-1.709823e-002
2.051921e+003,-1.714805e-002
2.053850e+003,-1.703334e-002
2.055778e+003,-1.699963e-002
2.057707e+003,-1.704965e-002
2.059635e+003,-1.710524e-002
2.061564e+003,-1.710250e-002
2.063492e+003,-1.716866e-002
2.065421e+003,-1.718522e-002
2.067349e+003,-1.707539e-002
2.069278e+003,-1.713923e-002
2.071206e+003,-1.717035e-002
2.073135e+003,-1.707912e-002
2.075063e+003,-1.707772e-002
2.076992e+003,-1.707603e-002
2.078920e+003,-1.712257e-002
2.080849e+003,-1.714776e-002
2.082777e+003,-1.714754e-002
2.084706e+003,-1.720369e-002
2.086634e+003,-1.731119e-002
2.088563e+003,-1.729155e-002
2.090491e+003,-1.716015e-002
2.092420e+003,-1.721076e-002
2.094348e+003,-1.721095e-002
2.096277e+003,-1.724872e-002
2.098205e+003,-1.728655e-002
2.100134e+003,-1.730065e-002
2.102062e+003,-1.726585e-002
2.103991e+003,-1.725057e-002
2.105919e+003,-1.728082e-002
2.107848e+003,-1.722582e-002
2.109776e+003,-1.722659e-002
2.111705e+003,-1.729843e-002
2.113633e+003,-1.729995e-002
2.115562e+003,-1.721703e-002
2.117490e+003,-1.717965e-002
2.119419e+003,-1.713980e-002
2.121347e+003,-1.717149e-002
2.123276e+003,-1.725980e-002
2.125204e+003,-1.724528e-002
2.127133e+003,-1.725471e-002
2.129061e+003,-1.718293e-002
2.130990e+003,-1.710183e-002
2.132918e+003,-1.718732e-002
2.134847e+003,-1.726165e-002
2.136775e+003,-1.720901e-002
2.138704e+003,-1.715894e-002
2.140632e+003,-1.715025e-002
2.142561e+003,-1.720538e-002
2.144489e+003,-1.723127e-002
2.146418e+003,-1.718442e-002
2.148346e+003,-1.709272e-002
2.150275e+003,-1.707772e-002
2.152203e+003,-1.711352e-002
2.154132e+003,-1.719178e-002
2.156060e+003,-1.723210e-002
2.157989e+003,-1.720159e-002
2.159917e+003,-1.718086e-002
2.161846e+003,-1.724092e-002
2.163774e+003,-1.723570e-002
2.165703e+003,-1.719633e-002
2.167631e+003,-1.712267e-002
2.169560e+003,-1.702152e-002
2.171488e+003,-1.701859e-002
2.173417e+003,-1.707160e-002
2.175345e+003,-1.716697e-002
2.177274e+003,-1.716528e-002
2.179202e+003,-1.705883e-002
2.181131e+003,-1.711091e-002
2.183059e+003,-1.715343e-002
2.184988e+003,-1.705857e-002
2.186916e+003,-1.701375e-002
2.188845e+003,-1.707724e-002
2.190773e+003,-1.718668e-002
2.192702e+003,-1.729403e-002
2.194630e+003,-1.723942e-002
2.196559e+003,-1.714238e-002
2.198487e+003,-1.712550e-002
2.200416e+003,-1.719016e-002
2.202344e+003,-1.718907e-002
2.204273e+003,-1.717519e-002
2.206201e+003,-1.723057e-002
2.208130e+003,-1.723878e-002
2.210058e+003,-1.722649e-002
2.211987e+003,-1.727108e-002
2.213915e+003,-1.729534e-002
2.215844e+003,-1.726792e-002
2.217772e+003,-1.723503e-002
2.219701e+003,-1.724503e-002
2.221629e+003,-1.728986e-002
2.223558e+003,-1.726216e-002
2.225486e+003,-1.725324e-002
2.227415e+003,-1.735306e-002
2.229343e+003,-1.741558e-002
2.231272e+003,-1.740791e-002
2.233200e+003,-1.731814e-002
2.235129e+003,-1.732081e-002
2.237057e+003,-1.740622e-002
2.238986e+003,-1.745025e-002
2.240914e+003,-1.743038e-002
2.242843e+003,-1.745604e-002
2.244771e+003,-1.745954e-002
2.246700e+003,-1.743252e-002
2.248628e+003,-1.745072e-002
2.250557e+003,-1.755606e-002
2.252485e+003,-1.758295e-002
2.254414e+003,-1.749480e-002
2.256342e+003,-1.752211e-002
2.258271e+003,-1.760939e-002
2.260199e+003,-1.757570e-002
2.262128e+003,-1.755581e-002
2.264056e+003,-1.759189e-002
2.265985e+003,-1.758289e-002
2.267913e+003,-1.752055e-002
2.269842e+003,-1.756272e-002
2.271770e+003,-1.765772e-002
2.273699e+003,-1.768661e-002
2.275627e+003,-1.767477e-002
2.277556e+003,-1.765753e-002
2.279484e+003,-1.760644e-002
2.281413e+003,-1.752688e-002
2.283341e+003,-1.755291e-002
2.285270e+003,-1.759508e-002
2.287198e+003,-1.763825e-002
2.289127e+003,-1.765260e-002
2.291055e+003,-1.766542e-002
2.292984e+003,-1.768346e-002
2.294912e+003,-1.777771e-002
2.296841e+003,-1.773286e-002
2.298769e+003,-1.761757e-002
2.300698e+003,-1.763539e-002
2.302626e+003,-1.757939e-002
2.304555e+003,-1.757589e-002
2.306483e+003,-1.759310e-002
2.308412e+003,-1.761767e-002
2.310340e+003,-1.759676e-002
2.312269e+003,-1.743681e-002
2.314197e+003,-1.729687e-002
2.316125e+003,-1.720882e-002
2.318054e+003,-1.718611e-002
2.319983e+003,-1.713502e-002
2.321911e+003,-1.696378e-002
2.323840e+003,-1.680497e-002
2.325768e+003,-1.677753e-002
2.327697e+003,-1.662059e-002
2.329625e+003,-1.626688e-002
2.331553e+003,-1.621141e-002
2.333482e+003,-1.628112e-002
2.335411e+003,-1.630815e-002
2.337339e+003,-1.625444e-002
2.339268e+003,-1.621342e-002
2.341196e+003,-1.632730e-002
2.343125e+003,-1.644567e-002
2.345053e+003,-1.663035e-002
2.346981e+003,-1.702697e-002
2.348910e+003,-1.741603e-002
2.350839e+003,-1.732982e-002
2.352767e+003,-1.680287e-002
2.354696e+003,-1.635069e-002
2.356624e+003,-1.611903e-002
2.358552e+003,-1.600691e-002
2.360481e+003,-1.597648e-002
2.362409e+003,-1.594809e-002
2.364338e+003,-1.593777e-002
2.366267e+003,-1.600931e-002
2.368195e+003,-1.621476e-002
2.370124e+003,-1.649630e-002
2.372052e+003,-1.683130e-002
2.373980e+003,-1.696834e-002
2.375909e+003,-1.719544e-002
2.377838e+003,-1.753856e-002
2.379766e+003,-1.788221e-002
2.381695e+003,-1.801837e-002
2.383623e+003,-1.796910e-002
2.385552e+003,-1.797628e-002
2.387480e+003,-1.803951e-002
2.389408e+003,-1.794192e-002
2.391337e+003,-1.789928e-002
2.393266e+003,-1.804234e-002
2.395194e+003,-1.812628e-002
2.397123e+003,-1.802953e-002
2.399051e+003,-1.789562e-002
2.400979e+003,-1.790367e-002
2.402908e+003,-1.799491e-002
2.404836e+003,-1.798156e-002
2.406765e+003,-1.800998e-002
2.408694e+003,-1.809170e-002
2.410622e+003,-1.807660e-002
2.412551e+003,-1.807587e-002
2.414479e+003,-1.802616e-002
2.416407e+003,-1.797355e-002
2.418336e+003,-1.794236e-002
2.420264e+003,-1.802222e-002
2.422193e+003,-1.809971e-002
2.424122e+003,-1.805954e-002
2.426050e+003,-1.799984e-002
2.427979e+003,-1.802899e-002
2.429907e+003,-1.804733e-002
2.431835e+003,-1.803207e-002
2.433764e+003,-1.801628e-002
2.435692e+003,-1.797717e-002
2.437621e+003,-1.796207e-002
2.439550e+003,-1.809240e-002
2.441478e+003,-1.810696e-002
2.443406e+003,-1.803837e-002
2.445335e+003,-1.809698e-002
2.447263e+003,-1.812234e-002
2.449192e+003,-1.808093e-002
2.451121e+003,-1.811700e-002
2.453049e+003,-1.815717e-002
2.454978e+003,-1.813711e-002
2.456906e+003,-1.808318e-002
2.458834e+003,-1.802928e-002
2.460763e+003,-1.806192e-002
2.462691e+003,-1.819406e-002
2.464620e+003,-1.823088e-002
2.466549e+003,-1.813565e-002
2.468477e+003,-1.813924e-002
2.470406e+003,-1.821065e-002
2.472334e+003,-1.824626e-002
2.474262e+003,-1.820883e-002
2.476191e+003,-1.824833e-002
2.478119e+003,-1.831101e-002
2.480048e+003,-1.829398e-002
2.481977e+003,-1.815698e-002
2.483905e+003,-1.813505e-002
2.485833e+003,-1.823511e-002
2.487762e+003,-1.826952e-002
2.489690e+003,-1.829484e-002
2.491619e+003,-1.828594e-002
2.493547e+003,-1.824613e-002
2.495476e+003,-1.823892e-002
2.497405e+003,-1.823069e-002
2.499333e+003,-1.820025e-002
2.501261e+003,-1.818557e-002
2.503190e+003,-1.818796e-002
2.505118e+003,-1.818446e-002
2.507047e+003,-1.824534e-002
2.508975e+003,-1.835573e-002
2.510904e+003,-1.843707e-002
2.512833e+003,-1.833556e-002
2.514761e+003,-1.818955e-002
2.516689e+003,-1.819806e-002
2.518618e+003,-1.819558e-002
2.520546e+003,-1.822831e-002
2.522475e+003,-1.829512e-002
2.524403e+003,-1.829188e-002
2.526332e+003,-1.827721e-002
2.528260e+003,-1.825261e-002
2.530189e+003,-1.822285e-002
2.532117e+003,-1.816308e-002
2.534046e+003,-1.822847e-002
2.535974e+003,-1.818875e-002
2.537903e+003,-1.816864e-002
2.539831e+003,-1.817604e-002
2.541760e+003,-1.824385e-002
2.543688e+003,-1.825611e-002
2.545617e+003,-1.826113e-002
2.547545e+003,-1.818853e-002
2.549474e+003,-1.819895e-002
2.551402e+003,-1.833070e-002
2.553331e+003,-1.840867e-002
2.555259e+003,-1.831367e-002
2.557188e+003,-1.820467e-002
2.559116e+003,-1.826977e-002
2.561045e+003,-1.831831e-002
2.562973e+003,-1.830122e-002
2.564902e+003,-1.819180e-002
2.566830e+003,-1.819533e-002
2.568759e+003,-1.837491e-002
2.570687e+003,-1.833295e-002
2.572616e+003,-1.819577e-002
2.574544e+003,-1.818942e-002
2.576473e+003,-1.828565e-002
2.578401e+003,-1.830773e-002
2.580330e+003,-1.833388e-002
2.582258e+003,-1.836539e-002
2.584187e+003,-1.828426e-002
2.586115e+003,-1.832311e-002
2.588044e+003,-1.839238e-002
2.589972e+003,-1.830113e-002
2.591901e+003,-1.823060e-002
2.593829e+003,-1.830087e-002
2.595758e+003,-1.837012e-002
2.597686e+003,-1.839032e-002
2.599615e+003,-1.840525e-002
2.601543e+003,-1.837075e-002
2.603472e+003,-1.834557e-002
2.605400e+003,-1.834112e-002
2.607329e+003,-1.833591e-002
2.609257e+003,-1.823308e-002
2.611186e+003,-1.818427e-002
2.613114e+003,-1.827740e-002
2.615043e+003,-1.831984e-002
2.616971e+003,-1.827952e-002
2.618900e+003,-1.818631e-002
2.620828e+003,-1.814175e-002
2.622757e+003,-1.803122e-002
2.624685e+003,-1.797886e-002
2.626614e+003,-1.803678e-002
2.628542e+003,-1.806729e-002
2.630471e+003,-1.803360e-002
2.632399e+003,-1.798951e-002
2.634328e+003,-1.799126e-002
2.636256e+003,-1.802591e-002
2.638185e+003,-1.793098e-002
2.640113e+003,-1.789791e-002
2.642042e+003,-1.790357e-002
2.643970e+003,-1.779739e-002
2.645899e+003,-1.782592e-002
2.647827e+003,-1.781667e-002
2.649756e+003,-1.770277e-002
2.651684e+003,-1.764678e-002
2.653613e+003,-1.772974e-002
2.655541e+003,-1.777577e-002
2.657470e+003,-1.781578e-002
2.659398e+003,-1.768794e-002
2.661327e+003,-1.745788e-002
2.663255e+003,-1.738388e-002
2.665184e+003,-1.753016e-002
2.667112e+003,-1.754945e-002
2.669041e+003,-1.748281e-002
2.670969e+003,-1.748058e-002
2.672898e+003,-1.744904e-002
2.674826e+003,-1.743198e-002
2.676755e+003,-1.743143e-002
2.678683e+003,-1.738942e-002
2.680612e+003,-1.736484e-002
2.682540e+003,-1.731062e-002
2.684469e+003,-1.724226e-002
2.686397e+003,-1.718223e-002
2.688326e+003,-1.719554e-002
2.690254e+003,-1.707893e-002
2.692183e+003,-1.705322e-002
2.694111e+003,-1.712958e-002
2.696040e+003,-1.714073e-002
2.697968e+003,-1.702735e-002
2.699897e+003,-1.692417e-002
2.701825e+003,-1.689811e-002
2.703754e+003,-1.682614e-002
2.705682e+003,-1.666814e-002
2.707611e+003,-1.662184e-002
2.709539e+003,-1.662273e-002
2.711468e+003,-1.658102e-002
2.713396e+003,-1.647678e-002
2.715325e+003,-1.634769e-002
2.717253e+003,-1.630221e-002
2.719182e+003,-1.630671e-002
2.721110e+003,-1.629538e-002
2.723039e+003,-1.617090e-002
2.724967e+003,-1.598980e-002
2.726896e+003,-1.597987e-002
2.728824e+003,-1.596351e-002
2.730753e+003,-1.579242e-002
2.732681e+003,-1.573046e-002
2.734610e+003,-1.569406e-002
2.736538e+003,-1.565261e-002
2.738467e+003,-1.560080e-002
2.740395e+003,-1.540814e-002
2.742324e+003,-1.535038e-002
2.744252e+003,-1.535812e-002
2.746181e+003,-1.524140e-002
2.748109e+003,-1.515552e-002
2.750038e+003,-1.504201e-002
2.751966e+003,-1.493033e-002
2.753895e+003,-1.479191e-002
2.755823e+003,-1.460722e-002
2.757752e+003,-1.447017e-002
2.759680e+003,-1.434551e-002
2.761609e+003,-1.416522e-002
2.763537e+003,-1.381730e-002
2.765466e+003,-1.351816e-002
2.767394e+003,-1.323568e-002
2.769323e+003,-1.296402e-002
2.771251e+003,-1.253438e-002
2.773180e+003,-1.211604e-002
2.775108e+003,-1.168163e-002
2.777037e+003,-1.109468e-002
2.778965e+003,-1.053714e-002
2.780894e+003,-9.872991e-003
2.782822e+003,-9.058349e-003
2.784750e+003,-8.320359e-003
2.786679e+003,-7.583033e-003
2.788608e+003,-6.815033e-003
2.790536e+003,-5.958322e-003
2.792465e+003,-5.139276e-003
2.794393e+003,-4.437623e-003
2.796322e+003,-3.628517e-003
2.798250e+003,-2.762954e-003
2.800178e+003,-2.068000e-003
2.802107e+003,-1.456942e-003
2.804036e+003,-9.386332e-004
2.805964e+003,-5.333292e-004
2.807893e+003,-1.364577e-004
2.809821e+003,4.943880e-005
2.811750e+003,3.479088e-006
2.813678e+003,-8.511301e-005
2.815606e+003,-2.110788e-004
2.817535e+003,-4.810055e-004
2.819464e+003,-8.603671e-004
2.821392e+003,-1.199187e-003
2.823321e+003,-1.631731e-003
2.825249e+003,-2.137971e-003
2.827177e+003,-2.818362e-003
2.829106e+003,-3.624804e-003
2.831034e+003,-4.485274e-003
2.832963e+003,-5.156401e-003
2.834892e+003,-5.608281e-003
2.836820e+003,-6.219768e-003
2.838749e+003,-6.990419e-003
2.840677e+003,-7.771746e-003
2.842605e+003,-8.392417e-003
2.844534e+003,-9.081129e-003
2.846462e+003,-1.001584e-002
2.848391e+003,-1.080874e-002
2.850320e+003,-1.128510e-002
2.852248e+003,-1.152994e-002
2.854177e+003,-1.171204e-002
2.856105e+003,-1.181672e-002
2.858033e+003,-1.176929e-002
2.859962e+003,-1.161266e-002
2.861890e+003,-1.166273e-002
2.863819e+003,-1.176245e-002
2.865748e+003,-1.172968e-002
2.867676e+003,-1.164940e-002
2.869604e+003,-1.145714e-002
2.871533e+003,-1.129879e-002
2.873461e+003,-1.117299e-002
2.875390e+003,-1.106577e-002
2.877319e+003,-1.084294e-002
2.879247e+003,-1.058012e-002
2.881176e+003,-1.048378e-002
2.883104e+003,-1.049047e-002
2.885032e+003,-1.049267e-002
2.886961e+003,-1.053737e-002
2.888889e+003,-1.066257e-002
2.890818e+003,-1.076886e-002
2.892747e+003,-1.090414e-002
2.894675e+003,-1.099651e-002
2.896604e+003,-1.098278e-002
2.898532e+003,-1.106273e-002
2.900460e+003,-1.119441e-002
2.902389e+003,-1.131377e-002
2.904317e+003,-1.146198e-002
2.906246e+003,-1.154946e-002
2.908175e+003,-1.156795e-002
2.910103e+003,-1.167495e-002
2.912031e+003,-1.194210e-002
2.913960e+003,-1.230334e-002
2.915888e+003,-1.244336e-002
2.917817e+003,-1.227944e-002
2.919745e+003,-1.190468e-002
2.921674e+003,-1.152278e-002
2.923603e+003,-1.115152e-002
2.925531e+003,-1.083699e-002
2.927459e+003,-1.052809e-002
2.929388e+003,-1.014786e-002
2.931316e+003,-9.867840e-003
2.933245e+003,-9.637522e-003
2.935173e+003,-9.456751e-003
2.937102e+003,-9.365510e-003
2.939031e+003,-9.337201e-003
2.940959e+003,-9.471178e-003
2.942887e+003,-9.675987e-003
2.944816e+003,-9.818606e-003
2.946744e+003,-1.008661e-002
2.948673e+003,-1.046023e-002
2.950601e+003,-1.107259e-002
2.952530e+003,-1.182104e-002
2.954458e+003,-1.244327e-002
2.956387e+003,-1.309006e-002
2.958315e+003,-1.373330e-002
2.960244e+003,-1.449933e-002
2.962172e+003,-1.526964e-002
2.964101e+003,-1.583833e-002
2.966029e+003,-1.645215e-002
2.967958e+003,-1.698239e-002
2.969886e+003,-1.747151e-002
2.971815e+003,-1.776607e-002
2.973743e+003,-1.807209e-002
2.975672e+003,-1.843789e-002
2.977600e+003,-1.881598e-002
2.979529e+003,-1.915735e-002
2.981457e+003,-1.932817e-002
2.983386e+003,-1.950529e-002
2.985314e+003,-1.973389e-002
2.987243e+003,-1.986641e-002
2.989171e+003,-1.993088e-002
2.991100e+003,-2.003426e-002
2.993028e+003,-2.008700e-002
2.994957e+003,-2.008801e-002
2.996885e+003,-2.019727e-002
2.998814e+003,-2.027159e-002
3.000742e+003,-2.034318e-002
3.002671e+003,-2.041804e-002
3.004599e+003,-2.051559e-002
3.006528e+003,-2.054002e-002
3.008456e+003,-2.053904e-002
3.010385e+003,-2.051534e-002
3.012313e+003,-2.051044e-002
3.014242e+003,-2.046381e-002
3.016170e+003,-2.048076e-002
3.018099e+003,-2.047507e-002
3.020027e+003,-2.055373e-002
3.021956e+003,-2.061981e-002
3.023884e+003,-2.074163e-002
3.025813e+003,-2.075774e-002
3.027741e+003,-2.080061e-002
3.029670e+003,-2.087261e-002
3.031598e+003,-2.081286e-002
3.033527e+003,-2.078788e-002
3.035455e+003,-2.073294e-002
3.037384e+003,-2.078497e-002
3.039312e+003,-2.081005e-002
3.041241e+003,-2.084053e-002
3.043169e+003,-2.101012e-002
3.045098e+003,-2.113006e-002
3.047026e+003,-2.110876e-002
3.048955e+003,-2.101100e-002
3.050883e+003,-2.094637e-002
3.052812e+003,-2.093463e-002
3.054740e+003,-2.109553e-002
3.056669e+003,-2.104588e-002
3.058597e+003,-2.100232e-002
3.060526e+003,-2.118488e-002
3.062454e+003,-2.127112e-002
3.064383e+003,-2.118722e-002
3.066311e+003,-2.111454e-002
3.068240e+003,-2.096434e-002
3.070168e+003,-2.100576e-002
3.072097e+003,-2.123543e-002
3.074025e+003,-2.129273e-002
3.075954e+003,-2.126386e-002
3.077882e+003,-2.117822e-002
3.079811e+003,-2.105321e-002
3.081739e+003,-2.105431e-002
3.083668e+003,-2.116074e-002
3.085596e+003,-2.123641e-002
3.087525e+003,-2.126358e-002
3.089453e+003,-2.116459e-002
3.091382e+003,-2.110835e-002
3.093310e+003,-2.106785e-002
3.095239e+003,-2.100364e-002
3.097167e+003,-2.103985e-002
3.099096e+003,-2.102634e-002
3.101024e+003,-2.106990e-002
3.102953e+003,-2.111097e-002
3.104881e+003,-2.109879e-002
3.106810e+003,-2.111517e-002
3.108738e+003,-2.107676e-002
3.110667e+003,-2.094407e-002
3.112595e+003,-2.091461e-002
3.114524e+003,-2.093927e-002
3.116452e+003,-2.105254e-002
3.118381e+003,-2.112864e-002
3.120309e+003,-2.114070e-002
3.122238e+003,-2.105204e-002
3.124166e+003,-2.095263e-002
3.126095e+003,-2.095196e-002
3.128023e+003,-2.111769e-002
3.129952e+003,-2.115796e-002
3.131880e+003,-2.110895e-002
3.133809e+003,-2.096380e-002
3.135737e+003,-2.093798e-002
3.137666e+003,-2.093236e-002
3.139594e+003,-2.093144e-002
3.141523e+003,-2.096241e-002
3.143451e+003,-2.090043e-002
3.145380e+003,-2.080594e-002
3.147308e+003,-2.083497e-002
3.149237e+003,-2.093987e-002
3.151165e+003,-2.092456e-002
3.153094e+003,-2.078311e-002
3.155022e+003,-2.075645e-002
3.156951e+003,-2.075278e-002
3.158879e+003,-2.075117e-002
3.160808e+003,-2.069046e-002
3.162736e+003,-2.060559e-002
3.164665e+003,-2.064695e-002
3.166593e+003,-2.079618e-002
3.168522e+003,-2.084236e-002
3.170450e+003,-2.073231e-002
3.172379e+003,-2.062989e-002
3.174307e+003,-2.068246e-002
3.176236e+003,-2.065289e-002
3.178164e+003,-2.055196e-002
3.180093e+003,-2.052994e-002
3.182021e+003,-2.051420e-002
3.183950e+003,-2.048812e-002
3.185878e+003,-2.055019e-002
3.187807e+003,-2.052112e-002
3.189735e+003,-2.054289e-002
3.191664e+003,-2.065675e-002
3.193592e+003,-2.068092e-002
3.195521e+003,-2.071415e-002
3.197449e+003,-2.075661e-002
3.199378e+003,-2.081103e-002
3.201306e+003,-2.081892e-002
3.203235e+003,-2.066695e-002
3.205163e+003,-2.063649e-002
3.207092e+003,-2.070335e-002
3.209020e+003,-2.060385e-002
3.210948e+003,-2.054492e-002
3.212877e+003,-2.041896e-002
3.214806e+003,-2.040088e-002
3.216734e+003,-2.058208e-002
3.218663e+003,-2.061595e-002
3.220591e+003,-2.053572e-002
3.222520e+003,-2.055304e-002
3.224448e+003,-2.058856e-002
3.226376e+003,-2.060499e-002
3.228305e+003,-2.049381e-002
3.230234e+003,-2.033727e-002
3.232162e+003,-2.028301e-002
3.234091e+003,-2.026198e-002
3.236019e+003,-2.041615e-002
3.237948e+003,-2.050879e-002
3.239876e+003,-2.029464e-002
3.241804e+003,-1.998765e-002
3.243733e+003,-1.991262e-002
3.245662e+003,-1.995135e-002
3.247590e+003,-1.991401e-002
3.249519e+003,-1.990379e-002
3.251447e+003,-1.987283e-002
3.253375e+003,-1.990012e-002
3.255304e+003,-1.981095e-002
3.257232e+003,-1.965156e-002
3.259161e+003,-1.961637e-002
3.261090e+003,-1.954425e-002
3.263018e+003,-1.955813e-002
3.264947e+003,-1.972328e-002
3.266875e+003,-1.983504e-002
3.268803e+003,-1.964861e-002
3.270732e+003,-1.957248e-002
3.272660e+003,-1.968193e-002
3.274589e+003,-1.964744e-002
3.276518e+003,-1.955407e-002
3.278446e+003,-1.960459e-002
3.280375e+003,-1.965510e-002
3.282303e+003,-1.959740e-002
3.284231e+003,-1.954194e-002
3.286160e+003,-1.963215e-002
3.288088e+003,-1.978375e-002
3.290017e+003,-1.992439e-002
3.291946e+003,-1.989860e-002
3.293874e+003,-1.976761e-002
3.295802e+003,-1.976048e-002
3.297731e+003,-1.981848e-002
3.299659e+003,-1.989226e-002
3.301588e+003,-2.004875e-002
3.303516e+003,-2.021027e-002
3.305445e+003,-2.026330e-002
3.307374e+003,-2.026761e-002
3.309302e+003,-2.042079e-002
3.311230e+003,-2.055468e-002
3.313159e+003,-2.062787e-002
3.315087e+003,-2.075389e-002
3.317016e+003,-2.080455e-002
3.318944e+003,-2.078699e-002
3.320873e+003,-2.080683e-002
3.322802e+003,-2.085881e-002
3.324730e+003,-2.098268e-002
3.326658e+003,-2.109222e-002
3.328587e+003,-2.119997e-002
3.330515e+003,-2.131355e-002
3.332444e+003,-2.140604e-002
3.334372e+003,-2.139011e-002
3.336301e+003,-2.124458e-002
3.338229e+003,-2.108490e-002
3.340158e+003,-2.115241e-002
3.342086e+003,-2.116418e-002
3.344015e+003,-2.116358e-002
3.345943e+003,-2.114001e-002
3.347872e+003,-2.120807e-002
3.349800e+003,-2.126831e-002
3.351729e+003,-2.130469e-002
3.353657e+003,-2.134081e-002
3.355586e+003,-2.130623e-002
3.357514e+003,-2.123455e-002
3.359443e+003,-2.133383e-002
3.361371e+003,-2.136730e-002
3.363300e+003,-2.136055e-002
3.365229e+003,-2.145965e-002
3.367157e+003,-2.166393e-002
3.369085e+003,-2.188434e-002
3.371014e+003,-2.191502e-002
3.372942e+003,-2.180777e-002
3.374871e+003,-2.197598e-002
3.376799e+003,-2.207034e-002
3.378728e+003,-2.219147e-002
3.380656e+003,-2.232825e-002
3.382585e+003,-2.246079e-002
3.384513e+003,-2.257962e-002
3.386442e+003,-2.275406e-002
3.388370e+003,-2.287972e-002
3.390299e+003,-2.284307e-002
3.392227e+003,-2.275293e-002
3.394156e+003,-2.291345e-002
3.396084e+003,-2.298046e-002
3.398013e+003,-2.297392e-002
3.399941e+003,-2.302904e-002
3.401870e+003,-2.290735e-002
3.403798e+003,-2.292216e-002
3.405727e+003,-2.312518e-002
3.407655e+003,-2.319300e-002
3.409584e+003,-2.324219e-002
3.411512e+003,-2.329307e-002
3.413441e+003,-2.343530e-002
3.415369e+003,-2.347457e-002
3.417298e+003,-2.339898e-002
3.419226e+003,-2.326304e-002
3.421155e+003,-2.316715e-002
3.423083e+003,-2.336579e-002
3.425012e+003,-2.347881e-002
3.426940e+003,-2.339129e-002
3.428869e+003,-2.343565e-002
3.430797e+003,-2.349027e-002
3.432726e+003,-2.346742e-002
3.434654e+003,-2.347746e-002
3.436583e+003,-2.365535e-002
3.438511e+003,-2.364515e-002
3.440440e+003,-2.344422e-002
3.442368e+003,-2.353917e-002
3.444297e+003,-2.377466e-002
3.446225e+003,-2.358433e-002
3.448154e+003,-2.333273e-002
3.450082e+003,-2.336363e-002
3.452011e+003,-2.342274e-002
3.453939e+003,-2.342614e-002
3.455868e+003,-2.338962e-002
3.457796e+003,-2.350113e-002
3.459725e+003,-2.378285e-002
3.461653e+003,-2.368459e-002
3.463582e+003,-2.351234e-002
3.465510e+003,-2.355163e-002
3.467439e+003,-2.355741e-002
3.469367e+003,-2.360385e-002
3.471296e+003,-2.360385e-002
3.473224e+003,-2.346227e-002
3.475153e+003,-2.353446e-002
3.477081e+003,-2.356346e-002
3.479010e+003,-2.354115e-002
3.480938e+003,-2.354928e-002
3.482867e+003,-2.372327e-002
3.484795e+003,-2.375367e-002
3.486724e+003,-2.365161e-002
3.488652e+003,-2.359827e-002
3.490581e+003,-2.355511e-002
3.492509e+003,-2.355511e-002
3.494438e+003,-2.358869e-002
3.496366e+003,-2.353016e-002
3.498295e+003,-2.351780e-002
3.500223e+003,-2.338746e-002
3.502152e+003,-2.325331e-002
3.504080e+003,-2.334190e-002
3.506009e+003,-2.358935e-002
3.507937e+003,-2.359642e-002
3.509866e+003,-2.357266e-002
3.511794e+003,-2.354877e-002
3.513723e+003,-2.355336e-002
3.515651e+003,-2.348142e-002
3.517580e+003,-2.348365e-002
3.519508e+003,-2.347815e-002
3.521437e+003,-2.352389e-002
3.523365e+003,-2.356541e-002
3.525294e+003,-2.362990e-002
3.527222e+003,-2.355907e-002
3.529151e+003,-2.355719e-002
3.531079e+003,-2.367094e-002
3.533008e+003,-2.362328e-002
3.534936e+003,-2.346679e-002
3.536865e+003,-2.354065e-002
3.538793e+003,-2.370319e-002
3.540722e+003,-2.367508e-002
3.542650e+003,-2.366344e-002
3.544579e+003,-2.346817e-002
3.546507e+003,-2.316344e-002
3.548436e+003,-2.323365e-002
3.550364e+003,-2.331373e-002
3.552293e+003,-2.331345e-002
3.554221e+003,-2.340764e-002
3.556150e+003,-2.344497e-002
3.558078e+003,-2.327875e-002
3.560007e+003,-2.329683e-002
3.561935e+003,-2.353666e-002
3.563864e+003,-2.352881e-002
3.565792e+003,-2.327620e-002
3.567721e+003,-2.322781e-002
3.569649e+003,-2.342033e-002
3.571578e+003,-2.343219e-002
3.573506e+003,-2.322378e-002
3.575435e+003,-2.318575e-002
3.577363e+003,-2.333807e-002
3.579292e+003,-2.347253e-002
3.581220e+003,-2.358888e-002
3.583149e+003,-2.367897e-002
3.585077e+003,-2.351500e-002
3.587006e+003,-2.305663e-002
3.588934e+003,-2.312886e-002
3.590863e+003,-2.348904e-002
3.592791e+003,-2.348565e-002
3.594720e+003,-2.337399e-002
3.596648e+003,-2.326059e-002
3.598577e+003,-2.335135e-002
3.600505e+003,-2.331976e-002
3.602434e+003,-2.337838e-002
3.604362e+003,-2.354833e-002
3.606291e+003,-2.342322e-002
3.608219e+003,-2.294699e-002
3.610148e+003,-2.287780e-002
3.612076e+003,-2.301009e-002
3.614005e+003,-2.322573e-002
3.615933e+003,-2.342676e-002
3.617862e+003,-2.311491e-002
3.619790e+003,-2.308346e-002
3.621719e+003,-2.343722e-002
3.623647e+003,-2.368170e-002
3.625576e+003,-2.357369e-002
3.627504e+003,-2.283967e-002
3.629433e+003,-2.207972e-002
3.631361e+003,-2.293803e-002
3.633290e+003,-2.347674e-002
3.635218e+003,-2.347872e-002
3.637146e+003,-2.344795e-002
3.639075e+003,-2.345904e-002
3.641004e+003,-2.361283e-002
3.642932e+003,-2.382623e-002
3.644861e+003,-2.392254e-002
3.646789e+003,-2.339452e-002
3.648718e+003,-2.258025e-002
3.650646e+003,-2.249745e-002
3.652574e+003,-2.335301e-002
3.654503e+003,-2.351613e-002
3.656432e+003,-2.309989e-002
3.658360e+003,-2.351491e-002
3.660289e+003,-2.391893e-002
3.662217e+003,-2.400754e-002
3.664146e+003,-2.411444e-002
3.666074e+003,-2.432527e-002
3.668002e+003,-2.405002e-002
3.669931e+003,-2.322476e-002
3.671860e+003,-2.347517e-002
3.673788e+003,-2.355427e-002
3.675717e+003,-2.267885e-002
3.677645e+003,-2.317720e-002
3.679573e+003,-2.373745e-002
3.681502e+003,-2.403510e-002
3.683430e+003,-2.411996e-002
3.685359e+003,-2.429031e-002
3.687288e+003,-2.387644e-002
3.689216e+003,-2.321923e-002
3.691145e+003,-2.329448e-002
3.693073e+003,-2.372996e-002
3.695001e+003,-2.401466e-002
3.696930e+003,-2.396938e-002
3.698858e+003,-2.393681e-002
3.700787e+003,-2.361248e-002
3.702716e+003,-2.360238e-002
3.704644e+003,-2.391755e-002
3.706573e+003,-2.399324e-002
3.708501e+003,-2.397493e-002
3.710429e+003,-2.360997e-002
3.712358e+003,-2.318992e-002
3.714286e+003,-2.392454e-002
3.716215e+003,-2.425897e-002
3.718144e+003,-2.400666e-002
3.720072e+003,-2.401246e-002
3.722000e+003,-2.393652e-002
3.723929e+003,-2.392059e-002
3.725857e+003,-2.392602e-002
3.727786e+003,-2.427934e-002
3.729714e+003,-2.430917e-002
3.731643e+003,-2.372798e-002
3.733572e+003,-2.333452e-002
3.735500e+003,-2.302665e-002
3.737428e+003,-2.350873e-002
3.739357e+003,-2.402651e-002
3.741285e+003,-2.407554e-002
3.743214e+003,-2.320852e-002
3.745142e+003,-2.246208e-002
3.747071e+003,-2.340752e-002
3.749000e+003,-2.306219e-002
3.750928e+003,-2.272693e-002
3.752856e+003,-2.291134e-002
3.754785e+003,-2.361910e-002
3.756713e+003,-2.384323e-002
3.758642e+003,-2.364631e-002
3.760570e+003,-2.343872e-002
3.762499e+003,-2.381525e-002
3.764427e+003,-2.381867e-002
3.766356e+003,-2.371028e-002
3.768284e+003,-2.374210e-002
3.770213e+003,-2.362337e-002
3.772141e+003,-2.395813e-002
3.774070e+003,-2.420229e-002
3.775998e+003,-2.408798e-002
3.777927e+003,-2.377955e-002
3.779855e+003,-2.356924e-002
3.781784e+003,-2.395459e-002
3.783712e+003,-2.399691e-002
3.785641e+003,-2.386433e-002
3.787569e+003,-2.412246e-002
3.789498e+003,-2.439140e-002
3.791426e+003,-2.448565e-002
3.793355e+003,-2.442899e-002
3.795283e+003,-2.404758e-002
3.797212e+003,-2.374250e-002
3.799140e+003,-2.378981e-002
3.801069e+003,-2.323478e-002
3.802997e+003,-2.370254e-002
3.804926e+003,-2.410864e-002
3.806854e+003,-2.338162e-002
3.808783e+003,-2.370520e-002
3.810711e+003,-2.420053e-002
3.812640e+003,-2.449652e-002
3.814568e+003,-2.434692e-002
3.816497e+003,-2.355766e-002
3.818425e+003,-2.361499e-002
3.820354e+003,-2.296763e-002
3.822282e+003,-2.302065e-002
3.824211e+003,-2.400484e-002
3.826139e+003,-2.407432e-002
3.828068e+003,-2.417104e-002
3.829996e+003,-2.415653e-002
3.831925e+003,-2.411325e-002
3.833853e+003,-2.405845e-002
3.835782e+003,-2.377058e-002
3.837710e+003,-2.332353e-002
3.839639e+003,-2.351623e-002
3.841567e+003,-2.372246e-002
3.843496e+003,-2.356873e-002
3.845424e+003,-2.405836e-002
3.847353e+003,-2.459481e-002
3.849281e+003,-2.462508e-002
3.851210e+003,-2.383473e-002
3.853138e+003,-2.230769e-002
3.855067e+003,-2.252048e-002
3.856995e+003,-2.360219e-002
3.858924e+003,-2.402920e-002
3.860852e+003,-2.410071e-002
3.862781e+003,-2.385803e-002
3.864709e+003,-2.372089e-002
3.866638e+003,-2.425149e-002
3.868566e+003,-2.417941e-002
3.870495e+003,-2.374050e-002
3.872423e+003,-2.390388e-002
3.874352e+003,-2.378266e-002
3.876280e+003,-2.416954e-002
3.878209e+003,-2.434454e-002
3.880137e+003,-2.419862e-002
3.882066e+003,-2.446075e-002
3.883994e+003,-2.438542e-002
3.885923e+003,-2.385376e-002
3.887851e+003,-2.430729e-002
3.889780e+003,-2.416321e-002
3.891708e+003,-2.375665e-002
3.893637e+003,-2.412785e-002
3.895565e+003,-2.455680e-002
3.897494e+003,-2.455104e-002
3.899422e+003,-2.418054e-002
3.901351e+003,-2.406331e-002
3.903279e+003,-2.378990e-002
3.905208e+003,-2.378034e-002
3.907136e+003,-2.440256e-002
3.909065e+003,-2.462787e-002
3.910993e+003,-2.448192e-002
3.912922e+003,-2.446849e-002
3.914850e+003,-2.448061e-002
3.916779e+003,-2.442332e-002
3.918707e+003,-2.459340e-002
3.920636e+003,-2.468585e-002
3.922564e+003,-2.442238e-002
3.924493e+003,-2.430275e-002
3.926421e+003,-2.455551e-002
3.928350e+003,-2.485801e-002
3.930278e+003,-2.482175e-002
3.932207e+003,-2.471969e-002
3.934135e+003,-2.478795e-002
3.936064e+003,-2.476626e-002
3.937992e+003,-2.465758e-002
3.939921e+003,-2.468838e-002
3.941849e+003,-2.464080e-002
3.943778e+003,-2.477120e-002
3.945706e+003,-2.475252e-002
3.947635e+003,-2.459465e-002
3.949563e+003,-2.458376e-002
3.951492e+003,-2.467436e-002
3.953420e+003,-2.492753e-002
3.955349e+003,-2.510633e-002
3.957277e+003,-2.502686e-002
3.959206e+003,-2.477261e-002
3.961134e+003,-2.493861e-002
3.963063e+003,-2.504115e-002
3.964991e+003,-2.481182e-002
3.966920e+003,-2.476435e-002
3.968848e+003,-2.470917e-002
3.970777e+003,-2.481026e-002
3.972705e+003,-2.486239e-002
3.974634e+003,-2.485842e-002
3.976562e+003,-2.497402e-002
3.978491e+003,-2.493220e-002
3.980419e+003,-2.486687e-002
3.982348e+003,-2.494083e-002
3.984276e+003,-2.500918e-002
3.986205e+003,-2.504734e-002
3.988133e+003,-2.495894e-002
3.990062e+003,-2.494092e-002
3.991990e+003,-2.503690e-002
3.993919e+003,-2.517181e-002
3.995847e+003,-2.521786e-002
3.997776e+003,-2.493301e-002
3.999704e+003,-2.496429e-002
4.001633e+003,0.000000e+000
