3.991989e+002,-5.883930e-003
4.011274e+002,5.495511e-003
4.030559e+002,4.023659e-003
4.049844e+002,-1.415826e-003
4.069129e+002,-3.210164e-004
4.088414e+002,6.568075e-003
4.107699e+002,1.259781e-002
4.126984e+002,5.612503e-003
4.146269e+002,3.581340e-003
4.165554e+002,9.825749e-003
4.184839e+002,7.291949e-003
4.204124e+002,4.356328e-004
4.223409e+002,-9.345004e-004
4.242694e+002,1.835290e-003
4.261979e+002,6.445311e-003
4.281264e+002,1.832728e-003
4.300549e+002,-1.039165e-003
4.319834e+002,5.561554e-003
4.339119e+002,8.627044e-003
4.358404e+002,5.960409e-003
4.377689e+002,1.629371e-003
4.396974e+002,-2.164439e-004
4.416259e+002,3.803663e-003
4.435544e+002,7.362984e-003
4.454829e+002,7.028029e-003
4.474114e+002,4.571223e-003
4.493399e+002,5.709651e-003
4.512684e+002,7.478930e-003
4.531969e+002,7.961447e-003
4.551254e+002,1.493333e-002
4.570539e+002,1.487041e-002
4.589824e+002,1.070034e-002
4.609109e+002,1.039443e-002
4.628394e+002,6.392683e-003
4.647679e+002,4.645498e-003
4.666964e+002,7.039916e-003
4.686249e+002,7.089355e-003
4.705533e+002,5.413542e-003
4.724819e+002,5.503833e-003
4.744103e+002,6.800415e-003
4.763389e+002,9.191986e-003
4.782673e+002,6.436701e-003
4.801959e+002,4.911995e-003
4.821243e+002,4.875537e-003
4.840529e+002,5.671850e-003
4.859813e+002,6.539180e-003
4.879099e+002,4.388134e-003
4.898383e+002,3.709881e-003
4.917668e+002,4.958109e-003
4.936953e+002,5.254746e-003
4.956238e+002,5.026115e-003
4.975523e+002,5.816996e-003
4.994808e+002,5.339403e-003
5.014093e+002,2.596142e-003
5.033378e+002,2.129668e-003
5.052663e+002,2.631143e-003
5.071948e+002,3.458582e-003
5.091233e+002,3.377864e-003
5.110518e+002,3.970255e-003
5.129803e+002,2.684149e-003
5.149088e+002,1.162837e-003
5.168373e+002,1.958266e-005
5.187658e+002,5.851436e-004
5.206943e+002,2.457134e-003
5.226228e+002,4.123831e-003
5.245513e+002,3.297228e-003
5.264798e+002,2.633310e-003
5.284083e+002,2.290522e-003
5.303368e+002,1.892825e-003
5.322653e+002,1.412346e-003
5.341938e+002,1.420424e-003
5.361223e+002,8.936160e-004
5.380508e+002,-6.864830e-005
5.399792e+002,-4.478075e-004
5.419078e+002,6.005387e-004
5.438363e+002,7.899044e-004
5.457648e+002,1.381931e-003
5.476932e+002,6.871469e-004
5.496218e+002,1.590427e-003
5.515503e+002,2.408520e-003
5.534788e+002,1.932196e-003
5.554072e+002,9.477724e-004
5.573358e+002,3.605154e-004
5.592643e+002,8.308683e-004
5.611927e+002,1.330346e-003
5.631212e+002,9.890167e-004
5.650497e+002,2.458247e-004
5.669783e+002,-1.771647e-004
5.689067e+002,-1.878294e-004
5.708352e+002,-1.614322e-004
5.727637e+002,6.014014e-004
5.746923e+002,7.053335e-004
5.766207e+002,2.090808e-005
5.785492e+002,1.488277e-003
5.804777e+002,9.974358e-003
5.824063e+002,8.162457e-003
5.843347e+002,1.000673e-003
5.862632e+002,-5.362415e-004
5.881917e+002,-3.043620e-004
5.901202e+002,4.641908e-004
5.920487e+002,2.067674e-003
5.939772e+002,4.834391e-003
5.959057e+002,5.140164e-003
5.978342e+002,2.309209e-003
5.997627e+002,1.742132e-003
6.016912e+002,2.659846e-003
6.036197e+002,2.309875e-003
6.055482e+002,1.992473e-003
6.074767e+002,2.412085e-003
6.094052e+002,2.373870e-003
6.113337e+002,1.007714e-003
6.132622e+002,5.902531e-004
6.151907e+002,1.447418e-003
6.171192e+002,2.380200e-003
6.190477e+002,2.553812e-003
6.209762e+002,1.359993e-003
6.229047e+002,-8.947900e-004
6.248332e+002,-2.132300e-003
6.267617e+002,-1.893420e-003
6.286902e+002,-1.360306e-003
6.306187e+002,-4.491315e-004
6.325472e+002,1.294077e-004
6.344756e+002,3.750073e-004
6.364042e+002,8.703418e-004
6.383326e+002,1.096762e-003
6.402612e+002,1.470291e-003
6.421896e+002,1.541145e-003
6.441182e+002,1.031461e-003
6.460466e+002,5.743274e-004
6.479752e+002,3.368055e-004
6.499036e+002,5.616868e-004
6.518322e+002,1.355938e-003
6.537606e+002,1.170645e-003
6.556891e+002,4.576233e-004
6.576177e+002,2.728451e-004
6.595461e+002,4.279049e-004
6.614746e+002,4.796149e-004
6.634031e+002,9.192490e-004
6.653317e+002,9.699880e-004
6.672601e+002,1.582246e-003
6.691886e+002,2.232968e-003
6.711171e+002,2.160070e-003
6.730457e+002,2.137493e-003
6.749741e+002,2.305545e-003
6.769026e+002,2.611009e-003
6.788311e+002,2.569144e-003
6.807596e+002,2.108425e-003
6.826881e+002,1.866137e-003
6.846166e+002,2.129535e-003
6.865451e+002,2.317104e-003
6.884736e+002,2.494023e-003
6.904021e+002,2.614076e-003
6.923306e+002,2.355513e-003
6.942591e+002,2.177019e-003
6.961876e+002,1.758866e-003
6.981161e+002,2.294686e-003
7.000446e+002,3.068323e-003
7.019731e+002,2.750067e-003
7.039016e+002,2.443605e-003
7.058301e+002,2.420015e-003
7.077585e+002,2.355614e-003
7.096871e+002,2.726459e-003
7.116156e+002,2.731628e-003
7.135441e+002,3.070893e-003
7.154725e+002,3.497493e-003
7.174011e+002,3.317461e-003
7.193296e+002,2.443072e-003
7.212581e+002,2.610742e-003
7.231865e+002,2.891871e-003
7.251151e+002,3.118814e-003
7.270436e+002,3.350917e-003
7.289720e+002,3.561964e-003
7.309005e+002,4.262972e-003
7.328290e+002,4.477509e-003
7.347576e+002,3.985536e-003
7.366860e+002,4.094328e-003
7.386145e+002,4.352723e-003
7.405430e+002,4.446142e-003
7.424716e+002,4.888472e-003
7.444000e+002,4.649751e-003
7.463285e+002,4.421505e-003
7.482570e+002,4.509046e-003
7.501855e+002,5.258301e-003
7.521140e+002,5.913853e-003
7.540425e+002,5.663928e-003
7.559710e+002,5.180300e-003
7.578995e+002,4.862938e-003
7.598280e+002,4.985659e-003
7.617565e+002,5.660436e-003
7.636850e+002,7.364198e-003
7.656135e+002,8.820788e-003
7.675420e+002,8.573543e-003
7.694705e+002,6.840367e-003
7.713990e+002,5.763706e-003
7.733275e+002,6.797857e-003
7.752560e+002,7.722988e-003
7.771844e+002,7.330262e-003
7.791130e+002,6.235749e-003
7.810415e+002,5.088902e-003
7.829700e+002,5.900049e-003
7.848984e+002,7.239422e-003
7.868270e+002,6.508303e-003
7.887555e+002,5.739229e-003
7.906840e+002,6.168964e-003
7.926124e+002,6.399611e-003
7.945410e+002,5.959603e-003
7.964695e+002,5.936895e-003
7.983979e+002,6.504839e-003
8.003264e+002,6.928464e-003
8.022549e+002,6.681150e-003
8.041835e+002,6.281566e-003
8.061119e+002,6.506655e-003
8.080404e+002,6.807684e-003
8.099689e+002,6.899478e-003
8.118975e+002,6.621598e-003
8.138259e+002,6.094361e-003
8.157545e+002,5.657214e-003
8.176830e+002,6.108609e-003
8.196115e+002,6.553846e-003
8.215399e+002,6.444873e-003
8.234684e+002,6.499121e-003
8.253970e+002,6.384345e-003
8.273254e+002,6.155622e-003
8.292539e+002,5.941565e-003
8.311824e+002,6.256959e-003
8.331110e+002,6.861473e-003
8.350394e+002,7.121486e-003
8.369679e+002,7.077701e-003
8.388964e+002,7.052174e-003
8.408250e+002,6.534370e-003
8.427534e+002,6.121143e-003
8.446819e+002,6.249430e-003
8.466104e+002,6.330783e-003
8.485389e+002,6.341643e-003
8.504674e+002,6.392044e-003
8.523959e+002,6.600572e-003
8.543244e+002,6.896179e-003
8.562529e+002,6.845248e-003
8.581814e+002,6.917691e-003
8.601099e+002,6.885945e-003
8.620384e+002,6.539450e-003
8.639669e+002,6.224253e-003
8.658954e+002,6.130855e-003
8.678239e+002,5.680712e-003
8.697524e+002,5.391936e-003
8.716809e+002,5.761557e-003
8.736094e+002,5.940120e-003
8.755378e+002,5.854104e-003
8.774664e+002,5.973107e-003
8.793949e+002,5.899847e-003
8.813234e+002,5.505041e-003
8.832518e+002,5.039222e-003
8.851804e+002,4.956634e-003
8.871089e+002,5.181708e-003
8.890374e+002,5.429276e-003
8.909658e+002,5.534471e-003
8.928943e+002,5.626667e-003
8.948229e+002,5.328904e-003
8.967513e+002,5.111331e-003
8.986798e+002,5.259207e-003
9.006083e+002,4.827925e-003
9.025369e+002,5.045892e-003
9.044653e+002,5.126686e-003
9.063938e+002,4.529235e-003
9.083223e+002,4.557762e-003
9.102509e+002,5.248408e-003
9.121793e+002,5.602467e-003
9.141078e+002,5.076163e-003
9.160364e+002,4.841193e-003
9.179648e+002,4.933979e-003
9.198933e+002,5.081225e-003
9.218218e+002,5.114080e-003
9.237504e+002,4.672391e-003
9.256788e+002,4.431279e-003
9.276073e+002,4.114498e-003
9.295358e+002,4.315576e-003
9.314644e+002,4.667568e-003
9.333928e+002,4.277193e-003
9.353213e+002,4.051818e-003
9.372498e+002,3.839697e-003
9.391783e+002,3.643284e-003
9.411068e+002,4.189766e-003
9.430353e+002,4.515642e-003
9.449637e+002,4.266720e-003
9.468923e+002,4.418192e-003
9.488208e+002,4.514604e-003
9.507493e+002,3.892952e-003
9.526777e+002,3.417303e-003
9.546063e+002,3.572287e-003
9.565348e+002,4.002591e-003
9.584633e+002,3.817602e-003
9.603917e+002,3.299999e-003
9.623203e+002,3.152521e-003
9.642488e+002,3.127057e-003
9.661772e+002,3.088278e-003
9.681057e+002,2.827733e-003
9.700343e+002,2.500421e-003
9.719628e+002,2.405288e-003
9.738912e+002,2.741130e-003
9.758197e+002,2.762971e-003
9.777483e+002,2.467897e-003
9.796768e+002,2.266207e-003
9.816052e+002,2.077329e-003
9.835337e+002,1.972901e-003
9.854623e+002,2.177818e-003
9.873907e+002,2.186810e-003
9.893192e+002,1.944710e-003
9.912477e+002,2.278764e-003
9.931763e+002,2.532581e-003
9.951047e+002,2.499688e-003
9.970332e+002,2.445471e-003
9.989617e+002,2.545780e-003
1.000890e+003,2.873059e-003
1.002819e+003,3.412627e-003
1.004747e+003,3.562432e-003
1.006676e+003,3.488842e-003
1.008604e+003,3.717133e-003
1.010533e+003,4.004329e-003
1.012461e+003,4.336157e-003
1.014390e+003,4.718077e-003
1.016318e+003,5.027523e-003
1.018247e+003,4.899831e-003
1.020175e+003,4.786683e-003
1.022104e+003,5.169939e-003
1.024032e+003,5.609314e-003
1.025961e+003,5.863877e-003
1.027889e+003,6.077527e-003
1.029818e+003,6.185668e-003
1.031746e+003,6.317537e-003
1.033675e+003,6.529224e-003
1.035603e+003,6.806641e-003
1.037532e+003,7.020216e-003
1.039460e+003,7.079520e-003
1.041389e+003,7.219073e-003
1.043317e+003,7.444716e-003
1.045246e+003,7.478525e-003
1.047174e+003,7.744676e-003
1.049103e+003,8.177448e-003
1.051031e+003,8.212699e-003
1.052960e+003,7.852795e-003
1.054888e+003,7.570562e-003
1.056817e+003,7.471885e-003
1.058745e+003,7.670004e-003
1.060674e+003,7.728115e-003
1.062602e+003,7.775203e-003
1.064531e+003,7.861365e-003
1.066459e+003,7.658673e-003
1.068388e+003,7.648691e-003
1.070316e+003,8.099967e-003
1.072245e+003,8.108136e-003
1.074173e+003,8.198011e-003
1.076102e+003,8.331912e-003
1.078030e+003,8.295739e-003
1.079959e+003,8.408454e-003
1.081887e+003,8.316881e-003
1.083816e+003,7.883060e-003
1.085744e+003,7.695500e-003
1.087673e+003,7.800099e-003
1.089601e+003,7.906037e-003
1.091530e+003,8.040828e-003
1.093458e+003,8.078970e-003
1.095387e+003,8.064996e-003
1.097315e+003,7.987670e-003
1.099244e+003,7.708047e-003
1.101172e+003,7.630009e-003
1.103101e+003,7.849320e-003
1.105029e+003,7.823139e-003
1.106958e+003,7.551850e-003
1.108886e+003,7.559807e-003
1.110815e+003,7.601043e-003
1.112743e+003,7.669161e-003
1.114672e+003,7.739853e-003
1.116600e+003,7.942212e-003
1.118529e+003,8.152937e-003
1.120457e+003,8.206114e-003
1.122386e+003,8.342010e-003
1.124314e+003,8.395482e-003
1.126243e+003,8.357615e-003
1.128171e+003,8.443150e-003
1.130100e+003,8.411224e-003
1.132028e+003,8.054666e-003
1.133957e+003,7.760024e-003
1.135885e+003,7.528385e-003
1.137814e+003,7.136407e-003
1.139742e+003,6.733879e-003
1.141671e+003,6.591321e-003
1.143599e+003,6.362725e-003
1.145528e+003,5.833954e-003
1.147456e+003,5.398210e-003
1.149385e+003,5.029032e-003
1.151313e+003,4.657052e-003
1.153242e+003,4.333848e-003
1.155170e+003,4.204219e-003
1.157099e+003,4.022355e-003
1.159027e+003,3.900374e-003
1.160956e+003,3.699923e-003
1.162884e+003,3.556719e-003
1.164813e+003,3.472810e-003
1.166741e+003,3.295892e-003
1.168670e+003,3.276061e-003
1.170598e+003,3.503272e-003
1.172526e+003,3.596140e-003
1.174455e+003,3.379968e-003
1.176384e+003,3.100859e-003
1.178312e+003,3.176919e-003
1.180240e+003,3.377029e-003
1.182169e+003,3.233131e-003
1.184098e+003,2.992983e-003
1.186026e+003,2.931599e-003
1.187954e+003,3.040194e-003
1.189883e+003,3.023878e-003
1.191812e+003,2.738263e-003
1.193740e+003,2.630243e-003
1.195668e+003,2.588643e-003
1.197597e+003,2.523450e-003
1.199526e+003,2.360244e-003
1.201454e+003,2.296951e-003
1.203382e+003,2.422880e-003
1.205311e+003,2.444538e-003
1.207240e+003,2.417916e-003
1.209168e+003,2.590876e-003
1.211096e+003,2.540580e-003
1.213025e+003,2.334593e-003
1.214953e+003,2.375569e-003
1.216882e+003,2.410719e-003
1.218810e+003,2.493290e-003
1.220739e+003,2.576743e-003
1.222667e+003,2.581143e-003
1.224596e+003,2.414051e-003
1.226524e+003,2.445305e-003
1.228453e+003,2.514751e-003
1.230381e+003,2.332560e-003
1.232310e+003,1.996068e-003
1.234238e+003,1.950701e-003
1.236167e+003,2.020535e-003
1.238095e+003,1.864173e-003
1.240024e+003,1.706538e-003
1.241952e+003,1.720509e-003
1.243881e+003,1.771708e-003
1.245809e+003,1.699785e-003
1.247738e+003,1.596479e-003
1.249666e+003,1.677299e-003
1.251595e+003,1.804912e-003
1.253523e+003,1.984585e-003
1.255452e+003,2.152710e-003
1.257380e+003,2.210854e-003
1.259309e+003,2.239229e-003
1.261237e+003,2.308143e-003
1.263166e+003,2.448937e-003
1.265094e+003,2.577410e-003
1.267023e+003,2.601242e-003
1.268951e+003,2.579076e-003
1.270880e+003,2.490690e-003
1.272808e+003,2.367407e-003
1.274737e+003,2.345419e-003
1.276665e+003,2.359611e-003
1.278594e+003,2.271803e-003
1.280522e+003,2.122343e-003
1.282451e+003,1.986016e-003
1.284379e+003,2.172224e-003
1.286308e+003,2.326331e-003
1.288236e+003,2.141655e-003
1.290165e+003,2.024762e-003
1.292093e+003,1.988978e-003
1.294022e+003,1.847036e-003
1.295950e+003,1.845971e-003
1.297879e+003,1.841246e-003
1.299807e+003,1.685482e-003
1.301736e+003,1.482625e-003
1.303664e+003,1.413078e-003
1.305593e+003,1.254974e-003
1.307521e+003,9.866920e-004
1.309450e+003,8.006928e-004
1.311378e+003,7.540560e-004
1.313307e+003,5.922439e-004
1.315235e+003,5.198196e-004
1.317164e+003,5.089719e-004
1.319092e+003,4.756013e-004
1.321021e+003,4.941107e-004
1.322949e+003,5.242317e-004
1.324878e+003,5.644737e-004
1.326806e+003,9.039089e-004
1.328735e+003,1.210947e-003
1.330663e+003,1.438143e-003
1.332592e+003,1.603097e-003
1.334520e+003,1.679162e-003
1.336449e+003,1.544171e-003
1.338377e+003,1.440603e-003
1.340306e+003,1.442365e-003
1.342234e+003,1.618828e-003
1.344163e+003,1.904839e-003
1.346091e+003,1.980524e-003
1.348020e+003,1.934859e-003
1.349948e+003,2.023830e-003
1.351877e+003,2.034050e-003
1.353805e+003,1.856220e-003
1.355734e+003,1.856387e-003
1.357662e+003,1.703876e-003
1.359591e+003,1.586503e-003
1.361519e+003,1.501643e-003
1.363448e+003,1.208853e-003
1.365376e+003,9.792199e-004
1.367305e+003,8.791069e-004
1.369233e+003,7.551181e-004
1.371162e+003,5.933719e-004
1.373090e+003,3.221823e-004
1.375019e+003,1.413728e-004
1.376947e+003,6.945450e-005
1.378876e+003,-6.573296e-005
1.380804e+003,-2.021700e-004
1.382733e+003,-3.668708e-004
1.384661e+003,-4.493963e-004
1.386590e+003,-5.723776e-004
1.388518e+003,-6.089410e-004
1.390447e+003,-5.543761e-004
1.392375e+003,-8.556714e-004
1.394304e+003,-1.220664e-003
1.396232e+003,-1.222052e-003
1.398161e+003,-1.359612e-003
1.400089e+003,-1.541935e-003
1.402018e+003,-1.566268e-003
1.403946e+003,-1.636419e-003
1.405875e+003,-1.749824e-003
1.407803e+003,-1.637409e-003
1.409732e+003,-1.472991e-003
1.411660e+003,-1.410476e-003
1.413589e+003,-1.420153e-003
1.415517e+003,-1.501389e-003
1.417446e+003,-1.622290e-003
1.419374e+003,-1.493728e-003
1.421303e+003,-9.593628e-004
1.423231e+003,-6.333921e-004
1.425160e+003,-2.710512e-004
1.427088e+003,2.429073e-004
1.429017e+003,6.469931e-004
1.430945e+003,1.245171e-003
1.432874e+003,1.885205e-003
1.434802e+003,2.034583e-003
1.436731e+003,2.193703e-003
1.438659e+003,3.035323e-003
1.440588e+003,3.604359e-003
1.442516e+003,3.919498e-003
1.444445e+003,4.131424e-003
1.446373e+003,4.439949e-003
1.448302e+003,4.847492e-003
1.450230e+003,5.230030e-003
1.452159e+003,5.403879e-003
1.454087e+003,5.290197e-003
1.456016e+003,4.561746e-003
1.457944e+003,4.380134e-003
1.459873e+003,4.825781e-003
1.461801e+003,5.020652e-003
1.463730e+003,4.589070e-003
1.465658e+003,4.179027e-003
1.467587e+003,4.114599e-003
1.469515e+003,3.688227e-003
1.471444e+003,2.889469e-003
1.473372e+003,2.315771e-003
1.475301e+003,2.183380e-003
1.477229e+003,1.910563e-003
1.479158e+003,1.700550e-003
1.481086e+003,1.255240e-003
1.483015e+003,9.634793e-004
1.484943e+003,5.218431e-004
1.486872e+003,8.957055e-005
1.488800e+003,-1.655724e-004
1.490729e+003,-2.877732e-004
1.492657e+003,-2.590971e-004
1.494586e+003,-4.867974e-004
1.496514e+003,-7.862214e-004
1.498443e+003,-8.016336e-004
1.500371e+003,-6.129115e-004
1.502300e+003,-5.646345e-004
1.504228e+003,-1.275343e-003
1.506157e+003,-2.232457e-003
1.508085e+003,-1.835321e-003
1.510014e+003,-1.289681e-003
1.511942e+003,-1.185573e-003
1.513871e+003,-1.024587e-003
1.515799e+003,-1.142184e-003
1.517728e+003,-1.194693e-003
1.519656e+003,-1.385441e-003
1.521585e+003,-1.798135e-003
1.523513e+003,-1.523082e-003
1.525442e+003,-1.421969e-003
1.527370e+003,-1.186796e-003
1.529299e+003,-8.671461e-004
1.531227e+003,-8.735613e-004
1.533156e+003,-1.056254e-003
1.535084e+003,-6.215472e-004
1.537013e+003,-7.787134e-004
1.538941e+003,-1.722697e-003
1.540870e+003,-1.888142e-003
1.542798e+003,-1.204705e-003
1.544727e+003,-7.849315e-004
1.546655e+003,-4.460532e-004
1.548584e+003,-4.274175e-004
1.550512e+003,-4.020280e-004
1.552441e+003,-3.265457e-004
1.554369e+003,-3.513768e-004
1.556298e+003,-7.356812e-004
1.558226e+003,-1.663287e-003
1.560155e+003,-1.020819e-003
1.562083e+003,1.947393e-004
1.564012e+003,5.268524e-004
1.565940e+003,6.950453e-004
1.567869e+003,7.950164e-004
1.569797e+003,8.997585e-004
1.571726e+003,1.430563e-003
1.573654e+003,1.466600e-003
1.575583e+003,1.202939e-003
1.577511e+003,1.703078e-003
1.579440e+003,2.261244e-003
1.581368e+003,2.316804e-003
1.583297e+003,2.445604e-003
1.585225e+003,2.627076e-003
1.587154e+003,2.724125e-003
1.589082e+003,2.832202e-003
1.591010e+003,2.868189e-003
1.592939e+003,2.769374e-003
1.594868e+003,2.796818e-003
1.596796e+003,2.842241e-003
1.598724e+003,2.770240e-003
1.600653e+003,2.686817e-003
1.602582e+003,2.632943e-003
1.604510e+003,2.577310e-003
1.606438e+003,2.451636e-003
1.608367e+003,2.214484e-003
1.610296e+003,2.020002e-003
1.612224e+003,1.892359e-003
1.614152e+003,1.514212e-003
1.616081e+003,7.433685e-004
1.618010e+003,6.889721e-004
1.619938e+003,8.671546e-004
1.621866e+003,5.240658e-004
1.623795e+003,2.816975e-004
1.625724e+003,2.890913e-004
1.627652e+003,1.978884e-004
1.629580e+003,1.618568e-004
1.631509e+003,5.759078e-005
1.633438e+003,-4.832892e-004
1.635366e+003,-1.243693e-003
1.637294e+003,-1.099320e-003
1.639223e+003,-7.245668e-004
1.641151e+003,-6.383880e-004
1.643080e+003,-9.627681e-004
1.645008e+003,-1.516248e-003
1.646937e+003,-1.771835e-003
1.648865e+003,-1.542662e-003
1.650794e+003,-2.069418e-003
1.652722e+003,-3.300631e-003
1.654651e+003,-2.545404e-003
1.656579e+003,-1.508818e-003
1.658508e+003,-1.226149e-003
1.660436e+003,-1.185309e-003
1.662365e+003,-1.236722e-003
1.664293e+003,-9.707687e-004
1.666222e+003,-8.477679e-004
1.668150e+003,-1.285089e-003
1.670079e+003,-1.516479e-003
1.672007e+003,-1.131774e-003
1.673936e+003,-1.182401e-003
1.675864e+003,-1.183128e-003
1.677793e+003,-7.189765e-004
1.679721e+003,-8.433366e-004
1.681650e+003,-1.176321e-003
1.683578e+003,-1.859967e-003
1.685507e+003,-1.667050e-003
1.687435e+003,-1.209265e-003
1.689364e+003,-1.099849e-003
1.691292e+003,-8.637732e-004
1.693221e+003,-9.054702e-004
1.695149e+003,-1.380883e-003
1.697078e+003,-1.290705e-003
1.699006e+003,-1.739198e-003
1.700935e+003,-1.807836e-003
1.702863e+003,-1.059724e-003
1.704792e+003,-1.171364e-003
1.706720e+003,-8.975345e-004
1.708649e+003,-4.945421e-004
1.710577e+003,-4.493632e-004
1.712506e+003,-6.865246e-004
1.714434e+003,-1.079589e-003
1.716363e+003,-1.575908e-003
1.718291e+003,-1.583963e-003
1.720220e+003,-1.016918e-003
1.722148e+003,-8.034857e-004
1.724077e+003,-6.695533e-004
1.726005e+003,-4.954687e-004
1.727934e+003,-5.736682e-004
1.729862e+003,-8.012037e-004
1.731791e+003,-1.200475e-003
1.733719e+003,-1.702762e-003
1.735648e+003,-1.125628e-003
1.737576e+003,-7.801357e-004
1.739505e+003,-1.048155e-003
1.741433e+003,-8.334155e-004
1.743362e+003,-6.427883e-004
1.745290e+003,-6.311422e-004
1.747219e+003,-8.606978e-004
1.749147e+003,-1.044024e-003
1.751076e+003,-1.019596e-003
1.753004e+003,-6.497030e-004
1.754933e+003,-5.930918e-004
1.756861e+003,-7.602905e-004
1.758790e+003,-7.384597e-004
1.760718e+003,-8.410548e-004
1.762647e+003,-7.726938e-004
1.764575e+003,-5.523244e-004
1.766504e+003,-7.239052e-004
1.768432e+003,-8.264376e-004
1.770361e+003,-1.109136e-003
1.772289e+003,-1.391353e-003
1.774218e+003,-9.666032e-004
1.776146e+003,-6.711744e-004
1.778075e+003,-6.750450e-004
1.780003e+003,-6.309437e-004
1.781932e+003,-5.932572e-004
1.783860e+003,-6.322341e-004
1.785789e+003,-6.685939e-004
1.787717e+003,-6.706119e-004
1.789646e+003,-8.254455e-004
1.791574e+003,-1.094693e-003
1.793503e+003,-9.792651e-004
1.795431e+003,-8.526621e-004
1.797360e+003,-7.577105e-004
1.799288e+003,-7.347881e-004
1.801217e+003,-7.482837e-004
1.803145e+003,-6.039116e-004
1.805074e+003,-6.180731e-004
1.807002e+003,-6.563861e-004
1.808931e+003,-7.383274e-004
1.810859e+003,-8.451223e-004
1.812788e+003,-9.233580e-004
1.814716e+003,-8.596397e-004
1.816645e+003,-7.659795e-004
1.818573e+003,-7.118974e-004
1.820502e+003,-7.696179e-004
1.822430e+003,-8.310675e-004
1.824359e+003,-1.015563e-003
1.826287e+003,-9.846868e-004
1.828216e+003,-1.013910e-003
1.830144e+003,-1.143209e-003
1.832073e+003,-9.566849e-004
1.834001e+003,-8.643353e-004
1.835930e+003,-8.666171e-004
1.837858e+003,-7.892642e-004
1.839787e+003,-6.959858e-004
1.841715e+003,-8.178391e-004
1.843644e+003,-1.122058e-003
1.845572e+003,-1.128701e-003
1.847501e+003,-9.287143e-004
1.849429e+003,-7.383274e-004
1.851358e+003,-6.911890e-004
1.853286e+003,-7.475560e-004
1.855215e+003,-8.030226e-004
1.857143e+003,-7.468945e-004
1.859072e+003,-6.976398e-004
1.861000e+003,-7.605220e-004
1.862929e+003,-7.952505e-004
1.864857e+003,-7.876766e-004
1.866786e+003,-9.692149e-004
1.868714e+003,-1.097767e-003
1.870643e+003,-8.784552e-004
1.872571e+003,-6.559229e-004
1.874500e+003,-6.559560e-004
1.876428e+003,-7.831785e-004
1.878357e+003,-8.862590e-004
1.880285e+003,-8.342754e-004
1.882214e+003,-7.253938e-004
1.884142e+003,-7.526829e-004
1.886071e+003,-8.273636e-004
1.887999e+003,-9.380711e-004
1.889928e+003,-1.020158e-003
1.891856e+003,-9.286812e-004
1.893785e+003,-9.524861e-004
1.895713e+003,-9.293425e-004
1.897642e+003,-8.114892e-004
1.899570e+003,-8.131429e-004
1.901499e+003,-8.574240e-004
1.903427e+003,-7.565198e-004
1.905356e+003,-7.123605e-004
1.907284e+003,-7.518560e-004
1.909213e+003,-8.989563e-004
1.911141e+003,-9.069912e-004
1.913070e+003,-7.934645e-004
1.914998e+003,-7.618120e-004
1.916927e+003,-8.125145e-004
1.918855e+003,-7.257907e-004
1.920784e+003,-6.944971e-004
1.922712e+003,-8.067929e-004
1.924641e+003,-7.402128e-004
1.926569e+003,-6.880132e-004
1.928498e+003,-7.794080e-004
1.930426e+003,-7.869821e-004
1.932355e+003,-8.303069e-004
1.934283e+003,-9.225314e-004
1.936212e+003,-8.498844e-004
1.938140e+003,-7.987893e-004
1.940069e+003,-8.612600e-004
1.941997e+003,-9.505355e-004
1.943926e+003,-9.283506e-004
1.945854e+003,-9.211428e-004
1.947783e+003,-8.544148e-004
1.949711e+003,-9.014363e-004
1.951640e+003,-9.723887e-004
1.953568e+003,-9.177702e-004
1.955497e+003,-8.782899e-004
1.957425e+003,-9.286151e-004
1.959354e+003,-9.275901e-004
1.961282e+003,-8.904915e-004
1.963211e+003,-9.151912e-004
1.965139e+003,-9.808519e-004
1.967068e+003,-9.935135e-004
1.968996e+003,-9.224653e-004
1.970925e+003,-8.618883e-004
1.972853e+003,-8.467428e-004
1.974782e+003,-8.250155e-004
1.976710e+003,-8.840766e-004
1.978639e+003,-8.868873e-004
1.980567e+003,-9.392613e-004
1.982496e+003,-9.492792e-004
1.984424e+003,-9.068259e-004
1.986353e+003,-8.813652e-004
1.988281e+003,-8.581516e-004
1.990210e+003,-9.012048e-004
1.992138e+003,-9.970837e-004
1.994067e+003,-1.000158e-003
1.995995e+003,-9.689835e-004
1.997924e+003,-9.526514e-004
1.999852e+003,-9.352939e-004
2.001781e+003,-9.304336e-004
2.003709e+003,-9.566849e-004
2.005638e+003,-1.023629e-003
2.007566e+003,-1.026835e-003
2.009495e+003,-9.244822e-004
2.011423e+003,-9.341036e-004
2.013352e+003,-1.049841e-003
2.015280e+003,-1.074697e-003
2.017208e+003,-9.641566e-004
2.019137e+003,-8.407240e-004
2.021066e+003,-8.824233e-004
2.022994e+003,-1.050998e-003
2.024922e+003,-1.100147e-003
2.026851e+003,-1.058237e-003
2.028780e+003,-1.048618e-003
2.030708e+003,-1.024124e-003
2.032636e+003,-9.288796e-004
2.034565e+003,-9.051726e-004
2.036494e+003,-8.806377e-004
2.038422e+003,-9.232588e-004
2.040350e+003,-1.011993e-003
2.042279e+003,-9.617763e-004
2.044208e+003,-9.603547e-004
2.046136e+003,-9.866704e-004
2.048064e+003,-9.129098e-004
2.049993e+003,-9.089420e-004
2.051921e+003,-9.254741e-004
2.053850e+003,-9.010725e-004
2.055778e+003,-8.428405e-004
2.057707e+003,-7.760344e-004
2.059635e+003,-7.747445e-004
2.061564e+003,-9.128106e-004
2.063492e+003,-9.752318e-004
2.065421e+003,-8.633102e-004
2.067349e+003,-7.360450e-004
2.069278e+003,-7.042891e-004
2.071206e+003,-7.883381e-004
2.073135e+003,-8.031219e-004
2.075063e+003,-8.051724e-004
2.076992e+003,-8.155240e-004
2.078920e+003,-7.859567e-004
2.080849e+003,-7.338288e-004
2.082777e+003,-7.416352e-004
2.084706e+003,-8.101994e-004
2.086634e+003,-7.656157e-004
2.088563e+003,-6.800736e-004
2.090491e+003,-6.577425e-004
2.092420e+003,-6.750120e-004
2.094348e+003,-6.955226e-004
2.096277e+003,-7.177526e-004
2.098205e+003,-7.412051e-004
2.100134e+003,-7.817894e-004
2.102062e+003,-7.679310e-004
2.103991e+003,-5.393852e-004
2.105919e+003,-4.698846e-004
2.107848e+003,-5.363407e-004
2.109776e+003,-6.143012e-004
2.111705e+003,-6.832825e-004
2.113633e+003,-7.713377e-004
2.115562e+003,-7.437852e-004
2.117490e+003,-6.188672e-004
2.119419e+003,-5.165175e-004
2.121347e+003,-5.572220e-004
2.123276e+003,-6.220766e-004
2.125204e+003,-6.695533e-004
2.127133e+003,-6.312746e-004
2.129061e+003,-5.405766e-004
2.130990e+003,-5.435219e-004
2.132918e+003,-5.545747e-004
2.134847e+003,-5.929925e-004
2.136775e+003,-6.805367e-004
2.138704e+003,-6.390166e-004
2.140632e+003,-5.077473e-004
2.142561e+003,-5.172124e-004
2.144489e+003,-5.327336e-004
2.146418e+003,-4.919274e-004
2.148346e+003,-5.227392e-004
2.150275e+003,-5.952425e-004
2.152203e+003,-5.826025e-004
2.154132e+003,-5.108583e-004
2.156060e+003,-4.709106e-004
2.157989e+003,-5.313767e-004
2.159917e+003,-6.003382e-004
2.161846e+003,-5.664875e-004
2.163774e+003,-5.357119e-004
2.165703e+003,-6.052683e-004
2.167631e+003,-5.882938e-004
2.169560e+003,-4.912986e-004
2.171488e+003,-4.287085e-004
2.173417e+003,-4.709768e-004
2.175345e+003,-5.505705e-004
2.177274e+003,-5.455405e-004
2.179202e+003,-5.034118e-004
2.181131e+003,-4.697853e-004
2.183059e+003,-4.516471e-004
2.184988e+003,-5.006648e-004
2.186916e+003,-5.343221e-004
2.188845e+003,-4.614445e-004
2.190773e+003,-4.173546e-004
2.192702e+003,-4.223199e-004
2.194630e+003,-3.056533e-004
2.196559e+003,-2.678392e-004
2.198487e+003,-4.044445e-004
2.200416e+003,-4.485688e-004
2.202344e+003,-4.024914e-004
2.204273e+003,-3.887533e-004
2.206201e+003,-3.820000e-004
2.208130e+003,-3.915672e-004
2.210058e+003,-4.676008e-004
2.211987e+003,-4.707782e-004
2.213915e+003,-4.297677e-004
2.215844e+003,-4.853081e-004
2.217772e+003,-5.509345e-004
2.219701e+003,-5.048018e-004
2.221629e+003,-4.911000e-004
2.223558e+003,-4.674022e-004
2.225486e+003,-4.983812e-004
2.227415e+003,-5.727417e-004
2.229343e+003,-5.987830e-004
2.231272e+003,-5.241954e-004
2.233200e+003,-4.133161e-004
2.235129e+003,-3.867339e-004
2.237057e+003,-4.249349e-004
2.238986e+003,-4.208965e-004
2.240914e+003,-4.607825e-004
2.242843e+003,-5.104280e-004
2.244771e+003,-5.178744e-004
2.246700e+003,-5.793928e-004
2.248628e+003,-5.882938e-004
2.250557e+003,-5.405766e-004
2.252485e+003,-5.838599e-004
2.254414e+003,-6.266756e-004
2.256342e+003,-6.170474e-004
2.258271e+003,-6.721668e-004
2.260199e+003,-6.682631e-004
2.262128e+003,-6.888072e-004
2.264056e+003,-7.534437e-004
2.265985e+003,-7.102104e-004
2.267913e+003,-6.849697e-004
2.269842e+003,-7.359789e-004
2.271770e+003,-7.363096e-004
2.273699e+003,-7.397166e-004
2.275627e+003,-7.712716e-004
2.277556e+003,-7.953166e-004
2.279484e+003,-7.360781e-004
2.281413e+003,-6.305798e-004
2.283341e+003,-6.199260e-004
2.285270e+003,-6.832164e-004
2.287198e+003,-7.398159e-004
2.289127e+003,-7.891319e-004
2.291055e+003,-8.270990e-004
2.292984e+003,-8.522984e-004
2.294912e+003,-8.481317e-004
2.296841e+003,-6.863591e-004
2.298769e+003,-6.806690e-004
2.300698e+003,-7.770266e-004
2.302626e+003,-7.340604e-004
2.304555e+003,-8.102655e-004
2.306483e+003,-9.198533e-004
2.308412e+003,-8.161854e-004
2.310340e+003,-7.188111e-004
2.312269e+003,-7.164624e-004
2.314197e+003,-7.403120e-004
2.316125e+003,-7.094165e-004
2.318054e+003,-5.948786e-004
2.319983e+003,-4.572740e-004
2.321911e+003,-3.976252e-004
2.323840e+003,-2.717797e-004
2.325768e+003,-2.382015e-004
2.327697e+003,-1.732565e-004
2.329625e+003,-2.816302e-005
2.331553e+003,-4.655083e-005
2.333482e+003,-1.571594e-004
2.335411e+003,-1.458647e-004
2.337339e+003,-8.153522e-005
2.339268e+003,-1.418114e-005
2.341196e+003,-1.388757e-004
2.343125e+003,-1.791519e-004
2.345053e+003,-2.909188e-004
2.346981e+003,-5.933564e-004
2.348910e+003,-7.221851e-004
2.350839e+003,-4.615107e-004
2.352767e+003,-1.228768e-004
2.354696e+003,1.454165e-004
2.356624e+003,3.348491e-004
2.358552e+003,3.445650e-004
2.360481e+003,2.158888e-004
2.362409e+003,2.317350e-004
2.364338e+003,3.545132e-004
2.366267e+003,2.470514e-004
2.368195e+003,1.188349e-004
2.370124e+003,-1.331968e-005
2.372052e+003,-1.891873e-004
2.373980e+003,-4.117603e-004
2.375909e+003,-5.837606e-004
2.377838e+003,-5.894850e-004
2.379766e+003,-6.201576e-004
2.381695e+003,-7.892311e-004
2.383623e+003,-8.567627e-004
2.385552e+003,-7.608858e-004
2.387480e+003,-7.581736e-004
2.389408e+003,-7.915462e-004
2.391337e+003,-7.446121e-004
2.393266e+003,-5.971948e-004
2.395194e+003,-5.644028e-004
2.397123e+003,-6.233670e-004
2.399051e+003,-5.971948e-004
2.400979e+003,-5.851834e-004
2.402908e+003,-5.828672e-004
2.404836e+003,-6.001396e-004
2.406765e+003,-5.656934e-004
2.408694e+003,-4.053383e-004
2.410622e+003,-4.236439e-004
2.412551e+003,-5.183376e-004
2.414479e+003,-5.377306e-004
2.416407e+003,-4.732937e-004
2.418336e+003,-4.311911e-004
2.420264e+003,-4.536000e-004
2.422193e+003,-4.425777e-004
2.424122e+003,-4.087479e-004
2.426050e+003,-4.051728e-004
2.427979e+003,-3.778287e-004
2.429907e+003,-4.719036e-004
2.431835e+003,-6.278005e-004
2.433764e+003,-6.263448e-004
2.435692e+003,-6.089741e-004
2.437621e+003,-6.057646e-004
2.439550e+003,-6.145990e-004
2.441478e+003,-6.044411e-004
2.443406e+003,-5.785655e-004
2.445335e+003,-5.398155e-004
2.447263e+003,-5.960035e-004
2.449192e+003,-5.245925e-004
2.451121e+003,-3.539261e-004
2.453049e+003,-4.019287e-004
2.454978e+003,-5.226730e-004
2.456906e+003,-5.555343e-004
2.458834e+003,-5.010289e-004
2.460763e+003,-4.435045e-004
2.462691e+003,-4.523422e-004
2.464620e+003,-5.101633e-004
2.466549e+003,-4.648205e-004
2.468477e+003,-4.339053e-004
2.470406e+003,-5.763154e-004
2.472334e+003,-5.788964e-004
2.474262e+003,-4.785894e-004
2.476191e+003,-4.484364e-004
2.478119e+003,-3.827945e-004
2.480048e+003,-3.263139e-004
2.481977e+003,-2.951571e-004
2.483905e+003,-2.997596e-004
2.485833e+003,-3.567733e-004
2.487762e+003,-4.184800e-004
2.489690e+003,-3.594218e-004
2.491619e+003,-3.422723e-004
2.493547e+003,-3.259828e-004
2.495476e+003,-3.501519e-004
2.497405e+003,-3.050904e-004
2.499333e+003,-1.931616e-004
2.501261e+003,-1.534166e-004
2.503190e+003,-2.265115e-004
2.505118e+003,-2.785017e-004
2.507047e+003,-2.265446e-004
2.508975e+003,-2.675743e-004
2.510904e+003,-1.963742e-004
2.512833e+003,-1.468915e-004
2.514761e+003,-2.424404e-004
2.516689e+003,-3.144607e-004
2.518618e+003,-3.605474e-004
2.520546e+003,-3.784577e-004
2.522475e+003,-4.334750e-004
2.524403e+003,-5.090711e-004
2.526332e+003,-4.241736e-004
2.528260e+003,-3.118781e-004
2.530189e+003,-2.696936e-004
2.532117e+003,-2.475401e-004
2.534046e+003,-2.539644e-004
2.535974e+003,-2.785017e-004
2.537903e+003,-3.328033e-004
2.539831e+003,-3.737237e-004
2.541760e+003,-2.924088e-004
2.543688e+003,-1.527873e-004
2.545617e+003,-1.464940e-004
2.547545e+003,-1.295679e-004
2.549474e+003,-5.046021e-005
2.551402e+003,-5.059273e-005
2.553331e+003,-1.040616e-004
2.555259e+003,-1.278454e-004
2.557188e+003,-1.399688e-004
2.559116e+003,-1.576232e-004
2.561045e+003,-1.288060e-004
2.562973e+003,-2.160286e-005
2.564902e+003,-3.664470e-005
2.566830e+003,-7.981257e-005
2.568759e+003,-6.801885e-005
2.570687e+003,-1.409625e-004
2.572616e+003,-1.632539e-004
2.574544e+003,-1.341908e-005
2.576473e+003,-0.000000e+000
2.578401e+003,-5.400513e-005
2.580330e+003,-5.317688e-005
2.582258e+003,2.306190e-005
2.584187e+003,1.333518e-004
2.586115e+003,-1.756069e-005
2.588044e+003,-1.435792e-004
2.589972e+003,-3.909641e-005
2.591901e+003,2.021223e-005
2.593829e+003,-2.282875e-005
2.595758e+003,-2.574439e-005
2.597686e+003,5.507227e-005
2.599615e+003,4.526346e-005
2.601543e+003,1.219350e-005
2.603472e+003,5.659663e-005
2.605400e+003,1.343130e-004
2.607329e+003,4.238050e-005
2.609257e+003,1.139826e-005
2.611186e+003,1.364011e-004
2.613114e+003,2.435040e-004
2.615043e+003,1.998442e-004
2.616971e+003,3.016576e-004
2.618900e+003,4.179882e-004
2.620828e+003,4.317854e-004
2.622757e+003,4.950063e-004
2.624685e+003,4.775915e-004
2.626614e+003,4.772266e-004
2.628542e+003,6.087343e-004
2.630471e+003,6.776889e-004
2.632399e+003,6.681646e-004
2.634328e+003,6.219735e-004
2.636256e+003,6.785185e-004
2.638185e+003,7.677976e-004
2.640113e+003,7.810749e-004
2.642042e+003,8.306358e-004
2.643970e+003,8.760192e-004
2.645899e+003,8.794721e-004
2.647827e+003,8.679846e-004
2.649756e+003,9.151981e-004
2.651684e+003,1.055839e-003
2.653613e+003,1.160312e-003
2.655541e+003,1.225832e-003
2.657470e+003,1.196892e-003
2.659398e+003,1.183768e-003
2.661327e+003,1.177024e-003
2.663255e+003,1.298341e-003
2.665184e+003,1.328751e-003
2.667112e+003,1.272121e-003
2.669041e+003,1.337625e-003
2.670969e+003,1.478702e-003
2.672898e+003,1.482592e-003
2.674826e+003,1.543938e-003
2.676755e+003,1.657475e-003
2.678683e+003,1.632397e-003
2.680612e+003,1.577823e-003
2.682540e+003,1.659238e-003
2.684469e+003,1.773537e-003
2.686397e+003,1.857352e-003
2.688326e+003,1.912028e-003
2.690254e+003,1.902842e-003
2.692183e+003,1.892825e-003
2.694111e+003,1.977595e-003
2.696040e+003,1.999863e-003
2.697968e+003,2.013245e-003
2.699897e+003,2.055456e-003
2.701825e+003,2.170925e-003
2.703754e+003,2.310875e-003
2.705682e+003,2.376802e-003
2.707611e+003,2.411618e-003
2.709539e+003,2.432310e-003
2.711468e+003,2.444305e-003
2.713396e+003,2.445038e-003
2.715325e+003,2.420214e-003
2.717253e+003,2.561678e-003
2.719182e+003,2.703620e-003
2.721110e+003,2.683983e-003
2.723039e+003,2.771074e-003
2.724967e+003,2.961155e-003
2.726896e+003,3.092516e-003
2.728824e+003,3.267815e-003
2.730753e+003,3.490746e-003
2.732681e+003,3.661728e-003
2.734610e+003,3.692805e-003
2.736538e+003,3.764858e-003
2.738467e+003,3.931869e-003
2.740395e+003,4.007874e-003
2.742324e+003,4.082321e-003
2.744252e+003,4.102222e-003
2.746181e+003,4.199501e-003
2.748109e+003,4.358346e-003
2.750038e+003,4.490733e-003
2.751966e+003,4.606718e-003
2.753895e+003,4.657621e-003
2.755823e+003,4.787085e-003
2.757752e+003,5.081661e-003
2.759680e+003,5.229561e-003
2.761609e+003,5.427834e-003
2.763537e+003,5.696222e-003
2.765466e+003,5.994708e-003
2.767394e+003,6.385992e-003
2.769323e+003,6.806002e-003
2.771251e+003,7.139506e-003
2.773180e+003,7.568506e-003
2.775108e+003,8.155941e-003
2.777037e+003,8.722130e-003
2.778965e+003,9.309471e-003
2.780894e+003,9.898996e-003
2.782822e+003,1.061395e-002
2.784750e+003,1.149356e-002
2.786679e+003,1.241830e-002
2.788608e+003,1.325368e-002
2.790536e+003,1.399790e-002
2.792465e+003,1.475576e-002
2.794393e+003,1.559350e-002
2.796322e+003,1.643853e-002
2.798250e+003,1.717051e-002
2.800178e+003,1.788932e-002
2.802107e+003,1.862908e-002
2.804036e+003,1.912242e-002
2.805964e+003,1.950489e-002
2.807893e+003,1.986928e-002
2.809821e+003,2.010212e-002
2.811750e+003,2.010912e-002
2.813678e+003,2.003174e-002
2.815606e+003,1.989089e-002
2.817535e+003,1.970511e-002
2.819464e+003,1.943645e-002
2.821392e+003,1.906491e-002
2.823321e+003,1.862137e-002
2.825249e+003,1.805101e-002
2.827177e+003,1.750200e-002
2.829106e+003,1.695030e-002
2.831034e+003,1.644754e-002
2.832963e+003,1.596431e-002
2.834892e+003,1.539843e-002
2.836820e+003,1.481569e-002
2.838749e+003,1.417930e-002
2.840677e+003,1.365782e-002
2.842605e+003,1.309216e-002
2.844534e+003,1.239791e-002
2.846462e+003,1.183321e-002
2.848391e+003,1.143804e-002
2.850320e+003,1.116534e-002
2.852248e+003,1.089684e-002
2.854177e+003,1.062213e-002
2.856105e+003,1.035174e-002
2.858033e+003,1.025605e-002
2.859962e+003,1.018672e-002
2.861890e+003,1.013584e-002
2.863819e+003,1.017569e-002
2.865748e+003,1.020307e-002
2.867676e+003,1.020293e-002
2.869604e+003,1.031713e-002
2.871533e+003,1.050904e-002
2.873461e+003,1.060186e-002
2.875390e+003,1.062678e-002
2.877319e+003,1.075933e-002
2.879247e+003,1.096453e-002
2.881176e+003,1.108572e-002
2.883104e+003,1.120719e-002
2.885032e+003,1.119175e-002
2.886961e+003,1.105381e-002
2.888889e+003,1.096477e-002
2.890818e+003,1.094101e-002
2.892747e+003,1.090442e-002
2.894675e+003,1.079992e-002
2.896604e+003,1.068193e-002
2.898532e+003,1.059541e-002
2.900460e+003,1.050691e-002
2.902389e+003,1.035191e-002
2.904317e+003,1.025354e-002
2.906246e+003,1.032825e-002
2.908175e+003,1.044632e-002
2.910103e+003,1.052690e-002
2.912031e+003,1.059915e-002
2.913960e+003,1.066261e-002
2.915888e+003,1.062716e-002
2.917817e+003,1.062549e-002
2.919745e+003,1.086110e-002
2.921674e+003,1.124303e-002
2.923603e+003,1.141593e-002
2.925531e+003,1.166184e-002
2.927459e+003,1.206317e-002
2.929388e+003,1.233239e-002
2.931316e+003,1.246535e-002
2.933245e+003,1.253543e-002
2.935173e+003,1.253031e-002
2.937102e+003,1.246112e-002
2.939031e+003,1.232611e-002
2.940959e+003,1.215560e-002
2.942887e+003,1.195686e-002
2.944816e+003,1.152789e-002
2.946744e+003,1.103178e-002
2.948673e+003,1.053994e-002
2.950601e+003,1.001610e-002
2.952530e+003,9.422483e-003
2.954458e+003,8.729703e-003
2.956387e+003,8.003633e-003
2.958315e+003,7.292354e-003
2.960244e+003,6.572179e-003
2.962172e+003,5.754909e-003
2.964101e+003,4.957506e-003
2.966029e+003,4.339638e-003
2.967958e+003,3.784678e-003
2.969886e+003,3.143110e-003
2.971815e+003,2.652845e-003
2.973743e+003,2.246656e-003
2.975672e+003,1.905272e-003
2.977600e+003,1.623783e-003
2.979529e+003,1.187290e-003
2.981457e+003,8.858467e-004
2.983386e+003,6.979990e-004
2.985314e+003,5.136161e-004
2.987243e+003,2.271601e-004
2.989171e+003,1.296397e-004
2.991100e+003,1.606635e-004
2.993028e+003,1.272534e-004
2.994957e+003,3.890110e-005
2.996885e+003,-4.582196e-005
2.998814e+003,-1.582856e-004
3.000742e+003,-1.303960e-004
3.002671e+003,-1.646118e-004
3.004599e+003,-1.943539e-004
3.006528e+003,-1.297666e-004
3.008456e+003,-2.942300e-004
3.010385e+003,-3.144607e-004
3.012313e+003,-1.982951e-004
3.014242e+003,-2.890977e-004
3.016170e+003,-4.226178e-004
3.018099e+003,-3.083353e-004
3.020027e+003,-2.951902e-004
3.021956e+003,-4.087479e-004
3.023884e+003,-4.426770e-004
3.025813e+003,-3.724326e-004
3.027741e+003,-3.241287e-004
3.029670e+003,-3.110835e-004
3.031598e+003,-4.678656e-004
3.033527e+003,-4.587304e-004
3.035455e+003,-3.517410e-004
3.037384e+003,-3.594218e-004
3.039312e+003,-3.458148e-004
3.041241e+003,-3.970624e-004
3.043169e+003,-5.468973e-004
3.045098e+003,-4.595909e-004
3.047026e+003,-4.140774e-004
3.048955e+003,-4.147064e-004
3.050883e+003,-4.131506e-004
3.052812e+003,-4.992086e-004
3.054740e+003,-5.122483e-004
3.056669e+003,-4.978517e-004
3.058597e+003,-5.329321e-004
3.060526e+003,-6.580402e-004
3.062454e+003,-6.902296e-004
3.064383e+003,-5.854482e-004
3.066311e+003,-5.526884e-004
3.068240e+003,-6.081469e-004
3.070168e+003,-5.494785e-004
3.072097e+003,-5.573212e-004
3.074025e+003,-7.140146e-004
3.075954e+003,-6.375609e-004
3.077882e+003,-6.013639e-004
3.079811e+003,-5.193305e-004
3.081739e+003,-4.774309e-004
3.083668e+003,-5.666199e-004
3.085596e+003,-5.585126e-004
3.087525e+003,-4.871615e-004
3.089453e+003,-5.500411e-004
3.091382e+003,-6.292894e-004
3.093310e+003,-5.600678e-004
3.095239e+003,-4.455236e-004
3.097167e+003,-4.536331e-004
3.099096e+003,-5.513979e-004
3.101024e+003,-5.512324e-004
3.102953e+003,-4.738564e-004
3.104881e+003,-3.491255e-004
3.106810e+003,-3.507147e-004
3.108738e+003,-3.435304e-004
3.110667e+003,-3.542903e-004
3.112595e+003,-4.528718e-004
3.114524e+003,-4.953695e-004
3.116452e+003,-5.756867e-004
3.118381e+003,-5.214486e-004
3.120309e+003,-4.684283e-004
3.122238e+003,-4.278478e-004
3.124166e+003,-3.249896e-004
3.126095e+003,-3.163149e-004
3.128023e+003,-3.356506e-004
3.129952e+003,-2.733360e-004
3.131880e+003,-1.772309e-004
3.133809e+003,-2.298231e-004
3.135737e+003,-2.756871e-004
3.137666e+003,-1.212868e-004
3.139594e+003,5.798496e-006
3.141523e+003,-7.481022e-005
3.143451e+003,-2.098203e-004
3.145380e+003,-1.719979e-004
3.147308e+003,4.191658e-005
3.149237e+003,1.286454e-004
3.151165e+003,1.001095e-004
3.153094e+003,9.729244e-005
3.155022e+003,9.049849e-005
3.156951e+003,2.350171e-004
3.158879e+003,3.171091e-004
3.160808e+003,3.848567e-004
3.162736e+003,4.480707e-004
3.164665e+003,4.990865e-004
3.166593e+003,6.428784e-004
3.168522e+003,7.024793e-004
3.170450e+003,6.915939e-004
3.172379e+003,7.687602e-004
3.174307e+003,8.923875e-004
3.176236e+003,8.945457e-004
3.178164e+003,8.179546e-004
3.180093e+003,8.287768e-004
3.182021e+003,8.525467e-004
3.183950e+003,8.308018e-004
3.185878e+003,7.585369e-004
3.187807e+003,6.778879e-004
3.189735e+003,6.767928e-004
3.191664e+003,7.479488e-004
3.193592e+003,8.182202e-004
3.195521e+003,9.324644e-004
3.197449e+003,8.990280e-004
3.199378e+003,7.472850e-004
3.201306e+003,6.510415e-004
3.203235e+003,6.726778e-004
3.205163e+003,7.500067e-004
3.207092e+003,9.022487e-004
3.209020e+003,8.779116e-004
3.210948e+003,8.333913e-004
3.212877e+003,8.981980e-004
3.214806e+003,1.020135e-003
3.216734e+003,1.012696e-003
3.218663e+003,9.961568e-004
3.220591e+003,1.094636e-003
3.222520e+003,1.151575e-003
3.224448e+003,1.110249e-003
3.226376e+003,1.181941e-003
3.228305e+003,1.350521e-003
3.230234e+003,1.278834e-003
3.232162e+003,1.203836e-003
3.234091e+003,1.467531e-003
3.236019e+003,1.500912e-003
3.237948e+003,1.445589e-003
3.239876e+003,1.454300e-003
3.241804e+003,1.526281e-003
3.243733e+003,1.658706e-003
3.245662e+003,1.755938e-003
3.247590e+003,1.864373e-003
3.249519e+003,2.087317e-003
3.251447e+003,2.227705e-003
3.253375e+003,2.191738e-003
3.255304e+003,2.144153e-003
3.257232e+003,2.295319e-003
3.259161e+003,2.351249e-003
3.261090e+003,2.440540e-003
3.263018e+003,2.670147e-003
3.264947e+003,2.719891e-003
3.266875e+003,2.690284e-003
3.268803e+003,2.778144e-003
3.270732e+003,2.731828e-003
3.272660e+003,2.594376e-003
3.274589e+003,2.723792e-003
3.276518e+003,2.955017e-003
3.278446e+003,3.081604e-003
3.280375e+003,3.001791e-003
3.282303e+003,2.831835e-003
3.284231e+003,2.841140e-003
3.286160e+003,2.835370e-003
3.288088e+003,2.772408e-003
3.290017e+003,2.724059e-003
3.291946e+003,2.779344e-003
3.293874e+003,2.710288e-003
3.295802e+003,2.477894e-003
3.297731e+003,2.371471e-003
3.299659e+003,2.481326e-003
3.301588e+003,2.471429e-003
3.303516e+003,2.288357e-003
3.305445e+003,2.169826e-003
3.307374e+003,2.099536e-003
3.309302e+003,1.832628e-003
3.311230e+003,1.679893e-003
3.313159e+003,1.590560e-003
3.315087e+003,1.342278e-003
3.317016e+003,1.174200e-003
3.318944e+003,1.143336e-003
3.320873e+003,1.150412e-003
3.322802e+003,1.158917e-003
3.324730e+003,1.160744e-003
3.326658e+003,1.216429e-003
3.328587e+003,1.092078e-003
3.330515e+003,8.618094e-004
3.332444e+003,7.418417e-004
3.334372e+003,8.486956e-004
3.336301e+003,1.013028e-003
3.338229e+003,1.129317e-003
3.340158e+003,1.110614e-003
3.342086e+003,9.430238e-004
3.344015e+003,9.585646e-004
3.345943e+003,1.204467e-003
3.347872e+003,1.300767e-003
3.349800e+003,1.245570e-003
3.351729e+003,1.171741e-003
3.353657e+003,1.153302e-003
3.355586e+003,1.173734e-003
3.357514e+003,1.074540e-003
3.359443e+003,9.680287e-004
3.361371e+003,8.935496e-004
3.363300e+003,8.364122e-004
3.365229e+003,7.038732e-004
3.367157e+003,6.739057e-004
3.369085e+003,6.008042e-004
3.371014e+003,4.600115e-004
3.372942e+003,3.301405e-004
3.374871e+003,1.103378e-005
3.376799e+003,-2.455201e-004
3.378728e+003,-4.564465e-004
3.380656e+003,-7.173886e-004
3.382585e+003,-7.892311e-004
3.384513e+003,-9.967200e-004
3.386442e+003,-1.168621e-003
3.388370e+003,-1.320106e-003
3.390299e+003,-1.372824e-003
3.392227e+003,-1.428475e-003
3.394156e+003,-1.541407e-003
3.396084e+003,-1.635395e-003
3.398013e+003,-1.776554e-003
3.399941e+003,-1.778600e-003
3.401870e+003,-1.769162e-003
3.403798e+003,-1.924759e-003
3.405727e+003,-1.935216e-003
3.407655e+003,-1.774277e-003
3.409584e+003,-1.601988e-003
3.411512e+003,-1.716822e-003
3.413441e+003,-1.964079e-003
3.415369e+003,-1.983143e-003
3.417298e+003,-1.972786e-003
3.419226e+003,-1.937162e-003
3.421155e+003,-1.966354e-003
3.423083e+003,-1.986870e-003
3.425012e+003,-1.911498e-003
3.426940e+003,-1.782890e-003
3.428869e+003,-1.792987e-003
3.430797e+003,-2.044817e-003
3.432726e+003,-2.170348e-003
3.434654e+003,-2.058338e-003
3.436583e+003,-1.989938e-003
3.438511e+003,-2.130520e-003
3.440440e+003,-2.121749e-003
3.442368e+003,-2.106153e-003
3.444297e+003,-2.095238e-003
3.446225e+003,-2.148324e-003
3.448154e+003,-2.053490e-003
3.450082e+003,-1.993698e-003
3.452011e+003,-2.051578e-003
3.453939e+003,-2.083928e-003
3.455868e+003,-2.066121e-003
3.457796e+003,-2.119078e-003
3.459725e+003,-2.221018e-003
3.461653e+003,-2.196953e-003
3.463582e+003,-2.100976e-003
3.465510e+003,-2.041519e-003
3.467439e+003,-2.161215e-003
3.469367e+003,-2.146478e-003
3.471296e+003,-2.079311e-003
3.473224e+003,-2.145356e-003
3.475153e+003,-2.113770e-003
3.477081e+003,-1.972885e-003
3.479010e+003,-1.800312e-003
3.480938e+003,-1.773650e-003
3.482867e+003,-1.821661e-003
3.484795e+003,-2.030603e-003
3.486724e+003,-2.196458e-003
3.488652e+003,-2.026283e-003
3.490581e+003,-2.049467e-003
3.492509e+003,-2.061405e-003
3.494438e+003,-1.870986e-003
3.496366e+003,-1.839016e-003
3.498295e+003,-1.840930e-003
3.500223e+003,-1.822981e-003
3.502152e+003,-1.929641e-003
3.504080e+003,-2.035187e-003
3.506009e+003,-1.986804e-003
3.507937e+003,-2.078850e-003
3.509866e+003,-2.185843e-003
3.511794e+003,-1.987464e-003
3.513723e+003,-1.899457e-003
3.515651e+003,-1.896818e-003
3.517580e+003,-1.865048e-003
3.519508e+003,-1.836608e-003
3.521437e+003,-1.847430e-003
3.523365e+003,-1.931192e-003
3.525294e+003,-1.913939e-003
3.527222e+003,-1.933567e-003
3.529151e+003,-1.994885e-003
3.531079e+003,-1.995973e-003
3.533008e+003,-2.075750e-003
3.534936e+003,-2.085939e-003
3.536865e+003,-1.837004e-003
3.538793e+003,-1.798102e-003
3.540722e+003,-1.895465e-003
3.542650e+003,-2.074002e-003
3.544579e+003,-2.149478e-003
3.546507e+003,-1.966915e-003
3.548436e+003,-1.978262e-003
3.550364e+003,-2.157292e-003
3.552293e+003,-2.243269e-003
3.554221e+003,-2.299303e-003
3.556150e+003,-2.154918e-003
3.558078e+003,-2.000096e-003
3.560007e+003,-2.010518e-003
3.561935e+003,-1.858878e-003
3.563864e+003,-1.799059e-003
3.565792e+003,-2.185645e-003
3.567721e+003,-2.396060e-003
3.569649e+003,-2.170743e-003
3.571578e+003,-1.807176e-003
3.573506e+003,-1.911828e-003
3.575435e+003,-2.361756e-003
3.577363e+003,-2.298907e-003
3.579292e+003,-2.120100e-003
3.581220e+003,-2.223128e-003
3.583149e+003,-2.173216e-003
3.585077e+003,-2.150137e-003
3.587006e+003,-2.392501e-003
3.588934e+003,-2.279131e-003
3.590863e+003,-2.120430e-003
3.592791e+003,-2.337303e-003
3.594720e+003,-2.474676e-003
3.596648e+003,-2.266244e-003
3.598577e+003,-2.185052e-003
3.600505e+003,-2.252795e-003
3.602434e+003,-2.230512e-003
3.604362e+003,-2.227710e-003
3.606291e+003,-2.503041e-003
3.608219e+003,-2.611116e-003
3.610148e+003,-2.632721e-003
3.612076e+003,-2.627089e-003
3.614005e+003,-2.419191e-003
3.615933e+003,-2.528868e-003
3.617862e+003,-2.779515e-003
3.619790e+003,-2.574062e-003
3.621719e+003,-2.113308e-003
3.623647e+003,-1.946233e-003
3.625576e+003,-2.362448e-003
3.627504e+003,-3.240056e-003
3.629433e+003,-3.052786e-003
3.631361e+003,-2.466703e-003
3.633290e+003,-2.693611e-003
3.635218e+003,-2.732103e-003
3.637146e+003,-2.575972e-003
3.639075e+003,-2.493883e-003
3.641004e+003,-2.468613e-003
3.642932e+003,-2.388646e-003
3.644861e+003,-2.418203e-003
3.646789e+003,-2.856020e-003
3.648718e+003,-3.238149e-003
3.650646e+003,-3.296455e-003
3.652574e+003,-3.171743e-003
3.654503e+003,-3.354260e-003
3.656432e+003,-3.183617e-003
3.658360e+003,-2.708429e-003
3.660289e+003,-2.486832e-003
3.662217e+003,-2.392501e-003
3.664146e+003,-2.261036e-003
3.666074e+003,-2.482286e-003
3.668002e+003,-3.011821e-003
3.669931e+003,-3.158684e-003
3.671860e+003,-3.085456e-003
3.673788e+003,-3.699518e-003
3.675717e+003,-3.668076e-003
3.677645e+003,-3.133552e-003
3.679573e+003,-2.949033e-003
3.681502e+003,-2.776321e-003
3.683430e+003,-2.800782e-003
3.685359e+003,-2.666378e-003
3.687288e+003,-3.088417e-003
3.689216e+003,-3.297704e-003
3.691145e+003,-3.109242e-003
3.693073e+003,-2.948540e-003
3.695001e+003,-3.039032e-003
3.696930e+003,-2.826855e-003
3.698858e+003,-2.586743e-003
3.700787e+003,-3.016954e-003
3.702716e+003,-3.041961e-003
3.704644e+003,-2.585425e-003
3.706573e+003,-2.609469e-003
3.708501e+003,-2.952226e-003
3.710429e+003,-3.199240e-003
3.712358e+003,-3.157862e-003
3.714286e+003,-2.641020e-003
3.716215e+003,-2.578805e-003
3.718144e+003,-2.616616e-003
3.720072e+003,-2.453194e-003
3.722000e+003,-2.342873e-003
3.723929e+003,-2.342411e-003
3.725857e+003,-2.384362e-003
3.727786e+003,-2.341620e-003
3.729714e+003,-2.745274e-003
3.731643e+003,-3.198484e-003
3.733572e+003,-3.287214e-003
3.735500e+003,-3.208088e-003
3.737428e+003,-2.886467e-003
3.739357e+003,-2.569747e-003
3.741285e+003,-2.434052e-003
3.743214e+003,-2.802264e-003
3.745142e+003,-2.270924e-003
3.747071e+003,-2.300226e-003
3.749000e+003,-2.955714e-003
3.750928e+003,-2.924679e-003
3.752856e+003,-2.359712e-003
3.754785e+003,-2.073277e-003
3.756713e+003,-2.115220e-003
3.758642e+003,-2.151885e-003
3.760570e+003,-1.785827e-003
3.762499e+003,-1.340223e-003
3.764427e+003,-1.568975e-003
3.766356e+003,-1.659260e-003
3.768284e+003,-1.891539e-003
3.770213e+003,-1.810310e-003
3.772141e+003,-1.601559e-003
3.774070e+003,-1.720122e-003
3.775998e+003,-1.687448e-003
3.777927e+003,-1.768601e-003
3.779855e+003,-1.847067e-003
3.781784e+003,-1.692531e-003
3.783712e+003,-1.817932e-003
3.785641e+003,-1.757249e-003
3.787569e+003,-1.558806e-003
3.789498e+003,-1.306826e-003
3.791426e+003,-1.279010e-003
3.793355e+003,-1.449116e-003
3.795283e+003,-1.736261e-003
3.797212e+003,-1.887647e-003
3.799140e+003,-2.074464e-003
3.801069e+003,-2.092633e-003
3.802997e+003,-1.729561e-003
3.804926e+003,-1.999008e-003
3.806854e+003,-2.097447e-003
3.808783e+003,-1.600998e-003
3.810711e+003,-1.656323e-003
3.812640e+003,-1.800576e-003
3.814568e+003,-1.937525e-003
3.816497e+003,-1.760450e-003
3.818425e+003,-1.850003e-003
3.820354e+003,-2.349200e-003
3.822282e+003,-2.349727e-003
3.824211e+003,-2.119342e-003
3.826139e+003,-1.864124e-003
3.828068e+003,-1.538733e-003
3.829996e+003,-1.566169e-003
3.831925e+003,-1.544775e-003
3.833853e+003,-1.701409e-003
3.835782e+003,-2.258926e-003
3.837710e+003,-2.364557e-003
3.839639e+003,-2.027767e-003
3.841567e+003,-2.034528e-003
3.843496e+003,-1.926442e-003
3.845424e+003,-1.541506e-003
3.847353e+003,-1.333980e-003
3.849281e+003,-1.624238e-003
3.851210e+003,-2.251048e-003
3.853138e+003,-2.529659e-003
3.855067e+003,-1.862474e-003
3.856995e+003,-1.650612e-003
3.858924e+003,-1.720122e-003
3.860852e+003,-1.895729e-003
3.862781e+003,-2.103811e-003
3.864709e+003,-2.055799e-003
3.866638e+003,-1.729825e-003
3.868566e+003,-1.933270e-003
3.870495e+003,-1.922384e-003
3.872423e+003,-1.943760e-003
3.874352e+003,-1.935579e-003
3.876280e+003,-1.563329e-003
3.878209e+003,-1.445813e-003
3.880137e+003,-1.536917e-003
3.882066e+003,-1.540582e-003
3.883994e+003,-1.695996e-003
3.885923e+003,-1.537115e-003
3.887851e+003,-1.384616e-003
3.889780e+003,-1.733125e-003
3.891708e+003,-1.823146e-003
3.893637e+003,-1.601724e-003
3.895565e+003,-1.497493e-003
3.897494e+003,-1.551213e-003
3.899422e+003,-1.660779e-003
3.901351e+003,-1.687382e-003
3.903279e+003,-1.807902e-003
3.905208e+003,-1.541143e-003
3.907136e+003,-1.406480e-003
3.909065e+003,-1.507465e-003
3.910993e+003,-1.645694e-003
3.912922e+003,-1.416289e-003
3.914850e+003,-1.434618e-003
3.916779e+003,-1.569668e-003
3.918707e+003,-1.760285e-003
3.920636e+003,-1.710122e-003
3.922564e+003,-1.434717e-003
3.924493e+003,-1.428277e-003
3.926421e+003,-1.335631e-003
3.928350e+003,-1.441223e-003
3.930278e+003,-1.569206e-003
3.932207e+003,-1.547977e-003
3.934135e+003,-1.465990e-003
3.936064e+003,-1.398190e-003
3.937992e+003,-1.374377e-003
3.939921e+003,-1.597961e-003
3.941849e+003,-1.691805e-003
3.943778e+003,-1.644638e-003
3.945706e+003,-1.724875e-003
3.947635e+003,-1.432703e-003
3.949563e+003,-1.096114e-003
3.951492e+003,-1.354724e-003
3.953420e+003,-1.645496e-003
3.955349e+003,-1.414340e-003
3.957277e+003,-1.343229e-003
3.959206e+003,-1.467278e-003
3.961134e+003,-1.374938e-003
3.963063e+003,-1.352445e-003
3.964991e+003,-1.429499e-003
3.966920e+003,-1.652296e-003
3.968848e+003,-1.718571e-003
3.970777e+003,-1.468863e-003
3.972705e+003,-1.179427e-003
3.974634e+003,-1.231237e-003
3.976562e+003,-1.351883e-003
3.978491e+003,-1.277293e-003
3.980419e+003,-1.171430e-003
3.982348e+003,-1.252217e-003
3.984276e+003,-1.458098e-003
3.986205e+003,-1.402154e-003
3.988133e+003,-1.406909e-003
3.990062e+003,-1.550553e-003
3.991990e+003,-1.582742e-003
3.993919e+003,-1.443997e-003
3.995847e+003,-1.401031e-003
3.997776e+003,-1.396935e-003
3.999704e+003,-1.144663e-003
4.001633e+003,0.000000e+000
