3.991989e+002,2.372282e-002
4.011274e+002,1.206235e-002
4.030559e+002,6.960314e-003
4.049844e+002,3.474981e-003
4.069129e+002,-1.196844e-002
4.088414e+002,-6.128335e-003
4.107699e+002,5.019780e-003
4.126984e+002,1.088026e-003
4.146269e+002,1.904962e-004
4.165554e+002,3.604426e-003
4.184839e+002,9.666214e-003
4.204124e+002,1.151102e-002
4.223409e+002,1.219789e-002
4.242694e+002,1.391297e-002
4.261979e+002,1.140375e-002
4.281264e+002,1.261321e-003
4.300549e+002,-4.985187e-003
4.319834e+002,-9.029597e-003
4.339119e+002,4.972789e-003
4.358404e+002,1.059500e-002
4.377689e+002,1.920947e-003
4.396974e+002,2.461299e-003
4.416259e+002,2.821230e-003
4.435544e+002,6.952234e-003
4.454829e+002,7.822735e-003
4.474114e+002,7.843517e-003
4.493399e+002,5.178120e-003
4.512684e+002,1.201909e-003
4.531969e+002,-1.088648e-004
4.551254e+002,1.452804e-003
4.570539e+002,1.356869e-003
4.589824e+002,-1.457272e-003
4.609109e+002,-5.043715e-004
4.628394e+002,3.223283e-003
4.647679e+002,3.309014e-003
4.666964e+002,2.999822e-003
4.686249e+002,1.423083e-003
4.705533e+002,1.412280e-003
4.724819e+002,3.892718e-003
4.744103e+002,3.431463e-003
4.763389e+002,2.056022e-003
4.782673e+002,2.497589e-003
4.801959e+002,3.903851e-003
4.821243e+002,5.139963e-003
4.840529e+002,4.460938e-003
4.859813e+002,3.219711e-003
4.879099e+002,2.578610e-003
4.898383e+002,3.066421e-003
4.917668e+002,3.599648e-003
4.936953e+002,4.882842e-003
4.956238e+002,4.995110e-003
4.975523e+002,3.165872e-003
4.994808e+002,4.252733e-003
5.014093e+002,5.565380e-003
5.033378e+002,3.439712e-003
5.052663e+002,1.538152e-003
5.071948e+002,1.731786e-003
5.091233e+002,2.859751e-003
5.110518e+002,2.805422e-003
5.129803e+002,3.088011e-003
5.149088e+002,1.979758e-003
5.168373e+002,2.100068e-003
5.187658e+002,2.431710e-003
5.206943e+002,2.811091e-003
5.226228e+002,1.876286e-003
5.245513e+002,1.447717e-003
5.264798e+002,1.799655e-003
5.284083e+002,3.237403e-003
5.303368e+002,3.734846e-003
5.322653e+002,3.580004e-003
5.341938e+002,3.348012e-003
5.361223e+002,2.123009e-003
5.380508e+002,1.157422e-003
5.399792e+002,2.829968e-003
5.419078e+002,2.996619e-003
5.438363e+002,2.608942e-003
5.457648e+002,2.071603e-003
5.476932e+002,1.436314e-003
5.496218e+002,1.849199e-003
5.515503e+002,2.646878e-003
5.534788e+002,1.849964e-003
5.554072e+002,2.140457e-003
5.573358e+002,2.490690e-003
5.592643e+002,2.243492e-003
5.611927e+002,1.122739e-003
5.631212e+002,8.413588e-004
5.650497e+002,1.220283e-003
5.669783e+002,2.576043e-003
5.689067e+002,4.025231e-003
5.708352e+002,3.214003e-003
5.727637e+002,2.290356e-003
5.746923e+002,9.103171e-004
5.766207e+002,1.680426e-003
5.785492e+002,4.818711e-003
5.804777e+002,5.556050e-003
5.824063e+002,1.050758e-003
5.843347e+002,1.060157e-003
5.862632e+002,3.786216e-003
5.881917e+002,3.252125e-003
5.901202e+002,1.919582e-003
5.920487e+002,3.494727e-004
5.939772e+002,-4.346968e-005
5.959057e+002,6.105924e-004
5.978342e+002,1.153635e-003
5.997627e+002,1.226430e-003
6.016912e+002,9.556908e-005
6.036197e+002,-3.691220e-004
6.055482e+002,-1.961092e-004
6.074767e+002,-1.300316e-004
6.094052e+002,6.603994e-004
6.113337e+002,1.950668e-003
6.132622e+002,2.075531e-003
6.151907e+002,1.482193e-003
6.171192e+002,1.910530e-003
6.190477e+002,2.432909e-003
6.209762e+002,3.109469e-003
6.229047e+002,2.812192e-003
6.248332e+002,1.996934e-003
6.267617e+002,6.819698e-004
6.286902e+002,1.283140e-004
6.306187e+002,5.938033e-004
6.325472e+002,1.048200e-003
6.344756e+002,1.607022e-003
6.364042e+002,1.620990e-003
6.383326e+002,1.091514e-003
6.402612e+002,7.370291e-004
6.421896e+002,1.195364e-003
6.441182e+002,1.137489e-003
6.460466e+002,9.164266e-004
6.479752e+002,1.287673e-003
6.499036e+002,9.182528e-004
6.518322e+002,1.238559e-003
6.537606e+002,1.500313e-003
6.556891e+002,1.339552e-003
6.576177e+002,8.861124e-004
6.595461e+002,5.009110e-004
6.614746e+002,1.567523e-004
6.634031e+002,4.055180e-004
6.653317e+002,6.599348e-004
6.672601e+002,1.716617e-003
6.691886e+002,1.758300e-003
6.711171e+002,1.044547e-003
6.730457e+002,1.339951e-003
6.749741e+002,1.085667e-003
6.769026e+002,5.473546e-004
6.788311e+002,3.845250e-004
6.807596e+002,4.517856e-004
6.826881e+002,5.819252e-004
6.846166e+002,6.751004e-004
6.865451e+002,7.064618e-004
6.884736e+002,7.429370e-004
6.904021e+002,6.472585e-004
6.923306e+002,4.636933e-004
6.942591e+002,7.375269e-004
6.961876e+002,9.007546e-004
6.981161e+002,9.622838e-004
7.000446e+002,7.714156e-004
7.019731e+002,3.315332e-004
7.039016e+002,2.828248e-004
7.058301e+002,4.835290e-004
7.077585e+002,5.856081e-004
7.096871e+002,8.937157e-004
7.116156e+002,1.137090e-003
7.135441e+002,5.969885e-004
7.154725e+002,1.692154e-004
7.174011e+002,3.312679e-004
7.193296e+002,6.015673e-004
7.212581e+002,7.602961e-004
7.231865e+002,5.582364e-004
7.251151e+002,4.631625e-004
7.270436e+002,6.529661e-004
7.289720e+002,8.314326e-004
7.309005e+002,8.774468e-004
7.328290e+002,7.840623e-004
7.347576e+002,4.205088e-004
7.366860e+002,2.589203e-004
7.386145e+002,5.699092e-006
7.405430e+002,4.203761e-004
7.424716e+002,7.808425e-004
7.444000e+002,6.890717e-004
7.463285e+002,6.256898e-004
7.482570e+002,7.604928e-005
7.501855e+002,-1.902140e-004
7.521140e+002,5.429754e-004
7.540425e+002,9.100183e-004
7.559710e+002,7.874149e-004
7.578995e+002,8.210087e-004
7.598280e+002,4.022678e-004
7.617565e+002,2.754644e-004
7.636850e+002,5.600280e-004
7.656135e+002,1.234671e-003
7.675420e+002,1.319079e-003
7.694705e+002,7.133318e-004
7.713990e+002,3.689717e-004
7.733275e+002,3.400221e-004
7.752560e+002,3.400221e-004
7.771844e+002,-1.331968e-005
7.791130e+002,-4.363534e-005
7.810415e+002,2.737403e-004
7.829700e+002,2.708890e-004
7.848984e+002,6.206449e-005
7.868270e+002,3.008619e-004
7.887555e+002,4.665127e-004
7.906840e+002,4.738432e-004
7.926124e+002,4.651859e-004
7.945410e+002,1.411740e-004
7.964695e+002,6.862602e-005
7.983979e+002,4.534109e-004
8.003264e+002,2.359785e-004
8.022549e+002,-1.992224e-004
8.041835e+002,1.796236e-004
8.061119e+002,3.715584e-004
8.080404e+002,3.423101e-004
8.099689e+002,2.230825e-004
8.118975e+002,3.567350e-004
8.138259e+002,6.772242e-004
8.157545e+002,4.847232e-004
8.176830e+002,4.904618e-004
8.196115e+002,4.085691e-004
8.215399e+002,2.752322e-004
8.234684e+002,4.068446e-004
8.253970e+002,6.922577e-004
8.273254e+002,8.841203e-004
8.292539e+002,6.637179e-004
8.311824e+002,5.595635e-004
8.331110e+002,6.494155e-004
8.350394e+002,3.974590e-004
8.369679e+002,3.570998e-004
8.388964e+002,2.350834e-004
8.408250e+002,2.226847e-004
8.427534e+002,1.720660e-004
8.446819e+002,-4.287333e-005
8.466104e+002,-2.014503e-005
8.485389e+002,2.210097e-005
8.504674e+002,1.416711e-004
8.523959e+002,3.076591e-004
8.543244e+002,2.468856e-004
8.562529e+002,1.133663e-004
8.581814e+002,3.352802e-004
8.601099e+002,6.796468e-004
8.620384e+002,6.332553e-004
8.639669e+002,5.091709e-004
8.658954e+002,3.418459e-004
8.678239e+002,1.578130e-004
8.697524e+002,3.798490e-004
8.716809e+002,4.743408e-004
8.736094e+002,5.990125e-004
8.755378e+002,5.323262e-004
8.774664e+002,6.496809e-004
8.793949e+002,5.646728e-004
8.813234e+002,2.236792e-004
8.832518e+002,3.297426e-004
8.851804e+002,3.698671e-004
8.871089e+002,1.947061e-004
8.890374e+002,2.571278e-005
8.909658e+002,2.031923e-004
8.928943e+002,3.937777e-004
8.948229e+002,2.669767e-004
8.967513e+002,3.001324e-004
8.986798e+002,4.375234e-004
9.006083e+002,1.793585e-004
9.025369e+002,2.521570e-004
9.044653e+002,4.093983e-004
9.063938e+002,2.417138e-004
9.083223e+002,1.156201e-004
9.102509e+002,8.973625e-005
9.121793e+002,4.419678e-004
9.141078e+002,4.247873e-004
9.160364e+002,2.281546e-004
9.179648e+002,3.123012e-004
9.198933e+002,4.567609e-004
9.218218e+002,5.385299e-004
9.237504e+002,4.286678e-004
9.256788e+002,1.718008e-004
9.276073e+002,6.514641e-005
9.295358e+002,3.727739e-005
9.314644e+002,-1.888599e-005
9.333928e+002,-2.630709e-004
9.353213e+002,-1.455003e-004
9.372498e+002,1.234418e-004
9.391783e+002,-9.581307e-005
9.411068e+002,-1.108192e-004
9.430353e+002,1.471401e-004
9.449637e+002,1.347439e-004
9.468923e+002,5.268344e-006
9.488208e+002,-4.612013e-005
9.507493e+002,7.154229e-005
9.526777e+002,1.012363e-004
9.546063e+002,8.483142e-005
9.565348e+002,-7.554495e-006
9.584633e+002,-1.636182e-004
9.603917e+002,-5.135746e-006
9.623203e+002,3.943747e-004
9.642488e+002,3.116049e-004
9.661772e+002,9.434285e-005
9.681057e+002,1.093230e-004
9.700343e+002,-1.094279e-004
9.719628e+002,8.592506e-005
9.738912e+002,2.349507e-004
9.758197e+002,-9.293103e-005
9.777483e+002,-2.384333e-004
9.796768e+002,-1.433473e-004
9.816052e+002,-7.961380e-005
9.835337e+002,1.123258e-005
9.854623e+002,1.510512e-004
9.873907e+002,3.590895e-004
9.893192e+002,3.519598e-004
9.912477e+002,7.250333e-005
9.931763e+002,-1.305948e-004
9.951047e+002,-2.551565e-004
9.970332e+002,-3.513768e-004
9.989617e+002,-8.183336e-005
1.000890e+003,8.420175e-005
1.002819e+003,8.870888e-005
1.004747e+003,-3.111175e-005
1.006676e+003,-2.056474e-004
1.008604e+003,-2.852567e-004
1.010533e+003,-1.277129e-004
1.012461e+003,-1.858780e-005
1.014390e+003,-5.970343e-005
1.016318e+003,-8.806135e-005
1.018247e+003,2.233292e-005
1.020175e+003,2.448675e-005
1.022104e+003,-1.292698e-004
1.024032e+003,-6.937714e-005
1.025961e+003,1.277174e-004
1.027889e+003,-2.127153e-005
1.029818e+003,-9.939075e-005
1.031746e+003,-8.468235e-005
1.033675e+003,-4.612013e-005
1.035603e+003,-1.403994e-004
1.037532e+003,-2.021700e-004
1.039460e+003,-1.043597e-004
1.041389e+003,-1.828614e-004
1.043317e+003,-2.312140e-004
1.045246e+003,-7.567155e-005
1.047174e+003,3.108084e-005
1.049103e+003,-3.313278e-005
1.051031e+003,-1.430161e-004
1.052960e+003,-3.936145e-005
1.054888e+003,1.520879e-005
1.056817e+003,-4.833987e-005
1.058745e+003,-9.763504e-005
1.060674e+003,4.904115e-005
1.062602e+003,7.140973e-005
1.064531e+003,-9.332856e-005
1.066459e+003,-1.343378e-004
1.068388e+003,-1.032334e-004
1.070316e+003,8.277672e-005
1.072245e+003,2.724472e-004
1.074173e+003,2.240107e-004
1.076102e+003,6.186566e-005
1.078030e+003,-3.044912e-005
1.079959e+003,-2.363802e-004
1.081887e+003,-3.307505e-004
1.083816e+003,-1.728259e-004
1.085744e+003,-3.743985e-005
1.087673e+003,-9.230163e-005
1.089601e+003,-7.335257e-005
1.091530e+003,-1.315401e-005
1.093458e+003,-9.140719e-005
1.095387e+003,-1.555365e-004
1.097315e+003,-6.838328e-005
1.099244e+003,-4.602074e-005
1.101172e+003,3.641584e-005
1.103101e+003,5.626524e-005
1.105029e+003,-6.311576e-005
1.106958e+003,-1.852460e-004
1.108886e+003,-1.648106e-004
1.110815e+003,-1.190674e-004
1.112743e+003,-1.731902e-004
1.114672e+003,-1.918700e-004
1.116600e+003,-3.588268e-005
1.118529e+003,-1.842214e-005
1.120457e+003,-1.452353e-004
1.122386e+003,-2.634076e-005
1.124314e+003,-2.422031e-005
1.126243e+003,-1.755087e-004
1.128171e+003,-3.880581e-004
1.130100e+003,-3.479337e-004
1.132028e+003,-3.783915e-004
1.133957e+003,-4.427432e-004
1.135885e+003,-1.809404e-004
1.137814e+003,-1.050885e-004
1.139742e+003,-3.260490e-004
1.141671e+003,-2.735347e-004
1.143599e+003,-9.680687e-005
1.145528e+003,-3.763864e-005
1.147456e+003,-1.166162e-004
1.149385e+003,-2.940313e-004
1.151313e+003,-3.431662e-004
1.153242e+003,-1.992224e-004
1.155170e+003,-4.075468e-006
1.157099e+003,2.054359e-005
1.159027e+003,-4.674961e-005
1.160956e+003,-2.567812e-005
1.162884e+003,-1.815707e-005
1.164813e+003,-5.824574e-005
1.166741e+003,-1.597761e-004
1.168670e+003,-1.917375e-004
1.170598e+003,-1.570601e-004
1.172526e+003,-1.687851e-004
1.174455e+003,-3.772659e-004
1.176384e+003,-3.600840e-004
1.178312e+003,-2.429040e-004
1.180240e+003,-2.239615e-004
1.182169e+003,-2.084294e-004
1.184098e+003,-3.015145e-004
1.186026e+003,-3.177717e-004
1.187954e+003,-1.002189e-004
1.189883e+003,5.102672e-006
1.191812e+003,-7.222620e-005
1.193740e+003,6.521268e-005
1.195668e+003,-2.133780e-005
1.197597e+003,-2.998589e-004
1.199526e+003,-3.079380e-004
1.201454e+003,-1.923999e-004
1.203382e+003,-7.931565e-005
1.205311e+003,-1.633201e-004
1.207240e+003,-2.379697e-004
1.209168e+003,-2.571103e-004
1.211096e+003,-2.990974e-004
1.213025e+003,-1.895847e-004
1.214953e+003,-5.804696e-005
1.216882e+003,-1.402338e-004
1.218810e+003,-2.977398e-004
1.220739e+003,-3.052891e-004
1.222667e+003,-2.831375e-004
1.224596e+003,-2.267433e-004
1.226524e+003,-2.451889e-004
1.228453e+003,-2.095885e-004
1.230381e+003,-2.193913e-004
1.232310e+003,-3.548531e-004
1.234238e+003,-4.826603e-004
1.236167e+003,-4.229157e-004
1.238095e+003,-1.954468e-004
1.240024e+003,-7.013910e-005
1.241952e+003,-7.371698e-005
1.243881e+003,-2.660180e-004
1.245809e+003,-3.211158e-004
1.247738e+003,-1.580869e-004
1.249666e+003,-9.940211e-008
1.251595e+003,-1.328140e-004
1.253523e+003,-2.342939e-004
1.255452e+003,-2.135957e-004
1.257380e+003,-2.728725e-004
1.259309e+003,-2.862169e-004
1.261237e+003,-2.140263e-004
1.263166e+003,-2.712499e-004
1.265094e+003,-2.983027e-004
1.267023e+003,-2.752897e-004
1.268951e+003,-2.209147e-004
1.270880e+003,-1.792844e-004
1.272808e+003,-2.705214e-004
1.274737e+003,-2.262797e-004
1.276665e+003,-2.344263e-004
1.278594e+003,-3.367432e-004
1.280522e+003,-4.095424e-004
1.282451e+003,-4.787217e-004
1.284379e+003,-3.673673e-004
1.286308e+003,-2.573752e-004
1.288236e+003,-2.757533e-004
1.290165e+003,-2.637331e-004
1.292093e+003,-2.419105e-004
1.294022e+003,-2.617794e-004
1.295950e+003,-2.839653e-004
1.297879e+003,-3.183677e-004
1.299807e+003,-2.364464e-004
1.301736e+003,-1.464278e-004
1.303664e+003,-2.753228e-004
1.305593e+003,-4.501907e-004
1.307521e+003,-1.418237e-004
1.309450e+003,1.335507e-004
1.311378e+003,-1.525555e-004
1.313307e+003,-3.297242e-004
1.315235e+003,-1.748131e-004
1.317164e+003,-1.368220e-004
1.319092e+003,-2.685015e-004
1.321021e+003,-2.686671e-004
1.322949e+003,-3.017131e-004
1.324878e+003,-4.522429e-004
1.326806e+003,-4.622719e-004
1.328735e+003,-3.356506e-004
1.330663e+003,-3.407493e-004
1.332592e+003,-3.293600e-004
1.334520e+003,-3.139309e-004
1.336449e+003,-2.195569e-004
1.338377e+003,-6.039915e-005
1.340306e+003,-7.388262e-005
1.342234e+003,-3.252213e-004
1.344163e+003,-4.150705e-004
1.346091e+003,-4.325482e-004
1.348020e+003,-2.500238e-004
1.349948e+003,-2.242595e-004
1.351877e+003,-3.424047e-004
1.353805e+003,-2.830381e-004
1.355734e+003,-1.933935e-004
1.357662e+003,-2.151523e-004
1.359591e+003,-2.416125e-004
1.361519e+003,-8.127019e-005
1.363448e+003,1.285620e-005
1.365376e+003,-2.010439e-004
1.367305e+003,-2.435663e-004
1.369233e+003,-2.968127e-004
1.371162e+003,-2.963491e-004
1.373090e+003,-2.289502e-005
1.375019e+003,9.642113e-006
1.376947e+003,-1.846830e-004
1.378876e+003,-2.139269e-004
1.380804e+003,-3.093948e-004
1.382733e+003,-3.563098e-004
1.384661e+003,-1.974009e-004
1.386590e+003,1.215195e-004
1.388518e+003,2.667372e-005
1.390447e+003,-3.303201e-004
1.392375e+003,-3.009516e-004
1.394304e+003,7.144287e-005
1.396232e+003,-1.683177e-005
1.398161e+003,1.325382e-005
1.400089e+003,-1.103349e-005
1.402018e+003,-9.130781e-005
1.403946e+003,-5.152038e-005
1.405875e+003,-1.731571e-004
1.407803e+003,-3.579982e-004
1.409732e+003,-3.718366e-004
1.411660e+003,-3.122754e-004
1.413589e+003,-2.487985e-004
1.415517e+003,-1.090636e-004
1.417446e+003,4.103933e-004
1.419374e+003,7.524960e-004
1.421303e+003,2.383323e-004
1.423231e+003,6.229647e-005
1.425160e+003,3.578624e-005
1.427088e+003,-9.432236e-005
1.429017e+003,-1.158874e-004
1.430945e+003,-3.079711e-004
1.432874e+003,-2.535008e-004
1.434802e+003,2.743371e-004
1.436731e+003,6.729765e-004
1.438659e+003,1.107149e-004
1.440588e+003,-1.919362e-004
1.442516e+003,-1.779596e-004
1.444445e+003,-2.102508e-004
1.446373e+003,-1.169805e-004
1.448302e+003,-3.856631e-005
1.450230e+003,-1.704081e-004
1.452159e+003,-1.861403e-004
1.454087e+003,1.535040e-004
1.456016e+003,1.280196e-003
1.457944e+003,1.416967e-003
1.459873e+003,3.430396e-004
1.461801e+003,-1.917706e-004
1.463730e+003,4.513091e-005
1.465658e+003,4.851094e-005
1.467587e+003,-2.685015e-004
1.469515e+003,-1.096929e-004
1.471444e+003,5.192888e-004
1.473372e+003,7.983359e-004
1.475301e+003,4.905945e-004
1.477229e+003,1.451514e-004
1.479158e+003,-2.059124e-004
1.481086e+003,-7.212682e-005
1.483015e+003,-1.446391e-004
1.484943e+003,-1.903134e-004
1.486872e+003,1.361028e-004
1.488800e+003,4.651195e-004
1.490729e+003,5.363404e-004
1.492657e+003,1.791264e-004
1.494586e+003,2.329948e-004
1.496514e+003,5.758868e-004
1.498443e+003,4.696638e-004
1.500371e+003,9.947978e-005
1.502300e+003,-2.345827e-005
1.504228e+003,6.322931e-004
1.506157e+003,1.888100e-003
1.508085e+003,1.443329e-003
1.510014e+003,4.252184e-004
1.511942e+003,1.527416e-004
1.513871e+003,1.854245e-004
1.515799e+003,5.595303e-004
1.517728e+003,6.665717e-004
1.519656e+003,8.294408e-004
1.521585e+003,1.154299e-003
1.523513e+003,6.915275e-004
1.525442e+003,6.473913e-004
1.527370e+003,4.513212e-004
1.529299e+003,1.251653e-004
1.531227e+003,1.195972e-004
1.533156e+003,5.827878e-004
1.535084e+003,3.319974e-004
1.537013e+003,3.383640e-004
1.538941e+003,1.562859e-003
1.540870e+003,1.942014e-003
1.542798e+003,1.217559e-003
1.544727e+003,6.627223e-004
1.546655e+003,7.157542e-005
1.548584e+003,4.380541e-005
1.550512e+003,1.413065e-004
1.552441e+003,2.319671e-004
1.554369e+003,5.192556e-004
1.556298e+003,1.004459e-003
1.558226e+003,2.249987e-003
1.560155e+003,1.730655e-003
1.562083e+003,3.903950e-004
1.564012e+003,1.079310e-004
1.565940e+003,-2.412091e-005
1.567869e+003,1.455491e-004
1.569797e+003,5.904522e-004
1.571726e+003,1.201607e-004
1.573654e+003,-1.146618e-004
1.575583e+003,5.774461e-004
1.577511e+003,4.490326e-004
1.579440e+003,-1.338740e-004
1.581368e+003,-2.026336e-004
1.583297e+003,-3.664404e-004
1.585225e+003,-2.662829e-004
1.587154e+003,-2.350886e-004
1.589082e+003,-3.613089e-004
1.591010e+003,-4.385064e-004
1.592939e+003,-3.583293e-004
1.594868e+003,-3.460466e-004
1.596796e+003,-4.101382e-004
1.598724e+003,-4.091120e-004
1.600653e+003,-3.388621e-004
1.602582e+003,-3.239632e-004
1.604510e+003,-3.066798e-004
1.606438e+003,-2.258160e-004
1.608367e+003,-1.479514e-004
1.610296e+003,-2.052169e-004
1.612224e+003,-3.487945e-004
1.614152e+003,-1.124424e-004
1.616081e+003,6.722464e-004
1.618010e+003,4.322166e-004
1.619938e+003,-1.800131e-004
1.621866e+003,8.788036e-005
1.623795e+003,2.185408e-004
1.625724e+003,-1.792515e-005
1.627652e+003,-4.535813e-005
1.629580e+003,-1.676590e-004
1.631509e+003,-3.133018e-004
1.633438e+003,1.707401e-004
1.635366e+003,1.031162e-003
1.637294e+003,7.307893e-004
1.639223e+003,7.793825e-005
1.641151e+003,-1.452022e-004
1.643080e+003,-1.309591e-004
1.645008e+003,5.339850e-004
1.646937e+003,1.013493e-003
1.648865e+003,3.430396e-004
1.650794e+003,5.580374e-004
1.652722e+003,2.244658e-003
1.654651e+003,1.471089e-003
1.656579e+003,1.502889e-004
1.658508e+003,-1.474877e-004
1.660436e+003,-6.818450e-005
1.662365e+003,1.959326e-004
1.664293e+003,1.047048e-005
1.666222e+003,-1.709049e-004
1.668150e+003,4.499282e-004
1.670079e+003,8.294075e-004
1.672007e+003,3.305384e-004
1.673936e+003,4.458817e-004
1.675864e+003,5.828874e-004
1.677793e+003,1.951639e-005
1.679721e+003,-3.863257e-005
1.681650e+003,3.039455e-004
1.683578e+003,1.323666e-003
1.685507e+003,1.164498e-003
1.687435e+003,4.022678e-004
1.689364e+003,1.701435e-004
1.691292e+003,-8.448358e-005
1.693221e+003,4.251305e-005
1.695149e+003,8.960066e-004
1.697078e+003,8.683830e-004
1.699006e+003,1.200647e-003
1.700935e+003,1.459353e-003
1.702863e+003,4.372580e-004
1.704792e+003,3.817393e-004
1.706720e+003,2.249721e-004
1.708649e+003,-1.205580e-004
1.710577e+003,-3.119774e-004
1.712506e+003,-1.322178e-004
1.714434e+003,3.506334e-004
1.716363e+003,9.848323e-004
1.718291e+003,9.282142e-004
1.720220e+003,1.983194e-004
1.722148e+003,-1.105873e-004
1.724077e+003,-1.677584e-004
1.726005e+003,-2.027330e-004
1.727934e+003,-5.238176e-005
1.729862e+003,8.913971e-005
1.731791e+003,4.826334e-004
1.733719e+003,1.193204e-003
1.735648e+003,5.908503e-004
1.737576e+003,3.412940e-005
1.739505e+003,3.733491e-004
1.741433e+003,2.246406e-004
1.743362e+003,7.343124e-005
1.745290e+003,3.972953e-005
1.747219e+003,2.179773e-004
1.749147e+003,4.920209e-004
1.751076e+003,6.517715e-004
1.753004e+003,1.319929e-004
1.754933e+003,-5.688742e-005
1.756861e+003,1.295734e-004
1.758790e+003,-5.778192e-005
1.760718e+003,1.388207e-004
1.762647e+003,2.050155e-004
1.764575e+003,-2.066741e-004
1.766504e+003,-8.282720e-005
1.768432e+003,1.542664e-004
1.770361e+003,3.430065e-004
1.772289e+003,6.464621e-004
1.774218e+003,2.721157e-004
1.776146e+003,-1.093410e-005
1.778075e+003,-7.070228e-005
1.780003e+003,-1.323503e-004
1.781932e+003,-2.915479e-004
1.783860e+003,-2.774752e-004
1.785789e+003,-2.534677e-004
1.787717e+003,-2.776076e-004
1.789646e+003,-6.122739e-005
1.791574e+003,3.976579e-004
1.793503e+003,3.596201e-004
1.795431e+003,-5.602605e-005
1.797360e+003,-1.483489e-004
1.799288e+003,-8.511301e-005
1.801217e+003,-8.998273e-005
1.803145e+003,-2.552559e-004
1.805074e+003,-2.350886e-004
1.807002e+003,-1.589480e-004
1.808931e+003,-1.047241e-004
1.810859e+003,-1.278454e-004
1.812788e+003,-2.665809e-004
1.814716e+003,-3.514430e-004
1.816645e+003,-3.109841e-004
1.818573e+003,-3.048256e-004
1.820502e+003,-2.649915e-004
1.822430e+003,-2.138276e-004
1.824359e+003,1.683242e-005
1.826287e+003,4.778191e-005
1.828216e+003,1.240053e-004
1.830144e+003,1.925183e-004
1.832073e+003,-2.034285e-004
1.834001e+003,-4.151036e-004
1.835930e+003,-3.466425e-004
1.837858e+003,-2.992960e-004
1.839787e+003,-3.258835e-004
1.841715e+003,-2.266108e-004
1.843644e+003,1.806844e-004
1.845572e+003,3.293648e-005
1.847501e+003,-3.242943e-004
1.849429e+003,-3.833573e-004
1.851358e+003,-2.617794e-004
1.853286e+003,-1.499057e-004
1.855215e+003,-1.341721e-004
1.857143e+003,-1.740182e-004
1.859072e+003,-2.674750e-004
1.861000e+003,-2.702565e-004
1.862929e+003,-2.590971e-004
1.864857e+003,-1.790526e-004
1.866786e+003,-2.054262e-005
1.868714e+003,1.530068e-004
1.870643e+003,-9.028088e-005
1.872571e+003,-3.383655e-004
1.874500e+003,-2.771110e-004
1.876428e+003,-2.094229e-004
1.878357e+003,-2.673756e-004
1.880285e+003,-3.438945e-004
1.882214e+003,-3.834235e-004
1.884142e+003,-3.653479e-004
1.886071e+003,-3.036004e-004
1.887999e+003,-2.227693e-004
1.889928e+003,-1.866040e-004
1.891856e+003,-3.621366e-004
1.893785e+003,-3.265126e-004
1.895713e+003,-2.968127e-004
1.897642e+003,-3.103219e-004
1.899570e+003,-3.224733e-004
1.901499e+003,-2.888328e-004
1.903427e+003,-2.493283e-004
1.905356e+003,-2.772103e-004
1.907284e+003,-2.891639e-004
1.909213e+003,-2.872765e-004
1.911141e+003,-2.768461e-004
1.913070e+003,-2.946935e-004
1.914998e+003,-2.204511e-004
1.916927e+003,1.312128e-005
1.918855e+003,3.837091e-005
1.920784e+003,-1.266530e-004
1.922712e+003,-1.403994e-004
1.924641e+003,-2.182322e-004
1.926569e+003,-1.467590e-004
1.928498e+003,-2.237959e-004
1.930426e+003,-2.850249e-004
1.932355e+003,-3.499863e-004
1.934283e+003,-4.112306e-004
1.936212e+003,-3.633946e-004
1.938140e+003,-3.089313e-004
1.940069e+003,-2.398904e-004
1.941997e+003,-5.533032e-005
1.943926e+003,-4.870431e-005
1.945854e+003,-2.448247e-004
1.947783e+003,-3.101564e-004
1.949711e+003,-2.886341e-004
1.951640e+003,-2.466791e-004
1.953568e+003,-2.365789e-004
1.955497e+003,-3.061831e-004
1.957425e+003,-3.447553e-004
1.959354e+003,-2.271738e-004
1.961282e+003,-1.706730e-004
1.963211e+003,-2.292933e-004
1.965139e+003,-2.441292e-004
1.967068e+003,-1.906777e-004
1.968996e+003,-3.208178e-004
1.970925e+003,-3.588259e-004
1.972853e+003,-2.494277e-004
1.974782e+003,-1.944533e-004
1.976710e+003,-2.211797e-004
1.978639e+003,-2.287634e-004
1.980567e+003,-3.212151e-004
1.982496e+003,-3.492249e-004
1.984424e+003,-2.662829e-004
1.986353e+003,-2.054818e-004
1.988281e+003,-2.745281e-004
1.990210e+003,-2.889321e-004
1.992138e+003,-2.421092e-004
1.994067e+003,-2.463149e-004
1.995995e+003,-3.035342e-004
1.997924e+003,-3.095273e-004
1.999852e+003,-2.903559e-004
2.001781e+003,-3.172088e-004
2.003709e+003,-2.785017e-004
2.005638e+003,-2.315783e-004
2.007566e+003,-1.744819e-004
2.009495e+003,-1.795163e-004
2.011423e+003,-2.685015e-004
2.013352e+003,-2.247894e-004
2.015280e+003,-1.465934e-004
2.017208e+003,-1.523898e-004
2.019137e+003,-1.950825e-004
2.021066e+003,-2.388970e-004
2.022994e+003,-2.811507e-004
2.024922e+003,-2.553221e-004
2.026851e+003,-1.559008e-004
2.028780e+003,-1.465934e-004
2.030708e+003,-1.783570e-004
2.032636e+003,-1.862728e-004
2.034565e+003,-2.612165e-004
2.036494e+003,-3.344587e-004
2.038422e+003,-3.144607e-004
2.040350e+003,-2.368438e-004
2.042279e+003,-2.167088e-004
2.044208e+003,-2.650908e-004
2.046136e+003,-3.169771e-004
2.048064e+003,-3.085008e-004
2.049993e+003,-2.998589e-004
2.051921e+003,-2.932366e-004
2.053850e+003,-2.252530e-004
2.055778e+003,-2.433014e-004
2.057707e+003,-2.521100e-004
2.059635e+003,-2.267433e-004
2.061564e+003,-2.196231e-004
2.063492e+003,-3.425371e-004
2.065421e+003,-3.445567e-004
2.067349e+003,-2.170731e-004
2.069278e+003,-2.538651e-004
2.071206e+003,-2.592627e-004
2.073135e+003,-1.783570e-004
2.075063e+003,-2.172718e-004
2.076992e+003,-2.062767e-004
2.078920e+003,-2.172718e-004
2.080849e+003,-2.129334e-004
2.082777e+003,-2.181660e-004
2.084706e+003,-2.260810e-004
2.086634e+003,-2.954551e-004
2.088563e+003,-3.720684e-004
2.090491e+003,-2.958855e-004
2.092420e+003,-2.589316e-004
2.094348e+003,-2.525736e-004
2.096277e+003,-2.898923e-004
2.098205e+003,-3.357168e-004
2.100134e+003,-3.360148e-004
2.102062e+003,-3.041965e-004
2.103991e+003,-3.336972e-004
2.105919e+003,-3.466425e-004
2.107848e+003,-2.663491e-004
2.109776e+003,-2.949915e-004
2.111705e+003,-3.168446e-004
2.113633e+003,-2.259816e-004
2.115562e+003,-1.934928e-004
2.117490e+003,-2.448578e-004
2.119419e+003,-1.991562e-004
2.121347e+003,-1.660029e-004
2.123276e+003,-2.601899e-004
2.125204e+003,-2.676737e-004
2.127133e+003,-2.383340e-004
2.129061e+003,-1.366564e-004
2.130990e+003,-7.944816e-005
2.132918e+003,-1.500713e-004
2.134847e+003,-2.240608e-004
2.136775e+003,-2.940644e-004
2.138704e+003,-3.095935e-004
2.140632e+003,-2.548585e-004
2.142561e+003,-2.466791e-004
2.144489e+003,-3.119112e-004
2.146418e+003,-3.676322e-004
2.148346e+003,-3.265126e-004
2.150275e+003,-2.781706e-004
2.152203e+003,-1.962748e-004
2.154132e+003,-2.137282e-004
2.156060e+003,-3.506154e-004
2.157989e+003,-3.672680e-004
2.159917e+003,-2.768461e-004
2.161846e+003,-2.781374e-004
2.163774e+003,-3.243274e-004
2.165703e+003,-3.283667e-004
2.167631e+003,-2.712168e-004
2.169560e+003,-1.989243e-004
2.171488e+003,-2.036603e-004
2.173417e+003,-2.251868e-004
2.175345e+003,-1.675596e-004
2.177274e+003,-1.161524e-004
2.179202e+003,-1.096267e-004
2.181131e+003,-1.316216e-004
2.183059e+003,-1.767010e-004
2.184988e+003,-1.728259e-004
2.186916e+003,-1.377495e-004
2.188845e+003,-2.048195e-004
2.190773e+003,-3.449871e-004
2.192702e+003,-3.547869e-004
2.194630e+003,-2.523749e-004
2.196559e+003,-1.870014e-004
2.198487e+003,-1.143968e-004
2.200416e+003,-1.615978e-004
2.202344e+003,-2.340620e-004
2.204273e+003,-2.259154e-004
2.206201e+003,-2.197556e-004
2.208130e+003,-2.415131e-004
2.210058e+003,-2.169075e-004
2.211987e+003,-2.198218e-004
2.213915e+003,-2.655544e-004
2.215844e+003,-2.400891e-004
2.217772e+003,-1.763367e-004
2.219701e+003,-1.397038e-004
2.221629e+003,-2.166757e-004
2.223558e+003,-3.291613e-004
2.225486e+003,-2.820778e-004
2.227415e+003,-2.359497e-004
2.229343e+003,-1.932279e-004
2.231272e+003,-1.655392e-004
2.233200e+003,-8.143584e-005
2.235129e+003,-7.056977e-005
2.237057e+003,-2.183316e-004
2.238986e+003,-2.639649e-004
2.240914e+003,-2.016732e-004
2.242843e+003,-2.431027e-004
2.244771e+003,-2.727400e-004
2.246700e+003,-2.424735e-004
2.248628e+003,-1.634526e-004
2.250557e+003,-2.644285e-004
2.252485e+003,-3.623021e-004
2.254414e+003,-2.992960e-004
2.256342e+003,-2.225706e-004
2.258271e+003,-1.684870e-004
2.260199e+003,-1.375507e-004
2.262128e+003,-1.564639e-004
2.264056e+003,-2.331679e-004
2.265985e+003,-2.512821e-004
2.267913e+003,-1.803443e-004
2.269842e+003,-1.109849e-004
2.271770e+003,-1.486801e-004
2.273699e+003,-2.456525e-004
2.275627e+003,-2.031635e-004
2.277556e+003,-1.463284e-004
2.279484e+003,-1.192662e-004
2.281413e+003,-5.798070e-005
2.283341e+003,-1.078379e-004
2.285270e+003,-1.667647e-004
2.287198e+003,-2.234316e-004
2.289127e+003,-1.796156e-004
2.291055e+003,-1.088648e-004
2.292984e+003,-1.160199e-004
2.294912e+003,-1.456659e-004
2.296841e+003,-7.060290e-005
2.298769e+003,1.504311e-005
2.300698e+003,-2.024443e-005
2.302626e+003,6.660452e-005
2.304555e+003,1.433615e-004
2.306483e+003,1.163823e-004
2.308412e+003,-1.093410e-005
2.310340e+003,2.455302e-005
2.312269e+003,2.507314e-004
2.314197e+003,4.333111e-004
2.316125e+003,5.754555e-004
2.318054e+003,6.109573e-004
2.319983e+003,6.793813e-004
2.321911e+003,8.433507e-004
2.323840e+003,1.011533e-003
2.325768e+003,1.102044e-003
2.327697e+003,1.228125e-003
2.329625e+003,1.501610e-003
2.331553e+003,1.533164e-003
2.333482e+003,1.465038e-003
2.335411e+003,1.617398e-003
2.337339e+003,1.729590e-003
2.339268e+003,1.677632e-003
2.341196e+003,1.595016e-003
2.343125e+003,1.502408e-003
2.345053e+003,1.258031e-003
2.346981e+003,8.600166e-004
2.348910e+003,5.629144e-004
2.350839e+003,7.794815e-004
2.352767e+003,1.354609e-003
2.354696e+003,1.699685e-003
2.356624e+003,1.910197e-003
2.358552e+003,2.119646e-003
2.360481e+003,2.194802e-003
2.362409e+003,2.152411e-003
2.364338e+003,2.055323e-003
2.366267e+003,1.954961e-003
2.368195e+003,1.793200e-003
2.370124e+003,1.543040e-003
2.372052e+003,1.210315e-003
2.373980e+003,9.931015e-004
2.375909e+003,6.913284e-004
2.377838e+003,3.272556e-004
2.379766e+003,-7.554495e-006
2.381695e+003,-1.395382e-004
2.383623e+003,-1.215518e-004
2.385552e+003,-1.005833e-004
2.387480e+003,-5.887520e-005
2.389408e+003,-1.590431e-006
2.391337e+003,-3.919580e-005
2.393266e+003,-1.568282e-004
2.395194e+003,-7.991195e-005
2.397123e+003,3.114611e-006
2.399051e+003,-4.217758e-005
2.400979e+003,-1.135686e-004
2.402908e+003,-1.007489e-004
2.404836e+003,-4.833987e-005
2.406765e+003,-8.918768e-005
2.408694e+003,-1.304954e-004
2.410622e+003,-6.039915e-005
2.412551e+003,-3.230449e-005
2.414479e+003,-2.574439e-005
2.416407e+003,-3.581642e-005
2.418336e+003,-2.879252e-005
2.420264e+003,-7.802365e-005
2.422193e+003,-1.961092e-004
2.424122e+003,-2.189939e-004
2.426050e+003,-1.175437e-004
2.427979e+003,-9.432236e-005
2.429907e+003,-7.765924e-005
2.431835e+003,-4.658396e-005
2.433764e+003,-3.671096e-005
2.435692e+003,-4.737909e-005
2.437621e+003,-4.621952e-005
2.439550e+003,-6.523602e-005
2.441478e+003,-7.858683e-005
2.443406e+003,-8.905517e-005
2.445335e+003,-3.707541e-005
2.447263e+003,-1.885286e-005
2.449192e+003,-3.402733e-005
2.451121e+003,-1.047572e-004
2.453049e+003,-1.085004e-004
2.454978e+003,-5.367383e-005
2.456906e+003,-9.940201e-007
2.458834e+003,5.351477e-005
2.460763e+003,3.545487e-005
2.462691e+003,-1.005833e-004
2.464620e+003,-1.654399e-004
2.466549e+003,-8.372165e-005
2.468477e+003,-2.541306e-005
2.470406e+003,-7.557217e-005
2.472334e+003,-9.949012e-005
2.474262e+003,-8.650436e-005
2.476191e+003,-1.462953e-004
2.478119e+003,-9.922512e-005
2.480048e+003,-4.058730e-005
2.481977e+003,-7.186179e-005
2.483905e+003,-1.211874e-004
2.485833e+003,-1.219161e-004
2.487762e+003,-6.003473e-005
2.489690e+003,-9.028088e-005
2.491619e+003,-1.003183e-004
2.493547e+003,-1.703056e-005
2.495476e+003,1.069036e-004
2.497405e+003,1.049813e-004
2.499333e+003,-3.177438e-005
2.501261e+003,-1.187030e-004
2.503190e+003,-1.509987e-004
2.505118e+003,-1.341059e-004
2.507047e+003,-2.015407e-004
2.508975e+003,-2.152185e-004
2.510904e+003,-2.002491e-004
2.512833e+003,-1.709049e-004
2.514761e+003,-1.916050e-004
2.516689e+003,-1.522242e-004
2.518618e+003,9.907190e-006
2.520546e+003,2.041105e-005
2.522475e+003,-6.811824e-005
2.524403e+003,-8.494737e-005
2.526332e+003,-1.102230e-004
2.528260e+003,-4.383412e-005
2.530189e+003,-1.746129e-005
2.532117e+003,-1.476864e-004
2.534046e+003,-2.176030e-004
2.535974e+003,-1.652743e-004
2.537903e+003,-1.631545e-004
2.539831e+003,-1.070429e-004
2.541760e+003,-1.269180e-004
2.543688e+003,-1.905165e-005
2.545617e+003,6.309179e-005
2.547545e+003,1.732945e-005
2.549474e+003,-3.266893e-005
2.551402e+003,-1.259905e-004
2.553331e+003,-1.516612e-004
2.555259e+003,-5.642360e-005
2.557188e+003,2.978852e-005
2.559116e+003,-5.500216e-006
2.561045e+003,-4.771276e-006
2.562973e+003,-1.065791e-004
2.564902e+003,-1.161524e-004
2.566830e+003,-3.369601e-005
2.568759e+003,-1.129393e-004
2.570687e+003,-1.155562e-004
2.572616e+003,4.327521e-005
2.574544e+003,8.966996e-005
2.576473e+003,-4.804409e-006
2.578401e+003,-6.987407e-005
2.580330e+003,-1.498063e-004
2.582258e+003,-1.181399e-004
2.584187e+003,5.798844e-005
2.586115e+003,1.408219e-005
2.588044e+003,-1.288392e-004
2.589972e+003,-7.388262e-005
2.591901e+003,2.756840e-005
2.593829e+003,-2.279562e-005
2.595758e+003,-1.589149e-004
2.597686e+003,-2.533021e-004
2.599615e+003,-2.312471e-004
2.601543e+003,-1.153243e-004
2.603472e+003,-9.312980e-005
2.605400e+003,-6.255256e-005
2.607329e+003,-4.426482e-005
2.609257e+003,-6.205562e-005
2.611186e+003,-6.301637e-005
2.613114e+003,-3.167499e-005
2.615043e+003,1.789242e-006
2.616971e+003,-4.250889e-005
2.618900e+003,-2.657269e-005
2.620828e+003,4.334149e-005
2.622757e+003,5.590072e-005
2.624685e+003,-5.152038e-005
2.626614e+003,-1.761048e-004
2.628542e+003,-1.306941e-004
2.630471e+003,-1.178749e-004
2.632399e+003,-1.255267e-004
2.634328e+003,-7.739422e-005
2.636256e+003,-2.988588e-005
2.638185e+003,5.016783e-005
2.640113e+003,6.096706e-006
2.642042e+003,-1.423868e-004
2.643970e+003,-1.251624e-004
2.645899e+003,-5.268280e-006
2.647827e+003,6.574291e-005
2.649756e+003,9.788898e-005
2.651684e+003,3.890110e-005
2.653613e+003,-1.232569e-005
2.655541e+003,1.139826e-005
2.657470e+003,-6.109487e-005
2.659398e+003,-5.963718e-005
2.661327e+003,4.367286e-005
2.663255e+003,1.438041e-005
2.665184e+003,-5.072525e-005
2.667112e+003,4.884232e-005
2.669041e+003,1.340147e-004
2.670969e+003,3.943130e-005
2.672898e+003,-2.292815e-005
2.674826e+003,-5.334547e-006
2.676755e+003,8.648070e-006
2.678683e+003,7.687166e-006
2.680612e+003,5.484030e-005
2.682540e+003,1.054122e-004
2.684469e+003,5.835296e-005
2.686397e+003,7.620836e-007
2.688326e+003,1.047048e-005
2.690254e+003,8.479829e-005
2.692183e+003,6.246215e-005
2.694111e+003,-3.247014e-005
2.696040e+003,-9.826444e-005
2.697968e+003,-7.815617e-005
2.699897e+003,-1.590431e-006
2.701825e+003,2.094122e-005
2.703754e+003,-2.478355e-005
2.705682e+003,-6.202250e-005
2.707611e+003,-1.160199e-004
2.709539e+003,-1.331784e-004
2.711468e+003,-1.224130e-004
2.713396e+003,-8.716691e-005
2.715325e+003,1.898622e-005
2.717253e+003,2.316131e-005
2.719182e+003,4.238050e-005
2.721110e+003,6.637255e-005
2.723039e+003,5.659663e-005
2.724967e+003,6.312493e-005
2.726896e+003,9.059791e-005
2.728824e+003,2.382403e-005
2.730753e+003,-6.715750e-005
2.732681e+003,-3.425925e-005
2.734610e+003,1.537447e-005
2.736538e+003,-1.189496e-005
2.738467e+003,5.301450e-007
2.740395e+003,1.650106e-005
2.742324e+003,5.732227e-006
2.744252e+003,-5.218298e-005
2.746181e+003,-2.365706e-005
2.748109e+003,-2.945516e-005
2.750038e+003,-3.194004e-005
2.751966e+003,1.653420e-005
2.753895e+003,2.902639e-005
2.755823e+003,6.454990e-005
2.757752e+003,-1.013890e-005
2.759680e+003,-1.049891e-004
2.761609e+003,1.030481e-005
2.763537e+003,2.365752e-004
2.765466e+003,1.532057e-004
2.767394e+003,4.728485e-005
2.769323e+003,8.052318e-005
2.771251e+003,1.731930e-004
2.773180e+003,1.317941e-004
2.775108e+003,3.167730e-005
2.777037e+003,3.744308e-005
2.778965e+003,-1.766008e-005
2.780894e+003,-3.256954e-005
2.782822e+003,1.298717e-004
2.784750e+003,1.428312e-004
2.786679e+003,1.951639e-005
2.788608e+003,6.063572e-006
2.790536e+003,3.002048e-005
2.792465e+003,1.081298e-004
2.794393e+003,1.284797e-004
2.796322e+003,1.108806e-004
2.798250e+003,5.974478e-005
2.800178e+003,-1.023830e-005
2.802107e+003,1.143139e-005
2.804036e+003,4.284443e-005
2.805964e+003,-2.418778e-006
2.807893e+003,5.248749e-005
2.809821e+003,4.456757e-005
2.811750e+003,-1.086783e-005
2.813678e+003,-6.941026e-005
2.815606e+003,-5.486650e-005
2.817535e+003,-7.305441e-005
2.819464e+003,-9.518366e-005
2.821392e+003,-4.714718e-005
2.823321e+003,5.338222e-005
2.825249e+003,8.476515e-005
2.827177e+003,2.902639e-005
2.829106e+003,1.345263e-005
2.831034e+003,-3.866570e-005
2.832963e+003,-2.706967e-005
2.834892e+003,1.316615e-004
2.836820e+003,9.503882e-005
2.838749e+003,-3.406046e-005
2.840677e+003,-7.481022e-005
2.842605e+003,8.420175e-005
2.844534e+003,1.869493e-004
2.846462e+003,3.886797e-005
2.848391e+003,6.759396e-006
2.850320e+003,1.862173e-005
2.852248e+003,2.909266e-005
2.854177e+003,2.690567e-005
2.856105e+003,5.712684e-005
2.858033e+003,9.059791e-005
2.859962e+003,1.396162e-004
2.861890e+003,7.048182e-005
2.863819e+003,-2.690401e-005
2.865748e+003,2.253173e-005
2.867676e+003,1.815783e-005
2.869604e+003,8.416127e-006
2.871533e+003,3.068320e-005
2.873461e+003,6.985217e-005
2.875390e+003,-2.485046e-006
2.877319e+003,3.187612e-005
2.879247e+003,1.769055e-004
2.881176e+003,1.258613e-004
2.883104e+003,4.592621e-005
2.885032e+003,1.109138e-004
2.886961e+003,1.017003e-004
2.888889e+003,4.360659e-005
2.890818e+003,2.193529e-005
2.892747e+003,3.608447e-005
2.894675e+003,-6.911211e-005
2.896604e+003,-6.881395e-005
2.898532e+003,5.600014e-005
2.900460e+003,1.179732e-004
2.902389e+003,7.989351e-005
2.904317e+003,3.180984e-005
2.906246e+003,8.208077e-005
2.908175e+003,3.840405e-005
2.910103e+003,3.118025e-005
2.912031e+003,4.208227e-005
2.913960e+003,-3.117801e-005
2.915888e+003,-9.012365e-006
2.917817e+003,-3.700914e-005
2.919745e+003,1.597090e-005
2.921674e+003,1.007723e-004
2.923603e+003,2.934016e-004
2.925531e+003,3.754715e-004
2.927459e+003,2.196348e-004
2.929388e+003,9.454171e-005
2.931316e+003,3.167730e-005
2.933245e+003,5.036666e-005
2.935173e+003,6.302552e-005
2.937102e+003,-1.650044e-005
2.939031e+003,-3.442490e-005
2.940959e+003,-6.321515e-005
2.942887e+003,-8.670313e-005
2.944816e+003,-6.726158e-006
2.946744e+003,-3.976083e-007
2.948673e+003,2.915805e-006
2.950601e+003,-7.388262e-005
2.952530e+003,-1.622602e-004
2.954458e+003,-8.365540e-005
2.956387e+003,3.737681e-005
2.958315e+003,1.286122e-004
2.960244e+003,7.011729e-005
2.962172e+003,-7.455095e-006
2.964101e+003,4.324207e-005
2.966029e+003,9.729244e-005
2.967958e+003,3.694602e-005
2.969886e+003,6.295924e-005
2.971815e+003,1.020317e-004
2.973743e+003,8.151050e-006
2.975672e+003,-8.773008e-005
2.977600e+003,6.441735e-005
2.979529e+003,2.942637e-004
2.981457e+003,3.104112e-004
2.983386e+003,2.051813e-004
2.985314e+003,1.539680e-004
2.987243e+003,2.094576e-004
2.989171e+003,2.325307e-004
2.991100e+003,1.389533e-004
2.993028e+003,1.283471e-004
2.994957e+003,1.439581e-004
2.996885e+003,1.235081e-004
2.998814e+003,1.425660e-004
3.000742e+003,9.404458e-005
3.002671e+003,4.811329e-005
3.004599e+003,1.144932e-004
3.006528e+003,2.223863e-004
3.008456e+003,2.431725e-004
3.010385e+003,2.015017e-004
3.012313e+003,1.570506e-004
3.014242e+003,2.307405e-004
3.016170e+003,2.434046e-004
3.018099e+003,2.242760e-004
3.020027e+003,1.168795e-004
3.021956e+003,8.529540e-005
3.023884e+003,1.414723e-004
3.025813e+003,1.194315e-004
3.027741e+003,-1.481066e-005
3.029670e+003,9.082990e-005
3.031598e+003,2.001094e-004
3.033527e+003,1.484990e-004
3.035455e+003,1.954354e-004
3.037384e+003,2.858088e-004
3.039312e+003,2.900860e-004
3.041241e+003,1.893029e-004
3.043169e+003,7.164171e-005
3.045098e+003,9.788898e-005
3.047026e+003,1.906620e-004
3.048955e+003,2.655511e-004
3.050883e+003,2.586882e-004
3.052812e+003,1.743532e-004
3.054740e+003,1.387875e-004
3.056669e+003,1.886399e-004
3.058597e+003,1.892697e-004
3.060526e+003,5.769019e-005
3.062454e+003,1.121401e-004
3.064383e+003,1.626855e-004
3.066311e+003,1.940100e-004
3.068240e+003,3.289467e-004
3.070168e+003,1.850599e-004
3.072097e+003,-3.184065e-005
3.074025e+003,-6.991226e-006
3.075954e+003,5.994361e-005
3.077882e+003,3.532232e-005
3.079811e+003,3.628329e-005
3.081739e+003,7.210566e-005
3.083668e+003,4.963763e-005
3.085596e+003,6.394917e-006
3.087525e+003,-7.822242e-005
3.089453e+003,-1.061154e-004
3.091382e+003,8.880831e-005
3.093310e+003,3.103117e-004
3.095239e+003,3.083223e-004
3.097167e+003,1.804523e-004
3.099096e+003,1.700109e-004
3.101024e+003,1.624866e-004
3.102953e+003,8.479829e-005
3.104881e+003,7.449171e-005
3.106810e+003,1.806512e-004
3.108738e+003,2.355475e-004
3.110667e+003,2.029271e-004
3.112595e+003,1.547967e-004
3.114524e+003,1.461126e-004
3.116452e+003,1.360365e-004
3.118381e+003,1.101184e-004
3.120309e+003,9.792212e-005
3.122238e+003,1.783309e-004
3.124166e+003,2.590529e-004
3.126095e+003,2.661479e-004
3.128023e+003,1.380915e-004
3.129952e+003,1.173435e-004
3.131880e+003,1.441239e-004
3.133809e+003,1.870819e-004
3.135737e+003,3.058686e-004
3.137666e+003,3.502686e-004
3.139594e+003,2.625009e-004
3.141523e+003,2.200658e-004
3.143451e+003,2.244748e-004
3.145380e+003,2.277900e-004
3.147308e+003,7.972782e-005
3.149237e+003,2.856248e-005
3.151165e+003,2.244085e-004
3.153094e+003,3.006298e-004
3.155022e+003,2.170490e-004
3.156951e+003,1.179732e-004
3.158879e+003,1.590062e-004
3.160808e+003,2.510298e-004
3.162736e+003,3.381319e-004
3.164665e+003,2.756633e-004
3.166593e+003,7.843535e-005
3.168522e+003,2.130571e-005
3.170450e+003,1.484659e-004
3.172379e+003,2.281546e-004
3.174307e+003,1.637793e-004
3.176236e+003,2.038885e-004
3.178164e+003,2.241765e-004
3.180093e+003,2.251710e-004
3.182021e+003,1.336833e-004
3.183950e+003,1.303357e-004
3.185878e+003,1.637793e-004
3.187807e+003,2.102201e-004
3.189735e+003,2.946947e-004
3.191664e+003,2.632634e-004
3.193592e+003,2.390285e-004
3.195521e+003,3.010608e-004
3.197449e+003,3.299415e-004
3.199378e+003,2.503667e-004
3.201306e+003,1.738891e-004
3.203235e+003,1.362685e-004
3.205163e+003,1.650057e-004
3.207092e+003,1.489299e-004
3.209020e+003,1.768392e-004
3.210948e+003,1.816125e-004
3.212877e+003,1.525759e-004
3.214806e+003,1.275848e-004
3.216734e+003,6.415223e-005
3.218663e+003,1.148246e-004
3.220591e+003,1.636467e-004
3.222520e+003,2.351497e-004
3.224448e+003,1.823418e-004
3.226376e+003,7.363008e-005
3.228305e+003,1.567523e-004
3.230234e+003,3.019561e-004
3.232162e+003,3.523577e-004
3.234091e+003,3.922522e-004
3.236019e+003,2.243754e-004
3.237948e+003,5.271946e-005
3.239876e+003,1.502226e-004
3.241804e+003,2.942637e-004
3.243733e+003,2.724804e-004
3.245662e+003,2.753980e-004
3.247590e+003,3.549775e-004
3.249519e+003,3.664514e-004
3.251447e+003,2.894228e-004
3.253375e+003,6.746614e-005
3.255304e+003,1.092898e-004
3.257232e+003,3.029839e-004
3.259161e+003,3.541153e-004
3.261090e+003,4.459148e-004
3.263018e+003,3.883720e-004
3.264947e+003,2.946284e-004
3.266875e+003,1.684530e-004
3.268803e+003,1.902642e-004
3.270732e+003,2.806697e-004
3.272660e+003,2.643575e-004
3.274589e+003,2.452943e-004
3.276518e+003,2.077670e-004
3.278446e+003,1.570175e-004
3.280375e+003,3.142907e-004
3.282303e+003,3.746425e-004
3.284231e+003,4.221339e-004
3.286160e+003,3.845914e-004
3.288088e+003,3.151859e-004
3.290017e+003,2.028608e-004
3.291946e+003,2.453606e-004
3.293874e+003,3.348491e-004
3.295802e+003,1.953028e-004
3.297731e+003,1.597686e-004
3.299659e+003,3.123343e-004
3.301588e+003,3.590895e-004
3.303516e+003,2.759285e-004
3.305445e+003,1.939437e-004
3.307374e+003,3.436033e-004
3.309302e+003,3.760021e-004
3.311230e+003,3.403868e-004
3.313159e+003,4.121842e-004
3.315087e+003,3.622730e-004
3.317016e+003,3.953365e-004
3.318944e+003,4.280376e-004
3.320873e+003,3.465878e-004
3.322802e+003,3.077917e-004
3.324730e+003,3.019561e-004
3.326658e+003,3.106101e-004
3.328587e+003,3.429070e-004
3.330515e+003,3.474499e-004
3.332444e+003,2.192039e-004
3.334372e+003,2.020321e-004
3.336301e+003,2.894892e-004
3.338229e+003,3.354460e-004
3.340158e+003,2.376361e-004
3.342086e+003,2.101538e-004
3.344015e+003,2.166512e-004
3.345943e+003,2.582241e-004
3.347872e+003,2.768900e-004
3.349800e+003,1.776016e-004
3.351729e+003,1.502557e-004
3.353657e+003,1.796236e-004
3.355586e+003,1.013357e-004
3.357514e+003,3.147848e-005
3.359443e+003,1.260602e-004
3.361371e+003,1.873140e-004
3.363300e+003,2.645565e-004
3.365229e+003,4.180877e-004
3.367157e+003,3.909919e-004
3.369085e+003,1.361691e-004
3.371014e+003,1.117755e-004
3.372942e+003,3.380988e-004
3.374871e+003,3.097480e-004
3.376799e+003,3.240392e-004
3.378728e+003,2.064741e-004
3.380656e+003,1.573489e-004
3.382585e+003,2.157893e-004
3.384513e+003,3.331248e-004
3.386442e+003,3.321300e-004
3.388370e+003,2.353817e-004
3.390299e+003,2.447970e-004
3.392227e+003,4.427970e-004
3.394156e+003,3.904945e-004
3.396084e+003,3.168438e-004
3.398013e+003,2.001094e-004
3.399941e+003,1.793585e-004
3.401870e+003,1.894686e-004
3.403798e+003,1.255299e-004
3.405727e+003,2.371719e-004
3.407655e+003,3.836628e-004
3.409584e+003,4.066456e-004
3.411512e+003,2.666783e-004
3.413441e+003,9.782270e-005
3.415369e+003,1.722318e-004
3.417298e+003,4.008749e-004
3.419226e+003,4.219018e-004
3.421155e+003,4.076737e-004
3.423083e+003,2.989388e-004
3.425012e+003,3.296431e-004
3.426940e+003,3.538168e-004
3.428869e+003,3.087865e-004
3.430797e+003,2.911470e-004
3.432726e+003,2.535494e-004
3.434654e+003,3.619745e-004
3.436583e+003,2.312709e-004
3.438511e+003,1.351085e-004
3.440440e+003,3.046086e-004
3.442368e+003,2.974799e-004
3.444297e+003,2.536489e-004
3.446225e+003,3.724206e-004
3.448154e+003,4.177560e-004
3.450082e+003,4.405416e-004
3.452011e+003,3.986860e-004
3.453939e+003,3.100796e-004
3.455868e+003,3.300410e-004
3.457796e+003,3.862495e-004
3.459725e+003,3.285488e-004
3.461653e+003,3.861169e-004
3.463582e+003,5.079767e-004
3.465510e+003,4.156003e-004
3.467439e+003,2.816644e-004
3.469367e+003,3.234092e-004
3.471296e+003,4.033954e-004
3.473224e+003,4.515866e-004
3.475153e+003,4.237923e-004
3.477081e+003,3.735812e-004
3.479010e+003,3.509981e-004
3.480938e+003,2.368404e-004
3.482867e+003,1.887725e-004
3.484795e+003,4.549698e-004
3.486724e+003,5.865702e-004
3.488652e+003,5.819584e-004
3.490581e+003,4.811739e-004
3.492509e+003,3.630357e-004
3.494438e+003,3.902955e-004
3.496366e+003,5.157061e-004
3.498295e+003,5.288761e-004
3.500223e+003,5.710428e-004
3.502152e+003,5.692844e-004
3.504080e+003,5.419138e-004
3.506009e+003,5.364068e-004
3.507937e+003,4.718530e-004
3.509866e+003,3.878414e-004
3.511794e+003,3.828337e-004
3.513723e+003,2.092919e-004
3.515651e+003,2.292155e-004
3.517580e+003,4.351685e-004
3.519508e+003,5.251938e-004
3.521437e+003,4.249863e-004
3.523365e+003,3.752394e-004
3.525294e+003,2.893565e-004
3.527222e+003,3.272888e-004
3.529151e+003,4.164294e-004
3.531079e+003,3.370708e-004
3.533008e+003,3.482458e-004
3.534936e+003,5.129195e-004
3.536865e+003,3.359102e-004
3.538793e+003,9.391202e-005
3.540722e+003,1.502557e-004
3.542650e+003,2.025293e-004
3.544579e+003,3.892011e-004
3.546507e+003,6.983309e-004
3.548436e+003,6.666381e-004
3.550364e+003,5.963581e-004
3.552293e+003,6.238316e-004
3.554221e+003,4.391154e-004
3.556150e+003,3.051060e-004
3.558078e+003,4.629635e-004
3.560007e+003,3.853541e-004
3.561935e+003,2.308731e-004
3.563864e+003,4.089340e-004
3.565792e+003,7.851909e-004
3.567721e+003,7.551514e-004
3.569649e+003,4.378219e-004
3.571578e+003,4.022346e-004
3.573506e+003,3.700329e-004
3.575435e+003,3.683085e-004
3.577363e+003,4.596798e-004
3.579292e+003,4.844578e-004
3.581220e+003,4.617031e-004
3.583149e+003,4.305251e-004
3.585077e+003,5.458617e-004
3.587006e+003,8.739607e-004
3.588934e+003,7.318846e-004
3.590863e+003,4.243893e-004
3.592791e+003,4.839603e-004
3.594720e+003,4.964659e-004
3.596648e+003,4.698960e-004
3.598577e+003,3.383309e-004
3.600505e+003,4.441237e-004
3.602434e+003,4.700950e-004
3.604362e+003,3.035476e-004
3.606291e+003,3.932803e-004
3.608219e+003,7.758303e-004
3.610148e+003,8.785424e-004
3.612076e+003,7.913982e-004
3.614005e+003,5.478523e-004
3.615933e+003,5.320940e-004
3.617862e+003,8.554683e-004
3.619790e+003,7.744362e-004
3.621719e+003,2.610090e-004
3.623647e+003,8.731697e-005
3.625576e+003,3.470520e-004
3.627504e+003,1.305021e-003
3.629433e+003,1.726596e-003
3.631361e+003,7.514339e-004
3.633290e+003,3.961987e-004
3.635218e+003,3.367724e-004
3.637146e+003,4.225983e-004
3.639075e+003,5.086070e-004
3.641004e+003,3.120359e-004
3.642932e+003,1.432621e-004
3.644861e+003,3.646938e-004
3.646789e+003,9.889171e-004
3.648718e+003,1.652253e-003
3.650646e+003,1.552949e-003
3.652574e+003,6.580433e-004
3.654503e+003,6.898350e-004
3.656432e+003,9.241632e-004
3.658360e+003,4.668444e-004
3.660289e+003,2.775863e-004
3.662217e+003,2.619041e-004
3.664146e+003,2.299563e-005
3.666074e+003,2.282995e-005
3.668002e+003,5.727680e-004
3.669931e+003,1.110581e-003
3.671860e+003,9.328961e-004
3.673788e+003,1.384756e-003
3.675717e+003,1.812897e-003
3.677645e+003,9.412971e-004
3.679573e+003,4.488004e-004
3.681502e+003,3.165122e-004
3.683430e+003,2.716847e-004
3.685359e+003,3.387951e-004
3.687288e+003,9.179208e-004
3.689216e+003,1.233940e-003
3.691145e+003,9.408987e-004
3.693073e+003,5.058869e-004
3.695001e+003,2.818302e-004
3.696930e+003,4.180877e-004
3.698858e+003,4.887369e-004
3.700787e+003,8.927860e-004
3.702716e+003,7.840291e-004
3.704644e+003,3.970941e-004
3.706573e+003,4.211058e-004
3.708501e+003,5.885941e-004
3.710429e+003,1.012297e-003
3.712358e+003,1.129018e-003
3.714286e+003,3.787215e-004
3.716215e+003,1.888720e-004
3.718144e+003,5.457290e-004
3.720072e+003,6.400910e-004
3.722000e+003,5.610897e-004
3.723929e+003,5.015412e-004
3.725857e+003,3.172086e-004
3.727786e+003,8.877517e-005
3.729714e+003,3.287810e-004
3.731643e+003,8.397652e-004
3.733572e+003,1.274381e-003
3.735500e+003,1.640213e-003
3.737428e+003,9.334606e-004
3.739357e+003,3.751731e-004
3.741285e+003,5.730335e-004
3.743214e+003,1.538185e-003
3.745142e+003,1.686313e-003
3.747071e+003,9.788547e-004
3.749000e+003,1.456893e-003
3.750928e+003,1.654615e-003
3.752856e+003,1.171508e-003
3.754785e+003,5.247293e-004
3.756713e+003,4.003111e-004
3.758642e+003,4.147711e-004
3.760570e+003,5.855085e-004
3.762499e+003,2.773874e-004
3.764427e+003,1.752481e-004
3.766356e+003,2.485101e-004
3.768284e+003,3.320637e-004
3.770213e+003,5.556818e-004
3.772141e+003,3.212871e-004
3.774070e+003,1.481676e-004
3.775998e+003,2.110488e-004
3.777927e+003,4.539416e-004
3.779855e+003,5.890587e-004
3.781784e+003,2.053802e-004
3.783712e+003,2.905953e-005
3.785641e+003,2.445981e-004
3.787569e+003,1.602326e-004
3.789498e+003,-1.049228e-004
3.791426e+003,-1.146618e-004
3.793355e+003,5.427695e-005
3.795283e+003,4.065461e-004
3.797212e+003,4.257823e-004
3.799140e+003,6.444048e-004
3.801069e+003,1.102044e-003
3.802997e+003,4.612387e-004
3.804926e+003,4.959351e-004
3.806854e+003,1.032357e-003
3.808783e+003,3.843261e-004
3.810711e+003,-3.389480e-005
3.812640e+003,-7.289428e-006
3.814568e+003,3.559060e-004
3.816497e+003,7.185757e-004
3.818425e+003,7.751664e-004
3.820354e+003,1.413044e-003
3.822282e+003,1.155860e-003
3.824211e+003,4.870452e-004
3.826139e+003,4.155007e-004
3.828068e+003,2.451617e-004
3.829996e+003,4.090003e-004
3.831925e+003,5.055883e-004
3.833853e+003,4.608075e-004
3.835782e+003,6.345163e-004
3.837710e+003,1.043185e-003
3.839639e+003,7.245165e-004
3.841567e+003,5.114599e-004
3.843496e+003,4.378219e-004
3.845424e+003,-5.798070e-005
3.847353e+003,-5.723115e-004
3.849281e+003,-1.963411e-004
3.851210e+003,1.074706e-003
3.853138e+003,2.149680e-003
3.855067e+003,1.534827e-003
3.856995e+003,4.684365e-004
3.858924e+003,7.936328e-005
3.860852e+003,3.025860e-004
3.862781e+003,8.546383e-004
3.864709e+003,9.127409e-004
3.866638e+003,1.541338e-004
3.868566e+003,4.926511e-004
3.870495e+003,9.116121e-004
3.872423e+003,7.424059e-004
3.874352e+003,6.342176e-004
3.876280e+003,3.446645e-004
3.878209e+003,3.475494e-004
3.880137e+003,3.040118e-004
3.882066e+003,6.123602e-005
3.883994e+003,2.872346e-004
3.885923e+003,6.149058e-004
3.887851e+003,2.811339e-004
3.889780e+003,3.888031e-004
3.891708e+003,3.876756e-004
3.893637e+003,1.640166e-005
3.895565e+003,-1.782577e-004
3.897494e+003,-8.117764e-006
3.899422e+003,3.499038e-004
3.901351e+003,4.471089e-004
3.903279e+003,5.904853e-004
3.905208e+003,4.600446e-004
3.907136e+003,-2.418717e-005
3.909065e+003,-1.052541e-004
3.910993e+003,-1.010471e-004
3.912922e+003,-1.407306e-004
3.914850e+003,4.622445e-005
3.916779e+003,2.836206e-004
3.918707e+003,2.394926e-004
3.920636e+003,2.915805e-006
3.922564e+003,-2.070828e-005
3.924493e+003,7.084636e-005
3.926421e+003,-1.025046e-004
3.928350e+003,-1.666322e-004
3.930278e+003,-3.628026e-005
3.932207e+003,8.453316e-005
3.934135e+003,-2.153659e-005
3.936064e+003,-2.319757e-004
3.937992e+003,-2.672101e-004
3.939921e+003,-4.582196e-005
3.941849e+003,3.591878e-005
3.943778e+003,-2.324062e-004
3.945706e+003,-2.946273e-004
3.947635e+003,-1.017758e-004
3.949563e+003,-5.145411e-005
3.951492e+003,-2.027992e-004
3.953420e+003,-3.731278e-004
3.955349e+003,-4.096748e-004
3.957277e+003,-3.335979e-004
3.959206e+003,-3.899120e-004
3.961134e+003,-4.748493e-004
3.963063e+003,-3.342270e-004
3.964991e+003,-1.296673e-004
3.966920e+003,6.421852e-005
3.968848e+003,8.569308e-005
3.970777e+003,-1.601073e-004
3.972705e+003,-1.494419e-004
3.974634e+003,-1.942546e-004
3.976562e+003,-3.379351e-004
3.978491e+003,-2.466129e-004
3.980419e+003,-1.455666e-004
3.982348e+003,-2.212790e-004
3.984276e+003,-3.331675e-004
3.986205e+003,-3.354520e-004
3.988133e+003,-2.922102e-004
3.990062e+003,-2.182653e-004
3.991990e+003,-3.233010e-004
3.993919e+003,-4.900409e-004
3.995847e+003,-5.284645e-004
3.997776e+003,-4.113961e-004
3.999704e+003,-3.089644e-004
4.001633e+003,0.000000e+000
