3.991989e+002,-1.251657e-002
4.011274e+002,-2.992242e-003
4.030559e+002,2.217215e-003
4.049844e+002,-5.398239e-003
4.069129e+002,-1.075719e-002
4.088414e+002,-8.296786e-004
4.107699e+002,1.137804e-002
4.126984e+002,5.595251e-003
4.146269e+002,-1.834595e-003
4.165554e+002,-7.455383e-004
4.184839e+002,-4.392983e-003
4.204124e+002,-7.304454e-003
4.223409e+002,-5.764928e-003
4.242694e+002,-3.708454e-003
4.261979e+002,-2.674676e-003
4.281264e+002,-7.706779e-003
4.300549e+002,-9.692999e-003
4.319834e+002,-3.031563e-003
4.339119e+002,-2.603672e-003
4.358404e+002,-4.914101e-003
4.377689e+002,-6.845009e-003
4.396974e+002,-8.687351e-003
4.416259e+002,-8.727590e-003
4.435544e+002,-7.909623e-003
4.454829e+002,-6.753675e-003
4.474114e+002,-5.659075e-003
4.493399e+002,-4.398920e-003
4.512684e+002,-3.353504e-003
4.531969e+002,-6.337568e-003
4.551254e+002,-1.172359e-002
4.570539e+002,-1.200312e-002
4.589824e+002,-8.680660e-003
4.609109e+002,-9.500775e-003
4.628394e+002,-1.151516e-002
4.647679e+002,-1.008198e-002
4.666964e+002,-7.680639e-003
4.686249e+002,-9.288100e-003
4.705533e+002,-9.971637e-003
4.724819e+002,-9.619633e-003
4.744103e+002,-8.665947e-003
4.763389e+002,-5.285815e-003
4.782673e+002,-5.550938e-003
4.801959e+002,-8.723725e-003
4.821243e+002,-8.541371e-003
4.840529e+002,-5.595819e-003
4.859813e+002,-6.637750e-003
4.879099e+002,-1.061566e-002
4.898383e+002,-1.055765e-002
4.917668e+002,-9.220278e-003
4.936953e+002,-1.008156e-002
4.956238e+002,-1.364485e-002
4.975523e+002,-1.407987e-002
4.994808e+002,-1.112013e-002
5.014093e+002,-1.150087e-002
5.033378e+002,-1.034031e-002
5.052663e+002,-1.045845e-002
5.071948e+002,-1.027595e-002
5.091233e+002,-8.200365e-003
5.110518e+002,-7.403686e-003
5.129803e+002,-9.017655e-003
5.149088e+002,-1.080538e-002
5.168373e+002,-1.318114e-002
5.187658e+002,-1.450789e-002
5.206943e+002,-1.413260e-002
5.226228e+002,-1.333842e-002
5.245513e+002,-1.408237e-002
5.264798e+002,-1.295118e-002
5.284083e+002,-1.300502e-002
5.303368e+002,-1.464191e-002
5.322653e+002,-1.528823e-002
5.341938e+002,-1.510487e-002
5.361223e+002,-1.472946e-002
5.380508e+002,-1.438135e-002
5.399792e+002,-1.521081e-002
5.419078e+002,-1.495335e-002
5.438363e+002,-1.343108e-002
5.457648e+002,-1.400012e-002
5.476932e+002,-1.518397e-002
5.496218e+002,-1.415223e-002
5.515503e+002,-1.286399e-002
5.534788e+002,-1.280213e-002
5.554072e+002,-1.373966e-002
5.573358e+002,-1.393239e-002
5.592643e+002,-1.290535e-002
5.611927e+002,-1.254130e-002
5.631212e+002,-1.255067e-002
5.650497e+002,-1.368922e-002
5.669783e+002,-1.454628e-002
5.689067e+002,-1.442655e-002
5.708352e+002,-1.435725e-002
5.727637e+002,-1.350281e-002
5.746923e+002,-1.333440e-002
5.766207e+002,-1.362102e-002
5.785492e+002,-1.255611e-002
5.804777e+002,-1.078547e-002
5.824063e+002,-1.100976e-002
5.843347e+002,-1.304444e-002
5.862632e+002,-1.528554e-002
5.881917e+002,-1.530064e-002
5.901202e+002,-1.508964e-002
5.920487e+002,-1.421999e-002
5.939772e+002,-1.155075e-002
5.959057e+002,-9.762108e-003
5.978342e+002,-1.110120e-002
5.997627e+002,-1.085405e-002
6.016912e+002,-8.295362e-003
6.036197e+002,-7.290281e-003
6.055482e+002,-6.768191e-003
6.074767e+002,-5.368655e-003
6.094052e+002,-4.697135e-003
6.113337e+002,-5.451446e-003
6.132622e+002,-5.345614e-003
6.151907e+002,-4.744922e-003
6.171192e+002,-3.861650e-003
6.190477e+002,-5.200078e-003
6.209762e+002,-7.379515e-003
6.229047e+002,-9.215672e-003
6.248332e+002,-1.282169e-002
6.267617e+002,-1.576232e-002
6.286902e+002,-1.607592e-002
6.306187e+002,-1.570809e-002
6.325472e+002,-1.485025e-002
6.344756e+002,-1.465418e-002
6.364042e+002,-1.455842e-002
6.383326e+002,-1.418020e-002
6.402612e+002,-1.415765e-002
6.421896e+002,-1.439921e-002
6.441182e+002,-1.449843e-002
6.460466e+002,-1.481362e-002
6.479752e+002,-1.502646e-002
6.499036e+002,-1.517178e-002
6.518322e+002,-1.528903e-002
6.537606e+002,-1.587321e-002
6.556891e+002,-1.615756e-002
6.576177e+002,-1.599916e-002
6.595461e+002,-1.611641e-002
6.614746e+002,-1.615778e-002
6.634031e+002,-1.596904e-002
6.653317e+002,-1.590848e-002
6.672601e+002,-1.505606e-002
6.691886e+002,-1.506288e-002
6.711171e+002,-1.574804e-002
6.730457e+002,-1.550672e-002
6.749741e+002,-1.496846e-002
6.769026e+002,-1.449433e-002
6.788311e+002,-1.409065e-002
6.807596e+002,-1.403730e-002
6.826881e+002,-1.411714e-002
6.846166e+002,-1.414527e-002
6.865451e+002,-1.438199e-002
6.884736e+002,-1.409697e-002
6.904021e+002,-1.368238e-002
6.923306e+002,-1.364812e-002
6.942591e+002,-1.372136e-002
6.961876e+002,-1.351270e-002
6.981161e+002,-1.297829e-002
7.000446e+002,-1.268613e-002
7.019731e+002,-1.297868e-002
7.039016e+002,-1.272742e-002
7.058301e+002,-1.200222e-002
7.077585e+002,-1.216057e-002
7.096871e+002,-1.257510e-002
7.116156e+002,-1.276345e-002
7.135441e+002,-1.262141e-002
7.154725e+002,-1.238431e-002
7.174011e+002,-1.257474e-002
7.193296e+002,-1.314793e-002
7.212581e+002,-1.317837e-002
7.231865e+002,-1.335185e-002
7.251151e+002,-1.346596e-002
7.270436e+002,-1.303235e-002
7.289720e+002,-1.245231e-002
7.309005e+002,-1.188175e-002
7.328290e+002,-1.192073e-002
7.347576e+002,-1.227461e-002
7.366860e+002,-1.230515e-002
7.386145e+002,-1.236479e-002
7.405430e+002,-1.270264e-002
7.424716e+002,-1.244256e-002
7.444000e+002,-1.208427e-002
7.463285e+002,-1.132930e-002
7.482570e+002,-1.086449e-002
7.501855e+002,-1.051974e-002
7.521140e+002,-1.055092e-002
7.540425e+002,-1.074633e-002
7.559710e+002,-1.024298e-002
7.578995e+002,-1.000959e-002
7.598280e+002,-1.003675e-002
7.617565e+002,-1.011733e-002
7.636850e+002,-9.929215e-003
7.656135e+002,-9.304186e-003
7.675420e+002,-9.115133e-003
7.694705e+002,-9.605567e-003
7.713990e+002,-9.837587e-003
7.733275e+002,-9.491245e-003
7.752560e+002,-9.392976e-003
7.771844e+002,-9.428285e-003
7.791130e+002,-9.233869e-003
7.810415e+002,-1.019375e-002
7.829700e+002,-1.107520e-002
7.848984e+002,-1.059629e-002
7.868270e+002,-1.034908e-002
7.887555e+002,-1.085018e-002
7.906840e+002,-1.138543e-002
7.926124e+002,-1.189504e-002
7.945410e+002,-1.213135e-002
7.964695e+002,-1.205652e-002
7.983979e+002,-1.196386e-002
8.003264e+002,-1.185819e-002
8.022549e+002,-1.210782e-002
8.041835e+002,-1.223180e-002
8.061119e+002,-1.220774e-002
8.080404e+002,-1.191277e-002
8.099689e+002,-1.150080e-002
8.118975e+002,-1.153484e-002
8.138259e+002,-1.226247e-002
8.157545e+002,-1.266110e-002
8.176830e+002,-1.221031e-002
8.196115e+002,-1.196044e-002
8.215399e+002,-1.182962e-002
8.234684e+002,-1.138643e-002
8.253970e+002,-1.134179e-002
8.273254e+002,-1.165369e-002
8.292539e+002,-1.165118e-002
8.311824e+002,-1.129601e-002
8.331110e+002,-1.088252e-002
8.350394e+002,-1.033177e-002
8.369679e+002,-1.020709e-002
8.388964e+002,-1.030886e-002
8.408250e+002,-1.051218e-002
8.427534e+002,-1.067663e-002
8.446819e+002,-1.055852e-002
8.466104e+002,-1.053556e-002
8.485389e+002,-1.051379e-002
8.504674e+002,-1.049610e-002
8.523959e+002,-1.086349e-002
8.543244e+002,-1.090030e-002
8.562529e+002,-1.105185e-002
8.581814e+002,-1.131102e-002
8.601099e+002,-1.120761e-002
8.620384e+002,-1.136319e-002
8.639669e+002,-1.175529e-002
8.658954e+002,-1.206432e-002
8.678239e+002,-1.256258e-002
8.697524e+002,-1.283690e-002
8.716809e+002,-1.279955e-002
8.736094e+002,-1.260735e-002
8.755378e+002,-1.266750e-002
8.774664e+002,-1.260011e-002
8.793949e+002,-1.233594e-002
8.813234e+002,-1.253251e-002
8.832518e+002,-1.257452e-002
8.851804e+002,-1.244620e-002
8.871089e+002,-1.233246e-002
8.890374e+002,-1.212046e-002
8.909658e+002,-1.213692e-002
8.928943e+002,-1.165802e-002
8.948229e+002,-1.140166e-002
8.967513e+002,-1.168021e-002
8.986798e+002,-1.187031e-002
9.006083e+002,-1.223087e-002
9.025369e+002,-1.209162e-002
9.044653e+002,-1.186795e-002
9.063938e+002,-1.187882e-002
9.083223e+002,-1.206090e-002
9.102509e+002,-1.208543e-002
9.121793e+002,-1.194023e-002
9.141078e+002,-1.224868e-002
9.160364e+002,-1.241274e-002
9.179648e+002,-1.249713e-002
9.198933e+002,-1.258372e-002
9.218218e+002,-1.259840e-002
9.237504e+002,-1.279560e-002
9.256788e+002,-1.282053e-002
9.276073e+002,-1.292652e-002
9.295358e+002,-1.303280e-002
9.314644e+002,-1.299405e-002
9.333928e+002,-1.302547e-002
9.353213e+002,-1.308961e-002
9.372498e+002,-1.330005e-002
9.391783e+002,-1.325988e-002
9.411068e+002,-1.288847e-002
9.430353e+002,-1.297688e-002
9.449637e+002,-1.318245e-002
9.468923e+002,-1.307370e-002
9.488208e+002,-1.295083e-002
9.507493e+002,-1.315179e-002
9.526777e+002,-1.336245e-002
9.546063e+002,-1.327174e-002
9.565348e+002,-1.300737e-002
9.584633e+002,-1.308248e-002
9.603917e+002,-1.343252e-002
9.623203e+002,-1.347553e-002
9.642488e+002,-1.329880e-002
9.661772e+002,-1.323317e-002
9.681057e+002,-1.347942e-002
9.700343e+002,-1.362719e-002
9.719628e+002,-1.337585e-002
9.738912e+002,-1.360147e-002
9.758197e+002,-1.407567e-002
9.777483e+002,-1.403111e-002
9.796768e+002,-1.405989e-002
9.816052e+002,-1.455451e-002
9.835337e+002,-1.453593e-002
9.854623e+002,-1.416057e-002
9.873907e+002,-1.423000e-002
9.893192e+002,-1.436953e-002
9.912477e+002,-1.422839e-002
9.931763e+002,-1.420226e-002
9.951047e+002,-1.411477e-002
9.970332e+002,-1.414697e-002
9.989617e+002,-1.419212e-002
1.000890e+003,-1.404654e-002
1.002819e+003,-1.371038e-002
1.004747e+003,-1.375035e-002
1.006676e+003,-1.383788e-002
1.008604e+003,-1.360471e-002
1.010533e+003,-1.323603e-002
1.012461e+003,-1.298334e-002
1.014390e+003,-1.268559e-002
1.016318e+003,-1.233574e-002
1.018247e+003,-1.234730e-002
1.020175e+003,-1.233429e-002
1.022104e+003,-1.173497e-002
1.024032e+003,-1.100042e-002
1.025961e+003,-1.053161e-002
1.027889e+003,-1.009593e-002
1.029818e+003,-9.841637e-003
1.031746e+003,-9.701164e-003
1.033675e+003,-9.308111e-003
1.035603e+003,-8.762141e-003
1.037532e+003,-8.198479e-003
1.039460e+003,-7.883496e-003
1.041389e+003,-7.594983e-003
1.043317e+003,-7.234268e-003
1.045246e+003,-7.158041e-003
1.047174e+003,-6.865785e-003
1.049103e+003,-6.669402e-003
1.051031e+003,-6.694036e-003
1.052960e+003,-6.685618e-003
1.054888e+003,-6.595947e-003
1.056817e+003,-6.692241e-003
1.058745e+003,-6.679158e-003
1.060674e+003,-6.724933e-003
1.062602e+003,-6.617388e-003
1.064531e+003,-6.601300e-003
1.066459e+003,-6.617616e-003
1.068388e+003,-6.535406e-003
1.070316e+003,-6.339559e-003
1.072245e+003,-6.228228e-003
1.074173e+003,-6.384064e-003
1.076102e+003,-6.380179e-003
1.078030e+003,-6.312782e-003
1.079959e+003,-6.219899e-003
1.081887e+003,-6.395427e-003
1.083816e+003,-6.793277e-003
1.085744e+003,-6.910236e-003
1.087673e+003,-6.818654e-003
1.089601e+003,-6.592162e-003
1.091530e+003,-6.607370e-003
1.093458e+003,-6.523264e-003
1.095387e+003,-6.292894e-003
1.097315e+003,-6.392129e-003
1.099244e+003,-6.876971e-003
1.101172e+003,-7.056047e-003
1.103101e+003,-6.856359e-003
1.105029e+003,-6.627145e-003
1.106958e+003,-6.813109e-003
1.108886e+003,-6.967823e-003
1.110815e+003,-7.005775e-003
1.112743e+003,-6.796343e-003
1.114672e+003,-6.778337e-003
1.116600e+003,-6.834800e-003
1.118529e+003,-6.730773e-003
1.120457e+003,-6.945910e-003
1.122386e+003,-7.045126e-003
1.124314e+003,-6.855707e-003
1.126243e+003,-6.734655e-003
1.128171e+003,-6.681703e-003
1.130100e+003,-6.726205e-003
1.132028e+003,-7.051907e-003
1.133957e+003,-7.199594e-003
1.135885e+003,-7.247205e-003
1.137814e+003,-7.579224e-003
1.139742e+003,-8.090453e-003
1.141671e+003,-8.533476e-003
1.143599e+003,-8.835165e-003
1.145528e+003,-9.202177e-003
1.147456e+003,-9.524277e-003
1.149385e+003,-9.911274e-003
1.151313e+003,-1.027146e-002
1.153242e+003,-1.058989e-002
1.155170e+003,-1.070628e-002
1.157099e+003,-1.067285e-002
1.159027e+003,-1.075286e-002
1.160956e+003,-1.083980e-002
1.162884e+003,-1.087616e-002
1.164813e+003,-1.103376e-002
1.166741e+003,-1.115959e-002
1.168670e+003,-1.112652e-002
1.170598e+003,-1.101309e-002
1.172526e+003,-1.090947e-002
1.174455e+003,-1.094301e-002
1.176384e+003,-1.110256e-002
1.178312e+003,-1.108221e-002
1.180240e+003,-1.099984e-002
1.182169e+003,-1.099361e-002
1.184098e+003,-1.121568e-002
1.186026e+003,-1.137326e-002
1.187954e+003,-1.145359e-002
1.189883e+003,-1.147618e-002
1.191812e+003,-1.169259e-002
1.193740e+003,-1.198565e-002
1.195668e+003,-1.209680e-002
1.197597e+003,-1.212526e-002
1.199526e+003,-1.222078e-002
1.201454e+003,-1.232740e-002
1.203382e+003,-1.236589e-002
1.205311e+003,-1.234640e-002
1.207240e+003,-1.215883e-002
1.209168e+003,-1.205897e-002
1.211096e+003,-1.215384e-002
1.213025e+003,-1.219098e-002
1.214953e+003,-1.209771e-002
1.216882e+003,-1.205456e-002
1.218810e+003,-1.208527e-002
1.220739e+003,-1.202832e-002
1.222667e+003,-1.203944e-002
1.224596e+003,-1.204650e-002
1.226524e+003,-1.194384e-002
1.228453e+003,-1.171272e-002
1.230381e+003,-1.168782e-002
1.232310e+003,-1.179602e-002
1.234238e+003,-1.182133e-002
1.236167e+003,-1.177364e-002
1.238095e+003,-1.180350e-002
1.240024e+003,-1.194294e-002
1.241952e+003,-1.196528e-002
1.243881e+003,-1.200953e-002
1.245809e+003,-1.226827e-002
1.247738e+003,-1.262634e-002
1.249666e+003,-1.282108e-002
1.251595e+003,-1.279827e-002
1.253523e+003,-1.278006e-002
1.255452e+003,-1.284652e-002
1.257380e+003,-1.310138e-002
1.259309e+003,-1.332720e-002
1.261237e+003,-1.356849e-002
1.263166e+003,-1.358631e-002
1.265094e+003,-1.341270e-002
1.267023e+003,-1.316902e-002
1.268951e+003,-1.308736e-002
1.270880e+003,-1.313330e-002
1.272808e+003,-1.318811e-002
1.274737e+003,-1.319901e-002
1.276665e+003,-1.328479e-002
1.278594e+003,-1.345935e-002
1.280522e+003,-1.353842e-002
1.282451e+003,-1.360657e-002
1.284379e+003,-1.351235e-002
1.286308e+003,-1.330461e-002
1.288236e+003,-1.341672e-002
1.290165e+003,-1.359347e-002
1.292093e+003,-1.366077e-002
1.294022e+003,-1.378832e-002
1.295950e+003,-1.382417e-002
1.297879e+003,-1.386631e-002
1.299807e+003,-1.406697e-002
1.301736e+003,-1.418632e-002
1.303664e+003,-1.418385e-002
1.305593e+003,-1.436715e-002
1.307521e+003,-1.461129e-002
1.309450e+003,-1.471882e-002
1.311378e+003,-1.477430e-002
1.313307e+003,-1.498690e-002
1.315235e+003,-1.522473e-002
1.317164e+003,-1.528874e-002
1.319092e+003,-1.528999e-002
1.321021e+003,-1.529575e-002
1.322949e+003,-1.522246e-002
1.324878e+003,-1.515527e-002
1.326806e+003,-1.498315e-002
1.328735e+003,-1.485189e-002
1.330663e+003,-1.469390e-002
1.332592e+003,-1.452827e-002
1.334520e+003,-1.450520e-002
1.336449e+003,-1.463144e-002
1.338377e+003,-1.463185e-002
1.340306e+003,-1.457338e-002
1.342234e+003,-1.451939e-002
1.344163e+003,-1.440802e-002
1.346091e+003,-1.440549e-002
1.348020e+003,-1.440347e-002
1.349948e+003,-1.439466e-002
1.351877e+003,-1.443514e-002
1.353805e+003,-1.453666e-002
1.355734e+003,-1.461026e-002
1.357662e+003,-1.482182e-002
1.359591e+003,-1.490107e-002
1.361519e+003,-1.492883e-002
1.363448e+003,-1.503296e-002
1.365376e+003,-1.520905e-002
1.367305e+003,-1.542269e-002
1.369233e+003,-1.568256e-002
1.371162e+003,-1.589305e-002
1.373090e+003,-1.598708e-002
1.375019e+003,-1.593870e-002
1.376947e+003,-1.590088e-002
1.378876e+003,-1.601959e-002
1.380804e+003,-1.619950e-002
1.382733e+003,-1.630815e-002
1.384661e+003,-1.636390e-002
1.386590e+003,-1.646057e-002
1.388518e+003,-1.649974e-002
1.390447e+003,-1.647742e-002
1.392375e+003,-1.682623e-002
1.394304e+003,-1.711594e-002
1.396232e+003,-1.694999e-002
1.398161e+003,-1.704618e-002
1.400089e+003,-1.711387e-002
1.402018e+003,-1.707520e-002
1.403946e+003,-1.723025e-002
1.405875e+003,-1.724917e-002
1.407803e+003,-1.711362e-002
1.409732e+003,-1.707211e-002
1.411660e+003,-1.691633e-002
1.413589e+003,-1.688102e-002
1.415517e+003,-1.701852e-002
1.417446e+003,-1.711744e-002
1.419374e+003,-1.690359e-002
1.421303e+003,-1.652651e-002
1.423231e+003,-1.636160e-002
1.425160e+003,-1.608432e-002
1.427088e+003,-1.573465e-002
1.429017e+003,-1.525992e-002
1.430945e+003,-1.460270e-002
1.432874e+003,-1.412529e-002
1.434802e+003,-1.414152e-002
1.436731e+003,-1.395950e-002
1.438659e+003,-1.321148e-002
1.440588e+003,-1.268674e-002
1.442516e+003,-1.236930e-002
1.444445e+003,-1.217890e-002
1.446373e+003,-1.199155e-002
1.448302e+003,-1.178941e-002
1.450230e+003,-1.160450e-002
1.452159e+003,-1.154304e-002
1.454087e+003,-1.167369e-002
1.456016e+003,-1.210596e-002
1.457944e+003,-1.193720e-002
1.459873e+003,-1.166331e-002
1.461801e+003,-1.163763e-002
1.463730e+003,-1.199242e-002
1.465658e+003,-1.228495e-002
1.467587e+003,-1.232937e-002
1.469515e+003,-1.264410e-002
1.471444e+003,-1.336229e-002
1.473372e+003,-1.372120e-002
1.475301e+003,-1.375908e-002
1.477229e+003,-1.398873e-002
1.479158e+003,-1.424850e-002
1.481086e+003,-1.463746e-002
1.483015e+003,-1.491051e-002
1.484943e+003,-1.533029e-002
1.486872e+003,-1.580434e-002
1.488800e+003,-1.607353e-002
1.490729e+003,-1.609029e-002
1.492657e+003,-1.613374e-002
1.494586e+003,-1.639242e-002
1.496514e+003,-1.661189e-002
1.498443e+003,-1.651346e-002
1.500371e+003,-1.630802e-002
1.502300e+003,-1.630518e-002
1.504228e+003,-1.699020e-002
1.506157e+003,-1.773334e-002
1.508085e+003,-1.732813e-002
1.510014e+003,-1.688466e-002
1.511942e+003,-1.678266e-002
1.513871e+003,-1.670803e-002
1.515799e+003,-1.688823e-002
1.517728e+003,-1.691939e-002
1.519656e+003,-1.714502e-002
1.521585e+003,-1.748491e-002
1.523513e+003,-1.729375e-002
1.525442e+003,-1.722704e-002
1.527370e+003,-1.699670e-002
1.529299e+003,-1.685253e-002
1.531227e+003,-1.689591e-002
1.533156e+003,-1.707221e-002
1.535084e+003,-1.680912e-002
1.537013e+003,-1.712094e-002
1.538941e+003,-1.792567e-002
1.540870e+003,-1.790892e-002
1.542798e+003,-1.736328e-002
1.544727e+003,-1.708180e-002
1.546655e+003,-1.683803e-002
1.548584e+003,-1.703914e-002
1.550512e+003,-1.709400e-002
1.552441e+003,-1.712560e-002
1.554369e+003,-1.733752e-002
1.556298e+003,-1.775563e-002
1.558226e+003,-1.843278e-002
1.560155e+003,-1.776855e-002
1.562083e+003,-1.685712e-002
1.564012e+003,-1.664311e-002
1.565940e+003,-1.644146e-002
1.567869e+003,-1.628568e-002
1.569797e+003,-1.615625e-002
1.571726e+003,-1.582021e-002
1.573654e+003,-1.602617e-002
1.575583e+003,-1.633642e-002
1.577511e+003,-1.582875e-002
1.579440e+003,-1.539784e-002
1.581368e+003,-1.535767e-002
1.583297e+003,-1.525736e-002
1.585225e+003,-1.508612e-002
1.587154e+003,-1.495098e-002
1.589082e+003,-1.489771e-002
1.591010e+003,-1.491477e-002
1.592939e+003,-1.498104e-002
1.594868e+003,-1.497444e-002
1.596796e+003,-1.504573e-002
1.598724e+003,-1.514228e-002
1.600653e+003,-1.516106e-002
1.602582e+003,-1.511594e-002
1.604510e+003,-1.514928e-002
1.606438e+003,-1.525557e-002
1.608367e+003,-1.538015e-002
1.610296e+003,-1.555937e-002
1.612224e+003,-1.567898e-002
1.614152e+003,-1.600382e-002
1.616081e+003,-1.656258e-002
1.618010e+003,-1.645422e-002
1.619938e+003,-1.629389e-002
1.621866e+003,-1.662388e-002
1.623795e+003,-1.682878e-002
1.625724e+003,-1.682639e-002
1.627652e+003,-1.697835e-002
1.629580e+003,-1.696283e-002
1.631509e+003,-1.702232e-002
1.633438e+003,-1.750674e-002
1.635366e+003,-1.809682e-002
1.637294e+003,-1.797555e-002
1.639223e+003,-1.779037e-002
1.641151e+003,-1.785855e-002
1.643080e+003,-1.820140e-002
1.645008e+003,-1.871691e-002
1.646937e+003,-1.897346e-002
1.648865e+003,-1.889213e-002
1.650794e+003,-1.950006e-002
1.652722e+003,-2.034210e-002
1.654651e+003,-1.959221e-002
1.656579e+003,-1.889812e-002
1.658508e+003,-1.877118e-002
1.660436e+003,-1.886919e-002
1.662365e+003,-1.885491e-002
1.664293e+003,-1.858639e-002
1.666222e+003,-1.854954e-002
1.668150e+003,-1.883879e-002
1.670079e+003,-1.885555e-002
1.672007e+003,-1.849661e-002
1.673936e+003,-1.853833e-002
1.675864e+003,-1.833648e-002
1.677793e+003,-1.781835e-002
1.679721e+003,-1.780305e-002
1.681650e+003,-1.822408e-002
1.683578e+003,-1.888550e-002
1.685507e+003,-1.832536e-002
1.687435e+003,-1.775662e-002
1.689364e+003,-1.761821e-002
1.691292e+003,-1.742656e-002
1.693221e+003,-1.746902e-002
1.695149e+003,-1.781218e-002
1.697078e+003,-1.758737e-002
1.699006e+003,-1.788052e-002
1.700935e+003,-1.768470e-002
1.702863e+003,-1.705035e-002
1.704792e+003,-1.709113e-002
1.706720e+003,-1.674868e-002
1.708649e+003,-1.634166e-002
1.710577e+003,-1.621728e-002
1.712506e+003,-1.624876e-002
1.714434e+003,-1.658602e-002
1.716363e+003,-1.705265e-002
1.718291e+003,-1.684373e-002
1.720220e+003,-1.628508e-002
1.722148e+003,-1.612682e-002
1.724077e+003,-1.606420e-002
1.726005e+003,-1.599970e-002
1.727934e+003,-1.610795e-002
1.729862e+003,-1.625016e-002
1.731791e+003,-1.651222e-002
1.733719e+003,-1.684020e-002
1.735648e+003,-1.628626e-002
1.737576e+003,-1.614945e-002
1.739505e+003,-1.636948e-002
1.741433e+003,-1.619401e-002
1.743362e+003,-1.611654e-002
1.745290e+003,-1.602081e-002
1.747219e+003,-1.599347e-002
1.749147e+003,-1.609000e-002
1.751076e+003,-1.596262e-002
1.753004e+003,-1.553364e-002
1.754933e+003,-1.554543e-002
1.756861e+003,-1.566246e-002
1.758790e+003,-1.561167e-002
1.760718e+003,-1.565459e-002
1.762647e+003,-1.549342e-002
1.764575e+003,-1.529239e-002
1.766504e+003,-1.548859e-002
1.768432e+003,-1.561563e-002
1.770361e+003,-1.588012e-002
1.772289e+003,-1.601123e-002
1.774218e+003,-1.563468e-002
1.776146e+003,-1.544174e-002
1.778075e+003,-1.540804e-002
1.780003e+003,-1.541073e-002
1.781932e+003,-1.536765e-002
1.783860e+003,-1.537101e-002
1.785789e+003,-1.547804e-002
1.787717e+003,-1.558319e-002
1.789646e+003,-1.560761e-002
1.791574e+003,-1.574506e-002
1.793503e+003,-1.560540e-002
1.795431e+003,-1.554687e-002
1.797360e+003,-1.555023e-002
1.799288e+003,-1.545354e-002
1.801217e+003,-1.539838e-002
1.803145e+003,-1.534241e-002
1.805074e+003,-1.543257e-002
1.807002e+003,-1.555320e-002
1.808931e+003,-1.558274e-002
1.810859e+003,-1.557660e-002
1.812788e+003,-1.557830e-002
1.814716e+003,-1.556365e-002
1.816645e+003,-1.556097e-002
1.818573e+003,-1.549441e-002
1.820502e+003,-1.549038e-002
1.822430e+003,-1.560905e-002
1.824359e+003,-1.577708e-002
1.826287e+003,-1.569362e-002
1.828216e+003,-1.570694e-002
1.830144e+003,-1.579322e-002
1.832073e+003,-1.562695e-002
1.834001e+003,-1.558792e-002
1.835930e+003,-1.554617e-002
1.837858e+003,-1.543967e-002
1.839787e+003,-1.545195e-002
1.841715e+003,-1.567217e-002
1.843644e+003,-1.591375e-002
1.845572e+003,-1.582680e-002
1.847501e+003,-1.566198e-002
1.849429e+003,-1.558184e-002
1.851358e+003,-1.551404e-002
1.853286e+003,-1.551516e-002
1.855215e+003,-1.560444e-002
1.857143e+003,-1.556746e-002
1.859072e+003,-1.548811e-002
1.861000e+003,-1.551928e-002
1.862929e+003,-1.550867e-002
1.864857e+003,-1.552139e-002
1.866786e+003,-1.569646e-002
1.868714e+003,-1.569416e-002
1.870643e+003,-1.550991e-002
1.872571e+003,-1.550640e-002
1.874500e+003,-1.555573e-002
1.876428e+003,-1.556110e-002
1.878357e+003,-1.557548e-002
1.880285e+003,-1.560227e-002
1.882214e+003,-1.555656e-002
1.884142e+003,-1.557705e-002
1.886071e+003,-1.565878e-002
1.887999e+003,-1.579005e-002
1.889928e+003,-1.578398e-002
1.891856e+003,-1.566862e-002
1.893785e+003,-1.571407e-002
1.895713e+003,-1.576404e-002
1.897642e+003,-1.574462e-002
1.899570e+003,-1.570020e-002
1.901499e+003,-1.566735e-002
1.903427e+003,-1.569282e-002
1.905356e+003,-1.571602e-002
1.907284e+003,-1.578044e-002
1.909213e+003,-1.584117e-002
1.911141e+003,-1.581606e-002
1.913070e+003,-1.570359e-002
1.914998e+003,-1.571014e-002
1.916927e+003,-1.581926e-002
1.918855e+003,-1.579836e-002
1.920784e+003,-1.572072e-002
1.922712e+003,-1.578443e-002
1.924641e+003,-1.574919e-002
1.926569e+003,-1.573465e-002
1.928498e+003,-1.584836e-002
1.930426e+003,-1.583696e-002
1.932355e+003,-1.586031e-002
1.934283e+003,-1.594330e-002
1.936212e+003,-1.594381e-002
1.938140e+003,-1.591976e-002
1.940069e+003,-1.592503e-002
1.941997e+003,-1.604351e-002
1.943926e+003,-1.608426e-002
1.945854e+003,-1.609948e-002
1.947783e+003,-1.599411e-002
1.949711e+003,-1.598753e-002
1.951640e+003,-1.601934e-002
1.953568e+003,-1.597111e-002
1.955497e+003,-1.601611e-002
1.957425e+003,-1.607330e-002
1.959354e+003,-1.608167e-002
1.961282e+003,-1.603112e-002
1.963211e+003,-1.603313e-002
1.965139e+003,-1.611839e-002
1.967068e+003,-1.620962e-002
1.968996e+003,-1.618249e-002
1.970925e+003,-1.608461e-002
1.972853e+003,-1.605727e-002
1.974782e+003,-1.603428e-002
1.976710e+003,-1.606341e-002
1.978639e+003,-1.605673e-002
1.980567e+003,-1.605223e-002
1.982496e+003,-1.609859e-002
1.984424e+003,-1.608033e-002
1.986353e+003,-1.604779e-002
1.988281e+003,-1.607943e-002
1.990210e+003,-1.610526e-002
1.992138e+003,-1.621291e-002
1.994067e+003,-1.617215e-002
1.995995e+003,-1.611698e-002
1.997924e+003,-1.614536e-002
1.999852e+003,-1.619280e-002
2.001781e+003,-1.617087e-002
2.003709e+003,-1.608068e-002
2.005638e+003,-1.609514e-002
2.007566e+003,-1.616164e-002
2.009495e+003,-1.619251e-002
2.011423e+003,-1.620822e-002
2.013352e+003,-1.625048e-002
2.015280e+003,-1.626720e-002
2.017208e+003,-1.616781e-002
2.019137e+003,-1.601001e-002
2.021066e+003,-1.599446e-002
2.022994e+003,-1.613505e-002
2.024922e+003,-1.624509e-002
2.026851e+003,-1.624068e-002
2.028780e+003,-1.622737e-002
2.030708e+003,-1.622603e-002
2.032636e+003,-1.612653e-002
2.034565e+003,-1.612468e-002
2.036494e+003,-1.615584e-002
2.038422e+003,-1.623021e-002
2.040350e+003,-1.633173e-002
2.042279e+003,-1.630821e-002
2.044208e+003,-1.632730e-002
2.046136e+003,-1.631271e-002
2.048064e+003,-1.625706e-002
2.049993e+003,-1.622926e-002
2.051921e+003,-1.622692e-002
2.053850e+003,-1.624225e-002
2.055778e+003,-1.621505e-002
2.057707e+003,-1.620053e-002
2.059635e+003,-1.629829e-002
2.061564e+003,-1.641875e-002
2.063492e+003,-1.639338e-002
2.065421e+003,-1.631594e-002
2.067349e+003,-1.627952e-002
2.069278e+003,-1.624279e-002
2.071206e+003,-1.625291e-002
2.073135e+003,-1.632707e-002
2.075063e+003,-1.636610e-002
2.076992e+003,-1.638390e-002
2.078920e+003,-1.641594e-002
2.080849e+003,-1.641814e-002
2.082777e+003,-1.638461e-002
2.084706e+003,-1.636734e-002
2.086634e+003,-1.635219e-002
2.088563e+003,-1.640439e-002
2.090491e+003,-1.649467e-002
2.092420e+003,-1.649123e-002
2.094348e+003,-1.652418e-002
2.096277e+003,-1.649228e-002
2.098205e+003,-1.646207e-002
2.100134e+003,-1.642586e-002
2.102062e+003,-1.634201e-002
2.103991e+003,-1.621192e-002
2.105919e+003,-1.621294e-002
2.107848e+003,-1.631275e-002
2.109776e+003,-1.635787e-002
2.111705e+003,-1.635254e-002
2.113633e+003,-1.645374e-002
2.115562e+003,-1.649640e-002
2.117490e+003,-1.642423e-002
2.119419e+003,-1.641935e-002
2.121347e+003,-1.646481e-002
2.123276e+003,-1.640015e-002
2.125204e+003,-1.631188e-002
2.127133e+003,-1.632841e-002
2.129061e+003,-1.636125e-002
2.130990e+003,-1.632596e-002
2.132918e+003,-1.625999e-002
2.134847e+003,-1.621594e-002
2.136775e+003,-1.633253e-002
2.138704e+003,-1.628907e-002
2.140632e+003,-1.618568e-002
2.142561e+003,-1.626985e-002
2.144489e+003,-1.631967e-002
2.146418e+003,-1.629060e-002
2.148346e+003,-1.624055e-002
2.150275e+003,-1.624694e-002
2.152203e+003,-1.629041e-002
2.154132e+003,-1.622641e-002
2.156060e+003,-1.628559e-002
2.157989e+003,-1.641173e-002
2.159917e+003,-1.645489e-002
2.161846e+003,-1.635857e-002
2.163774e+003,-1.629315e-002
2.165703e+003,-1.633792e-002
2.167631e+003,-1.635573e-002
2.169560e+003,-1.625948e-002
2.171488e+003,-1.620962e-002
2.173417e+003,-1.624253e-002
2.175345e+003,-1.628099e-002
2.177274e+003,-1.627541e-002
2.179202e+003,-1.628240e-002
2.181131e+003,-1.631096e-002
2.183059e+003,-1.625211e-002
2.184988e+003,-1.623066e-002
2.186916e+003,-1.633534e-002
2.188845e+003,-1.634427e-002
2.190773e+003,-1.624933e-002
2.192702e+003,-1.623404e-002
2.194630e+003,-1.621033e-002
2.196559e+003,-1.619302e-002
2.198487e+003,-1.628348e-002
2.200416e+003,-1.632034e-002
2.202344e+003,-1.633709e-002
2.204273e+003,-1.634268e-002
2.206201e+003,-1.630633e-002
2.208130e+003,-1.632944e-002
2.210058e+003,-1.640803e-002
2.211987e+003,-1.643109e-002
2.213915e+003,-1.642707e-002
2.215844e+003,-1.643875e-002
2.217772e+003,-1.643789e-002
2.219701e+003,-1.645738e-002
2.221629e+003,-1.651206e-002
2.223558e+003,-1.643081e-002
2.225486e+003,-1.649799e-002
2.227415e+003,-1.661402e-002
2.229343e+003,-1.667987e-002
2.231272e+003,-1.667515e-002
2.233200e+003,-1.652188e-002
2.235129e+003,-1.647732e-002
2.237057e+003,-1.653298e-002
2.238986e+003,-1.649869e-002
2.240914e+003,-1.650070e-002
2.242843e+003,-1.653831e-002
2.244771e+003,-1.656558e-002
2.246700e+003,-1.653410e-002
2.248628e+003,-1.658338e-002
2.250557e+003,-1.657441e-002
2.252485e+003,-1.654925e-002
2.254414e+003,-1.657416e-002
2.256342e+003,-1.658239e-002
2.258271e+003,-1.664511e-002
2.260199e+003,-1.666249e-002
2.262128e+003,-1.664228e-002
2.264056e+003,-1.678521e-002
2.265985e+003,-1.684376e-002
2.267913e+003,-1.683038e-002
2.269842e+003,-1.674609e-002
2.271770e+003,-1.671915e-002
2.273699e+003,-1.683586e-002
2.275627e+003,-1.690713e-002
2.277556e+003,-1.690062e-002
2.279484e+003,-1.683720e-002
2.281413e+003,-1.678521e-002
2.283341e+003,-1.683175e-002
2.285270e+003,-1.689677e-002
2.287198e+003,-1.696936e-002
2.289127e+003,-1.702684e-002
2.291055e+003,-1.701754e-002
2.292984e+003,-1.688510e-002
2.294912e+003,-1.682907e-002
2.296841e+003,-1.685043e-002
2.298769e+003,-1.688584e-002
2.300698e+003,-1.690244e-002
2.302626e+003,-1.680421e-002
2.304555e+003,-1.676274e-002
2.306483e+003,-1.690920e-002
2.308412e+003,-1.692943e-002
2.310340e+003,-1.687066e-002
2.312269e+003,-1.680287e-002
2.314197e+003,-1.671813e-002
2.316125e+003,-1.672052e-002
2.318054e+003,-1.668198e-002
2.319983e+003,-1.648131e-002
2.321911e+003,-1.636399e-002
2.323840e+003,-1.624228e-002
2.325768e+003,-1.618648e-002
2.327697e+003,-1.615210e-002
2.329625e+003,-1.602553e-002
2.331553e+003,-1.595374e-002
2.333482e+003,-1.602608e-002
2.335411e+003,-1.607215e-002
2.337339e+003,-1.604958e-002
2.339268e+003,-1.598632e-002
2.341196e+003,-1.610127e-002
2.343125e+003,-1.610297e-002
2.345053e+003,-1.616184e-002
2.346981e+003,-1.655611e-002
2.348910e+003,-1.689769e-002
2.350839e+003,-1.669648e-002
2.352767e+003,-1.630965e-002
2.354696e+003,-1.601135e-002
2.356624e+003,-1.578488e-002
2.358552e+003,-1.567524e-002
2.360481e+003,-1.570688e-002
2.362409e+003,-1.575638e-002
2.364338e+003,-1.584143e-002
2.366267e+003,-1.596965e-002
2.368195e+003,-1.605274e-002
2.370124e+003,-1.614182e-002
2.372052e+003,-1.639801e-002
2.373980e+003,-1.671820e-002
2.375909e+003,-1.685059e-002
2.377838e+003,-1.689202e-002
2.379766e+003,-1.700247e-002
2.381695e+003,-1.719863e-002
2.383623e+003,-1.735023e-002
2.385552e+003,-1.729677e-002
2.387480e+003,-1.718054e-002
2.389408e+003,-1.716512e-002
2.391337e+003,-1.722449e-002
2.393266e+003,-1.717713e-002
2.395194e+003,-1.713859e-002
2.397123e+003,-1.714929e-002
2.399051e+003,-1.709330e-002
2.400979e+003,-1.707230e-002
2.402908e+003,-1.710161e-002
2.404836e+003,-1.714859e-002
2.406765e+003,-1.722309e-002
2.408694e+003,-1.719519e-002
2.410622e+003,-1.709718e-002
2.412551e+003,-1.710980e-002
2.414479e+003,-1.719248e-002
2.416407e+003,-1.709830e-002
2.418336e+003,-1.703566e-002
2.420264e+003,-1.709486e-002
2.422193e+003,-1.722000e-002
2.424122e+003,-1.720872e-002
2.426050e+003,-1.715203e-002
2.427979e+003,-1.712700e-002
2.429907e+003,-1.716974e-002
2.431835e+003,-1.724468e-002
2.433764e+003,-1.716283e-002
2.435692e+003,-1.718611e-002
2.437621e+003,-1.729231e-002
2.439550e+003,-1.731842e-002
2.441478e+003,-1.730206e-002
2.443406e+003,-1.730575e-002
2.445335e+003,-1.734704e-002
2.447263e+003,-1.735698e-002
2.449192e+003,-1.733931e-002
2.451121e+003,-1.722398e-002
2.453049e+003,-1.723226e-002
2.454978e+003,-1.734290e-002
2.456906e+003,-1.730498e-002
2.458834e+003,-1.723643e-002
2.460763e+003,-1.723375e-002
2.462691e+003,-1.724315e-002
2.464620e+003,-1.725165e-002
2.466549e+003,-1.730753e-002
2.468477e+003,-1.730358e-002
2.470406e+003,-1.732609e-002
2.472334e+003,-1.739139e-002
2.474262e+003,-1.733937e-002
2.476191e+003,-1.732664e-002
2.478119e+003,-1.731380e-002
2.480048e+003,-1.731043e-002
2.481977e+003,-1.729012e-002
2.483905e+003,-1.722847e-002
2.485833e+003,-1.724987e-002
2.487762e+003,-1.736500e-002
2.489690e+003,-1.743178e-002
2.491619e+003,-1.743248e-002
2.493547e+003,-1.735195e-002
2.495476e+003,-1.735602e-002
2.497405e+003,-1.738111e-002
2.499333e+003,-1.737761e-002
2.501261e+003,-1.734803e-002
2.503190e+003,-1.732657e-002
2.505118e+003,-1.730279e-002
2.507047e+003,-1.725563e-002
2.508975e+003,-1.728091e-002
2.510904e+003,-1.725251e-002
2.512833e+003,-1.721006e-002
2.514761e+003,-1.722344e-002
2.516689e+003,-1.727687e-002
2.518618e+003,-1.734762e-002
2.520546e+003,-1.737181e-002
2.522475e+003,-1.735433e-002
2.524403e+003,-1.738792e-002
2.526332e+003,-1.738954e-002
2.528260e+003,-1.733354e-002
2.530189e+003,-1.731212e-002
2.532117e+003,-1.732539e-002
2.534046e+003,-1.733463e-002
2.535974e+003,-1.725662e-002
2.537903e+003,-1.723286e-002
2.539831e+003,-1.734523e-002
2.541760e+003,-1.741746e-002
2.543688e+003,-1.735185e-002
2.545617e+003,-1.723165e-002
2.547545e+003,-1.721688e-002
2.549474e+003,-1.726678e-002
2.551402e+003,-1.728337e-002
2.553331e+003,-1.723242e-002
2.555259e+003,-1.724933e-002
2.557188e+003,-1.734364e-002
2.559116e+003,-1.742949e-002
2.561045e+003,-1.743417e-002
2.562973e+003,-1.738837e-002
2.564902e+003,-1.742313e-002
2.566830e+003,-1.739830e-002
2.568759e+003,-1.730400e-002
2.570687e+003,-1.731107e-002
2.572616e+003,-1.730136e-002
2.574544e+003,-1.735026e-002
2.576473e+003,-1.739772e-002
2.578401e+003,-1.731240e-002
2.580330e+003,-1.723299e-002
2.582258e+003,-1.719474e-002
2.584187e+003,-1.721146e-002
2.586115e+003,-1.740817e-002
2.588044e+003,-1.749420e-002
2.589972e+003,-1.727359e-002
2.591901e+003,-1.721248e-002
2.593829e+003,-1.731498e-002
2.595758e+003,-1.731737e-002
2.597686e+003,-1.728126e-002
2.599615e+003,-1.725961e-002
2.601543e+003,-1.732135e-002
2.603472e+003,-1.738722e-002
2.605400e+003,-1.735749e-002
2.607329e+003,-1.735761e-002
2.609257e+003,-1.739445e-002
2.611186e+003,-1.737821e-002
2.613114e+003,-1.727926e-002
2.615043e+003,-1.726480e-002
2.616971e+003,-1.726713e-002
2.618900e+003,-1.718398e-002
2.620828e+003,-1.715655e-002
2.622757e+003,-1.716920e-002
2.624685e+003,-1.720325e-002
2.626614e+003,-1.726534e-002
2.628542e+003,-1.718567e-002
2.630471e+003,-1.706778e-002
2.632399e+003,-1.705194e-002
2.634328e+003,-1.705930e-002
2.636256e+003,-1.705538e-002
2.638185e+003,-1.706313e-002
2.640113e+003,-1.703860e-002
2.642042e+003,-1.698042e-002
2.643970e+003,-1.691066e-002
2.645899e+003,-1.685871e-002
2.647827e+003,-1.684899e-002
2.649756e+003,-1.686034e-002
2.651684e+003,-1.676850e-002
2.653613e+003,-1.673085e-002
2.655541e+003,-1.673618e-002
2.657470e+003,-1.680408e-002
2.659398e+003,-1.680261e-002
2.661327e+003,-1.674689e-002
2.663255e+003,-1.666444e-002
2.665184e+003,-1.666278e-002
2.667112e+003,-1.660714e-002
2.669041e+003,-1.653490e-002
2.670969e+003,-1.647592e-002
2.672898e+003,-1.648080e-002
2.674826e+003,-1.648016e-002
2.676755e+003,-1.641766e-002
2.678683e+003,-1.642762e-002
2.680612e+003,-1.644535e-002
2.682540e+003,-1.636045e-002
2.684469e+003,-1.628613e-002
2.686397e+003,-1.625868e-002
2.688326e+003,-1.621157e-002
2.690254e+003,-1.618492e-002
2.692183e+003,-1.614233e-002
2.694111e+003,-1.603119e-002
2.696040e+003,-1.604262e-002
2.697968e+003,-1.602700e-002
2.699897e+003,-1.592056e-002
2.701825e+003,-1.584504e-002
2.703754e+003,-1.578382e-002
2.705682e+003,-1.571723e-002
2.707611e+003,-1.571567e-002
2.709539e+003,-1.567623e-002
2.711468e+003,-1.560208e-002
2.713396e+003,-1.556685e-002
2.715325e+003,-1.557094e-002
2.717253e+003,-1.543068e-002
2.719182e+003,-1.536285e-002
2.721110e+003,-1.533717e-002
2.723039e+003,-1.524226e-002
2.724967e+003,-1.520281e-002
2.726896e+003,-1.512202e-002
2.728824e+003,-1.490737e-002
2.730753e+003,-1.473746e-002
2.732681e+003,-1.469765e-002
2.734610e+003,-1.479550e-002
2.736538e+003,-1.470803e-002
2.738467e+003,-1.450718e-002
2.740395e+003,-1.445357e-002
2.742324e+003,-1.436215e-002
2.744252e+003,-1.434523e-002
2.746181e+003,-1.427809e-002
2.748109e+003,-1.416256e-002
2.750038e+003,-1.407195e-002
2.751966e+003,-1.397445e-002
2.753895e+003,-1.387231e-002
2.755823e+003,-1.374293e-002
2.757752e+003,-1.361386e-002
2.759680e+003,-1.344126e-002
2.761609e+003,-1.312491e-002
2.763537e+003,-1.284520e-002
2.765466e+003,-1.262923e-002
2.767394e+003,-1.229503e-002
2.769323e+003,-1.194939e-002
2.771251e+003,-1.164834e-002
2.773180e+003,-1.115575e-002
2.775108e+003,-1.060424e-002
2.777037e+003,-1.015333e-002
2.778965e+003,-9.548491e-003
2.780894e+003,-8.856560e-003
2.782822e+003,-8.227741e-003
2.784750e+003,-7.539530e-003
2.786679e+003,-6.710088e-003
2.788608e+003,-5.785691e-003
2.790536e+003,-4.957999e-003
2.792465e+003,-4.208474e-003
2.794393e+003,-3.357614e-003
2.796322e+003,-2.459290e-003
2.798250e+003,-1.634108e-003
2.800178e+003,-9.524861e-004
2.802107e+003,-2.877069e-004
2.804036e+003,2.556381e-004
2.805964e+003,6.590388e-004
2.807893e+003,9.559412e-004
2.809821e+003,1.155362e-003
2.811750e+003,1.092145e-003
2.813678e+003,1.007216e-003
2.815606e+003,8.942801e-004
2.817535e+003,6.053830e-004
2.819464e+003,1.668619e-004
2.821392e+003,-3.550186e-004
2.823321e+003,-8.853332e-004
2.825249e+003,-1.400139e-003
2.827177e+003,-2.008506e-003
2.829106e+003,-2.774938e-003
2.831034e+003,-3.474910e-003
2.832963e+003,-4.096037e-003
2.834892e+003,-4.833960e-003
2.836820e+003,-5.520416e-003
2.838749e+003,-6.225779e-003
2.840677e+003,-6.994038e-003
2.842605e+003,-7.625979e-003
2.844534e+003,-8.443244e-003
2.846462e+003,-9.324780e-003
2.848391e+003,-9.967881e-003
2.850320e+003,-1.033426e-002
2.852248e+003,-1.058478e-002
2.854177e+003,-1.077536e-002
2.856105e+003,-1.088475e-002
2.858033e+003,-1.091364e-002
2.859962e+003,-1.082280e-002
2.861890e+003,-1.085603e-002
2.863819e+003,-1.093943e-002
2.865748e+003,-1.079940e-002
2.867676e+003,-1.060702e-002
2.869604e+003,-1.051622e-002
2.871533e+003,-1.027495e-002
2.873461e+003,-1.007894e-002
2.875390e+003,-9.941456e-003
2.877319e+003,-9.818184e-003
2.879247e+003,-9.720800e-003
2.881176e+003,-9.596395e-003
2.883104e+003,-9.511765e-003
2.885032e+003,-9.517697e-003
2.886961e+003,-9.567874e-003
2.888889e+003,-9.642771e-003
2.890818e+003,-9.787118e-003
2.892747e+003,-9.888440e-003
2.894675e+003,-1.000690e-002
2.896604e+003,-1.007929e-002
2.898532e+003,-1.005621e-002
2.900460e+003,-1.012416e-002
2.902389e+003,-1.035820e-002
2.904317e+003,-1.043112e-002
2.906246e+003,-1.036907e-002
2.908175e+003,-1.045143e-002
2.910103e+003,-1.068611e-002
2.912031e+003,-1.093710e-002
2.913960e+003,-1.114958e-002
2.915888e+003,-1.118123e-002
2.917817e+003,-1.110346e-002
2.919745e+003,-1.081508e-002
2.921674e+003,-1.048934e-002
2.923603e+003,-1.023835e-002
2.925531e+003,-9.813682e-003
2.927459e+003,-9.344173e-003
2.929388e+003,-9.007951e-003
2.931316e+003,-8.723692e-003
2.933245e+003,-8.444966e-003
2.935173e+003,-8.304561e-003
2.937102e+003,-8.318116e-003
2.939031e+003,-8.298418e-003
2.940959e+003,-8.196724e-003
2.942887e+003,-8.315320e-003
2.944816e+003,-8.684200e-003
2.946744e+003,-9.006945e-003
2.948673e+003,-9.469622e-003
2.950601e+003,-9.992264e-003
2.952530e+003,-1.048947e-002
2.954458e+003,-1.110217e-002
2.956387e+003,-1.187917e-002
2.958315e+003,-1.270943e-002
2.960244e+003,-1.337996e-002
2.962172e+003,-1.409722e-002
2.964101e+003,-1.483082e-002
2.966029e+003,-1.537827e-002
2.967958e+003,-1.591682e-002
2.969886e+003,-1.648584e-002
2.971815e+003,-1.689591e-002
2.973743e+003,-1.719363e-002
2.975672e+003,-1.750130e-002
2.977600e+003,-1.778283e-002
2.979529e+003,-1.811296e-002
2.981457e+003,-1.837015e-002
2.983386e+003,-1.861014e-002
2.985314e+003,-1.879650e-002
2.987243e+003,-1.897996e-002
2.989171e+003,-1.906359e-002
2.991100e+003,-1.909755e-002
2.993028e+003,-1.913290e-002
2.994957e+003,-1.916477e-002
2.996885e+003,-1.930874e-002
2.998814e+003,-1.941227e-002
3.000742e+003,-1.936823e-002
3.002671e+003,-1.945096e-002
3.004599e+003,-1.949233e-002
3.006528e+003,-1.941012e-002
3.008456e+003,-1.948356e-002
3.010385e+003,-1.948391e-002
3.012313e+003,-1.949183e-002
3.014242e+003,-1.967664e-002
3.016170e+003,-1.980205e-002
3.018099e+003,-1.973161e-002
3.020027e+003,-1.959842e-002
3.021956e+003,-1.955841e-002
3.023884e+003,-1.958686e-002
3.025813e+003,-1.962404e-002
3.027741e+003,-1.978828e-002
3.029670e+003,-1.982750e-002
3.031598e+003,-1.990132e-002
3.033527e+003,-1.993221e-002
3.035455e+003,-1.980971e-002
3.037384e+003,-1.972300e-002
3.039312e+003,-1.969272e-002
3.041241e+003,-1.972882e-002
3.043169e+003,-1.991252e-002
3.045098e+003,-1.998483e-002
3.047026e+003,-1.991217e-002
3.048955e+003,-1.988454e-002
3.050883e+003,-1.989511e-002
3.052812e+003,-1.992417e-002
3.054740e+003,-1.990337e-002
3.056669e+003,-1.989439e-002
3.058597e+003,-1.993414e-002
3.060526e+003,-2.002730e-002
3.062454e+003,-2.012408e-002
3.064383e+003,-2.010456e-002
3.066311e+003,-2.001005e-002
3.068240e+003,-1.994325e-002
3.070168e+003,-2.000970e-002
3.072097e+003,-2.009725e-002
3.074025e+003,-2.011500e-002
3.075954e+003,-2.006643e-002
3.077882e+003,-2.012145e-002
3.079811e+003,-2.007143e-002
3.081739e+003,-1.998195e-002
3.083668e+003,-1.996411e-002
3.085596e+003,-2.004486e-002
3.087525e+003,-2.011389e-002
3.089453e+003,-2.010044e-002
3.091382e+003,-2.004375e-002
3.093310e+003,-2.017738e-002
3.095239e+003,-2.016134e-002
3.097167e+003,-2.004476e-002
3.099096e+003,-2.014960e-002
3.101024e+003,-2.024575e-002
3.102953e+003,-2.017513e-002
3.104881e+003,-2.000258e-002
3.106810e+003,-2.002018e-002
3.108738e+003,-2.004005e-002
3.110667e+003,-1.991338e-002
3.112595e+003,-1.991600e-002
3.114524e+003,-2.000717e-002
3.116452e+003,-2.005992e-002
3.118381e+003,-2.016871e-002
3.120309e+003,-2.008380e-002
3.122238e+003,-1.986027e-002
3.124166e+003,-1.978027e-002
3.126095e+003,-1.995151e-002
3.128023e+003,-2.005973e-002
3.129952e+003,-1.999594e-002
3.131880e+003,-1.986188e-002
3.133809e+003,-1.986935e-002
3.135737e+003,-1.992746e-002
3.137666e+003,-1.996990e-002
3.139594e+003,-1.997588e-002
3.141523e+003,-2.000391e-002
3.143451e+003,-2.008981e-002
3.145380e+003,-2.002195e-002
3.147308e+003,-1.989635e-002
3.149237e+003,-1.980917e-002
3.151165e+003,-1.977033e-002
3.153094e+003,-1.979255e-002
3.155022e+003,-1.991338e-002
3.156951e+003,-1.981756e-002
3.158879e+003,-1.978850e-002
3.160808e+003,-1.981022e-002
3.162736e+003,-1.970260e-002
3.164665e+003,-1.961650e-002
3.166593e+003,-1.946556e-002
3.168522e+003,-1.945644e-002
3.170450e+003,-1.959756e-002
3.172379e+003,-1.958280e-002
3.174307e+003,-1.939801e-002
3.176236e+003,-1.940619e-002
3.178164e+003,-1.945343e-002
3.180093e+003,-1.942184e-002
3.182021e+003,-1.952075e-002
3.183950e+003,-1.959544e-002
3.185878e+003,-1.956019e-002
3.187807e+003,-1.949173e-002
3.189735e+003,-1.957064e-002
3.191664e+003,-1.963278e-002
3.193592e+003,-1.953317e-002
3.195521e+003,-1.950269e-002
3.197449e+003,-1.963664e-002
3.199378e+003,-1.973354e-002
3.201306e+003,-1.976226e-002
3.203235e+003,-1.974510e-002
3.205163e+003,-1.967806e-002
3.207092e+003,-1.961191e-002
3.209020e+003,-1.959158e-002
3.210948e+003,-1.962679e-002
3.212877e+003,-1.959173e-002
3.214806e+003,-1.945090e-002
3.216734e+003,-1.943759e-002
3.218663e+003,-1.943917e-002
3.220591e+003,-1.937482e-002
3.222520e+003,-1.937108e-002
3.224448e+003,-1.938014e-002
3.226376e+003,-1.926006e-002
3.228305e+003,-1.914372e-002
3.230234e+003,-1.920985e-002
3.232162e+003,-1.933986e-002
3.234091e+003,-1.927236e-002
3.236019e+003,-1.936103e-002
3.237948e+003,-1.938249e-002
3.239876e+003,-1.925236e-002
3.241804e+003,-1.908119e-002
3.243733e+003,-1.902611e-002
3.245662e+003,-1.908569e-002
3.247590e+003,-1.898830e-002
3.249519e+003,-1.881658e-002
3.251447e+003,-1.875849e-002
3.253375e+003,-1.873890e-002
3.255304e+003,-1.882233e-002
3.257232e+003,-1.883537e-002
3.259161e+003,-1.881906e-002
3.261090e+003,-1.858430e-002
3.263018e+003,-1.838695e-002
3.264947e+003,-1.839994e-002
3.266875e+003,-1.856785e-002
3.268803e+003,-1.859919e-002
3.270732e+003,-1.854804e-002
3.272660e+003,-1.865661e-002
3.274589e+003,-1.870790e-002
3.276518e+003,-1.855668e-002
3.278446e+003,-1.846476e-002
3.280375e+003,-1.859195e-002
3.282303e+003,-1.851823e-002
3.284231e+003,-1.836729e-002
3.286160e+003,-1.853836e-002
3.288088e+003,-1.870904e-002
3.290017e+003,-1.874989e-002
3.291946e+003,-1.872574e-002
3.293874e+003,-1.880504e-002
3.295802e+003,-1.888753e-002
3.297731e+003,-1.892420e-002
3.299659e+003,-1.889892e-002
3.301588e+003,-1.894145e-002
3.303516e+003,-1.903793e-002
3.305445e+003,-1.918975e-002
3.307374e+003,-1.926447e-002
3.309302e+003,-1.945492e-002
3.311230e+003,-1.962169e-002
3.313159e+003,-1.966492e-002
3.315087e+003,-1.963538e-002
3.317016e+003,-1.982044e-002
3.318944e+003,-1.996515e-002
3.320873e+003,-1.994812e-002
3.322802e+003,-2.001050e-002
3.324730e+003,-1.992515e-002
3.326658e+003,-1.986764e-002
3.328587e+003,-2.006609e-002
3.330515e+003,-2.028357e-002
3.332444e+003,-2.027096e-002
3.334372e+003,-2.012661e-002
3.336301e+003,-2.007706e-002
3.338229e+003,-2.012202e-002
3.340158e+003,-2.017203e-002
3.342086e+003,-2.023835e-002
3.344015e+003,-2.019692e-002
3.345943e+003,-2.004160e-002
3.347872e+003,-2.000866e-002
3.349800e+003,-2.007036e-002
3.351729e+003,-2.015087e-002
3.353657e+003,-2.018414e-002
3.355586e+003,-2.011819e-002
3.357514e+003,-2.017380e-002
3.359443e+003,-2.022156e-002
3.361371e+003,-2.011854e-002
3.363300e+003,-2.021062e-002
3.365229e+003,-2.026681e-002
3.367157e+003,-2.021378e-002
3.369085e+003,-2.036996e-002
3.371014e+003,-2.049435e-002
3.372942e+003,-2.053749e-002
3.374871e+003,-2.064638e-002
3.376799e+003,-2.092175e-002
3.378728e+003,-2.105049e-002
3.380656e+003,-2.107221e-002
3.382585e+003,-2.107300e-002
3.384513e+003,-2.117172e-002
3.386442e+003,-2.116882e-002
3.388370e+003,-2.126162e-002
3.390299e+003,-2.148561e-002
3.392227e+003,-2.163499e-002
3.394156e+003,-2.172073e-002
3.396084e+003,-2.178385e-002
3.398013e+003,-2.176983e-002
3.399941e+003,-2.177055e-002
3.401870e+003,-2.185998e-002
3.403798e+003,-2.202836e-002
3.405727e+003,-2.209474e-002
3.407655e+003,-2.199396e-002
3.409584e+003,-2.178045e-002
3.411512e+003,-2.177345e-002
3.413441e+003,-2.196328e-002
3.415369e+003,-2.196502e-002
3.417298e+003,-2.194753e-002
3.419226e+003,-2.193553e-002
3.421155e+003,-2.178332e-002
3.423083e+003,-2.183392e-002
3.425012e+003,-2.188248e-002
3.426940e+003,-2.176992e-002
3.428869e+003,-2.179016e-002
3.430797e+003,-2.201403e-002
3.432726e+003,-2.210375e-002
3.434654e+003,-2.210684e-002
3.436583e+003,-2.211162e-002
3.438511e+003,-2.221546e-002
3.440440e+003,-2.224335e-002
3.442368e+003,-2.223454e-002
3.444297e+003,-2.227228e-002
3.446225e+003,-2.230436e-002
3.448154e+003,-2.218517e-002
3.450082e+003,-2.213234e-002
3.452011e+003,-2.215265e-002
3.453939e+003,-2.210139e-002
3.455868e+003,-2.211468e-002
3.457796e+003,-2.219519e-002
3.459725e+003,-2.225207e-002
3.461653e+003,-2.226278e-002
3.463582e+003,-2.229155e-002
3.465510e+003,-2.234005e-002
3.467439e+003,-2.236057e-002
3.469367e+003,-2.231861e-002
3.471296e+003,-2.245249e-002
3.473224e+003,-2.253218e-002
3.475153e+003,-2.247114e-002
3.477081e+003,-2.235264e-002
3.479010e+003,-2.227940e-002
3.480938e+003,-2.236346e-002
3.482867e+003,-2.230615e-002
3.484795e+003,-2.221030e-002
3.486724e+003,-2.227291e-002
3.488652e+003,-2.238927e-002
3.490581e+003,-2.249399e-002
3.492509e+003,-2.247335e-002
3.494438e+003,-2.223013e-002
3.496366e+003,-2.209153e-002
3.498295e+003,-2.216396e-002
3.500223e+003,-2.224603e-002
3.502152e+003,-2.226208e-002
3.504080e+003,-2.231644e-002
3.506009e+003,-2.218250e-002
3.507937e+003,-2.220567e-002
3.509866e+003,-2.240255e-002
3.511794e+003,-2.231068e-002
3.513723e+003,-2.226873e-002
3.515651e+003,-2.216131e-002
3.517580e+003,-2.200209e-002
3.519508e+003,-2.212038e-002
3.521437e+003,-2.217327e-002
3.523365e+003,-2.213675e-002
3.525294e+003,-2.215457e-002
3.527222e+003,-2.213237e-002
3.529151e+003,-2.219604e-002
3.531079e+003,-2.226032e-002
3.533008e+003,-2.229447e-002
3.534936e+003,-2.224398e-002
3.536865e+003,-2.199941e-002
3.538793e+003,-2.193509e-002
3.540722e+003,-2.214944e-002
3.542650e+003,-2.233237e-002
3.544579e+003,-2.236582e-002
3.546507e+003,-2.214213e-002
3.548436e+003,-2.201314e-002
3.550364e+003,-2.207072e-002
3.552293e+003,-2.217025e-002
3.554221e+003,-2.225670e-002
3.556150e+003,-2.198776e-002
3.558078e+003,-2.188459e-002
3.560007e+003,-2.194382e-002
3.561935e+003,-2.197261e-002
3.563864e+003,-2.201664e-002
3.565792e+003,-2.212557e-002
3.567721e+003,-2.219534e-002
3.569649e+003,-2.211978e-002
3.571578e+003,-2.189092e-002
3.573506e+003,-2.189420e-002
3.575435e+003,-2.210366e-002
3.577363e+003,-2.195563e-002
3.579292e+003,-2.185989e-002
3.581220e+003,-2.192381e-002
3.583149e+003,-2.194854e-002
3.585077e+003,-2.202477e-002
3.587006e+003,-2.221109e-002
3.588934e+003,-2.213030e-002
3.590863e+003,-2.208268e-002
3.592791e+003,-2.221319e-002
3.594720e+003,-2.212415e-002
3.596648e+003,-2.188213e-002
3.598577e+003,-2.188119e-002
3.600505e+003,-2.196171e-002
3.602434e+003,-2.195979e-002
3.604362e+003,-2.203185e-002
3.606291e+003,-2.220766e-002
3.608219e+003,-2.222579e-002
3.610148e+003,-2.232834e-002
3.612076e+003,-2.236636e-002
3.614005e+003,-2.212765e-002
3.615933e+003,-2.221389e-002
3.617862e+003,-2.237269e-002
3.619790e+003,-2.211433e-002
3.621719e+003,-2.177018e-002
3.623647e+003,-2.165586e-002
3.625576e+003,-2.210558e-002
3.627504e+003,-2.278463e-002
3.629433e+003,-2.230584e-002
3.631361e+003,-2.183200e-002
3.633290e+003,-2.193755e-002
3.635218e+003,-2.214934e-002
3.637146e+003,-2.223331e-002
3.639075e+003,-2.203157e-002
3.641004e+003,-2.193471e-002
3.642932e+003,-2.204234e-002
3.644861e+003,-2.241394e-002
3.646789e+003,-2.286979e-002
3.648718e+003,-2.287623e-002
3.650646e+003,-2.257465e-002
3.652574e+003,-2.256301e-002
3.654503e+003,-2.290295e-002
3.656432e+003,-2.286470e-002
3.658360e+003,-2.245475e-002
3.660289e+003,-2.222654e-002
3.662217e+003,-2.213785e-002
3.664146e+003,-2.213247e-002
3.666074e+003,-2.239887e-002
3.668002e+003,-2.273929e-002
3.669931e+003,-2.289195e-002
3.671860e+003,-2.289101e-002
3.673788e+003,-2.338585e-002
3.675717e+003,-2.315594e-002
3.677645e+003,-2.266793e-002
3.679573e+003,-2.262091e-002
3.681502e+003,-2.253158e-002
3.683430e+003,-2.255269e-002
3.685359e+003,-2.266960e-002
3.687288e+003,-2.292646e-002
3.689216e+003,-2.308943e-002
3.691145e+003,-2.301069e-002
3.693073e+003,-2.265425e-002
3.695001e+003,-2.272583e-002
3.696930e+003,-2.271548e-002
3.698858e+003,-2.251148e-002
3.700787e+003,-2.262129e-002
3.702716e+003,-2.259883e-002
3.704644e+003,-2.243911e-002
3.706573e+003,-2.264145e-002
3.708501e+003,-2.307441e-002
3.710429e+003,-2.332689e-002
3.712358e+003,-2.307416e-002
3.714286e+003,-2.291194e-002
3.716215e+003,-2.289440e-002
3.718144e+003,-2.295912e-002
3.720072e+003,-2.299428e-002
3.722000e+003,-2.286316e-002
3.723929e+003,-2.279720e-002
3.725857e+003,-2.279343e-002
3.727786e+003,-2.270234e-002
3.729714e+003,-2.304098e-002
3.731643e+003,-2.337848e-002
3.733572e+003,-2.337166e-002
3.735500e+003,-2.320258e-002
3.737428e+003,-2.308538e-002
3.739357e+003,-2.308497e-002
3.741285e+003,-2.314598e-002
3.743214e+003,-2.346582e-002
3.745142e+003,-2.274645e-002
3.747071e+003,-2.297863e-002
3.749000e+003,-2.344554e-002
3.750928e+003,-2.333781e-002
3.752856e+003,-2.284838e-002
3.754785e+003,-2.272070e-002
3.756713e+003,-2.280726e-002
3.758642e+003,-2.294048e-002
3.760570e+003,-2.254964e-002
3.762499e+003,-2.223696e-002
3.764427e+003,-2.243534e-002
3.766356e+003,-2.249241e-002
3.768284e+003,-2.268212e-002
3.770213e+003,-2.240868e-002
3.772141e+003,-2.230524e-002
3.774070e+003,-2.263683e-002
3.775998e+003,-2.258443e-002
3.777927e+003,-2.261717e-002
3.779855e+003,-2.259990e-002
3.781784e+003,-2.251843e-002
3.783712e+003,-2.263387e-002
3.785641e+003,-2.256666e-002
3.787569e+003,-2.240290e-002
3.789498e+003,-2.215797e-002
3.791426e+003,-2.220558e-002
3.793355e+003,-2.237967e-002
3.795283e+003,-2.265545e-002
3.797212e+003,-2.286146e-002
3.799140e+003,-2.306203e-002
3.801069e+003,-2.288472e-002
3.802997e+003,-2.257490e-002
3.804926e+003,-2.270234e-002
3.806854e+003,-2.247328e-002
3.808783e+003,-2.223599e-002
3.810711e+003,-2.242351e-002
3.812640e+003,-2.256543e-002
3.814568e+003,-2.275208e-002
3.816497e+003,-2.259324e-002
3.818425e+003,-2.258773e-002
3.820354e+003,-2.275432e-002
3.822282e+003,-2.271111e-002
3.824211e+003,-2.272064e-002
3.826139e+003,-2.256040e-002
3.828068e+003,-2.248250e-002
3.829996e+003,-2.256546e-002
3.831925e+003,-2.261022e-002
3.833853e+003,-2.264969e-002
3.835782e+003,-2.289076e-002
3.837710e+003,-2.311308e-002
3.839639e+003,-2.302816e-002
3.841567e+003,-2.285885e-002
3.843496e+003,-2.259387e-002
3.845424e+003,-2.236340e-002
3.847353e+003,-2.246812e-002
3.849281e+003,-2.279355e-002
3.851210e+003,-2.332632e-002
3.853138e+003,-2.328967e-002
3.855067e+003,-2.276001e-002
3.856995e+003,-2.269992e-002
3.858924e+003,-2.281037e-002
3.860852e+003,-2.300223e-002
3.862781e+003,-2.297046e-002
3.864709e+003,-2.280226e-002
3.866638e+003,-2.272762e-002
3.868566e+003,-2.300984e-002
3.870495e+003,-2.270400e-002
3.872423e+003,-2.272718e-002
3.874352e+003,-2.266561e-002
3.876280e+003,-2.262519e-002
3.878209e+003,-2.287013e-002
3.880137e+003,-2.279311e-002
3.882066e+003,-2.254586e-002
3.883994e+003,-2.278824e-002
3.885923e+003,-2.260066e-002
3.887851e+003,-2.247089e-002
3.889780e+003,-2.294259e-002
3.891708e+003,-2.297640e-002
3.893637e+003,-2.268951e-002
3.895565e+003,-2.249644e-002
3.897494e+003,-2.268630e-002
3.899422e+003,-2.305474e-002
3.901351e+003,-2.305041e-002
3.903279e+003,-2.300440e-002
3.905208e+003,-2.290613e-002
3.907136e+003,-2.292759e-002
3.909065e+003,-2.299208e-002
3.910993e+003,-2.315057e-002
3.912922e+003,-2.286218e-002
3.914850e+003,-2.273259e-002
3.916779e+003,-2.291229e-002
3.918707e+003,-2.310024e-002
3.920636e+003,-2.288874e-002
3.922564e+003,-2.264306e-002
3.924493e+003,-2.274385e-002
3.926421e+003,-2.284096e-002
3.928350e+003,-2.305798e-002
3.930278e+003,-2.311104e-002
3.932207e+003,-2.298328e-002
3.934135e+003,-2.287265e-002
3.936064e+003,-2.274985e-002
3.937992e+003,-2.286077e-002
3.939921e+003,-2.331539e-002
3.941849e+003,-2.348769e-002
3.943778e+003,-2.308211e-002
3.945706e+003,-2.297254e-002
3.947635e+003,-2.306395e-002
3.949563e+003,-2.287494e-002
3.951492e+003,-2.298495e-002
3.953420e+003,-2.303941e-002
3.955349e+003,-2.289421e-002
3.957277e+003,-2.283442e-002
3.959206e+003,-2.295550e-002
3.961134e+003,-2.321235e-002
3.963063e+003,-2.312644e-002
3.964991e+003,-2.302747e-002
3.966920e+003,-2.320689e-002
3.968848e+003,-2.339954e-002
3.970777e+003,-2.328182e-002
3.972705e+003,-2.305311e-002
3.974634e+003,-2.308830e-002
3.976562e+003,-2.315663e-002
3.978491e+003,-2.303432e-002
3.980419e+003,-2.298913e-002
3.982348e+003,-2.309838e-002
3.984276e+003,-2.314874e-002
3.986205e+003,-2.308707e-002
3.988133e+003,-2.296339e-002
3.990062e+003,-2.284675e-002
3.991990e+003,-2.305348e-002
3.993919e+003,-2.314607e-002
3.995847e+003,-2.300101e-002
3.997776e+003,-2.307476e-002
3.999704e+003,-2.307089e-002
4.001633e+003,0.000000e+000
